##NAMES=Actinolite
##RRUFFID=R060045
##IDEAL CHEMISTRY=Ca_2_(Mg_4.5-2.5_Fe^2+^_0.5-2.5_)Si_8_O_22_(OH)_2_
##LOCALITY=Colorado, USA
##OWNER=RRUFF
##SOURCE=University of Arizona Mineral Museum
##DESCRIPTION=Green prismatic crystals in a radial arrangement
##STATUS=The identification of this mineral has been confirmed by X-ray diffraction and chemical analysis
##URL=rruff.info/R060045
##MEASURED CHEMISTRY=(Ca_1.99_Na_0.01_)_Σ=2_(Mg_4.20_Fe^2+^_0.59_Al_0.09_Fe^3+^_0.08_Mn_0.02_Ti_0.01_)_Σ=5_(Si_7.82_Al_0.18_)_Σ=8_O_22_(OH)_2_
##PIN_ID=M00122
##ORIENTATION=Laser parallel to (1 0 1). Fiducial mark perpendicular to laser is parallel to b [0 1 0]
125.5190, 16346.00
126.7490, 16309.00
127.9790, 16386.00
129.2090, 16537.00
130.4390, 16588.00
131.6680, 16708.14
132.8980, 16733.00
134.1270, 16926.00
135.3560, 17013.00
136.5850, 17142.00
137.8140, 17164.00
139.0430, 17127.00
140.2710, 17242.00
141.5000, 17247.00
142.7280, 17434.00
143.9560, 17371.00
145.1840, 17325.00
146.4120, 17489.00
147.6390, 17634.00
148.8670, 17586.00
150.0940, 17782.00
151.3210, 18013.00
152.5490, 18116.00
153.7750, 18435.00
155.0020, 18947.00
156.2290, 19268.00
157.4550, 19569.00
158.6810, 19568.00
159.9080, 19241.00
161.1340, 19014.00
162.3590, 18808.00
163.5850, 18666.00
164.8110, 18923.00
166.0360, 18582.00
167.2610, 18815.00
168.4860, 18760.00
169.7110, 18818.00
170.9360, 19097.00
172.1610, 19500.00
173.3850, 19678.00
174.6100, 20256.00
175.8340, 20447.00
177.0580, 20740.00
178.2820, 20627.00
179.5050, 20115.00
180.7290, 19828.00
181.9520, 19204.00
183.1760, 19158.00
184.3990, 18984.00
185.6220, 18880.00
186.8450, 18913.00
188.0670, 18858.00
189.2900, 18834.41
190.5120, 18987.00
191.7340, 18878.00
192.9560, 18935.00
194.1780, 19132.00
195.4000, 19002.00
196.6220, 19085.00
197.8430, 19145.00
199.0640, 19815.00
200.2860, 20089.00
201.5070, 20587.00
202.7270, 21115.00
203.9480, 21431.00
205.1690, 21065.00
206.3890, 21804.00
207.6090, 19888.00
208.8290, 22193.00
210.0490, 20950.00
211.2690, 20396.00
212.4890, 21025.00
213.7080, 21217.00
214.9280, 21800.00
216.1470, 22270.00
217.3660, 22899.00
218.5850, 23801.00
219.8030, 24451.00
221.0220, 25006.00
222.2400, 24871.00
223.4590, 24980.00
224.6770, 24753.00
225.8950, 24816.00
227.1120, 24910.00
228.3300, 25584.00
229.5480, 25725.00
230.7650, 25874.00
231.9820, 25554.00
233.1990, 24933.00
234.4160, 24119.00
235.6330, 23506.00
236.8490, 22756.00
238.0660, 22380.00
239.2820, 22021.00
240.4980, 21858.00
241.7140, 21629.00
242.9300, 21549.00
244.1460, 21574.00
245.3610, 21673.00
246.5770, 21868.00
247.7920, 21983.00
249.0070, 21804.00
250.2220, 21750.00
251.4370, 21781.00
252.6510, 21414.00
253.8660, 21328.00
255.0800, 21134.00
256.2940, 21107.00
257.5080, 21057.00
258.7220, 21035.00
259.9360, 20958.53
261.1490, 20914.07
262.3630, 20860.89
263.5760, 20805.00
264.7890, 20749.00
266.0020, 20710.00
267.2150, 20658.00
268.4270, 20699.00
269.6400, 20703.00
270.8520, 20749.00
272.0640, 20617.00
273.2760, 20668.00
274.4880, 20469.00
275.7000, 20651.00
276.9120, 20872.00
278.1230, 21128.00
279.3340, 20712.00
280.5450, 20712.00
281.7560, 20703.00
282.9670, 20902.00
284.1780, 20911.00
285.3880, 21129.00
286.5980, 20847.00
287.8090, 20851.00
289.0190, 21015.00
290.2290, 21041.00
291.4380, 21121.00
292.6480, 21031.00
293.8570, 21239.00
295.0670, 21101.00
296.2760, 21223.00
297.4850, 21504.00
298.6930, 21440.00
299.9020, 21321.00
301.1110, 21425.00
302.3190, 21515.00
303.5270, 21485.00
304.7350, 21613.00
305.9430, 21624.00
307.1510, 21662.00
308.3580, 21641.56
309.5660, 21592.00
310.7730, 21543.00
311.9800, 21591.00
313.1870, 21568.00
314.3940, 21577.00
315.6010, 21550.00
316.8070, 21625.00
318.0130, 21712.00
319.2200, 21707.00
320.4260, 21636.00
321.6310, 21824.00
322.8370, 21765.00
324.0430, 21647.00
325.2480, 21814.00
326.4540, 21883.00
327.6590, 21888.00
328.8640, 22139.00
330.0680, 22229.00
331.2730, 22135.00
332.4780, 22027.00
333.6820, 22183.00
334.8860, 22371.00
336.0900, 22150.00
337.2940, 22440.00
338.4980, 22239.00
339.7010, 22545.00
340.9050, 22759.00
342.1080, 23081.00
343.3110, 22926.00
344.5140, 23169.00
345.7170, 23299.00
346.9200, 23283.00
348.1220, 23583.00
349.3240, 23499.00
350.5270, 23474.00
351.7290, 23667.00
352.9310, 23474.00
354.1320, 23540.00
355.3340, 23293.00
356.5350, 23632.00
357.7370, 23652.00
358.9380, 23839.00
360.1390, 23971.00
361.3400, 23999.00
362.5400, 24251.00
363.7410, 24544.00
364.9410, 24729.00
366.1410, 24958.00
367.3410, 25154.00
368.5410, 25174.00
369.7410, 25324.00
370.9400, 25043.00
372.1400, 24721.00
373.3390, 24612.00
374.5380, 24594.00
375.7370, 24251.00
376.9360, 24280.00
378.1350, 24210.00
379.3330, 24222.00
380.5310, 24227.00
381.7300, 24414.00
382.9280, 24582.00
384.1260, 24792.53
385.3230, 25076.00
386.5210, 25361.00
387.7180, 25647.00
388.9160, 26006.00
390.1130, 26180.00
391.3100, 26341.00
392.5060, 26307.00
393.7030, 26012.00
394.9000, 25567.00
396.0960, 25392.00
397.2920, 25102.00
398.4880, 24744.00
399.6840, 24825.00
400.8800, 24625.00
402.0750, 24844.00
403.2710, 24893.00
404.4660, 24820.00
405.6610, 24698.00
406.8560, 25049.00
408.0510, 25144.00
409.2450, 25408.00
410.4400, 25407.00
411.6340, 25642.00
412.8280, 25655.00
414.0220, 25822.00
415.2160, 25882.00
416.4100, 25525.00
417.6030, 25230.00
418.7970, 25337.00
419.9900, 24986.00
421.1830, 24992.00
422.3760, 24897.00
423.5690, 24627.00
424.7610, 24515.00
425.9540, 24672.00
427.1460, 24717.00
428.3380, 24819.00
429.5300, 24681.00
430.7220, 24737.00
431.9140, 25056.00
433.1050, 25344.00
434.2970, 25134.00
435.4880, 25240.00
436.6790, 25184.00
437.8700, 25023.00
439.0610, 24995.00
440.2510, 24874.00
441.4420, 24792.00
442.6320, 24748.00
443.8220, 24626.54
445.0120, 24617.00
446.2020, 24498.00
447.3910, 24551.00
448.5810, 24650.00
449.7700, 24288.00
450.9600, 24499.00
452.1490, 24572.00
453.3370, 24814.00
454.5260, 24643.00
455.7150, 24551.00
456.9030, 24719.00
458.0910, 24720.00
459.2800, 24874.00
460.4670, 24798.00
461.6550, 24638.00
462.8430, 24810.00
464.0300, 24953.00
465.2180, 24792.00
466.4050, 24815.00
467.5920, 25015.00
468.7790, 25122.00
469.9650, 24823.00
471.1520, 24897.00
472.3380, 25026.00
473.5250, 25082.00
474.7110, 25041.00
475.8970, 25040.00
477.0820, 25091.00
478.2680, 25209.00
479.4540, 25346.00
480.6390, 25320.00
481.8240, 25295.00
483.0090, 25280.00
484.1940, 25441.00
485.3780, 25227.00
486.5630, 25561.00
487.7470, 25371.00
488.9320, 25526.00
490.1160, 25636.00
491.3000, 25540.00
492.4830, 25508.00
493.6670, 25611.00
494.8500, 25447.00
496.0340, 25768.00
497.2170, 25709.00
498.4000, 25680.00
499.5820, 25571.00
500.7650, 25884.00
501.9480, 26008.00
503.1300, 26134.00
504.3120, 26173.00
505.4940, 26231.92
506.6760, 26187.00
507.8580, 26298.00
509.0390, 26358.00
510.2210, 26455.00
511.4020, 26590.03
512.5830, 26726.00
513.7640, 26866.00
514.9450, 27125.00
516.1250, 27259.00
517.3060, 27125.00
518.4860, 27321.00
519.6660, 27041.00
520.8460, 27357.00
522.0260, 27322.00
523.2060, 27455.00
524.3850, 27487.00
525.5650, 27469.04
526.7440, 27620.00
527.9230, 27437.00
529.1020, 27498.00
530.2810, 27499.00
531.4590, 27489.00
532.6380, 27487.00
533.8160, 27364.00
534.9940, 27003.00
536.1720, 27106.00
537.3500, 27117.00
538.5270, 27236.00
539.7050, 27259.00
540.8820, 27204.79
542.0590, 27225.79
543.2360, 27187.97
544.4130, 27144.00
545.5900, 27099.00
546.7660, 27053.00
547.9430, 26961.00
549.1190, 26908.00
550.2950, 26968.00
551.4710, 26974.00
552.6470, 27149.00
553.8220, 27248.00
554.9980, 27286.00
556.1730, 27299.00
557.3480, 27111.00
558.5230, 27188.00
559.6980, 27317.00
560.8730, 27026.00
562.0470, 27550.00
563.2220, 27249.00
564.3960, 27324.00
565.5700, 27292.00
566.7440, 27326.00
567.9170, 27325.00
569.0910, 27494.00
570.2640, 27556.00
571.4380, 27632.00
572.6110, 27692.26
573.7840, 27682.00
574.9570, 27745.00
576.1290, 27743.00
577.3020, 27753.00
578.4740, 27816.00
579.6460, 27592.00
580.8180, 27622.00
581.9900, 27898.00
583.1620, 27630.00
584.3330, 27806.00
585.5040, 28038.00
586.6760, 28026.00
587.8470, 27793.00
589.0180, 27703.00
590.1880, 27875.00
591.3590, 27819.00
592.5290, 27707.00
593.7000, 27819.00
594.8700, 27619.00
596.0400, 27985.00
597.2090, 27970.00
598.3790, 28285.00
599.5490, 27955.00
600.7180, 27841.00
601.8870, 27809.00
603.0560, 28392.00
604.2250, 28211.00
605.3940, 28172.00
606.5620, 28142.00
607.7300, 28041.00
608.8990, 28185.97
610.0670, 28194.00
611.2350, 28436.00
612.4020, 28481.00
613.5700, 28517.00
614.7370, 28443.00
615.9050, 28603.00
617.0720, 28664.00
618.2390, 28719.00
619.4060, 28731.00
620.5720, 28604.00
621.7390, 28736.00
622.9050, 28793.00
624.0710, 28975.00
625.2370, 28897.00
626.4030, 29161.00
627.5690, 28964.00
628.7340, 29014.00
629.9000, 29065.00
631.0650, 29205.00
632.2300, 29139.00
633.3950, 29168.00
634.5600, 29353.00
635.7240, 29297.00
636.8890, 29340.00
638.0530, 29444.00
639.2170, 29472.63
640.3810, 29618.00
641.5450, 29685.00
642.7080, 29779.00
643.8720, 29988.00
645.0350, 30126.00
646.1980, 30197.00
647.3610, 30397.00
648.5240, 30691.00
649.6870, 30686.00
650.8490, 30922.00
652.0120, 30856.00
653.1740, 30918.00
654.3360, 31266.00
655.4980, 31557.00
656.6600, 31700.00
657.8210, 31736.00
658.9830, 32084.00
660.1440, 32411.00
661.3050, 33010.00
662.4660, 33970.00
663.6270, 34722.00
664.7870, 35833.00
665.9480, 37098.00
667.1080, 38440.00
668.2680, 40116.00
669.4280, 41574.00
670.5880, 42803.00
671.7480, 43369.00
672.9070, 42846.00
674.0670, 41384.00
675.2260, 40201.00
676.3850, 38147.00
677.5440, 36817.00
678.7030, 35510.00
679.8610, 34625.00
681.0200, 33773.00
682.1780, 33156.00
683.3360, 32943.00
684.4940, 32458.00
685.6520, 32271.00
686.8090, 32306.00
687.9670, 32283.00
689.1240, 31925.00
690.2810, 31692.00
691.4380, 31747.00
692.5950, 31599.00
693.7520, 31537.00
694.9080, 31585.00
696.0650, 31616.00
697.2210, 31260.00
698.3770, 31216.00
699.5330, 31176.00
700.6880, 30986.00
701.8440, 31203.00
702.9990, 31044.00
704.1550, 31031.00
705.3100, 31056.00
706.4650, 31279.00
707.6190, 31146.00
708.7740, 31082.00
709.9290, 31351.00
711.0830, 30919.00
712.2370, 31308.00
713.3910, 31164.00
714.5450, 31218.00
715.6980, 31242.00
716.8520, 31174.00
718.0050, 31411.00
719.1580, 31492.00
720.3110, 31372.00
721.4640, 31362.00
722.6170, 31455.00
723.7700, 31312.00
724.9220, 31400.00
726.0740, 31457.00
727.2260, 31695.00
728.3780, 31449.00
729.5300, 31595.00
730.6810, 31697.00
731.8330, 31961.00
732.9840, 31869.00
734.1350, 31808.00
735.2860, 32105.00
736.4370, 32087.00
737.5880, 31930.00
738.7380, 32291.00
739.8880, 32491.00
741.0390, 32411.00
742.1890, 32579.00
743.3380, 32515.00
744.4880, 32547.00
745.6380, 32560.00
746.7870, 32558.00
747.9360, 32670.00
749.0850, 32439.00
750.2340, 32543.00
751.3830, 32596.00
752.5310, 32389.00
753.6800, 32551.00
754.8280, 32795.00
755.9760, 32335.00
757.1240, 32289.00
758.2720, 32507.00
759.4190, 32398.00
760.5670, 32519.00
761.7140, 32672.00
762.8610, 32604.00
764.0080, 32673.00
765.1550, 32619.00
766.3020, 32600.17
767.4480, 32657.00
768.5950, 32593.14
769.7410, 32572.25
770.8870, 32682.00
772.0330, 32717.00
773.1780, 32635.00
774.3240, 32726.56
775.4690, 32747.00
776.6140, 32780.00
777.7590, 32829.00
778.9040, 32841.00
780.0490, 32772.00
781.1940, 32789.00
782.3380, 32841.00
783.4820, 33092.00
784.6260, 32962.00
785.7700, 33067.00
786.9140, 33003.00
788.0580, 33109.00
789.2010, 33071.00
790.3450, 33099.00
791.4880, 33160.00
792.6310, 33282.00
793.7730, 32982.00
794.9160, 33260.00
796.0590, 33111.00
797.2010, 33293.00
798.3430, 33258.00
799.4850, 33416.00
800.6270, 33504.00
801.7690, 33250.00
802.9100, 34051.00
804.0520, 33768.52
805.1930, 33555.00
806.3340, 33811.00
807.4750, 33593.00
808.6160, 33729.00
809.7560, 33644.00
810.8970, 33611.00
812.0370, 33782.00
813.1770, 33752.09
814.3170, 33773.91
815.4570, 33867.00
816.5960, 33762.00
817.7360, 33780.15
818.8750, 33765.10
820.0140, 33898.00
821.1530, 33931.00
822.2920, 34115.00
823.4310, 34326.00
824.5690, 34399.00
825.7070, 34133.00
826.8460, 34567.00
827.9840, 34320.00
829.1220, 34180.00
830.2590, 34432.00
831.3970, 34604.00
832.5340, 34820.00
833.6710, 34548.00
834.8080, 34640.00
835.9450, 34715.00
837.0820, 34410.00
838.2190, 34601.00
839.3550, 34759.00
840.4910, 34795.00
841.6270, 34901.00
842.7630, 35134.00
843.8990, 35048.00
845.0350, 34938.00
846.1700, 35099.00
847.3060, 34942.00
848.4410, 35062.00
849.5760, 35224.00
850.7100, 34955.00
851.8450, 35077.00
852.9800, 35193.00
854.1140, 35275.00
855.2480, 35142.00
856.3820, 35289.00
857.5160, 35315.00
858.6500, 35321.00
859.7830, 35555.00
860.9170, 35611.00
862.0500, 35627.00
863.1830, 35759.84
864.3160, 35462.00
865.4480, 35853.00
866.5810, 35851.00
867.7130, 35798.00
868.8460, 36050.00
869.9780, 35608.00
871.1100, 35576.00
872.2410, 35742.00
873.3730, 35813.00
874.5050, 35845.00
875.6360, 36048.00
876.7670, 35765.00
877.8980, 36158.00
879.0290, 35891.00
880.1590, 36202.00
881.2900, 35827.00
882.4200, 36116.00
883.5500, 36128.00
884.6800, 36190.00
885.8100, 36199.00
886.9400, 36469.00
888.0690, 36142.00
889.1990, 36194.00
890.3280, 36253.00
891.4570, 36533.00
892.5860, 36693.00
893.7140, 36245.00
894.8430, 36533.00
895.9710, 36574.00
897.1000, 36557.00
898.2280, 36734.00
899.3560, 36944.00
900.4830, 36853.00
901.6110, 37132.00
902.7380, 36763.00
903.8660, 36999.00
904.9930, 37045.00
906.1200, 37006.00
907.2460, 37073.00
908.3730, 37100.55
909.5000, 37316.00
910.6260, 37244.00
911.7520, 37207.00
912.8780, 37378.00
914.0040, 37329.00
915.1290, 37306.00
916.2550, 37415.00
917.3800, 37529.00
918.5050, 37811.00
919.6300, 37988.00
920.7550, 37849.00
921.8800, 38252.00
923.0040, 38067.00
924.1290, 38643.00
925.2530, 38308.00
926.3770, 38803.00
927.5010, 39093.00
928.6250, 38868.00
929.7480, 38902.00
930.8720, 39180.00
931.9950, 39002.00
933.1180, 38915.00
934.2410, 38724.00
935.3640, 38816.00
936.4860, 38572.00
937.6090, 38316.00
938.7310, 38216.00
939.8530, 38418.00
940.9750, 38566.00
942.0970, 38483.00
943.2180, 38449.00
944.3400, 38815.00
945.4610, 38581.00
946.5820, 38779.00
947.7030, 38696.00
948.8240, 38713.00
949.9450, 38685.00
951.0650, 38629.00
952.1860, 38610.00
953.3060, 38725.00
954.4260, 38591.00
955.5460, 38773.00
956.6650, 38818.00
957.7850, 38727.00
958.9040, 38632.00
960.0230, 38678.96
961.1420, 38792.00
962.2610, 38766.00
963.3800, 38720.00
964.4990, 38869.00
965.6170, 38893.00
966.7350, 38820.00
967.8530, 38662.00
968.9710, 39143.00
970.0890, 39094.00
971.2070, 38897.00
972.3240, 39113.00
973.4410, 38946.00
974.5580, 38811.00
975.6750, 39098.00
976.7920, 39246.00
977.9090, 39366.00
979.0250, 39418.00
980.1410, 39490.00
981.2580, 39324.00
982.3740, 39425.00
983.4890, 39564.00
984.6050, 39319.00
985.7200, 39619.00
986.8360, 39488.00
987.9510, 39764.00
989.0660, 39849.00
990.1810, 39822.00
991.2950, 39588.00
992.4100, 39864.00
993.5240, 39631.00
994.6390, 39955.00
995.7530, 40052.00
996.8660, 40647.00
997.9800, 41182.00
999.0940, 40639.00
1000.207, 40362.00
1001.320, 40510.00
1002.433, 40639.00
1003.546, 40454.00
1004.659, 40717.00
1005.772, 40816.00
1006.884, 40860.00
1007.996, 40969.00
1009.108, 40950.00
1010.220, 41038.00
1011.332, 40972.00
1012.444, 41182.00
1013.555, 41368.00
1014.666, 41561.00
1015.777, 41623.00
1016.888, 41883.00
1017.999, 42180.00
1019.110, 42423.00
1020.220, 42393.00
1021.331, 42745.00
1022.441, 42942.00
1023.551, 43528.00
1024.661, 43656.00
1025.770, 44085.00
1026.880, 44134.00
1027.989, 44355.00
1029.098, 44294.00
1030.207, 44316.00
1031.316, 43982.00
1032.425, 43553.00
1033.533, 42977.00
1034.642, 43033.00
1035.750, 42384.00
1036.858, 42250.00
1037.966, 42358.00
1039.073, 42453.00
1040.181, 42108.00
1041.288, 41858.00
1042.396, 42042.00
1043.503, 42361.00
1044.610, 42440.00
1045.716, 42523.00
1046.823, 42837.00
1047.929, 42912.00
1049.036, 43177.00
1050.142, 43004.00
1051.248, 43476.00
1052.353, 43684.00
1053.459, 43773.00
1054.564, 44313.00
1055.670, 44290.00
1056.775, 44792.00
1057.880, 44519.00
1058.985, 44268.00
1060.089, 44276.00
1061.194, 44111.00
1062.298, 43925.00
1063.402, 44132.00
1064.506, 44274.00
1065.610, 44046.00
1066.713, 44219.00
1067.817, 44037.00
1068.920, 43919.09
1070.023, 43978.00
1071.126, 43628.00
1072.229, 43465.00
1073.332, 43348.00
1074.435, 42875.00
1075.537, 43049.00
1076.639, 42875.00
1077.741, 42769.00
1078.843, 42839.00
1079.945, 42664.00
1081.046, 43010.00
1082.148, 42907.00
1083.249, 43041.00
1084.350, 42814.00
1085.451, 42736.00
1086.551, 42979.00
1087.652, 43012.00
1088.752, 42945.00
1089.853, 43139.00
1090.953, 43105.00
1092.053, 42955.00
1093.152, 43069.00
1094.252, 42831.00
1095.351, 43266.00
1096.451, 43338.00
1097.550, 43118.00
1098.649, 42938.00
1099.748, 43100.00
1100.846, 43112.00
1101.945, 43406.00
1103.043, 43514.00
1104.141, 43422.00
1105.239, 43236.00
1106.337, 43433.00
1107.434, 43324.00
1108.532, 43370.03
1109.629, 43410.00
1110.726, 43469.00
1111.823, 43543.00
1112.920, 43630.00
1114.017, 43681.00
1115.113, 43654.00
1116.210, 43830.00
1117.306, 43765.00
1118.402, 43732.00
1119.498, 43786.00
1120.593, 43846.00
1121.689, 43753.00
1122.784, 43960.00
1123.879, 43850.00
1124.974, 44008.00
1126.069, 44084.00
1127.164, 43950.00
1128.259, 44123.00
1129.353, 43835.00
1130.447, 44061.00
1131.541, 44111.00
1132.635, 43987.00
1133.729, 44015.00
1134.822, 44176.00
1135.916, 44118.00
1137.009, 44217.00
1138.102, 44371.00
1139.195, 44186.00
1140.288, 44002.00
1141.380, 44403.00
1142.473, 44826.00
1143.565, 44454.00
1144.657, 44247.00
1145.749, 44494.00
1146.841, 44298.00
1147.932, 44717.00
1149.024, 44619.82
1150.115, 44613.00
1151.206, 44679.00
1152.297, 44691.00
1153.388, 44869.00
1154.479, 44870.00
1155.569, 44785.00
1156.659, 44529.00
1157.750, 44881.00
1158.839, 44626.00
1159.929, 44852.00
1161.019, 44816.00
1162.108, 44912.00
1163.198, 44808.00
1164.287, 45099.00
1165.376, 44897.00
1166.465, 45293.00
1167.553, 45163.00
1168.642, 45215.00
1169.730, 45142.00
1170.818, 45475.00
1171.906, 45259.00
1172.994, 45112.00
1174.082, 45461.00
1175.170, 45446.00
1176.257, 45505.00
1177.344, 45395.00
1178.431, 45561.00
1179.518, 45411.00
1180.605, 45714.00
1181.691, 45498.00
1182.778, 45727.00
1183.864, 45666.00
1184.950, 45661.00
1186.036, 45636.00
1187.122, 45773.00
1188.207, 45796.93
1189.292, 46216.00
1190.378, 45959.00
1191.463, 46068.00
1192.548, 46141.00
1193.632, 45884.00
1194.717, 46173.00
1195.801, 46190.00
1196.886, 46047.00
1197.970, 46045.00
1199.054, 46002.00
1200.137, 46286.00
1201.221, 46034.00
1202.305, 46305.00
1203.388, 46446.00
1204.471, 46146.00
1205.554, 46536.00
1206.637, 46342.00
1207.719, 46627.00
1208.802, 46562.00
1209.884, 46511.00
1210.966, 46515.00
1212.048, 46814.00
1213.130, 46588.00
1214.212, 46837.00
1215.293, 46734.00
1216.374, 46514.00
1217.456, 46948.00
1218.536, 47055.00
1219.617, 47134.00
1220.698, 46931.00
1221.778, 47010.00
1222.859, 47178.00
1223.939, 47179.00
1225.019, 47071.00
1226.099, 47096.00
1227.178, 47194.00
1228.258, 46949.00
1229.337, 47399.00
1230.417, 47561.00
1231.496, 47394.00
1232.574, 47408.00
1233.653, 47278.00
1234.732, 47160.00
1235.810, 47477.00
1236.888, 47468.00
1237.966, 47428.00
1239.044, 47679.00
1240.122, 47586.00
1241.199, 47780.00
1242.277, 47611.00
1243.354, 47772.00
1244.431, 47885.00
1245.508, 47955.00
1246.585, 47833.00
1247.661, 48008.00
1248.738, 47816.00
1249.814, 48137.00
1250.890, 48005.00
1251.966, 48170.00
1253.042, 48139.00
1254.117, 48332.00
1255.193, 48368.46
1256.268, 48129.00
1257.343, 48483.00
1258.418, 48196.00
1259.493, 48201.00
1260.567, 48647.00
1261.642, 48526.00
1262.716, 48464.00
1263.790, 48446.00
1264.864, 48451.23
1265.938, 48545.00
1267.011, 48625.00
1268.085, 48484.00
1269.158, 48714.00
1270.231, 48639.00
1271.304, 49077.00
1272.377, 48967.00
1273.450, 48896.00
1274.522, 48800.00
1275.594, 48900.00
1276.666, 48758.00
1277.738, 49046.00
1278.810, 48960.00
1279.882, 49214.00
1280.953, 49258.00
1282.025, 49140.00
1283.096, 49206.00
1284.167, 49211.00
1285.238, 49243.00
1286.308, 49460.00
1287.379, 49470.00
1288.449, 49165.00
1289.519, 49518.00
1290.589, 49501.00
1291.659, 49301.00
1292.729, 49508.00
1293.798, 49692.00
1294.868, 49728.00
1295.937, 49596.00
1297.006, 49580.00
1298.075, 49510.00
1299.143, 49583.06
1300.212, 49875.00
1301.280, 49785.00
1302.348, 50136.00
1303.416, 50249.00
1304.484, 50246.32
1305.552, 50487.00
1306.620, 50305.00
1307.687, 50355.00
1308.754, 50464.00
1309.821, 50226.00
1310.888, 50352.00
1311.955, 50592.00
1313.021, 50429.00
1314.088, 50611.00
1315.154, 50602.00
1316.220, 50859.00
1317.286, 50933.00
1318.352, 50601.00
1319.417, 50629.00
1320.483, 50628.00
1321.548, 50691.00
1322.613, 50864.00
1323.678, 50684.00
1324.743, 50894.00
1325.807, 51057.00
1326.872, 50852.00
1327.936, 50977.00
1329.000, 51241.00
1330.064, 50900.00
1331.128, 51253.00
1332.191, 50677.00
1333.255, 51092.00
1334.318, 50913.00
1335.381, 51236.00
1336.444, 51058.00
1337.507, 51454.00
1338.569, 51221.00
1339.632, 51157.00
1340.694, 51272.00
1341.756, 51488.00
1342.818, 51370.00
1343.880, 51481.00
1344.941, 51423.00
1346.003, 51492.00
1347.064, 51640.00
1348.125, 51746.00
1349.186, 51237.00
1350.247, 51422.00
1351.308, 51895.00
1352.368, 51460.00
1353.428, 51680.00
1354.489, 51949.00
1355.549, 51823.00
1356.608, 52016.00
1357.668, 51897.00
1358.727, 51884.00
1359.787, 51828.00
1360.846, 51846.00
1361.905, 51998.00
1362.964, 51652.00
1364.022, 52241.00
1365.081, 52090.00
1366.139, 52367.00
1367.197, 52098.00
1368.255, 52082.00
1369.313, 52018.00
1370.371, 52476.00
1371.428, 52514.00
1372.486, 52516.00
1373.543, 52368.00
1374.600, 52541.00
1375.657, 52536.00
1376.713, 52561.00
1377.770, 52550.00
1378.826, 52381.00
1379.882, 52450.00
1380.938, 52681.00
1381.994, 52638.00
1383.050, 53033.00
1384.106, 52771.00
1385.161, 52820.00
1386.216, 53072.00
1387.271, 52716.00
1388.326, 53104.00
1389.381, 53056.00
1390.435, 52889.00
1391.490, 53135.00
1392.544, 53114.00
1393.598, 52778.00
1394.652, 53003.00
1395.705, 53298.00
1396.759, 53168.00
1397.812, 53241.00
1398.866, 53117.00
1399.919, 53383.00
1400.972, 53129.00
1402.024, 53294.00
1403.077, 53435.00
1404.129, 53328.00
1405.181, 53140.00
1406.233, 53368.00
1407.285, 53407.00
1408.337, 53553.00
1409.389, 53557.00
1410.440, 53638.00
1411.491, 53689.00
1412.542, 53734.00
1413.593, 53614.00
1414.644, 53644.00
1415.695, 54312.00
1416.745, 53945.00
1417.795, 53986.00
1418.845, 54081.00
1419.895, 53659.00
1420.945, 53735.00
1421.995, 53791.00
1423.044, 53869.00
1424.093, 53979.00
1425.142, 54269.00
1426.191, 54250.00
1427.240, 54309.00
1428.289, 53964.00
1429.337, 54182.00
1430.385, 54719.00
1431.433, 54347.00
1432.481, 54340.00
1433.529, 54577.00
1434.577, 54492.00
1435.624, 54706.00
1436.672, 54500.00
1437.719, 54633.00
1438.766, 54816.00
1439.812, 54860.00
1440.859, 55079.00
1441.905, 55137.00
1442.952, 55137.00
1443.998, 55087.00
1445.044, 55133.00
1446.090, 55125.00
1447.135, 55096.00
1448.181, 55423.00
1449.226, 55442.00
1450.271, 55542.00
1451.316, 55326.00
1452.361, 55356.00
1453.405, 55487.00
1454.450, 55525.00
1455.494, 55651.00
1456.538, 55706.92
1457.582, 55558.00
1458.626, 55774.00
1459.670, 55761.00
1460.713, 55676.00
1461.757, 55851.00
1462.800, 55535.00
1463.843, 55697.00
1464.886, 55704.00
1465.928, 56046.00
1466.971, 55703.00
1468.013, 55842.00
1469.055, 56156.00
1470.097, 55947.00
1471.139, 55930.00
1472.181, 56052.00
1473.222, 55694.00
1474.263, 55737.00
1475.305, 55798.00
1476.346, 55960.00
1477.386, 56057.00
1478.427, 56129.36
1479.468, 56106.00
1480.508, 56195.00
1481.548, 56304.00
1482.588, 56178.00
1483.628, 56323.00
1484.668, 56191.00
1485.707, 56468.00
1486.747, 56205.00
1487.786, 56209.00
1488.825, 56421.00
1489.864, 56547.00
1490.902, 56494.00
1491.941, 56347.00
1492.979, 56367.00
1494.017, 56490.00
1495.055, 56652.00
1496.093, 56487.00
1497.131, 56686.00
1498.168, 56700.00
1499.206, 56863.00
1500.243, 56434.00
1501.280, 56683.00
1502.317, 56459.00
1503.354, 56844.00
1504.390, 56855.00
1505.426, 56753.00
1506.463, 56997.00
1507.499, 56939.00
1508.535, 57018.00
1509.570, 57023.00
1510.606, 57186.00
1511.641, 57054.00
1512.676, 57119.00
1513.711, 57097.00
1514.746, 57298.00
1515.781, 57300.00
1516.816, 57282.00
1517.850, 57564.00
1518.884, 57110.00
1519.918, 57498.00
1520.952, 57471.00
1521.986, 57462.00
1523.019, 57670.00
1524.053, 57853.00
1525.086, 57807.00
1526.119, 57669.00
1527.152, 57674.00
1528.185, 57556.00
1529.217, 57938.00
1530.250, 57852.00
1531.282, 57667.00
1532.314, 57636.00
1533.346, 58096.00
1534.377, 57899.00
1535.409, 57876.00
1536.440, 58283.00
1537.472, 57859.00
1538.503, 58236.00
1539.534, 58230.00
1540.564, 58217.00
1541.595, 58349.00
1542.625, 58168.00
1543.656, 58164.00
1544.686, 58422.00
1545.716, 58413.00
1546.745, 58306.00
1547.775, 58204.00
1548.804, 58269.70
1549.834, 58209.00
1550.863, 58368.00
1551.892, 58490.00
1552.920, 58512.00
1553.949, 58532.00
1554.977, 58661.00
1556.006, 58849.00
1557.034, 58453.00
1558.062, 58920.00
1559.089, 58653.00
1560.117, 58827.00
1561.144, 58742.00
1562.172, 58648.00
1563.199, 58974.00
1564.226, 58979.00
1565.252, 58721.00
1566.279, 58973.00
1567.305, 58782.00
1568.332, 59205.00
1569.358, 59242.00
1570.384, 59328.00
##END=



