##NAMES=Actinolite
##RRUFFID=R060045
##IDEAL CHEMISTRY=Ca_2_(Mg_4.5-2.5_Fe^2+^_0.5-2.5_)Si_8_O_22_(OH)_2_
##LOCALITY=Colorado, USA
##OWNER=RRUFF
##SOURCE=University of Arizona Mineral Museum
##DESCRIPTION=Green prismatic crystals in a radial arrangement
##STATUS=The identification of this mineral has been confirmed by X-ray diffraction and chemical analysis
##URL=rruff.info/R060045
##MEASURED CHEMISTRY=(Ca_1.99_Na_0.01_)_Σ=2_(Mg_4.20_Fe^2+^_0.59_Al_0.09_Fe^3+^_0.08_Mn_0.02_Ti_0.01_)_Σ=5_(Si_7.82_Al_0.18_)_Σ=8_O_22_(OH)_2_
##PIN_ID=M00311
##ORIENTATION=Laser parallel to c* (0 0 1). Fiducial mark perpendicular to laser is parallel to a [1 0 0]
134.1270, 9261.000
135.3560, 9444.000
136.5850, 9442.000
137.8140, 9551.000
139.0430, 9809.000
140.2710, 9707.000
141.5000, 9521.000
142.7280, 9783.000
143.9560, 9788.000
145.1840, 10203.00
146.4120, 10687.00
147.6390, 11529.00
148.8670, 12238.00
150.0940, 12938.00
151.3210, 13554.00
152.5490, 14240.00
153.7750, 15112.00
155.0020, 16031.00
156.2290, 16323.00
157.4550, 16058.00
158.6810, 15680.00
159.9080, 15231.00
161.1340, 14585.00
162.3590, 14073.00
163.5850, 13644.00
164.8110, 13673.00
166.0360, 14263.00
167.2610, 15177.00
168.4860, 16138.00
169.7110, 17011.00
170.9360, 17727.00
172.1610, 19045.00
173.3850, 21003.00
174.6100, 21005.00
175.8340, 20645.00
177.0580, 20177.00
178.2820, 19278.00
179.5050, 17951.00
180.7290, 16688.00
181.9520, 15106.00
183.1760, 13670.00
184.3990, 12672.00
185.6220, 12073.00
186.8450, 11673.00
188.0670, 11295.00
189.2900, 11222.00
190.5120, 11100.00
191.7340, 11077.00
192.9560, 11138.00
194.1780, 11165.00
195.4000, 11263.00
196.6220, 11336.00
197.8430, 11531.00
199.0640, 11737.71
200.2860, 11914.00
201.5070, 12266.00
202.7270, 12657.00
203.9480, 12948.00
205.1690, 13189.00
206.3890, 13763.00
207.6090, 14690.00
208.8290, 15526.00
210.0490, 16954.00
211.2690, 18446.00
212.4890, 20268.00
213.7080, 21803.00
214.9280, 23627.00
216.1470, 24875.00
217.3660, 26463.00
218.5850, 28000.00
219.8030, 28536.00
221.0220, 28621.00
222.2400, 28004.00
223.4590, 27156.00
224.6770, 25813.00
225.8950, 24258.00
227.1120, 22645.00
228.3300, 21365.00
229.5480, 19644.00
230.7650, 18444.00
231.9820, 17457.00
233.1990, 16358.00
234.4160, 15524.00
235.6330, 14719.00
236.8490, 14244.00
238.0660, 13729.00
239.2820, 13499.00
240.4980, 13319.00
241.7140, 13195.00
242.9300, 13095.00
244.1460, 13065.00
245.3610, 13170.00
246.5770, 13124.00
247.7920, 13008.00
249.0070, 12887.00
250.2220, 12837.00
251.4370, 12732.00
252.6510, 12603.00
253.8660, 12417.00
255.0800, 12365.44
256.2940, 12398.00
257.5080, 12283.00
258.7220, 12311.00
259.9360, 12139.59
261.1490, 12092.00
262.3630, 11793.00
263.5760, 11497.00
264.7890, 11320.00
266.0020, 11181.61
267.2150, 11035.07
268.4270, 10943.62
269.6400, 10892.00
270.8520, 10826.00
272.0640, 10830.00
273.2760, 10850.00
274.4880, 10766.00
275.7000, 10892.00
276.9120, 10804.00
278.1230, 10924.00
279.3340, 10856.00
280.5450, 10919.00
281.7560, 11025.00
282.9670, 11242.00
284.1780, 11207.00
285.3880, 11262.00
286.5980, 11417.00
287.8090, 11431.00
289.0190, 11589.00
290.2290, 11580.00
291.4380, 11705.00
292.6480, 11879.00
293.8570, 12123.00
295.0670, 12117.00
296.2760, 12194.00
297.4850, 12219.00
298.6930, 12180.00
299.9020, 12288.00
301.1110, 12244.00
302.3190, 12188.00
303.5270, 12067.00
304.7350, 11965.00
305.9430, 12052.00
307.1510, 11986.00
308.3580, 11706.00
309.5660, 11812.00
310.7730, 11690.00
311.9800, 11698.00
313.1870, 11633.00
314.3940, 11713.00
315.6010, 11650.00
316.8070, 11739.00
318.0130, 11760.00
319.2200, 11631.00
320.4260, 11824.00
321.6310, 11726.00
322.8370, 11903.00
324.0430, 12033.00
325.2480, 12083.00
326.4540, 12187.00
327.6590, 12058.00
328.8640, 12144.00
330.0680, 12200.00
331.2730, 12405.00
332.4780, 12522.00
333.6820, 12503.00
334.8860, 12648.00
336.0900, 12866.00
337.2940, 12877.00
338.4980, 13277.00
339.7010, 13434.00
340.9050, 13678.00
342.1080, 14027.00
343.3110, 14383.00
344.5140, 14553.00
345.7170, 14749.00
346.9200, 14895.00
348.1220, 14816.00
349.3240, 14874.00
350.5270, 14956.00
351.7290, 14963.00
352.9310, 15075.01
354.1320, 15210.00
355.3340, 15270.00
356.5350, 15335.00
357.7370, 15436.00
358.9380, 15946.00
360.1390, 16236.00
361.3400, 16659.00
362.5400, 16850.00
363.7410, 17275.00
364.9410, 17394.00
366.1410, 17432.00
367.3410, 17585.00
368.5410, 17248.00
369.7410, 17163.00
370.9400, 16865.00
372.1400, 16415.00
373.3390, 16171.00
374.5380, 15605.00
375.7370, 15463.00
376.9360, 15153.00
378.1350, 15022.00
379.3330, 14946.00
380.5310, 15001.00
381.7300, 15181.00
382.9280, 15468.00
384.1260, 15688.00
385.3230, 16006.00
386.5210, 16104.00
387.7180, 16294.00
388.9160, 16247.00
390.1130, 16064.00
391.3100, 15914.00
392.5060, 15610.00
393.7030, 15190.00
394.9000, 14701.00
396.0960, 14353.00
397.2920, 14171.00
398.4880, 13880.00
399.6840, 13724.00
400.8800, 13793.00
402.0750, 13579.00
403.2710, 13691.00
404.4660, 13788.00
405.6610, 13835.00
406.8560, 14144.00
408.0510, 14238.00
409.2450, 14297.00
410.4400, 14225.00
411.6340, 14316.00
412.8280, 14193.00
414.0220, 14050.00
415.2160, 14085.00
416.4100, 13714.00
417.6030, 13518.00
418.7970, 13262.00
419.9900, 13037.00
421.1830, 12873.00
422.3760, 12913.00
423.5690, 12763.00
424.7610, 12905.00
425.9540, 12876.00
427.1460, 12830.00
428.3380, 12972.00
429.5300, 13017.00
430.7220, 13049.00
431.9140, 13080.00
433.1050, 12968.00
434.2970, 12883.00
435.4880, 12816.00
436.6790, 12745.00
437.8700, 12708.00
439.0610, 12594.00
440.2510, 12413.00
441.4420, 12334.00
442.6320, 12121.00
443.8220, 12154.00
445.0120, 12155.00
446.2020, 12053.00
447.3910, 12085.00
448.5810, 12077.00
449.7700, 11934.00
450.9600, 12104.00
452.1490, 12218.00
453.3370, 11953.00
454.5260, 12127.00
455.7150, 12132.00
456.9030, 12052.00
458.0910, 12196.00
459.2800, 12100.00
460.4670, 12042.00
461.6550, 12170.00
462.8430, 12064.00
464.0300, 12214.00
465.2180, 12188.00
466.4050, 12105.00
467.5920, 12227.00
468.7790, 12192.00
469.9650, 12196.00
471.1520, 12109.00
472.3380, 12061.00
473.5250, 12270.00
474.7110, 12333.00
475.8970, 12286.00
477.0820, 12390.00
478.2680, 12273.00
479.4540, 12251.00
480.6390, 12409.00
481.8240, 12375.00
483.0090, 12462.00
484.1940, 12348.00
485.3780, 12450.00
486.5630, 12517.00
487.7470, 12433.00
488.9320, 12467.00
490.1160, 12577.00
491.3000, 12420.00
492.4830, 12441.00
493.6670, 12633.00
494.8500, 12601.00
496.0340, 12701.00
497.2170, 12692.00
498.4000, 12688.00
499.5820, 12850.00
500.7650, 12857.00
501.9480, 13035.00
503.1300, 13194.00
504.3120, 13439.00
505.4940, 13697.00
506.6760, 13725.00
507.8580, 13853.00
509.0390, 14112.00
510.2210, 14196.00
511.4020, 14201.00
512.5830, 14390.00
513.7640, 14541.00
514.9450, 14482.00
516.1250, 14715.00
517.3060, 14900.00
518.4860, 14882.00
519.6660, 15123.00
520.8460, 15235.00
522.0260, 15614.00
523.2060, 15669.00
524.3850, 15638.00
525.5650, 15617.00
526.7440, 15560.01
527.9230, 15434.32
529.1020, 15355.00
530.2810, 15109.00
531.4590, 14919.00
532.6380, 14694.00
533.8160, 14484.00
534.9940, 14334.00
536.1720, 14089.00
537.3500, 14048.00
538.5270, 13878.00
539.7050, 13745.00
540.8820, 13591.00
542.0590, 13492.00
543.2360, 13387.00
544.4130, 13556.00
545.5900, 13426.00
546.7660, 13451.00
547.9430, 13668.00
549.1190, 13463.00
550.2950, 13439.00
551.4710, 13434.00
552.6470, 13341.00
553.8220, 13466.00
554.9980, 13371.00
556.1730, 13364.00
557.3480, 13319.00
558.5230, 13405.00
559.6980, 13382.00
560.8730, 13434.00
562.0470, 13491.00
563.2220, 13424.00
564.3960, 13392.00
565.5700, 13489.00
566.7440, 13359.00
567.9170, 13441.00
569.0910, 13383.00
570.2640, 13398.00
571.4380, 13376.00
572.6110, 13414.00
573.7840, 13319.00
574.9570, 13420.00
576.1290, 13534.00
577.3020, 13428.00
578.4740, 13464.00
579.6460, 13511.00
580.8180, 13490.00
581.9900, 13533.00
583.1620, 13352.00
584.3330, 13535.00
585.5040, 13573.00
586.6760, 13872.00
587.8470, 13261.00
589.0180, 13404.00
590.1880, 13365.00
591.3590, 13191.00
592.5290, 13366.00
593.7000, 13234.00
594.8700, 13516.00
596.0400, 13370.00
597.2090, 13517.00
598.3790, 13447.00
599.5490, 13363.00
600.7180, 13463.00
601.8870, 13404.00
603.0560, 13454.00
604.2250, 13524.00
605.3940, 13574.00
606.5620, 13712.00
607.7300, 13739.00
608.8990, 13656.00
610.0670, 13754.00
611.2350, 13727.00
612.4020, 13845.00
613.5700, 13850.33
614.7370, 13821.00
615.9050, 13877.00
617.0720, 13914.00
618.2390, 13894.00
619.4060, 13879.00
620.5720, 14046.00
621.7390, 14122.00
622.9050, 14296.00
624.0710, 14265.00
625.2370, 14297.00
626.4030, 14445.00
627.5690, 14484.00
628.7340, 14585.00
629.9000, 14531.00
631.0650, 14703.00
632.2300, 14966.00
633.3950, 15005.00
634.5600, 15403.00
635.7240, 15539.00
636.8890, 15620.00
638.0530, 15957.00
639.2170, 16234.00
640.3810, 16505.00
641.5450, 16626.00
642.7080, 16976.00
643.8720, 17229.00
645.0350, 17563.00
646.1980, 17945.00
647.3610, 18251.00
648.5240, 18673.06
649.6870, 19160.00
650.8490, 19537.00
652.0120, 19981.00
653.1740, 20488.00
654.3360, 21357.00
655.4980, 22062.00
656.6600, 23097.00
657.8210, 24448.00
658.9830, 26043.00
660.1440, 28241.00
661.3050, 30991.00
662.4660, 34105.00
663.6270, 37994.00
664.7870, 41919.00
665.9480, 45895.00
667.1080, 49512.00
668.2680, 52059.00
669.4280, 53777.00
670.5880, 54017.00
671.7480, 52288.00
672.9070, 49594.00
674.0670, 45953.00
675.2260, 41849.00
676.3850, 37468.00
677.5440, 33620.00
678.7030, 30641.00
679.8610, 28016.00
681.0200, 26072.00
682.1780, 24615.00
683.3360, 23219.00
684.4940, 22463.00
685.6520, 21927.00
686.8090, 21337.00
687.9670, 20871.00
689.1240, 20174.00
690.2810, 19647.00
691.4380, 19195.00
692.5950, 18699.00
693.7520, 18355.00
694.9080, 18000.00
696.0650, 17527.00
697.2210, 17261.00
698.3770, 17017.00
699.5330, 16960.00
700.6880, 16496.00
701.8440, 16465.00
702.9990, 16292.00
704.1550, 16132.00
705.3100, 16177.00
706.4650, 16022.00
707.6190, 15738.00
708.7740, 15859.00
709.9290, 15697.00
711.0830, 15760.00
712.2370, 15658.00
713.3910, 15555.00
714.5450, 15442.00
715.6980, 15509.00
716.8520, 15401.00
718.0050, 15415.00
719.1580, 15456.00
720.3110, 15401.00
721.4640, 15473.00
722.6170, 15424.00
723.7700, 15511.00
724.9220, 15580.00
726.0740, 15563.00
727.2260, 15468.00
728.3780, 15655.00
729.5300, 15784.00
730.6810, 15570.00
731.8330, 15804.00
732.9840, 15951.00
734.1350, 15938.00
735.2860, 16198.00
736.4370, 16281.00
737.5880, 16301.00
738.7380, 16266.00
739.8880, 16273.00
741.0390, 16256.32
742.1890, 16171.00
743.3380, 16232.00
744.4880, 16106.00
745.6380, 16106.00
746.7870, 16265.00
747.9360, 16079.00
749.0850, 15808.00
750.2340, 15973.00
751.3830, 15771.00
752.5310, 15776.00
753.6800, 15741.00
754.8280, 15793.00
755.9760, 15532.00
757.1240, 15665.00
758.2720, 15575.00
759.4190, 15544.00
760.5670, 15613.00
761.7140, 15584.00
762.8610, 15541.00
764.0080, 15556.39
765.1550, 15589.00
766.3020, 15550.00
767.4480, 15614.00
768.5950, 15676.00
769.7410, 15574.00
770.8870, 15537.00
772.0330, 15598.00
773.1780, 15496.00
774.3240, 15686.00
775.4690, 15642.00
776.6140, 15741.00
777.7590, 15623.00
778.9040, 15645.00
780.0490, 15617.00
781.1940, 15671.00
782.3380, 15674.00
783.4820, 15575.00
784.6260, 15610.00
785.7700, 15613.00
786.9140, 15669.00
788.0580, 15673.41
789.2010, 15700.00
790.3450, 15697.00
791.4880, 15715.00
792.6310, 15719.69
793.7730, 15719.09
794.9160, 15710.00
796.0590, 15711.00
797.2010, 15742.00
798.3430, 15727.00
799.4850, 15705.00
800.6270, 15955.00
801.7690, 15973.00
802.9100, 15860.00
804.0520, 15932.00
805.1930, 15749.00
806.3340, 15888.00
807.4750, 15940.00
808.6160, 16119.00
809.7560, 15962.00
810.8970, 16001.00
812.0370, 15931.00
813.1770, 16043.00
814.3170, 16173.00
815.4570, 15918.00
816.5960, 16102.00
817.7360, 16191.00
818.8750, 16057.00
820.0140, 16271.00
821.1530, 16201.00
822.2920, 16137.00
823.4310, 16097.00
824.5690, 16456.00
825.7070, 16441.00
826.8460, 16385.00
827.9840, 16424.00
829.1220, 16302.00
830.2590, 16579.00
831.3970, 16537.00
832.5340, 16425.00
833.6710, 16636.00
834.8080, 16622.00
835.9450, 16572.00
837.0820, 16642.00
838.2190, 16477.00
839.3550, 16671.00
840.4910, 16623.00
841.6270, 16745.00
842.7630, 16641.00
843.8990, 16667.00
845.0350, 16762.00
846.1700, 16658.00
847.3060, 16723.00
848.4410, 16761.00
849.5760, 16727.00
850.7100, 16718.00
851.8450, 16699.00
852.9800, 16766.00
854.1140, 16766.88
855.2480, 16887.00
856.3820, 16800.00
857.5160, 16798.00
858.6500, 16746.00
859.7830, 16800.93
860.9170, 16861.00
862.0500, 16960.00
863.1830, 17009.00
864.3160, 17119.00
865.4480, 17144.00
866.5810, 17010.00
867.7130, 16962.00
868.8460, 17152.00
869.9780, 17037.00
871.1100, 17200.00
872.2410, 17068.00
873.3730, 17153.00
874.5050, 17147.00
875.6360, 17283.00
876.7670, 17203.00
877.8980, 17280.00
879.0290, 17230.00
880.1590, 17314.00
881.2900, 17171.00
882.4200, 17473.00
883.5500, 17458.00
884.6800, 17553.00
885.8100, 17487.00
886.9400, 17704.00
888.0690, 17490.00
889.1990, 17553.00
890.3280, 17619.00
891.4570, 17788.00
892.5860, 18012.00
893.7140, 18070.00
894.8430, 18086.00
895.9710, 18296.00
897.1000, 17986.00
898.2280, 18296.00
899.3560, 18351.00
900.4830, 18221.00
901.6110, 18305.00
902.7380, 18242.00
903.8660, 18546.00
904.9930, 18433.00
906.1200, 18476.00
907.2460, 18699.00
908.3730, 18669.00
909.5000, 18621.00
910.6260, 18857.00
911.7520, 18941.00
912.8780, 19100.00
914.0040, 19128.00
915.1290, 19412.00
916.2550, 19660.00
917.3800, 19658.00
918.5050, 19926.00
919.6300, 20411.00
920.7550, 20698.00
921.8800, 21106.00
923.0040, 21410.00
924.1290, 22110.00
925.2530, 22527.00
926.3770, 22910.00
927.5010, 22776.00
928.6250, 22698.00
929.7480, 22597.00
930.8720, 22455.00
931.9950, 22138.00
933.1180, 21685.00
934.2410, 21182.00
935.3640, 20868.00
936.4860, 20690.00
937.6090, 20638.00
938.7310, 20407.00
939.8530, 20340.00
940.9750, 20312.00
942.0970, 20233.00
943.2180, 20299.00
944.3400, 20367.00
945.4610, 20295.00
946.5820, 20225.00
947.7030, 20368.00
948.8240, 20092.00
949.9450, 20310.00
951.0650, 20085.00
952.1860, 19943.00
953.3060, 20034.00
954.4260, 19616.00
955.5460, 19749.00
956.6650, 19746.00
957.7850, 19590.00
958.9040, 19710.00
960.0230, 19634.00
961.1420, 19641.00
962.2610, 19795.00
963.3800, 19561.00
964.4990, 19499.00
965.6170, 19529.00
966.7350, 19544.00
967.8530, 19518.40
968.9710, 19677.00
970.0890, 19522.00
971.2070, 19637.00
972.3240, 19689.00
973.4410, 19556.00
974.5580, 19493.00
975.6750, 19482.00
976.7920, 19732.00
977.9090, 19638.00
979.0250, 19660.00
980.1410, 19667.00
981.2580, 19545.00
982.3740, 19628.00
983.4890, 19758.00
984.6050, 19702.00
985.7200, 19795.95
986.8360, 19746.00
987.9510, 19851.00
989.0660, 19778.00
990.1810, 19759.00
991.2950, 19828.00
992.4100, 19953.00
993.5240, 19965.00
994.6390, 19940.00
995.7530, 20049.00
996.8660, 20092.00
997.9800, 20273.00
999.0940, 20355.23
1000.207, 20502.00
1001.320, 20617.00
1002.433, 20657.00
1003.546, 20844.00
1004.659, 21066.00
1005.772, 21068.00
1006.884, 21458.00
1007.996, 21707.00
1009.108, 22156.00
1010.220, 22263.00
1011.332, 22390.00
1012.444, 22547.00
1013.555, 22788.00
1014.666, 23114.00
1015.777, 23749.00
1016.888, 23891.00
1017.999, 23851.00
1019.110, 24432.00
1020.220, 24402.00
1021.331, 24926.00
1022.441, 24986.00
1023.551, 25379.00
1024.661, 25561.00
1025.770, 25928.00
1026.880, 25997.00
1027.989, 25908.00
1029.098, 25430.00
1030.207, 25240.00
1031.316, 24944.00
1032.425, 24433.00
1033.533, 23977.00
1034.642, 23566.00
1035.750, 23466.63
1036.858, 23369.00
1037.966, 23597.00
1039.073, 23771.00
1040.181, 24214.00
1041.288, 24587.00
1042.396, 24972.00
1043.503, 25374.00
1044.610, 26441.00
1045.716, 27235.00
1046.823, 27818.00
1047.929, 29119.00
1049.036, 30175.00
1050.142, 31525.00
1051.248, 32857.00
1052.353, 34081.00
1053.459, 35326.00
1054.564, 35955.00
1055.670, 36256.00
1056.775, 36256.00
1057.880, 35716.00
1058.985, 34573.00
1060.089, 33335.00
1061.194, 32362.00
1062.298, 30854.00
1063.402, 29979.00
1064.506, 28869.00
1065.610, 28062.00
1066.713, 27038.00
1067.817, 26343.00
1068.920, 25395.00
1070.023, 24782.00
1071.126, 23835.00
1072.229, 23544.00
1073.332, 22868.00
1074.435, 22434.00
1075.537, 22241.00
1076.639, 21903.00
1077.741, 21579.00
1078.843, 21360.00
1079.945, 21398.00
1081.046, 21117.00
1082.148, 21220.00
1083.249, 21130.00
1084.350, 21265.00
1085.451, 21192.08
1086.551, 20907.00
1087.652, 21078.00
1088.752, 21043.00
1089.853, 20965.00
1090.953, 21091.00
1092.053, 21046.00
1093.152, 21052.00
1094.252, 21127.00
1095.351, 20913.00
1096.451, 20883.64
1097.550, 20780.62
1098.649, 20653.00
1099.748, 20650.00
1100.846, 20593.00
1101.945, 20754.00
1103.043, 20625.00
1104.141, 20653.00
1105.239, 20468.00
1106.337, 20811.00
1107.434, 20585.00
1108.532, 20804.00
1109.629, 20503.00
1110.726, 20564.00
1111.823, 20593.00
1112.920, 20519.00
1114.017, 20504.00
1115.113, 20438.00
1116.210, 20600.00
1117.306, 20646.00
1118.402, 20572.00
1119.498, 20609.00
1120.593, 20628.00
1121.689, 20510.00
1122.784, 20792.00
1123.879, 20595.00
1124.974, 20744.00
1126.069, 20705.00
1127.164, 20786.00
1128.259, 20618.00
1129.353, 20785.00
1130.447, 20611.00
1131.541, 20424.00
1132.635, 20541.00
1133.729, 20604.00
1134.822, 20564.00
1135.916, 20680.00
1137.009, 20507.00
1138.102, 20561.00
1139.195, 20486.00
1140.288, 20550.00
1141.380, 20698.00
1142.473, 20656.00
1143.565, 20688.00
1144.657, 20632.00
1145.749, 20845.00
1146.841, 20755.00
1147.932, 20704.00
1149.024, 20855.00
1150.115, 20700.00
1151.206, 20618.00
1152.297, 20650.00
1153.388, 20640.00
1154.479, 20723.00
1155.569, 20687.34
1156.659, 20696.92
1157.750, 20654.00
1158.839, 20694.00
1159.929, 20690.00
1161.019, 20737.00
1162.108, 20875.00
1163.198, 20742.00
1164.287, 20913.00
1165.376, 20793.00
1166.465, 20851.00
1167.553, 20700.00
1168.642, 20702.00
1169.730, 20766.00
1170.818, 20760.00
1171.906, 20851.00
1172.994, 20872.00
1174.082, 20909.00
1175.170, 20933.21
1176.257, 20932.75
1177.344, 20929.00
1178.431, 20925.00
1179.518, 20882.00
1180.605, 20878.00
1181.691, 20903.00
1182.778, 20976.00
1183.864, 21012.00
1184.950, 21091.00
1186.036, 21152.00
1187.122, 21157.00
1188.207, 21207.00
1189.292, 21142.00
1190.378, 21220.00
1191.463, 21105.00
1192.548, 20885.00
1193.632, 21232.00
1194.717, 21031.00
1195.801, 21151.00
1196.886, 21047.00
1197.970, 21323.00
1199.054, 21235.00
1200.137, 21383.00
1201.221, 21114.00
1202.305, 21267.00
1203.388, 21305.00
1204.471, 21176.00
1205.554, 21468.00
1206.637, 21403.00
1207.719, 21349.00
1208.802, 21341.00
1209.884, 21410.00
1210.966, 21381.00
1212.048, 21541.00
1213.130, 21313.00
1214.212, 21391.00
1215.293, 21408.00
1216.374, 21147.00
1217.456, 21593.00
1218.536, 21398.00
1219.617, 21305.00
1220.698, 21532.00
1221.778, 21594.00
1222.859, 21713.00
1223.939, 21627.00
1225.019, 21622.00
1226.099, 21667.00
1227.178, 21606.00
1228.258, 21706.00
1229.337, 21924.00
1230.417, 21598.00
1231.496, 21631.00
1232.574, 21854.00
1233.653, 21635.00
1234.732, 21723.00
1235.810, 21753.00
1236.888, 21968.00
1237.966, 21824.00
1239.044, 21812.00
1240.122, 22044.00
1241.199, 21878.00
1242.277, 21891.00
1243.354, 22039.00
1244.431, 22137.00
1245.508, 21978.00
1246.585, 21954.00
1247.661, 22081.00
1248.738, 22018.00
1249.814, 22158.00
1250.890, 22292.00
1251.966, 22004.00
1253.042, 22034.00
1254.117, 22056.00
1255.193, 22125.00
1256.268, 22123.00
1257.343, 22353.00
1258.418, 22268.00
1259.493, 22409.00
1260.567, 22294.00
1261.642, 22158.00
1262.716, 22125.00
1263.790, 22160.00
1264.864, 22268.00
1265.938, 22231.00
1267.011, 22385.00
1268.085, 22137.00
1269.158, 22441.00
1270.231, 22429.00
1271.304, 22277.00
1272.377, 22462.00
1273.450, 22397.85
1274.522, 22244.00
1275.594, 22489.00
1276.666, 22388.00
1277.738, 22511.00
1278.810, 22439.00
1279.882, 22470.00
1280.953, 22458.00
1282.025, 22454.79
1283.096, 22639.00
1284.167, 22510.00
1285.238, 22495.00
1286.308, 22592.00
1287.379, 22475.00
1288.449, 22571.00
1289.519, 22580.00
1290.589, 22756.00
1291.659, 22493.00
1292.729, 22818.00
1293.798, 22799.00
1294.868, 22639.00
1295.937, 22842.00
1297.006, 22910.00
1298.075, 22747.00
1299.143, 22672.00
1300.212, 23012.00
1301.280, 22940.00
1302.348, 22971.00
1303.416, 23060.00
1304.484, 22997.00
1305.552, 22979.00
1306.620, 23123.00
1307.687, 22695.00
1308.754, 23017.00
1309.821, 23007.00
1310.888, 22802.00
1311.955, 22954.00
1313.021, 23131.00
1314.088, 22916.00
1315.154, 23182.00
1316.220, 23119.00
1317.286, 22934.00
1318.352, 23068.00
1319.417, 23169.00
1320.483, 23059.00
1321.548, 23152.00
1322.613, 23023.00
1323.678, 23252.00
1324.743, 23338.00
1325.807, 23221.00
1326.872, 23120.00
1327.936, 23139.00
1329.000, 23178.00
1330.064, 23134.00
1331.128, 23204.07
1332.191, 23347.00
1333.255, 23293.00
1334.318, 23439.00
1335.381, 23468.00
1336.444, 23521.00
1337.507, 23405.00
1338.569, 23513.86
1339.632, 23509.00
1340.694, 23609.00
1341.756, 23524.00
1342.818, 23500.00
1343.880, 23616.00
1344.941, 23521.00
1346.003, 23518.00
1347.064, 23549.00
1348.125, 23391.00
1349.186, 23660.00
1350.247, 23611.00
1351.308, 23727.00
1352.368, 23562.00
1353.428, 23618.00
1354.489, 23778.00
1355.549, 23805.00
1356.608, 23764.00
1357.668, 23713.00
1358.727, 23646.00
1359.787, 23812.00
1360.846, 23710.00
1361.905, 23820.00
1362.964, 23858.00
1364.022, 23754.00
1365.081, 23700.00
1366.139, 23790.00
1367.197, 23736.41
1368.255, 23764.72
1369.313, 23689.00
1370.371, 23937.00
1371.428, 23761.00
1372.486, 24134.00
1373.543, 24061.00
1374.600, 23931.00
1375.657, 23897.00
1376.713, 24052.00
1377.770, 23886.00
1378.826, 24055.00
1379.882, 23983.00
1380.938, 24015.00
1381.994, 24140.00
1383.050, 23997.00
1384.106, 24004.00
1385.161, 24077.00
1386.216, 24044.00
1387.271, 24082.00
1388.326, 24112.00
1389.381, 24003.00
1390.435, 24116.00
1391.490, 24187.00
1392.544, 24163.00
1393.598, 24097.00
1394.652, 24138.00
1395.705, 24039.00
1396.759, 24224.00
1397.812, 24403.00
1398.866, 24276.00
1399.919, 24369.00
1400.972, 24265.00
1402.024, 24361.00
1403.077, 24496.00
1404.129, 24462.00
1405.181, 24399.00
1406.233, 24401.00
1407.285, 24372.02
1408.337, 24394.00
1409.389, 24331.00
1410.440, 24408.00
1411.491, 24351.00
1412.542, 24423.13
1413.593, 24548.00
1414.644, 24547.00
1415.695, 24671.00
1416.745, 24709.00
1417.795, 24461.00
1418.845, 24759.00
1419.895, 24504.00
1420.945, 24590.00
1421.995, 24694.00
1423.044, 24575.00
1424.093, 24650.00
1425.142, 24569.00
1426.191, 24768.00
1427.240, 24624.00
1428.289, 24833.00
1429.337, 24698.00
1430.385, 24859.00
1431.433, 24788.00
1432.481, 24546.00
1433.529, 24883.00
1434.577, 24814.00
1435.624, 24813.00
1436.672, 24669.00
1437.719, 24801.00
1438.766, 25104.00
1439.812, 25061.00
1440.859, 25138.00
1441.905, 25116.00
1442.952, 25184.00
1443.998, 25044.00
1445.044, 24983.00
1446.090, 24990.00
1447.135, 25131.00
1448.181, 25073.00
1449.226, 25109.00
1450.271, 25103.00
1451.316, 25110.00
1452.361, 25283.00
1453.405, 25265.00
1454.450, 25363.00
1455.494, 25407.21
1456.538, 25377.55
1457.582, 25431.00
1458.626, 25337.00
1459.670, 25255.00
1460.713, 25259.00
1461.757, 25285.00
1462.800, 25356.00
1463.843, 25329.00
1464.886, 25367.98
1465.928, 25391.14
1466.971, 25381.00
1468.013, 25444.00
1469.055, 25424.00
1470.097, 25469.00
1471.139, 25389.00
1472.181, 25493.00
1473.222, 25435.00
1474.263, 25589.00
1475.305, 25328.00
1476.346, 25473.00
1477.386, 25729.00
1478.427, 25530.00
1479.468, 25611.00
1480.508, 25602.00
1481.548, 25608.00
1482.588, 25679.00
1483.628, 25860.00
1484.668, 25620.00
1485.707, 25692.00
1486.747, 25732.00
1487.786, 25488.00
1488.825, 25699.00
1489.864, 25770.00
1490.902, 25671.75
1491.941, 25758.00
1492.979, 25563.00
1494.017, 25911.00
1495.055, 25817.00
1496.093, 25720.00
1497.131, 25971.00
1498.168, 25917.00
1499.206, 25756.00
1500.243, 25811.00
1501.280, 25921.00
1502.317, 25893.00
1503.354, 26053.00
1504.390, 25911.00
1505.426, 25684.00
1506.463, 25918.00
1507.499, 26054.00
1508.535, 26260.00
1509.570, 25997.00
1510.606, 25984.00
1511.641, 26036.00
1512.676, 26154.00
1513.711, 26048.00
1514.746, 26042.00
1515.781, 26064.00
1516.816, 26095.00
1517.850, 26315.00
1518.884, 26227.00
1519.918, 26331.00
1520.952, 26296.00
1521.986, 26252.00
1523.019, 26287.81
1524.053, 26245.00
1525.086, 26298.00
1526.119, 26343.00
1527.152, 26395.00
1528.185, 26341.00
1529.217, 26454.00
1530.250, 26337.00
1531.282, 26290.00
1532.314, 26423.00
1533.346, 26339.00
1534.377, 26354.00
1535.409, 26377.00
1536.440, 26563.00
1537.472, 26551.00
1538.503, 26480.00
1539.534, 26385.00
1540.564, 26471.00
1541.595, 26575.00
1542.625, 26729.00
1543.656, 26622.00
1544.686, 26606.00
1545.716, 26580.00
1546.745, 26517.00
1547.775, 26503.00
1548.804, 26632.00
1549.834, 26528.00
1550.863, 26729.00
1551.892, 26636.00
1552.920, 26819.00
1553.949, 26848.00
1554.977, 26645.00
1556.006, 26603.00
1557.034, 26781.00
1558.062, 26758.00
1559.089, 26784.00
1560.117, 26865.00
1561.144, 26752.00
1562.172, 26980.00
1563.199, 26819.00
1564.226, 26926.00
1565.252, 26925.00
1566.279, 27055.00
1567.305, 26889.00
1568.332, 26884.00
1569.358, 26828.00
1570.384, 26886.00
##END=



