##NAMES=Actinolite
##RRUFFID=R050336
##IDEAL CHEMISTRY=Ca_2_(Mg_4.5-2.5_Fe^2+^_0.5-2.5_)Si_8_O_22_(OH)_2_
##LOCALITY=Kragerø, Norway
##OWNER=RRUFF
##SOURCE=California Institute of Technology
##DESCRIPTION=Dark green prismatic fragment
##STATUS=The identification of this mineral has been confirmed by X-ray diffraction and chemical analysis
##URL=rruff.info/R050336
##MEASURED CHEMISTRY=([box]_0.62_Na_0.34_K_0.04_)(Ca_1.60_Na_0.40_)_Σ=2_(Mg_3.90_Fe^2+^_0.70_Al_0.20_Ti_0.10_Fe^3+^_0.10_)_Σ=5_(Si_7.52_Al_0.48_)_Σ=8_O_22_((OH)_0.97_F_0.03_)_2_
##PIN_ID=M00348
##ORIENTATION=Laser parallel to (1 0 1). Fiducial mark perpendicular to laser is parallel to b [0 1 0]
62.34500, 1058.000
63.58900, 1049.000
64.83300, 1365.000
66.07600, 2964.000
67.32000, 2293.000
68.56300, 2104.000
69.80600, 3068.000
71.04900, 2420.000
72.29100, 2254.916
73.53400, 2128.067
74.77600, 1405.000
76.01800, 1503.000
77.26000, 1538.000
78.50200, 1722.000
79.74300, 1903.000
80.98500, 2130.595
82.22600, 2488.000
83.46700, 2684.000
84.70800, 2788.000
85.94900, 3028.428
87.18900, 3444.397
88.42900, 3681.000
89.67000, 4290.000
90.91000, 4883.000
92.14900, 5091.000
93.38900, 5273.000
94.62900, 5534.000
95.86800, 5709.000
97.10700, 5966.000
98.34600, 6405.000
99.58500, 6553.000
100.8230, 6722.000
102.0620, 7003.119
103.3000, 7501.523
104.5380, 7967.223
105.7760, 8401.979
107.0140, 8713.108
108.2510, 9183.534
109.4890, 9590.326
110.7260, 10331.00
111.9630, 10686.00
113.2000, 10932.00
114.4360, 11601.00
115.6730, 12214.00
116.9090, 12163.00
118.1450, 11646.00
119.3810, 11370.77
120.6170, 11007.34
121.8530, 10664.16
123.0880, 10343.22
124.3230, 9951.515
125.5590, 9772.146
126.7930, 9581.985
128.0280, 9483.000
129.2630, 9441.633
130.4970, 9428.796
131.7310, 9416.307
132.9650, 9475.000
134.1990, 9536.000
135.4330, 9602.000
136.6670, 9809.000
137.9000, 10145.00
139.1330, 10140.00
140.3660, 10080.00
141.5990, 9894.000
142.8320, 9891.000
144.0640, 9924.000
145.2960, 10032.73
146.5290, 10193.13
147.7610, 10475.00
148.9920, 10736.00
150.2240, 11065.00
151.4550, 11581.00
152.6870, 12148.00
153.9180, 12669.00
155.1490, 13403.00
156.3800, 13704.00
157.6100, 14337.00
158.8400, 14904.00
160.0710, 15289.00
161.3010, 15855.00
162.5310, 15899.00
163.7600, 15700.00
164.9900, 15066.00
166.2190, 14624.00
167.4480, 14139.00
168.6770, 13906.00
169.9060, 13936.00
171.1350, 13853.00
172.3630, 13838.00
173.5920, 14070.00
174.8200, 14236.00
176.0480, 14466.00
177.2760, 14559.00
178.5030, 14657.00
179.7310, 14853.00
180.9580, 14953.00
182.1850, 14413.00
183.4120, 13830.00
184.6390, 13535.00
185.8650, 13178.00
187.0920, 12778.99
188.3180, 12601.00
189.5440, 12174.00
190.7700, 12080.00
191.9960, 11955.00
193.2210, 11832.00
194.4470, 11853.00
195.6720, 11704.00
196.8970, 11800.00
198.1220, 12002.00
199.3460, 12022.14
200.5710, 12179.90
201.7950, 12357.00
203.0190, 12434.00
204.2430, 12751.00
205.4670, 12924.00
206.6910, 13674.00
207.9140, 14145.00
209.1370, 14597.00
210.3610, 15217.00
211.5840, 16015.10
212.8060, 16868.49
214.0290, 17927.00
215.2510, 19059.00
216.4740, 20284.00
217.6960, 21785.00
218.9180, 22920.00
220.1390, 24394.00
221.3610, 25743.00
222.5820, 26976.00
223.8030, 28203.00
225.0240, 28811.00
226.2450, 29582.00
227.4660, 29920.00
228.6870, 29990.00
229.9070, 29852.00
231.1270, 29432.00
232.3470, 28808.00
233.5670, 28171.00
234.7870, 27257.00
236.0060, 25817.00
237.2250, 24176.00
238.4440, 22159.00
239.6630, 20975.00
240.8820, 19959.00
242.1010, 19118.00
243.3190, 17939.87
244.5380, 17613.57
245.7560, 17254.89
246.9740, 16865.27
248.1910, 16352.35
249.4090, 15998.74
250.6260, 15581.48
251.8440, 15161.28
253.0610, 14830.46
254.2780, 14335.52
255.4940, 14003.62
256.7110, 13744.00
257.9270, 13239.00
259.1430, 12778.00
260.3600, 12547.00
261.5750, 12242.00
262.7910, 11866.00
264.0070, 11518.00
265.2220, 11603.00
266.4370, 11191.00
267.6520, 11203.00
268.8670, 10856.00
270.0820, 10561.00
271.2960, 10593.00
272.5100, 10512.00
273.7250, 10467.00
274.9390, 10344.00
276.1520, 10254.00
277.3660, 10255.00
278.5790, 10245.00
279.7930, 10284.00
281.0060, 10267.00
282.2190, 10238.00
283.4320, 10227.00
284.6440, 10294.00
285.8570, 10474.00
287.0690, 10481.26
288.2810, 10592.33
289.4930, 10625.00
290.7050, 10722.00
291.9160, 10815.00
293.1270, 10833.00
294.3390, 10889.00
295.5500, 11184.00
296.7610, 11229.70
297.9710, 11310.34
299.1820, 11468.00
300.3920, 11480.00
301.6020, 11475.00
302.8120, 11744.00
304.0220, 11651.00
305.2320, 11552.00
306.4410, 11660.00
307.6510, 11611.00
308.8600, 11621.00
310.0690, 11516.00
311.2780, 11533.00
312.4860, 11474.00
313.6950, 11438.00
314.9030, 11267.00
316.1110, 11328.62
317.3190, 11284.00
318.5270, 11367.00
319.7350, 11427.00
320.9420, 11395.00
322.1490, 11407.00
323.3570, 11352.41
324.5630, 11503.02
325.7700, 11620.99
326.9770, 11708.02
328.1830, 11671.36
329.3900, 11794.41
330.5960, 11853.41
331.8020, 11909.79
333.0070, 12055.17
334.2130, 12036.49
335.4180, 12180.47
336.6230, 12259.48
337.8290, 12368.30
339.0330, 12444.00
340.2380, 12448.00
341.4430, 12491.00
342.6470, 12619.00
343.8510, 12684.82
345.0550, 12790.17
346.2590, 12911.00
347.4630, 13015.00
348.6660, 13127.00
349.8700, 13259.47
351.0730, 13325.17
352.2760, 13385.69
353.4790, 13462.00
354.6810, 13470.00
355.8840, 13526.00
357.0860, 13607.00
358.2880, 13736.00
359.4900, 14284.00
360.6920, 14451.00
361.8940, 14910.07
363.0950, 15204.00
364.2960, 15798.00
365.4980, 16184.00
366.6990, 16612.00
367.8990, 16996.00
369.1000, 17636.00
370.3000, 17829.00
371.5010, 17781.00
372.7010, 17709.00
373.9010, 17582.00
375.1010, 17441.00
376.3000, 17142.00
377.5000, 17033.07
378.6990, 16988.47
379.8980, 16911.16
381.0970, 16802.92
382.2960, 16999.00
383.4940, 16996.00
384.6920, 17642.00
385.8910, 17933.00
387.0890, 18319.00
388.2870, 18661.00
389.4840, 19121.00
390.6820, 19667.00
391.8790, 19907.00
393.0770, 19925.77
394.2740, 19692.00
395.4700, 19499.00
396.6670, 18664.00
397.8640, 18045.00
399.0600, 17394.00
400.2560, 16739.00
401.4520, 16183.00
402.6480, 15795.00
403.8440, 15571.00
405.0390, 15506.00
406.2350, 15902.00
407.4300, 15854.61
408.6250, 16089.00
409.8200, 16329.00
411.0140, 16711.00
412.2090, 17272.09
413.4030, 17805.69
414.5970, 18306.60
415.7910, 18443.36
416.9850, 18188.89
418.1790, 17901.72
419.3720, 17583.87
420.5660, 17260.00
421.7590, 16783.00
422.9520, 16240.00
424.1440, 15896.00
425.3370, 15586.00
426.5300, 15352.00
427.7220, 14924.00
428.9140, 14738.00
430.1060, 14512.00
431.2980, 14266.00
432.4890, 14249.00
433.6810, 14190.00
434.8720, 13802.00
436.0630, 13826.00
437.2540, 13411.00
438.4450, 13177.20
439.6350, 12800.00
440.8260, 12542.00
442.0160, 12253.00
443.2060, 11824.00
444.3960, 11650.00
445.5860, 11362.00
446.7750, 11178.00
447.9650, 10971.38
449.1540, 10784.07
450.3430, 10620.00
451.5320, 10477.00
452.7210, 10335.33
453.9090, 10355.40
455.0980, 10342.72
456.2860, 10299.15
457.4740, 10131.95
458.6620, 10124.38
459.8500, 10052.84
461.0370, 9978.729
462.2250, 9993.634
463.4120, 9844.462
464.5990, 9858.001
465.7860, 9806.588
466.9720, 9671.379
468.1590, 9811.000
469.3450, 9785.000
470.5320, 9677.000
471.7180, 9567.000
472.9030, 9605.000
474.0890, 9602.000
475.2750, 9895.000
476.4600, 10078.00
477.6450, 10153.82
478.8300, 10296.11
480.0150, 10274.00
481.2000, 10212.00
482.3840, 10060.00
483.5690, 9968.702
484.7530, 9756.000
485.9370, 9717.000
487.1210, 9663.000
488.3040, 9612.000
489.4880, 9758.000
490.6710, 9890.000
491.8540, 9999.176
493.0370, 10105.55
494.2200, 10308.04
495.4030, 10300.00
496.5850, 10394.57
497.7680, 10523.00
498.9500, 10714.00
500.1320, 11022.00
501.3140, 11262.00
502.4950, 11507.13
503.6770, 11871.00
504.8580, 12060.00
506.0390, 12260.00
507.2200, 12641.00
508.4010, 13139.00
509.5820, 13359.00
510.7620, 13836.00
511.9420, 14084.00
513.1230, 14347.00
514.3030, 14616.00
515.4820, 14822.00
516.6620, 14905.00
517.8420, 15120.00
519.0210, 15288.00
520.2000, 15467.00
521.3790, 15419.68
522.5580, 15108.00
523.7360, 15208.00
524.9150, 15052.00
526.0930, 14856.00
527.2710, 14761.00
528.4490, 14481.00
529.6270, 14392.00
530.8050, 14255.00
531.9820, 13891.00
533.1590, 13876.00
534.3360, 13611.00
535.5130, 13259.00
536.6900, 13059.00
537.8670, 12914.00
539.0430, 12679.00
540.2200, 12688.00
541.3960, 12340.00
542.5720, 12161.00
543.7470, 12262.00
544.9230, 12051.00
546.0980, 11899.00
547.2740, 11881.67
548.4490, 11731.36
549.6240, 11698.00
550.7990, 11600.00
551.9730, 11434.00
553.1480, 11425.00
554.3220, 11298.00
555.4960, 11407.00
556.6700, 11180.50
557.8440, 11219.58
559.0170, 11225.99
560.1910, 11201.43
561.3640, 11053.27
562.5370, 11064.75
563.7100, 11012.25
564.8830, 10957.13
566.0550, 10991.11
567.2280, 10860.93
568.4000, 10893.49
569.5720, 10861.11
570.7440, 10868.00
571.9160, 10814.00
573.0870, 10727.92
574.2590, 10673.34
575.4300, 10541.00
576.6010, 10433.00
577.7720, 10317.00
578.9430, 10059.00
580.1140, 9915.000
581.2840, 10012.44
582.4540, 9751.621
583.6240, 9633.555
584.7940, 9458.000
585.9640, 9258.000
587.1340, 9113.000
588.3030, 8971.000
589.4720, 8695.000
590.6410, 8529.000
591.8100, 8356.000
592.9790, 8122.217
594.1480, 8148.265
595.3160, 8141.655
596.4840, 8104.097
597.6520, 7942.916
598.8200, 7941.370
599.9880, 7875.851
601.1560, 7807.706
602.3230, 7828.671
603.4900, 7685.512
604.6570, 7705.064
605.8240, 7659.666
606.9910, 7562.000
608.1580, 7718.000
609.3240, 7714.000
610.4900, 7754.000
611.6570, 7762.000
612.8230, 7742.000
613.9880, 7830.000
615.1540, 7813.000
616.3190, 7859.000
617.4850, 7919.537
618.6500, 8090.224
619.8150, 8228.204
620.9790, 8335.159
622.1440, 8318.568
623.3080, 8461.534
624.4730, 8540.610
625.6370, 8616.978
626.8010, 8782.411
627.9640, 8783.635
629.1280, 8947.656
630.2910, 9046.646
631.4550, 9175.441
632.6180, 9239.781
633.7810, 9324.008
634.9440, 9543.000
636.1060, 9668.000
637.2690, 9806.232
638.4310, 10116.79
639.5930, 10394.64
640.7550, 10641.54
641.9170, 10764.82
643.0780, 11047.53
644.2400, 11428.00
645.4010, 11844.00
646.5620, 12316.00
647.7230, 12677.00
648.8840, 13332.00
650.0450, 13644.00
651.2050, 14435.00
652.3650, 14886.00
653.5250, 15457.00
654.6850, 16067.00
655.8450, 16885.00
657.0050, 17709.00
658.1640, 18848.00
659.3230, 20190.00
660.4830, 21878.00
661.6420, 23655.00
662.8000, 25941.00
663.9590, 28331.00
665.1170, 31611.18
666.2760, 35581.00
667.4340, 38770.00
668.5920, 42390.00
669.7500, 45821.00
670.9070, 48826.00
672.0650, 51137.00
673.2220, 51550.00
674.3790, 51238.00
675.5360, 49060.00
676.6930, 46214.00
677.8500, 41828.00
679.0060, 37592.00
680.1620, 33433.00
681.3190, 29699.00
682.4750, 26559.00
683.6300, 24027.00
684.7860, 21851.00
685.9420, 20066.00
687.0970, 18826.00
688.2520, 17415.00
689.4070, 16598.00
690.5620, 15721.00
691.7170, 15134.00
692.8710, 14434.02
694.0250, 13933.14
695.1800, 13630.00
696.3340, 13251.00
697.4870, 13028.07
698.6410, 12764.49
699.7950, 12710.00
700.9480, 12440.00
702.1010, 12341.00
703.2540, 12421.00
704.4070, 12321.00
705.5600, 12338.26
706.7120, 12519.37
707.8640, 12667.78
709.0170, 12785.33
710.1690, 12779.17
711.3210, 12932.64
712.4720, 13022.04
713.6240, 13163.00
714.7750, 13275.00
715.9260, 13768.00
717.0770, 13745.60
718.2280, 14001.05
719.3790, 13942.00
720.5290, 14325.00
721.6800, 14578.00
722.8300, 14749.00
723.9800, 14815.00
725.1300, 14959.00
726.2800, 15188.00
727.4290, 15288.00
728.5790, 15515.00
729.7280, 15658.00
730.8770, 15881.00
732.0260, 15892.00
733.1750, 16104.00
734.3230, 16221.00
735.4720, 16249.56
736.6200, 16237.04
737.7680, 16332.00
738.9160, 16273.54
740.0640, 16165.00
741.2110, 16166.05
742.3590, 16127.19
743.5060, 16006.79
744.6530, 15809.01
745.8000, 15302.18
746.9470, 15194.43
748.0930, 14926.95
749.2400, 14652.72
750.3860, 14601.35
751.5320, 14139.67
752.6780, 14084.78
753.8240, 13560.00
754.9690, 13413.00
756.1150, 12988.00
757.2600, 12732.54
758.4050, 12467.00
759.5500, 12187.00
760.6950, 12090.00
761.8400, 11794.00
762.9840, 11700.00
764.1280, 11456.00
765.2730, 11223.00
766.4170, 11142.00
767.5600, 10942.00
768.7040, 10943.00
769.8470, 10825.25
770.9910, 10762.00
772.1340, 10670.00
773.2770, 10563.00
774.4200, 10385.00
775.5620, 10458.57
776.7050, 10499.43
777.8470, 10509.35
778.9890, 10395.64
780.1310, 10441.57
781.2730, 10423.53
782.4150, 10402.86
783.5570, 10471.26
784.6980, 10375.53
785.8390, 10442.52
786.9800, 10524.00
788.1210, 10511.00
789.2620, 10502.00
790.4020, 10400.00
791.5430, 10475.00
792.6830, 10517.00
793.8230, 10568.00
794.9630, 10376.00
796.1020, 10460.00
797.2420, 10473.00
798.3810, 10361.00
799.5210, 10388.71
800.6600, 10354.00
801.7990, 10243.00
802.9370, 10239.97
804.0760, 10031.00
805.2140, 9989.000
806.3530, 9976.000
807.4910, 9854.000
808.6290, 9817.885
809.7660, 9704.000
810.9040, 9604.000
812.0420, 9717.000
813.1790, 9466.000
814.3160, 9282.000
815.4530, 9415.000
816.5900, 9254.000
817.7260, 9297.000
818.8630, 9390.000
819.9990, 9121.000
821.1350, 9178.000
822.2710, 9182.000
823.4070, 9055.391
824.5430, 9070.173
825.6780, 9075.491
826.8130, 9048.104
827.9490, 8989.713
829.0840, 8807.755
830.2180, 8785.495
831.3530, 8699.199
832.4880, 8610.285
833.6220, 8610.494
834.7560, 8446.581
835.8900, 8445.378
837.0240, 8379.227
838.1580, 8342.799
839.2910, 8263.030
840.4250, 8338.377
841.5580, 8381.022
842.6910, 8392.724
843.8240, 8280.798
844.9560, 8328.509
846.0890, 8312.246
847.2210, 8293.358
848.3540, 8363.539
849.4860, 8269.594
850.6180, 8338.361
851.7490, 8342.176
852.8810, 8447.779
854.0120, 8521.282
855.1440, 8563.865
856.2750, 8482.797
857.4060, 8561.365
858.5360, 8575.930
859.6670, 8587.898
860.7980, 8688.935
861.9280, 8625.818
863.0580, 8725.415
864.1880, 8760.060
865.3180, 8763.814
866.4470, 8780.664
867.5770, 8886.612
868.7060, 8828.402
869.8350, 8932.907
870.9640, 8972.458
872.0930, 9041.737
873.2220, 9046.645
874.3500, 9117.158
875.4790, 9145.372
876.6070, 9170.922
877.7350, 9285.538
878.8630, 9236.029
879.9900, 9349.194
881.1180, 9397.445
882.2450, 9382.000
883.3730, 9369.000
884.5000, 9467.000
885.6260, 9510.000
886.7530, 9676.000
887.8800, 9784.976
889.0060, 9877.995
890.1320, 10033.00
891.2580, 10058.00
892.3840, 10084.12
893.5100, 10109.00
894.6360, 10248.00
895.7610, 10242.79
896.8860, 10453.68
898.0120, 10632.00
899.1360, 10779.12
900.2610, 10802.74
901.3860, 10986.00
902.5100, 10977.50
903.6350, 11025.00
904.7590, 10951.00
905.8830, 11081.00
907.0070, 11056.00
908.1300, 11151.00
909.2540, 11098.00
910.3770, 11301.00
911.5000, 11401.00
912.6230, 11473.00
913.7460, 11569.00
914.8690, 11655.00
915.9910, 11719.00
917.1140, 12154.00
918.2360, 12157.00
919.3580, 12864.00
920.4800, 12813.59
921.6020, 13032.35
922.7230, 13004.00
923.8440, 13244.00
924.9660, 13508.00
926.0870, 13603.00
927.2080, 13640.00
928.3280, 13782.00
929.4490, 13725.00
930.5700, 13751.00
931.6900, 13612.00
932.8100, 13459.71
933.9300, 13092.00
935.0500, 12988.00
936.1690, 12864.00
937.2890, 12517.00
938.4080, 12523.00
939.5270, 12390.00
940.6460, 12135.00
941.7650, 12308.00
942.8840, 12292.00
944.0020, 12229.00
945.1200, 12281.00
946.2390, 12184.17
947.3570, 12260.33
948.4750, 12303.80
949.5920, 12316.32
950.7100, 12205.22
951.8270, 12253.75
952.9440, 12238.30
954.0610, 12220.24
955.1780, 12291.24
956.2950, 12198.11
957.4120, 12267.70
958.5280, 12272.33
959.6440, 12306.69
960.7600, 12276.68
961.8760, 12266.55
962.9920, 12320.82
964.1080, 12200.00
965.2230, 12278.00
966.3380, 12202.00
967.4540, 12282.00
968.5690, 12125.00
969.6830, 12131.00
970.7980, 12190.00
971.9120, 12260.00
973.0270, 12233.27
974.1410, 12233.23
975.2550, 12126.00
976.3690, 12211.00
977.4820, 12004.00
978.5960, 12107.00
979.7090, 11937.00
980.8230, 12162.00
981.9360, 12074.00
983.0490, 11983.00
984.1610, 11953.00
985.2740, 12000.47
986.3860, 12075.52
987.4980, 12105.00
988.6110, 12192.03
989.7220, 12268.67
990.8340, 12387.00
991.9460, 12461.00
993.0570, 12629.00
994.1690, 12707.00
995.2800, 12795.00
996.3910, 12982.00
997.5010, 13223.00
998.6120, 13400.54
999.7230, 13607.54
1000.833, 13859.78
1001.943, 14032.00
1003.053, 14258.00
1004.163, 14537.00
1005.273, 14675.00
1006.382, 14840.00
1007.492, 15219.00
1008.601, 15463.00
1009.710, 15595.00
1010.819, 15539.00
1011.927, 15769.00
1013.036, 15998.00
1014.144, 16075.00
1015.253, 16333.00
1016.361, 16328.00
1017.469, 16321.00
1018.576, 16499.00
1019.684, 16953.00
1020.791, 16947.00
1021.899, 17111.00
1023.006, 17197.00
1024.113, 17403.44
1025.220, 17635.00
1026.326, 17804.00
1027.433, 18342.00
1028.539, 18399.00
1029.645, 18587.00
1030.751, 18653.09
1031.857, 18454.00
1032.963, 18452.00
1034.068, 18105.68
1035.174, 18124.29
1036.279, 18061.28
1037.384, 17920.93
1038.489, 17471.51
1039.594, 17421.19
1040.698, 17211.08
1041.803, 16994.26
1042.907, 17000.26
1044.011, 16934.00
1045.115, 16929.00
1046.219, 17013.43
1047.323, 16953.00
1048.426, 17231.00
1049.529, 17363.00
1050.632, 17503.00
1051.735, 17613.00
1052.838, 17779.04
1053.941, 18038.22
1055.043, 18153.00
1056.146, 18520.00
1057.248, 18836.00
1058.350, 18874.00
1059.452, 18987.00
1060.554, 18910.00
1061.655, 18801.00
1062.757, 18581.18
1063.858, 18384.00
1064.959, 17988.00
1066.060, 17355.00
1067.161, 17102.00
1068.261, 16628.00
1069.362, 15868.00
1070.462, 15464.00
1071.562, 14949.00
1072.662, 14402.00
1073.762, 14132.00
1074.862, 13745.00
1075.961, 13374.00
1077.061, 13152.00
1078.160, 12948.00
1079.259, 12639.00
1080.358, 12447.00
1081.456, 12306.00
1082.555, 12058.00
1083.653, 12029.00
1084.751, 11705.00
1085.850, 11577.00
1086.947, 11434.19
1088.045, 11230.35
1089.143, 11101.00
1090.240, 10946.00
1091.338, 10795.89
1092.435, 10587.00
1093.532, 10549.00
1094.628, 10373.00
1095.725, 10306.00
1096.822, 10314.00
1097.918, 10188.00
1099.014, 10101.00
1100.110, 10048.81
1101.206, 10000.10
1102.302, 9931.000
1103.397, 9896.000
1104.493, 9901.000
1105.588, 9705.000
1106.683, 9696.000
1107.778, 9656.000
1108.873, 9778.000
1109.967, 9633.000
1111.062, 9564.000
1112.156, 9507.000
1113.250, 9398.000
1114.344, 9391.731
1115.438, 9348.452
1116.531, 9294.000
1117.625, 9309.000
1118.718, 9118.000
1119.811, 9060.000
1120.904, 9120.000
1121.997, 8921.000
1123.090, 8969.000
1124.183, 9011.000
1125.275, 9059.000
1126.367, 8822.000
1127.459, 8791.000
1128.551, 8694.000
1129.643, 8638.944
1130.735, 8585.090
1131.826, 8626.000
1132.917, 8492.000
1134.008, 8507.000
1135.099, 8502.000
1136.190, 8456.000
1137.281, 8375.000
1138.371, 8337.333
1139.462, 8272.000
1140.552, 8163.038
1141.642, 8208.798
1142.732, 8221.853
1143.821, 8203.992
1144.911, 8062.480
1146.000, 8080.631
1147.090, 8034.781
1148.179, 7986.333
1149.268, 8026.953
1150.356, 7903.474
1151.445, 7942.681
1152.533, 7916.962
1153.622, 7920.945
1154.710, 7860.583
1155.798, 7820.103
1156.886, 7844.014
1157.973, 7832.296
1159.061, 7764.524
1160.148, 7770.451
1161.235, 7644.750
1162.322, 7759.000
1163.409, 7763.000
1164.496, 7609.516
1165.583, 7672.869
1166.669, 7703.532
1167.755, 7703.249
1168.841, 7579.340
1169.927, 7615.068
1171.013, 7586.822
1172.099, 7555.951
1173.184, 7614.159
1174.269, 7508.240
1175.355, 7565.026
1176.440, 7556.869
1177.524, 7578.449
1178.609, 7535.648
1179.694, 7512.730
1180.778, 7554.213
1181.862, 7560.041
1182.946, 7509.840
1184.030, 7533.311
1185.114, 7425.155
1186.197, 7432.513
1187.281, 7489.695
1188.364, 7442.741
1189.447, 7467.398
1190.530, 7464.782
1191.613, 7338.219
1192.696, 7427.212
1193.778, 7396.502
1194.860, 7461.000
1195.943, 7397.000
1197.025, 7514.000
1198.107, 7515.000
1199.188, 7473.000
1200.270, 7367.000
1201.351, 7335.000
1202.432, 7276.000
1203.514, 7412.000
1204.594, 7358.000
1205.675, 7289.000
1206.756, 7375.000
1207.836, 7338.000
1208.917, 7311.000
1209.997, 7377.000
1211.077, 7402.000
1212.157, 7429.000
1213.236, 7371.000
1214.316, 7428.000
1215.395, 7382.000
1216.474, 7466.000
1217.553, 7385.000
1218.632, 7504.000
1219.711, 7423.000
1220.790, 7472.000
1221.868, 7473.000
1222.946, 7342.000
1224.024, 7467.000
1225.102, 7470.000
1226.180, 7496.000
1227.258, 7458.000
1228.335, 7468.789
1229.413, 7488.212
1230.490, 7476.000
1231.567, 7399.109
1232.644, 7472.990
1233.720, 7514.171
1234.797, 7524.406
1235.873, 7411.015
1236.950, 7457.262
1238.026, 7439.534
1239.102, 7419.182
1240.177, 7487.898
1241.253, 7392.489
1242.328, 7459.793
1243.404, 7462.145
1244.479, 7494.224
1245.554, 7461.932
1246.629, 7449.523
1247.703, 7501.505
1248.778, 7517.833
1249.852, 7478.132
1250.926, 7512.102
1252.001, 7414.445
1253.074, 7432.293
1254.148, 7499.975
1255.222, 7463.510
1256.295, 7509.000
1257.369, 7405.000
1258.442, 7476.000
1259.515, 7492.000
1260.587, 7507.000
1261.660, 7559.682
1262.733, 7563.000
1263.805, 7594.000
1264.877, 7547.000
1265.949, 7465.000
1267.021, 7489.000
1268.093, 7435.000
1269.164, 7473.000
1270.236, 7501.009
1271.307, 7577.104
1272.378, 7620.497
1273.449, 7632.946
1274.520, 7521.768
1275.591, 7570.229
1276.661, 7554.712
1277.731, 7536.572
1278.802, 7607.501
1279.872, 7514.303
1280.941, 7583.817
1282.011, 7588.380
1283.081, 7622.670
1284.150, 7592.588
1285.219, 7582.389
1286.288, 7636.580
1287.357, 7655.118
1288.426, 7517.000
1289.495, 7545.000
1290.563, 7504.000
1291.632, 7494.000
1292.700, 7491.728
1293.768, 7528.000
1294.836, 7466.000
1295.903, 7491.000
1296.971, 7464.000
1298.038, 7458.514
1299.106, 7451.814
1300.173, 7483.000
1301.240, 7408.000
1302.306, 7464.528
1303.373, 7412.526
1304.439, 7550.000
1305.506, 7475.000
1306.572, 7443.000
1307.638, 7562.000
1308.704, 7588.000
1309.769, 7481.875
1310.835, 7558.389
1311.900, 7602.201
1312.965, 7615.068
1314.031, 7504.311
1315.095, 7553.188
1316.160, 7538.091
1317.225, 7520.370
1318.289, 7591.715
1319.354, 7498.938
1320.418, 7568.870
1321.482, 7573.852
1322.546, 7608.559
1323.609, 7578.895
1324.673, 7569.114
1325.736, 7623.723
1326.799, 7642.677
1327.862, 7605.603
1328.925, 7642.199
1329.988, 7547.168
1331.051, 7567.642
1332.113, 7637.949
1333.175, 7604.109
1334.238, 7641.881
1335.300, 7652.379
1336.361, 7538.929
1337.423, 7641.035
1338.485, 7649.921
1339.546, 7563.088
1340.607, 7595.093
1341.668, 7666.124
1342.729, 7704.453
1343.790, 7711.837
1344.850, 7595.599
1345.911, 7638.995
1346.971, 7618.418
1348.031, 7595.218
1349.091, 7661.086
1350.151, 7562.829
1351.211, 7627.284
1352.270, 7626.790
1353.330, 7656.021
1354.389, 7620.883
1355.448, 7605.628
1356.507, 7654.764
1357.566, 7668.246
1358.624, 7625.702
1359.683, 7656.826
1360.741, 7556.326
1361.799, 7571.331
1362.857, 7636.169
1363.915, 7596.861
1364.973, 7629.165
1366.030, 7542.000
1367.087, 7602.000
1368.145, 7521.000
1369.202, 7496.000
1370.259, 7554.000
1371.315, 7548.000
1372.372, 7567.750
1373.428, 7604.030
1374.485, 7593.000
1375.541, 7662.000
1376.597, 7585.042
1377.653, 7660.574
1378.708, 7703.403
1379.764, 7715.288
1380.819, 7603.546
1381.874, 7651.442
1382.930, 7635.364
1383.984, 7616.660
1385.039, 7687.024
1386.094, 7593.263
1387.148, 7662.214
1388.203, 7666.214
1389.257, 7699.940
1390.311, 7669.295
1391.365, 7658.532
1392.418, 7652.500
1393.472, 7733.147
1394.525, 7781.087
1395.578, 7798.083
1396.631, 7691.451
1397.684, 7744.458
1398.737, 7733.490
1399.790, 7719.898
1400.842, 7795.368
1401.895, 7706.718
1402.947, 7780.775
1403.999, 7789.881
1405.051, 7828.713
1406.102, 7746.721
1407.154, 7830.710
1408.205, 7881.987
1409.256, 7902.321
1410.308, 7799.038
1411.358, 7855.374
1412.409, 7847.744
1413.460, 7837.489
1414.510, 7916.294
1415.561, 7830.983
1416.611, 7908.375
1417.661, 7920.815
1418.711, 7962.983
1419.760, 7940.771
1420.810, 7938.449
1421.859, 8000.510
1422.909, 8026.927
1423.958, 7997.304
1425.007, 8041.352
1426.055, 7953.766
1427.104, 7981.691
1428.153, 8059.451
1429.201, 8033.057
1430.249, 8078.273
1431.297, 8096.215
1432.345, 7930.772
1433.393, 8012.911
1434.440, 8062.340
1435.488, 8080.833
1436.535, 7975.692
1437.582, 8030.188
1438.629, 8020.709
1439.676, 8008.607
1440.723, 8085.572
1441.769, 7998.405
1442.815, 8073.950
1443.862, 8084.551
1444.908, 8124.871
1445.954, 8100.820
1446.999, 8096.646
1448.045, 8156.869
1449.090, 8181.430
1450.136, 8149.970
1451.181, 8192.173
1452.226, 8102.750
1453.271, 8128.831
1454.315, 8204.738
1455.360, 8105.930
1456.404, 8176.629
1457.448, 8214.627
1458.492, 8221.681
1459.536, 8105.107
1460.580, 8148.172
1461.624, 8127.262
1462.667, 8103.731
1463.711, 8169.265
1464.754, 8070.677
1465.797, 8134.802
1466.840, 8133.975
1467.882, 8162.878
1468.925, 8127.407
1469.967, 8111.821
1471.010, 8160.624
1472.052, 8173.776
1473.094, 8130.899
1474.135, 8161.696
1475.177, 8060.863
1476.218, 8075.538
1477.260, 8140.043
1478.301, 8100.406
1479.342, 8132.380
1480.383, 8137.081
1481.424, 8017.835
1482.464, 8143.000
1483.505, 8075.000
1484.545, 8092.557
1485.585, 8019.000
1486.625, 8079.000
1487.665, 8012.000
1488.705, 8028.000
1489.744, 8054.000
1490.783, 8042.000
1491.823, 8036.000
1492.862, 7982.000
1493.901, 8040.000
1494.939, 7943.000
1495.978, 8057.000
1497.016, 8055.000
1498.055, 7993.000
1499.093, 8041.000
1500.131, 8029.000
1501.169, 8021.000
1502.206, 7991.000
1503.244, 7967.000
1504.281, 7957.000
1505.319, 7950.000
1506.356, 8042.000
1507.393, 8134.000
1508.430, 8113.421
1509.466, 8073.000
1510.503, 8079.000
1511.539, 8065.618
1512.575, 8034.000
1513.611, 8064.000
1514.647, 8078.000
1515.683, 8072.250
1516.718, 8094.474
1517.754, 8077.000
1518.789, 8111.000
1519.824, 8037.000
1520.859, 8028.000
1521.894, 8036.000
1522.929, 8071.404
1523.963, 7968.000
1524.998, 8167.522
1526.032, 8172.000
1527.066, 8125.000
1528.100, 8055.000
1529.134, 8033.000
1530.167, 8072.776
1531.201, 8075.942
1532.234, 8176.000
1533.267, 8103.000
1534.300, 8091.000
1535.333, 7964.000
1536.366, 8054.000
1537.398, 8115.000
1538.431, 8144.000
1539.463, 8070.992
1540.495, 8142.995
1541.527, 8182.296
1542.559, 8190.653
1543.591, 8075.384
1544.622, 8119.755
1545.654, 8100.147
1546.685, 8077.919
1547.716, 8144.759
1548.747, 8047.473
1549.778, 8112.899
1550.808, 8113.377
1551.839, 8143.579
1552.869, 8109.412
1553.899, 8095.127
1554.929, 8145.235
1555.959, 8159.688
1556.989, 8118.111
1558.018, 8150.208
1559.048, 8050.675
1560.077, 8066.649
1561.106, 8132.458
1562.135, 8094.121
1563.164, 8127.394
1564.192, 8133.396
1565.221, 8068.754
1566.249, 8060.486
1567.277, 8057.000
1568.306, 8021.000
1569.333, 8158.000
1570.361, 8093.000
1571.389, 8268.000
1572.416, 7987.000
1573.444, 7979.000
1574.471, 8071.000
1575.498, 8088.000
1576.525, 8134.000
1577.551, 7910.000
1578.578, 12146.00
##END=



