##NAMES=Actinolite
##RRUFFID=R060045
##IDEAL CHEMISTRY=Ca_2_(Mg_4.5-2.5_Fe^2+^_0.5-2.5_)Si_8_O_22_(OH)_2_
##LOCALITY=Colorado, USA
##OWNER=RRUFF
##SOURCE=University of Arizona Mineral Museum
##DESCRIPTION=Green prismatic crystals in a radial arrangement
##STATUS=The identification of this mineral has been confirmed by X-ray diffraction and chemical analysis
##URL=rruff.info/R060045
##MEASURED CHEMISTRY=(Ca_1.99_Na_0.01_)_Σ=2_(Mg_4.20_Fe^2+^_0.59_Al_0.09_Fe^3+^_0.08_Mn_0.02_Ti_0.01_)_Σ=5_(Si_7.82_Al_0.18_)_Σ=8_O_22_(OH)_2_
##PIN_ID=M00122
##ORIENTATION=Laser parallel to (1 0 1). Fiducial mark perpendicular to laser is parallel to b [0 1 0]
125.5190, 18466.00
126.7490, 18636.00
127.9790, 18620.00
129.2090, 18519.00
130.4390, 18698.00
131.6680, 18667.00
132.8980, 18772.00
134.1270, 18955.00
135.3560, 18914.00
136.5850, 19119.00
137.8140, 19136.00
139.0430, 19332.00
140.2710, 19384.00
141.5000, 19419.00
142.7280, 19442.00
143.9560, 19544.00
145.1840, 19613.00
146.4120, 19622.00
147.6390, 19872.00
148.8670, 19787.00
150.0940, 20085.00
151.3210, 20240.00
152.5490, 20706.00
153.7750, 22052.00
155.0020, 21469.00
156.2290, 22172.00
157.4550, 22671.00
158.6810, 22630.00
159.9080, 22248.00
161.1340, 21978.00
162.3590, 21791.00
163.5850, 21735.00
164.8110, 21559.00
166.0360, 21541.00
167.2610, 21677.00
168.4860, 21757.00
169.7110, 22097.00
170.9360, 22639.00
172.1610, 23073.00
173.3850, 24025.00
174.6100, 25399.00
175.8340, 26499.00
177.0580, 26822.00
178.2820, 26385.00
179.5050, 25228.00
180.7290, 24089.00
181.9520, 23251.00
183.1760, 22561.00
184.3990, 22301.00
185.6220, 21785.00
186.8450, 21765.00
188.0670, 21501.00
189.2900, 21325.00
190.5120, 21534.00
191.7340, 21694.00
192.9560, 21640.00
194.1780, 21564.00
195.4000, 21696.00
196.6220, 21633.00
197.8430, 21777.00
199.0640, 21782.00
200.2860, 21851.00
201.5070, 22082.00
202.7270, 22215.00
203.9480, 22332.00
205.1690, 22323.00
206.3890, 22346.00
207.6090, 22496.00
208.8290, 22928.00
210.0490, 23075.00
211.2690, 23742.00
212.4890, 23964.00
213.7080, 24867.00
214.9280, 25992.00
216.1470, 26840.09
217.3660, 27803.00
218.5850, 28957.00
219.8030, 30059.00
221.0220, 30720.00
222.2400, 30475.00
223.4590, 29464.00
224.6770, 28616.00
225.8950, 27663.00
227.1120, 26988.25
228.3300, 26418.00
229.5480, 25807.00
230.7650, 25414.00
231.9820, 25044.00
233.1990, 24712.00
234.4160, 24254.00
235.6330, 23857.00
236.8490, 23632.00
238.0660, 23303.00
239.2820, 23235.00
240.4980, 23211.00
241.7140, 23146.00
242.9300, 23189.00
244.1460, 23210.41
245.3610, 23250.00
246.5770, 23319.00
247.7920, 23335.00
249.0070, 23367.00
250.2220, 23347.00
251.4370, 23418.00
252.6510, 23320.00
253.8660, 23375.00
255.0800, 23328.00
256.2940, 23290.00
257.5080, 23291.00
258.7220, 23482.00
259.9360, 23489.00
261.1490, 23504.00
262.3630, 23362.00
263.5760, 23421.00
264.7890, 23275.00
266.0020, 23340.00
267.2150, 23289.00
268.4270, 23029.00
269.6400, 23286.00
270.8520, 23063.00
272.0640, 23317.00
273.2760, 23306.00
274.4880, 23404.00
275.7000, 23233.00
276.9120, 23391.00
278.1230, 23442.00
279.3340, 23524.00
280.5450, 23632.79
281.7560, 23433.00
282.9670, 23772.00
284.1780, 23650.00
285.3880, 23606.00
286.5980, 23829.00
287.8090, 23807.00
289.0190, 23814.00
290.2290, 23926.00
291.4380, 23901.00
292.6480, 23946.00
293.8570, 24024.00
295.0670, 24054.90
296.2760, 24167.00
297.4850, 24196.00
298.6930, 24347.00
299.9020, 24450.00
301.1110, 24450.00
302.3190, 24605.00
303.5270, 24574.17
304.7350, 24494.00
305.9430, 24503.00
307.1510, 24407.00
308.3580, 24262.00
309.5660, 24429.00
310.7730, 24254.00
311.9800, 24466.00
313.1870, 24491.00
314.3940, 24570.00
315.6010, 24501.00
316.8070, 24447.00
318.0130, 24573.00
319.2200, 24513.00
320.4260, 24541.00
321.6310, 24647.82
322.8370, 24711.00
324.0430, 24797.00
325.2480, 24929.00
326.4540, 24904.00
327.6590, 25098.00
328.8640, 25140.00
330.0680, 25340.00
331.2730, 25041.00
332.4780, 25300.00
333.6820, 25305.00
334.8860, 25385.00
336.0900, 25639.00
337.2940, 25618.00
338.4980, 25839.00
339.7010, 25883.00
340.9050, 26041.00
342.1080, 26189.00
343.3110, 26275.00
344.5140, 26421.00
345.7170, 26519.00
346.9200, 26662.00
348.1220, 26750.40
349.3240, 26831.00
350.5270, 26933.00
351.7290, 26961.00
352.9310, 27062.00
354.1320, 26916.00
355.3340, 26893.00
356.5350, 26800.00
357.7370, 27026.00
358.9380, 27238.00
360.1390, 27364.00
361.3400, 27538.00
362.5400, 27736.89
363.7410, 28164.00
364.9410, 28176.00
366.1410, 28434.65
367.3410, 28755.00
368.5410, 28563.00
369.7410, 28657.00
370.9400, 28425.00
372.1400, 28086.00
373.3390, 27870.00
374.5380, 27778.00
375.7370, 27551.00
376.9360, 27454.53
378.1350, 27444.00
379.3330, 27277.00
380.5310, 27165.00
381.7300, 27148.00
382.9280, 27172.00
384.1260, 27178.00
385.3230, 27429.00
386.5210, 27556.00
387.7180, 27910.00
388.9160, 27986.00
390.1130, 28140.00
391.3100, 28194.00
392.5060, 28033.00
393.7030, 27845.00
394.9000, 27552.00
396.0960, 27589.00
397.2920, 27371.00
398.4880, 27197.00
399.6840, 27012.00
400.8800, 27260.00
402.0750, 27244.00
403.2710, 27261.00
404.4660, 27279.00
405.6610, 27520.00
406.8560, 27229.00
408.0510, 27289.00
409.2450, 27210.00
410.4400, 27655.00
411.6340, 27820.00
412.8280, 27652.00
414.0220, 27500.00
415.2160, 27618.00
416.4100, 27732.00
417.6030, 27321.00
418.7970, 27570.00
419.9900, 27440.00
421.1830, 27462.00
422.3760, 27364.00
423.5690, 27151.00
424.7610, 27440.00
425.9540, 27511.00
427.1460, 27290.00
428.3380, 27420.00
429.5300, 27642.00
430.7220, 27437.00
431.9140, 27623.00
433.1050, 27746.00
434.2970, 27667.00
435.4880, 27904.00
436.6790, 27765.00
437.8700, 27788.00
439.0610, 27713.00
440.2510, 27658.00
441.4420, 27631.00
442.6320, 27711.00
443.8220, 27830.00
445.0120, 27703.00
446.2020, 27718.00
447.3910, 27582.00
448.5810, 27633.00
449.7700, 27743.00
450.9600, 27918.00
452.1490, 27661.00
453.3370, 27829.00
454.5260, 27664.00
455.7150, 27958.00
456.9030, 28094.00
458.0910, 28070.00
459.2800, 28112.00
460.4670, 29004.00
461.6550, 29146.00
462.8430, 28647.00
464.0300, 28212.00
465.2180, 27924.00
466.4050, 28222.00
467.5920, 28145.00
468.7790, 28157.00
469.9650, 28164.00
471.1520, 28537.00
472.3380, 28156.00
473.5250, 28377.00
474.7110, 28557.00
475.8970, 28425.00
477.0820, 28511.00
478.2680, 28592.00
479.4540, 28507.00
480.6390, 28644.00
481.8240, 28655.00
483.0090, 28730.00
484.1940, 28780.37
485.3780, 28787.00
486.5630, 28865.00
487.7470, 28785.00
488.9320, 28840.00
490.1160, 28885.00
491.3000, 28815.00
492.4830, 29128.00
493.6670, 28914.00
494.8500, 28985.00
496.0340, 28884.00
497.2170, 29090.00
498.4000, 29035.00
499.5820, 28968.00
500.7650, 29262.00
501.9480, 29435.00
503.1300, 29441.00
504.3120, 29447.00
505.4940, 29622.00
506.6760, 29704.00
507.8580, 30048.00
509.0390, 30287.00
510.2210, 29997.00
511.4020, 30369.00
512.5830, 30429.00
513.7640, 30582.00
514.9450, 30424.00
516.1250, 30444.00
517.3060, 30230.00
518.4860, 30356.00
519.6660, 30543.00
520.8460, 30569.00
522.0260, 30698.17
523.2060, 30730.00
524.3850, 30867.00
525.5650, 30913.00
526.7440, 31002.00
527.9230, 30951.00
529.1020, 31017.11
530.2810, 31089.00
531.4590, 31039.00
532.6380, 30916.00
533.8160, 30851.00
534.9940, 31038.00
536.1720, 30728.00
537.3500, 30590.00
538.5270, 30727.00
539.7050, 30565.00
540.8820, 30416.00
542.0590, 30507.00
543.2360, 30460.72
544.4130, 30439.00
545.5900, 30562.00
546.7660, 30633.00
547.9430, 30645.00
549.1190, 30696.39
550.2950, 30781.00
551.4710, 30759.00
552.6470, 30762.00
553.8220, 30885.00
554.9980, 30613.00
556.1730, 30839.00
557.3480, 30928.00
558.5230, 30782.00
559.6980, 30854.00
560.8730, 30726.00
562.0470, 30909.00
563.2220, 30839.00
564.3960, 30844.00
565.5700, 31064.00
566.7440, 31073.00
567.9170, 31057.00
569.0910, 30962.00
570.2640, 31047.00
571.4380, 31172.00
572.6110, 31191.32
573.7840, 31227.00
574.9570, 31343.00
576.1290, 31274.00
577.3020, 31294.00
578.4740, 31516.00
579.6460, 31301.00
580.8180, 31424.00
581.9900, 31451.00
583.1620, 31607.00
584.3330, 31467.00
585.5040, 31697.00
586.6760, 31508.00
587.8470, 31407.00
589.0180, 31764.00
590.1880, 31706.00
591.3590, 31822.00
592.5290, 31629.00
593.7000, 31559.00
594.8700, 31759.00
596.0400, 31669.00
597.2090, 31858.00
598.3790, 31913.00
599.5490, 31905.00
600.7180, 31915.00
601.8870, 32017.10
603.0560, 31960.00
604.2250, 32207.00
605.3940, 32189.00
606.5620, 32244.93
607.7300, 32303.00
608.8990, 32155.00
610.0670, 32263.00
611.2350, 32180.00
612.4020, 32444.00
613.5700, 32331.00
614.7370, 32615.00
615.9050, 32467.00
617.0720, 32703.00
618.2390, 32534.00
619.4060, 32909.00
620.5720, 33048.00
621.7390, 32823.00
622.9050, 32574.00
624.0710, 32832.00
625.2370, 32929.00
626.4030, 32928.00
627.5690, 33342.00
628.7340, 33082.00
629.9000, 33146.00
631.0650, 33268.00
632.2300, 33180.00
633.3950, 33251.00
634.5600, 33380.00
635.7240, 33489.00
636.8890, 33673.00
638.0530, 33654.00
639.2170, 34032.00
640.3810, 34252.00
641.5450, 34162.00
642.7080, 34521.00
643.8720, 34587.00
645.0350, 34867.00
646.1980, 35071.00
647.3610, 35317.00
648.5240, 35516.00
649.6870, 35732.00
650.8490, 35938.00
652.0120, 36123.00
653.1740, 36328.23
654.3360, 36484.00
655.4980, 36727.00
656.6600, 36930.00
657.8210, 37153.00
658.9830, 37695.00
660.1440, 38323.00
661.3050, 38780.00
662.4660, 39582.00
663.6270, 40935.00
664.7870, 42200.00
665.9480, 43953.00
667.1080, 45996.00
668.2680, 48094.00
669.4280, 50002.00
670.5880, 51521.00
671.7480, 51874.00
672.9070, 51256.00
674.0670, 49621.00
675.2260, 47146.00
676.3850, 45193.00
677.5440, 43333.00
678.7030, 41296.00
679.8610, 40243.00
681.0200, 39160.00
682.1780, 38346.00
683.3360, 37983.00
684.4940, 37411.00
685.6520, 37504.00
686.8090, 37174.00
687.9670, 36869.00
689.1240, 36914.00
690.2810, 36821.00
691.4380, 36208.00
692.5950, 36325.00
693.7520, 36039.00
694.9080, 36031.00
696.0650, 35707.00
697.2210, 35723.00
698.3770, 35539.00
699.5330, 35548.00
700.6880, 35554.00
701.8440, 35548.00
702.9990, 35527.89
704.1550, 35397.00
705.3100, 35473.00
706.4650, 35497.00
707.6190, 35480.00
708.7740, 35279.00
709.9290, 35447.00
711.0830, 35223.00
712.2370, 35341.00
713.3910, 35425.00
714.5450, 35501.00
715.6980, 35548.00
716.8520, 35428.00
718.0050, 35644.00
719.1580, 35481.00
720.3110, 35516.00
721.4640, 35829.00
722.6170, 35809.00
723.7700, 35678.00
724.9220, 36047.00
726.0740, 35695.00
727.2260, 35878.00
728.3780, 35741.00
729.5300, 35775.00
730.6810, 35945.00
731.8330, 35910.00
732.9840, 36254.00
734.1350, 36260.00
735.2860, 36498.00
736.4370, 36597.00
737.5880, 36399.00
738.7380, 36509.00
739.8880, 36508.00
741.0390, 36704.00
742.1890, 36630.00
743.3380, 36773.00
744.4880, 36628.00
745.6380, 36503.00
746.7870, 36548.00
747.9360, 36393.00
749.0850, 36573.00
750.2340, 36454.00
751.3830, 36472.00
752.5310, 36341.00
753.6800, 36655.00
754.8280, 36688.00
755.9760, 36724.00
757.1240, 36463.00
758.2720, 36565.00
759.4190, 36613.00
760.5670, 36733.00
761.7140, 36880.00
762.8610, 36663.00
764.0080, 36955.00
765.1550, 36502.00
766.3020, 36936.00
767.4480, 36813.00
768.5950, 36791.00
769.7410, 37024.00
770.8870, 37074.00
772.0330, 36870.00
773.1780, 37055.00
774.3240, 37161.00
775.4690, 37077.00
776.6140, 37099.00
777.7590, 37212.00
778.9040, 37167.00
780.0490, 37228.00
781.1940, 37398.00
782.3380, 37438.00
783.4820, 37486.00
784.6260, 37465.14
785.7700, 37190.00
786.9140, 37346.00
788.0580, 37355.00
789.2010, 37342.00
790.3450, 37533.00
791.4880, 37698.00
792.6310, 37754.00
793.7730, 37559.00
794.9160, 37753.00
796.0590, 37612.00
797.2010, 37701.00
798.3430, 37760.19
799.4850, 37733.00
800.6270, 37825.00
801.7690, 37778.00
802.9100, 37873.71
804.0520, 37999.00
805.1930, 38064.00
806.3340, 38068.00
807.4750, 38202.00
808.6160, 38305.00
809.7560, 38318.76
810.8970, 38483.00
812.0370, 38346.00
813.1770, 38416.00
814.3170, 38361.00
815.4570, 38415.00
816.5960, 38426.11
817.7360, 38432.22
818.8750, 38503.00
820.0140, 38494.00
821.1530, 38617.00
822.2920, 38701.00
823.4310, 38667.00
824.5690, 38883.00
825.7070, 38771.00
826.8460, 39021.00
827.9840, 38705.00
829.1220, 38957.00
830.2590, 38863.00
831.3970, 38914.00
832.5340, 38736.00
833.6710, 39177.00
834.8080, 39474.00
835.9450, 38978.00
837.0820, 39238.00
838.2190, 39256.00
839.3550, 39245.00
840.4910, 39094.00
841.6270, 39288.00
842.7630, 39393.00
843.8990, 39416.00
845.0350, 39520.00
846.1700, 39730.00
847.3060, 39701.73
848.4410, 39575.00
849.5760, 39769.00
850.7100, 39615.00
851.8450, 39687.00
852.9800, 39927.00
854.1140, 39824.00
855.2480, 40019.00
856.3820, 39923.00
857.5160, 39755.00
858.6500, 39914.33
859.7830, 39850.47
860.9170, 40026.00
862.0500, 39956.00
863.1830, 39948.00
864.3160, 40023.00
865.4480, 40216.00
866.5810, 40098.00
867.7130, 40025.00
868.8460, 40294.00
869.9780, 40260.00
871.1100, 40355.00
872.2410, 40291.00
873.3730, 40301.00
874.5050, 40631.00
875.6360, 40341.00
876.7670, 40610.00
877.8980, 40598.00
879.0290, 40473.00
880.1590, 40415.00
881.2900, 40495.48
882.4200, 40623.00
883.5500, 40656.00
884.6800, 40856.00
885.8100, 40888.00
886.9400, 40888.00
888.0690, 40798.00
889.1990, 41203.00
890.3280, 41186.00
891.4570, 41158.00
892.5860, 40992.00
893.7140, 41022.00
894.8430, 41011.00
895.9710, 41258.00
897.1000, 41091.00
898.2280, 41289.00
899.3560, 41470.00
900.4830, 41409.00
901.6110, 41593.00
902.7380, 41634.00
903.8660, 41354.00
904.9930, 41752.00
906.1200, 41757.00
907.2460, 41516.00
908.3730, 41906.00
909.5000, 41695.00
910.6260, 42101.00
911.7520, 41870.00
912.8780, 42077.00
914.0040, 42287.00
915.1290, 41999.00
916.2550, 42085.00
917.3800, 42342.00
918.5050, 42311.00
919.6300, 42773.00
920.7550, 42680.00
921.8800, 43105.00
923.0040, 42969.00
924.1290, 43307.00
925.2530, 43322.00
926.3770, 43563.00
927.5010, 43792.00
928.6250, 44131.00
929.7480, 43649.00
930.8720, 43907.00
931.9950, 44035.00
933.1180, 43768.00
934.2410, 43872.00
935.3640, 43526.00
936.4860, 43268.00
937.6090, 43297.00
938.7310, 43094.00
939.8530, 43172.90
940.9750, 43353.00
942.0970, 43379.00
943.2180, 43731.00
944.3400, 43890.00
945.4610, 43791.00
946.5820, 43722.00
947.7030, 43920.00
948.8240, 43580.00
949.9450, 43849.00
951.0650, 44031.00
952.1860, 43508.00
953.3060, 43503.00
954.4260, 43691.00
955.5460, 43508.00
956.6650, 43882.00
957.7850, 43862.00
958.9040, 43490.00
960.0230, 43889.00
961.1420, 43803.00
962.2610, 43526.00
963.3800, 43757.00
964.4990, 43750.00
965.6170, 43742.00
966.7350, 43722.00
967.8530, 43983.00
968.9710, 43864.00
970.0890, 44061.00
971.2070, 43985.00
972.3240, 43861.00
973.4410, 44401.00
974.5580, 43964.00
975.6750, 44112.00
976.7920, 43795.00
977.9090, 44193.00
979.0250, 44738.00
980.1410, 44827.00
981.2580, 44119.00
982.3740, 44415.00
983.4890, 44238.00
984.6050, 44304.00
985.7200, 44611.00
986.8360, 44314.00
987.9510, 44501.00
989.0660, 44556.00
990.1810, 44572.00
991.2950, 44524.00
992.4100, 44553.00
993.5240, 44585.00
994.6390, 44984.00
995.7530, 44897.00
996.8660, 44983.00
997.9800, 45080.00
999.0940, 45098.00
1000.207, 45182.35
1001.320, 45310.00
1002.433, 45306.00
1003.546, 45344.00
1004.659, 45424.00
1005.772, 45521.00
1006.884, 45479.00
1007.996, 45757.00
1009.108, 45865.00
1010.220, 46040.00
1011.332, 45869.00
1012.444, 46111.00
1013.555, 46312.00
1014.666, 46635.00
1015.777, 46439.00
1016.888, 46753.00
1017.999, 46816.00
1019.110, 47145.00
1020.220, 47124.00
1021.331, 47445.00
1022.441, 47371.00
1023.551, 47744.00
1024.661, 47850.00
1025.770, 48105.00
1026.880, 48265.00
1027.989, 48478.00
1029.098, 48597.00
1030.207, 48353.00
1031.316, 48294.00
1032.425, 47981.00
1033.533, 47790.00
1034.642, 47708.00
1035.750, 47488.00
1036.858, 47178.00
1037.966, 47489.00
1039.073, 47380.00
1040.181, 47115.00
1041.288, 47762.00
1042.396, 48014.00
1043.503, 47723.00
1044.610, 47774.00
1045.716, 48198.00
1046.823, 48666.00
1047.929, 48896.00
1049.036, 49588.00
1050.142, 50198.00
1051.248, 50575.00
1052.353, 51173.00
1053.459, 51451.00
1054.564, 52072.00
1055.670, 52717.00
1056.775, 52863.00
1057.880, 52946.00
1058.985, 52583.00
1060.089, 52129.00
1061.194, 51824.00
1062.298, 51373.00
1063.402, 51137.00
1064.506, 50834.00
1065.610, 50490.00
1066.713, 50142.00
1067.817, 49922.04
1068.920, 49498.00
1070.023, 49471.00
1071.126, 49119.00
1072.229, 48856.00
1073.332, 48561.00
1074.435, 48373.42
1075.537, 48189.00
1076.639, 48127.00
1077.741, 48131.00
1078.843, 48180.00
1079.945, 48057.00
1081.046, 47977.00
1082.148, 48164.00
1083.249, 48078.00
1084.350, 48192.00
1085.451, 48330.00
1086.551, 48202.00
1087.652, 48263.70
1088.752, 47984.00
1089.853, 48267.00
1090.953, 48157.00
1092.053, 48324.00
1093.152, 48265.00
1094.252, 48189.00
1095.351, 48360.00
1096.451, 48248.00
1097.550, 48142.00
1098.649, 48422.00
1099.748, 48272.00
1100.846, 48404.00
1101.945, 48471.00
1103.043, 48422.00
1104.141, 48445.00
1105.239, 48447.50
1106.337, 48449.66
1107.434, 48459.00
1108.532, 48493.00
1109.629, 48539.29
1110.726, 48588.00
1111.823, 48695.00
1112.920, 48738.00
1114.017, 48734.00
1115.113, 48878.00
1116.210, 48915.31
1117.306, 48835.00
1118.402, 49049.00
1119.498, 49079.00
1120.593, 49078.00
1121.689, 49055.00
1122.784, 49133.00
1123.879, 49076.00
1124.974, 49107.00
1126.069, 49167.09
1127.164, 49094.00
1128.259, 49273.00
1129.353, 49180.00
1130.447, 49179.00
1131.541, 49567.00
1132.635, 49319.00
1133.729, 49549.00
1134.822, 49620.00
1135.916, 49476.00
1137.009, 49569.00
1138.102, 49397.00
1139.195, 49544.00
1140.288, 49849.00
1141.380, 49249.00
1142.473, 49484.00
1143.565, 49888.00
1144.657, 49673.00
1145.749, 49715.00
1146.841, 49627.00
1147.932, 49850.00
1149.024, 49901.00
1150.115, 49875.00
1151.206, 50269.00
1152.297, 50173.00
1153.388, 50052.00
1154.479, 49798.00
1155.569, 50164.00
1156.659, 50090.00
1157.750, 50284.00
1158.839, 50112.00
1159.929, 50403.00
1161.019, 50005.00
1162.108, 50439.00
1163.198, 50431.00
1164.287, 50535.00
1165.376, 50426.00
1166.465, 50501.09
1167.553, 50536.00
1168.642, 50547.00
1169.730, 50708.00
1170.818, 50712.00
1171.906, 50884.00
1172.994, 50937.00
1174.082, 50768.00
1175.170, 51130.00
1176.257, 51175.00
1177.344, 50886.00
1178.431, 50951.00
1179.518, 50725.00
1180.605, 51015.00
1181.691, 51078.00
1182.778, 50916.00
1183.864, 51100.00
1184.950, 51023.00
1186.036, 51452.00
1187.122, 50914.00
1188.207, 51208.00
1189.292, 51405.00
1190.378, 51304.00
1191.463, 51388.00
1192.548, 51601.00
1193.632, 51709.00
1194.717, 51643.00
1195.801, 51608.00
1196.886, 51728.00
1197.970, 51678.00
1199.054, 51993.00
1200.137, 51634.00
1201.221, 51669.00
1202.305, 51788.00
1203.388, 51579.00
1204.471, 51824.00
1205.554, 52118.00
1206.637, 51864.00
1207.719, 52227.00
1208.802, 52031.00
1209.884, 51828.00
1210.966, 52215.00
1212.048, 52352.00
1213.130, 52180.00
1214.212, 52338.00
1215.293, 52344.00
1216.374, 52356.00
1217.456, 52424.00
1218.536, 52411.00
1219.617, 52335.00
1220.698, 52673.00
1221.778, 52342.00
1222.859, 52677.00
1223.939, 53095.00
1225.019, 52681.00
1226.099, 52754.00
1227.178, 53014.00
1228.258, 52723.00
1229.337, 53096.00
1230.417, 53063.00
1231.496, 52977.00
1232.574, 53017.00
1233.653, 53170.00
1234.732, 52959.00
1235.810, 53126.00
1236.888, 53278.00
1237.966, 53257.00
1239.044, 53317.00
1240.122, 53003.00
1241.199, 53547.00
1242.277, 53331.00
1243.354, 53248.00
1244.431, 53593.00
1245.508, 53348.00
1246.585, 53606.00
1247.661, 53404.00
1248.738, 53680.00
1249.814, 53475.00
1250.890, 53457.00
1251.966, 53805.00
1253.042, 53753.00
1254.117, 53791.00
1255.193, 53867.00
1256.268, 53777.00
1257.343, 53845.07
1258.418, 53914.00
1259.493, 53947.00
1260.567, 53992.00
1261.642, 54185.00
1262.716, 54114.00
1263.790, 54258.00
1264.864, 54127.00
1265.938, 54446.00
1267.011, 54135.00
1268.085, 54351.00
1269.158, 54168.00
1270.231, 54495.00
1271.304, 54140.00
1272.377, 54610.00
1273.450, 54354.00
1274.522, 54052.00
1275.594, 54558.00
1276.666, 54728.00
1277.738, 54738.00
1278.810, 54648.00
1279.882, 54967.00
1280.953, 54644.00
1282.025, 54768.00
1283.096, 55049.00
1284.167, 55012.00
1285.238, 54720.00
1286.308, 54536.00
1287.379, 55072.00
1288.449, 54761.00
1289.519, 55173.00
1290.589, 55024.00
1291.659, 55069.00
1292.729, 54999.00
1293.798, 55379.00
1294.868, 55425.00
1295.937, 55548.00
1297.006, 55500.00
1298.075, 55437.00
1299.143, 55375.00
1300.212, 55299.00
1301.280, 55352.51
1302.348, 55689.00
1303.416, 55528.00
1304.484, 55705.00
1305.552, 55907.00
1306.620, 55766.00
1307.687, 55876.00
1308.754, 56022.00
1309.821, 55861.00
1310.888, 55863.00
1311.955, 56143.00
1313.021, 56079.00
1314.088, 56229.00
1315.154, 56484.00
1316.220, 56604.00
1317.286, 56298.00
1318.352, 56230.00
1319.417, 56409.00
1320.483, 56392.00
1321.548, 56494.00
1322.613, 56547.15
1323.678, 56459.00
1324.743, 56686.00
1325.807, 56784.00
1326.872, 56981.00
1327.936, 56492.00
1329.000, 56785.00
1330.064, 56517.00
1331.128, 56779.00
1332.191, 57079.00
1333.255, 56916.00
1334.318, 57039.00
1335.381, 56803.00
1336.444, 56916.00
1337.507, 56981.00
1338.569, 57036.00
1339.632, 57140.01
1340.694, 57203.00
1341.756, 57344.00
1342.818, 57238.00
1343.880, 57378.00
1344.941, 57234.00
1346.003, 57095.00
1347.064, 57415.00
1348.125, 57638.00
1349.186, 57638.00
1350.247, 57295.00
1351.308, 57619.00
1352.368, 57525.00
1353.428, 57506.00
1354.489, 57769.00
1355.549, 57817.00
1356.608, 58000.00
1357.668, 57546.00
1358.727, 57914.00
1359.787, 57677.00
1360.846, 57748.00
1361.905, 57796.00
1362.964, 58126.00
1364.022, 58162.00
1365.081, 58060.00
1366.139, 57996.00
1367.197, 58107.00
1368.255, 58216.00
1369.313, 58237.37
1370.371, 58359.00
1371.428, 58278.00
1372.486, 58232.00
1373.543, 58274.88
1374.600, 58373.00
1375.657, 58297.00
1376.713, 58297.00
1377.770, 58338.00
1378.826, 58294.25
1379.882, 58694.00
1380.938, 58405.00
1381.994, 58431.00
1383.050, 58764.00
1384.106, 58694.00
1385.161, 58716.00
1386.216, 58572.00
1387.271, 58770.00
1388.326, 58979.00
1389.381, 59010.00
1390.435, 58870.00
1391.490, 59161.00
1392.544, 59126.00
1393.598, 59397.00
1394.652, 59342.80
1395.705, 59008.00
1396.759, 59115.00
1397.812, 59429.00
1398.866, 59081.00
1399.919, 59143.00
1400.972, 59067.00
1402.024, 59147.00
1403.077, 59154.00
1404.129, 59238.34
1405.181, 59412.00
1406.233, 59421.00
1407.285, 59510.00
1408.337, 59520.00
1409.389, 59395.00
1410.440, 59790.00
1411.491, 59833.00
1412.542, 59897.00
1413.593, 59787.00
1414.644, 59720.00
1415.695, 59769.39
1416.745, 59825.00
1417.795, 59887.00
1418.845, 60094.00
1419.895, 60302.00
1420.945, 60146.00
1421.995, 59903.00
1423.044, 60031.00
1424.093, 60206.00
1425.142, 60218.00
1426.191, 60245.00
1427.240, 60350.00
1428.289, 59984.00
1429.337, 60378.00
1430.385, 60433.00
1431.433, 60350.00
1432.481, 60762.00
1433.529, 60743.00
1434.577, 60578.00
1435.624, 61002.00
1436.672, 60931.00
1437.719, 60696.00
1438.766, 60710.00
1439.812, 60860.00
1440.859, 60960.00
1441.905, 61337.00
1442.952, 61023.00
1443.998, 61392.00
1445.044, 61264.00
1446.090, 61325.00
1447.135, 61356.00
1448.181, 61192.00
1449.226, 61288.00
1450.271, 61587.00
1451.316, 61354.00
1452.361, 61173.00
1453.405, 61709.00
1454.450, 61451.00
1455.494, 61561.00
1456.538, 61700.00
1457.582, 61711.00
1458.626, 61673.00
1459.670, 61839.00
1460.713, 61754.00
1461.757, 61673.00
1462.800, 62021.00
1463.843, 61940.00
1464.886, 61958.00
1465.928, 61776.00
1466.971, 61799.00
1468.013, 62138.00
1469.055, 61926.00
1470.097, 62046.00
1471.139, 61817.00
1472.181, 62145.00
1473.222, 62103.00
1474.263, 62279.00
1475.305, 62203.00
1476.346, 62248.00
1477.386, 61824.00
1478.427, 62588.00
1479.468, 62083.00
1480.508, 62211.00
1481.548, 62502.00
1482.588, 62596.00
1483.628, 62672.29
1484.668, 62825.00
1485.707, 62639.00
1486.747, 62715.00
1487.786, 62500.00
1488.825, 62663.00
1489.864, 62444.00
1490.902, 62740.00
1491.941, 62723.00
1492.979, 62961.00
1494.017, 62759.00
1495.055, 62757.00
1496.093, 62659.00
1497.131, 62679.00
1498.168, 62652.00
1499.206, 62713.71
1500.243, 62852.00
1501.280, 62906.00
1502.317, 62960.00
1503.354, 63084.00
1504.390, 62916.00
1505.426, 63305.00
1506.463, 63063.00
1507.499, 63148.00
1508.535, 63187.00
1509.570, 63224.00
1510.606, 63030.00
1511.641, 63174.00
1512.676, 63227.00
1513.711, 63580.00
1514.746, 63125.00
1515.781, 63559.00
1516.816, 63410.00
1517.850, 63122.00
1518.884, 63391.00
1519.918, 63630.00
1520.952, 63726.00
1521.986, 63682.00
1523.019, 63728.00
1524.053, 63860.00
1525.086, 63496.00
1526.119, 64005.00
1527.152, 63705.00
1528.185, 64079.00
1529.217, 63885.00
1530.250, 63962.00
1531.282, 64181.00
1532.314, 64046.00
1533.346, 64076.00
1534.377, 64145.00
1535.409, 64190.00
1536.440, 64316.00
1537.472, 64359.77
1538.503, 64393.00
1539.534, 64502.00
1540.564, 64418.00
1541.595, 64500.00
1542.625, 64494.00
1543.656, 64513.09
1544.686, 64481.00
1545.716, 64522.00
1546.745, 64446.00
1547.775, 64315.00
1548.804, 64730.00
1549.834, 64460.00
1550.863, 64681.00
1551.892, 64480.00
1552.920, 64790.00
1553.949, 64699.00
1554.977, 65063.00
1556.006, 65028.40
1557.034, 64801.00
1558.062, 65061.00
1559.089, 64962.00
1560.117, 65008.00
1561.144, 65022.89
1562.172, 64880.00
1563.199, 64975.00
1564.226, 64896.00
1565.252, 64923.00
1566.279, 65138.00
1567.305, 65008.00
1568.332, 65069.00
1569.358, 65211.00
1570.384, 65535.00
##END=



