##NAMES=Actinolite
##RRUFFID=R060045
##IDEAL CHEMISTRY=Ca_2_(Mg_4.5-2.5_Fe^2+^_0.5-2.5_)Si_8_O_22_(OH)_2_
##LOCALITY=Colorado, USA
##OWNER=RRUFF
##SOURCE=University of Arizona Mineral Museum
##DESCRIPTION=Green prismatic crystals in a radial arrangement
##STATUS=The identification of this mineral has been confirmed by X-ray diffraction and chemical analysis
##URL=rruff.info/R060045
##MEASURED CHEMISTRY=(Ca_1.99_Na_0.01_)_Σ=2_(Mg_4.20_Fe^2+^_0.59_Al_0.09_Fe^3+^_0.08_Mn_0.02_Ti_0.01_)_Σ=5_(Si_7.82_Al_0.18_)_Σ=8_O_22_(OH)_2_
##PIN_ID=M00155
##ORIENTATION=Laser parallel to b* (0 1 0). Fiducial mark perpendicular to laser is parallel to c [0 0 1]
137.8140, 16660.00
139.0430, 16681.00
140.2710, 16712.00
141.5000, 16727.00
142.7280, 16750.00
143.9560, 16850.49
145.1840, 16921.78
146.4120, 17077.00
147.6390, 17189.00
148.8670, 17321.00
150.0940, 17563.00
151.3210, 18144.00
152.5490, 19020.00
153.7750, 20170.00
155.0020, 21860.00
156.2290, 23138.00
157.4550, 23105.00
158.6810, 21258.00
159.9080, 19790.00
161.1340, 18974.00
162.3590, 18372.00
163.5850, 18244.00
164.8110, 18169.00
166.0360, 18366.00
167.2610, 18570.00
168.4860, 18906.00
169.7110, 19408.00
170.9360, 20050.00
172.1610, 21538.00
173.3850, 23106.00
174.6100, 25401.00
175.8340, 27528.00
177.0580, 27219.00
178.2820, 25153.00
179.5050, 23000.00
180.7290, 21145.00
181.9520, 20040.00
183.1760, 19294.00
184.3990, 18789.00
185.6220, 18498.00
186.8450, 18214.32
188.0670, 18040.00
189.2900, 18100.00
190.5120, 18149.00
191.7340, 18271.00
192.9560, 18174.00
194.1780, 18346.00
195.4000, 18158.00
196.6220, 18053.00
197.8430, 18443.00
199.0640, 18248.00
200.2860, 18545.00
201.5070, 18418.00
202.7270, 18651.00
203.9480, 18654.00
205.1690, 18755.00
206.3890, 18747.00
207.6090, 19050.00
208.8290, 19424.00
210.0490, 19439.00
211.2690, 20181.00
212.4890, 20723.00
213.7080, 21190.00
214.9280, 22194.00
216.1470, 23564.00
217.3660, 25134.00
218.5850, 26558.00
219.8030, 28033.00
221.0220, 28082.00
222.2400, 27518.00
223.4590, 26036.00
224.6770, 24633.00
225.8950, 23183.00
227.1120, 22215.00
228.3300, 21374.00
229.5480, 20950.00
230.7650, 20606.00
231.9820, 20264.00
233.1990, 19839.00
234.4160, 19677.00
235.6330, 19433.00
236.8490, 19441.00
238.0660, 19318.00
239.2820, 19299.00
240.4980, 19128.00
241.7140, 19045.00
242.9300, 18976.00
244.1460, 19226.00
245.3610, 19248.00
246.5770, 19305.00
247.7920, 19308.00
249.0070, 19294.00
250.2220, 19248.00
251.4370, 19308.00
252.6510, 19312.68
253.8660, 19413.00
255.0800, 19388.00
256.2940, 19261.00
257.5080, 19276.00
258.7220, 19346.00
259.9360, 19209.18
261.1490, 19455.00
262.3630, 19120.00
263.5760, 19105.00
264.7890, 19254.00
266.0020, 19246.00
267.2150, 19251.24
268.4270, 19251.00
269.6400, 19195.00
270.8520, 19207.00
272.0640, 19131.00
273.2760, 19300.00
274.4880, 19271.00
275.7000, 19290.00
276.9120, 19165.00
278.1230, 19452.00
279.3340, 19540.00
280.5450, 19426.00
281.7560, 19411.00
282.9670, 19726.00
284.1780, 19765.00
285.3880, 19985.00
286.5980, 19964.00
287.8090, 20087.00
289.0190, 20068.00
290.2290, 20321.00
291.4380, 20024.00
292.6480, 20170.00
293.8570, 20281.00
295.0670, 20178.00
296.2760, 20431.00
297.4850, 20311.00
298.6930, 20475.00
299.9020, 20511.00
301.1110, 20448.00
302.3190, 20321.00
303.5270, 20400.00
304.7350, 20282.00
305.9430, 20294.00
307.1510, 20313.00
308.3580, 20008.00
309.5660, 20092.00
310.7730, 19998.00
311.9800, 20230.00
313.1870, 20183.00
314.3940, 20425.00
315.6010, 20160.00
316.8070, 20292.00
318.0130, 20326.00
319.2200, 20374.00
320.4260, 20380.00
321.6310, 20473.35
322.8370, 20423.00
324.0430, 20644.00
325.2480, 20804.00
326.4540, 20883.00
327.6590, 20928.00
328.8640, 21160.00
330.0680, 21089.00
331.2730, 21118.00
332.4780, 21056.00
333.6820, 21276.00
334.8860, 21326.00
336.0900, 21523.00
337.2940, 21719.00
338.4980, 21852.00
339.7010, 21842.00
340.9050, 21710.00
342.1080, 21853.00
343.3110, 21714.00
344.5140, 21758.00
345.7170, 21549.00
346.9200, 21576.00
348.1220, 21596.00
349.3240, 21872.00
350.5270, 21467.00
351.7290, 21725.00
352.9310, 21547.00
354.1320, 21738.00
355.3340, 21662.00
356.5350, 21743.00
357.7370, 21805.00
358.9380, 21848.00
360.1390, 21964.00
361.3400, 22326.00
362.5400, 22548.00
363.7410, 22961.00
364.9410, 23223.00
366.1410, 23466.00
367.3410, 23524.49
368.5410, 23727.00
369.7410, 23297.00
370.9400, 23029.00
372.1400, 22513.00
373.3390, 22281.00
374.5380, 22251.00
375.7370, 22283.00
376.9360, 22061.00
378.1350, 22120.00
379.3330, 22141.00
380.5310, 22113.00
381.7300, 22465.00
382.9280, 22390.00
384.1260, 22730.00
385.3230, 23153.00
386.5210, 23648.00
387.7180, 24093.00
388.9160, 24153.00
390.1130, 24623.00
391.3100, 24611.00
392.5060, 24525.00
393.7030, 24096.00
394.9000, 23583.00
396.0960, 23256.00
397.2920, 22799.00
398.4880, 22550.00
399.6840, 22444.00
400.8800, 22435.00
402.0750, 22198.00
403.2710, 22418.00
404.4660, 22167.00
405.6610, 22404.00
406.8560, 22666.00
408.0510, 22646.00
409.2450, 22693.00
410.4400, 22787.00
411.6340, 22686.00
412.8280, 22863.00
414.0220, 22731.00
415.2160, 22670.00
416.4100, 22501.00
417.6030, 22345.00
418.7970, 22387.00
419.9900, 22200.00
421.1830, 22289.00
422.3760, 22011.00
423.5690, 22161.00
424.7610, 21769.00
425.9540, 21980.00
427.1460, 21810.00
428.3380, 22156.00
429.5300, 22095.00
430.7220, 22135.00
431.9140, 22274.00
433.1050, 22318.00
434.2970, 22145.00
435.4880, 22414.00
436.6790, 22268.00
437.8700, 22292.00
439.0610, 22296.00
440.2510, 22190.00
441.4420, 22288.00
442.6320, 22100.00
443.8220, 22261.00
445.0120, 22211.00
446.2020, 22172.00
447.3910, 22211.00
448.5810, 22348.00
449.7700, 22220.00
450.9600, 22118.00
452.1490, 22383.00
453.3370, 22212.00
454.5260, 22184.00
455.7150, 22288.00
456.9030, 22242.00
458.0910, 22201.00
459.2800, 22433.00
460.4670, 22285.00
461.6550, 22555.00
462.8430, 22506.00
464.0300, 22410.00
465.2180, 22644.00
466.4050, 22514.00
467.5920, 22630.00
468.7790, 22603.00
469.9650, 22574.25
471.1520, 22517.00
472.3380, 22588.00
473.5250, 22590.00
474.7110, 22705.00
475.8970, 22788.00
477.0820, 22787.00
478.2680, 22838.00
479.4540, 22904.00
480.6390, 22952.96
481.8240, 22992.00
483.0090, 23104.00
484.1940, 23041.00
485.3780, 23122.00
486.5630, 22740.00
487.7470, 22933.00
488.9320, 23158.00
490.1160, 22912.00
491.3000, 23262.00
492.4830, 23132.00
493.6670, 23000.00
494.8500, 23001.00
496.0340, 23090.00
497.2170, 23168.00
498.4000, 23224.48
499.5820, 23290.68
500.7650, 23354.00
501.9480, 23353.00
503.1300, 23356.00
504.3120, 23289.00
505.4940, 23195.00
506.6760, 23230.00
507.8580, 23319.95
509.0390, 23364.00
510.2210, 23605.00
511.4020, 23709.00
512.5830, 23807.00
513.7640, 23803.00
514.9450, 23892.00
516.1250, 23888.00
517.3060, 23887.00
518.4860, 23877.00
519.6660, 23981.00
520.8460, 24014.00
522.0260, 23917.00
523.2060, 23854.00
524.3850, 24090.00
525.5650, 24187.00
526.7440, 24102.00
527.9230, 24082.00
529.1020, 24152.00
530.2810, 24147.00
531.4590, 24062.00
532.6380, 24485.00
533.8160, 24504.00
534.9940, 24128.00
536.1720, 24305.00
537.3500, 23962.00
538.5270, 24226.00
539.7050, 24328.00
540.8820, 24128.00
542.0590, 24217.00
543.2360, 24345.00
544.4130, 24192.00
545.5900, 24155.00
546.7660, 24241.00
547.9430, 24397.00
549.1190, 24194.00
550.2950, 24203.00
551.4710, 24318.00
552.6470, 24522.00
553.8220, 24585.00
554.9980, 24411.00
556.1730, 24375.00
557.3480, 24379.00
558.5230, 24499.00
559.6980, 24425.00
560.8730, 24448.00
562.0470, 24597.00
563.2220, 24343.00
564.3960, 24818.00
565.5700, 24587.00
566.7440, 24572.00
567.9170, 24833.00
569.0910, 24837.00
570.2640, 24656.00
571.4380, 24736.00
572.6110, 24595.00
573.7840, 24836.00
574.9570, 24769.00
576.1290, 24915.00
577.3020, 24784.00
578.4740, 24801.00
579.6460, 24760.00
580.8180, 24904.00
581.9900, 24739.00
583.1620, 24802.00
584.3330, 25005.00
585.5040, 24952.00
586.6760, 24821.00
587.8470, 24734.00
589.0180, 24863.00
590.1880, 24838.00
591.3590, 24715.00
592.5290, 24835.00
593.7000, 24782.00
594.8700, 25040.00
596.0400, 24921.00
597.2090, 25078.00
598.3790, 25168.00
599.5490, 25199.00
600.7180, 25452.00
601.8870, 25120.00
603.0560, 25294.00
604.2250, 25073.00
605.3940, 25285.00
606.5620, 25372.00
607.7300, 25417.00
608.8990, 25370.00
610.0670, 25344.00
611.2350, 25534.00
612.4020, 25601.00
613.5700, 25507.00
614.7370, 25783.00
615.9050, 25661.00
617.0720, 25660.00
618.2390, 25905.00
619.4060, 25823.00
620.5720, 25861.00
621.7390, 25848.00
622.9050, 25934.00
624.0710, 26139.00
625.2370, 26155.00
626.4030, 26319.00
627.5690, 26281.00
628.7340, 26321.00
629.9000, 26206.00
631.0650, 26259.00
632.2300, 26424.00
633.3950, 26504.00
634.5600, 26443.00
635.7240, 26630.00
636.8890, 26676.00
638.0530, 26952.00
639.2170, 26825.00
640.3810, 27109.00
641.5450, 27173.00
642.7080, 27495.00
643.8720, 27859.00
645.0350, 27902.00
646.1980, 28341.00
647.3610, 28470.00
648.5240, 28709.00
649.6870, 29231.00
650.8490, 29461.00
652.0120, 29751.00
653.1740, 30094.00
654.3360, 30253.00
655.4980, 30650.00
656.6600, 30828.00
657.8210, 31293.00
658.9830, 32032.00
660.1440, 32730.00
661.3050, 33817.00
662.4660, 35132.00
663.6270, 37184.00
664.7870, 39225.00
665.9480, 41963.00
667.1080, 44914.00
668.2680, 48724.00
669.4280, 52297.00
670.5880, 54549.00
671.7480, 54995.00
672.9070, 53143.00
674.0670, 49488.00
675.2260, 45318.00
676.3850, 41717.00
677.5440, 38354.00
678.7030, 35741.00
679.8610, 33762.00
681.0200, 32378.00
682.1780, 31544.00
683.3360, 30695.00
684.4940, 30013.00
685.6520, 29668.00
686.8090, 29450.00
687.9670, 28821.00
689.1240, 28566.00
690.2810, 28735.00
691.4380, 28439.00
692.5950, 28181.00
693.7520, 28201.00
694.9080, 28064.00
696.0650, 28056.00
697.2210, 27649.00
698.3770, 27664.00
699.5330, 27651.00
700.6880, 27629.00
701.8440, 27599.00
702.9990, 27513.00
704.1550, 27520.00
705.3100, 27664.00
706.4650, 27467.00
707.6190, 27585.00
708.7740, 27506.00
709.9290, 27519.00
711.0830, 27495.00
712.2370, 27534.00
713.3910, 27571.00
714.5450, 27642.00
715.6980, 27601.00
716.8520, 27448.00
718.0050, 27629.00
719.1580, 27829.00
720.3110, 27714.00
721.4640, 27637.00
722.6170, 27663.00
723.7700, 27629.00
724.9220, 27773.00
726.0740, 27940.00
727.2260, 27786.00
728.3780, 28041.00
729.5300, 27942.00
730.6810, 27791.00
731.8330, 28168.00
732.9840, 27968.00
734.1350, 28115.00
735.2860, 27998.00
736.4370, 27992.00
737.5880, 28028.00
738.7380, 28306.00
739.8880, 28088.00
741.0390, 28349.00
742.1890, 28324.00
743.3380, 28567.00
744.4880, 28536.00
745.6380, 28381.00
746.7870, 28442.00
747.9360, 28789.00
749.0850, 28730.00
750.2340, 28662.00
751.3830, 28794.00
752.5310, 28671.48
753.6800, 28646.00
754.8280, 28552.00
755.9760, 28428.00
757.1240, 28357.00
758.2720, 28488.00
759.4190, 28474.00
760.5670, 28618.00
761.7140, 28430.00
762.8610, 28504.00
764.0080, 28689.00
765.1550, 28231.00
766.3020, 28691.00
767.4480, 28395.00
768.5950, 28673.00
769.7410, 28777.00
770.8870, 28713.00
772.0330, 28541.00
773.1780, 28743.00
774.3240, 28818.00
775.4690, 28750.00
776.6140, 28811.00
777.7590, 28656.00
778.9040, 28774.00
780.0490, 28901.00
781.1940, 28847.00
782.3380, 28753.00
783.4820, 28933.00
784.6260, 28891.00
785.7700, 29139.00
786.9140, 28857.00
788.0580, 28954.00
789.2010, 29041.00
790.3450, 28867.00
791.4880, 29241.00
792.6310, 29119.00
793.7730, 29184.00
794.9160, 29085.00
796.0590, 29160.00
797.2010, 29122.00
798.3430, 29328.00
799.4850, 29319.00
800.6270, 29390.00
801.7690, 29397.00
802.9100, 29272.00
804.0520, 29317.00
805.1930, 29331.00
806.3340, 29493.00
807.4750, 29456.00
808.6160, 29289.00
809.7560, 29521.00
810.8970, 29670.00
812.0370, 29523.00
813.1770, 29327.00
814.3170, 29443.00
815.4570, 29629.00
816.5960, 29826.00
817.7360, 29618.00
818.8750, 30033.00
820.0140, 29779.00
821.1530, 29859.00
822.2920, 29915.00
823.4310, 29787.00
824.5690, 30069.00
825.7070, 30056.00
826.8460, 29973.00
827.9840, 30109.00
829.1220, 30096.00
830.2590, 30023.00
831.3970, 30010.00
832.5340, 30134.00
833.6710, 30181.00
834.8080, 30198.00
835.9450, 30349.00
837.0820, 30180.00
838.2190, 30091.00
839.3550, 30232.00
840.4910, 30537.00
841.6270, 30366.00
842.7630, 30443.00
843.8990, 30452.00
845.0350, 30412.00
846.1700, 30515.00
847.3060, 30586.00
848.4410, 30676.00
849.5760, 30829.00
850.7100, 30877.00
851.8450, 30635.00
852.9800, 30726.00
854.1140, 30802.00
855.2480, 30889.00
856.3820, 31161.00
857.5160, 31142.00
858.6500, 30930.00
859.7830, 31217.00
860.9170, 30914.00
862.0500, 31082.00
863.1830, 31136.00
864.3160, 31049.00
865.4480, 30930.00
866.5810, 31071.00
867.7130, 31203.00
868.8460, 31176.00
869.9780, 31290.00
871.1100, 30981.00
872.2410, 31271.00
873.3730, 31200.00
874.5050, 31166.00
875.6360, 31263.00
876.7670, 31176.00
877.8980, 31416.00
879.0290, 31221.00
880.1590, 31456.00
881.2900, 31287.00
882.4200, 31571.00
883.5500, 31417.00
884.6800, 31356.00
885.8100, 31358.00
886.9400, 31297.00
888.0690, 31616.00
889.1990, 31581.00
890.3280, 31719.00
891.4570, 31835.00
892.5860, 31678.00
893.7140, 31563.00
894.8430, 31741.00
895.9710, 31740.00
897.1000, 31883.00
898.2280, 32073.00
899.3560, 31866.00
900.4830, 32149.00
901.6110, 31847.00
902.7380, 31893.00
903.8660, 32252.00
904.9930, 32083.00
906.1200, 32148.00
907.2460, 32430.00
908.3730, 32302.00
909.5000, 32363.00
910.6260, 32401.00
911.7520, 32156.00
912.8780, 32547.00
914.0040, 32675.00
915.1290, 32396.00
916.2550, 32529.00
917.3800, 32736.00
918.5050, 32745.00
919.6300, 32989.00
920.7550, 33177.00
921.8800, 33554.00
923.0040, 33763.00
924.1290, 33992.00
925.2530, 34273.00
926.3770, 34602.00
927.5010, 35145.00
928.6250, 35224.00
929.7480, 35222.00
930.8720, 35122.00
931.9950, 34938.00
933.1180, 34873.00
934.2410, 34518.00
935.3640, 34125.00
936.4860, 34321.00
937.6090, 33900.00
938.7310, 33808.00
939.8530, 33652.00
940.9750, 33702.00
942.0970, 33727.00
943.2180, 33809.00
944.3400, 33792.00
945.4610, 33789.00
946.5820, 33834.00
947.7030, 33800.00
948.8240, 33572.00
949.9450, 33689.00
951.0650, 33901.00
952.1860, 33384.00
953.3060, 33796.00
954.4260, 33614.00
955.5460, 33503.00
956.6650, 33685.00
957.7850, 33491.00
958.9040, 33555.00
960.0230, 33959.00
961.1420, 33503.00
962.2610, 33350.00
963.3800, 33627.00
964.4990, 33612.00
965.6170, 33685.00
966.7350, 33553.00
967.8530, 33477.00
968.9710, 33599.00
970.0890, 33542.09
971.2070, 33609.00
972.3240, 33588.00
973.4410, 33722.00
974.5580, 33691.00
975.6750, 33826.00
976.7920, 33746.00
977.9090, 33666.00
979.0250, 33835.00
980.1410, 33894.00
981.2580, 33871.00
982.3740, 33958.00
983.4890, 34113.00
984.6050, 34053.00
985.7200, 34131.00
986.8360, 33979.00
987.9510, 33982.00
989.0660, 34192.00
990.1810, 34030.00
991.2950, 34430.00
992.4100, 34339.00
993.5240, 34578.00
994.6390, 34106.00
995.7530, 34204.00
996.8660, 34238.00
997.9800, 34444.00
999.0940, 34607.00
1000.207, 34730.39
1001.320, 34846.29
1002.433, 34986.00
1003.546, 35033.00
1004.659, 35038.00
1005.772, 35178.00
1006.884, 35199.00
1007.996, 35402.00
1009.108, 35384.00
1010.220, 35781.00
1011.332, 36049.00
1012.444, 35814.00
1013.555, 35581.00
1014.666, 35628.00
1015.777, 35737.00
1016.888, 35950.00
1017.999, 35785.00
1019.110, 35900.00
1020.220, 35969.00
1021.331, 35878.00
1022.441, 36104.00
1023.551, 36295.00
1024.661, 36704.00
1025.770, 36786.00
1026.880, 36806.00
1027.989, 36905.00
1029.098, 37013.00
1030.207, 37178.00
1031.316, 36884.00
1032.425, 36687.00
1033.533, 36767.00
1034.642, 36478.00
1035.750, 36304.00
1036.858, 36349.00
1037.966, 36407.00
1039.073, 36565.00
1040.181, 36693.00
1041.288, 36814.00
1042.396, 37149.00
1043.503, 37255.00
1044.610, 37539.00
1045.716, 37903.00
1046.823, 38301.00
1047.929, 38799.54
1049.036, 39359.00
1050.142, 40000.00
1051.248, 40737.00
1052.353, 41547.00
1053.459, 42291.00
1054.564, 43510.00
1055.670, 44389.00
1056.775, 44428.00
1057.880, 44715.00
1058.985, 43801.00
1060.089, 43323.00
1061.194, 42441.00
1062.298, 41738.00
1063.402, 40909.00
1064.506, 40468.00
1065.610, 39978.00
1066.713, 39814.00
1067.817, 39280.00
1068.920, 39005.00
1070.023, 38480.00
1071.126, 38356.00
1072.229, 37882.00
1073.332, 37753.00
1074.435, 37459.00
1075.537, 37144.00
1076.639, 37225.00
1077.741, 36891.00
1078.843, 37032.00
1079.945, 37000.00
1081.046, 36852.00
1082.148, 36864.00
1083.249, 37023.00
1084.350, 37118.00
1085.451, 37097.00
1086.551, 36987.00
1087.652, 36959.00
1088.752, 36977.00
1089.853, 37041.00
1090.953, 36799.00
1092.053, 36688.00
1093.152, 36888.00
1094.252, 36969.00
1095.351, 36831.00
1096.451, 36738.00
1097.550, 36783.00
1098.649, 36787.00
1099.748, 36762.00
1100.846, 36838.00
1101.945, 36862.00
1103.043, 37038.00
1104.141, 36908.00
1105.239, 37005.00
1106.337, 36899.00
1107.434, 36963.00
1108.532, 36994.00
1109.629, 37150.00
1110.726, 37163.00
1111.823, 37230.00
1112.920, 37286.00
1114.017, 37246.00
1115.113, 37096.00
1116.210, 37194.00
1117.306, 37243.00
1118.402, 37091.00
1119.498, 37156.00
1120.593, 37378.00
1121.689, 37306.00
1122.784, 37478.00
1123.879, 37531.00
1124.974, 37244.00
1126.069, 37382.00
1127.164, 37245.00
1128.259, 37634.00
1129.353, 37652.00
1130.447, 37597.00
1131.541, 37655.00
1132.635, 37687.00
1133.729, 37599.00
1134.822, 37497.00
1135.916, 37640.00
1137.009, 37504.00
1138.102, 37484.00
1139.195, 37807.00
1140.288, 37665.00
1141.380, 37778.00
1142.473, 37738.00
1143.565, 37772.54
1144.657, 37829.00
1145.749, 37849.00
1146.841, 38093.00
1147.932, 38084.02
1149.024, 37770.00
1150.115, 37920.00
1151.206, 38014.00
1152.297, 37771.00
1153.388, 38154.00
1154.479, 37997.00
1155.569, 37936.00
1156.659, 37983.00
1157.750, 38198.00
1158.839, 38292.00
1159.929, 38290.57
1161.019, 38208.00
1162.108, 38259.00
1163.198, 38243.00
1164.287, 38235.00
1165.376, 38186.00
1166.465, 38372.00
1167.553, 38255.00
1168.642, 38542.00
1169.730, 38449.00
1170.818, 38360.00
1171.906, 38581.00
1172.994, 38635.00
1174.082, 38495.00
1175.170, 38489.00
1176.257, 38487.00
1177.344, 38546.00
1178.431, 38602.00
1179.518, 38553.00
1180.605, 38646.40
1181.691, 38752.00
1182.778, 38743.00
1183.864, 38831.00
1184.950, 38839.00
1186.036, 38896.00
1187.122, 38889.00
1188.207, 38903.00
1189.292, 38918.00
1190.378, 38877.00
1191.463, 38875.00
1192.548, 39017.00
1193.632, 38891.00
1194.717, 39044.00
1195.801, 39082.00
1196.886, 39110.00
1197.970, 38995.00
1199.054, 39206.00
1200.137, 39205.28
1201.221, 39152.00
1202.305, 39292.00
1203.388, 39407.00
1204.471, 39267.00
1205.554, 39329.00
1206.637, 39320.00
1207.719, 39294.77
1208.802, 39379.48
1209.884, 39340.00
1210.966, 39453.00
1212.048, 39561.00
1213.130, 39472.00
1214.212, 39743.00
1215.293, 39498.00
1216.374, 39567.00
1217.456, 39552.00
1218.536, 39506.00
1219.617, 39601.00
1220.698, 39609.00
1221.778, 39810.00
1222.859, 39858.00
1223.939, 39969.00
1225.019, 39972.00
1226.099, 39893.00
1227.178, 40016.00
1228.258, 39847.00
1229.337, 40253.00
1230.417, 40030.00
1231.496, 40119.00
1232.574, 40221.00
1233.653, 40045.00
1234.732, 40019.00
1235.810, 40216.00
1236.888, 40156.00
1237.966, 40255.00
1239.044, 40277.00
1240.122, 40329.59
1241.199, 40300.00
1242.277, 40431.00
1243.354, 40351.00
1244.431, 40301.00
1245.508, 40432.00
1246.585, 40451.00
1247.661, 40638.00
1248.738, 40712.00
1249.814, 40623.00
1250.890, 40613.00
1251.966, 40745.00
1253.042, 40727.00
1254.117, 40723.00
1255.193, 40880.00
1256.268, 40836.00
1257.343, 40889.00
1258.418, 41011.00
1259.493, 40872.00
1260.567, 40987.25
1261.642, 41027.00
1262.716, 41069.00
1263.790, 41050.00
1264.864, 41086.00
1265.938, 41190.00
1267.011, 41270.00
1268.085, 41382.00
1269.158, 41380.68
1270.231, 41376.00
1271.304, 41373.00
1272.377, 41437.00
1273.450, 41456.00
1274.522, 41595.00
1275.594, 41647.00
1276.666, 41582.00
1277.738, 41381.00
1278.810, 41485.00
1279.882, 41589.00
1280.953, 41300.00
1282.025, 41749.00
1283.096, 41935.00
1284.167, 41883.00
1285.238, 41722.00
1286.308, 41906.00
1287.379, 41679.00
1288.449, 41862.00
1289.519, 41689.00
1290.589, 42050.00
1291.659, 41692.00
1292.729, 41821.00
1293.798, 41758.00
1294.868, 41964.00
1295.937, 42131.00
1297.006, 42000.00
1298.075, 42149.00
1299.143, 42355.00
1300.212, 41953.00
1301.280, 41990.00
1302.348, 41990.00
1303.416, 42053.00
1304.484, 42086.00
1305.552, 42485.00
1306.620, 42487.00
1307.687, 42136.00
1308.754, 42564.00
1309.821, 42556.00
1310.888, 42227.00
1311.955, 42540.00
1313.021, 42557.00
1314.088, 42518.00
1315.154, 42584.00
1316.220, 42506.00
1317.286, 42735.00
1318.352, 42597.00
1319.417, 42937.00
1320.483, 42838.46
1321.548, 42875.00
1322.613, 42806.00
1323.678, 42646.00
1324.743, 42717.00
1325.807, 42677.00
1326.872, 42782.00
1327.936, 42740.00
1329.000, 42752.00
1330.064, 42773.00
1331.128, 42670.00
1332.191, 42595.00
1333.255, 42818.00
1334.318, 42883.00
1335.381, 43105.00
1336.444, 43120.00
1337.507, 42892.00
1338.569, 42963.00
1339.632, 43148.00
1340.694, 42730.00
1341.756, 42855.00
1342.818, 43211.00
1343.880, 43232.00
1344.941, 43204.00
1346.003, 43229.00
1347.064, 43183.00
1348.125, 43316.00
1349.186, 43031.00
1350.247, 42994.00
1351.308, 43128.00
1352.368, 43399.00
1353.428, 43066.00
1354.489, 43383.00
1355.549, 43258.00
1356.608, 43407.00
1357.668, 43418.00
1358.727, 43674.00
1359.787, 43574.00
1360.846, 43531.00
1361.905, 43524.00
1362.964, 43726.00
1364.022, 43605.00
1365.081, 43748.00
1366.139, 43705.00
1367.197, 43534.00
1368.255, 43475.00
1369.313, 43827.00
1370.371, 43929.00
1371.428, 43937.00
1372.486, 43765.00
1373.543, 43988.00
1374.600, 44071.00
1375.657, 43918.00
1376.713, 43984.00
1377.770, 44082.00
1378.826, 44078.00
1379.882, 44056.00
1380.938, 44156.00
1381.994, 44258.00
1383.050, 44104.00
1384.106, 44111.00
1385.161, 43957.00
1386.216, 44046.01
1387.271, 44091.00
1388.326, 44201.00
1389.381, 44295.00
1390.435, 44304.00
1391.490, 44362.00
1392.544, 44403.00
1393.598, 44288.00
1394.652, 44551.00
1395.705, 44382.00
1396.759, 44298.00
1397.812, 44573.00
1398.866, 44385.00
1399.919, 44714.00
1400.972, 44674.00
1402.024, 44482.00
1403.077, 44623.00
1404.129, 44419.00
1405.181, 44565.00
1406.233, 44711.00
1407.285, 44913.00
1408.337, 44732.00
1409.389, 44789.00
1410.440, 44730.00
1411.491, 44686.00
1412.542, 44878.00
1413.593, 44931.00
1414.644, 44689.00
1415.695, 45125.00
1416.745, 45018.00
1417.795, 44861.00
1418.845, 44933.00
1419.895, 44873.00
1420.945, 45080.00
1421.995, 45259.00
1423.044, 45580.00
1424.093, 44990.00
1425.142, 45090.00
1426.191, 45246.00
1427.240, 45206.00
1428.289, 45324.00
1429.337, 45280.00
1430.385, 45423.00
1431.433, 45267.00
1432.481, 45360.00
1433.529, 45473.00
1434.577, 45612.00
1435.624, 45916.00
1436.672, 45784.00
1437.719, 46068.00
1438.766, 45729.00
1439.812, 46036.00
1440.859, 46037.00
1441.905, 46083.00
1442.952, 46382.00
1443.998, 46150.00
1445.044, 46337.00
1446.090, 46207.00
1447.135, 46118.00
1448.181, 46639.00
1449.226, 46620.00
1450.271, 46310.00
1451.316, 46515.00
1452.361, 46807.00
1453.405, 46419.00
1454.450, 46510.00
1455.494, 46671.00
1456.538, 46761.00
1457.582, 46520.00
1458.626, 46819.00
1459.670, 46682.00
1460.713, 46517.00
1461.757, 46660.00
1462.800, 46754.00
1463.843, 46620.00
1464.886, 46730.00
1465.928, 46977.00
1466.971, 46725.00
1468.013, 46606.00
1469.055, 46605.00
1470.097, 46853.00
1471.139, 46642.00
1472.181, 46792.00
1473.222, 46537.00
1474.263, 46571.00
1475.305, 46961.00
1476.346, 46783.00
1477.386, 46582.00
1478.427, 46969.00
1479.468, 46967.00
1480.508, 46906.00
1481.548, 46906.00
1482.588, 46791.00
1483.628, 46719.00
1484.668, 46560.00
1485.707, 46710.00
1486.747, 46914.00
1487.786, 46727.00
1488.825, 47364.00
1489.864, 46919.00
1490.902, 46942.00
1491.941, 47131.00
1492.979, 46918.00
1494.017, 46868.00
1495.055, 46896.00
1496.093, 46948.00
1497.131, 47026.00
1498.168, 46938.00
1499.206, 47128.00
1500.243, 47399.00
1501.280, 47188.00
1502.317, 47032.00
1503.354, 47365.00
1504.390, 47341.00
1505.426, 47194.00
1506.463, 47424.00
1507.499, 47483.00
1508.535, 47373.00
1509.570, 47190.00
1510.606, 47500.00
1511.641, 47299.00
1512.676, 47476.00
1513.711, 47647.00
1514.746, 47490.00
1515.781, 47788.00
1516.816, 47570.00
1517.850, 47494.00
1518.884, 47243.00
1519.918, 47701.00
1520.952, 47461.00
1521.986, 47581.00
1523.019, 47869.00
1524.053, 47889.00
1525.086, 47866.00
1526.119, 47892.00
1527.152, 47769.00
1528.185, 48006.00
1529.217, 48098.00
1530.250, 47786.00
1531.282, 48059.00
1532.314, 48148.00
1533.346, 48232.00
1534.377, 48195.00
1535.409, 48104.00
1536.440, 48161.00
1537.472, 48061.00
1538.503, 48204.00
1539.534, 48066.00
1540.564, 48287.00
1541.595, 48532.00
1542.625, 48458.00
1543.656, 48535.00
1544.686, 48474.00
1545.716, 48289.00
1546.745, 48358.00
1547.775, 48250.00
1548.804, 48447.00
1549.834, 48593.00
1550.863, 48542.00
1551.892, 48435.00
1552.920, 48784.00
1553.949, 48644.00
1554.977, 48804.00
1556.006, 48749.00
1557.034, 48760.00
1558.062, 48684.00
1559.089, 48613.00
1560.117, 48605.00
1561.144, 48563.00
1562.172, 48547.57
1563.199, 48565.00
1564.226, 48619.00
1565.252, 48687.00
1566.279, 48916.00
1567.305, 48736.00
1568.332, 48735.00
1569.358, 49012.00
1570.384, 49105.00
##END=



