##NAMES=Actinolite
##RRUFFID=R060045
##IDEAL CHEMISTRY=Ca_2_(Mg_4.5-2.5_Fe^2+^_0.5-2.5_)Si_8_O_22_(OH)_2_
##LOCALITY=Colorado, USA
##OWNER=RRUFF
##SOURCE=University of Arizona Mineral Museum
##DESCRIPTION=Green prismatic crystals in a radial arrangement
##STATUS=The identification of this mineral has been confirmed by X-ray diffraction and chemical analysis
##URL=rruff.info/R060045
##MEASURED CHEMISTRY=(Ca_1.99_Na_0.01_)_Σ=2_(Mg_4.20_Fe^2+^_0.59_Al_0.09_Fe^3+^_0.08_Mn_0.02_Ti_0.01_)_Σ=5_(Si_7.82_Al_0.18_)_Σ=8_O_22_(OH)_2_
##PIN_ID=M00122
##ORIENTATION=Laser parallel to (1 0 1). Fiducial mark perpendicular to laser is parallel to b [0 1 0]
125.5190, 18470.00
126.7490, 18341.00
127.9790, 18409.00
129.2090, 18239.00
130.4390, 18373.00
131.6680, 18318.00
132.8980, 18604.00
134.1270, 18323.00
135.3560, 18627.00
136.5850, 18850.00
137.8140, 19042.00
139.0430, 18981.00
140.2710, 19035.00
141.5000, 19156.00
142.7280, 19122.00
143.9560, 19302.00
145.1840, 19428.00
146.4120, 19656.00
147.6390, 19618.00
148.8670, 19850.00
150.0940, 20183.00
151.3210, 20332.00
152.5490, 20712.00
153.7750, 20900.00
155.0020, 21685.00
156.2290, 22510.00
157.4550, 23040.00
158.6810, 22814.00
159.9080, 22138.00
161.1340, 21673.00
162.3590, 21584.00
163.5850, 21534.00
164.8110, 21541.29
166.0360, 21717.00
167.2610, 22020.00
168.4860, 22447.00
169.7110, 23052.00
170.9360, 23834.00
172.1610, 25012.00
173.3850, 26470.00
174.6100, 28805.00
175.8340, 31293.00
177.0580, 32161.00
178.2820, 30315.00
179.5050, 28007.00
180.7290, 25697.00
181.9520, 24227.00
183.1760, 23403.00
184.3990, 22423.00
185.6220, 21980.00
186.8450, 21962.00
188.0670, 21551.00
189.2900, 21464.00
190.5120, 21577.00
191.7340, 21499.00
192.9560, 21531.00
194.1780, 21497.00
195.4000, 21579.00
196.6220, 21491.00
197.8430, 21583.00
199.0640, 21541.00
200.2860, 21835.00
201.5070, 22096.00
202.7270, 22251.00
203.9480, 22206.00
205.1690, 22188.00
206.3890, 22506.00
207.6090, 22794.00
208.8290, 23215.00
210.0490, 23609.00
211.2690, 24280.00
212.4890, 25140.00
213.7080, 26122.00
214.9280, 27368.00
216.1470, 28597.00
217.3660, 30513.00
218.5850, 32565.00
219.8030, 34277.00
221.0220, 35290.00
222.2400, 34873.00
223.4590, 32799.00
224.6770, 31173.00
225.8950, 28960.00
227.1120, 27553.00
228.3300, 26255.00
229.5480, 25281.00
230.7650, 24433.00
231.9820, 23993.00
233.1990, 23645.00
234.4160, 23171.00
235.6330, 22979.86
236.8490, 22994.00
238.0660, 22683.00
239.2820, 22617.00
240.4980, 22645.00
241.7140, 22300.00
242.9300, 22359.00
244.1460, 22506.00
245.3610, 22602.00
246.5770, 22551.00
247.7920, 22685.00
249.0070, 22547.00
250.2220, 22691.00
251.4370, 22792.00
252.6510, 22624.00
253.8660, 22803.00
255.0800, 22624.00
256.2940, 22761.00
257.5080, 22492.00
258.7220, 22619.00
259.9360, 22890.00
261.1490, 22780.00
262.3630, 22793.00
263.5760, 22834.00
264.7890, 22659.00
266.0020, 22761.00
267.2150, 22785.00
268.4270, 22782.00
269.6400, 22707.00
270.8520, 22787.00
272.0640, 22834.00
273.2760, 22835.00
274.4880, 23036.00
275.7000, 22996.00
276.9120, 22962.00
278.1230, 23165.00
279.3340, 23018.00
280.5450, 23196.00
281.7560, 23286.00
282.9670, 23312.00
284.1780, 23322.00
285.3880, 23435.00
286.5980, 23506.35
287.8090, 23516.00
289.0190, 23684.00
290.2290, 23903.00
291.4380, 23902.00
292.6480, 23899.00
293.8570, 24134.00
295.0670, 23847.00
296.2760, 23735.00
297.4850, 24325.00
298.6930, 24213.00
299.9020, 24173.00
301.1110, 24159.00
302.3190, 24394.00
303.5270, 24351.00
304.7350, 24316.00
305.9430, 24159.00
307.1510, 24124.00
308.3580, 24026.00
309.5660, 24176.00
310.7730, 24129.00
311.9800, 24148.00
313.1870, 24039.00
314.3940, 24156.00
315.6010, 24019.00
316.8070, 24347.00
318.0130, 24280.00
319.2200, 24465.00
320.4260, 24278.00
321.6310, 24483.00
322.8370, 24439.00
324.0430, 24471.00
325.2480, 24617.00
326.4540, 24899.00
327.6590, 25035.00
328.8640, 25114.00
330.0680, 25147.00
331.2730, 25210.00
332.4780, 25256.27
333.6820, 25319.71
334.8860, 25366.00
336.0900, 25439.00
337.2940, 25544.00
338.4980, 25574.00
339.7010, 25763.00
340.9050, 25852.00
342.1080, 25831.00
343.3110, 26235.00
344.5140, 26340.00
345.7170, 26252.00
346.9200, 26266.00
348.1220, 26339.00
349.3240, 26569.00
350.5270, 26464.00
351.7290, 26657.00
352.9310, 26412.00
354.1320, 26497.00
355.3340, 26381.00
356.5350, 26526.00
357.7370, 26712.00
358.9380, 26875.00
360.1390, 27067.88
361.3400, 27260.00
362.5400, 27536.00
363.7410, 28084.00
364.9410, 28498.00
366.1410, 28742.00
367.3410, 28858.00
368.5410, 28562.00
369.7410, 28469.00
370.9400, 28123.00
372.1400, 27680.00
373.3390, 27431.00
374.5380, 27027.00
375.7370, 26851.00
376.9360, 26794.00
378.1350, 26523.00
379.3330, 26567.00
380.5310, 26685.00
381.7300, 26672.00
382.9280, 26602.00
384.1260, 26587.00
385.3230, 26718.00
386.5210, 26783.00
387.7180, 27101.00
388.9160, 27082.00
390.1130, 27216.00
391.3100, 27299.00
392.5060, 27116.00
393.7030, 26971.00
394.9000, 26915.00
396.0960, 26645.00
397.2920, 26619.00
398.4880, 26354.00
399.6840, 26414.00
400.8800, 26356.00
402.0750, 26393.00
403.2710, 26360.00
404.4660, 26544.00
405.6610, 26400.00
406.8560, 26433.00
408.0510, 26415.00
409.2450, 26748.00
410.4400, 26558.00
411.6340, 26509.00
412.8280, 26803.00
414.0220, 26668.00
415.2160, 26675.00
416.4100, 26519.00
417.6030, 26627.00
418.7970, 26858.00
419.9900, 26571.00
421.1830, 26756.00
422.3760, 26736.00
423.5690, 26596.00
424.7610, 26710.00
425.9540, 26820.00
427.1460, 26845.00
428.3380, 26903.00
429.5300, 26927.00
430.7220, 26763.00
431.9140, 27136.00
433.1050, 27129.00
434.2970, 27098.00
435.4880, 27483.00
436.6790, 27150.00
437.8700, 27131.00
439.0610, 27105.00
440.2510, 27065.00
441.4420, 27070.00
442.6320, 27279.00
443.8220, 27311.00
445.0120, 27273.00
446.2020, 27402.00
447.3910, 27076.00
448.5810, 27139.00
449.7700, 27036.00
450.9600, 27279.00
452.1490, 27409.00
453.3370, 27486.00
454.5260, 27546.00
455.7150, 27426.00
456.9030, 27581.00
458.0910, 27499.00
459.2800, 27362.00
460.4670, 27671.00
461.6550, 27342.00
462.8430, 27662.00
464.0300, 27446.00
465.2180, 27636.00
466.4050, 27628.00
467.5920, 27734.00
468.7790, 27812.00
469.9650, 27653.00
471.1520, 27726.00
472.3380, 27557.00
473.5250, 27966.00
474.7110, 28058.00
475.8970, 28009.00
477.0820, 27880.00
478.2680, 27975.00
479.4540, 27947.47
480.6390, 28089.00
481.8240, 28027.00
483.0090, 28162.00
484.1940, 28202.00
485.3780, 28082.00
486.5630, 28403.00
487.7470, 28233.00
488.9320, 28064.00
490.1160, 28377.00
491.3000, 28560.00
492.4830, 28460.00
493.6670, 28406.00
494.8500, 28407.00
496.0340, 28405.00
497.2170, 28519.00
498.4000, 28458.00
499.5820, 28687.00
500.7650, 28818.00
501.9480, 28737.00
503.1300, 28774.00
504.3120, 28735.00
505.4940, 29100.00
506.6760, 29050.00
507.8580, 29152.00
509.0390, 29000.00
510.2210, 29393.00
511.4020, 29457.00
512.5830, 29482.00
513.7640, 29534.00
514.9450, 29531.00
516.1250, 29608.00
517.3060, 29726.00
518.4860, 29676.00
519.6660, 29781.00
520.8460, 29758.00
522.0260, 29839.00
523.2060, 29897.00
524.3850, 29701.00
525.5650, 29919.00
526.7440, 30099.00
527.9230, 30077.00
529.1020, 29917.00
530.2810, 30031.00
531.4590, 29960.00
532.6380, 30079.00
533.8160, 30176.00
534.9940, 29736.00
536.1720, 29926.00
537.3500, 29866.00
538.5270, 29783.00
539.7050, 29933.00
540.8820, 30006.00
542.0590, 29857.00
543.2360, 30199.00
544.4130, 30111.00
545.5900, 30024.00
546.7660, 30164.00
547.9430, 29955.00
549.1190, 29956.00
550.2950, 30069.00
551.4710, 30095.00
552.6470, 29925.00
553.8220, 30346.00
554.9980, 30218.00
556.1730, 30447.00
557.3480, 30257.00
558.5230, 30245.00
559.6980, 30188.00
560.8730, 30183.30
562.0470, 30150.00
563.2220, 30232.00
564.3960, 30426.00
565.5700, 30401.00
566.7440, 30471.00
567.9170, 30411.00
569.0910, 30489.00
570.2640, 30484.00
571.4380, 30625.00
572.6110, 30603.00
573.7840, 30726.00
574.9570, 30749.62
576.1290, 30841.00
577.3020, 30816.00
578.4740, 30841.00
579.6460, 30893.00
580.8180, 30903.00
581.9900, 31059.00
583.1620, 30947.00
584.3330, 30750.00
585.5040, 31011.00
586.6760, 31162.00
587.8470, 31166.00
589.0180, 30965.00
590.1880, 30829.00
591.3590, 31028.00
592.5290, 31232.00
593.7000, 31058.00
594.8700, 31343.00
596.0400, 31346.00
597.2090, 30969.00
598.3790, 31199.00
599.5490, 31206.00
600.7180, 31151.00
601.8870, 31445.00
603.0560, 31482.00
604.2250, 31421.00
605.3940, 31527.00
606.5620, 31412.00
607.7300, 31629.00
608.8990, 31563.00
610.0670, 31617.00
611.2350, 31892.00
612.4020, 31759.00
613.5700, 32145.00
614.7370, 32101.00
615.9050, 32030.00
617.0720, 31991.00
618.2390, 32110.00
619.4060, 31966.00
620.5720, 32270.00
621.7390, 32368.00
622.9050, 32504.00
624.0710, 32318.00
625.2370, 32422.00
626.4030, 32469.00
627.5690, 32607.00
628.7340, 32573.00
629.9000, 32683.00
631.0650, 33013.00
632.2300, 33248.00
633.3950, 33140.00
634.5600, 33051.00
635.7240, 33035.00
636.8890, 33183.68
638.0530, 33608.00
639.2170, 33699.00
640.3810, 33785.00
641.5450, 34227.00
642.7080, 34258.00
643.8720, 34495.00
645.0350, 35140.00
646.1980, 35359.00
647.3610, 35727.00
648.5240, 36017.00
649.6870, 36260.00
650.8490, 36710.00
652.0120, 37035.00
653.1740, 37247.00
654.3360, 37554.00
655.4980, 37457.00
656.6600, 37937.00
657.8210, 38228.00
658.9830, 38905.00
660.1440, 39341.00
661.3050, 40554.00
662.4660, 41763.00
663.6270, 43215.00
664.7870, 45283.00
665.9480, 47581.00
667.1080, 50390.00
668.2680, 52880.00
669.4280, 55489.00
670.5880, 57614.00
671.7480, 58147.00
672.9070, 56694.00
674.0670, 54132.00
675.2260, 51138.00
676.3850, 47583.00
677.5440, 44744.00
678.7030, 42675.00
679.8610, 40813.00
681.0200, 39375.00
682.1780, 38552.00
683.3360, 37954.00
684.4940, 37204.00
685.6520, 36871.00
686.8090, 36571.00
687.9670, 36372.00
689.1240, 36086.00
690.2810, 35937.00
691.4380, 35618.00
692.5950, 35615.00
693.7520, 35256.00
694.9080, 35447.00
696.0650, 35309.00
697.2210, 35207.00
698.3770, 34847.00
699.5330, 34950.00
700.6880, 34883.00
701.8440, 34552.00
702.9990, 34777.00
704.1550, 34686.00
705.3100, 34848.00
706.4650, 34930.00
707.6190, 34623.00
708.7740, 34773.00
709.9290, 34871.00
711.0830, 34602.00
712.2370, 34936.00
713.3910, 34867.00
714.5450, 34796.00
715.6980, 34759.00
716.8520, 34743.54
718.0050, 34694.00
719.1580, 34837.00
720.3110, 34806.00
721.4640, 35035.00
722.6170, 34972.00
723.7700, 34769.00
724.9220, 35014.00
726.0740, 34979.00
727.2260, 35045.00
728.3780, 35356.00
729.5300, 34879.00
730.6810, 34921.00
731.8330, 35364.00
732.9840, 35050.00
734.1350, 35400.00
735.2860, 35402.00
736.4370, 35770.00
737.5880, 35808.00
738.7380, 35921.00
739.8880, 35735.00
741.0390, 35747.00
742.1890, 35803.00
743.3380, 35775.00
744.4880, 35769.00
745.6380, 35672.00
746.7870, 35657.00
747.9360, 35653.48
749.0850, 35529.00
750.2340, 35749.00
751.3830, 35727.00
752.5310, 35941.00
753.6800, 35783.00
754.8280, 35803.00
755.9760, 35824.00
757.1240, 35809.00
758.2720, 35849.97
759.4190, 35880.24
760.5670, 35888.00
761.7140, 36017.00
762.8610, 35995.00
764.0080, 36159.02
765.1550, 36011.00
766.3020, 36293.00
767.4480, 36104.00
768.5950, 36090.00
769.7410, 36130.00
770.8870, 36042.00
772.0330, 36355.00
773.1780, 35996.00
774.3240, 36339.00
775.4690, 36307.00
776.6140, 36425.00
777.7590, 36598.00
778.9040, 36514.00
780.0490, 36434.00
781.1940, 36343.00
782.3380, 36407.00
783.4820, 36346.00
784.6260, 36709.00
785.7700, 36630.00
786.9140, 36255.00
788.0580, 36717.00
789.2010, 36441.00
790.3450, 36736.00
791.4880, 36657.00
792.6310, 36871.00
793.7730, 36927.00
794.9160, 36790.00
796.0590, 37016.00
797.2010, 36899.00
798.3430, 37139.00
799.4850, 36930.00
800.6270, 37062.00
801.7690, 37120.00
802.9100, 37047.00
804.0520, 37111.00
805.1930, 37039.00
806.3340, 37117.00
807.4750, 37096.00
808.6160, 37366.00
809.7560, 37431.00
810.8970, 37484.51
812.0370, 37559.58
813.1770, 37536.00
814.3170, 37588.00
815.4570, 37522.00
816.5960, 37575.00
817.7360, 37679.00
818.8750, 37839.00
820.0140, 37641.00
821.1530, 37976.00
822.2920, 37989.00
823.4310, 37746.00
824.5690, 38205.00
825.7070, 38039.00
826.8460, 38046.00
827.9840, 38012.00
829.1220, 38188.00
830.2590, 37919.00
831.3970, 37992.00
832.5340, 37840.00
833.6710, 38155.00
834.8080, 38208.00
835.9450, 38240.00
837.0820, 38232.00
838.2190, 38414.00
839.3550, 38150.00
840.4910, 38199.00
841.6270, 38524.00
842.7630, 38411.00
843.8990, 38428.00
845.0350, 38557.00
846.1700, 38829.00
847.3060, 38462.00
848.4410, 38790.00
849.5760, 38918.00
850.7100, 38850.00
851.8450, 38951.00
852.9800, 38837.00
854.1140, 38643.00
855.2480, 38961.00
856.3820, 39111.00
857.5160, 38880.00
858.6500, 39263.00
859.7830, 39244.00
860.9170, 39278.00
862.0500, 39053.00
863.1830, 39500.00
864.3160, 39391.00
865.4480, 39301.00
866.5810, 39270.00
867.7130, 39285.00
868.8460, 39341.90
869.9780, 39358.00
871.1100, 39555.00
872.2410, 39395.00
873.3730, 39487.00
874.5050, 39451.00
875.6360, 39361.00
876.7670, 39409.00
877.8980, 39846.00
879.0290, 39554.00
880.1590, 39507.00
881.2900, 39804.00
882.4200, 39650.00
883.5500, 39723.00
884.6800, 39937.00
885.8100, 39697.00
886.9400, 39933.00
888.0690, 39770.00
889.1990, 40321.00
890.3280, 39926.00
891.4570, 40389.00
892.5860, 40264.00
893.7140, 40324.00
894.8430, 40360.00
895.9710, 40424.00
897.1000, 40159.00
898.2280, 40449.00
899.3560, 40149.00
900.4830, 40387.00
901.6110, 40629.00
902.7380, 40547.00
903.8660, 40524.00
904.9930, 40720.00
906.1200, 40693.00
907.2460, 40746.00
908.3730, 40754.00
909.5000, 40694.00
910.6260, 40834.00
911.7520, 40852.45
912.8780, 41177.00
914.0040, 41065.00
915.1290, 41158.00
916.2550, 41379.00
917.3800, 41353.00
918.5050, 41579.00
919.6300, 41703.00
920.7550, 41818.00
921.8800, 42241.00
923.0040, 42225.00
924.1290, 42241.00
925.2530, 42517.00
926.3770, 42916.00
927.5010, 43094.00
928.6250, 43037.00
929.7480, 43071.00
930.8720, 43166.00
931.9950, 43186.00
933.1180, 43115.28
934.2410, 43015.00
935.3640, 42876.00
936.4860, 42713.00
937.6090, 42500.00
938.7310, 42475.00
939.8530, 42488.64
940.9750, 42891.00
942.0970, 42710.00
943.2180, 42903.00
944.3400, 43088.00
945.4610, 43188.00
946.5820, 43201.00
947.7030, 43334.00
948.8240, 42970.00
949.9450, 42984.00
951.0650, 43252.00
952.1860, 42708.00
953.3060, 42759.00
954.4260, 42809.00
955.5460, 42620.00
956.6650, 42907.00
957.7850, 42952.00
958.9040, 42647.00
960.0230, 42656.00
961.1420, 42762.00
962.2610, 42695.00
963.3800, 42783.00
964.4990, 42919.00
965.6170, 42693.00
966.7350, 42416.00
967.8530, 42549.00
968.9710, 42915.00
970.0890, 43024.00
971.2070, 42835.00
972.3240, 42905.00
973.4410, 43021.00
974.5580, 42990.00
975.6750, 42712.00
976.7920, 43262.00
977.9090, 42855.00
979.0250, 43019.00
980.1410, 43206.00
981.2580, 43101.00
982.3740, 43331.00
983.4890, 43265.00
984.6050, 43241.00
985.7200, 43265.00
986.8360, 43359.00
987.9510, 43745.00
989.0660, 43410.00
990.1810, 43309.00
991.2950, 43478.00
992.4100, 43098.00
993.5240, 43729.00
994.6390, 43770.00
995.7530, 43623.00
996.8660, 43822.00
997.9800, 43699.00
999.0940, 43931.00
1000.207, 44005.00
1001.320, 43964.00
1002.433, 44102.00
1003.546, 44262.00
1004.659, 44227.00
1005.772, 44560.00
1006.884, 44478.00
1007.996, 44299.00
1009.108, 44427.00
1010.220, 44619.00
1011.332, 44753.00
1012.444, 44750.00
1013.555, 44765.00
1014.666, 44790.00
1015.777, 44960.41
1016.888, 45275.00
1017.999, 45296.00
1019.110, 45630.00
1020.220, 45672.00
1021.331, 45740.00
1022.441, 45717.00
1023.551, 46073.00
1024.661, 46294.00
1025.770, 46677.00
1026.880, 46890.00
1027.989, 46966.00
1029.098, 47101.00
1030.207, 47133.00
1031.316, 46822.00
1032.425, 46535.00
1033.533, 46382.00
1034.642, 46206.00
1035.750, 46431.00
1036.858, 46477.00
1037.966, 46509.00
1039.073, 46463.00
1040.181, 46730.00
1041.288, 47047.00
1042.396, 47107.00
1043.503, 47359.00
1044.610, 47665.00
1045.716, 47927.00
1046.823, 48523.00
1047.929, 49301.00
1049.036, 49824.00
1050.142, 50489.00
1051.248, 51644.00
1052.353, 52341.00
1053.459, 53097.00
1054.564, 53984.00
1055.670, 54470.00
1056.775, 54801.00
1057.880, 54709.00
1058.985, 54377.00
1060.089, 53789.00
1061.194, 53096.00
1062.298, 52136.00
1063.402, 51366.00
1064.506, 51082.00
1065.610, 50553.00
1066.713, 50095.00
1067.817, 49983.00
1068.920, 49511.00
1070.023, 49116.00
1071.126, 48578.00
1072.229, 48002.00
1073.332, 47689.00
1074.435, 47380.83
1075.537, 47553.00
1076.639, 47132.00
1077.741, 47230.00
1078.843, 47409.00
1079.945, 47052.00
1081.046, 46972.00
1082.148, 47036.00
1083.249, 47021.00
1084.350, 47088.00
1085.451, 47223.00
1086.551, 46895.00
1087.652, 46991.00
1088.752, 46957.00
1089.853, 47225.00
1090.953, 47068.00
1092.053, 46857.00
1093.152, 47204.00
1094.252, 47265.00
1095.351, 47134.00
1096.451, 46917.00
1097.550, 47151.00
1098.649, 47134.00
1099.748, 46989.00
1100.846, 47125.00
1101.945, 47306.00
1103.043, 47193.00
1104.141, 47192.00
1105.239, 47290.00
1106.337, 47225.01
1107.434, 47311.00
1108.532, 47210.00
1109.629, 47383.00
1110.726, 47354.00
1111.823, 47490.00
1112.920, 47080.00
1114.017, 47506.00
1115.113, 47567.00
1116.210, 47369.00
1117.306, 47732.00
1118.402, 47674.00
1119.498, 47773.00
1120.593, 47902.00
1121.689, 47611.00
1122.784, 47633.00
1123.879, 47742.00
1124.974, 47861.00
1126.069, 47915.54
1127.164, 47873.00
1128.259, 48016.00
1129.353, 48012.00
1130.447, 47926.00
1131.541, 47950.00
1132.635, 47899.81
1133.729, 48033.00
1134.822, 47920.00
1135.916, 48024.00
1137.009, 48227.00
1138.102, 48136.00
1139.195, 48343.00
1140.288, 48137.00
1141.380, 48120.00
1142.473, 48114.00
1143.565, 48120.00
1144.657, 48238.00
1145.749, 48456.00
1146.841, 48376.00
1147.932, 48472.00
1149.024, 48646.00
1150.115, 48669.00
1151.206, 48589.00
1152.297, 48573.00
1153.388, 48649.00
1154.479, 48479.00
1155.569, 48799.00
1156.659, 48838.00
1157.750, 48659.00
1158.839, 48829.00
1159.929, 49002.00
1161.019, 48793.00
1162.108, 48893.00
1163.198, 49156.00
1164.287, 49015.00
1165.376, 48973.00
1166.465, 48937.00
1167.553, 49090.00
1168.642, 49385.00
1169.730, 49380.00
1170.818, 49320.00
1171.906, 49414.00
1172.994, 49232.00
1174.082, 49477.00
1175.170, 49254.00
1176.257, 49423.00
1177.344, 49131.00
1178.431, 49809.00
1179.518, 49572.00
1180.605, 49571.00
1181.691, 49673.00
1182.778, 49688.00
1183.864, 49503.00
1184.950, 49742.00
1186.036, 49684.00
1187.122, 49732.00
1188.207, 49915.00
1189.292, 49954.00
1190.378, 49772.00
1191.463, 49979.00
1192.548, 49982.00
1193.632, 49930.08
1194.717, 50029.00
1195.801, 49935.00
1196.886, 50111.00
1197.970, 50272.00
1199.054, 50438.00
1200.137, 49987.00
1201.221, 50783.00
1202.305, 50356.00
1203.388, 50384.00
1204.471, 50585.00
1205.554, 50541.00
1206.637, 50200.00
1207.719, 50597.00
1208.802, 50637.00
1209.884, 50499.00
1210.966, 50736.00
1212.048, 50738.00
1213.130, 50713.00
1214.212, 50860.00
1215.293, 50916.00
1216.374, 50830.00
1217.456, 50771.00
1218.536, 50817.00
1219.617, 50938.00
1220.698, 51202.00
1221.778, 51017.00
1222.859, 50801.00
1223.939, 51535.00
1225.019, 51168.00
1226.099, 51363.00
1227.178, 51447.00
1228.258, 51148.00
1229.337, 51493.00
1230.417, 51578.00
1231.496, 51336.00
1232.574, 51439.00
1233.653, 51559.00
1234.732, 51351.00
1235.810, 51763.00
1236.888, 51541.00
1237.966, 51572.00
1239.044, 51523.00
1240.122, 51710.00
1241.199, 51684.00
1242.277, 51804.00
1243.354, 51776.00
1244.431, 51993.00
1245.508, 51762.00
1246.585, 51958.00
1247.661, 52104.00
1248.738, 52027.00
1249.814, 51756.00
1250.890, 52169.00
1251.966, 52301.00
1253.042, 52383.00
1254.117, 52055.00
1255.193, 51796.00
1256.268, 52276.00
1257.343, 52432.00
1258.418, 52274.00
1259.493, 52426.00
1260.567, 52592.00
1261.642, 52449.00
1262.716, 52663.00
1263.790, 52933.00
1264.864, 52456.00
1265.938, 52638.00
1267.011, 52831.00
1268.085, 52909.00
1269.158, 53078.74
1270.231, 53217.00
1271.304, 53123.00
1272.377, 53073.00
1273.450, 52627.00
1274.522, 53135.00
1275.594, 52858.00
1276.666, 53019.00
1277.738, 53189.00
1278.810, 53224.00
1279.882, 52907.00
1280.953, 53309.00
1282.025, 53033.00
1283.096, 53635.00
1284.167, 53190.00
1285.238, 53094.00
1286.308, 53781.00
1287.379, 53395.00
1288.449, 53614.00
1289.519, 53765.00
1290.589, 53744.00
1291.659, 53655.00
1292.729, 53922.00
1293.798, 53636.00
1294.868, 54060.00
1295.937, 54069.00
1297.006, 53838.00
1298.075, 53740.00
1299.143, 53894.00
1300.212, 53900.00
1301.280, 53877.00
1302.348, 53894.00
1303.416, 53950.00
1304.484, 54059.00
1305.552, 54332.00
1306.620, 55505.00
1307.687, 54783.00
1308.754, 55293.00
1309.821, 55508.00
1310.888, 54589.00
1311.955, 54525.00
1313.021, 54307.00
1314.088, 54670.00
1315.154, 54630.00
1316.220, 54788.00
1317.286, 54888.00
1318.352, 54886.00
1319.417, 54966.00
1320.483, 55120.00
1321.548, 54869.00
1322.613, 55156.00
1323.678, 54822.00
1324.743, 55062.00
1325.807, 55229.00
1326.872, 55064.00
1327.936, 55031.00
1329.000, 55194.00
1330.064, 55115.00
1331.128, 55154.66
1332.191, 55123.15
1333.255, 55190.00
1334.318, 55060.00
1335.381, 55143.00
1336.444, 55255.00
1337.507, 55579.00
1338.569, 55563.00
1339.632, 55527.00
1340.694, 55626.00
1341.756, 55427.00
1342.818, 55596.00
1343.880, 55578.00
1344.941, 55708.00
1346.003, 55681.00
1347.064, 55716.00
1348.125, 55708.27
1349.186, 55512.00
1350.247, 55660.00
1351.308, 55922.00
1352.368, 55968.00
1353.428, 55842.00
1354.489, 56113.00
1355.549, 55932.00
1356.608, 55770.00
1357.668, 56056.00
1358.727, 56370.00
1359.787, 56118.00
1360.846, 56235.00
1361.905, 56291.00
1362.964, 56282.00
1364.022, 56220.00
1365.081, 56224.48
1366.139, 56490.00
1367.197, 56280.00
1368.255, 56140.00
1369.313, 56428.00
1370.371, 56613.00
1371.428, 56570.00
1372.486, 56661.00
1373.543, 56722.00
1374.600, 56896.00
1375.657, 56957.05
1376.713, 56839.00
1377.770, 57073.00
1378.826, 56971.00
1379.882, 56863.00
1380.938, 57157.00
1381.994, 57033.00
1383.050, 56697.00
1384.106, 57093.00
1385.161, 57315.00
1386.216, 57095.00
1387.271, 57357.00
1388.326, 57447.00
1389.381, 57346.00
1390.435, 57512.00
1391.490, 57066.00
1392.544, 57423.00
1393.598, 57050.00
1394.652, 57557.00
1395.705, 57498.00
1396.759, 57580.00
1397.812, 57488.00
1398.866, 57361.00
1399.919, 57388.00
1400.972, 57341.00
1402.024, 57516.00
1403.077, 57726.00
1404.129, 58032.00
1405.181, 58086.00
1406.233, 57769.00
1407.285, 58010.00
1408.337, 57748.00
1409.389, 57848.00
1410.440, 58008.00
1411.491, 58020.00
1412.542, 58157.00
1413.593, 58165.00
1414.644, 58255.00
1415.695, 58053.00
1416.745, 58375.00
1417.795, 58142.00
1418.845, 58490.00
1419.895, 58244.00
1420.945, 58498.00
1421.995, 58422.00
1423.044, 58427.00
1424.093, 58605.00
1425.142, 58455.00
1426.191, 58664.00
1427.240, 58951.00
1428.289, 58371.00
1429.337, 58751.00
1430.385, 58811.00
1431.433, 58561.00
1432.481, 58955.00
1433.529, 58923.00
1434.577, 58803.00
1435.624, 59170.00
1436.672, 58954.00
1437.719, 58999.00
1438.766, 59218.00
1439.812, 59371.00
1440.859, 59105.00
1441.905, 59372.00
1442.952, 59663.00
1443.998, 59297.00
1445.044, 59285.00
1446.090, 59663.00
1447.135, 59446.00
1448.181, 59909.00
1449.226, 59758.00
1450.271, 59410.00
1451.316, 59663.00
1452.361, 59870.00
1453.405, 59594.00
1454.450, 59888.00
1455.494, 59710.00
1456.538, 59944.00
1457.582, 59900.00
1458.626, 59988.00
1459.670, 59971.00
1460.713, 59998.00
1461.757, 60171.00
1462.800, 59834.00
1463.843, 59809.00
1464.886, 60052.00
1465.928, 60253.00
1466.971, 60149.00
1468.013, 60329.00
1469.055, 60473.00
1470.097, 60255.00
1471.139, 60583.00
1472.181, 60144.00
1473.222, 60361.00
1474.263, 60400.00
1475.305, 60341.00
1476.346, 60387.00
1477.386, 60575.00
1478.427, 60751.00
1479.468, 60731.00
1480.508, 60556.00
1481.548, 60539.00
1482.588, 60594.00
1483.628, 60733.00
1484.668, 60873.00
1485.707, 60761.00
1486.747, 60956.00
1487.786, 60628.00
1488.825, 60985.00
1489.864, 60845.00
1490.902, 60944.00
1491.941, 60985.00
1492.979, 61032.00
1494.017, 60799.00
1495.055, 60978.00
1496.093, 60615.00
1497.131, 61012.00
1498.168, 61147.00
1499.206, 61057.00
1500.243, 61013.00
1501.280, 61349.00
1502.317, 61381.00
1503.354, 61542.00
1504.390, 61527.00
1505.426, 61384.00
1506.463, 61287.00
1507.499, 61381.00
1508.535, 61462.00
1509.570, 61420.00
1510.606, 61774.00
1511.641, 61622.00
1512.676, 62054.00
1513.711, 61429.00
1514.746, 61937.00
1515.781, 61655.00
1516.816, 61809.00
1517.850, 61939.00
1518.884, 61633.00
1519.918, 61810.00
1520.952, 62105.00
1521.986, 61955.00
1523.019, 62123.00
1524.053, 62387.00
1525.086, 62014.00
1526.119, 61959.00
1527.152, 62496.00
1528.185, 62392.00
1529.217, 62152.00
1530.250, 62123.00
1531.282, 62197.00
1532.314, 62293.00
1533.346, 62532.00
1534.377, 62387.00
1535.409, 62300.00
1536.440, 62728.00
1537.472, 62604.00
1538.503, 62510.00
1539.534, 62424.00
1540.564, 62434.00
1541.595, 62701.00
1542.625, 62797.00
1543.656, 62731.00
1544.686, 62621.00
1545.716, 62566.00
1546.745, 62892.00
1547.775, 62748.00
1548.804, 62623.00
1549.834, 63001.00
1550.863, 62934.00
1551.892, 62598.00
1552.920, 63337.00
1553.949, 62980.00
1554.977, 62771.00
1556.006, 63254.00
1557.034, 63027.00
1558.062, 63398.00
1559.089, 63433.00
1560.117, 63328.00
1561.144, 63196.00
1562.172, 63304.00
1563.199, 63292.00
1564.226, 63456.00
1565.252, 63645.00
1566.279, 63404.00
1567.305, 63222.00
1568.332, 63527.00
1569.358, 63715.00
1570.384, 64093.00
##END=



