##NAMES=Actinolite
##RRUFFID=R050336
##IDEAL CHEMISTRY=Ca_2_(Mg_4.5-2.5_Fe^2+^_0.5-2.5_)Si_8_O_22_(OH)_2_
##LOCALITY=Kragerø, Norway
##OWNER=RRUFF
##SOURCE=California Institute of Technology
##DESCRIPTION=Dark green prismatic fragment
##STATUS=The identification of this mineral has been confirmed by X-ray diffraction and chemical analysis
##URL=rruff.info/R050336
##MEASURED CHEMISTRY=([box]_0.62_Na_0.34_K_0.04_)(Ca_1.60_Na_0.40_)_Σ=2_(Mg_3.90_Fe^2+^_0.70_Al_0.20_Ti_0.10_Fe^3+^_0.10_)_Σ=5_(Si_7.52_Al_0.48_)_Σ=8_O_22_((OH)_0.97_F_0.03_)_2_
##PIN_ID=M00343
##ORIENTATION=Laser parallel to -a* (-1 0 0). Fiducial mark perpendicular to laser is parallel to b [0 1 0]
149.7320, 13589.00
150.9600, 13989.00
152.1880, 14036.00
153.4160, 14203.00
154.6440, 14324.00
155.8720, 14531.00
157.0990, 14559.00
158.3270, 14775.00
159.5540, 14951.00
160.7810, 15056.00
162.0080, 15461.00
163.2350, 16047.00
164.4610, 16412.00
165.6880, 16692.00
166.9140, 17208.00
168.1400, 17650.00
169.3660, 18360.00
170.5920, 19010.00
171.8180, 19609.00
173.0430, 20112.00
174.2690, 20530.00
175.4940, 20998.00
176.7190, 21252.00
177.9440, 21547.00
179.1680, 21549.00
180.3930, 20963.00
181.6170, 20311.00
182.8420, 19910.00
184.0660, 19103.00
185.2900, 18695.00
186.5140, 18197.00
187.7370, 17696.00
188.9610, 17374.00
190.1840, 17015.61
191.4070, 16854.00
192.6300, 16514.00
193.8530, 16473.00
195.0760, 16346.00
196.2980, 16075.00
197.5210, 16213.00
198.7430, 16004.00
199.9650, 15993.00
201.1870, 15955.37
202.4090, 16032.00
203.6310, 15895.00
204.8520, 15951.00
206.0730, 16051.00
207.2950, 16110.00
208.5160, 16231.00
209.7360, 16566.00
210.9570, 16982.00
212.1780, 17493.00
213.3980, 18057.00
214.6180, 18384.00
215.8380, 18880.00
217.0580, 19378.00
218.2780, 19875.00
219.4980, 20302.00
220.7170, 20688.00
221.9360, 21005.00
223.1560, 21257.00
224.3750, 21267.79
225.5930, 20912.00
226.8120, 20960.00
228.0310, 20586.00
229.2490, 20069.00
230.4670, 19942.00
231.6850, 19534.00
232.9030, 19294.00
234.1210, 18707.00
235.3380, 18193.00
236.5560, 17786.00
237.7730, 17282.12
238.9900, 16970.00
240.2070, 16504.00
241.4240, 16191.00
242.6410, 16025.00
243.8570, 15855.00
245.0730, 15633.00
246.2900, 15690.00
247.5060, 15436.00
248.7210, 15553.00
249.9370, 15337.00
251.1530, 15096.00
252.3680, 14932.81
253.5830, 14889.98
254.7980, 14792.06
256.0130, 14642.01
257.2280, 14283.67
258.4430, 14194.29
259.6570, 13997.25
260.8720, 13795.67
262.0860, 13744.28
263.3000, 13416.37
264.5130, 13362.74
265.7270, 13258.00
266.9410, 13288.00
268.1540, 13274.00
269.3670, 13177.00
270.5800, 13214.00
271.7930, 13172.00
273.0060, 13205.93
274.2190, 13377.00
275.4310, 13351.00
276.6430, 13466.00
277.8550, 13645.00
279.0670, 13765.00
280.2790, 13734.00
281.4910, 13886.00
282.7020, 14108.00
283.9140, 14124.00
285.1250, 14294.00
286.3360, 14295.00
287.5470, 14433.00
288.7570, 14588.00
289.9680, 14657.00
291.1780, 14820.00
292.3880, 14700.00
293.5990, 14640.00
294.8080, 14713.00
296.0180, 14664.00
297.2280, 14752.00
298.4370, 14672.00
299.6470, 14513.00
300.8560, 14520.00
302.0650, 14511.00
303.2740, 14369.00
304.4820, 14277.00
305.6910, 14073.00
306.8990, 14023.00
308.1070, 14066.00
309.3150, 14108.00
310.5230, 14180.00
311.7310, 13974.00
312.9390, 14049.00
314.1460, 14038.00
315.3530, 14213.00
316.5600, 14316.00
317.7670, 14296.00
318.9740, 14407.00
320.1810, 14475.00
321.3870, 14720.00
322.5930, 14708.00
323.8000, 14984.00
325.0060, 15237.00
326.2110, 15381.00
327.4170, 15535.00
328.6230, 15703.00
329.8280, 15592.00
331.0330, 15861.00
332.2380, 15893.00
333.4430, 15638.00
334.6480, 15707.00
335.8530, 15469.00
337.0570, 15340.00
338.2610, 15236.00
339.4650, 15056.00
340.6690, 14926.00
341.8730, 14876.00
343.0770, 14776.00
344.2800, 14732.00
345.4840, 14636.00
346.6870, 14606.98
347.8900, 14570.00
349.0930, 14620.00
350.2950, 14628.00
351.4980, 14784.00
352.7000, 14973.00
353.9030, 15133.00
355.1050, 15507.00
356.3070, 15699.00
357.5080, 15890.00
358.7100, 16503.00
359.9110, 16992.00
361.1130, 17653.00
362.3140, 18107.00
363.5150, 18737.00
364.7160, 19159.00
365.9160, 19705.00
367.1170, 20130.00
368.3170, 20370.00
369.5170, 20323.00
370.7170, 20436.00
371.9170, 20275.00
373.1170, 19987.00
374.3170, 19818.00
375.5160, 19607.00
376.7150, 19715.00
377.9140, 19777.00
379.1130, 19769.00
380.3120, 20152.00
381.5110, 20520.00
382.7090, 20799.00
383.9070, 21410.00
385.1060, 21967.00
386.3040, 22551.00
387.5010, 22753.00
388.6990, 23373.00
389.8970, 23498.00
391.0940, 23661.00
392.2910, 23495.00
393.4880, 23175.00
394.6850, 22550.00
395.8820, 21862.00
397.0780, 20948.00
398.2750, 20141.00
399.4710, 19114.00
400.6670, 18464.00
401.8630, 18046.00
403.0590, 17723.00
404.2540, 17409.00
405.4500, 17510.00
406.6450, 17487.00
407.8400, 17439.00
409.0350, 17627.00
410.2300, 17755.00
411.4250, 17941.00
412.6190, 18005.00
413.8140, 18073.00
415.0080, 17966.00
416.2020, 17942.73
417.3960, 17743.00
418.5900, 17667.00
419.7830, 17386.00
420.9770, 17063.00
422.1700, 16946.00
423.3630, 16608.00
424.5560, 16475.00
425.7490, 16195.00
426.9410, 16115.00
428.1340, 15798.00
429.3260, 15652.00
430.5180, 15675.00
431.7100, 15410.00
432.9020, 15284.00
434.0940, 15145.52
435.2850, 15001.00
436.4770, 14810.00
437.6680, 14725.00
438.8590, 14561.00
440.0500, 14400.00
441.2410, 14296.00
442.4310, 14156.98
443.6220, 14025.00
444.8120, 13932.00
446.0020, 13799.00
447.1920, 13692.00
448.3820, 13624.00
449.5710, 13575.00
450.7610, 13501.00
451.9500, 13546.00
453.1390, 13540.00
454.3280, 13286.00
455.5170, 13466.00
456.7060, 13356.00
457.8940, 13238.00
459.0830, 13373.00
460.2710, 13227.00
461.4590, 13304.00
462.6470, 13254.00
463.8350, 13256.00
465.0220, 13252.00
466.2100, 13189.00
467.3970, 13160.65
468.5840, 13069.00
469.7710, 13050.00
470.9580, 12943.00
472.1440, 12883.00
473.3310, 12981.00
474.5170, 13041.00
475.7030, 13151.00
476.8890, 13112.00
478.0750, 13192.00
479.2610, 13233.00
480.4460, 13333.00
481.6320, 13206.00
482.8170, 13235.00
484.0020, 13199.00
485.1870, 13384.00
486.3710, 13412.00
487.5560, 13463.00
488.7400, 13345.00
489.9250, 13368.00
491.1090, 13396.00
492.2930, 13472.00
493.4760, 13650.00
494.6600, 13636.00
495.8440, 13847.00
497.0270, 13880.00
498.2100, 13940.00
499.3930, 14177.00
500.5760, 14389.00
501.7580, 14433.00
502.9410, 14619.00
504.1230, 14766.00
505.3060, 14755.00
506.4880, 15028.00
507.6690, 15049.00
508.8510, 15186.00
510.0330, 15367.00
511.2140, 15434.00
512.3950, 15467.00
513.5760, 15705.00
514.7570, 15934.00
515.9380, 15885.00
517.1190, 15924.00
518.2990, 16071.00
519.4800, 16226.00
520.6600, 16327.00
521.8400, 16505.00
523.0190, 16609.00
524.1990, 16851.00
525.3790, 17037.00
526.5580, 17287.00
527.7370, 17172.00
528.9160, 17488.00
530.0950, 17586.00
531.2740, 17762.00
532.4520, 17915.00
533.6310, 17909.00
534.8090, 18116.00
535.9870, 17956.00
537.1650, 18065.00
538.3430, 18050.00
539.5200, 18065.00
540.6980, 17974.00
541.8750, 18002.00
543.0520, 17925.00
544.2290, 17730.00
545.4060, 17755.00
546.5820, 17729.00
547.7590, 17643.00
548.9350, 17698.00
550.1110, 17620.69
551.2870, 17615.48
552.4630, 17589.00
553.6390, 17594.00
554.8140, 17703.00
555.9900, 17720.00
557.1650, 17647.00
558.3400, 17745.00
559.5150, 17474.00
560.6900, 17677.00
561.8640, 17603.00
563.0390, 17706.00
564.2130, 17534.00
565.3870, 17489.00
566.5610, 17592.00
567.7350, 17570.00
568.9080, 17306.00
570.0820, 17231.00
571.2550, 17010.00
572.4280, 16652.00
573.6010, 16450.00
574.7740, 16227.00
575.9470, 15913.00
577.1190, 15567.00
578.2920, 15312.00
579.4640, 14916.00
580.6360, 14684.00
581.8080, 14423.00
582.9790, 14233.00
584.1510, 13801.00
585.3220, 13570.00
586.4940, 13294.00
587.6650, 13098.00
588.8360, 12943.00
590.0060, 12946.00
591.1770, 12680.00
592.3470, 12484.00
593.5180, 12476.00
594.6880, 12286.00
595.8580, 12404.00
597.0280, 12380.00
598.1970, 12312.00
599.3670, 12353.00
600.5360, 12415.00
601.7050, 12357.00
602.8740, 12333.00
604.0430, 12498.00
605.2120, 12412.00
606.3800, 12347.00
607.5490, 12477.00
608.7170, 12634.00
609.8850, 12614.00
611.0530, 12612.00
612.2210, 12691.00
613.3880, 12742.00
614.5560, 12923.00
615.7230, 12856.00
616.8900, 13095.00
618.0570, 13096.00
619.2240, 13291.00
620.3900, 13085.00
621.5570, 13557.00
622.7230, 13475.23
623.8890, 14073.00
625.0550, 13684.00
626.2210, 13626.00
627.3870, 13949.00
628.5520, 14167.00
629.7180, 14145.00
630.8830, 14195.00
632.0480, 14416.00
633.2130, 14524.00
634.3770, 14839.00
635.5420, 14921.00
636.7060, 15162.00
637.8710, 15416.00
639.0350, 15563.00
640.1990, 15925.00
641.3620, 16313.00
642.5260, 16687.00
643.6890, 16768.00
644.8530, 17217.00
646.0160, 17696.00
647.1790, 18183.00
648.3410, 18744.67
649.5040, 19279.00
650.6670, 20038.00
651.8290, 20738.00
652.9910, 21658.00
654.1530, 22850.00
655.3150, 23923.00
656.4770, 25464.00
657.6380, 27298.00
658.7990, 29218.00
659.9610, 31860.00
661.1220, 34603.00
662.2830, 38161.00
663.4430, 42183.00
664.6040, 46506.00
665.7640, 50914.00
666.9240, 55362.00
668.0850, 58961.00
669.2440, 62007.00
670.4040, 63970.00
671.5640, 64674.00
672.7230, 64227.00
673.8830, 62291.00
675.0420, 58944.00
676.2010, 54002.00
677.3590, 49340.00
678.5180, 44522.00
679.6770, 40020.00
680.8350, 36211.00
681.9930, 33073.00
683.1510, 31140.00
684.3090, 29069.00
685.4670, 27399.00
686.6240, 26297.00
687.7810, 25464.00
688.9390, 24790.00
690.0960, 24255.00
691.2530, 23675.00
692.4090, 23473.00
693.5660, 23068.00
694.7220, 23209.00
695.8790, 22675.08
697.0350, 22892.66
698.1910, 23055.15
699.3460, 23165.43
700.5020, 23067.50
701.6570, 23238.45
702.8130, 23301.68
703.9680, 23360.42
705.1230, 23625.00
706.2780, 23828.37
707.4320, 24299.00
708.5870, 24403.00
709.7410, 24934.00
710.8950, 25271.00
712.0490, 25520.00
713.2030, 25982.00
714.3570, 26223.00
715.5100, 26810.00
716.6640, 26825.00
717.8170, 27307.00
718.9700, 27554.00
720.1230, 27806.00
721.2760, 28124.31
722.4280, 28307.07
723.5810, 28584.00
724.7330, 28695.00
725.8850, 28823.00
727.0370, 28984.12
728.1890, 28813.00
729.3400, 29017.00
730.4920, 28966.00
731.6430, 28805.00
732.7940, 28596.00
733.9450, 28682.00
735.0960, 28648.00
736.2460, 28235.00
737.3970, 28034.00
738.5470, 27776.00
739.6970, 27504.00
740.8470, 27181.00
741.9970, 26837.54
743.1470, 26323.00
744.2970, 26002.00
745.4460, 25632.00
746.5950, 25036.00
747.7440, 24555.00
748.8930, 24153.00
750.0420, 23745.00
751.1900, 23200.00
752.3390, 22835.00
753.4870, 22163.00
754.6350, 22024.00
755.7830, 21578.00
756.9310, 20859.00
758.0780, 20565.00
759.2260, 20217.00
760.3730, 19981.00
761.5200, 19639.00
762.6670, 19483.00
763.8140, 19165.00
764.9610, 18859.00
766.1070, 18526.00
767.2530, 18547.00
768.4000, 18309.00
769.5460, 18205.00
770.6910, 18139.00
771.8370, 17788.00
772.9830, 17580.00
774.1280, 17470.00
775.2730, 17583.00
776.4180, 17511.00
777.5630, 17468.00
778.7080, 17423.12
779.8520, 17371.00
780.9970, 17297.63
782.1410, 17132.00
783.2850, 17127.00
784.4290, 17033.08
785.5730, 16925.00
786.7160, 16895.00
787.8600, 16893.00
789.0030, 16755.00
790.1460, 16600.00
791.2890, 16598.00
792.4320, 16585.00
793.5750, 16392.00
794.7170, 16448.00
795.8590, 16288.00
797.0020, 16311.00
798.1440, 15977.00
799.2850, 16219.00
800.4270, 15959.00
801.5690, 16075.00
802.7100, 15839.00
803.8510, 15759.00
804.9920, 15624.00
806.1330, 15576.00
807.2740, 15374.00
808.4140, 15379.00
809.5550, 15284.00
810.6950, 15185.54
811.8350, 15156.00
812.9750, 15044.00
814.1150, 15026.00
815.2540, 14998.00
816.3940, 14777.00
817.5330, 14743.00
818.6720, 14686.00
819.8110, 14652.00
820.9500, 14475.00
822.0880, 14442.00
823.2270, 14613.00
824.3650, 14586.00
825.5030, 14411.00
826.6410, 14402.00
827.7790, 14158.00
828.9170, 14395.00
830.0540, 14151.00
831.1920, 14141.00
832.3290, 14089.00
833.4660, 14093.00
834.6030, 13879.00
835.7390, 13977.00
836.8760, 13955.00
838.0120, 13544.00
839.1480, 13662.00
840.2840, 13703.00
841.4200, 13519.00
842.5560, 13512.00
843.6920, 13526.00
844.8270, 13506.00
845.9620, 13578.00
847.0970, 13617.00
848.2320, 13584.52
849.3670, 13586.00
850.5020, 13567.00
851.6360, 13547.00
852.7700, 13618.00
853.9040, 13647.00
855.0380, 13723.00
856.1720, 13641.00
857.3060, 13639.00
858.4390, 13686.59
859.5730, 13843.00
860.7060, 13807.00
861.8390, 13792.00
862.9720, 13930.00
864.1040, 13878.00
865.2370, 14019.00
866.3690, 14098.00
867.5010, 14239.00
868.6330, 14203.08
869.7650, 14240.00
870.8970, 14051.00
872.0290, 14315.00
873.1600, 14146.00
874.2910, 14101.00
875.4220, 14324.00
876.5530, 14371.00
877.6840, 14437.00
878.8140, 14413.00
879.9450, 14592.00
881.0750, 14683.00
882.2050, 14637.00
883.3350, 14831.00
884.4650, 14784.00
885.5950, 14719.00
886.7240, 14961.00
887.8530, 15016.00
888.9820, 15019.00
890.1110, 15155.66
891.2400, 15188.23
892.3690, 15296.00
893.4970, 15273.00
894.6260, 15356.00
895.7540, 15288.00
896.8820, 15246.00
898.0100, 15368.00
899.1370, 15271.00
900.2650, 15201.00
901.3920, 15346.00
902.5200, 15441.00
903.6470, 15337.00
904.7730, 15366.00
905.9000, 15407.00
907.0270, 15361.00
908.1530, 15335.00
909.2790, 15360.00
910.4050, 15502.00
911.5310, 15645.00
912.6570, 15566.00
913.7830, 15764.00
914.9080, 15635.00
916.0330, 15550.00
917.1580, 15806.00
918.2830, 16156.00
919.4080, 16242.00
920.5330, 16251.00
921.6570, 16251.00
922.7820, 16447.00
923.9060, 16515.00
925.0300, 16604.00
926.1540, 16681.00
927.2770, 16647.38
928.4010, 16680.00
929.5240, 16553.00
930.6470, 16422.00
931.7700, 16365.00
932.8930, 16289.00
934.0160, 16109.00
935.1380, 15812.00
936.2610, 15697.00
937.3830, 15625.00
938.5050, 15439.00
939.6270, 15397.00
940.7490, 15232.00
941.8700, 15233.00
942.9910, 15002.00
944.1130, 15221.00
945.2340, 15097.00
946.3550, 15058.00
947.4750, 15148.00
948.5960, 15142.00
949.7160, 15250.00
950.8370, 15109.00
951.9570, 15224.00
953.0770, 15073.00
954.1970, 15108.00
955.3160, 15108.00
956.4360, 15065.00
957.5550, 14864.00
958.6740, 14883.00
959.7930, 15026.00
960.9120, 15025.00
962.0310, 15183.00
963.1490, 15181.00
964.2670, 15147.00
965.3860, 15198.79
966.5040, 15244.00
967.6210, 15182.00
968.7390, 15166.00
969.8570, 15149.00
970.9740, 15184.00
972.0910, 15055.00
973.2080, 15084.00
974.3250, 15318.00
975.4420, 15127.00
976.5580, 15163.00
977.6750, 15082.00
978.7910, 15040.00
979.9070, 15114.00
981.0230, 15086.22
982.1390, 15116.93
983.2540, 15134.00
984.3700, 15177.00
985.4850, 15176.00
986.6000, 15220.00
987.7150, 15233.27
988.8300, 15237.97
989.9450, 15233.00
991.0590, 15224.00
992.1730, 15148.00
993.2880, 15090.00
994.4010, 15435.00
995.5150, 15411.00
996.6290, 15592.00
997.7420, 15489.00
998.8560, 15681.00
999.9690, 15797.00
1001.082, 15707.00
1002.195, 15879.00
1003.307, 15953.00
1004.420, 15862.00
1005.532, 16078.00
1006.645, 16135.00
1007.757, 16334.00
1008.868, 16559.00
1009.980, 16444.00
1011.092, 16458.00
1012.203, 16688.00
1013.314, 16659.00
1014.425, 16725.00
1015.536, 16844.00
1016.647, 16947.00
1017.758, 16967.00
1018.868, 16923.00
1019.978, 17030.00
1021.088, 17169.00
1022.198, 17314.00
1023.308, 17414.05
1024.418, 17612.00
1025.527, 17635.00
1026.637, 17814.00
1027.746, 17941.00
1028.855, 17954.00
1029.963, 17984.00
1031.072, 17977.92
1032.181, 17853.00
1033.289, 17833.00
1034.397, 17658.00
1035.505, 17436.00
1036.613, 17266.00
1037.721, 17296.00
1038.828, 17172.00
1039.935, 17086.00
1041.043, 17222.00
1042.150, 17064.00
1043.257, 17038.00
1044.363, 17193.00
1045.470, 17251.00
1046.576, 16900.00
1047.682, 17275.00
1048.788, 17422.00
1049.894, 17233.00
1051.000, 17594.00
1052.106, 17761.00
1053.211, 17747.52
1054.316, 18254.00
1055.421, 17819.00
1056.526, 18240.00
1057.631, 18243.00
1058.736, 18294.00
1059.840, 18691.00
1060.944, 18642.45
1062.049, 18501.00
1063.153, 18690.00
1064.256, 18588.00
1065.360, 18343.00
1066.463, 18276.00
1067.567, 17979.00
1068.670, 17690.00
1069.773, 17682.00
1070.876, 17388.00
1071.978, 17289.00
1073.081, 17017.00
1074.183, 16775.00
1075.285, 16662.00
1076.387, 16566.00
1077.489, 16343.00
1078.591, 16278.00
1079.692, 16305.00
1080.794, 16210.00
1081.895, 15919.00
1082.996, 15777.00
1084.097, 15901.00
1085.198, 15655.00
1086.298, 15636.00
1087.399, 15406.00
1088.499, 15366.00
1089.599, 15370.00
1090.699, 15051.00
1091.799, 15273.00
1092.898, 15182.00
1093.998, 15084.00
1095.097, 15014.00
1096.196, 14838.00
1097.295, 15084.00
1098.394, 14987.00
1099.492, 14860.00
1100.591, 14812.00
1101.689, 14669.00
1102.787, 14652.00
1103.885, 14637.00
1104.983, 14562.00
1106.081, 14637.00
1107.178, 14514.00
1108.275, 14579.00
1109.373, 14353.00
1110.470, 14422.00
1111.566, 14387.00
1112.663, 14353.00
1113.760, 14468.00
1114.856, 14397.00
1115.952, 14269.00
1117.048, 14259.00
1118.144, 14161.00
1119.240, 14258.00
1120.335, 14154.08
1121.431, 13953.00
1122.526, 14082.00
1123.621, 13991.00
1124.716, 14063.00
1125.810, 13858.00
1126.905, 13998.00
1127.999, 13883.00
1129.094, 13904.00
1130.188, 13840.00
1131.282, 13850.00
1132.375, 13721.00
1133.469, 13759.00
1134.562, 13813.00
1135.656, 13807.00
1136.749, 13608.00
1137.842, 13644.00
1138.935, 13609.00
1140.027, 13574.00
1141.120, 13581.00
1142.212, 13540.00
1143.304, 13536.60
1144.396, 13543.00
1145.488, 13509.00
1146.579, 13484.00
1147.671, 13446.00
1148.762, 13337.00
1149.853, 13420.00
1150.944, 13328.00
1152.035, 13398.00
1153.126, 13536.00
1154.216, 13454.00
1155.307, 13408.00
1156.397, 13281.00
1157.487, 13202.00
1158.577, 13259.00
1159.667, 13350.00
1160.756, 13271.00
1161.846, 13406.00
1162.935, 13204.00
1164.024, 13118.00
1165.113, 13217.00
1166.201, 13154.00
1167.290, 13126.00
1168.378, 13098.00
1169.467, 13207.00
1170.555, 13240.00
1171.643, 12970.00
1172.730, 13288.00
1173.818, 13060.00
1174.905, 13165.00
1175.993, 13287.00
1177.080, 13213.00
1178.167, 13149.00
1179.254, 13218.00
1180.340, 13346.00
1181.427, 13152.00
1182.513, 13252.00
1183.599, 13076.00
1184.685, 13220.00
1185.771, 13244.00
1186.856, 13212.00
1187.942, 13078.00
1189.027, 13328.00
1190.112, 13174.00
1191.197, 13194.00
1192.282, 13206.00
1193.367, 13209.00
1194.451, 13236.00
1195.536, 13038.00
1196.620, 13012.00
1197.704, 13153.00
1198.788, 13153.00
1199.872, 13293.00
1200.955, 13265.00
1202.039, 13181.00
1203.122, 13164.00
1204.205, 13185.01
1205.288, 13190.00
1206.370, 13271.00
1207.453, 13217.00
1208.535, 13263.00
1209.618, 13191.00
1210.700, 13134.00
1211.782, 13163.00
1212.863, 13049.00
1213.945, 13273.00
1215.026, 13131.00
1216.108, 13215.00
1217.189, 13398.00
1218.270, 13286.00
1219.351, 13166.00
1220.431, 13269.00
1221.512, 13286.00
1222.592, 13407.00
1223.672, 13357.00
1224.752, 13310.00
1225.832, 13300.00
1226.911, 13206.00
1227.991, 13337.00
1229.070, 13240.00
1230.149, 13286.00
1231.228, 13483.00
1232.307, 13411.00
1233.386, 13458.00
1234.464, 13305.00
1235.543, 13242.00
1236.621, 13398.00
1237.699, 13358.00
1238.777, 13506.00
1239.855, 13460.00
1240.932, 13346.00
1242.009, 13461.00
1243.087, 13467.00
1244.164, 13312.00
1245.241, 13477.00
1246.317, 13410.00
1247.394, 13380.00
1248.470, 13368.00
1249.546, 13368.00
1250.623, 13428.00
1251.698, 13335.00
1252.774, 13537.00
1253.850, 13551.00
1254.925, 13493.00
1256.000, 13350.00
1257.076, 13538.00
1258.150, 13303.00
1259.225, 13463.00
1260.300, 13448.00
1261.374, 13575.00
1262.449, 13531.00
1263.523, 13526.00
1264.597, 13505.00
1265.670, 13454.11
1266.744, 13531.00
1267.818, 13410.00
1268.891, 13408.00
1269.964, 13508.00
1271.037, 13444.00
1272.110, 13343.00
1273.183, 13448.00
1274.255, 13564.00
1275.327, 13387.00
1276.400, 13447.00
1277.472, 13553.00
1278.543, 13524.00
1279.615, 13602.00
1280.687, 13619.29
1281.758, 13471.00
1282.829, 13645.00
1283.900, 13676.00
1284.971, 13669.00
1286.042, 13421.00
1287.112, 13578.00
1288.183, 13644.00
1289.253, 13554.00
1290.323, 13677.00
1291.393, 13488.00
1292.463, 13654.00
1293.532, 13675.00
1294.602, 13647.00
1295.671, 13452.00
1296.740, 13546.00
1297.809, 13522.00
1298.878, 13562.00
1299.946, 13600.00
1301.015, 13713.00
1302.083, 13621.00
1303.151, 13721.00
1304.219, 13523.00
1305.287, 13615.00
1306.354, 13498.00
1307.422, 13681.00
1308.489, 13732.00
1309.556, 13589.00
1310.623, 13711.00
1311.690, 13495.00
1312.757, 13613.00
1313.823, 13675.00
1314.890, 13546.00
1315.956, 13643.00
1317.022, 13773.00
1318.088, 13771.00
1319.153, 13836.00
1320.219, 13712.00
1321.284, 13605.00
1322.349, 13457.00
1323.414, 13542.00
1324.479, 13537.00
1325.544, 13680.00
1326.608, 13596.00
1327.673, 13618.00
1328.737, 13734.00
1329.801, 13718.00
1330.865, 13494.00
1331.929, 13666.00
1332.992, 13599.00
1334.056, 13599.00
1335.119, 13673.00
1336.182, 13533.00
1337.245, 13729.00
1338.308, 13746.00
1339.370, 13599.00
1340.433, 13562.00
1341.495, 13652.00
1342.557, 13667.00
1343.619, 13701.54
1344.681, 13719.00
1345.742, 13773.00
1346.804, 13715.00
1347.865, 13715.00
1348.926, 13722.00
1349.987, 13650.00
1351.048, 13681.00
1352.108, 13671.00
1353.169, 13629.00
1354.229, 13655.00
1355.289, 13823.00
1356.349, 13741.00
1357.409, 13756.00
1358.469, 13710.00
1359.528, 13680.00
1360.588, 13749.00
1361.647, 13799.00
1362.706, 13770.00
1363.765, 13657.00
1364.823, 13856.00
1365.882, 13667.00
1366.940, 13752.00
1367.998, 13798.00
1369.056, 13735.00
1370.114, 13851.00
1371.172, 13635.00
1372.229, 13724.00
1373.287, 13746.00
1374.344, 13729.00
1375.401, 13836.00
1376.458, 13760.00
1377.515, 13806.00
1378.571, 13975.00
1379.628, 13819.00
1380.684, 13748.00
1381.740, 13786.00
1382.796, 13888.00
1383.852, 13821.09
1384.907, 13835.00
1385.963, 13755.00
1387.018, 13785.00
1388.073, 13701.00
1389.128, 13923.00
1390.183, 13784.00
1391.237, 13804.00
1392.292, 13806.00
1393.346, 13775.00
1394.400, 13942.00
1395.454, 13947.00
1396.508, 13877.00
1397.562, 13732.00
1398.615, 13883.00
1399.668, 13821.00
1400.722, 13881.00
1401.775, 13797.00
1402.827, 13827.00
1403.880, 13873.00
1404.933, 13879.00
1405.985, 13944.00
1407.037, 14003.00
1408.089, 13961.00
1409.141, 14033.00
1410.193, 13942.00
1411.244, 13930.00
1412.295, 13951.00
1413.347, 13937.00
1414.398, 13985.00
1415.449, 14021.00
1416.499, 14105.00
1417.550, 13830.00
1418.600, 13976.00
1419.650, 13893.00
1420.700, 14069.00
1421.750, 14089.00
1422.800, 14092.00
1423.850, 14062.00
1424.899, 13978.00
1425.948, 14125.00
1426.997, 13973.00
1428.046, 14080.00
1429.095, 14123.00
1430.144, 14093.00
1431.192, 14232.00
1432.240, 14247.00
1433.288, 14129.00
1434.336, 14014.00
1435.384, 14132.00
1436.432, 14169.00
1437.479, 14197.00
1438.526, 14229.00
1439.574, 14229.62
1440.621, 14210.00
1441.667, 14207.00
1442.714, 14215.00
1443.760, 14175.00
1444.807, 14213.00
1445.853, 14253.00
1446.899, 14234.87
1447.945, 14271.00
1448.990, 14266.00
1450.036, 14235.00
1451.081, 14308.00
1452.126, 14348.00
1453.171, 14269.00
1454.216, 14418.00
1455.261, 14236.00
1456.305, 14368.00
1457.350, 14190.00
1458.394, 14165.00
1459.438, 14428.00
1460.482, 14297.00
1461.526, 14253.00
1462.569, 14393.00
1463.612, 14215.00
1464.656, 14233.00
1465.699, 14428.00
1466.742, 14370.00
1467.784, 14317.00
1468.827, 14290.00
1469.869, 14260.00
1470.912, 14242.00
1471.954, 14166.00
1472.996, 14282.00
1474.037, 14241.45
1475.079, 14293.00
1476.120, 14259.00
1477.162, 14330.00
1478.203, 14314.00
1479.244, 14255.00
1480.284, 14410.00
1481.325, 14287.00
1482.365, 14325.00
1483.406, 14447.00
1484.446, 14390.00
1485.486, 14314.00
1486.526, 14251.00
1487.565, 14451.00
1488.605, 14291.00
1489.644, 14325.00
1490.683, 14355.00
1491.722, 14250.00
1492.761, 14284.00
1493.800, 14278.73
1494.838, 14391.00
1495.876, 14300.00
1496.915, 14301.00
1497.953, 14297.00
1498.990, 14273.30
1500.028, 14224.00
1501.066, 14278.00
1502.103, 14258.00
1503.140, 14260.00
1504.177, 14343.00
1505.214, 14185.00
1506.251, 14309.00
1507.287, 14318.00
1508.324, 14259.00
1509.360, 14343.00
1510.396, 14356.00
1511.432, 14199.00
1512.468, 14262.93
1513.503, 14341.00
1514.538, 14181.00
1515.574, 14331.00
1516.609, 14198.00
1517.644, 14179.00
1518.678, 14086.00
1519.713, 14118.93
1520.747, 14186.95
1521.782, 14238.00
1522.816, 14349.00
1523.850, 14454.00
1524.883, 14409.00
1525.917, 14353.00
1526.951, 14486.00
1527.984, 14331.00
1529.017, 14298.00
1530.050, 14345.00
1531.083, 14353.00
1532.115, 14355.00
1533.148, 14460.00
1534.180, 14287.00
1535.212, 14301.00
1536.244, 14301.00
1537.276, 14432.00
1538.308, 14147.00
1539.339, 14430.00
1540.370, 14397.00
1541.402, 14274.00
1542.433, 14381.00
1543.463, 14363.00
1544.494, 14370.00
1545.525, 14316.00
1546.555, 14344.04
1547.585, 14333.00
##END=



