##NAMES=Actinolite
##RRUFFID=R050336
##IDEAL CHEMISTRY=Ca_2_(Mg_4.5-2.5_Fe^2+^_0.5-2.5_)Si_8_O_22_(OH)_2_
##LOCALITY=Kragerø, Norway
##OWNER=RRUFF
##SOURCE=California Institute of Technology
##DESCRIPTION=Dark green prismatic fragment
##STATUS=The identification of this mineral has been confirmed by X-ray diffraction and chemical analysis
##URL=rruff.info/R050336
##MEASURED CHEMISTRY=([box]_0.62_Na_0.34_K_0.04_)(Ca_1.60_Na_0.40_)_Σ=2_(Mg_3.90_Fe^2+^_0.70_Al_0.20_Ti_0.10_Fe^3+^_0.10_)_Σ=5_(Si_7.52_Al_0.48_)_Σ=8_O_22_((OH)_0.97_F_0.03_)_2_
##PIN_ID=M00198
##ORIENTATION=Laser parallel to c* (0 0 1). Fiducial mark perpendicular to laser is parallel to a [1 0 0]
146.0460, 4122.000
147.2750, 4365.000
148.5030, 4434.000
149.7320, 4663.000
150.9600, 5106.000
152.1880, 5242.000
153.4160, 5468.000
154.6440, 5682.000
155.8720, 5869.000
157.0990, 6145.000
158.3270, 6327.000
159.5540, 6338.000
160.7810, 6318.000
162.0080, 6249.000
163.2350, 6224.000
164.4610, 6100.000
165.6880, 6016.000
166.9140, 5868.000
168.1400, 5905.000
169.3660, 6133.000
170.5920, 6252.000
171.8180, 6489.000
173.0430, 6511.000
174.2690, 6625.000
175.4940, 6613.000
176.7190, 6667.000
177.9440, 6732.000
179.1680, 6461.000
180.3930, 6279.000
181.6170, 6084.000
182.8420, 5944.000
184.0660, 5609.000
185.2900, 5407.000
186.5140, 5306.000
187.7370, 5204.000
188.9610, 5114.050
190.1840, 5104.000
191.4070, 5018.000
192.6300, 5011.000
193.8530, 4998.000
195.0760, 5002.000
196.2980, 4996.000
197.5210, 5076.000
198.7430, 5156.000
199.9650, 5148.000
201.1870, 5317.000
202.4090, 5462.000
203.6310, 5433.000
204.8520, 5581.000
206.0730, 5653.000
207.2950, 6013.000
208.5160, 6265.000
209.7360, 6589.000
210.9570, 6933.000
212.1780, 7301.000
213.3980, 7814.000
214.6180, 8264.000
215.8380, 8721.000
217.0580, 8985.000
218.2780, 9410.000
219.4980, 9664.000
220.7170, 9853.000
221.9360, 9799.000
223.1560, 9672.000
224.3750, 9468.000
225.5930, 9174.000
226.8120, 8740.000
228.0310, 8442.000
229.2490, 7921.000
230.4670, 7565.000
231.6850, 7121.000
232.9030, 6860.000
234.1210, 6577.000
235.3380, 6180.000
236.5560, 5896.000
237.7730, 5646.000
238.9900, 5447.750
240.2070, 5433.000
241.4240, 5248.000
242.6410, 5185.000
243.8570, 5251.000
245.0730, 5148.000
246.2900, 5056.000
247.5060, 5068.000
248.7210, 5072.000
249.9370, 5035.000
251.1530, 5093.000
252.3680, 4980.000
253.5830, 4982.919
254.7980, 4975.223
256.0130, 4945.379
257.2280, 4894.579
258.4430, 4760.054
259.6570, 4733.688
260.8720, 4663.949
262.0860, 4592.482
263.3000, 4581.335
264.5130, 4459.082
265.7270, 4446.978
266.9410, 4438.000
268.1540, 4331.000
269.3670, 4399.000
270.5800, 4374.000
271.7930, 4357.000
273.0060, 4280.000
274.2190, 4216.000
275.4310, 4355.000
276.6430, 4280.000
277.8550, 4287.000
279.0670, 4356.000
280.2790, 4278.000
281.4910, 4402.000
282.7020, 4329.000
283.9140, 4402.000
285.1250, 4505.000
286.3360, 4379.000
287.5470, 4428.000
288.7570, 4497.000
289.9680, 4570.000
291.1780, 4619.000
292.3880, 4678.000
293.5990, 4717.000
294.8080, 4752.000
296.0180, 4736.000
297.2280, 4735.000
298.4370, 4851.000
299.6470, 4738.000
300.8560, 4742.000
302.0650, 4677.000
303.2740, 4754.000
304.4820, 4717.000
305.6910, 4689.000
306.8990, 4702.000
308.1070, 4648.000
309.3150, 4668.000
310.5230, 4652.000
311.7310, 4602.000
312.9390, 4685.000
314.1460, 4602.000
315.3530, 4578.000
316.5600, 4605.000
317.7670, 4682.000
318.9740, 4666.000
320.1810, 4719.000
321.3870, 4759.000
322.5930, 4635.000
323.8000, 4743.000
325.0060, 4803.000
326.2110, 4725.000
327.4170, 4872.000
328.6230, 4865.000
329.8280, 4872.000
331.0330, 4914.000
332.2380, 4888.000
333.4430, 5015.000
334.6480, 4925.000
335.8530, 4953.000
337.0570, 5043.000
338.2610, 4975.000
339.4650, 5125.000
340.6690, 5184.000
341.8730, 5084.000
343.0770, 5227.000
344.2800, 5263.000
345.4840, 5382.000
346.6870, 5356.000
347.8900, 5361.000
349.0930, 5510.000
350.2950, 5466.000
351.4980, 5541.000
352.7000, 5503.000
353.9030, 5511.000
355.1050, 5652.000
356.3070, 5658.000
357.5080, 5728.000
358.7100, 5830.000
359.9110, 5843.000
361.1130, 5962.522
362.3140, 6099.196
363.5150, 6184.000
364.7160, 6343.000
365.9160, 6507.000
367.1170, 6457.000
368.3170, 6562.000
369.5170, 6473.000
370.7170, 6442.000
371.9170, 6347.000
373.1170, 6257.000
374.3170, 6031.000
375.5160, 5953.000
376.7150, 5855.000
377.9140, 5770.000
379.1130, 5702.000
380.3120, 5565.000
381.5110, 5558.000
382.7090, 5570.000
383.9070, 5578.000
385.1060, 5643.000
386.3040, 5568.000
387.5010, 5665.000
388.6990, 5634.000
389.8970, 5572.000
391.0940, 5669.000
392.2910, 5660.000
393.4880, 5568.000
394.6850, 5400.000
395.8820, 5298.000
397.0780, 5144.000
398.2750, 4998.000
399.4710, 4950.000
400.6670, 4914.000
401.8630, 4949.000
403.0590, 4855.000
404.2540, 4850.000
405.4500, 4959.000
406.6450, 4873.000
407.8400, 4885.000
409.0350, 4958.000
410.2300, 4954.000
411.4250, 5038.000
412.6190, 5014.000
413.8140, 5108.000
415.0080, 5039.000
416.2020, 5015.000
417.3960, 4993.000
418.5900, 4965.000
419.7830, 4852.000
420.9770, 4866.000
422.1700, 4719.000
423.3630, 4663.000
424.5560, 4667.000
425.7490, 4675.000
426.9410, 4687.000
428.1340, 4658.000
429.3260, 4648.000
430.5180, 4646.000
431.7100, 4633.000
432.9020, 4620.000
434.0940, 4613.000
435.2850, 4540.000
436.4770, 4527.000
437.6680, 4451.000
438.8590, 4435.313
440.0500, 4439.000
441.2410, 4375.000
442.4310, 4397.000
443.6220, 4324.000
444.8120, 4309.000
446.0020, 4336.000
447.1920, 4333.000
448.3820, 4220.000
449.5710, 4277.000
450.7610, 4275.000
451.9500, 4181.000
453.1390, 4256.000
454.3280, 4298.000
455.5170, 4271.000
456.7060, 4276.000
457.8940, 4222.000
459.0830, 4198.000
460.2710, 4278.000
461.4590, 4227.000
462.6470, 4280.000
463.8350, 4234.000
465.0220, 4199.000
466.2100, 4234.000
467.3970, 4311.000
468.5840, 4240.000
469.7710, 4343.000
470.9580, 4238.000
472.1440, 4224.000
473.3310, 4235.000
474.5170, 4245.000
475.7030, 4266.000
476.8890, 4274.000
478.0750, 4221.000
479.2610, 4231.000
480.4460, 4193.000
481.6320, 4259.000
482.8170, 4303.000
484.0020, 4364.000
485.1870, 4280.000
486.3710, 4260.000
487.5560, 4375.000
488.7400, 4268.000
489.9250, 4315.000
491.1090, 4342.000
492.2930, 4342.000
493.4760, 4331.000
494.6600, 4398.000
495.8440, 4380.000
497.0270, 4568.000
498.2100, 4521.000
499.3930, 4573.000
500.5760, 4559.000
501.7580, 4641.000
502.9410, 4692.000
504.1230, 4730.000
505.3060, 4713.000
506.4880, 4797.000
507.6690, 4892.000
508.8510, 5040.000
510.0330, 4997.000
511.2140, 5118.000
512.3950, 5172.000
513.5760, 5139.000
514.7570, 5233.000
515.9380, 5170.000
517.1190, 5215.000
518.2990, 5178.000
519.4800, 5324.000
520.6600, 5278.000
521.8400, 5303.000
523.0190, 5270.000
524.1990, 5355.000
525.3790, 5316.000
526.5580, 5347.000
527.7370, 5333.000
528.9160, 5322.000
530.0950, 5276.000
531.2740, 5234.000
532.4520, 5152.000
533.6310, 5087.000
534.8090, 5097.000
535.9870, 5071.000
537.1650, 5000.000
538.3430, 5035.000
539.5200, 4947.000
540.6980, 4886.000
541.8750, 4936.000
543.0520, 4876.000
544.2290, 4866.000
545.4060, 4791.000
546.5820, 4801.000
547.7590, 4767.000
548.9350, 4772.000
550.1110, 4744.000
551.2870, 4740.000
552.4630, 4664.000
553.6390, 4740.000
554.8140, 4627.000
555.9900, 4664.000
557.1650, 4638.000
558.3400, 4565.000
559.5150, 4606.000
560.6900, 4653.000
561.8640, 4588.000
563.0390, 4542.000
564.2130, 4567.000
565.3870, 4606.000
566.5610, 4563.000
567.7350, 4565.949
568.9080, 4526.000
570.0820, 4521.000
571.2550, 4492.000
572.4280, 4490.000
573.6010, 4495.000
574.7740, 4450.000
575.9470, 4369.000
577.1190, 4463.000
578.2920, 4444.000
579.4640, 4339.000
580.6360, 4323.000
581.8080, 4430.000
582.9790, 4392.000
584.1510, 4347.000
585.3220, 4339.000
586.4940, 4293.000
587.6650, 4217.000
588.8360, 4283.000
590.0060, 4218.000
591.1770, 4158.000
592.3470, 4203.000
593.5180, 4053.000
594.6880, 4197.000
595.8580, 4160.000
597.0280, 4057.000
598.1970, 4167.000
599.3670, 4121.000
600.5360, 4181.000
601.7050, 4117.000
602.8740, 4211.000
604.0430, 4150.000
605.2120, 4202.000
606.3800, 4223.000
607.5490, 4245.000
608.7170, 4191.000
609.8850, 4240.000
611.0530, 4214.000
612.2210, 4254.000
613.3880, 4226.000
614.5560, 4269.000
615.7230, 4366.000
616.8900, 4293.000
618.0570, 4300.000
619.2240, 4422.000
620.3900, 4391.000
621.5570, 4343.000
622.7230, 4474.000
623.8890, 4468.000
625.0550, 4492.000
626.2210, 4568.000
627.3870, 4584.738
628.5520, 4650.619
629.7180, 4686.000
630.8830, 4761.000
632.0480, 4838.000
633.2130, 4874.000
634.3770, 4937.000
635.5420, 5002.000
636.7060, 5063.000
637.8710, 5107.000
639.0350, 5150.000
640.1990, 5221.339
641.3620, 5411.000
642.5260, 5423.000
643.6890, 5561.000
644.8530, 5805.000
646.0160, 5854.000
647.1790, 6078.000
648.3410, 6234.000
649.5040, 6245.000
650.6670, 6434.000
651.8290, 6637.000
652.9910, 6902.000
654.1530, 7246.000
655.3150, 7457.000
656.4770, 7757.000
657.6380, 8312.000
658.7990, 8752.000
659.9610, 9349.000
661.1220, 10133.00
662.2830, 11094.00
663.4430, 11850.00
664.6040, 12960.00
665.7640, 14100.00
666.9240, 15114.00
668.0850, 16002.00
669.2440, 16668.00
670.4040, 17042.00
671.5640, 17030.00
672.7230, 16603.00
673.8830, 15816.00
675.0420, 14750.00
676.2010, 13391.00
677.3590, 12146.00
678.5180, 11007.00
679.6770, 10033.00
680.8350, 9190.000
681.9930, 8562.000
683.1510, 8085.000
684.3090, 7572.000
685.4670, 7296.000
686.6240, 7026.000
687.7810, 6579.000
688.9390, 6591.000
690.0960, 6354.000
691.2530, 6108.000
692.4090, 6003.000
693.5660, 5787.000
694.7220, 5741.000
695.8790, 5530.000
697.0350, 5504.000
698.1910, 5390.000
699.3460, 5293.000
700.5020, 5298.000
701.6570, 5270.000
702.8130, 5150.000
703.9680, 5106.000
705.1230, 5015.000
706.2780, 5149.000
707.4320, 5088.000
708.5870, 5109.000
709.7410, 5075.000
710.8950, 5019.000
712.0490, 5100.000
713.2030, 5075.000
714.3570, 5068.000
715.5100, 5140.000
716.6640, 5129.000
717.8170, 5118.000
718.9700, 5074.000
720.1230, 5139.000
721.2760, 5103.000
722.4280, 5158.000
723.5810, 5168.000
724.7330, 5100.000
725.8850, 5158.000
727.0370, 5222.000
728.1890, 5193.000
729.3400, 5195.000
730.4920, 5255.000
731.6430, 5187.000
732.7940, 5225.000
733.9450, 5247.000
735.0960, 5353.000
736.2460, 5305.000
737.3970, 5241.000
738.5470, 5354.000
739.6970, 5299.000
740.8470, 5294.000
741.9970, 5313.000
743.1470, 5321.000
744.2970, 5234.000
745.4460, 5240.000
746.5950, 5127.000
747.7440, 5154.000
748.8930, 5155.000
750.0420, 5137.000
751.1900, 5112.366
752.3390, 5109.000
753.4870, 5022.000
754.6350, 4958.000
755.7830, 4904.193
756.9310, 4960.000
758.0780, 4873.000
759.2260, 4906.000
760.3730, 4968.000
761.5200, 4907.000
762.6670, 4905.000
763.8140, 4915.877
764.9610, 4882.836
766.1070, 4879.000
767.2530, 4902.000
768.4000, 4803.000
769.5460, 4900.000
770.6910, 4818.000
771.8370, 4764.000
772.9830, 4856.000
774.1280, 4877.000
775.2730, 4885.000
776.4180, 4871.000
777.5630, 4885.000
778.7080, 4835.000
779.8520, 4911.000
780.9970, 4826.000
782.1410, 4877.000
783.2850, 4904.000
784.4290, 4859.000
785.5730, 4913.000
786.7160, 4911.000
787.8600, 4974.000
789.0030, 4977.000
790.1460, 4946.000
791.2890, 4870.000
792.4320, 4885.000
793.5750, 4876.000
794.7170, 4830.000
795.8590, 4821.000
797.0020, 4878.000
798.1440, 4882.000
799.2850, 4930.000
800.4270, 4927.770
801.5690, 4918.000
802.7100, 4889.000
803.8510, 4903.000
804.9920, 4821.000
806.1330, 4927.000
807.2740, 4905.000
808.4140, 4857.000
809.5550, 4815.000
810.6950, 4793.000
811.8350, 4815.000
812.9750, 4768.000
814.1150, 4878.000
815.2540, 4882.000
816.3940, 4856.000
817.5330, 4896.000
818.6720, 4885.000
819.8110, 4816.000
820.9500, 4896.000
822.0880, 4868.000
823.2270, 4859.000
824.3650, 4871.000
825.5030, 4857.000
826.6410, 4938.000
827.7790, 4849.000
828.9170, 4964.000
830.0540, 4944.000
831.1920, 4889.000
832.3290, 4938.000
833.4660, 4998.000
834.6030, 4909.000
835.7390, 4842.000
836.8760, 4894.000
838.0120, 4909.000
839.1480, 4954.000
840.2840, 4990.000
841.4200, 5015.000
842.5560, 4944.000
843.6920, 4966.000
844.8270, 4950.000
845.9620, 4886.000
847.0970, 5028.000
848.2320, 4982.000
849.3670, 4943.000
850.5020, 4978.000
851.6360, 5055.000
852.7700, 4874.000
853.9040, 4964.000
855.0380, 4887.000
856.1720, 5016.000
857.3060, 4965.000
858.4390, 5017.000
859.5730, 4966.000
860.7060, 5098.000
861.8390, 5025.000
862.9720, 5105.000
864.1040, 5020.000
865.2370, 5065.000
866.3690, 5069.000
867.5010, 5037.000
868.6330, 5088.000
869.7650, 5138.000
870.8970, 5130.000
872.0290, 5107.000
873.1600, 5114.000
874.2910, 5050.000
875.4220, 5179.000
876.5530, 5221.000
877.6840, 5185.000
878.8140, 5182.000
879.9450, 5214.000
881.0750, 5234.000
882.2050, 5294.000
883.3350, 5239.000
884.4650, 5368.000
885.5950, 5368.000
886.7240, 5371.000
887.8530, 5458.000
888.9820, 5409.000
890.1110, 5459.000
891.2400, 5565.000
892.3690, 5627.000
893.4970, 5597.000
894.6260, 5599.000
895.7540, 5567.000
896.8820, 5746.000
898.0100, 5803.000
899.1370, 5823.000
900.2650, 5853.000
901.3920, 5833.000
902.5200, 5807.000
903.6470, 5828.000
904.7730, 5859.000
905.9000, 5889.000
907.0270, 5991.000
908.1530, 5948.000
909.2790, 6069.000
910.4050, 6067.000
911.5310, 6091.000
912.6570, 5994.000
913.7830, 6052.000
914.9080, 6117.000
916.0330, 6111.000
917.1580, 6183.557
918.2830, 6334.000
919.4080, 6309.000
920.5330, 6465.000
921.6570, 6593.000
922.7820, 6653.000
923.9060, 6744.000
925.0300, 6784.000
926.1540, 6862.000
927.2770, 6824.000
928.4010, 6809.000
929.5240, 6826.000
930.6470, 6823.000
931.7700, 6599.000
932.8930, 6595.000
934.0160, 6506.000
935.1380, 6470.000
936.2610, 6402.000
937.3830, 6321.649
938.5050, 6363.162
939.6270, 6389.911
940.7490, 6402.688
941.8700, 6359.642
942.9910, 6388.671
944.1130, 6388.823
945.2340, 6387.783
946.3550, 6426.957
947.4750, 6392.022
948.5960, 6430.558
949.7160, 6429.000
950.8370, 6445.000
951.9570, 6471.000
953.0770, 6467.753
954.1970, 6536.000
955.3160, 6424.596
956.4360, 6486.406
957.5550, 6526.060
958.6740, 6544.756
959.7930, 6479.728
960.9120, 6522.812
962.0310, 6522.569
963.1490, 6520.540
964.2670, 6578.831
965.3860, 6525.979
966.5040, 6583.313
967.6210, 6596.648
968.7390, 6630.126
969.8570, 6684.000
970.9740, 6671.000
972.0910, 6641.000
973.2080, 6601.000
974.3250, 6549.000
975.4420, 6537.000
976.5580, 6579.000
977.6750, 6515.000
978.7910, 6482.000
979.9070, 6508.000
981.0230, 6417.000
982.1390, 6451.000
983.2540, 6329.000
984.3700, 6204.000
985.4850, 6260.000
986.6000, 6278.000
987.7150, 6363.000
988.8300, 6307.000
989.9450, 6352.000
991.0590, 6320.000
992.1730, 6382.000
993.2880, 6301.000
994.4010, 6351.000
995.5150, 6332.000
996.6290, 6466.000
997.7420, 6375.000
998.8560, 6510.000
999.9690, 6511.000
1001.082, 6738.000
1002.195, 6674.000
1003.307, 6753.000
1004.420, 6716.000
1005.532, 6759.000
1006.645, 6724.000
1007.757, 6754.000
1008.868, 6826.000
1009.980, 6831.000
1011.092, 6763.000
1012.203, 6968.000
1013.314, 6952.000
1014.425, 7121.000
1015.536, 7073.000
1016.647, 7141.000
1017.758, 7159.000
1018.868, 7189.000
1019.978, 7180.000
1021.088, 7233.000
1022.198, 7229.000
1023.308, 7343.000
1024.418, 7387.000
1025.527, 7539.000
1026.637, 7486.000
1027.746, 7500.000
1028.855, 7463.000
1029.963, 7588.000
1031.072, 7547.000
1032.181, 7552.000
1033.289, 7579.000
1034.397, 7383.000
1035.505, 7379.000
1036.613, 7441.000
1037.721, 7492.000
1038.828, 7557.226
1039.935, 7614.000
1041.043, 7744.000
1042.150, 7846.000
1043.257, 7983.000
1044.363, 8151.000
1045.470, 8351.000
1046.576, 8503.076
1047.682, 8712.000
1048.788, 8846.000
1049.894, 9147.000
1051.000, 9326.000
1052.106, 9648.000
1053.211, 9850.000
1054.316, 9874.000
1055.421, 10045.00
1056.526, 9981.000
1057.631, 10026.00
1058.736, 9862.000
1059.840, 9687.000
1060.944, 9507.000
1062.049, 9314.000
1063.153, 8969.000
1064.256, 8742.000
1065.360, 8465.000
1066.463, 8194.000
1067.567, 7985.000
1068.670, 7687.000
1069.773, 7553.000
1070.876, 7303.000
1071.978, 7134.000
1073.081, 7095.000
1074.183, 6843.000
1075.285, 6798.000
1076.387, 6650.000
1077.489, 6447.000
1078.591, 6530.000
1079.692, 6391.000
1080.794, 6248.000
1081.895, 6259.000
1082.996, 6320.000
1084.097, 6255.000
1085.198, 6236.000
1086.298, 6132.000
1087.399, 6061.000
1088.499, 6037.000
1089.599, 6027.000
1090.699, 5986.000
1091.799, 6008.000
1092.898, 5910.000
1093.998, 5934.000
1095.097, 5970.000
1096.196, 5942.000
1097.295, 5857.000
1098.394, 5961.000
1099.492, 5888.000
1100.591, 5759.000
1101.689, 5801.000
1102.787, 5879.000
1103.885, 5763.000
1104.983, 5797.000
1106.081, 5792.000
1107.178, 5875.000
1108.275, 5890.000
1109.373, 5825.000
1110.470, 5864.000
1111.566, 5852.000
1112.663, 5854.000
1113.760, 5843.000
1114.856, 5771.000
1115.952, 5752.000
1117.048, 5676.000
1118.144, 5705.000
1119.240, 5712.000
1120.335, 5563.000
1121.431, 5710.000
1122.526, 5758.000
1123.621, 5678.000
1124.716, 5647.000
1125.810, 5694.000
1126.905, 5687.000
1127.999, 5692.000
1129.094, 5705.775
1130.188, 5718.000
1131.282, 5677.000
1132.375, 5623.000
1133.469, 5530.000
1134.562, 5577.000
1135.656, 5646.000
1136.749, 5579.000
1137.842, 5591.000
1138.935, 5620.000
1140.027, 5608.000
1141.120, 5520.000
1142.212, 5564.835
1143.304, 5612.432
1144.396, 5637.881
1145.488, 5642.373
1146.579, 5563.143
1147.671, 5592.024
1148.762, 5577.581
1149.853, 5561.360
1150.944, 5605.461
1152.035, 5538.408
1153.126, 5581.552
1154.216, 5580.710
1155.307, 5599.998
1156.397, 5575.694
1157.487, 5564.854
1158.577, 5597.625
1159.667, 5606.248
1160.756, 5600.000
1161.846, 5603.328
1162.935, 5585.281
1164.024, 5587.000
1165.113, 5575.480
1166.201, 5527.000
1167.290, 5552.000
1168.378, 5563.000
1169.467, 5547.772
1170.555, 5499.000
1171.643, 5537.000
1172.730, 5501.000
1173.818, 5527.000
1174.905, 5527.000
1175.993, 5615.000
1177.080, 5598.000
1178.167, 5547.000
1179.254, 5513.000
1180.340, 5579.000
1181.427, 5569.000
1182.513, 5665.000
1183.599, 5644.000
1184.685, 5605.000
1185.771, 5607.000
1186.856, 5542.000
1187.942, 5603.000
1189.027, 5722.000
1190.112, 5589.000
1191.197, 5671.000
1192.282, 5654.000
1193.367, 5697.000
1194.451, 5685.220
1195.536, 5631.000
1196.620, 5615.000
1197.704, 5636.000
1198.788, 5548.000
1199.872, 5557.000
1200.955, 5661.000
1202.039, 5580.000
1203.122, 5575.000
1204.205, 5571.000
1205.288, 5491.000
1206.370, 5583.000
1207.453, 5616.000
1208.535, 5669.000
1209.618, 5585.000
1210.700, 5647.000
1211.782, 5649.000
1212.863, 5624.000
1213.945, 5664.000
1215.026, 5717.000
1216.108, 5673.000
1217.189, 5772.000
1218.270, 5719.000
1219.351, 5786.000
1220.431, 5778.000
1221.512, 5800.000
1222.592, 5697.000
1223.672, 5716.000
1224.752, 5747.000
1225.832, 5724.000
1226.911, 5760.000
1227.991, 5709.000
1229.070, 5772.000
1230.149, 5711.000
1231.228, 5738.000
1232.307, 5680.000
1233.386, 5743.000
1234.464, 5790.000
1235.543, 5779.000
1236.621, 5803.000
1237.699, 5768.000
1238.777, 5695.000
1239.855, 5765.000
1240.932, 5758.000
1242.009, 5816.000
1243.087, 5849.000
1244.164, 5789.000
1245.241, 5726.000
1246.317, 5768.000
1247.394, 5772.000
1248.470, 5804.000
1249.546, 5789.000
1250.623, 5753.000
1251.698, 5767.000
1252.774, 5746.755
1253.850, 5724.000
1254.925, 5742.000
1256.000, 5838.000
1257.076, 5863.000
1258.150, 5723.000
1259.225, 5902.000
1260.300, 5885.000
1261.374, 5801.000
1262.449, 5874.000
1263.523, 5847.000
1264.597, 5815.000
1265.670, 5779.000
1266.744, 5849.000
1267.818, 5895.000
1268.891, 5856.000
1269.964, 5889.000
1271.037, 5856.000
1272.110, 5889.000
1273.183, 5870.000
1274.255, 5955.000
1275.327, 5961.000
1276.400, 5910.000
1277.472, 5850.000
1278.543, 5885.000
1279.615, 5973.000
1280.687, 5841.000
1281.758, 5932.000
1282.829, 6039.000
1283.900, 5897.000
1284.971, 6030.000
1286.042, 6088.000
1287.112, 6018.000
1288.183, 6071.000
1289.253, 5996.000
1290.323, 6040.000
1291.393, 6089.000
1292.463, 6109.000
1293.532, 6007.000
1294.602, 6030.000
1295.671, 6081.000
1296.740, 6081.000
1297.809, 6108.000
1298.878, 6138.000
1299.946, 6074.000
1301.015, 6042.000
1302.083, 6064.000
1303.151, 6042.000
1304.219, 6035.000
1305.287, 6044.000
1306.354, 6179.000
1307.422, 6210.000
1308.489, 6103.000
1309.556, 6113.000
1310.623, 6042.000
1311.690, 6043.000
1312.757, 6113.000
1313.823, 6142.000
1314.890, 6031.000
1315.956, 6181.000
1317.022, 6073.000
1318.088, 6153.000
1319.153, 6151.000
1320.219, 6178.000
1321.284, 6103.000
1322.349, 6141.000
1323.414, 6138.000
1324.479, 6137.000
1325.544, 6046.000
1326.608, 6041.000
1327.673, 6140.000
1328.737, 6219.000
1329.801, 6094.000
1330.865, 6071.000
1331.929, 6108.000
1332.992, 6076.000
1334.056, 6157.000
1335.119, 6173.000
1336.182, 6109.000
1337.245, 6122.000
1338.308, 6108.000
1339.370, 6157.000
1340.433, 6259.000
1341.495, 6158.000
1342.557, 6256.000
1343.619, 6104.000
1344.681, 6159.000
1345.742, 6117.000
1346.804, 6189.000
1347.865, 6146.000
1348.926, 6150.000
1349.987, 6183.000
1351.048, 6260.000
1352.108, 6232.000
1353.169, 6236.000
1354.229, 6149.000
1355.289, 6274.000
1356.349, 6168.000
1357.409, 6211.417
1358.469, 6233.644
1359.528, 6225.000
1360.588, 6260.000
1361.647, 6219.000
1362.706, 6212.000
1363.765, 6304.000
1364.823, 6193.000
1365.882, 6224.000
1366.940, 6268.000
1367.998, 6206.000
1369.056, 6199.000
1370.114, 6218.000
1371.172, 6227.000
1372.229, 6227.000
1373.287, 6233.553
1374.344, 6261.000
1375.401, 6253.000
1376.458, 6310.000
1377.515, 6368.000
1378.571, 6316.000
1379.628, 6331.000
1380.684, 6227.000
1381.740, 6291.000
1382.796, 6205.000
1383.852, 6182.000
1384.907, 6132.000
1385.963, 6159.918
1387.018, 6145.000
1388.073, 6262.000
1389.128, 6280.000
1390.183, 6353.000
1391.237, 6409.000
1392.292, 6347.000
1393.346, 6289.000
1394.400, 6233.000
1395.454, 6280.000
1396.508, 6288.000
1397.562, 6255.000
1398.615, 6258.000
1399.668, 6392.000
1400.722, 6295.000
1401.775, 6353.000
1402.827, 6267.000
1403.880, 6368.000
1404.933, 6356.000
1405.985, 6350.000
1407.037, 6439.000
1408.089, 6361.000
1409.141, 6258.000
1410.193, 6332.000
1411.244, 6329.000
1412.295, 6415.000
1413.347, 6373.000
1414.398, 6358.000
1415.449, 6452.000
1416.499, 6483.000
1417.550, 6412.000
1418.600, 6479.000
1419.650, 6330.000
1420.700, 6453.000
1421.750, 6444.000
1422.800, 6462.000
1423.850, 6372.000
1424.899, 6375.000
1425.948, 6481.000
1426.997, 6444.000
1428.046, 6458.000
1429.095, 6499.000
1430.144, 6520.000
1431.192, 6628.000
1432.240, 6601.000
1433.288, 6576.000
1434.336, 6563.000
1435.384, 6510.000
1436.432, 6634.000
1437.479, 6522.000
1438.526, 6630.000
1439.574, 6653.000
1440.621, 6646.000
1441.667, 6607.000
1442.714, 6630.000
1443.760, 6698.000
1444.807, 6627.000
1445.853, 6765.000
1446.899, 6708.000
1447.945, 6626.000
1448.990, 6686.000
1450.036, 6710.000
1451.081, 6695.000
1452.126, 6644.000
1453.171, 6765.000
1454.216, 6669.000
1455.261, 6645.000
1456.305, 6745.000
1457.350, 6729.000
1458.394, 6735.000
1459.438, 6670.000
1460.482, 6685.000
1461.526, 6732.000
1462.569, 6694.000
1463.612, 6576.000
1464.656, 6592.000
1465.699, 6650.000
1466.742, 6560.000
1467.784, 6747.000
1468.827, 6692.000
1469.869, 6764.000
1470.912, 6673.000
1471.954, 6747.000
1472.996, 6739.000
1474.037, 6636.000
1475.079, 6702.000
1476.120, 6626.000
1477.162, 6612.000
1478.203, 6648.000
1479.244, 6661.000
1480.284, 6723.000
1481.325, 6735.000
1482.365, 6696.000
1483.406, 6666.000
1484.446, 6712.000
1485.486, 6689.000
1486.526, 6616.000
1487.565, 6710.000
1488.605, 6589.000
1489.644, 6701.000
1490.683, 6589.000
1491.722, 6698.000
1492.761, 6684.000
1493.800, 6632.000
1494.838, 6833.000
1495.876, 6762.000
1496.915, 6801.000
1497.953, 6750.000
1498.990, 6789.000
1500.028, 6655.000
1501.066, 6728.000
1502.103, 6837.000
1503.140, 6650.000
1504.177, 6734.000
1505.214, 6737.000
1506.251, 6758.000
1507.287, 6724.000
1508.324, 6670.000
1509.360, 6743.000
1510.396, 6737.000
1511.432, 6813.000
1512.468, 6840.000
1513.503, 6876.000
1514.538, 6789.000
1515.574, 6789.000
1516.609, 6748.000
1517.644, 6785.000
1518.678, 6768.304
1519.713, 6700.000
1520.747, 6796.000
1521.782, 6793.000
1522.816, 6859.000
1523.850, 6780.000
1524.883, 6848.000
1525.917, 6874.000
1526.951, 6680.000
1527.984, 6868.000
1529.017, 6755.000
1530.050, 6821.000
1531.083, 6789.000
1532.115, 6864.000
1533.148, 6792.000
1534.180, 6861.000
1535.212, 6760.000
1536.244, 6837.000
1537.276, 6846.000
1538.308, 6817.000
1539.339, 6841.000
1540.370, 6846.632
1541.402, 6810.000
1542.433, 6869.000
1543.463, 6952.000
1544.494, 6944.000
1545.525, 6972.275
1546.555, 6961.953
1547.585, 6966.000
1548.615, 6915.000
1549.645, 6913.000
1550.675, 6909.000
1551.704, 6944.000
1552.734, 7103.000
1553.763, 7017.000
1554.792, 7048.000
1555.821, 6929.000
1556.849, 6981.000
1557.878, 6941.000
1558.906, 6940.000
1559.935, 6954.000
1560.963, 6996.000
1561.991, 7033.000
##END=



