##NAMES=Actinolite
##RRUFFID=R050336
##IDEAL CHEMISTRY=Ca_2_(Mg_4.5-2.5_Fe^2+^_0.5-2.5_)Si_8_O_22_(OH)_2_
##LOCALITY=Kragerø, Norway
##OWNER=RRUFF
##SOURCE=California Institute of Technology
##DESCRIPTION=Dark green prismatic fragment
##STATUS=The identification of this mineral has been confirmed by X-ray diffraction and chemical analysis
##URL=rruff.info/R050336
##MEASURED CHEMISTRY=([box]_0.62_Na_0.34_K_0.04_)(Ca_1.60_Na_0.40_)_Σ=2_(Mg_3.90_Fe^2+^_0.70_Al_0.20_Ti_0.10_Fe^3+^_0.10_)_Σ=5_(Si_7.52_Al_0.48_)_Σ=8_O_22_((OH)_0.97_F_0.03_)_2_
##PIN_ID=M00343
##ORIENTATION=Laser parallel to -a* (-1 0 0). Fiducial mark perpendicular to laser is parallel to b [0 1 0]
142.3590, 9080.000
143.5880, 9116.000
144.8170, 9180.000
146.0460, 9363.000
147.2750, 9682.000
148.5030, 9895.000
149.7320, 10283.00
150.9600, 10658.19
152.1880, 11388.00
153.4160, 11613.00
154.6440, 12107.00
155.8720, 12814.00
157.0990, 13037.00
158.3270, 13351.00
159.5540, 13664.00
160.7810, 13549.00
162.0080, 13610.00
163.2350, 13382.00
164.4610, 13047.00
165.6880, 12665.00
166.9140, 12478.00
168.1400, 12380.00
169.3660, 12496.00
170.5920, 12506.00
171.8180, 12709.00
173.0430, 12786.00
174.2690, 12863.00
175.4940, 13066.00
176.7190, 13007.00
177.9440, 12988.00
179.1680, 12815.00
180.3930, 12563.00
181.6170, 12346.00
182.8420, 12076.00
184.0660, 11965.00
185.2900, 11661.00
186.5140, 11591.00
187.7370, 11584.00
188.9610, 11453.00
190.1840, 11575.00
191.4070, 11380.00
192.6300, 11361.00
193.8530, 11457.00
195.0760, 11475.00
196.2980, 11578.00
197.5210, 11741.69
198.7430, 11724.00
199.9650, 12119.00
201.1870, 12363.00
202.4090, 12561.00
203.6310, 12640.00
204.8520, 12818.00
206.0730, 12922.00
207.2950, 13606.00
208.5160, 13934.00
209.7360, 14681.00
210.9570, 15569.00
212.1780, 16492.00
213.3980, 17419.00
214.6180, 18372.00
215.8380, 19400.00
217.0580, 20825.00
218.2780, 21919.00
219.4980, 23280.00
220.7170, 24599.00
221.9360, 25644.00
223.1560, 26799.00
224.3750, 27590.00
225.5930, 28325.00
226.8120, 28907.00
228.0310, 29040.00
229.2490, 28699.00
230.4670, 28516.00
231.6850, 27456.28
232.9030, 26278.00
234.1210, 24901.00
235.3380, 23297.00
236.5560, 21872.00
237.7730, 20456.00
238.9900, 19395.95
240.2070, 18272.00
241.4240, 17638.00
242.6410, 17080.00
243.8570, 16542.00
245.0730, 16252.00
246.2900, 15913.00
247.5060, 15607.00
248.7210, 15250.35
249.9370, 15022.00
251.1530, 14513.00
252.3680, 14072.02
253.5830, 13802.72
254.7980, 13493.14
256.0130, 13146.58
257.2280, 12590.73
258.4430, 12352.15
259.6570, 12015.41
260.8720, 11694.07
262.0860, 11559.02
263.3000, 11139.37
264.5130, 11042.85
265.7270, 10845.90
266.9410, 10724.69
268.1540, 10468.00
269.3670, 10232.00
270.5800, 10217.00
271.7930, 10185.00
273.0060, 10232.00
274.2190, 10238.00
275.4310, 10156.00
276.6430, 10217.00
277.8550, 10062.00
279.0670, 10090.00
280.2790, 10199.00
281.4910, 10090.00
282.7020, 10136.00
283.9140, 10060.00
285.1250, 10154.00
286.3360, 10269.00
287.5470, 10332.00
288.7570, 10364.00
289.9680, 10387.00
291.1780, 10575.00
292.3880, 10601.00
293.5990, 10696.00
294.8080, 10910.00
296.0180, 10963.00
297.2280, 10918.00
298.4370, 11178.00
299.6470, 11197.00
300.8560, 11214.00
302.0650, 11308.00
303.2740, 11222.00
304.4820, 11232.31
305.6910, 11218.00
306.8990, 11191.00
308.1070, 11109.00
309.3150, 11173.00
310.5230, 10997.00
311.7310, 11018.00
312.9390, 10904.00
314.1460, 11021.00
315.3530, 10867.00
316.5600, 10927.00
317.7670, 10788.00
318.9740, 10896.00
320.1810, 10918.00
321.3870, 10899.00
322.5930, 10949.00
323.8000, 10969.61
325.0060, 11066.00
326.2110, 11032.00
327.4170, 11090.00
328.6230, 11095.92
329.8280, 11062.00
331.0330, 11151.00
332.2380, 11284.00
333.4430, 11319.79
334.6480, 11259.00
335.8530, 11407.00
337.0570, 11409.00
338.2610, 11475.00
339.4650, 11502.00
340.6690, 11361.00
341.8730, 11559.00
343.0770, 11711.00
344.2800, 11562.50
345.4840, 11514.00
346.6870, 11521.00
347.8900, 11482.00
349.0930, 11790.00
350.2950, 11723.00
351.4980, 11782.00
352.7000, 11909.00
353.9030, 11935.00
355.1050, 12043.00
356.3070, 12162.00
357.5080, 12401.81
358.7100, 12685.88
359.9110, 13013.00
361.1130, 13474.00
362.3140, 13870.00
363.5150, 14442.00
364.7160, 14767.00
365.9160, 15226.00
367.1170, 15579.00
368.3170, 15675.00
369.5170, 15930.00
370.7170, 15893.00
371.9170, 15696.00
373.1170, 15626.00
374.3170, 15470.00
375.5160, 15363.00
376.7150, 15508.00
377.9140, 15550.00
379.1130, 15570.00
380.3120, 15924.00
381.5110, 16372.00
382.7090, 16842.00
383.9070, 17200.00
385.1060, 17854.00
386.3040, 18495.00
387.5010, 18984.00
388.6990, 19502.00
389.8970, 19943.00
391.0940, 19884.00
392.2910, 19801.00
393.4880, 19579.00
394.6850, 18829.00
395.8820, 18211.00
397.0780, 17617.00
398.2750, 16788.00
399.4710, 16155.00
400.6670, 15765.00
401.8630, 15713.00
403.0590, 15458.00
404.2540, 15776.00
405.4500, 15887.00
406.6450, 16324.00
407.8400, 16578.00
409.0350, 16939.00
410.2300, 17235.00
411.4250, 17646.00
412.6190, 18016.00
413.8140, 18107.00
415.0080, 18086.00
416.2020, 18032.00
417.3960, 17574.00
418.5900, 17288.00
419.7830, 16997.00
420.9770, 16401.00
422.1700, 15967.00
423.3630, 15618.00
424.5560, 15389.00
425.7490, 15049.00
426.9410, 15001.00
428.1340, 14734.00
429.3260, 14629.00
430.5180, 14378.00
431.7100, 14235.00
432.9020, 14044.87
434.0940, 13848.00
435.2850, 13680.00
436.4770, 13361.00
437.6680, 13205.00
438.8590, 12738.00
440.0500, 12441.00
441.2410, 12028.00
442.4310, 11902.00
443.6220, 11577.00
444.8120, 11518.00
446.0020, 11187.00
447.1920, 11139.00
448.3820, 11061.00
449.5710, 10960.00
450.7610, 10697.00
451.9500, 10770.00
453.1390, 10540.00
454.3280, 10555.00
455.5170, 10387.00
456.7060, 10382.00
457.8940, 10393.00
459.0830, 10306.00
460.2710, 10306.00
461.4590, 10354.00
462.6470, 10346.00
463.8350, 10218.00
465.0220, 10150.00
466.2100, 10118.00
467.3970, 9993.000
468.5840, 9942.000
469.7710, 9876.000
470.9580, 9980.000
472.1440, 9878.000
473.3310, 9977.000
474.5170, 9879.000
475.7030, 9909.000
476.8890, 9876.000
478.0750, 9910.000
479.2610, 9826.000
480.4460, 10007.00
481.6320, 9810.000
482.8170, 9975.000
484.0020, 9978.000
485.1870, 10068.00
486.3710, 9946.000
487.5560, 10157.00
488.7400, 10063.00
489.9250, 10274.00
491.1090, 10357.00
492.2930, 10412.00
493.4760, 10481.00
494.6600, 10465.00
495.8440, 10812.00
497.0270, 10830.00
498.2100, 11094.00
499.3930, 11329.00
500.5760, 11435.00
501.7580, 11695.00
502.9410, 11708.00
504.1230, 11922.00
505.3060, 12133.00
506.4880, 12329.00
507.6690, 12726.00
508.8510, 12934.00
510.0330, 13280.00
511.2140, 13487.00
512.3950, 13662.00
513.5760, 13965.00
514.7570, 14232.00
515.9380, 14575.00
517.1190, 14586.62
518.2990, 14573.00
519.4800, 14677.00
520.6600, 14527.00
521.8400, 14773.00
523.0190, 14572.00
524.1990, 14505.00
525.3790, 14264.00
526.5580, 14112.00
527.7370, 13932.36
528.9160, 13863.00
530.0950, 13549.00
531.2740, 13339.00
532.4520, 13168.69
533.6310, 13106.00
534.8090, 12918.00
535.9870, 12833.00
537.1650, 12740.00
538.3430, 12557.00
539.5200, 12599.00
540.6980, 12470.00
541.8750, 12392.00
543.0520, 12272.00
544.2290, 12221.00
545.4060, 12254.00
546.5820, 12153.00
547.7590, 12076.14
548.9350, 11932.00
550.1110, 11875.00
551.2870, 11705.00
552.4630, 11650.00
553.6390, 11489.00
554.8140, 11578.00
555.9900, 11482.00
557.1650, 11479.00
558.3400, 11427.00
559.5150, 11401.00
560.6900, 11377.00
561.8640, 11355.00
563.0390, 11325.00
564.2130, 11271.00
565.3870, 11257.73
566.5610, 11308.00
567.7350, 11226.00
568.9080, 11187.00
570.0820, 11199.00
571.2550, 11085.00
572.4280, 11090.00
573.6010, 10949.00
574.7740, 10943.00
575.9470, 10821.03
577.1190, 10753.00
578.2920, 10589.00
579.4640, 10440.00
580.6360, 10331.00
581.8080, 10228.00
582.9790, 10136.00
584.1510, 9934.649
585.3220, 9789.914
586.4940, 9514.000
587.6650, 9454.000
588.8360, 9245.000
590.0060, 9162.000
591.1770, 9020.529
592.3470, 8910.294
593.5180, 8782.000
594.6880, 8738.000
595.8580, 8698.000
597.0280, 8647.068
598.1970, 8442.000
599.3670, 8513.000
600.5360, 8421.000
601.7050, 8308.000
602.8740, 8431.000
604.0430, 8380.000
605.2120, 8364.000
606.3800, 8272.000
607.5490, 8453.000
608.7170, 8427.000
609.8850, 8523.000
611.0530, 8528.000
612.2210, 8565.000
613.3880, 8642.335
614.5560, 8573.000
615.7230, 8743.000
616.8900, 8661.000
618.0570, 8623.000
619.2240, 8736.000
620.3900, 8808.000
621.5570, 8768.000
622.7230, 8985.000
623.8890, 8851.000
625.0550, 9030.000
626.2210, 9049.000
627.3870, 9187.000
628.5520, 9251.000
629.7180, 9245.000
630.8830, 9426.000
632.0480, 9516.000
633.2130, 9754.000
634.3770, 9813.000
635.5420, 9814.000
636.7060, 9993.000
637.8710, 10187.00
639.0350, 10336.00
640.1990, 10563.00
641.3620, 10791.54
642.5260, 11069.00
643.6890, 11317.00
644.8530, 11633.00
646.0160, 11945.00
647.1790, 12304.00
648.3410, 12605.00
649.5040, 13009.00
650.6670, 13657.00
651.8290, 13972.00
652.9910, 14646.00
654.1530, 15146.00
655.3150, 15791.00
656.4770, 16847.00
657.6380, 17842.00
658.7990, 19089.00
659.9610, 20976.00
661.1220, 22598.00
662.2830, 24965.00
663.4430, 28019.00
664.6040, 30419.00
665.7640, 33604.00
666.9240, 37041.00
668.0850, 39658.00
669.2440, 42598.00
670.4040, 44126.00
671.5640, 44728.00
672.7230, 44093.00
673.8830, 42666.00
675.0420, 39623.00
676.2010, 36367.00
677.3590, 32745.00
678.5180, 29240.00
679.6770, 25950.00
680.8350, 23428.00
681.9930, 21189.00
683.1510, 19519.00
684.3090, 17958.00
685.4670, 16697.00
686.6240, 15809.00
687.7810, 15176.00
688.9390, 14433.00
690.0960, 14090.00
691.2530, 13599.00
692.4090, 13198.00
693.5660, 12978.00
694.7220, 12843.00
695.8790, 12541.00
697.0350, 12442.00
698.1910, 12340.00
699.3460, 12353.00
700.5020, 12396.00
701.6570, 12256.00
702.8130, 12288.00
703.9680, 12379.00
705.1230, 12566.00
706.2780, 12631.22
707.4320, 12671.00
708.5870, 12865.00
709.7410, 12997.00
710.8950, 13114.00
712.0490, 13357.00
713.2030, 13518.00
714.3570, 13683.00
715.5100, 13787.00
716.6640, 14137.00
717.8170, 14160.00
718.9700, 14484.00
720.1230, 14559.00
721.2760, 14837.00
722.4280, 15044.00
723.5810, 15036.00
724.7330, 15251.00
725.8850, 15298.00
727.0370, 15655.00
728.1890, 15502.00
729.3400, 15593.00
730.4920, 15707.00
731.6430, 15661.00
732.7940, 15868.00
733.9450, 15681.00
735.0960, 16021.00
736.2460, 16020.00
737.3970, 15837.00
738.5470, 16070.00
739.6970, 15780.00
740.8470, 15663.00
741.9970, 15867.00
743.1470, 15826.00
744.2970, 15746.00
745.4460, 15465.00
746.5950, 15213.00
747.7440, 14980.00
748.8930, 14706.00
750.0420, 14426.00
751.1900, 14168.00
752.3390, 14047.00
753.4870, 13793.00
754.6350, 13494.00
755.7830, 13174.00
756.9310, 12945.00
758.0780, 12835.00
759.2260, 12488.00
760.3730, 12302.00
761.5200, 12173.00
762.6670, 11912.00
763.8140, 11885.00
764.9610, 11859.00
766.1070, 11634.00
767.2530, 11651.00
768.4000, 11394.00
769.5460, 11346.00
770.6910, 11294.00
771.8370, 11232.00
772.9830, 11220.00
774.1280, 11175.00
775.2730, 11329.00
776.4180, 11202.00
777.5630, 11127.00
778.7080, 11014.00
779.8520, 11167.00
780.9970, 11280.00
782.1410, 11100.00
783.2850, 11296.00
784.4290, 11238.00
785.5730, 11126.00
786.7160, 11198.00
787.8600, 11266.00
789.0030, 11150.00
790.1460, 11090.00
791.2890, 11152.00
792.4320, 11390.75
793.5750, 11219.21
794.7170, 11221.04
795.8590, 11039.00
797.0020, 11004.00
798.1440, 10940.00
799.2850, 10890.00
800.4270, 10837.94
801.5690, 10765.16
802.7100, 10728.00
803.8510, 10634.00
804.9920, 10576.00
806.1330, 10538.00
807.2740, 10384.00
808.4140, 10432.00
809.5550, 10361.00
810.6950, 10209.00
811.8350, 10356.00
812.9750, 10303.00
814.1150, 10107.00
815.2540, 10202.00
816.3940, 10089.00
817.5330, 9945.000
818.6720, 9992.000
819.8110, 9993.000
820.9500, 9812.000
822.0880, 9891.000
823.2270, 9813.000
824.3650, 9721.000
825.5030, 9779.000
826.6410, 9714.000
827.7790, 9644.000
828.9170, 9580.000
830.0540, 9589.000
831.1920, 9567.000
832.3290, 9510.000
833.4660, 9382.000
834.6030, 9390.000
835.7390, 9348.000
836.8760, 9235.000
838.0120, 9268.000
839.1480, 9302.000
840.2840, 9272.000
841.4200, 9195.000
842.5560, 9176.000
843.6920, 9207.000
844.8270, 9229.000
845.9620, 9294.000
847.0970, 9245.000
848.2320, 9256.000
849.3670, 9109.000
850.5020, 9294.000
851.6360, 9305.000
852.7700, 9128.000
853.9040, 9239.000
855.0380, 9361.000
856.1720, 9288.000
857.3060, 9333.000
858.4390, 9344.000
859.5730, 9435.000
860.7060, 9299.000
861.8390, 9323.000
862.9720, 9371.000
864.1040, 9478.000
865.2370, 9491.000
866.3690, 9530.017
867.5010, 9569.400
868.6330, 9564.000
869.7650, 9612.000
870.8970, 9639.000
872.0290, 9662.000
873.1600, 9589.000
874.2910, 9659.000
875.4220, 9708.000
876.5530, 9767.000
877.6840, 9890.000
878.8140, 9950.000
879.9450, 9839.000
881.0750, 9845.000
882.2050, 10035.00
883.3350, 10008.00
884.4650, 10151.00
885.5950, 10135.00
886.7240, 10339.00
887.8530, 10174.00
888.9820, 10206.00
890.1110, 10220.00
891.2400, 10491.00
892.3690, 10517.00
893.4970, 10397.00
894.6260, 10499.00
895.7540, 10345.00
896.8820, 10523.00
898.0100, 10736.00
899.1370, 10676.00
900.2650, 10821.00
901.3920, 10766.00
902.5200, 10869.00
903.6470, 11022.00
904.7730, 10932.00
905.9000, 10828.00
907.0270, 11063.00
908.1530, 11104.00
909.2790, 11266.00
910.4050, 11368.00
911.5310, 11382.00
912.6570, 11605.00
913.7830, 11641.00
914.9080, 11794.00
916.0330, 11878.00
917.1580, 12048.00
918.2830, 12383.00
919.4080, 12476.00
920.5330, 12571.00
921.6570, 12954.00
922.7820, 13114.00
923.9060, 13253.00
925.0300, 13481.00
926.1540, 13585.00
927.2770, 13518.00
928.4010, 13624.00
929.5240, 13516.00
930.6470, 13353.00
931.7700, 13239.00
932.8930, 13058.00
934.0160, 12739.00
935.1380, 12683.00
936.2610, 12424.00
937.3830, 12167.00
938.5050, 12283.00
939.6270, 12198.00
940.7490, 12166.00
941.8700, 12039.00
942.9910, 12029.00
944.1130, 11871.00
945.2340, 11991.00
946.3550, 12052.00
947.4750, 11998.00
948.5960, 11918.00
949.7160, 11945.00
950.8370, 11830.00
951.9570, 11739.00
953.0770, 11659.00
954.1970, 11589.00
955.3160, 11511.44
956.4360, 11653.00
957.5550, 11454.00
958.6740, 11472.00
959.7930, 11627.00
960.9120, 11620.00
962.0310, 11631.00
963.1490, 11530.00
964.2670, 11590.00
965.3860, 11530.00
966.5040, 11553.00
967.6210, 11525.46
968.7390, 11528.43
969.8570, 11516.00
970.9740, 11553.00
972.0910, 11556.94
973.2080, 11708.00
974.3250, 11624.00
975.4420, 11655.00
976.5580, 11751.00
977.6750, 11573.00
978.7910, 11615.00
979.9070, 11681.00
981.0230, 11830.00
982.1390, 11964.00
983.2540, 12051.00
984.3700, 11935.00
985.4850, 11972.00
986.6000, 12043.00
987.7150, 12038.00
988.8300, 12148.00
989.9450, 12390.00
991.0590, 12442.00
992.1730, 12588.00
993.2880, 12664.00
994.4010, 12818.00
995.5150, 13001.00
996.6290, 13209.00
997.7420, 13381.15
998.8560, 13563.14
999.9690, 13779.00
1001.082, 13908.00
1002.195, 14141.29
1003.307, 14313.00
1004.420, 14533.00
1005.532, 14786.00
1006.645, 14974.74
1007.757, 15098.65
1008.868, 15167.00
1009.980, 15297.00
1011.092, 15251.00
1012.203, 15357.00
1013.314, 15548.00
1014.425, 15716.00
1015.536, 15458.00
1016.647, 15641.00
1017.758, 15970.00
1018.868, 16080.00
1019.978, 16463.00
1021.088, 16621.00
1022.198, 16684.00
1023.308, 17161.00
1024.418, 17572.00
1025.527, 17735.00
1026.637, 17964.00
1027.746, 18301.00
1028.855, 18166.00
1029.963, 18478.00
1031.072, 18271.00
1032.181, 18104.00
1033.289, 17994.00
1034.397, 17852.00
1035.505, 17366.00
1036.613, 17260.00
1037.721, 16988.00
1038.828, 16894.00
1039.935, 16603.00
1041.043, 16414.00
1042.150, 16356.00
1043.257, 16338.00
1044.363, 16167.00
1045.470, 16211.00
1046.576, 16128.00
1047.682, 16159.00
1048.788, 16353.00
1049.894, 16134.00
1051.000, 16479.00
1052.106, 16380.00
1053.211, 16587.00
1054.316, 16838.00
1055.421, 17047.00
1056.526, 17055.00
1057.631, 16918.00
1058.736, 17307.00
1059.840, 16931.00
1060.944, 17035.00
1062.049, 16804.00
1063.153, 16700.00
1064.256, 16364.00
1065.360, 16168.00
1066.463, 15716.00
1067.567, 15568.00
1068.670, 15107.00
1069.773, 14913.00
1070.876, 14511.00
1071.978, 14284.00
1073.081, 13843.00
1074.183, 13781.00
1075.285, 13441.00
1076.387, 13269.00
1077.489, 13189.00
1078.591, 12927.00
1079.692, 12873.00
1080.794, 12882.00
1081.895, 12653.00
1082.996, 12501.00
1084.097, 12364.00
1085.198, 12330.00
1086.298, 12263.00
1087.399, 12006.00
1088.499, 11777.00
1089.599, 11623.00
1090.699, 11439.00
1091.799, 11407.00
1092.898, 11414.00
1093.998, 11257.00
1095.097, 11290.00
1096.196, 11206.00
1097.295, 11097.00
1098.394, 11153.00
1099.492, 10999.00
1100.591, 10996.00
1101.689, 10987.00
1102.787, 10872.00
1103.885, 10733.00
1104.983, 10860.00
1106.081, 10745.00
1107.178, 10780.00
1108.275, 10871.00
1109.373, 10639.00
1110.470, 10718.00
1111.566, 10603.00
1112.663, 10738.00
1113.760, 10676.00
1114.856, 10596.00
1115.952, 10494.00
1117.048, 10380.00
1118.144, 10507.00
1119.240, 10426.00
1120.335, 10394.00
1121.431, 10350.00
1122.526, 10304.00
1123.621, 10186.00
1124.716, 10145.00
1125.810, 10138.00
1126.905, 10198.00
1127.999, 10176.00
1129.094, 10116.00
1130.188, 10060.00
1131.282, 10063.00
1132.375, 9943.000
1133.469, 9822.000
1134.562, 9680.000
1135.656, 9704.000
1136.749, 9855.000
1137.842, 9698.000
1138.935, 9711.000
1140.027, 9710.000
1141.120, 9638.000
1142.212, 9603.000
1143.304, 9581.782
1144.396, 9502.000
1145.488, 9503.000
1146.579, 9467.000
1147.671, 9364.000
1148.762, 9478.000
1149.853, 9370.000
1150.944, 9386.000
1152.035, 9367.000
1153.126, 9383.000
1154.216, 9355.177
1155.307, 9433.000
1156.397, 9287.000
1157.487, 9266.000
1158.577, 9204.898
1159.667, 9273.000
1160.756, 9126.000
1161.846, 9280.000
1162.935, 9299.000
1164.024, 9248.000
1165.113, 9143.000
1166.201, 9141.000
1167.290, 9226.000
1168.378, 9148.000
1169.467, 9309.000
1170.555, 9265.000
1171.643, 9137.000
1172.730, 9188.000
1173.818, 9084.000
1174.905, 9112.000
1175.993, 9165.000
1177.080, 9046.000
1178.167, 9165.000
1179.254, 9093.000
1180.340, 9078.163
1181.427, 9073.000
1182.513, 9084.000
1183.599, 9044.000
1184.685, 9157.000
1185.771, 9003.000
1186.856, 9204.000
1187.942, 9115.000
1189.027, 9080.000
1190.112, 9185.000
1191.197, 9050.000
1192.282, 9134.000
1193.367, 9046.000
1194.451, 8993.000
1195.536, 9077.000
1196.620, 8991.000
1197.704, 9027.000
1198.788, 9032.000
1199.872, 9024.000
1200.955, 9044.565
1202.039, 9044.982
1203.122, 9065.000
1204.205, 9057.000
1205.288, 9078.000
1206.370, 9077.789
1207.453, 9081.000
1208.535, 9082.000
1209.618, 9064.023
1210.700, 9019.000
1211.782, 9044.000
1212.863, 9003.000
1213.945, 8945.000
1215.026, 9026.000
1216.108, 9185.000
1217.189, 9062.000
1218.270, 9120.000
1219.351, 9114.000
1220.431, 9062.000
1221.512, 9018.000
1222.592, 9135.000
1223.672, 9257.000
1224.752, 9158.000
1225.832, 9094.000
1226.911, 9147.000
1227.991, 9104.000
1229.070, 9143.000
1230.149, 9134.000
1231.228, 9155.000
1232.307, 9117.000
1233.386, 9067.000
1234.464, 9144.000
1235.543, 9177.000
1236.621, 9230.000
1237.699, 9098.000
1238.777, 9195.000
1239.855, 9140.168
1240.932, 9296.000
1242.009, 9116.000
1243.087, 9185.000
1244.164, 9223.000
1245.241, 9229.000
1246.317, 9237.884
1247.394, 9277.000
1248.470, 9189.000
1249.546, 9189.000
1250.623, 9134.000
1251.698, 9158.000
1252.774, 9307.000
1253.850, 9117.000
1254.925, 9258.000
1256.000, 9315.000
1257.076, 9224.000
1258.150, 9290.000
1259.225, 9189.000
1260.300, 9203.000
1261.374, 9306.000
1262.449, 9140.000
1263.523, 9391.000
1264.597, 9187.000
1265.670, 9241.000
1266.744, 9261.000
1267.818, 9158.000
1268.891, 9250.000
1269.964, 9179.000
1271.037, 9358.000
1272.110, 9234.000
1273.183, 9106.000
1274.255, 9298.000
1275.327, 9262.000
1276.400, 9314.000
1277.472, 9215.000
1278.543, 9366.000
1279.615, 9162.000
1280.687, 9265.000
1281.758, 9269.000
1282.829, 9224.000
1283.900, 9385.000
1284.971, 9185.000
1286.042, 9231.000
1287.112, 9273.000
1288.183, 9299.000
1289.253, 9319.000
1290.323, 9209.000
1291.393, 9281.000
1292.463, 9197.000
1293.532, 9237.000
1294.602, 9319.000
1295.671, 9265.000
1296.740, 9256.000
1297.809, 9351.000
1298.878, 9329.000
1299.946, 9343.050
1301.015, 9303.000
1302.083, 9320.000
1303.151, 9318.000
1304.219, 9278.000
1305.287, 9338.000
1306.354, 9318.000
1307.422, 9312.000
1308.489, 9268.000
1309.556, 9284.000
1310.623, 9369.000
1311.690, 9297.000
1312.757, 9359.000
1313.823, 9341.000
1314.890, 9348.000
1315.956, 9479.000
1317.022, 9328.000
1318.088, 9419.000
1319.153, 9190.000
1320.219, 9376.000
1321.284, 9360.000
1322.349, 9259.000
1323.414, 9446.000
1324.479, 9295.000
1325.544, 9324.000
1326.608, 9405.000
1327.673, 9331.000
1328.737, 9489.000
1329.801, 9387.000
1330.865, 9528.000
1331.929, 9405.000
1332.992, 9376.000
1334.056, 9398.000
1335.119, 9290.000
1336.182, 9352.000
1337.245, 9290.000
1338.308, 9458.000
1339.370, 9401.000
1340.433, 9391.000
1341.495, 9446.000
1342.557, 9362.000
1343.619, 9398.000
1344.681, 9367.000
1345.742, 9455.000
1346.804, 9429.000
1347.865, 9477.000
1348.926, 9389.000
1349.987, 9348.000
1351.048, 9354.000
1352.108, 9360.000
1353.169, 9381.616
1354.229, 9417.825
1355.289, 9441.000
1356.349, 9472.000
1357.409, 9460.000
1358.469, 9402.000
1359.528, 9423.000
1360.588, 9401.000
1361.647, 9397.056
1362.706, 9404.000
1363.765, 9415.000
1364.823, 9369.000
1365.882, 9398.000
1366.940, 9461.000
1367.998, 9505.000
1369.056, 9460.000
1370.114, 9418.351
1371.172, 9557.676
1372.229, 9636.210
1373.287, 9657.223
1374.344, 9448.424
1375.401, 9536.378
1376.458, 9505.406
1377.515, 9469.559
1378.571, 9599.278
1379.628, 9423.905
1380.684, 9551.000
1381.740, 9557.354
1382.796, 9618.969
1383.852, 9560.924
1384.907, 9539.837
1385.963, 9638.448
1387.018, 9670.782
1388.073, 9598.962
1389.128, 9664.088
1390.183, 9484.534
1391.237, 9519.690
1392.292, 9647.484
1393.346, 9581.680
1394.400, 9648.994
1395.454, 9665.609
1396.508, 9451.819
1397.562, 9678.000
1398.615, 9603.000
1399.668, 9565.000
1400.722, 9618.000
1401.775, 9566.000
1402.827, 9590.718
1403.880, 9586.813
1404.933, 9561.000
1405.985, 9663.000
1407.037, 9538.000
1408.089, 9748.000
1409.141, 9725.000
1410.193, 9699.000
1411.244, 9718.000
1412.295, 9670.000
1413.347, 9696.000
1414.398, 9685.000
1415.449, 9694.000
1416.499, 9721.000
1417.550, 9694.279
1418.600, 9666.000
1419.650, 9722.000
1420.700, 9705.000
1421.750, 9855.000
1422.800, 9787.000
1423.850, 9704.000
1424.899, 9828.000
1425.948, 9737.000
1426.997, 9754.000
1428.046, 9896.000
1429.095, 9797.000
1430.144, 10037.00
1431.192, 9947.140
1432.240, 9966.456
1433.288, 9904.000
1434.336, 9923.000
1435.384, 10001.00
1436.432, 9970.000
1437.479, 9938.000
1438.526, 9864.000
1439.574, 9869.192
1440.621, 9890.000
1441.667, 9889.000
1442.714, 9908.000
1443.760, 9988.000
1444.807, 10017.00
1445.853, 9965.000
1446.899, 9910.000
1447.945, 9981.000
1448.990, 9992.000
1450.036, 9962.000
1451.081, 9925.000
1452.126, 10021.00
1453.171, 9977.000
1454.216, 10050.00
1455.261, 9964.000
1456.305, 10024.00
1457.350, 10132.00
1458.394, 10067.39
1459.438, 10079.00
1460.482, 10049.00
1461.526, 9986.000
1462.569, 9993.000
1463.612, 9980.560
1464.656, 9997.000
1465.699, 9999.000
1466.742, 10000.00
1467.784, 10010.07
1468.827, 10057.00
1469.869, 10095.00
1470.912, 10081.00
1471.954, 10087.00
1472.996, 10099.00
1474.037, 10025.00
1475.079, 10068.00
1476.120, 9907.000
1477.162, 9925.542
1478.203, 10133.00
1479.244, 9892.000
1480.284, 10019.00
1481.325, 10033.00
1482.365, 9957.000
1483.406, 10051.00
1484.446, 9988.000
1485.486, 9984.000
1486.526, 9937.000
1487.565, 9925.000
1488.605, 10030.00
1489.644, 9988.000
1490.683, 10000.00
1491.722, 9946.000
1492.761, 9985.000
1493.800, 10041.00
1494.838, 10084.00
1495.876, 10107.00
1496.915, 9899.000
1497.953, 10090.00
1498.990, 10011.00
1500.028, 10127.00
1501.066, 10116.00
1502.103, 10143.00
1503.140, 10120.00
1504.177, 10152.00
1505.214, 10028.00
1506.251, 10050.00
1507.287, 10021.00
1508.324, 10003.00
1509.360, 10001.00
1510.396, 10080.00
1511.432, 9937.000
1512.468, 10063.00
1513.503, 10203.00
1514.538, 10104.00
1515.574, 10036.00
1516.609, 10119.00
1517.644, 10101.00
1518.678, 10135.00
1519.713, 10225.00
1520.747, 10177.00
1521.782, 10083.00
1522.816, 10137.00
1523.850, 10139.00
1524.883, 10104.23
1525.917, 10102.46
1526.951, 10126.00
1527.984, 10043.00
1529.017, 10163.00
1530.050, 10161.00
1531.083, 10173.00
1532.115, 10050.00
1533.148, 10070.00
1534.180, 10114.00
1535.212, 10300.00
1536.244, 10202.00
1537.276, 10251.00
1538.308, 10181.00
1539.339, 10222.00
1540.370, 10045.00
##END=



