##NAMES=Actinolite
##RRUFFID=R060045
##IDEAL CHEMISTRY=Ca_2_(Mg_4.5-2.5_Fe^2+^_0.5-2.5_)Si_8_O_22_(OH)_2_
##LOCALITY=Colorado, USA
##OWNER=RRUFF
##SOURCE=University of Arizona Mineral Museum
##DESCRIPTION=Green prismatic crystals in a radial arrangement
##STATUS=The identification of this mineral has been confirmed by X-ray diffraction and chemical analysis
##URL=rruff.info/R060045
##MEASURED CHEMISTRY=(Ca_1.99_Na_0.01_)_Σ=2_(Mg_4.20_Fe^2+^_0.59_Al_0.09_Fe^3+^_0.08_Mn_0.02_Ti_0.01_)_Σ=5_(Si_7.82_Al_0.18_)_Σ=8_O_22_(OH)_2_
##PIN_ID=M00122
##ORIENTATION=Laser parallel to (1 0 1). Fiducial mark perpendicular to laser is parallel to b [0 1 0]
125.5190, 16881.00
126.7490, 17081.00
127.9790, 16919.00
129.2090, 17017.00
130.4390, 17210.00
131.6680, 17417.00
132.8980, 17423.00
134.1270, 17415.00
135.3560, 17625.00
136.5850, 17597.00
137.8140, 17624.00
139.0430, 17722.00
140.2710, 17846.00
141.5000, 17778.00
142.7280, 18054.00
143.9560, 17970.00
145.1840, 17934.00
146.4120, 18151.00
147.6390, 18147.00
148.8670, 18283.00
150.0940, 18324.00
151.3210, 18126.00
152.5490, 18604.00
153.7750, 18667.00
155.0020, 19134.00
156.2290, 19598.00
157.4550, 19676.00
158.6810, 19617.00
159.9080, 19394.00
161.1340, 19136.00
162.3590, 19292.00
163.5850, 19130.00
164.8110, 19187.00
166.0360, 19245.00
167.2610, 19316.00
168.4860, 19572.00
169.7110, 19775.00
170.9360, 20122.00
172.1610, 20685.00
173.3850, 21182.00
174.6100, 21949.00
175.8340, 23044.00
177.0580, 23264.00
178.2820, 22563.00
179.5050, 21713.00
180.7290, 20867.00
181.9520, 20250.00
183.1760, 20013.00
184.3990, 19634.00
185.6220, 19380.00
186.8450, 19503.00
188.0670, 19436.00
189.2900, 19369.00
190.5120, 19529.00
191.7340, 19276.00
192.9560, 19340.00
194.1780, 19377.00
195.4000, 19476.00
196.6220, 19556.00
197.8430, 19681.00
199.0640, 19648.00
200.2860, 19622.00
201.5070, 19880.00
202.7270, 20029.00
203.9480, 19960.00
205.1690, 19934.00
206.3890, 19939.00
207.6090, 20235.00
208.8290, 20287.00
210.0490, 20661.00
211.2690, 20828.00
212.4890, 21468.00
213.7080, 21739.00
214.9280, 22547.00
216.1470, 23154.00
217.3660, 24012.00
218.5850, 24869.00
219.8030, 25685.00
221.0220, 26118.00
222.2400, 26006.00
223.4590, 25487.00
224.6770, 24518.00
225.8950, 24131.00
227.1120, 23502.00
228.3300, 23404.00
229.5480, 23353.00
230.7650, 22991.00
231.9820, 22674.00
233.1990, 22477.00
234.4160, 22153.00
235.6330, 21563.00
236.8490, 21189.00
238.0660, 21224.00
239.2820, 20876.00
240.4980, 21011.00
241.7140, 21069.00
242.9300, 21003.00
244.1460, 20956.00
245.3610, 21070.00
246.5770, 21174.00
247.7920, 21039.00
249.0070, 21150.00
250.2220, 21117.00
251.4370, 21118.00
252.6510, 21144.00
253.8660, 21272.00
255.0800, 20928.00
256.2940, 20824.00
257.5080, 20973.00
258.7220, 20978.00
259.9360, 21062.00
261.1490, 21052.00
262.3630, 21012.33
263.5760, 21053.00
264.7890, 20934.00
266.0020, 20773.00
267.2150, 20831.00
268.4270, 20849.00
269.6400, 20978.00
270.8520, 20854.00
272.0640, 20951.00
273.2760, 20908.00
274.4880, 20869.00
275.7000, 20837.00
276.9120, 20819.00
278.1230, 20852.67
279.3340, 20890.39
280.5450, 21013.00
281.7560, 21021.00
282.9670, 21090.15
284.1780, 21168.54
285.3880, 21204.00
286.5980, 21312.00
287.8090, 21411.00
289.0190, 21485.00
290.2290, 21507.70
291.4380, 21505.00
292.6480, 21489.00
293.8570, 21440.00
295.0670, 21383.00
296.2760, 21527.00
297.4850, 21519.00
298.6930, 21644.00
299.9020, 21853.00
301.1110, 21782.00
302.3190, 21958.00
303.5270, 21740.00
304.7350, 21896.00
305.9430, 21693.00
307.1510, 21918.00
308.3580, 21659.00
309.5660, 21871.00
310.7730, 21836.00
311.9800, 21991.00
313.1870, 21977.00
314.3940, 21903.00
315.6010, 21932.00
316.8070, 21875.00
318.0130, 21956.44
319.2200, 22151.00
320.4260, 22132.00
321.6310, 22155.00
322.8370, 22225.00
324.0430, 22250.00
325.2480, 22380.00
326.4540, 22295.00
327.6590, 22501.00
328.8640, 22561.00
330.0680, 22487.00
331.2730, 22495.00
332.4780, 22583.00
333.6820, 22491.00
334.8860, 22591.00
336.0900, 22955.00
337.2940, 22822.00
338.4980, 23016.00
339.7010, 23136.00
340.9050, 23212.00
342.1080, 23453.00
343.3110, 23507.00
344.5140, 23677.00
345.7170, 23795.00
346.9200, 23839.00
348.1220, 23819.00
349.3240, 23922.00
350.5270, 23881.53
351.7290, 23994.00
352.9310, 23816.00
354.1320, 23931.00
355.3340, 23850.00
356.5350, 24143.00
357.7370, 24097.00
358.9380, 24103.00
360.1390, 24381.00
361.3400, 24487.00
362.5400, 24792.00
363.7410, 25061.00
364.9410, 25546.00
366.1410, 25623.00
367.3410, 25577.00
368.5410, 25514.00
369.7410, 25404.00
370.9400, 25364.00
372.1400, 25070.00
373.3390, 24849.00
374.5380, 24657.00
375.7370, 24489.00
376.9360, 24343.51
378.1350, 24186.00
379.3330, 24155.00
380.5310, 24129.49
381.7300, 24158.00
382.9280, 24276.00
384.1260, 24484.00
385.3230, 24652.00
386.5210, 24788.03
387.7180, 24898.00
388.9160, 25002.00
390.1130, 25186.00
391.3100, 25146.00
392.5060, 25397.00
393.7030, 25198.00
394.9000, 24961.00
396.0960, 25017.00
397.2920, 24550.00
398.4880, 24401.00
399.6840, 24482.00
400.8800, 24503.00
402.0750, 24398.00
403.2710, 24191.00
404.4660, 24399.00
405.6610, 24619.00
406.8560, 24492.00
408.0510, 24659.00
409.2450, 24808.00
410.4400, 24613.00
411.6340, 24877.00
412.8280, 25039.00
414.0220, 24823.00
415.2160, 24788.00
416.4100, 24726.00
417.6030, 24615.00
418.7970, 24789.00
419.9900, 24638.00
421.1830, 24365.00
422.3760, 24638.00
423.5690, 24404.00
424.7610, 24478.00
425.9540, 24569.00
427.1460, 24489.00
428.3380, 24793.00
429.5300, 24727.00
430.7220, 25027.00
431.9140, 24819.00
433.1050, 24844.00
434.2970, 24785.00
435.4880, 24974.00
436.6790, 24871.00
437.8700, 25022.00
439.0610, 24710.00
440.2510, 24856.00
441.4420, 24886.00
442.6320, 24579.00
443.8220, 24547.00
445.0120, 24894.00
446.2020, 24650.00
447.3910, 24787.00
448.5810, 24991.00
449.7700, 24936.00
450.9600, 24763.00
452.1490, 24864.00
453.3370, 24784.00
454.5260, 24970.00
455.7150, 25053.00
456.9030, 25016.00
458.0910, 24919.00
459.2800, 24885.00
460.4670, 25069.00
461.6550, 25086.00
462.8430, 24992.00
464.0300, 25327.00
465.2180, 25167.00
466.4050, 25178.00
467.5920, 25214.00
468.7790, 25293.00
469.9650, 25282.00
471.1520, 25384.00
472.3380, 25334.00
473.5250, 25465.00
474.7110, 25399.00
475.8970, 25434.00
477.0820, 25539.00
478.2680, 25484.00
479.4540, 25541.00
480.6390, 25596.00
481.8240, 25662.00
483.0090, 25682.00
484.1940, 25744.91
485.3780, 25739.67
486.5630, 25780.00
487.7470, 25793.00
488.9320, 25672.00
490.1160, 25837.00
491.3000, 25889.00
492.4830, 25729.00
493.6670, 25631.00
494.8500, 25884.00
496.0340, 26007.00
497.2170, 26241.00
498.4000, 26472.00
499.5820, 26327.00
500.7650, 26213.00
501.9480, 26215.00
503.1300, 26416.00
504.3120, 26656.00
505.4940, 26612.00
506.6760, 26749.00
507.8580, 26669.00
509.0390, 26780.00
510.2210, 26782.00
511.4020, 26840.00
512.5830, 27184.00
513.7640, 26978.00
514.9450, 27156.00
516.1250, 26989.00
517.3060, 27329.00
518.4860, 27175.00
519.6660, 27215.00
520.8460, 27334.00
522.0260, 27454.00
523.2060, 27552.00
524.3850, 27458.00
525.5650, 27508.00
526.7440, 27481.92
527.9230, 27515.00
529.1020, 27399.00
530.2810, 27446.00
531.4590, 27354.00
532.6380, 27437.00
533.8160, 27331.00
534.9940, 27160.00
536.1720, 27454.00
537.3500, 27230.00
538.5270, 27333.00
539.7050, 27323.00
540.8820, 27336.00
542.0590, 27173.00
543.2360, 27138.00
544.4130, 27127.00
545.5900, 27263.00
546.7660, 27318.00
547.9430, 27398.00
549.1190, 27193.00
550.2950, 27302.00
551.4710, 27366.00
552.6470, 27301.00
553.8220, 27442.00
554.9980, 27439.00
556.1730, 27377.00
557.3480, 27382.00
558.5230, 27530.00
559.6980, 27641.00
560.8730, 27511.00
562.0470, 27560.00
563.2220, 27760.00
564.3960, 27616.00
565.5700, 27378.00
566.7440, 27687.00
567.9170, 27562.00
569.0910, 27829.00
570.2640, 27868.00
571.4380, 27886.94
572.6110, 27970.00
573.7840, 27913.00
574.9570, 28055.00
576.1290, 27988.00
577.3020, 28066.00
578.4740, 27952.00
579.6460, 28088.00
580.8180, 28141.00
581.9900, 28183.00
583.1620, 28242.00
584.3330, 28197.75
585.5040, 28353.00
586.6760, 28114.00
587.8470, 28207.00
589.0180, 28223.00
590.1880, 28004.00
591.3590, 28234.00
592.5290, 28139.00
593.7000, 28044.00
594.8700, 28280.00
596.0400, 28389.00
597.2090, 28413.00
598.3790, 28329.00
599.5490, 28451.00
600.7180, 28267.00
601.8870, 28665.00
603.0560, 28466.00
604.2250, 28586.00
605.3940, 28543.00
606.5620, 28683.00
607.7300, 28926.00
608.8990, 28735.00
610.0670, 28963.00
611.2350, 28973.00
612.4020, 28656.00
613.5700, 28934.00
614.7370, 29047.00
615.9050, 29023.00
617.0720, 29085.00
618.2390, 29302.00
619.4060, 29226.00
620.5720, 29266.00
621.7390, 29275.00
622.9050, 29528.00
624.0710, 29348.00
625.2370, 29237.00
626.4030, 29526.00
627.5690, 29529.00
628.7340, 29588.00
629.9000, 29513.00
631.0650, 29722.00
632.2300, 29709.00
633.3950, 29800.00
634.5600, 29607.00
635.7240, 29873.00
636.8890, 30165.00
638.0530, 30059.00
639.2170, 30330.00
640.3810, 30555.00
641.5450, 30404.00
642.7080, 30708.00
643.8720, 30730.00
645.0350, 30970.00
646.1980, 30970.00
647.3610, 31475.00
648.5240, 31591.00
649.6870, 31606.00
650.8490, 31943.00
652.0120, 31928.00
653.1740, 32178.00
654.3360, 32494.00
655.4980, 32390.00
656.6600, 32621.00
657.8210, 32704.00
658.9830, 33017.00
660.1440, 33708.00
661.3050, 34106.00
662.4660, 34524.00
663.6270, 35640.00
664.7870, 36642.00
665.9480, 37891.00
667.1080, 39487.00
668.2680, 40786.00
669.4280, 42755.00
670.5880, 43835.00
671.7480, 44314.00
672.9070, 43535.00
674.0670, 42053.00
675.2260, 40539.00
676.3850, 38715.00
677.5440, 36912.00
678.7030, 35955.00
679.8610, 34947.00
681.0200, 34117.00
682.1780, 33579.00
683.3360, 33212.00
684.4940, 32834.00
685.6520, 32518.00
686.8090, 32542.00
687.9670, 32466.00
689.1240, 32243.00
690.2810, 32146.00
691.4380, 32059.00
692.5950, 31834.00
693.7520, 32059.00
694.9080, 31670.00
696.0650, 31856.00
697.2210, 31516.00
698.3770, 31373.00
699.5330, 31477.00
700.6880, 31325.00
701.8440, 31386.00
702.9990, 31408.00
704.1550, 31648.00
705.3100, 31246.00
706.4650, 31537.00
707.6190, 31421.00
708.7740, 31650.00
709.9290, 31375.00
711.0830, 31475.00
712.2370, 31570.00
713.3910, 31461.00
714.5450, 31688.00
715.6980, 31644.88
716.8520, 31877.00
718.0050, 31698.00
719.1580, 31708.00
720.3110, 31755.00
721.4640, 31531.00
722.6170, 31500.00
723.7700, 31792.00
724.9220, 31721.00
726.0740, 32111.00
727.2260, 31983.00
728.3780, 31796.00
729.5300, 31999.00
730.6810, 32013.00
731.8330, 32155.00
732.9840, 32243.00
734.1350, 32240.00
735.2860, 32281.00
736.4370, 32438.00
737.5880, 32561.00
738.7380, 32650.00
739.8880, 32703.00
741.0390, 32846.00
742.1890, 32800.00
743.3380, 32624.00
744.4880, 32526.00
745.6380, 32584.00
746.7870, 32527.00
747.9360, 32451.00
749.0850, 32720.00
750.2340, 32611.00
751.3830, 32641.00
752.5310, 32566.00
753.6800, 32665.00
754.8280, 32592.00
755.9760, 32634.00
757.1240, 32750.00
758.2720, 32721.00
759.4190, 32816.93
760.5670, 32625.00
761.7140, 32950.00
762.8610, 32829.00
764.0080, 32889.00
765.1550, 33002.00
766.3020, 32869.00
767.4480, 32700.00
768.5950, 32838.00
769.7410, 32908.00
770.8870, 32976.00
772.0330, 33198.00
773.1780, 33157.00
774.3240, 33202.00
775.4690, 33144.00
776.6140, 33083.00
777.7590, 33037.00
778.9040, 33024.04
780.0490, 33019.00
781.1940, 33067.00
782.3380, 33190.00
783.4820, 33324.00
784.6260, 33155.00
785.7700, 33108.00
786.9140, 33572.00
788.0580, 33399.00
789.2010, 33305.00
790.3450, 33582.00
791.4880, 33226.00
792.6310, 33692.00
793.7730, 33747.00
794.9160, 33693.00
796.0590, 33654.00
797.2010, 33567.00
798.3430, 33684.00
799.4850, 33652.48
800.6270, 33625.00
801.7690, 33760.00
802.9100, 33818.00
804.0520, 33954.00
805.1930, 33793.00
806.3340, 34000.00
807.4750, 33894.00
808.6160, 33962.00
809.7560, 34074.00
810.8970, 34251.00
812.0370, 34248.01
813.1770, 34117.00
814.3170, 34247.00
815.4570, 34273.00
816.5960, 34180.00
817.7360, 34275.00
818.8750, 34363.00
820.0140, 34331.00
821.1530, 34523.00
822.2920, 34588.00
823.4310, 34657.00
824.5690, 34512.00
825.7070, 34681.00
826.8460, 34695.00
827.9840, 34728.00
829.1220, 34793.90
830.2590, 34811.00
831.3970, 34833.00
832.5340, 34778.00
833.6710, 34755.00
834.8080, 34920.00
835.9450, 34897.00
837.0820, 34751.00
838.2190, 34889.00
839.3550, 35107.00
840.4910, 35027.00
841.6270, 35135.00
842.7630, 35415.00
843.8990, 35456.00
845.0350, 35318.00
846.1700, 35527.00
847.3060, 35326.00
848.4410, 35247.00
849.5760, 35620.00
850.7100, 35411.00
851.8450, 35615.00
852.9800, 35621.00
854.1140, 35583.00
855.2480, 35827.00
856.3820, 35717.00
857.5160, 35884.00
858.6500, 35765.00
859.7830, 35828.00
860.9170, 36051.00
862.0500, 35918.00
863.1830, 36004.00
864.3160, 35994.00
865.4480, 36006.00
866.5810, 36053.00
867.7130, 36071.80
868.8460, 35914.00
869.9780, 36173.00
871.1100, 36128.00
872.2410, 36217.00
873.3730, 35942.00
874.5050, 36207.00
875.6360, 36214.00
876.7670, 36030.00
877.8980, 36100.00
879.0290, 36157.00
880.1590, 36251.00
881.2900, 36264.34
882.4200, 36308.54
883.5500, 36306.00
884.6800, 36366.00
885.8100, 36406.00
886.9400, 36472.00
888.0690, 36498.00
889.1990, 36440.00
890.3280, 36512.00
891.4570, 36595.00
892.5860, 36723.00
893.7140, 36640.00
894.8430, 36574.00
895.9710, 36821.00
897.1000, 36656.00
898.2280, 36831.00
899.3560, 36852.00
900.4830, 36915.00
901.6110, 36971.00
902.7380, 36841.00
903.8660, 36948.00
904.9930, 37321.00
906.1200, 36951.00
907.2460, 37400.00
908.3730, 37460.00
909.5000, 37325.00
910.6260, 37601.00
911.7520, 37462.00
912.8780, 37298.00
914.0040, 37682.00
915.1290, 37579.00
916.2550, 37818.00
917.3800, 37551.00
918.5050, 37665.00
919.6300, 37635.00
920.7550, 38046.00
921.8800, 37951.00
923.0040, 38117.44
924.1290, 38305.00
925.2530, 38386.00
926.3770, 38583.00
927.5010, 38893.00
928.6250, 39179.00
929.7480, 39099.00
930.8720, 39010.00
931.9950, 38989.00
933.1180, 38712.00
934.2410, 38724.00
935.3640, 38723.00
936.4860, 38399.00
937.6090, 38521.00
938.7310, 38563.00
939.8530, 38598.00
940.9750, 38738.00
942.0970, 38743.00
943.2180, 38703.00
944.3400, 38979.00
945.4610, 38884.00
946.5820, 39028.00
947.7030, 38769.00
948.8240, 38940.00
949.9450, 39046.00
951.0650, 38959.00
952.1860, 38796.00
953.3060, 38868.00
954.4260, 38738.00
955.5460, 38922.00
956.6650, 38962.00
957.7850, 38801.00
958.9040, 38922.00
960.0230, 38967.00
961.1420, 38867.00
962.2610, 38863.00
963.3800, 39032.00
964.4990, 38672.00
965.6170, 38829.00
966.7350, 39236.00
967.8530, 38770.00
968.9710, 38957.00
970.0890, 39077.00
971.2070, 39184.00
972.3240, 39317.00
973.4410, 39214.00
974.5580, 39279.12
975.6750, 39325.12
976.7920, 39237.00
977.9090, 39435.00
979.0250, 39437.00
980.1410, 39516.00
981.2580, 39330.00
982.3740, 39578.00
983.4890, 39451.00
984.6050, 39469.00
985.7200, 39538.00
986.8360, 39578.00
987.9510, 39768.00
989.0660, 39835.00
990.1810, 39747.00
991.2950, 39914.00
992.4100, 39876.00
993.5240, 39758.00
994.6390, 39937.00
995.7530, 40054.00
996.8660, 40049.00
997.9800, 40084.00
999.0940, 40107.00
1000.207, 40545.00
1001.320, 40415.00
1002.433, 40510.00
1003.546, 40272.00
1004.659, 40360.00
1005.772, 40714.00
1006.884, 40698.00
1007.996, 40610.00
1009.108, 40861.00
1010.220, 40644.00
1011.332, 40970.00
1012.444, 40817.00
1013.555, 40962.00
1014.666, 41190.00
1015.777, 41309.00
1016.888, 41623.00
1017.999, 41716.76
1019.110, 41854.00
1020.220, 41986.00
1021.331, 42269.00
1022.441, 42452.00
1023.551, 42590.00
1024.661, 42770.00
1025.770, 42936.00
1026.880, 43145.00
1027.989, 43124.52
1029.098, 43291.00
1030.207, 43094.00
1031.316, 42896.00
1032.425, 42942.00
1033.533, 42463.00
1034.642, 42279.00
1035.750, 42315.00
1036.858, 42073.00
1037.966, 42194.00
1039.073, 41976.00
1040.181, 42259.00
1041.288, 42169.00
1042.396, 42101.00
1043.503, 42271.00
1044.610, 42631.00
1045.716, 42852.00
1046.823, 42824.00
1047.929, 43239.00
1049.036, 43475.00
1050.142, 43840.00
1051.248, 43960.00
1052.353, 44311.00
1053.459, 44983.00
1054.564, 45175.00
1055.670, 45282.00
1056.775, 45680.00
1057.880, 45167.00
1058.985, 45463.00
1060.089, 45189.00
1061.194, 44962.00
1062.298, 44826.00
1063.402, 44646.13
1064.506, 44513.31
1065.610, 44423.00
1066.713, 44310.00
1067.817, 44255.00
1068.920, 44230.00
1070.023, 43993.00
1071.126, 43525.00
1072.229, 43426.00
1073.332, 42939.00
1074.435, 43324.00
1075.537, 42927.00
1076.639, 42997.00
1077.741, 43097.00
1078.843, 42694.00
1079.945, 42960.00
1081.046, 43053.00
1082.148, 42976.00
1083.249, 43161.00
1084.350, 42826.00
1085.451, 43209.00
1086.551, 42954.00
1087.652, 42921.00
1088.752, 43133.00
1089.853, 43350.00
1090.953, 42778.00
1092.053, 43061.00
1093.152, 43144.00
1094.252, 43002.00
1095.351, 43120.00
1096.451, 43042.00
1097.550, 43061.00
1098.649, 43186.00
1099.748, 43099.00
1100.846, 43068.00
1101.945, 43131.00
1103.043, 43450.00
1104.141, 43104.00
1105.239, 43295.00
1106.337, 43414.00
1107.434, 43246.00
1108.532, 43392.00
1109.629, 43512.00
1110.726, 43460.00
1111.823, 43631.00
1112.920, 43418.00
1114.017, 43548.00
1115.113, 43695.00
1116.210, 43705.00
1117.306, 43527.00
1118.402, 43681.00
1119.498, 43703.00
1120.593, 43850.00
1121.689, 43819.00
1122.784, 43869.00
1123.879, 43626.00
1124.974, 43668.00
1126.069, 44071.00
1127.164, 43809.00
1128.259, 43949.00
1129.353, 43998.00
1130.447, 44099.00
1131.541, 44200.00
1132.635, 44050.00
1133.729, 44110.00
1134.822, 44260.00
1135.916, 44100.00
1137.009, 44367.00
1138.102, 44044.00
1139.195, 44556.00
1140.288, 44248.00
1141.380, 44303.00
1142.473, 44703.00
1143.565, 44305.00
1144.657, 44460.00
1145.749, 44556.00
1146.841, 44607.00
1147.932, 44313.00
1149.024, 44490.00
1150.115, 44557.00
1151.206, 44314.00
1152.297, 44522.00
1153.388, 44758.00
1154.479, 44681.00
1155.569, 44939.00
1156.659, 44812.00
1157.750, 44709.00
1158.839, 45018.00
1159.929, 45003.00
1161.019, 44949.00
1162.108, 44921.00
1163.198, 44973.00
1164.287, 45030.00
1165.376, 45036.49
1166.465, 45008.00
1167.553, 45132.00
1168.642, 45233.00
1169.730, 45366.00
1170.818, 45239.00
1171.906, 45390.00
1172.994, 45662.00
1174.082, 45287.00
1175.170, 45454.00
1176.257, 45276.00
1177.344, 45642.00
1178.431, 45367.00
1179.518, 45561.00
1180.605, 45416.00
1181.691, 45897.00
1182.778, 45462.00
1183.864, 45754.00
1184.950, 45908.00
1186.036, 45522.00
1187.122, 45705.00
1188.207, 45777.00
1189.292, 46026.00
1190.378, 45796.00
1191.463, 45928.00
1192.548, 45891.00
1193.632, 46004.00
1194.717, 45944.00
1195.801, 46189.00
1196.886, 46045.00
1197.970, 46053.00
1199.054, 46223.00
1200.137, 46312.00
1201.221, 46546.00
1202.305, 46233.00
1203.388, 46400.00
1204.471, 46465.00
1205.554, 46285.00
1206.637, 46428.00
1207.719, 46358.00
1208.802, 46580.00
1209.884, 46567.00
1210.966, 46680.00
1212.048, 46817.00
1213.130, 46719.00
1214.212, 46824.00
1215.293, 46699.00
1216.374, 46470.00
1217.456, 46994.00
1218.536, 47067.00
1219.617, 46699.00
1220.698, 47124.00
1221.778, 47174.00
1222.859, 47196.00
1223.939, 47144.00
1225.019, 47247.00
1226.099, 46862.00
1227.178, 47502.00
1228.258, 47145.00
1229.337, 47302.00
1230.417, 47453.00
1231.496, 47358.00
1232.574, 47239.00
1233.653, 47372.00
1234.732, 47337.10
1235.810, 47298.00
1236.888, 47527.00
1237.966, 47490.00
1239.044, 47722.00
1240.122, 47582.00
1241.199, 47417.00
1242.277, 47887.00
1243.354, 47597.00
1244.431, 47649.00
1245.508, 47787.00
1246.585, 47877.00
1247.661, 47900.00
1248.738, 48116.00
1249.814, 48030.00
1250.890, 48176.00
1251.966, 48291.00
1253.042, 47981.00
1254.117, 48102.00
1255.193, 48018.00
1256.268, 48227.00
1257.343, 48278.00
1258.418, 48171.00
1259.493, 48499.00
1260.567, 48240.00
1261.642, 48537.00
1262.716, 48480.00
1263.790, 48760.00
1264.864, 48546.00
1265.938, 48569.00
1267.011, 48896.00
1268.085, 48491.00
1269.158, 48817.00
1270.231, 49040.00
1271.304, 48920.00
1272.377, 48718.00
1273.450, 48963.00
1274.522, 48798.00
1275.594, 49000.00
1276.666, 49030.00
1277.738, 48770.00
1278.810, 48840.00
1279.882, 49177.00
1280.953, 49086.00
1282.025, 49115.00
1283.096, 49307.00
1284.167, 48939.00
1285.238, 49296.00
1286.308, 49270.00
1287.379, 49269.00
1288.449, 49446.00
1289.519, 49351.00
1290.589, 49490.00
1291.659, 49513.00
1292.729, 49554.00
1293.798, 49570.00
1294.868, 49614.00
1295.937, 49744.00
1297.006, 49855.00
1298.075, 49756.00
1299.143, 49722.00
1300.212, 49764.00
1301.280, 49750.64
1302.348, 49964.00
1303.416, 49915.00
1304.484, 50075.00
1305.552, 50352.00
1306.620, 50128.00
1307.687, 50098.00
1308.754, 50293.00
1309.821, 50359.00
1310.888, 50372.00
1311.955, 50302.00
1313.021, 50220.00
1314.088, 50529.00
1315.154, 50427.00
1316.220, 50662.00
1317.286, 50464.00
1318.352, 50501.00
1319.417, 50704.00
1320.483, 50654.00
1321.548, 50647.00
1322.613, 50615.00
1323.678, 50693.00
1324.743, 50770.00
1325.807, 50803.27
1326.872, 50728.00
1327.936, 50953.00
1329.000, 50866.00
1330.064, 50975.00
1331.128, 50936.00
1332.191, 51012.00
1333.255, 51028.00
1334.318, 51054.00
1335.381, 50949.00
1336.444, 50706.00
1337.507, 51385.00
1338.569, 51150.00
1339.632, 51000.00
1340.694, 51253.00
1341.756, 51121.00
1342.818, 51288.00
1343.880, 51442.00
1344.941, 51367.00
1346.003, 51531.00
1347.064, 51488.00
1348.125, 51264.00
1349.186, 51620.00
1350.247, 51401.00
1351.308, 51483.00
1352.368, 51728.00
1353.428, 51580.00
1354.489, 51540.00
1355.549, 51550.00
1356.608, 51576.00
1357.668, 51661.00
1358.727, 51862.00
1359.787, 51984.00
1360.846, 51922.00
1361.905, 51753.00
1362.964, 52018.00
1364.022, 52009.00
1365.081, 52135.00
1366.139, 51785.00
1367.197, 52097.00
1368.255, 51912.00
1369.313, 52054.00
1370.371, 52258.00
1371.428, 52245.00
1372.486, 52218.00
1373.543, 52576.00
1374.600, 52234.00
1375.657, 52567.00
1376.713, 52588.00
1377.770, 52381.00
1378.826, 52465.00
1379.882, 52492.00
1380.938, 52868.00
1381.994, 52674.00
1383.050, 52473.00
1384.106, 53016.00
1385.161, 52697.00
1386.216, 52593.00
1387.271, 52776.00
1388.326, 53010.00
1389.381, 52706.00
1390.435, 53047.00
1391.490, 53000.00
1392.544, 52834.00
1393.598, 52827.00
1394.652, 52690.00
1395.705, 53139.00
1396.759, 53006.00
1397.812, 52992.00
1398.866, 53037.00
1399.919, 52956.00
1400.972, 52981.62
1402.024, 53104.00
1403.077, 53036.00
1404.129, 53106.00
1405.181, 53272.00
1406.233, 53190.00
1407.285, 53190.00
1408.337, 53363.00
1409.389, 53339.00
1410.440, 53445.72
1411.491, 53392.00
1412.542, 53617.00
1413.593, 53470.00
1414.644, 53547.00
1415.695, 53637.00
1416.745, 53878.00
1417.795, 53919.00
1418.845, 53925.00
1419.895, 53606.00
1420.945, 53568.00
1421.995, 53685.00
1423.044, 53862.00
1424.093, 54046.00
1425.142, 54007.00
1426.191, 53829.00
1427.240, 53821.00
1428.289, 53834.51
1429.337, 53772.00
1430.385, 54016.00
1431.433, 54288.00
1432.481, 54553.00
1433.529, 54343.00
1434.577, 54384.00
1435.624, 54645.00
1436.672, 54551.00
1437.719, 54603.00
1438.766, 54694.00
1439.812, 54649.00
1440.859, 54719.28
1441.905, 54812.05
1442.952, 54857.00
1443.998, 54961.00
1445.044, 55201.00
1446.090, 55145.00
1447.135, 55152.00
1448.181, 55382.00
1449.226, 55330.00
1450.271, 55518.00
1451.316, 55409.00
1452.361, 55526.00
1453.405, 55557.00
1454.450, 55504.00
1455.494, 55632.00
1456.538, 55681.00
1457.582, 55590.00
1458.626, 55735.00
1459.670, 55369.00
1460.713, 55896.00
1461.757, 55889.00
1462.800, 55580.00
1463.843, 55741.00
1464.886, 55760.00
1465.928, 55668.00
1466.971, 55422.00
1468.013, 55663.00
1469.055, 55744.00
1470.097, 55884.00
1471.139, 56039.00
1472.181, 55669.00
1473.222, 55308.00
1474.263, 55629.00
1475.305, 55776.00
1476.346, 56130.00
1477.386, 55887.00
1478.427, 55850.00
1479.468, 55828.00
1480.508, 55763.81
1481.548, 56137.00
1482.588, 55898.00
1483.628, 56081.00
1484.668, 56422.00
1485.707, 56002.00
1486.747, 56052.00
1487.786, 56320.00
1488.825, 56425.00
1489.864, 56213.00
1490.902, 56337.00
1491.941, 56045.00
1492.979, 56219.00
1494.017, 56159.00
1495.055, 56463.00
1496.093, 56128.00
1497.131, 56454.00
1498.168, 56209.00
1499.206, 56351.00
1500.243, 56387.00
1501.280, 56106.00
1502.317, 56781.00
1503.354, 56722.00
1504.390, 56462.00
1505.426, 56505.00
1506.463, 56900.00
1507.499, 56770.00
1508.535, 56688.00
1509.570, 56823.00
1510.606, 56468.00
1511.641, 56817.00
1512.676, 57042.00
1513.711, 57128.00
1514.746, 56862.00
1515.781, 56721.00
1516.816, 57048.00
1517.850, 57153.00
1518.884, 56993.00
1519.918, 57257.00
1520.952, 57206.00
1521.986, 57381.00
1523.019, 57259.00
1524.053, 57404.00
1525.086, 57483.00
1526.119, 57539.00
1527.152, 57706.00
1528.185, 57537.00
1529.217, 57310.00
1530.250, 57441.00
1531.282, 57606.00
1532.314, 58050.00
1533.346, 57501.00
1534.377, 57787.00
1535.409, 57383.00
1536.440, 57923.00
1537.472, 57613.00
1538.503, 58045.00
1539.534, 58166.00
1540.564, 57688.00
1541.595, 58088.00
1542.625, 58040.00
1543.656, 58109.00
1544.686, 58002.00
1545.716, 57953.99
1546.745, 57864.00
1547.775, 57894.00
1548.804, 57919.24
1549.834, 58318.00
1550.863, 58079.00
1551.892, 58326.00
1552.920, 58462.00
1553.949, 58261.00
1554.977, 58493.00
1556.006, 58375.00
1557.034, 58371.00
1558.062, 58554.00
1559.089, 58737.00
1560.117, 58480.00
1561.144, 58604.00
1562.172, 58237.00
1563.199, 58551.00
1564.226, 58640.00
1565.252, 58664.00
1566.279, 58683.00
1567.305, 58754.00
1568.332, 58994.00
1569.358, 58848.00
1570.384, 58990.00
##END=



