##NAMES=Actinolite
##RRUFFID=R050336
##IDEAL CHEMISTRY=Ca_2_(Mg_4.5-2.5_Fe^2+^_0.5-2.5_)Si_8_O_22_(OH)_2_
##LOCALITY=Kragerø, Norway
##OWNER=RRUFF
##SOURCE=California Institute of Technology
##DESCRIPTION=Dark green prismatic fragment
##STATUS=The identification of this mineral has been confirmed by X-ray diffraction and chemical analysis
##URL=rruff.info/R050336
##MEASURED CHEMISTRY=([box]_0.62_Na_0.34_K_0.04_)(Ca_1.60_Na_0.40_)_Σ=2_(Mg_3.90_Fe^2+^_0.70_Al_0.20_Ti_0.10_Fe^3+^_0.10_)_Σ=5_(Si_7.52_Al_0.48_)_Σ=8_O_22_((OH)_0.97_F_0.03_)_2_
##PIN_ID=M00375
##ORIENTATION=Laser parallel to b* (0 1 0). Fiducial mark perpendicular to laser is parallel to -c [0 0 -1]
144.8170, 2490.000
146.0460, 2550.955
147.2750, 2657.000
148.5030, 2776.000
149.7320, 2927.000
150.9600, 3114.000
152.1880, 3381.000
153.4160, 3562.000
154.6440, 3726.000
155.8720, 4045.000
157.0990, 4213.000
158.3270, 4541.000
159.5540, 4653.000
160.7810, 4637.000
162.0080, 4649.000
163.2350, 4519.000
164.4610, 4430.000
165.6880, 4269.000
166.9140, 4194.000
168.1400, 4183.000
169.3660, 4258.000
170.5920, 4369.000
171.8180, 4585.000
173.0430, 4760.000
174.2690, 4841.000
175.4940, 5016.000
176.7190, 5031.000
177.9440, 5006.309
179.1680, 4905.000
180.3930, 4800.000
181.6170, 4729.000
182.8420, 4518.000
184.0660, 4239.000
185.2900, 4154.000
186.5140, 3957.000
187.7370, 3820.000
188.9610, 3725.000
190.1840, 3610.000
191.4070, 3582.000
192.6300, 3544.000
193.8530, 3505.000
195.0760, 3474.000
196.2980, 3483.000
197.5210, 3507.000
198.7430, 3530.000
199.9650, 3523.000
201.1870, 3645.000
202.4090, 3787.000
203.6310, 3641.000
204.8520, 3764.000
206.0730, 3925.000
207.2950, 3938.000
208.5160, 4171.000
209.7360, 4388.000
210.9570, 4647.000
212.1780, 4966.000
213.3980, 5273.000
214.6180, 5629.000
215.8380, 5913.000
217.0580, 6368.000
218.2780, 6563.000
219.4980, 6744.000
220.7170, 6915.000
221.9360, 6958.000
223.1560, 6945.000
224.3750, 6782.000
225.5930, 6474.000
226.8120, 6158.000
228.0310, 5759.000
229.2490, 5390.000
230.4670, 5053.000
231.6850, 4737.826
232.9030, 4450.181
234.1210, 4198.731
235.3380, 3970.000
236.5560, 3778.000
237.7730, 3575.000
238.9900, 3387.000
240.2070, 3367.000
241.4240, 3261.000
242.6410, 3175.000
243.8570, 3168.000
245.0730, 3046.000
246.2900, 3013.000
247.5060, 3019.000
248.7210, 2958.000
249.9370, 2960.000
251.1530, 2898.000
252.3680, 2820.267
253.5830, 2810.724
254.7980, 2790.504
256.0130, 2760.184
257.2280, 2689.507
258.4430, 2670.942
259.6570, 2631.520
260.8720, 2591.215
262.0860, 2580.012
263.3000, 2515.233
264.5130, 2503.597
265.7270, 2470.731
266.9410, 2495.000
268.1540, 2463.000
269.3670, 2517.000
270.5800, 2472.000
271.7930, 2489.000
273.0060, 2484.000
274.2190, 2468.000
275.4310, 2452.000
276.6430, 2460.000
277.8550, 2505.000
279.0670, 2570.000
280.2790, 2528.000
281.4910, 2629.000
282.7020, 2647.000
283.9140, 2687.000
285.1250, 2725.000
286.3360, 2761.527
287.5470, 2799.000
288.7570, 2852.000
289.9680, 2857.000
291.1780, 2910.000
292.3880, 2868.000
293.5990, 2915.000
294.8080, 2908.000
296.0180, 3042.000
297.2280, 3010.000
298.4370, 3112.000
299.6470, 3113.000
300.8560, 3119.000
302.0650, 3057.000
303.2740, 3046.000
304.4820, 3081.000
305.6910, 3053.000
306.8990, 3011.000
308.1070, 3074.000
309.3150, 3009.000
310.5230, 2933.000
311.7310, 2917.000
312.9390, 2925.000
314.1460, 2913.000
315.3530, 2946.000
316.5600, 2976.000
317.7670, 2991.000
318.9740, 3050.000
320.1810, 3016.000
321.3870, 3077.000
322.5930, 3129.000
323.8000, 3114.000
325.0060, 3245.000
326.2110, 3318.000
327.4170, 3425.000
328.6230, 3439.000
329.8280, 3515.000
331.0330, 3556.000
332.2380, 3537.000
333.4430, 3526.000
334.6480, 3575.000
335.8530, 3534.000
337.0570, 3569.000
338.2610, 3508.000
339.4650, 3531.000
340.6690, 3490.000
341.8730, 3364.000
343.0770, 3313.000
344.2800, 3316.000
345.4840, 3246.000
346.6870, 3241.000
347.8900, 3204.000
349.0930, 3193.000
350.2950, 3139.000
351.4980, 3164.000
352.7000, 3071.000
353.9030, 3041.000
355.1050, 3027.000
356.3070, 3045.576
357.5080, 3134.000
358.7100, 3152.000
359.9110, 3252.000
361.1130, 3316.000
362.3140, 3366.000
363.5150, 3465.456
364.7160, 3583.000
365.9160, 3638.000
367.1170, 3711.000
368.3170, 3741.747
369.5170, 3779.000
370.7170, 3744.000
371.9170, 3708.000
373.1170, 3652.000
374.3170, 3539.000
375.5160, 3498.000
376.7150, 3483.000
377.9140, 3417.000
379.1130, 3414.000
380.3120, 3381.000
381.5110, 3439.000
382.7090, 3499.000
383.9070, 3496.000
385.1060, 3643.000
386.3040, 3716.000
387.5010, 3801.000
388.6990, 3837.000
389.8970, 3893.888
391.0940, 3983.000
392.2910, 3938.000
393.4880, 3946.000
394.6850, 3892.000
395.8820, 3594.000
397.0780, 3551.000
398.2750, 3449.000
399.4710, 3197.000
400.6670, 3147.000
401.8630, 3106.000
403.0590, 3064.000
404.2540, 3030.788
405.4500, 3014.013
406.6450, 2997.000
407.8400, 2997.000
409.0350, 3037.000
410.2300, 3042.000
411.4250, 3103.000
412.6190, 3177.000
413.8140, 3094.000
415.0080, 3092.000
416.2020, 3202.000
417.3960, 3119.000
418.5900, 3082.000
419.7830, 3045.000
420.9770, 2983.000
422.1700, 2938.000
423.3630, 2958.000
424.5560, 2840.000
425.7490, 2871.000
426.9410, 2881.000
428.1340, 2810.000
429.3260, 2915.000
430.5180, 2790.000
431.7100, 2801.000
432.9020, 2790.000
434.0940, 2777.000
435.2850, 2758.985
436.4770, 2682.000
437.6680, 2665.000
438.8590, 2611.000
440.0500, 2577.500
441.2410, 2475.000
442.4310, 2508.000
443.6220, 2445.000
444.8120, 2384.000
446.0020, 2391.000
447.1920, 2383.000
448.3820, 2417.000
449.5710, 2351.000
450.7610, 2381.000
451.9500, 2351.000
453.1390, 2297.000
454.3280, 2318.000
455.5170, 2348.000
456.7060, 2328.000
457.8940, 2291.000
459.0830, 2301.000
460.2710, 2318.000
461.4590, 2345.000
462.6470, 2327.000
463.8350, 2294.000
465.0220, 2335.000
466.2100, 2330.000
467.3970, 2269.000
468.5840, 2312.000
469.7710, 2310.000
470.9580, 2301.000
472.1440, 2351.000
473.3310, 2338.157
474.5170, 2290.000
475.7030, 2343.000
476.8890, 2333.000
478.0750, 2318.000
479.2610, 2322.000
480.4460, 2347.000
481.6320, 2353.000
482.8170, 2405.000
484.0020, 2329.000
485.1870, 2384.000
486.3710, 2307.000
487.5560, 2344.000
488.7400, 2335.000
489.9250, 2345.000
491.1090, 2378.000
492.2930, 2339.000
493.4760, 2295.000
494.6600, 2375.000
495.8440, 2423.000
497.0270, 2375.000
498.2100, 2412.000
499.3930, 2462.000
500.5760, 2418.000
501.7580, 2510.000
502.9410, 2490.000
504.1230, 2501.000
505.3060, 2546.000
506.4880, 2584.000
507.6690, 2643.000
508.8510, 2629.000
510.0330, 2649.000
511.2140, 2651.000
512.3950, 2684.000
513.5760, 2756.000
514.7570, 2810.000
515.9380, 2804.000
517.1190, 2836.000
518.2990, 2862.000
519.4800, 2859.000
520.6600, 2873.000
521.8400, 2925.000
523.0190, 2923.000
524.1990, 2846.000
525.3790, 2847.000
526.5580, 2891.000
527.7370, 2905.000
528.9160, 2948.000
530.0950, 2964.000
531.2740, 3000.000
532.4520, 2989.000
533.6310, 2999.000
534.8090, 2996.000
535.9870, 2998.000
537.1650, 2990.975
538.3430, 2977.000
539.5200, 2957.000
540.6980, 2957.000
541.8750, 2911.000
543.0520, 2896.587
544.2290, 2890.000
545.4060, 2858.000
546.5820, 2820.000
547.7590, 2831.000
548.9350, 2835.000
550.1110, 2890.000
551.2870, 2831.000
552.4630, 2882.000
553.6390, 2786.000
554.8140, 2789.000
555.9900, 2786.000
557.1650, 2797.000
558.3400, 2818.000
559.5150, 2754.000
560.6900, 2706.000
561.8640, 2758.000
563.0390, 2735.000
564.2130, 2782.000
565.3870, 2775.000
566.5610, 2768.000
567.7350, 2684.000
568.9080, 2706.000
570.0820, 2726.000
571.2550, 2649.000
572.4280, 2656.000
573.6010, 2574.000
574.7740, 2579.000
575.9470, 2523.000
577.1190, 2557.000
578.2920, 2485.000
579.4640, 2449.000
580.6360, 2430.000
581.8080, 2400.000
582.9790, 2355.000
584.1510, 2353.000
585.3220, 2365.000
586.4940, 2367.000
587.6650, 2340.674
588.8360, 2254.000
590.0060, 2278.000
591.1770, 2226.000
592.3470, 2188.000
593.5180, 2174.000
594.6880, 2133.000
595.8580, 2174.000
597.0280, 2136.000
598.1970, 2197.000
599.3670, 2198.000
600.5360, 2173.000
601.7050, 2144.000
602.8740, 2168.000
604.0430, 2197.000
605.2120, 2176.000
606.3800, 2113.000
607.5490, 2207.000
608.7170, 2202.000
609.8850, 2287.000
611.0530, 2213.000
612.2210, 2249.000
613.3880, 2226.000
614.5560, 2314.000
615.7230, 2324.000
616.8900, 2316.000
618.0570, 2375.000
619.2240, 2371.000
620.3900, 2368.000
621.5570, 2429.000
622.7230, 2364.000
623.8890, 2445.000
625.0550, 2450.000
626.2210, 2529.000
627.3870, 2571.000
628.5520, 2619.000
629.7180, 2687.000
630.8830, 2695.000
632.0480, 2802.000
633.2130, 2849.000
634.3770, 2851.000
635.5420, 2945.000
636.7060, 3013.000
637.8710, 3092.000
639.0350, 3210.000
640.1990, 3282.000
641.3620, 3399.000
642.5260, 3501.751
643.6890, 3635.000
644.8530, 3728.000
646.0160, 3857.000
647.1790, 3994.000
648.3410, 4193.000
649.5040, 4278.000
650.6670, 4524.000
651.8290, 4682.000
652.9910, 4907.000
654.1530, 5105.000
655.3150, 5402.000
656.4770, 5719.000
657.6380, 6047.000
658.7990, 6390.000
659.9610, 6915.000
661.1220, 7674.000
662.2830, 8511.000
663.4430, 9341.000
664.6040, 10417.00
665.7640, 11527.00
666.9240, 12705.00
668.0850, 13833.00
669.2440, 14821.00
670.4040, 15454.00
671.5640, 15957.00
672.7230, 15591.00
673.8830, 15003.00
675.0420, 13718.00
676.2010, 12550.00
677.3590, 11157.00
678.5180, 9755.000
679.6770, 8631.000
680.8350, 7591.000
681.9930, 6777.000
683.1510, 6032.000
684.3090, 5610.000
685.4670, 5111.000
686.6240, 4814.000
687.7810, 4547.000
688.9390, 4287.000
690.0960, 4183.000
691.2530, 4064.000
692.4090, 3925.454
693.5660, 3846.111
694.7220, 3745.000
695.8790, 3690.000
697.0350, 3630.000
698.1910, 3590.577
699.3460, 3591.000
700.5020, 3499.000
701.6570, 3462.000
702.8130, 3409.000
703.9680, 3473.000
705.1230, 3515.000
706.2780, 3544.000
707.4320, 3578.000
708.5870, 3564.000
709.7410, 3636.000
710.8950, 3580.000
712.0490, 3705.000
713.2030, 3709.000
714.3570, 3785.000
715.5100, 3838.000
716.6640, 3770.000
717.8170, 3891.000
718.9700, 3901.000
720.1230, 3911.000
721.2760, 4002.000
722.4280, 3940.000
723.5810, 4041.000
724.7330, 4032.000
725.8850, 3996.000
727.0370, 4053.000
728.1890, 3987.000
729.3400, 4035.000
730.4920, 4099.000
731.6430, 4065.000
732.7940, 4023.000
733.9450, 4043.000
735.0960, 4021.000
736.2460, 3961.000
737.3970, 3952.000
738.5470, 3981.000
739.6970, 3898.000
740.8470, 3912.000
741.9970, 3822.000
743.1470, 3812.000
744.2970, 3741.921
745.4460, 3706.552
746.5950, 3660.508
747.7440, 3604.360
748.8930, 3507.859
750.0420, 3463.470
751.1900, 3398.248
752.3390, 3332.119
753.4870, 3292.000
754.6350, 3238.000
755.7830, 3194.000
756.9310, 3175.000
758.0780, 3065.000
759.2260, 3073.000
760.3730, 2979.000
761.5200, 2923.000
762.6670, 2968.000
763.8140, 2861.000
764.9610, 2874.000
766.1070, 2822.000
767.2530, 2769.000
768.4000, 2741.000
769.5460, 2696.000
770.6910, 2714.000
771.8370, 2684.000
772.9830, 2643.000
774.1280, 2700.000
775.2730, 2671.000
776.4180, 2663.000
777.5630, 2655.000
778.7080, 2665.000
779.8520, 2614.000
780.9970, 2621.000
782.1410, 2679.000
783.2850, 2583.000
784.4290, 2642.000
785.5730, 2628.000
786.7160, 2678.000
787.8600, 2534.000
789.0030, 2581.000
790.1460, 2601.000
791.2890, 2536.000
792.4320, 2609.000
793.5750, 2606.000
794.7170, 2515.000
795.8590, 2575.000
797.0020, 2567.000
798.1440, 2564.000
799.2850, 2575.076
800.4270, 2529.000
801.5690, 2558.000
802.7100, 2512.000
803.8510, 2495.000
804.9920, 2464.000
806.1330, 2428.000
807.2740, 2453.000
808.4140, 2464.000
809.5550, 2415.617
810.6950, 2405.059
811.8350, 2360.000
812.9750, 2339.000
814.1150, 2376.000
815.2540, 2379.000
816.3940, 2389.000
817.5330, 2362.000
818.6720, 2377.000
819.8110, 2370.000
820.9500, 2294.000
822.0880, 2313.000
823.2270, 2314.000
824.3650, 2296.000
825.5030, 2309.000
826.6410, 2367.000
827.7790, 2275.000
828.9170, 2326.000
830.0540, 2295.000
831.1920, 2279.000
832.3290, 2302.000
833.4660, 2263.000
834.6030, 2261.000
835.7390, 2225.000
836.8760, 2250.000
838.0120, 2228.000
839.1480, 2222.464
840.2840, 2200.000
841.4200, 2206.000
842.5560, 2233.000
843.6920, 2220.000
844.8270, 2249.000
845.9620, 2196.000
847.0970, 2230.000
848.2320, 2229.000
849.3670, 2266.000
850.5020, 2205.000
851.6360, 2282.000
852.7700, 2235.000
853.9040, 2302.000
855.0380, 2259.000
856.1720, 2227.000
857.3060, 2262.000
858.4390, 2246.875
859.5730, 2261.000
860.7060, 2272.000
861.8390, 2310.000
862.9720, 2312.000
864.1040, 2337.000
865.2370, 2286.000
866.3690, 2347.000
867.5010, 2300.000
868.6330, 2372.000
869.7650, 2362.000
870.8970, 2378.000
872.0290, 2417.000
873.1600, 2365.000
874.2910, 2414.000
875.4220, 2459.000
876.5530, 2429.000
877.6840, 2445.000
878.8140, 2496.000
879.9450, 2463.000
881.0750, 2553.000
882.2050, 2537.000
883.3350, 2511.000
884.4650, 2603.000
885.5950, 2585.000
886.7240, 2613.000
887.8530, 2600.000
888.9820, 2674.000
890.1110, 2669.000
891.2400, 2633.000
892.3690, 2749.000
893.4970, 2656.000
894.6260, 2727.000
895.7540, 2720.000
896.8820, 2696.000
898.0100, 2701.000
899.1370, 2722.000
900.2650, 2717.000
901.3920, 2712.000
902.5200, 2773.000
903.6470, 2753.000
904.7730, 2763.000
905.9000, 2835.000
907.0270, 2888.000
908.1530, 2849.000
909.2790, 2865.000
910.4050, 2966.000
911.5310, 2966.000
912.6570, 2948.000
913.7830, 3029.000
914.9080, 3098.000
916.0330, 3055.000
917.1580, 3184.000
918.2830, 3178.000
919.4080, 3402.000
920.5330, 3400.000
921.6570, 3489.000
922.7820, 3584.000
923.9060, 3614.000
925.0300, 3678.000
926.1540, 3682.000
927.2770, 3738.000
928.4010, 3670.000
929.5240, 3709.000
930.6470, 3682.000
931.7700, 3589.000
932.8930, 3473.000
934.0160, 3474.000
935.1380, 3382.000
936.2610, 3326.000
937.3830, 3315.000
938.5050, 3282.000
939.6270, 3228.000
940.7490, 3259.000
941.8700, 3195.000
942.9910, 3187.000
944.1130, 3135.000
945.2340, 3159.000
946.3550, 3072.000
947.4750, 3108.000
948.5960, 3092.000
949.7160, 3083.000
950.8370, 3048.000
951.9570, 3021.000
953.0770, 2949.000
954.1970, 2907.000
955.3160, 2889.000
956.4360, 2827.000
957.5550, 2796.000
958.6740, 2811.000
959.7930, 2819.000
960.9120, 2842.000
962.0310, 2826.326
963.1490, 2787.000
964.2670, 2804.000
965.3860, 2783.000
966.5040, 2789.732
967.6210, 2774.687
968.7390, 2755.000
969.8570, 2746.000
970.9740, 2697.000
972.0910, 2690.000
973.2080, 2683.000
974.3250, 2643.000
975.4420, 2597.000
976.5580, 2641.000
977.6750, 2594.000
978.7910, 2611.905
979.9070, 2616.561
981.0230, 2635.000
982.1390, 2608.000
983.2540, 2619.000
984.3700, 2576.000
985.4850, 2613.000
986.6000, 2585.000
987.7150, 2599.000
988.8300, 2552.000
989.9450, 2635.000
991.0590, 2650.000
992.1730, 2606.000
993.2880, 2698.000
994.4010, 2713.000
995.5150, 2665.000
996.6290, 2718.000
997.7420, 2740.644
998.8560, 2786.070
999.9690, 2820.802
1001.082, 2845.432
1002.195, 2829.707
1003.307, 2866.075
1004.420, 2881.576
1005.532, 2896.203
1006.645, 2939.925
1007.757, 2930.050
1008.868, 2973.271
1009.980, 2995.309
1011.092, 3027.051
1012.203, 3037.761
1013.314, 3054.962
1014.425, 3093.181
1015.536, 3119.763
1016.647, 3128.053
1017.758, 3160.393
1018.868, 3149.746
1019.978, 3176.805
1021.088, 3220.131
1022.198, 3229.459
1023.308, 3239.911
1024.418, 3293.701
1025.527, 3338.628
1026.637, 3375.322
1027.746, 3373.469
1028.855, 3425.567
1029.963, 3458.583
1031.072, 3492.615
1032.181, 3557.559
1033.289, 3570.720
1034.397, 3638.836
1035.505, 3687.585
1036.613, 3747.872
1037.721, 3788.975
1038.828, 3838.361
1039.935, 3902.000
1041.043, 4023.000
1042.150, 4084.000
1043.257, 4254.000
1044.363, 4372.000
1045.470, 4565.000
1046.576, 4610.000
1047.682, 4796.000
1048.788, 5039.000
1049.894, 5220.000
1051.000, 5522.000
1052.106, 5644.000
1053.211, 5899.000
1054.316, 5993.000
1055.421, 6232.000
1056.526, 6325.000
1057.631, 6508.000
1058.736, 6330.000
1059.840, 6269.000
1060.944, 6063.000
1062.049, 5898.988
1063.153, 5704.133
1064.256, 5445.000
1065.360, 5243.000
1066.463, 4864.000
1067.567, 4602.000
1068.670, 4332.000
1069.773, 4153.000
1070.876, 3932.000
1071.978, 3777.000
1073.081, 3583.000
1074.183, 3499.000
1075.285, 3348.000
1076.387, 3251.000
1077.489, 3110.000
1078.591, 3053.000
1079.692, 2958.000
1080.794, 2924.000
1081.895, 2864.000
1082.996, 2791.000
1084.097, 2773.000
1085.198, 2731.000
1086.298, 2746.000
1087.399, 2661.000
1088.499, 2633.000
1089.599, 2542.000
1090.699, 2527.000
1091.799, 2520.000
1092.898, 2481.000
1093.998, 2487.000
1095.097, 2451.000
1096.196, 2422.000
1097.295, 2400.000
1098.394, 2427.000
1099.492, 2368.000
1100.591, 2389.000
1101.689, 2352.000
1102.787, 2352.000
1103.885, 2382.000
1104.983, 2342.000
1106.081, 2347.000
1107.178, 2307.000
1108.275, 2315.000
1109.373, 2261.000
1110.470, 2287.000
1111.566, 2270.000
1112.663, 2250.450
1113.760, 2283.000
1114.856, 2220.000
1115.952, 2230.000
1117.048, 2214.000
1118.144, 2241.000
1119.240, 2218.341
1120.335, 2197.000
1121.431, 2182.000
1122.526, 2182.000
1123.621, 2157.000
1124.716, 2167.000
1125.810, 2120.000
1126.905, 2097.000
1127.999, 2131.000
1129.094, 2114.000
1130.188, 2169.000
1131.282, 2091.000
1132.375, 2100.000
1133.469, 2145.000
1134.562, 2074.000
1135.656, 2110.000
1136.749, 2027.000
1137.842, 2087.000
1138.935, 2093.000
1140.027, 2078.000
1141.120, 2008.000
1142.212, 2005.000
1143.304, 2032.000
1144.396, 1995.000
1145.488, 1984.000
1146.579, 1985.000
1147.671, 1942.000
1148.762, 1968.000
1149.853, 1979.000
1150.944, 1986.000
1152.035, 2032.000
1153.126, 1953.000
1154.216, 1944.000
1155.307, 1988.000
1156.397, 1999.000
1157.487, 1974.000
1158.577, 2004.000
1159.667, 1979.000
1160.756, 1971.000
1161.846, 2006.000
1162.935, 1943.000
1164.024, 1957.000
1165.113, 1975.000
1166.201, 1969.000
1167.290, 1928.000
1168.378, 1939.000
1169.467, 1933.000
1170.555, 1942.000
1171.643, 1870.000
1172.730, 1992.000
1173.818, 1976.000
1174.905, 1903.000
1175.993, 1977.000
1177.080, 1972.000
1178.167, 1939.000
1179.254, 1983.000
1180.340, 1954.000
1181.427, 1982.000
1182.513, 1929.000
1183.599, 1876.000
1184.685, 1925.000
1185.771, 1956.000
1186.856, 1923.000
1187.942, 1993.000
1189.027, 1941.000
1190.112, 1936.000
1191.197, 1964.000
1192.282, 1929.000
1193.367, 1941.000
1194.451, 1941.000
1195.536, 1925.000
1196.620, 1877.000
1197.704, 1960.000
1198.788, 1911.000
1199.872, 1915.000
1200.955, 1947.000
1202.039, 1877.000
1203.122, 1924.000
1204.205, 1917.000
1205.288, 1945.000
1206.370, 1932.000
1207.453, 1920.000
1208.535, 1956.000
1209.618, 1899.000
1210.700, 1898.000
1211.782, 1878.000
1212.863, 1966.000
1213.945, 1919.000
1215.026, 1934.000
1216.108, 1941.000
1217.189, 1926.000
1218.270, 1928.000
1219.351, 1915.000
1220.431, 1926.000
1221.512, 1927.000
1222.592, 1940.000
1223.672, 1939.000
1224.752, 1917.000
1225.832, 1919.000
1226.911, 1902.000
1227.991, 1944.000
1229.070, 1947.000
1230.149, 1948.000
1231.228, 1966.000
1232.307, 1929.000
1233.386, 1898.000
1234.464, 1902.297
1235.543, 1973.000
1236.621, 1899.000
1237.699, 1922.000
1238.777, 1944.000
1239.855, 1915.000
1240.932, 1926.000
1242.009, 1919.000
1243.087, 1935.000
1244.164, 1984.000
1245.241, 1905.000
1246.317, 1912.000
1247.394, 1934.000
1248.470, 1980.000
1249.546, 1952.000
1250.623, 1956.000
1251.698, 1959.000
1252.774, 1977.000
1253.850, 1927.000
1254.925, 1965.000
1256.000, 1973.000
1257.076, 1955.000
1258.150, 1995.000
1259.225, 1982.000
1260.300, 1966.000
1261.374, 1956.000
1262.449, 1913.000
1263.523, 1952.000
1264.597, 1944.000
1265.670, 1918.000
1266.744, 1971.000
1267.818, 1946.000
1268.891, 1905.000
1269.964, 1914.000
1271.037, 1913.000
1272.110, 1975.000
1273.183, 1954.000
1274.255, 1998.000
1275.327, 1951.000
1276.400, 2007.000
1277.472, 1926.000
1278.543, 1986.000
1279.615, 1979.000
1280.687, 1938.000
1281.758, 1976.000
1282.829, 1964.011
1283.900, 2011.228
1284.971, 2037.095
1286.042, 2042.759
1287.112, 1967.712
1288.183, 1996.887
1289.253, 1984.295
1290.323, 1969.991
1291.393, 2013.836
1292.463, 1950.528
1293.532, 1993.453
1294.602, 1993.971
1295.671, 2013.899
1296.740, 1991.800
1297.809, 1982.681
1298.878, 2015.603
1299.946, 2025.248
1301.015, 1998.311
1302.083, 2019.474
1303.151, 2004.000
1304.219, 1976.000
1305.287, 1975.000
1306.354, 1951.000
1307.422, 1989.000
1308.489, 1994.000
1309.556, 2005.000
1310.623, 1967.000
1311.690, 1972.138
1312.757, 1977.000
1313.823, 1958.000
1314.890, 1971.000
1315.956, 1986.000
1317.022, 1910.000
1318.088, 1947.000
1319.153, 1951.000
1320.219, 1985.000
1321.284, 1971.000
1322.349, 2016.000
1323.414, 2005.448
1324.479, 1979.000
1325.544, 1992.000
1326.608, 1978.000
1327.673, 1960.000
1328.737, 1979.000
1329.801, 1988.000
1330.865, 1987.000
1331.929, 1999.000
1332.992, 1954.000
1334.056, 1939.000
1335.119, 2001.000
1336.182, 1935.000
1337.245, 2010.000
1338.308, 1988.000
1339.370, 1937.000
1340.433, 1941.000
1341.495, 1982.000
1342.557, 1907.000
1343.619, 1952.000
1344.681, 1960.000
1345.742, 1952.000
1346.804, 1973.000
1347.865, 2009.000
1348.926, 2011.000
1349.987, 2035.000
1351.048, 1949.000
1352.108, 1938.000
1353.169, 1958.000
1354.229, 2011.000
1355.289, 1924.000
1356.349, 2007.000
1357.409, 1987.000
1358.469, 1995.000
1359.528, 1967.000
1360.588, 1946.000
1361.647, 2005.000
1362.706, 1988.000
1363.765, 1960.000
1364.823, 2024.000
1365.882, 1980.000
1366.940, 1994.000
1367.998, 1929.000
1369.056, 1946.000
1370.114, 1933.000
1371.172, 2013.000
1372.229, 2007.000
1373.287, 1947.000
1374.344, 1988.000
1375.401, 1959.000
1376.458, 1896.000
1377.515, 1993.000
1378.571, 1977.000
1379.628, 1930.000
1380.684, 1966.000
1381.740, 1894.838
1382.796, 1957.791
1383.852, 1994.414
1384.907, 2006.079
1385.963, 1920.182
1387.018, 1958.641
1388.073, 1946.270
1389.128, 1931.134
1390.183, 1985.068
1391.237, 1909.710
1392.292, 1961.120
1393.346, 1960.937
1394.400, 1971.000
1395.454, 1985.000
1396.508, 1960.000
1397.562, 1971.000
1398.615, 1973.000
1399.668, 1944.000
1400.722, 1965.000
1401.775, 1986.000
1402.827, 1987.000
1403.880, 1992.679
1404.933, 1993.212
1405.985, 1980.000
1407.037, 1986.000
1408.089, 1969.000
1409.141, 1968.000
1410.193, 1989.000
1411.244, 1961.000
1412.295, 1951.000
1413.347, 2037.000
1414.398, 2011.000
1415.449, 2013.000
1416.499, 2015.000
1417.550, 1967.000
1418.600, 2013.000
1419.650, 1964.000
1420.700, 1998.000
1421.750, 2017.000
1422.800, 1985.000
1423.850, 1980.000
1424.899, 2034.000
1425.948, 1949.000
1426.997, 2023.000
1428.046, 2020.000
1429.095, 2024.000
1430.144, 2059.000
1431.192, 2045.000
1432.240, 2022.000
1433.288, 2018.000
1434.336, 2002.000
1435.384, 2059.000
1436.432, 2065.000
1437.479, 2080.000
1438.526, 2074.000
1439.574, 2072.000
1440.621, 2063.000
1441.667, 2048.000
1442.714, 2084.000
1443.760, 2052.000
1444.807, 2081.000
1445.853, 2045.000
1446.899, 2117.000
1447.945, 2094.000
1448.990, 2049.000
1450.036, 2078.000
1451.081, 2060.000
1452.126, 2058.000
1453.171, 2004.000
1454.216, 2075.000
1455.261, 2073.000
1456.305, 2036.000
1457.350, 2091.000
1458.394, 2098.000
1459.438, 2049.000
1460.482, 2065.000
1461.526, 2106.000
1462.569, 2036.000
1463.612, 2037.000
1464.656, 2052.000
1465.699, 2018.000
1466.742, 2028.000
1467.784, 1994.000
1468.827, 2003.000
1469.869, 2029.000
1470.912, 2073.000
1471.954, 2029.000
1472.996, 2062.000
1474.037, 2029.000
1475.079, 2020.000
1476.120, 2075.000
1477.162, 2041.000
1478.203, 2004.000
1479.244, 1956.000
1480.284, 2017.000
1481.325, 2035.000
1482.365, 1997.000
1483.406, 2047.000
1484.446, 2046.000
1485.486, 1969.000
1486.526, 2062.000
1487.565, 2041.000
1488.605, 2021.000
1489.644, 2050.000
1490.683, 1989.000
1491.722, 2003.000
1492.761, 2040.000
1493.800, 2053.000
1494.838, 1981.000
1495.876, 2020.000
1496.915, 2021.000
1497.953, 2073.000
1498.990, 2065.216
1500.028, 2014.000
1501.066, 2056.000
1502.103, 1992.000
1503.140, 1974.000
1504.177, 2004.000
1505.214, 1994.000
1506.251, 2000.000
1507.287, 1988.000
1508.324, 1979.000
1509.360, 2039.000
1510.396, 1994.000
1511.432, 1938.000
1512.468, 2017.000
1513.503, 2006.000
1514.538, 2018.000
1515.574, 2035.000
1516.609, 2009.000
1517.644, 1999.000
1518.678, 1984.000
1519.713, 2002.000
1520.747, 2012.000
1521.782, 2044.000
1522.816, 2031.252
1523.850, 2029.000
1524.883, 2011.000
1525.917, 2001.000
1526.951, 1991.000
1527.984, 1997.000
1529.017, 2031.000
1530.050, 2019.000
1531.083, 2058.000
1532.115, 2017.000
1533.148, 2008.000
1534.180, 2059.000
1535.212, 2007.000
1536.244, 1996.000
1537.276, 1995.000
1538.308, 2059.000
1539.339, 1964.000
1540.370, 2034.000
1541.402, 2007.000
1542.433, 2031.000
1543.463, 1991.000
1544.494, 1983.000
1545.525, 1998.000
1546.555, 1997.000
1547.585, 2005.000
1548.615, 2001.000
1549.645, 2064.000
1550.675, 2003.000
1551.704, 2092.000
1552.734, 2086.000
1553.763, 2089.000
1554.792, 2079.000
1555.821, 2041.000
1556.849, 2025.000
1557.878, 2021.000
1558.906, 1989.000
1559.935, 2003.000
1560.963, 2042.000
1561.991, 2110.000
##END=



