##NAMES=Actinolite
##RRUFFID=R060045
##IDEAL CHEMISTRY=Ca_2_(Mg_4.5-2.5_Fe^2+^_0.5-2.5_)Si_8_O_22_(OH)_2_
##LOCALITY=Colorado, USA
##OWNER=RRUFF
##SOURCE=University of Arizona Mineral Museum
##DESCRIPTION=Green prismatic crystals in a radial arrangement
##STATUS=The identification of this mineral has been confirmed by X-ray diffraction and chemical analysis
##URL=rruff.info/R060045
##MEASURED CHEMISTRY=(Ca_1.99_Na_0.01_)_Σ=2_(Mg_4.20_Fe^2+^_0.59_Al_0.09_Fe^3+^_0.08_Mn_0.02_Ti_0.01_)_Σ=5_(Si_7.82_Al_0.18_)_Σ=8_O_22_(OH)_2_
##PIN_ID=M00340
##ORIENTATION=Laser parallel to -a* (-1 0 0). Fiducial mark perpendicular to laser is parallel to -b [0 -1 0]
134.1270, 16328.00
135.3560, 16314.00
136.5850, 16306.00
137.8140, 16334.19
139.0430, 16373.98
140.2710, 16427.00
141.5000, 16490.00
142.7280, 16561.00
143.9560, 16606.00
145.1840, 16681.00
146.4120, 16556.00
147.6390, 16614.00
148.8670, 16895.00
150.0940, 17058.00
151.3210, 16962.00
152.5490, 17021.00
153.7750, 16971.00
155.0020, 17084.00
156.2290, 17172.00
157.4550, 17125.00
158.6810, 17234.00
159.9080, 17224.00
161.1340, 17372.00
162.3590, 17501.00
163.5850, 17694.00
164.8110, 17946.00
166.0360, 18595.00
167.2610, 19254.00
168.4860, 19693.00
169.7110, 20251.00
170.9360, 20213.00
172.1610, 20311.00
173.3850, 19984.00
174.6100, 19932.00
175.8340, 19797.00
177.0580, 19520.00
178.2820, 19193.00
179.5050, 18841.00
180.7290, 18711.00
181.9520, 18372.00
183.1760, 18161.00
184.3990, 17908.00
185.6220, 17896.00
186.8450, 17906.00
188.0670, 17821.00
189.2900, 17850.00
190.5120, 17812.00
191.7340, 17868.00
192.9560, 17944.00
194.1780, 17921.00
195.4000, 18008.41
196.6220, 17908.00
197.8430, 18089.00
199.0640, 18105.00
200.2860, 18062.00
201.5070, 18221.00
202.7270, 18360.00
203.9480, 18443.00
205.1690, 18323.00
206.3890, 18325.00
207.6090, 18596.00
208.8290, 18632.00
210.0490, 18950.00
211.2690, 19319.00
212.4890, 19483.00
213.7080, 19758.35
214.9280, 20215.00
216.1470, 20141.00
217.3660, 20402.00
218.5850, 20541.00
219.8030, 20422.00
221.0220, 20289.00
222.2400, 20114.00
223.4590, 20020.00
224.6770, 19809.00
225.8950, 19714.00
227.1120, 19585.00
228.3300, 19505.00
229.5480, 19431.00
230.7650, 19284.00
231.9820, 19227.00
233.1990, 19186.00
234.4160, 18965.00
235.6330, 19133.00
236.8490, 19075.00
238.0660, 18966.00
239.2820, 19020.00
240.4980, 19013.00
241.7140, 19068.00
242.9300, 19136.00
244.1460, 19188.00
245.3610, 18983.00
246.5770, 18875.00
247.7920, 19218.00
249.0070, 19043.00
250.2220, 19240.00
251.4370, 19206.00
252.6510, 18895.00
253.8660, 19164.00
255.0800, 18986.00
256.2940, 19052.00
257.5080, 19113.00
258.7220, 19101.00
259.9360, 19151.46
261.1490, 19272.00
262.3630, 19136.00
263.5760, 19102.00
264.7890, 18969.00
266.0020, 19170.00
267.2150, 19046.00
268.4270, 19236.00
269.6400, 19254.00
270.8520, 19233.00
272.0640, 19369.00
273.2760, 19309.00
274.4880, 19270.00
275.7000, 19509.00
276.9120, 19392.00
278.1230, 19448.00
279.3340, 19485.00
280.5450, 19629.00
281.7560, 19592.00
282.9670, 19620.00
284.1780, 19519.00
285.3880, 19667.00
286.5980, 19594.00
287.8090, 19865.00
289.0190, 19795.00
290.2290, 19792.00
291.4380, 19658.00
292.6480, 19827.00
293.8570, 19646.00
295.0670, 19907.00
296.2760, 19800.00
297.4850, 19928.00
298.6930, 19924.00
299.9020, 19781.00
301.1110, 19894.00
302.3190, 20011.00
303.5270, 19966.00
304.7350, 19906.00
305.9430, 20035.00
307.1510, 20136.00
308.3580, 19844.00
309.5660, 20178.00
310.7730, 20031.00
311.9800, 20119.00
313.1870, 20074.00
314.3940, 20020.00
315.6010, 20097.00
316.8070, 20177.00
318.0130, 20149.00
319.2200, 20262.00
320.4260, 20309.00
321.6310, 20499.00
322.8370, 20550.73
324.0430, 20672.00
325.2480, 20704.00
326.4540, 20630.00
327.6590, 20665.00
328.8640, 20673.00
330.0680, 20630.00
331.2730, 20833.00
332.4780, 20686.00
333.6820, 20524.00
334.8860, 20698.00
336.0900, 20645.00
337.2940, 20833.00
338.4980, 20816.00
339.7010, 20803.00
340.9050, 21017.00
342.1080, 21142.00
343.3110, 20908.00
344.5140, 20996.00
345.7170, 21185.00
346.9200, 21126.00
348.1220, 21400.00
349.3240, 21340.00
350.5270, 21348.00
351.7290, 21256.00
352.9310, 21359.73
354.1320, 21484.61
355.3340, 21666.00
356.5350, 21919.00
357.7370, 22306.00
358.9380, 22650.00
360.1390, 22944.00
361.3400, 23049.00
362.5400, 23227.97
363.7410, 23466.00
364.9410, 23317.00
366.1410, 23384.00
367.3410, 23285.00
368.5410, 22880.00
369.7410, 22859.00
370.9400, 22534.00
372.1400, 22573.00
373.3390, 22344.00
374.5380, 22147.00
375.7370, 22289.00
376.9360, 22544.00
378.1350, 22789.00
379.3330, 22954.00
380.5310, 23114.00
381.7300, 23418.00
382.9280, 23517.00
384.1260, 23924.00
385.3230, 23983.00
386.5210, 24113.00
387.7180, 24098.00
388.9160, 24059.00
390.1130, 23968.16
391.3100, 23688.00
392.5060, 23562.00
393.7030, 23235.00
394.9000, 22823.00
396.0960, 22852.00
397.2920, 22735.00
398.4880, 22497.00
399.6840, 22722.00
400.8800, 22434.00
402.0750, 22532.00
403.2710, 22589.00
404.4660, 22647.00
405.6610, 22853.00
406.8560, 22876.00
408.0510, 22977.00
409.2450, 22908.00
410.4400, 22830.00
411.6340, 22613.00
412.8280, 22656.00
414.0220, 22462.00
415.2160, 22474.00
416.4100, 22441.00
417.6030, 22473.00
418.7970, 22256.00
419.9900, 22294.00
421.1830, 22333.00
422.3760, 21911.00
423.5690, 22123.00
424.7610, 22153.00
425.9540, 22232.00
427.1460, 22325.00
428.3380, 22310.00
429.5300, 22354.00
430.7220, 22158.00
431.9140, 22535.00
433.1050, 22350.00
434.2970, 22189.00
435.4880, 22385.00
436.6790, 22346.00
437.8700, 22062.00
439.0610, 22492.00
440.2510, 22234.00
441.4420, 22480.00
442.6320, 22120.00
443.8220, 22526.00
445.0120, 22483.00
446.2020, 22314.00
447.3910, 22612.00
448.5810, 22485.00
449.7700, 22371.00
450.9600, 22622.00
452.1490, 22605.00
453.3370, 22439.00
454.5260, 22718.00
455.7150, 22730.00
456.9030, 22566.00
458.0910, 22809.00
459.2800, 22830.00
460.4670, 22668.00
461.6550, 22905.00
462.8430, 22660.00
464.0300, 22735.00
465.2180, 22795.00
466.4050, 22783.00
467.5920, 22871.93
468.7790, 22887.00
469.9650, 22956.00
471.1520, 23088.00
472.3380, 23055.00
473.5250, 23114.00
474.7110, 23088.00
475.8970, 22954.00
477.0820, 23161.00
478.2680, 23186.00
479.4540, 23136.00
480.6390, 23351.00
481.8240, 23175.00
483.0090, 23222.00
484.1940, 23254.00
485.3780, 23235.00
486.5630, 23421.00
487.7470, 23433.00
488.9320, 23195.00
490.1160, 23461.00
491.3000, 23359.00
492.4830, 23309.00
493.6670, 23356.00
494.8500, 23424.00
496.0340, 23506.00
497.2170, 23411.00
498.4000, 23584.00
499.5820, 23530.00
500.7650, 23716.00
501.9480, 23679.34
503.1300, 23757.00
504.3120, 23646.00
505.4940, 23859.00
506.6760, 23882.00
507.8580, 23895.00
509.0390, 24037.00
510.2210, 23951.00
511.4020, 24055.00
512.5830, 24209.00
513.7640, 24047.00
514.9450, 24087.00
516.1250, 24247.00
517.3060, 24235.00
518.4860, 24241.00
519.6660, 24356.00
520.8460, 24355.00
522.0260, 24464.00
523.2060, 24572.00
524.3850, 24600.33
525.5650, 24636.00
526.7440, 24705.00
527.9230, 24672.00
529.1020, 24708.00
530.2810, 24549.00
531.4590, 24706.00
532.6380, 24639.00
533.8160, 24566.00
534.9940, 24671.00
536.1720, 24790.00
537.3500, 24762.00
538.5270, 24746.00
539.7050, 24667.00
540.8820, 24606.00
542.0590, 24607.16
543.2360, 24626.99
544.4130, 24669.00
545.5900, 24734.00
546.7660, 24916.00
547.9430, 24956.00
549.1190, 24965.00
550.2950, 24945.00
551.4710, 24885.00
552.6470, 24862.00
553.8220, 24846.42
554.9980, 24794.00
556.1730, 24863.00
557.3480, 24843.00
558.5230, 24927.00
559.6980, 25060.00
560.8730, 25060.84
562.0470, 25170.00
563.2220, 25137.00
564.3960, 25234.00
565.5700, 25255.00
566.7440, 25218.00
567.9170, 25383.00
569.0910, 25161.00
570.2640, 25192.00
571.4380, 25224.00
572.6110, 25120.00
573.7840, 25313.00
574.9570, 25417.00
576.1290, 25350.00
577.3020, 25454.00
578.4740, 25380.00
579.6460, 25512.00
580.8180, 25297.00
581.9900, 25513.00
583.1620, 25442.00
584.3330, 25425.00
585.5040, 25655.00
586.6760, 25306.00
587.8470, 25743.00
589.0180, 25446.00
590.1880, 25744.00
591.3590, 25949.00
592.5290, 25689.00
593.7000, 25568.00
594.8700, 25650.00
596.0400, 25587.00
597.2090, 25504.00
598.3790, 25770.00
599.5490, 25861.00
600.7180, 25613.00
601.8870, 25745.00
603.0560, 25831.00
604.2250, 25849.00
605.3940, 25957.00
606.5620, 25835.00
607.7300, 26053.00
608.8990, 26014.00
610.0670, 25951.00
611.2350, 26049.00
612.4020, 26208.00
613.5700, 26403.00
614.7370, 26357.00
615.9050, 26413.00
617.0720, 26634.00
618.2390, 26708.00
619.4060, 26608.00
620.5720, 26724.00
621.7390, 26696.00
622.9050, 26567.00
624.0710, 26691.00
625.2370, 26660.00
626.4030, 26673.00
627.5690, 26618.00
628.7340, 26565.00
629.9000, 26909.00
631.0650, 26828.00
632.2300, 26811.00
633.3950, 27061.00
634.5600, 26935.00
635.7240, 26915.00
636.8890, 27202.00
638.0530, 27190.00
639.2170, 27304.00
640.3810, 27540.00
641.5450, 27689.00
642.7080, 27679.00
643.8720, 27929.00
645.0350, 27918.38
646.1980, 28047.50
647.3610, 28088.00
648.5240, 28254.00
649.6870, 28574.00
650.8490, 28692.00
652.0120, 28964.00
653.1740, 29052.00
654.3360, 29538.00
655.4980, 29943.00
656.6600, 30287.00
657.8210, 31157.00
658.9830, 31633.00
660.1440, 32782.00
661.3050, 34002.00
662.4660, 35340.00
663.6270, 37430.00
664.7870, 39100.00
665.9480, 40638.00
667.1080, 41643.00
668.2680, 42241.00
669.4280, 41839.00
670.5880, 41167.00
671.7480, 39666.00
672.9070, 38332.00
674.0670, 36358.00
675.2260, 34794.00
676.3850, 33425.00
677.5440, 32324.00
678.7030, 31524.00
679.8610, 30783.00
681.0200, 30195.00
682.1780, 29856.00
683.3360, 29405.00
684.4940, 29219.00
685.6520, 28930.00
686.8090, 28886.00
687.9670, 28595.00
689.1240, 28516.00
690.2810, 28651.00
691.4380, 28256.00
692.5950, 28354.00
693.7520, 28211.00
694.9080, 28434.00
696.0650, 28092.00
697.2210, 28355.00
698.3770, 28194.00
699.5330, 28178.00
700.6880, 28140.00
701.8440, 28212.00
702.9990, 28079.00
704.1550, 28119.00
705.3100, 28126.00
706.4650, 28028.00
707.6190, 28195.00
708.7740, 28117.00
709.9290, 28245.00
711.0830, 28280.00
712.2370, 28473.00
713.3910, 28187.00
714.5450, 28376.00
715.6980, 28217.00
716.8520, 28098.00
718.0050, 28350.00
719.1580, 28513.00
720.3110, 28177.00
721.4640, 28547.00
722.6170, 28566.00
723.7700, 28617.00
724.9220, 28665.00
726.0740, 28708.61
727.2260, 28774.00
728.3780, 28821.00
729.5300, 28718.00
730.6810, 28778.00
731.8330, 28936.00
732.9840, 28914.00
734.1350, 29099.00
735.2860, 29024.00
736.4370, 29324.00
737.5880, 29498.00
738.7380, 29319.00
739.8880, 29364.00
741.0390, 29475.00
742.1890, 29532.00
743.3380, 29699.00
744.4880, 29610.00
745.6380, 29481.00
746.7870, 29698.00
747.9360, 29593.00
749.0850, 29309.00
750.2340, 29668.00
751.3830, 29632.00
752.5310, 29395.00
753.6800, 29509.00
754.8280, 29325.00
755.9760, 29540.00
757.1240, 29379.00
758.2720, 29464.00
759.4190, 29211.00
760.5670, 29489.00
761.7140, 29467.00
762.8610, 29560.00
764.0080, 29636.00
765.1550, 29718.00
766.3020, 29458.00
767.4480, 29869.00
768.5950, 29882.00
769.7410, 29456.00
770.8870, 29626.00
772.0330, 29596.00
773.1780, 29611.00
774.3240, 29631.00
775.4690, 29589.00
776.6140, 29878.00
777.7590, 29797.00
778.9040, 29893.00
780.0490, 29725.00
781.1940, 29647.00
782.3380, 30027.00
783.4820, 29831.00
784.6260, 29772.00
785.7700, 29993.00
786.9140, 29996.00
788.0580, 29975.00
789.2010, 30111.00
790.3450, 30196.00
791.4880, 30112.00
792.6310, 30141.00
793.7730, 30286.00
794.9160, 30296.00
796.0590, 30393.00
797.2010, 30362.00
798.3430, 30217.00
799.4850, 30183.00
800.6270, 30255.00
801.7690, 30398.00
802.9100, 30388.96
804.0520, 30567.00
805.1930, 30525.00
806.3340, 30602.00
807.4750, 30783.00
808.6160, 30491.00
809.7560, 30597.00
810.8970, 30588.00
812.0370, 30630.00
813.1770, 30533.00
814.3170, 30855.00
815.4570, 30939.00
816.5960, 30393.09
817.7360, 30814.76
818.8750, 31071.19
820.0140, 31171.30
821.1530, 30646.90
822.2920, 30928.93
823.4310, 30887.78
824.5690, 30931.00
825.7070, 31157.00
826.8460, 31142.00
827.9840, 31058.00
829.1220, 31127.00
830.2590, 31431.00
831.3970, 31321.14
832.5340, 31401.81
833.6710, 31305.00
834.8080, 31406.00
835.9450, 31348.00
837.0820, 31452.00
838.2190, 31639.00
839.3550, 31499.00
840.4910, 31614.00
841.6270, 31784.00
842.7630, 32037.00
843.8990, 31964.00
845.0350, 31871.00
846.1700, 31772.00
847.3060, 31907.00
848.4410, 32134.00
849.5760, 32186.00
850.7100, 32109.00
851.8450, 31922.00
852.9800, 31988.00
854.1140, 32205.00
855.2480, 32390.00
856.3820, 32356.00
857.5160, 32250.00
858.6500, 32496.00
859.7830, 32456.00
860.9170, 32473.00
862.0500, 32493.00
863.1830, 32418.00
864.3160, 32290.00
865.4480, 32261.00
866.5810, 32235.00
867.7130, 32261.00
868.8460, 32172.00
869.9780, 32454.00
871.1100, 32627.00
872.2410, 32460.00
873.3730, 32574.00
874.5050, 32525.00
875.6360, 32363.00
876.7670, 32315.00
877.8980, 32526.00
879.0290, 32450.00
880.1590, 32634.00
881.2900, 32536.00
882.4200, 32531.00
883.5500, 32509.00
884.6800, 32527.15
885.8100, 32572.93
886.9400, 32674.00
888.0690, 32652.00
889.1990, 32838.00
890.3280, 32785.00
891.4570, 32869.00
892.5860, 32920.00
893.7140, 32818.00
894.8430, 33131.00
895.9710, 33011.00
897.1000, 33079.00
898.2280, 33163.00
899.3560, 33216.00
900.4830, 32947.00
901.6110, 33310.00
902.7380, 33050.00
903.8660, 33249.00
904.9930, 33358.00
906.1200, 33134.00
907.2460, 33300.00
908.3730, 33183.00
909.5000, 33185.00
910.6260, 33529.00
911.7520, 33384.00
912.8780, 33487.00
914.0040, 33428.00
915.1290, 33617.00
916.2550, 33719.00
917.3800, 33544.00
918.5050, 33697.00
919.6300, 33675.00
920.7550, 33773.00
921.8800, 34170.00
923.0040, 34073.00
924.1290, 34307.00
925.2530, 34536.00
926.3770, 34300.00
927.5010, 34608.00
928.6250, 34518.00
929.7480, 34454.00
930.8720, 34390.00
931.9950, 34331.00
933.1180, 34277.00
934.2410, 34292.00
935.3640, 34199.00
936.4860, 34249.00
937.6090, 34211.00
938.7310, 34168.00
939.8530, 34188.66
940.9750, 34308.00
942.0970, 34193.00
943.2180, 34040.00
944.3400, 34052.00
945.4610, 34209.00
946.5820, 34300.00
947.7030, 34162.00
948.8240, 34083.00
949.9450, 34386.00
951.0650, 34605.00
952.1860, 34288.00
953.3060, 34564.00
954.4260, 34441.00
955.5460, 34463.00
956.6650, 34392.00
957.7850, 34547.00
958.9040, 34611.00
960.0230, 34698.00
961.1420, 34592.00
962.2610, 34592.00
963.3800, 34771.00
964.4990, 34638.00
965.6170, 34718.00
966.7350, 34711.00
967.8530, 34475.00
968.9710, 34623.00
970.0890, 34624.00
971.2070, 34640.00
972.3240, 34770.00
973.4410, 34915.00
974.5580, 34662.00
975.6750, 34723.00
976.7920, 35090.00
977.9090, 34770.00
979.0250, 35059.00
980.1410, 35008.00
981.2580, 35030.00
982.3740, 34981.00
983.4890, 35007.70
984.6050, 34929.00
985.7200, 35088.00
986.8360, 35049.00
987.9510, 35147.00
989.0660, 35442.00
990.1810, 35290.00
991.2950, 35432.00
992.4100, 35573.00
993.5240, 35301.00
994.6390, 35573.00
995.7530, 35663.00
996.8660, 35841.00
997.9800, 35915.00
999.0940, 36021.00
1000.207, 36057.29
1001.320, 36097.84
1002.433, 36037.00
1003.546, 36127.00
1004.659, 36043.00
1005.772, 36038.00
1006.884, 35812.00
1007.996, 36170.00
1009.108, 36370.00
1010.220, 35987.00
1011.332, 36074.00
1012.444, 36095.00
1013.555, 36273.00
1014.666, 36219.00
1015.777, 36287.00
1016.888, 36931.00
1017.999, 36721.00
1019.110, 36962.00
1020.220, 37343.00
1021.331, 37386.00
1022.441, 37410.00
1023.551, 37778.00
1024.661, 37957.00
1025.770, 38193.00
1026.880, 37680.00
1027.989, 37788.00
1029.098, 37920.00
1030.207, 37566.00
1031.316, 37736.00
1032.425, 37618.00
1033.533, 37104.00
1034.642, 37278.00
1035.750, 36974.00
1036.858, 36948.00
1037.966, 36931.00
1039.073, 36939.00
1040.181, 36966.75
1041.288, 36903.00
1042.396, 37118.00
1043.503, 37177.00
1044.610, 37382.00
1045.716, 37317.00
1046.823, 37459.00
1047.929, 37428.00
1049.036, 37420.00
1050.142, 37472.00
1051.248, 37554.57
1052.353, 37771.00
1053.459, 37821.00
1054.564, 38008.56
1055.670, 38187.00
1056.775, 38295.00
1057.880, 38305.00
1058.985, 38474.00
1060.089, 38381.00
1061.194, 38482.00
1062.298, 38502.00
1063.402, 38540.00
1064.506, 38664.00
1065.610, 39005.00
1066.713, 38665.00
1067.817, 38798.00
1068.920, 38523.00
1070.023, 38497.00
1071.126, 38309.00
1072.229, 38322.00
1073.332, 38175.00
1074.435, 38073.00
1075.537, 38027.00
1076.639, 38053.00
1077.741, 38096.00
1078.843, 37784.00
1079.945, 38034.00
1081.046, 37854.00
1082.148, 37897.00
1083.249, 38182.00
1084.350, 38146.00
1085.451, 38046.00
1086.551, 38272.00
1087.652, 38122.00
1088.752, 38050.00
1089.853, 38003.00
1090.953, 38044.00
1092.053, 37917.00
1093.152, 37906.00
1094.252, 38230.00
1095.351, 38108.00
1096.451, 38077.00
1097.550, 38477.00
1098.649, 38003.00
1099.748, 38168.00
1100.846, 38404.00
1101.945, 38321.00
1103.043, 38196.00
1104.141, 38113.00
1105.239, 38328.00
1106.337, 38093.00
1107.434, 38626.00
1108.532, 38444.00
1109.629, 38440.00
1110.726, 38519.00
1111.823, 38699.00
1112.920, 38590.00
1114.017, 38591.00
1115.113, 38494.00
1116.210, 38552.00
1117.306, 38631.00
1118.402, 38610.57
1119.498, 38579.00
1120.593, 38704.00
1121.689, 38817.00
1122.784, 38946.14
1123.879, 39009.00
1124.974, 39002.00
1126.069, 38992.00
1127.164, 38749.00
1128.259, 38697.00
1129.353, 38732.00
1130.447, 38806.00
1131.541, 38981.00
1132.635, 38919.00
1133.729, 38722.00
1134.822, 39069.00
1135.916, 38733.00
1137.009, 39054.00
1138.102, 39078.00
1139.195, 38964.00
1140.288, 39093.00
1141.380, 39070.00
1142.473, 39266.00
1143.565, 39084.00
1144.657, 38817.00
1145.749, 39256.00
1146.841, 39111.00
1147.932, 39126.00
1149.024, 39250.00
1150.115, 39354.00
1151.206, 39412.00
1152.297, 39537.00
1153.388, 39477.00
1154.479, 39649.00
1155.569, 39618.00
1156.659, 39598.95
1157.750, 39653.00
1158.839, 39491.00
1159.929, 39539.00
1161.019, 39437.00
1162.108, 39474.75
1163.198, 39735.00
1164.287, 39533.00
1165.376, 39719.00
1166.465, 39666.00
1167.553, 39980.00
1168.642, 40237.00
1169.730, 39779.00
1170.818, 39570.00
1171.906, 39873.00
1172.994, 39923.00
1174.082, 39869.00
1175.170, 40168.00
1176.257, 40049.00
1177.344, 40234.00
1178.431, 40145.00
1179.518, 40149.00
1180.605, 40280.00
1181.691, 40447.00
1182.778, 40390.00
1183.864, 40324.00
1184.950, 40431.24
1186.036, 40341.00
1187.122, 40498.00
1188.207, 40489.00
1189.292, 40446.00
1190.378, 40312.00
1191.463, 40315.00
1192.548, 40702.00
1193.632, 40343.00
1194.717, 40656.00
1195.801, 40761.00
1196.886, 40546.00
1197.970, 40810.00
1199.054, 40572.00
1200.137, 40765.00
1201.221, 40917.00
1202.305, 40651.00
1203.388, 40677.00
1204.471, 40967.00
1205.554, 41106.00
1206.637, 40996.00
1207.719, 41062.00
1208.802, 40954.00
1209.884, 40816.00
1210.966, 41119.00
1212.048, 41009.00
1213.130, 40787.00
1214.212, 41169.00
1215.293, 41078.00
1216.374, 41211.00
1217.456, 41383.00
1218.536, 41303.00
1219.617, 41272.00
1220.698, 41552.00
1221.778, 41369.00
1222.859, 41335.00
1223.939, 41510.00
1225.019, 41385.00
1226.099, 41303.00
1227.178, 41670.00
1228.258, 41286.00
1229.337, 41617.00
1230.417, 41699.00
1231.496, 41932.00
1232.574, 41905.00
1233.653, 42039.00
1234.732, 41839.00
1235.810, 41747.00
1236.888, 41929.00
1237.966, 41946.00
1239.044, 41871.00
1240.122, 41761.00
1241.199, 41994.00
1242.277, 42065.00
1243.354, 41851.00
1244.431, 42113.00
1245.508, 42291.00
1246.585, 42300.00
1247.661, 42317.00
1248.738, 42117.00
1249.814, 42274.00
1250.890, 42169.00
1251.966, 42176.00
1253.042, 42082.00
1254.117, 41827.00
1255.193, 42256.00
1256.268, 41995.00
1257.343, 42150.00
1258.418, 42362.00
1259.493, 42336.00
1260.567, 42300.00
1261.642, 42613.00
1262.716, 42585.00
1263.790, 42783.00
1264.864, 42731.00
1265.938, 42590.00
1267.011, 42643.00
1268.085, 42641.31
1269.158, 42648.90
1270.231, 42810.00
1271.304, 42823.00
1272.377, 43016.00
1273.450, 43290.00
1274.522, 42990.00
1275.594, 42788.00
1276.666, 42870.00
1277.738, 42929.00
1278.810, 43136.00
1279.882, 43078.00
1280.953, 42767.00
1282.025, 43290.00
1283.096, 43435.00
1284.167, 43213.00
1285.238, 43538.00
1286.308, 43427.00
1287.379, 43293.00
1288.449, 43443.00
1289.519, 43615.00
1290.589, 43548.00
1291.659, 43586.14
1292.729, 43487.00
1293.798, 43577.00
1294.868, 43371.00
1295.937, 43591.00
1297.006, 43481.00
1298.075, 43588.00
1299.143, 44143.00
1300.212, 43795.00
1301.280, 43729.00
1302.348, 44119.00
1303.416, 43624.00
1304.484, 43681.00
1305.552, 43961.00
1306.620, 43705.00
1307.687, 43919.00
1308.754, 44019.00
1309.821, 44118.00
1310.888, 44272.00
1311.955, 44199.00
1313.021, 44057.00
1314.088, 44393.00
1315.154, 44214.00
1316.220, 44352.00
1317.286, 44349.00
1318.352, 44487.00
1319.417, 44217.00
1320.483, 44408.00
1321.548, 44196.00
1322.613, 44490.00
1323.678, 44536.00
1324.743, 44383.00
1325.807, 44407.00
1326.872, 44430.00
1327.936, 44515.00
1329.000, 44436.00
1330.064, 44323.00
1331.128, 44348.00
1332.191, 44297.17
1333.255, 44260.00
1334.318, 44342.00
1335.381, 44355.84
1336.444, 44445.02
1337.507, 44546.00
1338.569, 44591.00
1339.632, 44796.00
1340.694, 44742.00
1341.756, 44783.00
1342.818, 44625.00
1343.880, 44831.00
1344.941, 44650.00
1346.003, 44599.00
1347.064, 44497.00
1348.125, 44678.00
1349.186, 44963.00
1350.247, 44897.00
1351.308, 45159.00
1352.368, 45017.00
1353.428, 45149.00
1354.489, 45237.00
1355.549, 45063.00
1356.608, 44957.00
1357.668, 45168.00
1358.727, 44904.00
1359.787, 45148.00
1360.846, 45306.00
1361.905, 44950.00
1362.964, 45116.00
1364.022, 45353.00
1365.081, 45304.00
1366.139, 45533.00
1367.197, 45351.00
1368.255, 45393.00
1369.313, 45471.00
1370.371, 45412.00
1371.428, 45557.00
1372.486, 45532.00
1373.543, 45407.00
1374.600, 45472.00
1375.657, 45853.00
1376.713, 45767.00
1377.770, 46555.00
1378.826, 47267.00
1379.882, 46167.00
1380.938, 46174.00
1381.994, 45879.00
1383.050, 45865.00
1384.106, 45685.00
1385.161, 45753.00
1386.216, 45695.00
1387.271, 45714.00
1388.326, 45761.02
1389.381, 45814.14
1390.435, 45862.00
1391.490, 46025.00
1392.544, 46101.00
1393.598, 46256.00
1394.652, 46259.00
1395.705, 46103.00
1396.759, 46385.00
1397.812, 46004.00
1398.866, 46082.00
1399.919, 46249.00
1400.972, 46034.00
1402.024, 46502.00
1403.077, 46207.00
1404.129, 46209.00
1405.181, 46581.00
1406.233, 46410.00
1407.285, 46493.00
1408.337, 46607.00
1409.389, 46712.00
1410.440, 46621.00
1411.491, 46405.00
1412.542, 46536.00
1413.593, 46418.00
1414.644, 46517.00
1415.695, 46604.00
1416.745, 46422.00
1417.795, 46660.00
1418.845, 46724.00
1419.895, 46850.00
1420.945, 47115.00
1421.995, 46676.00
1423.044, 46879.00
1424.093, 46556.00
1425.142, 46706.00
1426.191, 46950.00
1427.240, 46894.00
1428.289, 47066.00
1429.337, 46723.00
1430.385, 47153.00
1431.433, 47133.00
1432.481, 47217.00
1433.529, 47695.00
1434.577, 47395.00
1435.624, 47381.00
1436.672, 47612.00
1437.719, 47633.00
1438.766, 47604.00
1439.812, 47861.00
1440.859, 47927.00
1441.905, 48129.00
1442.952, 48203.00
1443.998, 48260.00
1445.044, 48024.00
1446.090, 47890.00
1447.135, 48170.00
1448.181, 48424.00
1449.226, 48397.00
1450.271, 48182.00
1451.316, 48533.00
1452.361, 48449.00
1453.405, 48341.00
1454.450, 48612.00
1455.494, 48726.00
1456.538, 48232.00
1457.582, 48962.00
1458.626, 48785.00
1459.670, 48534.00
1460.713, 48766.00
1461.757, 48602.00
1462.800, 48423.00
1463.843, 48310.00
1464.886, 48470.00
1465.928, 48181.00
1466.971, 48397.00
1468.013, 48179.00
1469.055, 48319.00
1470.097, 48333.00
1471.139, 48211.00
1472.181, 48761.00
1473.222, 48558.00
1474.263, 48690.00
1475.305, 48543.00
1476.346, 48323.00
1477.386, 48443.00
1478.427, 48555.00
1479.468, 48305.00
1480.508, 48460.00
1481.548, 48602.00
1482.588, 48362.00
1483.628, 48782.00
1484.668, 48644.00
1485.707, 48787.00
1486.747, 48728.00
1487.786, 48611.00
1488.825, 48549.00
1489.864, 48648.00
1490.902, 48728.00
1491.941, 48440.00
1492.979, 48705.00
1494.017, 48152.00
1495.055, 48679.00
1496.093, 48701.00
1497.131, 48652.00
1498.168, 48556.00
1499.206, 48637.07
1500.243, 48690.00
1501.280, 48749.00
1502.317, 48655.00
1503.354, 48696.00
1504.390, 49125.00
1505.426, 48724.00
1506.463, 48826.00
1507.499, 48709.00
1508.535, 49101.00
1509.570, 48824.00
1510.606, 49171.00
1511.641, 49263.00
1512.676, 49448.00
1513.711, 49063.00
1514.746, 49417.00
1515.781, 48941.00
1516.816, 49360.00
1517.850, 49364.00
1518.884, 49076.00
1519.918, 49348.00
1520.952, 49018.00
1521.986, 49344.00
1523.019, 49430.00
1524.053, 49298.00
1525.086, 49599.00
1526.119, 49657.00
1527.152, 49521.00
1528.185, 49826.00
1529.217, 49590.00
1530.250, 49641.00
1531.282, 49478.00
1532.314, 49516.26
1533.346, 49341.00
1534.377, 49632.00
1535.409, 49862.00
1536.440, 49955.00
1537.472, 49925.00
1538.503, 49844.00
1539.534, 49788.00
1540.564, 49778.00
1541.595, 49949.00
1542.625, 49965.00
1543.656, 50225.00
1544.686, 49916.00
1545.716, 49752.00
1546.745, 49888.00
1547.775, 49814.00
1548.804, 49787.00
1549.834, 50034.00
1550.863, 50360.00
1551.892, 49891.00
1552.920, 50569.00
1553.949, 50300.00
1554.977, 50435.00
1556.006, 50302.00
1557.034, 50325.00
1558.062, 50354.16
1559.089, 50318.40
1560.117, 50428.00
1561.144, 50345.00
1562.172, 50454.00
1563.199, 50485.00
1564.226, 50546.47
1565.252, 50612.00
1566.279, 50714.00
1567.305, 50669.00
1568.332, 50712.00
1569.358, 50740.00
1570.384, 50817.00
##END=



