##NAMES=Actinolite
##RRUFFID=R040063
##IDEAL CHEMISTRY=Ca_2_(Mg_4.5-2.5_Fe^2+^_0.5-2.5_)Si_8_O_22_(OH)_2_
##LOCALITY=Harford County, Maryland, USA
##OWNER=RRUFF
##SOURCE=University of Arizona Mineral Museum
##DESCRIPTION=Mass of green acicular to bladed crystals associated with chlorite
##STATUS=The identification of this mineral has been confirmed by X-ray diffraction and chemical analysis
##URL=rruff.info/R040063
##MEASURED CHEMISTRY=(Ca_1.90_Na_0.06_Mn_0.04_)_Σ=2_(Mg_4.35_Fe_0.65_)_Σ=5_(Si_7.92_Al_0.08_)_Σ=8_O_22_(OH)_2_
##PIN_ID=S00102
##ORIENTATION=Laser parallel to c* (0 0 1). Fiducial mark perpendicular to laser is parallel to b [0 1 0]
62.88700, 298.0000
64.13000, 304.0000
65.37400, 405.0000
66.61700, 437.0000
67.86000, 568.0000
69.10300, 698.0000
70.34600, 764.0000
71.58900, 961.0000
72.83100, 1168.000
74.07400, 1452.000
75.31600, 1667.000
76.55800, 2142.000
77.80000, 2601.000
79.04100, 2779.000
80.28300, 2827.000
81.52400, 2806.000
82.76500, 2718.000
84.00600, 2921.000
85.24700, 2954.000
86.48700, 3051.000
87.72700, 3072.000
88.96800, 3226.000
90.20800, 3424.000
91.44800, 3495.000
92.68700, 3675.000
93.92700, 3700.000
95.16600, 3812.000
96.40500, 3763.000
97.64400, 3789.000
98.88300, 3968.000
100.1210, 4084.000
101.3600, 3996.000
102.5980, 4172.000
103.8360, 4206.000
105.0740, 4401.000
106.3120, 4572.000
107.5490, 4788.000
108.7870, 4880.000
110.0240, 5064.000
111.2610, 5343.000
112.4980, 5676.000
113.7340, 6081.000
114.9710, 6920.000
116.2070, 7722.000
117.4430, 8468.000
118.6790, 8468.000
119.9150, 8147.000
121.1510, 7455.000
122.3860, 6528.000
123.6210, 5710.000
124.8560, 5326.000
126.0910, 5130.000
127.3260, 5044.000
128.5600, 4851.000
129.7950, 4737.000
131.0290, 4830.000
132.2630, 4748.000
133.4970, 4778.000
134.7300, 4775.000
135.9640, 4827.000
137.1970, 4890.000
138.4300, 5043.000
139.6630, 5088.000
140.8960, 5245.000
142.1290, 5301.000
143.3610, 5308.000
144.5930, 5417.000
145.8250, 5518.000
147.0570, 5737.000
148.2890, 5944.000
149.5210, 6666.000
150.7520, 7381.000
151.9830, 8260.000
153.2140, 9301.000
154.4450, 10900.00
155.6760, 12726.00
156.9060, 14554.00
158.1370, 16565.00
159.3670, 18034.00
160.5970, 18380.00
161.8270, 17484.00
163.0560, 16079.00
164.2860, 14457.00
165.5150, 12738.00
166.7440, 11684.00
167.9730, 11349.00
169.2020, 11625.00
170.4300, 12396.00
171.6590, 13903.00
172.8870, 15597.00
174.1150, 18021.00
175.3430, 20499.00
176.5700, 23276.00
177.7980, 25114.00
179.0250, 26217.00
180.2520, 25405.00
181.4790, 23802.00
182.7060, 21238.00
183.9330, 17963.00
185.1590, 14934.00
186.3860, 12307.00
187.6120, 10509.00
188.8380, 9286.000
190.0630, 8525.000
191.2890, 7951.000
192.5150, 7559.000
193.7400, 7413.000
194.9650, 7136.000
196.1900, 7129.000
197.4140, 7134.000
198.6390, 7045.000
199.8630, 7180.000
201.0880, 7242.000
202.3120, 7424.000
203.5350, 7620.000
204.7590, 7970.000
205.9830, 8267.000
207.2060, 8779.000
208.4290, 9364.000
209.6520, 9995.000
210.8750, 11042.00
212.0970, 12350.00
213.3200, 14041.00
214.5420, 15933.00
215.7640, 18204.00
216.9860, 20914.00
218.2080, 23992.00
219.4300, 27365.00
220.6510, 30533.00
221.8720, 33320.00
223.0930, 34845.00
224.3140, 34757.00
225.5350, 33454.00
226.7550, 31009.00
227.9760, 28030.00
229.1960, 24756.00
230.4160, 21599.00
231.6360, 19275.00
232.8550, 17177.00
234.0750, 15331.00
235.2940, 13517.00
236.5130, 12181.00
237.7320, 10865.00
238.9510, 9987.000
240.1700, 9198.000
241.3880, 8674.000
242.6070, 8270.000
243.8250, 8136.000
245.0430, 8081.000
246.2600, 8200.000
247.4780, 8150.000
248.6950, 8246.000
249.9120, 8500.000
251.1300, 8310.000
252.3460, 8275.000
253.5630, 8043.000
254.7800, 7931.000
255.9960, 7756.000
257.2120, 7545.000
258.4280, 7376.000
259.6440, 7274.000
260.8600, 7197.000
262.0750, 7054.000
263.2910, 6861.000
264.5060, 6872.000
265.7210, 6675.000
266.9360, 6493.000
268.1500, 6405.746
269.3650, 6264.450
270.5790, 6132.000
271.7930, 6110.000
273.0070, 5984.000
274.2210, 5985.000
275.4340, 5898.000
276.6480, 5922.000
277.8610, 5886.000
279.0740, 5964.000
280.2870, 5910.000
281.5000, 6044.000
282.7120, 6061.000
283.9250, 6113.000
285.1370, 6216.000
286.3490, 6418.000
287.5610, 6589.000
288.7720, 6659.000
289.9840, 6876.000
291.1950, 6977.000
292.4060, 7072.000
293.6170, 7200.000
294.8280, 7306.000
296.0390, 7470.000
297.2490, 7776.000
298.4600, 7907.000
299.6700, 8209.000
300.8800, 8496.000
302.0890, 8588.000
303.2990, 8679.000
304.5080, 8413.000
305.7180, 8352.000
306.9270, 8203.000
308.1360, 7803.000
309.3450, 7505.000
310.5530, 7174.000
311.7620, 6965.000
312.9700, 6777.000
314.1780, 6694.000
315.3860, 6594.000
316.5930, 6518.785
317.8010, 6527.000
319.0080, 6443.000
320.2150, 6457.926
321.4230, 6457.796
322.6290, 6488.000
323.8360, 6509.000
325.0430, 6477.000
326.2490, 6679.000
327.4550, 6772.000
328.6610, 7019.000
329.8670, 7190.000
331.0730, 7242.000
332.2780, 7286.000
333.4830, 7471.000
334.6880, 7415.000
335.8930, 7387.000
337.0980, 7377.000
338.3030, 7284.000
339.5070, 7395.000
340.7110, 7276.000
341.9160, 7407.000
343.1200, 7460.000
344.3230, 7634.000
345.5270, 7727.000
346.7300, 7864.000
347.9340, 8056.000
349.1370, 8242.000
350.3390, 8524.000
351.5420, 8735.000
352.7450, 8630.000
353.9470, 8765.000
355.1490, 8574.000
356.3510, 8584.000
357.5530, 8491.000
358.7550, 8458.000
359.9560, 8467.000
361.1580, 8571.000
362.3590, 8769.548
363.5600, 9026.000
364.7610, 9360.000
365.9610, 9774.000
367.1620, 10182.00
368.3620, 10632.00
369.5620, 10796.00
370.7620, 11087.00
371.9620, 10902.00
373.1620, 10812.00
374.3610, 10590.00
375.5610, 10145.00
376.7600, 9736.000
377.9590, 9427.000
379.1570, 9150.000
380.3560, 8940.345
381.5550, 8673.000
382.7530, 8732.000
383.9510, 8755.000
385.1490, 8870.000
386.3470, 9218.000
387.5440, 9687.000
388.7420, 10102.00
389.9390, 10746.00
391.1360, 11298.00
392.3330, 11911.00
393.5290, 12232.00
394.7260, 12288.00
395.9220, 11788.00
397.1190, 11343.00
398.3150, 10557.00
399.5110, 9745.000
400.7060, 9078.000
401.9020, 8637.000
403.0970, 8207.000
404.2920, 7939.000
405.4870, 7881.000
406.6820, 7834.000
407.8770, 7896.000
409.0710, 8078.000
410.2660, 8219.000
411.4600, 8326.000
412.6540, 8628.000
413.8480, 8784.000
415.0410, 8986.000
416.2350, 8998.000
417.4280, 8925.000
418.6210, 8646.000
419.8140, 8504.000
421.0070, 8368.000
422.2000, 7861.000
423.3920, 7565.000
424.5840, 7229.000
425.7770, 7270.000
426.9690, 7026.000
428.1600, 6987.000
429.3520, 6867.000
430.5430, 6871.000
431.7350, 6973.000
432.9260, 6889.000
434.1170, 7142.000
435.3070, 6987.000
436.4980, 7115.000
437.6880, 7038.000
438.8790, 6864.000
440.0690, 6908.000
441.2590, 6791.000
442.4480, 6704.000
443.6380, 6552.000
444.8270, 6429.000
446.0170, 6339.000
447.2060, 6293.000
448.3950, 6244.000
449.5830, 6275.000
450.7720, 6257.000
451.9600, 6122.000
453.1480, 6271.000
454.3360, 6178.000
455.5240, 6242.000
456.7120, 6110.000
457.9000, 6138.000
459.0870, 6156.000
460.2740, 6190.000
461.4610, 6255.000
462.6480, 6240.000
463.8350, 6236.000
465.0210, 6157.000
466.2070, 6317.000
467.3940, 6280.000
468.5800, 6241.000
469.7660, 6347.000
470.9510, 6378.000
472.1370, 6446.000
473.3220, 6426.524
474.5070, 6321.000
475.6920, 6350.000
476.8770, 6324.000
478.0620, 6282.000
479.2460, 6291.000
480.4300, 6276.223
481.6150, 6261.632
482.7980, 6299.000
483.9820, 6293.000
485.1660, 6343.000
486.3490, 6471.000
487.5330, 6477.000
488.7160, 6444.000
489.8990, 6402.000
491.0820, 6359.000
492.2640, 6401.000
493.4470, 6448.000
494.6290, 6348.000
495.8110, 6337.000
496.9930, 6495.000
498.1750, 6366.000
499.3560, 6354.000
500.5380, 6440.000
501.7190, 6436.000
502.9000, 6475.000
504.0810, 6598.000
505.2620, 6704.000
506.4420, 6734.000
507.6230, 6812.000
508.8030, 6904.000
509.9830, 6910.000
511.1630, 6981.000
512.3430, 7068.000
513.5220, 7226.000
514.7020, 7217.000
515.8810, 7411.000
517.0600, 7423.000
518.2390, 7594.000
519.4180, 7797.000
520.5960, 7863.000
521.7750, 7810.000
522.9530, 7972.000
524.1310, 8123.000
525.3090, 8180.000
526.4870, 8327.000
527.6640, 8428.000
528.8420, 8459.000
530.0190, 8627.000
531.1960, 8540.000
532.3730, 8506.000
533.5490, 8280.000
534.7260, 8154.000
535.9020, 7884.000
537.0790, 7735.000
538.2550, 7487.000
539.4310, 7472.000
540.6060, 7425.000
541.7820, 7191.000
542.9570, 7339.000
544.1320, 7117.000
545.3070, 6999.000
546.4820, 7078.000
547.6570, 7053.000
548.8310, 7067.000
550.0060, 6902.000
551.1800, 6876.000
552.3540, 6912.000
553.5280, 6860.000
554.7020, 6863.418
555.8750, 6804.000
557.0480, 6853.000
558.2220, 6847.000
559.3950, 6874.000
560.5680, 6893.000
561.7400, 6881.000
562.9130, 6907.000
564.0850, 6845.000
565.2570, 6836.000
566.4290, 6812.000
567.6010, 6887.000
568.7730, 6864.411
569.9440, 6844.000
571.1160, 6894.000
572.2870, 6872.000
573.4580, 6908.000
574.6290, 6873.000
575.7990, 6923.000
576.9700, 6864.000
578.1400, 6828.000
579.3100, 6797.000
580.4800, 6962.000
581.6500, 6830.000
582.8200, 6898.000
583.9890, 6812.000
585.1590, 6842.000
586.3280, 6799.000
587.4970, 6819.000
588.6660, 6793.000
589.8340, 6852.000
591.0030, 6763.000
592.1710, 6676.000
593.3390, 6713.000
594.5070, 6749.000
595.6750, 6753.000
596.8430, 6739.000
598.0100, 6787.000
599.1780, 6682.000
600.3450, 6765.000
601.5120, 6747.000
602.6790, 6822.000
603.8450, 6760.000
605.0120, 6919.000
606.1780, 6813.000
607.3440, 6956.000
608.5100, 6973.000
609.6760, 6930.000
610.8420, 7037.000
612.0070, 7040.000
613.1730, 7014.000
614.3380, 7026.000
615.5030, 7051.000
616.6680, 7167.000
617.8320, 7115.000
618.9970, 7224.000
620.1610, 7307.000
621.3250, 7232.000
622.4890, 7362.000
623.6530, 7391.000
624.8170, 7393.000
625.9800, 7464.000
627.1440, 7452.000
628.3070, 7500.000
629.4700, 7736.000
630.6330, 7741.000
631.7950, 7788.000
632.9580, 7949.000
634.1200, 7970.000
635.2820, 8179.000
636.4440, 8203.000
637.6060, 8390.000
638.7680, 8574.000
639.9290, 8614.000
641.0900, 8905.000
642.2520, 8929.000
643.4130, 9324.000
644.5730, 9534.000
645.7340, 9790.000
646.8950, 10208.00
648.0550, 10532.00
649.2150, 11020.00
650.3750, 11389.00
651.5350, 11849.00
652.6950, 12172.00
653.8540, 12858.00
655.0140, 13714.00
656.1730, 14247.00
657.3320, 15164.00
658.4910, 16041.00
659.6490, 17307.00
660.8080, 19035.00
661.9660, 21225.00
663.1240, 24052.00
664.2820, 27356.00
665.4400, 32238.00
666.5980, 37422.00
667.7550, 44025.00
668.9130, 51560.00
670.0700, 59448.00
671.2270, 67286.00
672.3840, 75257.00
673.5400, 77244.00
674.6970, 76903.00
675.8530, 72757.00
677.0090, 65602.00
678.1650, 56289.00
679.3210, 47579.00
680.4770, 42348.00
681.6330, 33056.00
682.7880, 27692.00
683.9430, 23840.00
685.0980, 20844.00
686.2530, 18641.00
687.4080, 16989.00
688.5620, 15844.00
689.7170, 14984.00
690.8710, 14202.00
692.0250, 13506.00
693.1790, 12895.00
694.3320, 12198.00
695.4860, 11723.00
696.6390, 11295.00
697.7930, 10732.00
698.9460, 10383.00
700.0980, 9866.000
701.2510, 9601.000
702.4040, 9266.000
703.5560, 9112.000
704.7080, 8952.000
705.8600, 8770.000
707.0120, 8615.000
708.1640, 8456.000
709.3160, 8367.281
710.4670, 8288.000
711.6180, 8240.000
712.7690, 8177.000
713.9200, 8153.438
715.0710, 8037.000
716.2220, 8038.000
717.3720, 8006.000
718.5220, 7927.000
719.6720, 7928.000
720.8220, 7875.000
721.9720, 7799.000
723.1220, 7811.276
724.2710, 7786.008
725.4200, 7797.000
726.5690, 7769.000
727.7180, 7755.000
728.8670, 7682.000
730.0160, 7787.000
731.1640, 7782.000
732.3120, 7745.000
733.4600, 7795.000
734.6080, 7816.000
735.7560, 7795.000
736.9040, 7860.000
738.0510, 7919.000
739.1980, 8053.299
740.3460, 7991.000
741.4930, 8277.000
742.6390, 8294.000
743.7860, 8146.000
744.9320, 7972.000
746.0790, 8032.000
747.2250, 8114.000
748.3710, 8244.000
749.5170, 8231.000
750.6620, 8226.000
751.8080, 8180.000
752.9530, 8204.000
754.0980, 8078.000
755.2430, 8021.000
756.3880, 7916.000
757.5330, 7881.000
758.6770, 7851.000
759.8220, 7751.000
760.9660, 7622.000
762.1100, 7737.000
763.2540, 7768.000
764.3970, 7638.000
765.5410, 7695.000
766.6840, 7638.000
767.8270, 7595.000
768.9700, 7615.000
770.1130, 7557.000
771.2560, 7539.000
772.3980, 7676.000
773.5410, 7528.000
774.6830, 7628.000
775.8250, 7716.000
776.9670, 7591.000
778.1080, 7582.000
779.2500, 7629.000
780.3910, 7553.000
781.5330, 7572.288
782.6740, 7588.000
783.8150, 7564.000
784.9550, 7547.000
786.0960, 7572.000
787.2360, 7499.000
788.3770, 7606.000
789.5170, 7638.000
790.6570, 7611.000
791.7960, 7602.000
792.9360, 7626.000
794.0750, 7569.000
795.2150, 7606.000
796.3540, 7644.000
797.4930, 7689.000
798.6310, 7669.251
799.7700, 7660.273
800.9080, 7646.000
802.0470, 7599.000
803.1850, 7639.000
804.3230, 7644.000
805.4610, 7556.000
806.5980, 7604.000
807.7360, 7534.000
808.8730, 7683.000
810.0100, 7647.000
811.1470, 7705.000
812.2840, 7707.000
813.4200, 7567.000
814.5570, 7740.000
815.6930, 7723.000
816.8290, 7751.000
817.9650, 7626.000
819.1010, 7625.000
820.2370, 7634.000
821.3720, 7793.000
822.5080, 7696.000
823.6430, 7712.000
824.7780, 7738.000
825.9130, 7705.000
827.0480, 7745.000
828.1820, 7754.000
829.3160, 7699.000
830.4510, 7691.000
831.5850, 7664.000
832.7190, 7685.245
833.8520, 7702.300
834.9860, 7752.000
836.1190, 7768.000
837.2520, 7799.000
838.3860, 7826.000
839.5180, 7818.000
840.6510, 7816.000
841.7840, 7771.000
842.9160, 7902.000
844.0480, 7798.000
845.1810, 7950.000
846.3120, 7881.000
847.4440, 7856.000
848.5760, 7799.000
849.7070, 8061.000
850.8390, 7952.000
851.9700, 8030.000
853.1010, 8054.000
854.2310, 7925.000
855.3620, 7951.000
856.4930, 7969.000
857.6230, 7991.000
858.7530, 7925.000
859.8830, 7998.000
861.0130, 7985.000
862.1430, 8102.000
863.2720, 8084.600
864.4010, 8090.000
865.5310, 8093.000
866.6600, 8061.000
867.7880, 8074.000
868.9170, 8126.000
870.0460, 8213.000
871.1740, 8062.000
872.3020, 8021.000
873.4300, 8091.000
874.5580, 8161.000
875.6860, 8127.000
876.8130, 8198.000
877.9410, 8203.062
879.0680, 8051.000
880.1950, 8235.000
881.3220, 8219.000
882.4490, 8240.000
883.5750, 8428.000
884.7020, 8307.000
885.8280, 8333.000
886.9540, 8424.000
888.0800, 8555.000
889.2060, 8549.000
890.3320, 8643.000
891.4570, 8689.526
892.5820, 8786.000
893.7070, 8776.000
894.8320, 8776.000
895.9570, 8810.000
897.0820, 8904.000
898.2060, 8855.000
899.3310, 9066.000
900.4550, 9100.000
901.5790, 9019.000
902.7030, 9026.000
903.8260, 9179.000
904.9500, 9247.000
906.0730, 9223.000
907.1960, 9261.000
908.3200, 9247.000
909.4420, 9531.000
910.5650, 9454.000
911.6880, 9697.000
912.8100, 9826.000
913.9320, 9881.000
915.0540, 9975.000
916.1760, 10218.00
917.2980, 10442.00
918.4200, 10845.00
919.5410, 11025.00
920.6620, 11420.00
921.7830, 11979.00
922.9040, 12283.00
924.0250, 13056.00
925.1460, 13659.00
926.2660, 14543.00
927.3870, 15337.00
928.5070, 16262.00
929.6270, 16687.00
930.7470, 17048.00
931.8660, 17163.00
932.9860, 16654.00
934.1050, 15931.00
935.2240, 15113.00
936.3430, 14181.00
937.4620, 13493.00
938.5810, 12669.00
939.6990, 12154.00
940.8180, 11797.00
941.9360, 11643.00
943.0540, 11502.00
944.1720, 11421.00
945.2900, 11380.00
946.4070, 11398.00
947.5250, 11477.00
948.6420, 11373.00
949.7590, 11331.00
950.8760, 11137.00
951.9930, 10904.00
953.1090, 10995.00
954.2260, 10722.00
955.3420, 10485.00
956.4580, 10350.00
957.5740, 10276.00
958.6900, 10212.00
959.8060, 10169.00
960.9210, 10035.00
962.0360, 9907.000
963.1520, 9871.000
964.2670, 9795.000
965.3810, 9798.000
966.4960, 9814.000
967.6110, 9805.000
968.7250, 9752.000
969.8390, 9929.000
970.9530, 9775.000
972.0670, 9796.000
973.1810, 9596.000
974.2940, 9865.000
975.4080, 9808.000
976.5210, 9714.000
977.6340, 9720.000
978.7470, 9683.000
979.8600, 9738.000
980.9730, 9721.000
982.0850, 9647.000
983.1970, 9655.000
984.3090, 9555.000
985.4210, 9793.000
986.5330, 9640.000
987.6450, 9708.000
988.7560, 9733.000
989.8680, 9674.000
990.9790, 9584.000
992.0900, 9758.000
993.2010, 9661.000
994.3110, 9612.000
995.4220, 9781.000
996.5320, 9735.000
997.6430, 9749.000
998.7530, 9827.000
999.8630, 9797.000
1000.972, 9894.000
1002.082, 10028.00
1003.191, 10103.00
1004.301, 9967.000
1005.410, 10198.00
1006.519, 10169.00
1007.627, 10387.00
1008.736, 10495.00
1009.844, 10518.00
1010.953, 10694.00
1012.061, 10803.00
1013.169, 10818.00
1014.277, 11138.00
1015.384, 11324.00
1016.492, 11865.00
1017.599, 11994.11
1018.706, 12268.00
1019.813, 12438.00
1020.920, 12682.00
1022.027, 12964.00
1023.134, 13259.00
1024.240, 13540.98
1025.346, 13745.00
1026.452, 14133.00
1027.558, 14536.00
1028.664, 14826.00
1029.770, 14774.00
1030.875, 14848.00
1031.980, 14441.00
1033.086, 14251.00
1034.190, 13893.00
1035.295, 13632.00
1036.400, 13325.00
1037.504, 13283.00
1038.609, 13073.00
1039.713, 13354.00
1040.817, 13562.00
1041.921, 13958.00
1043.025, 14598.00
1044.128, 15103.64
1045.231, 15691.00
1046.335, 16685.00
1047.438, 17679.00
1048.541, 19003.00
1049.643, 20847.00
1050.746, 23040.00
1051.848, 25319.00
1052.951, 28217.00
1054.053, 31101.00
1055.155, 34337.00
1056.257, 37237.00
1057.358, 39555.00
1058.460, 40876.00
1059.561, 40702.00
1060.662, 39335.00
1061.763, 36453.00
1062.864, 33224.00
1063.965, 29819.00
1065.065, 26759.00
1066.166, 24185.00
1067.266, 22043.00
1068.366, 20252.00
1069.466, 18854.00
1070.566, 17514.00
1071.665, 16322.00
1072.765, 15240.00
1073.864, 14529.00
1074.963, 13599.00
1076.062, 13099.00
1077.161, 12542.00
1078.259, 12201.00
1079.358, 11853.00
1080.456, 11640.00
1081.554, 11319.00
1082.652, 11188.00
1083.750, 11001.00
1084.848, 10957.00
1085.945, 10796.00
1087.043, 10695.00
1088.140, 10590.00
1089.237, 10597.00
1090.334, 10526.00
1091.431, 10476.00
1092.527, 10511.00
1093.624, 10321.00
1094.720, 10271.00
1095.816, 10311.00
1096.912, 10149.00
1098.008, 10244.00
1099.104, 10126.00
1100.199, 9976.000
1101.294, 10198.00
1102.390, 9927.000
1103.485, 9993.000
1104.579, 9921.000
1105.674, 9952.000
1106.769, 9937.000
1107.863, 9954.000
1108.957, 9910.000
1110.051, 9882.000
1111.145, 9948.000
1112.239, 9877.000
1113.333, 9872.000
1114.426, 9872.000
1115.519, 9853.000
1116.612, 9716.000
1117.705, 9825.000
1118.798, 9728.000
1119.891, 9783.000
1120.983, 9667.000
1122.076, 9803.000
1123.168, 9780.000
1124.260, 9749.000
1125.352, 9689.000
1126.443, 9691.000
1127.535, 9630.929
1128.626, 9598.000
1129.718, 9584.000
1130.809, 9579.000
1131.900, 9659.000
1132.990, 9671.000
1134.081, 9638.000
1135.171, 9585.000
1136.262, 9587.000
1137.352, 9651.000
1138.442, 9738.000
1139.532, 9685.000
1140.621, 9702.601
1141.711, 9699.000
1142.800, 9619.000
1143.890, 9614.000
1144.979, 9547.000
1146.067, 9612.000
1147.156, 9662.000
1148.245, 9632.000
1149.333, 9646.000
1150.421, 9606.000
1151.510, 9600.371
1152.597, 9593.534
1153.685, 9585.000
1154.773, 9561.000
1155.860, 9577.000
1156.948, 9527.000
1158.035, 9656.000
1159.122, 9554.000
1160.209, 9648.000
1161.295, 9612.000
1162.382, 9484.000
1163.468, 9587.000
1164.555, 9557.000
1165.641, 9619.000
1166.727, 9607.248
1167.812, 9685.000
1168.898, 9590.000
1169.983, 9583.000
1171.069, 9623.000
1172.154, 9670.639
1173.239, 9617.000
1174.324, 9807.000
1175.408, 9702.000
1176.493, 9611.000
1177.577, 9559.000
1178.661, 9687.000
1179.745, 9737.000
1180.829, 9733.000
1181.913, 9680.000
1182.997, 9561.000
1184.080, 9639.000
1185.163, 9704.000
1186.246, 9677.000
1187.329, 9759.000
1188.412, 9577.000
1189.495, 9708.000
1190.577, 9645.000
1191.660, 9865.000
1192.742, 9759.000
1193.824, 9600.000
1194.906, 9700.000
1195.987, 9816.000
1197.069, 9861.000
1198.150, 9752.000
1199.232, 9808.000
1200.313, 9704.000
1201.394, 9751.000
1202.474, 9840.000
1203.555, 9824.000
1204.635, 9850.000
1205.716, 9773.000
1206.796, 9848.000
1207.876, 9872.000
1208.956, 9644.000
1210.035, 9811.000
1211.115, 9787.000
1212.194, 9768.000
1213.274, 9872.000
1214.353, 9745.000
1215.432, 9847.000
1216.510, 9831.000
1217.589, 9993.000
1218.667, 9819.000
1219.746, 9928.000
1220.824, 9903.000
1221.902, 9815.000
1222.980, 9893.000
1224.057, 9905.000
1225.135, 10085.00
1226.212, 9932.000
1227.289, 10042.00
1228.366, 9967.000
1229.443, 10096.00
1230.520, 10045.00
1231.597, 9885.000
1232.673, 10080.00
1233.749, 9980.000
1234.825, 10021.00
1235.901, 10058.00
1236.977, 10023.00
1238.053, 10011.00
1239.128, 10007.00
1240.204, 10013.00
1241.279, 10032.00
1242.354, 10014.00
1243.429, 10061.00
1244.503, 10007.00
1245.578, 10133.00
1246.652, 10174.00
1247.727, 10164.00
1248.801, 10350.00
1249.875, 10233.38
1250.949, 10108.00
1252.022, 10165.00
1253.096, 10152.00
1254.169, 10296.00
1255.242, 10103.00
1256.315, 10253.00
1257.388, 10265.00
1258.461, 10124.00
1259.533, 10222.00
1260.606, 10121.00
1261.678, 10203.00
1262.750, 10143.00
1263.822, 10229.00
1264.894, 10253.00
1265.965, 10281.00
1267.037, 10215.00
1268.108, 10137.00
1269.179, 10280.00
1270.250, 10295.00
1271.321, 10337.00
1272.392, 10281.00
1273.463, 10427.00
1274.533, 10417.00
1275.603, 10397.00
1276.673, 10407.00
1277.743, 10515.00
1278.813, 10490.00
1279.883, 10363.00
1280.952, 10458.00
1282.021, 10372.00
1283.091, 10390.00
1284.160, 10370.00
1285.229, 10359.71
1286.297, 10366.09
1287.366, 10368.00
1288.434, 10377.91
1289.502, 10393.00
1290.570, 10411.91
1291.638, 10430.00
1292.706, 10459.00
1293.774, 10511.00
1294.841, 10579.00
1295.909, 10474.00
1296.976, 10463.00
1298.043, 10507.00
1299.110, 10576.00
1300.176, 10497.00
1301.243, 10539.00
1302.309, 10607.00
1303.376, 10542.00
1304.442, 10382.00
1305.508, 10582.00
1306.573, 10636.00
1307.639, 10461.00
1308.704, 10618.00
1309.770, 10518.00
1310.835, 10702.00
1311.900, 10625.00
1312.965, 10606.00
1314.030, 10730.00
1315.094, 10703.00
1316.159, 10681.00
1317.223, 10624.00
1318.287, 10722.00
1319.351, 10660.00
1320.415, 10657.00
1321.478, 10764.00
1322.542, 10657.00
1323.605, 10823.00
1324.668, 10753.00
1325.731, 10698.00
1326.794, 10763.00
1327.857, 10727.00
1328.919, 10840.00
1329.982, 10744.00
1331.044, 10912.00
1332.106, 10780.00
1333.168, 10700.00
1334.230, 10653.00
1335.292, 10896.00
1336.353, 10948.00
1337.414, 10823.00
1338.476, 10754.00
1339.537, 10830.00
1340.597, 10929.00
1341.658, 10839.00
1342.719, 10849.00
1343.779, 10777.00
1344.839, 10813.00
1345.900, 10782.51
1346.960, 10938.00
1348.019, 10755.00
1349.079, 10940.00
1350.139, 10938.00
1351.198, 10931.00
1352.257, 10969.00
1353.316, 10995.00
1354.375, 10942.00
1355.434, 10970.00
1356.492, 10999.00
1357.551, 10959.00
1358.609, 10934.00
1359.667, 11096.00
1360.725, 10963.00
1361.783, 11084.00
1362.841, 11054.00
1363.898, 11078.00
1364.956, 11175.00
1366.013, 11089.00
1367.070, 11072.00
1368.127, 11102.00
1369.183, 11221.00
1370.240, 11102.00
1371.297, 11000.00
1372.353, 11178.00
1373.409, 11140.00
1374.465, 11214.00
1375.521, 11048.00
1376.577, 11184.00
1377.632, 11164.00
1378.687, 11255.00
1379.743, 11102.00
1380.798, 11198.00
1381.853, 11240.00
1382.907, 11131.00
1383.962, 11261.00
1385.017, 11133.00
1386.071, 11143.00
1387.125, 11232.00
1388.179, 11246.00
1389.233, 11309.00
1390.287, 11235.00
1391.340, 11281.00
1392.394, 11383.00
1393.447, 11206.00
1394.500, 11386.00
1395.553, 11379.00
1396.606, 11268.00
1397.658, 11291.00
1398.711, 11254.00
1399.763, 11416.00
1400.815, 11304.00
1401.868, 11187.00
1402.919, 11363.00
1403.971, 11439.00
1405.023, 11390.00
1406.074, 11378.00
1407.125, 11358.00
1408.177, 11319.00
1409.228, 11382.00
1410.278, 11337.35
1411.329, 11390.00
1412.380, 11334.00
1413.430, 11345.00
1414.480, 11398.00
1415.530, 11470.00
1416.580, 11511.00
1417.630, 11564.00
1418.680, 11550.65
1419.729, 11544.20
1420.778, 11507.00
1421.828, 11474.00
1422.877, 11470.00
1423.925, 11435.00
1424.974, 11434.00
1426.023, 11351.00
1427.071, 11527.00
1428.119, 11631.00
1429.167, 11547.00
1430.215, 11754.00
1431.263, 11566.00
1432.311, 11561.00
1433.358, 11585.00
1434.406, 11516.00
1435.453, 11680.00
1436.500, 11709.00
1437.547, 11623.00
1438.594, 11554.00
1439.640, 11573.00
1440.687, 11663.00
1441.733, 11611.00
1442.779, 11759.00
1443.825, 11727.00
1444.871, 11782.00
1445.917, 11707.00
1446.962, 11790.00
1448.007, 11836.00
1449.053, 11729.00
1450.098, 11763.00
1451.143, 11850.00
1452.187, 11838.00
1453.232, 11821.00
1454.277, 11737.00
1455.321, 11812.00
1456.365, 11799.00
1457.409, 11747.00
1458.453, 11907.00
1459.497, 11842.00
1460.540, 11827.00
1461.584, 11739.00
1462.627, 11794.00
1463.670, 11926.00
1464.713, 11940.00
1465.756, 11992.55
1466.799, 12176.00
1467.841, 12039.00
1468.884, 11924.00
1469.926, 11930.00
1470.968, 12220.79
1472.010, 12053.45
1473.051, 12128.73
1474.093, 11996.00
1475.135, 12038.00
1476.176, 12080.00
1477.217, 11960.00
1478.258, 11942.00
1479.299, 12186.00
1480.340, 12053.76
1481.380, 12079.00
1482.421, 12068.00
1483.461, 12028.00
1484.501, 12131.00
1485.541, 11962.00
1486.581, 12066.00
1487.620, 12121.00
1488.660, 12102.00
1489.699, 12093.00
1490.739, 11978.00
1491.778, 12243.00
1492.817, 12071.00
1493.855, 12295.00
1494.894, 12130.00
1495.932, 12176.00
1496.971, 12173.00
1498.009, 12210.00
1499.047, 12224.08
1500.085, 12269.00
1501.122, 12257.66
1502.160, 12252.00
1503.197, 12276.00
1504.235, 12262.00
1505.272, 12242.00
1506.309, 12212.00
1507.346, 12395.00
1508.382, 12290.00
1509.419, 12346.00
1510.455, 12324.00
1511.491, 12324.00
1512.527, 12283.00
1513.563, 12279.00
1514.599, 12419.00
1515.635, 12352.00
1516.670, 12492.00
1517.706, 12438.00
1518.741, 12545.00
1519.776, 12560.00
1520.811, 12506.00
1521.845, 12540.31
1522.880, 12524.97
1523.914, 12538.00
1524.949, 12505.00
1525.983, 12581.00
1527.017, 12538.00
1528.050, 12568.00
1529.084, 12407.00
1530.118, 12843.00
1531.151, 12612.47
1532.184, 12922.00
1533.217, 12569.00
1534.250, 12562.00
1535.283, 12805.00
1536.316, 12846.00
1537.348, 12536.00
1538.381, 12674.00
1539.413, 12534.00
1540.445, 12735.00
1541.477, 12748.00
1542.508, 12745.00
1543.540, 12755.00
1544.571, 12630.00
1545.603, 12705.00
1546.634, 12747.00
1547.665, 12869.00
1548.696, 12760.00
1549.726, 12874.00
1550.757, 12827.00
1551.787, 12827.00
1552.817, 13008.00
1553.848, 12687.00
1554.878, 12815.00
1555.907, 12860.00
1556.937, 12968.00
1557.966, 12937.00
1558.996, 12804.00
1560.025, 12886.00
1561.054, 12849.00
1562.083, 12816.00
1563.112, 12827.00
1564.140, 12965.00
1565.169, 13026.00
1566.197, 13121.00
1567.225, 12830.00
1568.253, 12940.00
1569.281, 12875.00
1570.309, 13058.00
1571.336, 12929.00
1572.364, 13077.00
1573.391, 12939.00
1574.418, 12965.00
1575.445, 13112.00
1576.472, 12963.00
1577.499, 13021.00
1578.525, 12945.00
##END=



