##NAMES=Actinolite
##RRUFFID=R060041
##IDEAL CHEMISTRY=Ca_2_(Mg_4.5-2.5_Fe^2+^_0.5-2.5_)Si_8_O_22_(OH)_2_
##LOCALITY=Prince of Wales Island, Alaska, USA
##OWNER=RRUFF
##SOURCE=University of Arizona Mineral Museum
##DESCRIPTION=Green acicular crystals forming parallel groups in cylindrical or bladed forms
##STATUS=The identification of this mineral has been confirmed by X-ray diffraction and chemical analysis
##URL=rruff.info/R060041
##MEASURED CHEMISTRY=(Ca_0.97_Na_0.03_)_2_(Mg_0.65_Fe^2+^_0.29_Fe^3+^_0.04_Al_0.01_Mn_0.01_)_5_(Si_0.98_Al_0.02_)_8_O_22_(OH)_2_
95.94800, 5474.000
97.18200, 5375.000
98.41600, 5598.000
99.64900, 5889.000
100.8830, 5853.000
102.1160, 5987.000
103.3490, 6228.000
104.5820, 6720.000
105.8150, 7475.000
107.0470, 8375.000
108.2800, 9209.000
109.5120, 9895.000
110.7440, 9496.000
111.9760, 8987.000
113.2080, 9007.000
114.4400, 9470.000
115.6710, 9675.000
116.9030, 9537.000
118.1340, 9402.000
119.3650, 8875.000
120.5960, 8405.000
121.8270, 8318.000
123.0580, 8342.000
124.2880, 8132.000
125.5190, 7830.000
126.7490, 7753.000
127.9790, 8051.000
129.2090, 8098.000
130.4390, 8290.000
131.6680, 8535.000
132.8980, 8384.000
134.1270, 8470.000
135.3560, 8595.000
136.5850, 8667.000
137.8140, 9012.000
139.0430, 9614.000
140.2710, 10280.00
141.5000, 11040.00
142.7280, 12426.00
143.9560, 13929.00
145.1840, 15859.00
146.4120, 18023.00
147.6390, 20603.00
148.8670, 23575.00
150.0940, 25795.00
151.3210, 25975.00
152.5490, 24269.00
153.7750, 21523.00
155.0020, 19110.00
156.2290, 16713.00
157.4550, 14733.00
158.6810, 13333.00
159.9080, 12678.00
161.1340, 12150.00
162.3590, 12402.00
163.5850, 13093.00
164.8110, 13982.00
166.0360, 15321.00
167.2610, 16581.00
168.4860, 18063.00
169.7110, 19964.00
170.9360, 21681.00
172.1610, 22408.00
173.3850, 22519.00
174.6100, 21245.00
175.8340, 19748.00
177.0580, 17928.00
178.2820, 16279.00
179.5050, 14737.00
180.7290, 13444.00
181.9520, 12436.00
183.1760, 11622.00
184.3990, 11176.00
185.6220, 10823.00
186.8450, 10773.00
188.0670, 10935.00
189.2900, 10837.00
190.5120, 10897.00
191.7340, 10961.00
192.9560, 11023.00
194.1780, 11218.00
195.4000, 11520.00
196.6220, 11665.00
197.8430, 11873.00
199.0640, 12305.00
200.2860, 12854.00
201.5070, 13552.00
202.7270, 14048.00
203.9480, 14430.00
205.1690, 14646.00
206.3890, 15261.00
207.6090, 16513.00
208.8290, 17924.00
210.0490, 19404.00
211.2690, 21224.00
212.4890, 22899.00
213.7080, 24231.00
214.9280, 25520.00
216.1470, 26181.00
217.3660, 26238.00
218.5850, 25557.00
219.8030, 24562.00
221.0220, 23144.00
222.2400, 21726.00
223.4590, 19937.00
224.6770, 18533.00
225.8950, 17052.00
227.1120, 15891.00
228.3300, 14814.00
229.5480, 13811.00
230.7650, 13175.00
231.9820, 12561.00
233.1990, 12023.00
234.4160, 11651.00
235.6330, 11357.00
236.8490, 11188.00
238.0660, 10906.00
239.2820, 10822.00
240.4980, 10681.00
241.7140, 10695.00
242.9300, 10631.00
244.1460, 10572.00
245.3610, 10531.00
246.5770, 10430.00
247.7920, 10451.00
249.0070, 10378.00
250.2220, 10298.00
251.4370, 10187.00
252.6510, 10216.00
253.8660, 10146.00
255.0800, 10024.00
256.2940, 9922.000
257.5080, 9965.000
258.7220, 10042.00
259.9360, 9824.141
261.1490, 9942.000
262.3630, 9496.000
263.5760, 9344.000
264.7890, 9294.000
266.0020, 9167.000
267.2150, 9154.345
268.4270, 9098.000
269.6400, 9171.000
270.8520, 9200.000
272.0640, 9257.000
273.2760, 9331.000
274.4880, 9211.000
275.7000, 9535.000
276.9120, 9432.000
278.1230, 9677.000
279.3340, 9623.000
280.5450, 9848.000
281.7560, 10016.00
282.9670, 10012.00
284.1780, 10328.00
285.3880, 10401.00
286.5980, 10592.00
287.8090, 10721.00
289.0190, 10831.00
290.2290, 10935.00
291.4380, 11045.95
292.6480, 11035.97
293.8570, 11064.99
295.0670, 11004.00
296.2760, 11008.00
297.4850, 11028.00
298.6930, 10983.00
299.9020, 10819.00
301.1110, 10694.00
302.3190, 10685.00
303.5270, 10480.00
304.7350, 10420.00
305.9430, 10472.00
307.1510, 10337.00
308.3580, 10194.00
309.5660, 10240.00
310.7730, 10159.00
311.9800, 10201.00
313.1870, 10123.00
314.3940, 10229.00
315.6010, 10139.00
316.8070, 10292.00
318.0130, 10221.00
319.2200, 10310.00
320.4260, 10472.00
321.6310, 10525.00
322.8370, 10796.00
324.0430, 10878.00
325.2480, 11003.00
326.4540, 11040.00
327.6590, 11165.00
328.8640, 11405.00
330.0680, 11250.00
331.2730, 11492.00
332.4780, 11509.00
333.6820, 11528.00
334.8860, 11576.00
336.0900, 11494.00
337.2940, 11531.00
338.4980, 11432.00
339.7010, 11535.00
340.9050, 11447.00
342.1080, 11529.00
343.3110, 11441.00
344.5140, 11524.00
345.7170, 11481.00
346.9200, 11418.00
348.1220, 11354.00
349.3240, 11430.00
350.5270, 11540.00
351.7290, 11514.00
352.9310, 11696.00
354.1320, 11823.00
355.3340, 11886.00
356.5350, 12023.00
357.7370, 12154.00
358.9380, 12324.00
360.1390, 12492.00
361.3400, 12365.00
362.5400, 12353.00
363.7410, 12333.00
364.9410, 11966.00
366.1410, 11854.00
367.3410, 11703.00
368.5410, 11594.00
369.7410, 11407.00
370.9400, 11495.00
372.1400, 11447.00
373.3390, 11455.79
374.5380, 11687.00
375.7370, 11609.00
376.9360, 11769.00
378.1350, 12012.00
379.3330, 12294.00
380.5310, 12688.00
381.7300, 13048.00
382.9280, 13074.00
384.1260, 13128.00
385.3230, 13162.00
386.5210, 12999.00
387.7180, 12825.00
388.9160, 12565.00
390.1130, 12585.00
391.3100, 12534.00
392.5060, 12427.00
393.7030, 12500.00
394.9000, 11424.00
396.0960, 11076.00
397.2920, 10983.00
398.4880, 10961.00
399.6840, 10853.00
400.8800, 10736.00
402.0750, 10765.00
403.2710, 10721.00
404.4660, 10688.00
405.6610, 10561.00
406.8560, 10514.00
408.0510, 10274.00
409.2450, 10088.00
410.4400, 10064.00
411.6340, 9794.000
412.8280, 9617.000
414.0220, 9448.000
415.2160, 9236.000
416.4100, 9162.000
417.6030, 9002.000
418.7970, 8951.000
419.9900, 8822.000
421.1830, 8798.000
422.3760, 8767.000
423.5690, 8958.000
424.7610, 8968.000
425.9540, 9146.000
427.1460, 9257.000
428.3380, 9399.000
429.5300, 9459.729
430.7220, 9472.882
431.9140, 9504.000
433.1050, 9339.000
434.2970, 9252.000
435.4880, 8991.000
436.6790, 8861.000
437.8700, 8590.000
439.0610, 8539.000
440.2510, 8281.000
441.4420, 8298.000
442.6320, 8147.000
443.8220, 8066.000
445.0120, 8000.000
446.2020, 7946.000
447.3910, 7860.000
448.5810, 7896.000
449.7700, 7954.000
450.9600, 7854.000
452.1490, 7898.000
453.3370, 7998.000
454.5260, 7837.000
455.7150, 7908.000
456.9030, 7913.000
458.0910, 7894.000
459.2800, 7912.979
460.4670, 7856.000
461.6550, 7896.000
462.8430, 7844.000
464.0300, 7839.000
465.2180, 7785.000
466.4050, 7870.000
467.5920, 7794.000
468.7790, 7799.000
469.9650, 7795.000
471.1520, 7895.000
472.3380, 7889.000
473.5250, 7822.000
474.7110, 7931.000
475.8970, 7910.000
477.0820, 7880.000
478.2680, 7954.000
479.4540, 7983.000
480.6390, 8004.000
481.8240, 7959.000
483.0090, 7997.000
484.1940, 7987.000
485.3780, 8094.000
486.5630, 8073.000
487.7470, 8145.000
488.9320, 8133.000
490.1160, 8073.000
491.3000, 8216.000
492.4830, 8388.000
493.6670, 8358.000
494.8500, 8403.000
496.0340, 8564.000
497.2170, 8610.000
498.4000, 8700.000
499.5820, 8725.000
500.7650, 8827.000
501.9480, 8964.000
503.1300, 9022.000
504.3120, 9132.000
505.4940, 9302.000
506.6760, 9288.000
507.8580, 9383.000
509.0390, 9588.000
510.2210, 9579.000
511.4020, 9708.000
512.5830, 9777.000
513.7640, 9971.000
514.9450, 9958.000
516.1250, 10103.00
517.3060, 10295.00
518.4860, 10524.00
519.6660, 10651.24
520.8460, 10792.61
522.0260, 10919.00
523.2060, 11000.00
524.3850, 11066.00
525.5650, 11161.00
526.7440, 11252.00
527.9230, 11248.00
529.1020, 11232.32
530.2810, 10990.00
531.4590, 11033.00
532.6380, 10864.00
533.8160, 10610.00
534.9940, 10650.00
536.1720, 10465.00
537.3500, 10395.00
538.5270, 10550.00
539.7050, 10222.00
540.8820, 10203.00
542.0590, 10073.00
543.2360, 9959.000
544.4130, 9909.000
545.5900, 9706.000
546.7660, 9788.000
547.9430, 9512.000
549.1190, 9528.000
550.2950, 9455.000
551.4710, 9142.000
552.6470, 9236.000
553.8220, 9158.000
554.9980, 9111.000
556.1730, 9111.801
557.3480, 9092.000
558.5230, 9031.000
559.6980, 9011.776
560.8730, 8959.617
562.0470, 8899.000
563.2220, 8860.000
564.3960, 8739.000
565.5700, 8681.000
566.7440, 8613.000
567.9170, 8637.000
569.0910, 8631.000
570.2640, 8501.000
571.4380, 8508.000
572.6110, 8410.000
573.7840, 8292.000
574.9570, 8263.000
576.1290, 8203.000
577.3020, 8146.000
578.4740, 8041.000
579.6460, 7904.000
580.8180, 7848.000
581.9900, 7643.000
583.1620, 7706.000
584.3330, 7573.000
585.5040, 7617.000
586.6760, 7484.000
587.8470, 7535.000
589.0180, 7440.000
590.1880, 7509.000
591.3590, 7542.000
592.5290, 7522.000
593.7000, 7476.000
594.8700, 7609.000
596.0400, 7535.000
597.2090, 7488.000
598.3790, 7594.000
599.5490, 7524.000
600.7180, 7721.000
601.8870, 7601.000
603.0560, 7711.000
604.2250, 7737.000
605.3940, 7822.000
606.5620, 7857.000
607.7300, 7805.000
608.8990, 7973.000
610.0670, 7942.000
611.2350, 7927.000
612.4020, 8044.000
613.5700, 8016.000
614.7370, 8171.000
615.9050, 8208.000
617.0720, 8216.000
618.2390, 8319.000
619.4060, 8347.000
620.5720, 8455.000
621.7390, 8620.000
622.9050, 8724.000
624.0710, 8929.000
625.2370, 9059.000
626.4030, 9117.000
627.5690, 9358.000
628.7340, 9587.000
629.9000, 9711.000
631.0650, 9999.000
632.2300, 10075.00
633.3950, 10284.00
634.5600, 10676.00
635.7240, 10946.00
636.8890, 11205.00
638.0530, 11644.00
639.2170, 12127.00
640.3810, 12277.00
641.5450, 12746.00
642.7080, 13259.00
643.8720, 13604.00
645.0350, 14039.00
646.1980, 14526.00
647.3610, 15135.00
648.5240, 15866.00
649.6870, 16691.00
650.8490, 17834.00
652.0120, 18940.00
653.1740, 20214.00
654.3360, 21951.00
655.4980, 24324.00
656.6600, 26713.00
657.8210, 29812.00
658.9830, 33388.00
660.1440, 37528.00
661.3050, 41971.00
662.4660, 45998.00
663.6270, 50549.00
664.7870, 54049.00
665.9480, 55718.00
667.1080, 56142.00
668.2680, 54298.00
669.4280, 51089.00
670.5880, 46158.00
671.7480, 41073.00
672.9070, 36407.00
674.0670, 31566.00
675.2260, 27627.00
676.3850, 24417.00
677.5440, 21550.00
678.7030, 19757.00
679.8610, 18058.00
681.0200, 16848.00
682.1780, 15716.00
683.3360, 14856.00
684.4940, 14005.00
685.6520, 13508.00
686.8090, 12832.00
687.9670, 12343.00
689.1240, 11961.00
690.2810, 11581.00
691.4380, 11182.00
692.5950, 10890.00
693.7520, 10586.00
694.9080, 10307.97
696.0650, 10094.00
697.2210, 9861.000
698.3770, 9595.000
699.5330, 9462.000
700.6880, 9290.124
701.8440, 9102.000
702.9990, 9086.000
704.1550, 9009.000
705.3100, 8995.000
706.4650, 8932.000
707.6190, 8810.000
708.7740, 8841.000
709.9290, 8766.000
711.0830, 8649.000
712.2370, 8658.000
713.3910, 8630.000
714.5450, 8744.000
715.6980, 8596.000
716.8520, 8634.000
718.0050, 8566.000
719.1580, 8521.000
720.3110, 8451.000
721.4640, 8479.000
722.6170, 8473.000
723.7700, 8456.000
724.9220, 8461.000
726.0740, 8411.000
727.2260, 8410.000
728.3780, 8510.000
729.5300, 8453.000
730.6810, 8607.000
731.8330, 8689.000
732.9840, 8629.000
734.1350, 8647.000
735.2860, 8705.000
736.4370, 8736.000
737.5880, 8756.000
738.7380, 8773.000
739.8880, 8785.000
741.0390, 8761.000
742.1890, 8759.000
743.3380, 8701.000
744.4880, 8800.000
745.6380, 8696.000
746.7870, 8662.000
747.9360, 8762.000
749.0850, 8745.000
750.2340, 8637.000
751.3830, 8558.000
752.5310, 8694.000
753.6800, 8532.000
754.8280, 8397.000
755.9760, 8431.000
757.1240, 8221.000
758.2720, 8275.000
759.4190, 8316.000
760.5670, 8384.000
761.7140, 8417.000
762.8610, 8339.000
764.0080, 8376.000
765.1550, 8244.000
766.3020, 8257.000
767.4480, 8248.000
768.5950, 8267.000
769.7410, 8236.000
770.8870, 8274.000
772.0330, 8222.000
773.1780, 8120.000
774.3240, 7973.000
775.4690, 8088.000
776.6140, 8107.000
777.7590, 7991.000
778.9040, 8106.000
780.0490, 8078.000
781.1940, 7817.000
782.3380, 7925.000
783.4820, 7889.000
784.6260, 7871.000
785.7700, 7799.000
786.9140, 7855.000
788.0580, 7854.000
789.2010, 7864.000
790.3450, 7769.000
791.4880, 7808.000
792.6310, 7737.000
793.7730, 7807.000
794.9160, 7737.000
796.0590, 7760.000
797.2010, 7839.000
798.3430, 7852.000
799.4850, 7880.000
800.6270, 7820.000
801.7690, 8249.000
802.9100, 8640.000
804.0520, 8024.000
805.1930, 7754.000
806.3340, 7772.000
807.4750, 7750.000
808.6160, 7858.000
809.7560, 7794.000
810.8970, 7835.000
812.0370, 7883.000
813.1770, 7880.000
814.3170, 7961.000
815.4570, 7864.000
816.5960, 7884.000
817.7360, 7901.000
818.8750, 7848.000
820.0140, 7984.000
821.1530, 7897.000
822.2920, 7896.000
823.4310, 8030.000
824.5690, 8083.000
825.7070, 8140.000
826.8460, 8031.000
827.9840, 8047.000
829.1220, 8056.000
830.2590, 8132.000
831.3970, 8204.000
832.5340, 8190.293
833.6710, 8195.000
834.8080, 8162.000
835.9450, 8202.000
837.0820, 8149.000
838.2190, 8278.000
839.3550, 8045.000
840.4910, 8278.000
841.6270, 8285.000
842.7630, 8250.000
843.8990, 8349.000
845.0350, 8386.000
846.1700, 8292.000
847.3060, 8412.000
848.4410, 8390.000
849.5760, 8194.000
850.7100, 8255.000
851.8450, 8369.000
852.9800, 8458.000
854.1140, 8454.825
855.2480, 8455.803
856.3820, 8491.000
857.5160, 8415.000
858.6500, 8546.000
859.7830, 8679.000
860.9170, 8619.377
862.0500, 8893.000
863.1830, 8559.000
864.3160, 8776.000
865.4480, 8696.000
866.5810, 8905.000
867.7130, 9022.000
868.8460, 8862.000
869.9780, 8890.000
871.1100, 8965.000
872.2410, 9048.000
873.3730, 9072.000
874.5050, 9127.000
875.6360, 9058.000
876.7670, 9242.000
877.8980, 9314.000
879.0290, 9463.000
880.1590, 9348.000
881.2900, 9369.000
882.4200, 9460.000
883.5500, 9639.000
884.6800, 9726.000
885.8100, 9829.000
886.9400, 9966.000
888.0690, 10008.00
889.1990, 10094.00
890.3280, 10101.00
891.4570, 10383.00
892.5860, 10514.00
893.7140, 10578.00
894.8430, 10773.00
895.9710, 10799.00
897.1000, 10779.00
898.2280, 10973.00
899.3560, 10966.00
900.4830, 11011.00
901.6110, 10952.00
902.7380, 11147.00
903.8660, 11126.00
904.9930, 11214.00
906.1200, 11245.00
907.2460, 11429.00
908.3730, 11554.00
909.5000, 11669.00
910.6260, 11686.00
911.7520, 11919.00
912.8780, 12364.00
914.0040, 12299.00
915.1290, 12748.00
916.2550, 13073.00
917.3800, 13249.00
918.5050, 13680.00
919.6300, 14082.00
920.7550, 14537.00
921.8800, 14891.00
923.0040, 15171.40
924.1290, 15421.98
925.2530, 15546.00
926.3770, 15600.00
927.5010, 15552.00
928.6250, 15247.00
929.7480, 14781.00
930.8720, 14334.00
931.9950, 14000.00
933.1180, 13790.00
934.2410, 13376.00
935.3640, 12974.00
936.4860, 12968.00
937.6090, 12717.00
938.7310, 12652.00
939.8530, 12479.00
940.9750, 12510.00
942.0970, 12289.00
943.2180, 12312.00
944.3400, 12059.00
945.4610, 12272.00
946.5820, 12219.00
947.7030, 12127.00
948.8240, 12053.00
949.9450, 11992.00
951.0650, 11826.00
952.1860, 11903.00
953.3060, 11832.00
954.4260, 11782.00
955.5460, 11862.00
956.6650, 11872.00
957.7850, 11840.51
958.9040, 11643.00
960.0230, 11792.00
961.1420, 11711.00
962.2610, 11699.00
963.3800, 11784.00
964.4990, 11598.00
965.6170, 11589.00
966.7350, 11628.00
967.8530, 11569.00
968.9710, 11360.00
970.0890, 11511.00
971.2070, 11497.00
972.3240, 11397.00
973.4410, 11553.00
974.5580, 11551.00
975.6750, 11432.00
976.7920, 11394.00
977.9090, 11602.00
979.0250, 11436.00
980.1410, 11420.00
981.2580, 11419.00
982.3740, 11331.00
983.4890, 11308.00
984.6050, 11259.00
985.7200, 11381.00
986.8360, 11416.00
987.9510, 11520.00
989.0660, 11556.00
990.1810, 11584.40
991.2950, 11655.00
992.4100, 11640.00
993.5240, 11616.00
994.6390, 11688.00
995.7530, 11890.00
996.8660, 11748.00
997.9800, 11997.00
999.0940, 11909.00
1000.207, 12138.00
1001.320, 12118.00
1002.433, 12481.00
1003.546, 12364.00
1004.659, 12551.00
1005.772, 12803.00
1006.884, 12885.00
1007.996, 13069.21
1009.108, 13164.00
1010.220, 13402.00
1011.332, 13543.00
1012.444, 13847.00
1013.555, 14004.00
1014.666, 14041.00
1015.777, 14104.00
1016.888, 14054.00
1017.999, 14263.00
1019.110, 14384.00
1020.220, 14346.00
1021.331, 14608.00
1022.441, 14647.00
1023.551, 14996.00
1024.661, 14900.01
1025.770, 14954.79
1026.880, 14815.00
1027.989, 14840.00
1029.098, 14935.00
1030.207, 14831.00
1031.316, 14875.00
1032.425, 14960.00
1033.533, 15218.00
1034.642, 15547.00
1035.750, 15620.00
1036.858, 15943.00
1037.966, 16593.00
1039.073, 17185.00
1040.181, 17785.00
1041.288, 18406.00
1042.396, 19322.00
1043.503, 20219.00
1044.610, 20898.00
1045.716, 21990.00
1046.823, 22728.00
1047.929, 23587.00
1049.036, 23737.00
1050.142, 24080.00
1051.248, 24054.80
1052.353, 24008.00
1053.459, 23337.00
1054.564, 22708.00
1055.670, 21686.00
1056.775, 21192.00
1057.880, 20480.00
1058.985, 19851.00
1060.089, 19237.00
1061.194, 18654.16
1062.298, 18192.00
1063.402, 17538.00
1064.506, 16868.00
1065.610, 16238.00
1066.713, 15299.00
1067.817, 14622.00
1068.920, 14026.00
1070.023, 13439.00
1071.126, 12995.00
1072.229, 12529.00
1073.332, 12221.00
1074.435, 11905.00
1075.537, 11706.00
1076.639, 11583.00
1077.741, 11594.00
1078.843, 11358.00
1079.945, 11240.00
1081.046, 11106.00
1082.148, 11037.00
1083.249, 10770.00
1084.350, 10965.00
1085.451, 10734.00
1086.551, 10782.00
1087.652, 10804.00
1088.752, 10741.00
1089.853, 10640.00
1090.953, 10529.00
1092.053, 10485.00
1093.152, 10454.60
1094.252, 10557.00
1095.351, 10451.00
1096.451, 10475.00
1097.550, 10462.00
1098.649, 10305.00
1099.748, 10280.00
1100.846, 10306.00
1101.945, 10284.00
1103.043, 10243.00
1104.141, 10363.00
1105.239, 10271.00
1106.337, 10229.00
1107.434, 10330.00
1108.532, 10189.00
1109.629, 10110.00
1110.726, 10121.00
1111.823, 10108.00
1112.920, 10005.00
1114.017, 10070.00
1115.113, 9965.000
1116.210, 10032.00
1117.306, 9996.000
1118.402, 10045.00
1119.498, 10019.95
1120.593, 10010.00
1121.689, 9957.000
1122.784, 9961.000
1123.879, 9911.000
1124.974, 9711.000
1126.069, 9833.000
1127.164, 9722.000
1128.259, 9733.000
1129.353, 9787.000
1130.447, 9763.000
1131.541, 9734.723
1132.635, 9705.000
1133.729, 9618.000
1134.822, 9522.000
1135.916, 9438.000
1137.009, 9450.457
1138.102, 9521.000
1139.195, 9529.000
1140.288, 9484.000
1141.380, 9567.000
1142.473, 9441.000
1143.565, 9464.000
1144.657, 9458.000
1145.749, 9499.000
1146.841, 9431.000
1147.932, 9392.000
1149.024, 9517.000
1150.115, 9493.000
1151.206, 9263.000
1152.297, 9413.000
1153.388, 9357.000
1154.479, 9270.000
1155.569, 9391.000
1156.659, 9491.000
1157.750, 9334.000
1158.839, 9331.000
1159.929, 9311.000
1161.019, 9392.000
1162.108, 9303.000
1163.198, 9213.000
1164.287, 9423.000
1165.376, 9324.000
1166.465, 9467.000
1167.553, 9427.000
1168.642, 9411.000
1169.730, 9314.000
1170.818, 9348.000
1171.906, 9360.000
1172.994, 9323.000
1174.082, 9474.000
1175.170, 9338.000
1176.257, 9506.000
1177.344, 9408.000
1178.431, 9366.000
1179.518, 9368.000
1180.605, 9407.000
1181.691, 9411.000
1182.778, 9441.000
1183.864, 9366.000
1184.950, 9391.000
1186.036, 9439.000
1187.122, 9390.000
1188.207, 9525.000
1189.292, 9271.000
1190.378, 9340.000
1191.463, 9260.000
1192.548, 9371.000
1193.632, 9509.000
1194.717, 9523.000
1195.801, 9413.000
1196.886, 9387.000
1197.970, 9448.000
1199.054, 9383.000
1200.137, 9547.000
1201.221, 9500.000
1202.305, 9655.000
1203.388, 9509.000
1204.471, 9646.000
1205.554, 9435.000
1206.637, 9554.000
1207.719, 9539.000
1208.802, 9449.000
1209.884, 9657.000
1210.966, 9571.000
1212.048, 9673.000
1213.130, 9517.000
1214.212, 9568.000
1215.293, 9588.000
1216.374, 9712.000
1217.456, 9513.000
1218.536, 9629.000
1219.617, 9572.000
1220.698, 9506.000
1221.778, 9630.000
1222.859, 9660.000
1223.939, 9716.000
1225.019, 9657.000
1226.099, 9713.000
1227.178, 9645.000
1228.258, 9701.000
1229.337, 9705.000
1230.417, 9637.000
1231.496, 9669.000
1232.574, 9637.000
1233.653, 9583.000
1234.732, 9685.000
1235.810, 9761.000
1236.888, 9826.000
1237.966, 9750.000
1239.044, 9809.000
1240.122, 9678.000
1241.199, 9867.000
1242.277, 9861.000
1243.354, 9759.000
1244.431, 9716.000
1245.508, 9873.000
1246.585, 9721.000
1247.661, 9834.000
1248.738, 9751.000
1249.814, 9791.000
1250.890, 9768.000
1251.966, 9862.000
1253.042, 9850.369
1254.117, 9937.000
1255.193, 9888.000
1256.268, 9870.000
1257.343, 9915.000
1258.418, 9911.000
1259.493, 9910.000
1260.567, 9881.000
1261.642, 9929.000
1262.716, 9929.000
1263.790, 9906.000
1264.864, 9934.000
1265.938, 9925.000
1267.011, 9805.000
1268.085, 9934.000
1269.158, 9887.000
1270.231, 10017.00
1271.304, 10059.00
1272.377, 9900.000
1273.450, 10014.00
1274.522, 10035.00
1275.594, 9999.000
1276.666, 10099.00
1277.738, 9949.000
1278.810, 10052.00
1279.882, 10072.00
1280.953, 10081.00
1282.025, 10013.00
1283.096, 9987.000
1284.167, 10020.00
1285.238, 10071.00
1286.308, 10023.00
1287.379, 10040.00
1288.449, 10056.00
1289.519, 10099.00
1290.589, 10099.00
1291.659, 10122.54
1292.729, 10154.00
1293.798, 10151.00
1294.868, 10167.23
1295.937, 10225.00
1297.006, 10160.00
1298.075, 10153.00
1299.143, 10115.00
1300.212, 10200.00
1301.280, 10157.00
1302.348, 10224.00
1303.416, 10321.00
1304.484, 10244.00
1305.552, 10231.00
1306.620, 10263.00
1307.687, 10223.00
1308.754, 10304.00
1309.821, 10337.00
1310.888, 10325.00
1311.955, 10301.00
1313.021, 10224.00
1314.088, 10197.00
1315.154, 10274.00
1316.220, 10386.00
1317.286, 10309.00
1318.352, 10276.00
1319.417, 10180.00
1320.483, 10280.00
1321.548, 10295.00
1322.613, 10238.00
1323.678, 10346.00
1324.743, 10379.00
1325.807, 10319.00
1326.872, 10335.00
1327.936, 10342.00
1329.000, 10328.00
1330.064, 10508.00
1331.128, 10393.00
1332.191, 10458.00
1333.255, 10343.00
1334.318, 10454.00
1335.381, 10390.00
1336.444, 10354.00
1337.507, 10468.00
1338.569, 10491.00
1339.632, 10469.00
1340.694, 10457.00
1341.756, 10336.00
1342.818, 10380.00
1343.880, 10369.00
1344.941, 10410.00
1346.003, 10531.00
1347.064, 10405.00
1348.125, 10544.00
1349.186, 10436.00
1350.247, 10500.00
1351.308, 10574.00
1352.368, 10413.00
1353.428, 10341.00
1354.489, 10538.00
1355.549, 10564.00
1356.608, 10402.00
1357.668, 10514.00
1358.727, 10585.00
1359.787, 10518.00
1360.846, 10522.00
1361.905, 10560.00
1362.964, 10530.00
1364.022, 10464.00
1365.081, 10531.00
1366.139, 10501.00
1367.197, 10379.00
1368.255, 10611.00
1369.313, 10561.00
1370.371, 10485.00
1371.428, 10717.00
1372.486, 10628.00
1373.543, 10525.00
1374.600, 10550.00
1375.657, 10505.00
1376.713, 10675.00
1377.770, 10577.00
1378.826, 10634.00
1379.882, 10598.00
1380.938, 10555.00
1381.994, 10598.00
1383.050, 10644.00
1384.106, 10652.00
1385.161, 10598.00
1386.216, 10536.00
1387.271, 10648.00
1388.326, 10665.00
1389.381, 10690.00
1390.435, 10766.00
1391.490, 10681.00
1392.544, 10689.00
1393.598, 10588.00
1394.652, 10599.00
1395.705, 10705.00
1396.759, 10669.00
1397.812, 10653.00
1398.866, 10703.00
1399.919, 10710.00
1400.972, 10553.00
1402.024, 10672.00
1403.077, 10730.00
1404.129, 10841.00
1405.181, 10709.00
1406.233, 10689.00
1407.285, 10812.00
1408.337, 10624.00
1409.389, 10737.00
1410.440, 10801.00
1411.491, 10817.00
1412.542, 10849.20
1413.593, 10856.00
1414.644, 10839.00
1415.695, 10832.75
1416.745, 10831.14
1417.795, 10844.00
1418.845, 10802.00
1419.895, 10854.00
1420.945, 10962.00
1421.995, 10780.00
1423.044, 10762.00
1424.093, 10847.00
1425.142, 10740.00
1426.191, 10750.00
1427.240, 10912.00
1428.289, 10879.00
1429.337, 11021.00
1430.385, 10777.00
1431.433, 10871.00
1432.481, 10998.00
1433.529, 10841.00
1434.577, 10968.00
1435.624, 11064.00
1436.672, 10985.00
1437.719, 11011.00
1438.766, 10907.00
1439.812, 10969.00
1440.859, 10923.00
1441.905, 11004.00
1442.952, 10866.00
1443.998, 10948.00
1445.044, 10957.00
1446.090, 10844.00
1447.135, 10922.00
1448.181, 11038.00
1449.226, 10977.00
1450.271, 10911.00
1451.316, 11091.00
1452.361, 11014.00
1453.405, 10992.00
1454.450, 10965.00
1455.494, 11088.00
1456.538, 10965.00
1457.582, 11078.00
1458.626, 11068.00
1459.670, 11046.00
1460.713, 11036.00
1461.757, 11086.00
1462.800, 11061.00
1463.843, 11133.00
1464.886, 11089.00
1465.928, 11227.00
1466.971, 11024.00
1468.013, 11131.00
1469.055, 11206.00
1470.097, 11209.00
1471.139, 11075.00
1472.181, 11046.00
1473.222, 11175.00
1474.263, 11153.00
1475.305, 11230.00
1476.346, 11127.00
1477.386, 11053.00
1478.427, 11219.00
1479.468, 11091.00
1480.508, 11154.00
1481.548, 11232.00
1482.588, 11157.00
1483.628, 11248.00
1484.668, 11205.00
1485.707, 11204.00
1486.747, 11165.00
1487.786, 11250.00
1488.825, 11257.00
1489.864, 11221.00
1490.902, 11178.00
1491.941, 11327.00
1492.979, 11248.00
1494.017, 11276.00
1495.055, 11377.00
1496.093, 11288.00
1497.131, 11272.00
1498.168, 11332.00
1499.206, 11300.00
1500.243, 11377.00
1501.280, 11388.00
1502.317, 11386.00
1503.354, 11361.00
1504.390, 11371.00
1505.426, 11550.00
1506.463, 11353.00
1507.499, 11549.00
1508.535, 11400.00
1509.570, 11521.00
1510.606, 11503.00
1511.641, 11473.00
1512.676, 11438.00
1513.711, 11422.00
1514.746, 11379.00
1515.781, 11325.00
1516.816, 11492.00
1517.850, 11615.00
1518.884, 11468.00
1519.918, 11550.00
1520.952, 11469.00
1521.986, 11615.00
1523.019, 11601.00
1524.053, 11593.00
1525.086, 11568.00
1526.119, 11542.00
1527.152, 11539.00
1528.185, 11694.00
1529.217, 11712.00
1530.250, 11731.00
1531.282, 11697.00
1532.314, 11608.00
1533.346, 11572.00
1534.377, 11614.00
1535.409, 11692.00
1536.440, 11635.00
1537.472, 11593.00
1538.503, 11758.00
1539.534, 11659.00
1540.564, 11850.00
1541.595, 11721.00
1542.625, 11729.00
1543.656, 11767.00
1544.686, 11702.00
1545.716, 11673.00
1546.745, 11793.00
1547.775, 11808.00
1548.804, 11830.00
1549.834, 11902.48
1550.863, 11821.00
1551.892, 11996.00
1552.920, 12041.00
1553.949, 12085.00
1554.977, 12040.00
1556.006, 11837.00
1557.034, 11839.00
1558.062, 11739.00
1559.089, 11708.00
1560.117, 11873.00
1561.144, 11926.00
1562.172, 11981.00
1563.199, 11990.83
1564.226, 11797.00
1565.252, 11868.00
1566.279, 11841.00
1567.305, 11655.00
1568.332, 11805.00
1569.358, 11830.00
1570.384, 11884.00
##END=



