##NAMES=Actinolite
##RRUFFID=R040063
##IDEAL CHEMISTRY=Ca_2_(Mg_4.5-2.5_Fe^2+^_0.5-2.5_)Si_8_O_22_(OH)_2_
##LOCALITY=Harford County, Maryland, USA
##OWNER=RRUFF
##SOURCE=University of Arizona Mineral Museum
##DESCRIPTION=Mass of green acicular to bladed crystals associated with chlorite
##STATUS=The identification of this mineral has been confirmed by X-ray diffraction and chemical analysis
##URL=rruff.info/R040063
##MEASURED CHEMISTRY=(Ca_1.90_Na_0.06_Mn_0.04_)_Σ=2_(Mg_4.35_Fe_0.65_)_Σ=5_(Si_7.92_Al_0.08_)_Σ=8_O_22_(OH)_2_
##PIN_ID=S00102
##ORIENTATION=Laser parallel to c* (0 0 1). Fiducial mark perpendicular to laser is parallel to b [0 1 0]
62.88700, 251.0000
64.13000, 293.0000
65.37400, 398.0000
66.61700, 426.0000
67.86000, 594.0000
69.10300, 710.0000
70.34600, 709.0000
71.58900, 921.0000
72.83100, 1091.000
74.07400, 1305.000
75.31600, 1563.000
76.55800, 2181.000
77.80000, 2782.000
79.04100, 3083.000
80.28300, 3074.000
81.52400, 2729.000
82.76500, 2488.000
84.00600, 2318.000
85.24700, 2401.000
86.48700, 2377.000
87.72700, 2336.000
88.96800, 2453.000
90.20800, 2506.000
91.44800, 2678.000
92.68700, 2741.000
93.92700, 2842.000
95.16600, 2758.000
96.40500, 2789.000
97.64400, 2878.000
98.88300, 2888.000
100.1210, 2985.000
101.3600, 2944.000
102.5980, 3115.000
103.8360, 3186.000
105.0740, 3374.000
106.3120, 3741.000
107.5490, 4089.000
108.7870, 4271.000
110.0240, 4508.000
111.2610, 4737.000
112.4980, 5210.000
113.7340, 5320.000
114.9710, 6072.000
116.2070, 7234.000
117.4430, 8040.000
118.6790, 8217.000
119.9150, 7306.000
121.1510, 6068.000
122.3860, 5108.000
123.6210, 4432.000
124.8560, 4138.000
126.0910, 3830.000
127.3260, 3689.000
128.5600, 3667.000
129.7950, 3447.000
131.0290, 3621.000
132.2630, 3558.000
133.4970, 3546.000
134.7300, 3537.000
135.9640, 3590.000
137.1970, 3675.000
138.4300, 3674.000
139.6630, 3880.000
140.8960, 3989.000
142.1290, 3909.000
143.3610, 3875.000
144.5930, 3991.000
145.8250, 4011.000
147.0570, 4045.000
148.2890, 4142.000
149.5210, 4342.000
150.7520, 4531.000
151.9830, 4888.000
153.2140, 5263.000
154.4450, 5905.000
155.6760, 6727.000
156.9060, 7488.000
158.1370, 8286.000
159.3670, 8683.000
160.5970, 9038.000
161.8270, 8887.000
163.0560, 8274.000
164.2860, 7579.000
165.5150, 6827.000
166.7440, 6308.000
167.9730, 6010.000
169.2020, 6158.000
170.4300, 6397.000
171.6590, 7014.000
172.8870, 7562.000
174.1150, 8376.000
175.3430, 9433.000
176.5700, 10317.00
177.7980, 10962.00
179.0250, 11261.00
180.2520, 10956.00
181.4790, 10374.00
182.7060, 9512.000
183.9330, 8242.000
185.1590, 7253.000
186.3860, 6218.000
187.6120, 5441.000
188.8380, 5127.000
190.0630, 4676.000
191.2890, 4623.000
192.5150, 4398.000
193.7400, 4306.000
194.9650, 4302.000
196.1900, 4279.000
197.4140, 4243.000
198.6390, 4271.000
199.8630, 4348.000
201.0880, 4416.000
202.3120, 4490.000
203.5350, 4626.000
204.7590, 4830.000
205.9830, 4958.000
207.2060, 5190.000
208.4290, 5472.000
209.6520, 5981.000
210.8750, 6430.000
212.0970, 6944.000
213.3200, 7744.000
214.5420, 8567.000
215.7640, 9618.000
216.9860, 10662.00
218.2080, 11872.00
219.4300, 13352.00
220.6510, 14530.00
221.8720, 15520.00
223.0930, 16192.00
224.3140, 16461.00
225.5350, 16097.00
226.7550, 15270.00
227.9760, 14529.00
229.1960, 13418.00
230.4160, 12511.00
231.6360, 11663.00
232.8550, 10659.00
234.0750, 9956.000
235.2940, 9003.000
236.5130, 8287.000
237.7320, 7470.000
238.9510, 6778.000
240.1700, 6323.000
241.3880, 6005.000
242.6070, 5790.000
243.8250, 5569.000
245.0430, 5496.000
246.2600, 5679.000
247.4780, 5741.000
248.6950, 5897.000
249.9120, 5802.000
251.1300, 5859.000
252.3460, 5766.000
253.5630, 5666.000
254.7800, 5584.000
255.9960, 5506.000
257.2120, 5359.000
258.4280, 5280.000
259.6440, 5278.000
260.8600, 5187.000
262.0750, 5262.000
263.2910, 5123.000
264.5060, 4990.000
265.7210, 5026.000
266.9360, 4828.000
268.1500, 4704.000
269.3650, 4569.000
270.5790, 4436.000
271.7930, 4364.000
273.0070, 4164.000
274.2210, 4099.000
275.4340, 4097.000
276.6480, 3947.000
277.8610, 3999.000
279.0740, 3975.000
280.2870, 3914.000
281.5000, 4043.000
282.7120, 3980.000
283.9250, 4053.000
285.1370, 4071.000
286.3490, 4101.000
287.5610, 4171.000
288.7720, 4202.000
289.9840, 4358.000
291.1950, 4369.000
292.4060, 4429.000
293.6170, 4447.000
294.8280, 4604.000
296.0390, 4562.000
297.2490, 4717.000
298.4600, 4768.000
299.6700, 4941.000
300.8800, 4992.000
302.0890, 4953.000
303.2990, 5024.000
304.5080, 5088.000
305.7180, 4955.000
306.9270, 4888.000
308.1360, 4704.000
309.3450, 4616.000
310.5530, 4598.000
311.7620, 4355.000
312.9700, 4395.000
314.1780, 4339.000
315.3860, 4201.000
316.5930, 4284.000
317.8010, 4295.000
319.0080, 4350.000
320.2150, 4317.000
321.4230, 4329.838
322.6290, 4376.000
323.8360, 4295.000
325.0430, 4338.000
326.2490, 4295.000
327.4550, 4294.000
328.6610, 4341.000
329.8670, 4429.000
331.0730, 4448.000
332.2780, 4512.000
333.4830, 4558.554
334.6880, 4606.483
335.8930, 4651.000
337.0980, 4706.000
338.3030, 4764.000
339.5070, 4794.000
340.7110, 4921.969
341.9160, 5012.000
343.1200, 5198.000
344.3230, 5335.000
345.5270, 5519.000
346.7300, 5746.000
347.9340, 5981.000
349.1370, 6152.000
350.3390, 6277.000
351.5420, 6469.000
352.7450, 6644.000
353.9470, 6580.344
355.1490, 6460.000
356.3510, 6450.000
357.5530, 6261.000
358.7550, 6250.000
359.9560, 6252.000
361.1580, 6495.000
362.3590, 6605.000
363.5600, 6796.000
364.7610, 7098.000
365.9610, 7296.000
367.1620, 7730.000
368.3620, 8015.000
369.5620, 8285.000
370.7620, 8413.000
371.9620, 8362.000
373.1620, 8401.000
374.3610, 8166.000
375.5610, 7910.000
376.7600, 7628.000
377.9590, 7275.000
379.1570, 7001.000
380.3560, 6690.000
381.5550, 6459.000
382.7530, 6263.000
383.9510, 6235.000
385.1490, 6349.000
386.3470, 6361.000
387.5440, 6626.000
388.7420, 6970.000
389.9390, 7231.000
391.1360, 7458.000
392.3330, 7784.000
393.5290, 7887.000
394.7260, 7780.000
395.9220, 7502.000
397.1190, 7190.000
398.3150, 6718.000
399.5110, 6441.000
400.7060, 5971.000
401.9020, 5738.000
403.0970, 5604.000
404.2920, 5433.000
405.4870, 5454.000
406.6820, 5380.000
407.8770, 5558.000
409.0710, 5605.000
410.2660, 5750.000
411.4600, 5957.000
412.6540, 6063.000
413.8480, 6125.000
415.0410, 6180.000
416.2350, 6380.000
417.4280, 6289.000
418.6210, 6153.000
419.8140, 5910.000
421.0070, 5742.000
422.2000, 5528.000
423.3920, 5339.000
424.5840, 5098.000
425.7770, 5012.000
426.9690, 4839.000
428.1600, 4930.000
429.3520, 4938.000
430.5430, 4876.000
431.7350, 4959.000
432.9260, 4966.000
434.1170, 5082.000
435.3070, 5039.000
436.4980, 5105.000
437.6880, 5073.000
438.8790, 4915.000
440.0690, 4895.000
441.2590, 4797.000
442.4480, 4628.000
443.6380, 4513.000
444.8270, 4420.000
446.0170, 4350.378
447.2060, 4259.000
448.3950, 4299.000
449.5830, 4298.000
450.7720, 4327.000
451.9600, 4229.000
453.1480, 4276.000
454.3360, 4185.000
455.5240, 4188.000
456.7120, 4155.000
457.9000, 4204.000
459.0870, 4275.000
460.2740, 4237.000
461.4610, 4232.000
462.6480, 4315.000
463.8350, 4225.000
465.0210, 4237.000
466.2070, 4305.000
467.3940, 4300.000
468.5800, 4303.278
469.7660, 4274.000
470.9510, 4248.000
472.1370, 4273.000
473.3220, 4187.000
474.5070, 4253.000
475.6920, 4166.000
476.8770, 4249.000
478.0620, 4271.000
479.2460, 4351.000
480.4300, 4261.000
481.6150, 4380.000
482.7980, 4349.000
483.9820, 4412.000
485.1660, 4432.000
486.3490, 4311.000
487.5330, 4492.000
488.7160, 4388.000
489.8990, 4403.000
491.0820, 4302.000
492.2640, 4356.000
493.4470, 4394.000
494.6290, 4409.000
495.8110, 4424.000
496.9930, 4414.000
498.1750, 4504.000
499.3560, 4511.000
500.5380, 4457.000
501.7190, 4534.000
502.9000, 4509.000
504.0810, 4588.000
505.2620, 4702.000
506.4420, 4669.000
507.6230, 4838.000
508.8030, 4920.000
509.9830, 4972.000
511.1630, 5042.000
512.3430, 5119.400
513.5220, 5226.000
514.7020, 5267.000
515.8810, 5385.000
517.0600, 5447.341
518.2390, 5626.000
519.4180, 5669.000
520.5960, 5748.000
521.7750, 5904.000
522.9530, 5944.000
524.1310, 6181.000
525.3090, 6270.000
526.4870, 6530.000
527.6640, 6595.000
528.8420, 6693.000
530.0190, 6802.000
531.1960, 6726.000
532.3730, 6637.000
533.5490, 6324.000
534.7260, 6123.000
535.9020, 5875.000
537.0790, 5658.000
538.2550, 5453.000
539.4310, 5292.000
540.6060, 5142.000
541.7820, 5034.000
542.9570, 4984.000
544.1320, 4951.000
545.3070, 4858.000
546.4820, 4777.000
547.6570, 4819.000
548.8310, 4859.000
550.0060, 4706.000
551.1800, 4762.000
552.3540, 4750.000
553.5280, 4723.000
554.7020, 4794.000
555.8750, 4700.000
557.0480, 4633.000
558.2220, 4613.000
559.3950, 4617.000
560.5680, 4615.000
561.7400, 4613.000
562.9130, 4651.000
564.0850, 4668.000
565.2570, 4584.000
566.4290, 4549.000
567.6010, 4651.000
568.7730, 4632.000
569.9440, 4667.000
571.1160, 4698.657
572.2870, 4579.000
573.4580, 4724.000
574.6290, 4670.000
575.7990, 4655.000
576.9700, 4732.000
578.1400, 4623.000
579.3100, 4535.000
580.4800, 4652.000
581.6500, 4652.000
582.8200, 4632.000
583.9890, 4655.000
585.1590, 4730.000
586.3280, 4621.000
587.4970, 4604.000
588.6660, 4581.033
589.8340, 4668.000
591.0030, 4573.000
592.1710, 4470.000
593.3390, 4612.000
594.5070, 4470.000
595.6750, 4577.000
596.8430, 4511.000
598.0100, 4548.000
599.1780, 4558.000
600.3450, 4508.000
601.5120, 4578.000
602.6790, 4516.000
603.8450, 4615.000
605.0120, 4525.000
606.1780, 4663.000
607.3440, 4510.000
608.5100, 4573.000
609.6760, 4648.000
610.8420, 4624.000
612.0070, 4670.000
613.1730, 4666.000
614.3380, 4784.000
615.5030, 4581.000
616.6680, 4762.000
617.8320, 4718.000
618.9970, 4713.000
620.1610, 4841.000
621.3250, 4846.000
622.4890, 4848.000
623.6530, 4855.000
624.8170, 4748.000
625.9800, 4943.000
627.1440, 4860.000
628.3070, 4993.000
629.4700, 5038.000
630.6330, 5067.000
631.7950, 5082.000
632.9580, 5111.000
634.1200, 5268.000
635.2820, 5292.000
636.4440, 5280.000
637.6060, 5479.000
638.7680, 5524.000
639.9290, 5590.000
641.0900, 5689.000
642.2520, 5815.000
643.4130, 5929.589
644.5730, 6064.449
645.7340, 6207.000
646.8950, 6424.000
648.0550, 6574.333
649.2150, 6775.362
650.3750, 6956.000
651.5350, 7173.000
652.6950, 7427.000
653.8540, 7629.000
655.0140, 7930.000
656.1730, 8223.000
657.3320, 8561.000
658.4910, 8969.000
659.6490, 9584.000
660.8080, 10252.00
661.9660, 11506.00
663.1240, 12583.00
664.2820, 14214.00
665.4400, 16418.00
666.5980, 18880.00
667.7550, 21771.00
668.9130, 25037.00
670.0700, 28515.00
671.2270, 31866.00
672.3840, 34636.00
673.5400, 35834.00
674.6970, 35486.00
675.8530, 33621.00
677.0090, 30563.00
678.1650, 26747.00
679.3210, 22764.00
680.4770, 19444.00
681.6330, 16606.00
682.7880, 14565.00
683.9430, 12985.00
685.0980, 12047.00
686.2530, 11295.00
687.4080, 10555.00
688.5620, 10151.00
689.7170, 9991.000
690.8710, 9705.000
692.0250, 9398.000
693.1790, 8942.000
694.3320, 8650.000
695.4860, 8170.000
696.6390, 7878.000
697.7930, 7458.000
698.9460, 7040.000
700.0980, 6875.000
701.2510, 6544.000
702.4040, 6346.000
703.5560, 6163.000
704.7080, 5959.000
705.8600, 5990.000
707.0120, 5888.000
708.1640, 5752.000
709.3160, 5616.000
710.4670, 5673.000
711.6180, 5482.000
712.7690, 5586.000
713.9200, 5426.000
715.0710, 5472.000
716.2220, 5494.000
717.3720, 5400.000
718.5220, 5342.000
719.6720, 5258.000
720.8220, 5298.000
721.9720, 5293.000
723.1220, 5331.000
724.2710, 5303.000
725.4200, 5245.000
726.5690, 5241.000
727.7180, 5283.000
728.8670, 5176.000
730.0160, 5251.000
731.1640, 5188.000
732.3120, 5380.000
733.4600, 5244.000
734.6080, 5364.000
735.7560, 5442.000
736.9040, 5366.000
738.0510, 5527.000
739.1980, 5495.000
740.3460, 5564.000
741.4930, 5586.000
742.6390, 5578.000
743.7860, 5634.000
744.9320, 5601.000
746.0790, 5697.000
747.2250, 5660.000
748.3710, 5721.000
749.5170, 5702.000
750.6620, 5735.000
751.8080, 5709.000
752.9530, 5526.000
754.0980, 5564.000
755.2430, 5448.000
756.3880, 5376.000
757.5330, 5307.000
758.6770, 5277.000
759.8220, 5315.000
760.9660, 5327.000
762.1100, 5283.000
763.2540, 5271.188
764.3970, 5238.000
765.5410, 5207.000
766.6840, 5248.000
767.8270, 5275.000
768.9700, 5147.000
770.1130, 5233.000
771.2560, 5160.000
772.3980, 5178.127
773.5410, 5111.000
774.6830, 5208.000
775.8250, 5200.000
776.9670, 5182.000
778.1080, 5182.000
779.2500, 5204.000
780.3910, 5191.000
781.5330, 5258.000
782.6740, 5204.000
783.8150, 5191.000
784.9550, 5290.000
786.0960, 5199.000
787.2360, 5195.000
788.3770, 5150.000
789.5170, 5175.000
790.6570, 5178.808
791.7960, 5198.000
792.9360, 5224.000
794.0750, 5255.000
795.2150, 5279.929
796.3540, 5276.000
797.4930, 5251.000
798.6310, 5243.000
799.7700, 5241.412
800.9080, 5243.631
802.0470, 5227.000
803.1850, 5273.000
804.3230, 5236.000
805.4610, 5260.000
806.5980, 5199.000
807.7360, 5256.000
808.8730, 5283.000
810.0100, 5269.000
811.1470, 5335.000
812.2840, 5266.000
813.4200, 5192.000
814.5570, 5328.000
815.6930, 5251.000
816.8290, 5308.000
817.9650, 5294.000
819.1010, 5273.000
820.2370, 5255.000
821.3720, 5331.000
822.5080, 5295.000
823.6430, 5322.000
824.7780, 5330.000
825.9130, 5284.000
827.0480, 5394.000
828.1820, 5284.000
829.3160, 5348.000
830.4510, 5327.000
831.5850, 5462.000
832.7190, 5408.000
833.8520, 5411.000
834.9860, 5381.000
836.1190, 5400.808
837.2520, 5400.000
838.3860, 5413.536
839.5180, 5354.000
840.6510, 5468.000
841.7840, 5456.000
842.9160, 5504.000
844.0480, 5400.000
845.1810, 5412.000
846.3120, 5349.000
847.4440, 5543.000
848.5760, 5499.000
849.7070, 5507.000
850.8390, 5426.000
851.9700, 5512.000
853.1010, 5443.000
854.2310, 5520.000
855.3620, 5454.000
856.4930, 5549.000
857.6230, 5522.000
858.7530, 5459.000
859.8830, 5483.000
861.0130, 5526.000
862.1430, 5477.000
863.2720, 5640.000
864.4010, 5634.000
865.5310, 5599.000
866.6600, 5588.000
867.7880, 5580.852
868.9170, 5720.000
870.0460, 5582.000
871.1740, 5638.000
872.3020, 5665.000
873.4300, 5606.000
874.5580, 5722.000
875.6860, 5729.000
876.8130, 5706.000
877.9410, 5731.000
879.0680, 5681.000
880.1950, 5715.000
881.3220, 5809.000
882.4490, 5725.000
883.5750, 5814.000
884.7020, 5846.000
885.8280, 5937.000
886.9540, 5903.000
888.0800, 5870.000
889.2060, 5952.000
890.3320, 5973.000
891.4570, 5998.000
892.5820, 6114.000
893.7070, 6127.000
894.8320, 6150.000
895.9570, 6251.000
897.0820, 6244.000
898.2060, 6269.000
899.3310, 6257.451
900.4550, 6380.000
901.5790, 6525.000
902.7030, 6405.000
903.8260, 6495.751
904.9500, 6508.165
906.0730, 6432.000
907.1960, 6588.000
908.3200, 6462.000
909.4420, 6580.000
910.5650, 6593.000
911.6880, 6610.000
912.8100, 6623.000
913.9320, 6750.000
915.0540, 6706.000
916.1760, 6859.000
917.2980, 7064.000
918.4200, 7131.000
919.5410, 7291.000
920.6620, 7435.000
921.7830, 7733.000
922.9040, 7854.000
924.0250, 8284.000
925.1460, 8668.000
926.2660, 9324.000
927.3870, 9276.000
928.5070, 9755.000
929.6270, 10024.00
930.7470, 10174.00
931.8660, 10155.00
932.9860, 9869.000
934.1050, 9576.000
935.2240, 9287.000
936.3430, 8832.000
937.4620, 8322.000
938.5810, 8055.000
939.6990, 7804.000
940.8180, 7665.000
941.9360, 7571.000
943.0540, 7537.000
944.1720, 7594.000
945.2900, 7470.000
946.4070, 7672.000
947.5250, 7756.000
948.6420, 7584.000
949.7590, 7627.000
950.8760, 7426.000
951.9930, 7396.000
953.1090, 7337.000
954.2260, 7303.000
955.3420, 7295.000
956.4580, 7139.000
957.5740, 7156.000
958.6900, 7091.000
959.8060, 6960.000
960.9210, 6971.000
962.0360, 6987.000
963.1520, 7006.000
964.2670, 6991.000
965.3810, 6996.209
966.4960, 6863.000
967.6110, 6988.000
968.7250, 6908.000
969.8390, 6915.000
970.9530, 6975.000
972.0670, 6983.000
973.1810, 6918.000
974.2940, 6901.000
975.4080, 6859.000
976.5210, 6919.000
977.6340, 6750.000
978.7470, 6836.000
979.8600, 6963.000
980.9730, 6871.000
982.0850, 6720.000
983.1970, 6840.000
984.3090, 6809.000
985.4210, 6770.000
986.5330, 6835.000
987.6450, 6829.000
988.7560, 6901.000
989.8680, 6841.000
990.9790, 6761.000
992.0900, 6742.000
993.2010, 6882.000
994.3110, 6772.000
995.4220, 7019.000
996.5320, 6904.000
997.6430, 6990.000
998.7530, 6972.000
999.8630, 6948.000
1000.972, 7133.000
1002.082, 7153.000
1003.191, 7198.000
1004.301, 7201.000
1005.410, 7298.000
1006.519, 7308.000
1007.627, 7330.000
1008.736, 7404.000
1009.844, 7509.000
1010.953, 7677.000
1012.061, 7752.000
1013.169, 7991.000
1014.277, 8149.000
1015.384, 8410.000
1016.492, 8671.000
1017.599, 8930.000
1018.706, 9083.000
1019.813, 9492.000
1020.920, 9626.000
1022.027, 9845.000
1023.134, 9931.000
1024.240, 10115.00
1025.346, 10419.00
1026.452, 10567.00
1027.558, 10763.00
1028.664, 11032.00
1029.770, 10960.00
1030.875, 10784.00
1031.980, 10657.00
1033.086, 10127.00
1034.190, 9847.000
1035.295, 9425.000
1036.400, 9325.000
1037.504, 9048.000
1038.609, 8978.000
1039.713, 8973.000
1040.817, 8905.000
1041.921, 9076.000
1043.025, 9197.000
1044.128, 9317.000
1045.231, 9772.000
1046.335, 10099.00
1047.438, 10522.00
1048.541, 11264.00
1049.643, 11947.00
1050.746, 12970.00
1051.848, 14137.00
1052.951, 15187.00
1054.053, 16629.00
1055.155, 17847.00
1056.257, 18997.00
1057.358, 20004.00
1058.460, 20650.00
1059.561, 20626.00
1060.662, 19783.00
1061.763, 18741.00
1062.864, 17431.00
1063.965, 15990.00
1065.065, 14639.00
1066.166, 13453.00
1067.266, 12656.00
1068.366, 12039.00
1069.466, 11344.00
1070.566, 10713.00
1071.665, 10155.00
1072.765, 9711.000
1073.864, 9275.000
1074.963, 8868.000
1076.062, 8445.000
1077.161, 8264.000
1078.259, 8058.000
1079.358, 8062.000
1080.456, 7901.000
1081.554, 7583.000
1082.652, 7741.000
1083.750, 7512.000
1084.848, 7571.000
1085.945, 7526.000
1087.043, 7507.000
1088.140, 7469.000
1089.237, 7520.000
1090.334, 7400.000
1091.431, 7506.000
1092.527, 7564.000
1093.624, 7460.000
1094.720, 7374.000
1095.816, 7318.000
1096.912, 7276.000
1098.008, 7152.000
1099.104, 7139.000
1100.199, 7101.000
1101.294, 7149.000
1102.390, 7151.000
1103.485, 7022.000
1104.579, 6960.000
1105.674, 7059.000
1106.769, 6993.000
1107.863, 7063.000
1108.957, 7019.000
1110.051, 7065.000
1111.145, 7003.000
1112.239, 7028.000
1113.333, 7045.000
1114.426, 6987.000
1115.519, 7055.000
1116.612, 6963.000
1117.705, 7021.000
1118.798, 6992.000
1119.891, 6991.000
1120.983, 6934.000
1122.076, 6912.000
1123.168, 6996.000
1124.260, 6910.000
1125.352, 6933.871
1126.443, 6947.000
1127.535, 6924.000
1128.626, 6932.000
1129.718, 6956.000
1130.809, 6947.000
1131.900, 6945.052
1132.990, 6912.000
1134.081, 6932.000
1135.171, 6951.000
1136.262, 6971.000
1137.352, 6926.000
1138.442, 6995.000
1139.532, 6991.000
1140.621, 6919.000
1141.711, 6869.000
1142.800, 6908.000
1143.890, 6921.000
1144.979, 6982.000
1146.067, 6900.000
1147.156, 6988.000
1148.245, 6932.000
1149.333, 6920.000
1150.421, 6850.000
1151.510, 6923.000
1152.597, 6900.000
1153.685, 6859.000
1154.773, 6899.000
1155.860, 6890.936
1156.948, 6953.000
1158.035, 6950.000
1159.122, 6970.000
1160.209, 7040.000
1161.295, 7012.000
1162.382, 6953.000
1163.468, 6965.000
1164.555, 6985.000
1165.641, 6895.000
1166.727, 6894.000
1167.812, 6941.000
1168.898, 6939.000
1169.983, 6911.000
1171.069, 6893.000
1172.154, 6897.357
1173.239, 6918.000
1174.324, 6931.000
1175.408, 6971.000
1176.493, 7048.000
1177.577, 6989.000
1178.661, 7006.000
1179.745, 7119.000
1180.829, 7068.268
1181.913, 7024.000
1182.997, 7051.000
1184.080, 7044.000
1185.163, 6991.000
1186.246, 7024.000
1187.329, 6988.000
1188.412, 7094.000
1189.495, 7059.000
1190.577, 6941.000
1191.660, 6980.000
1192.742, 7094.000
1193.824, 6896.000
1194.906, 7049.000
1195.987, 7086.000
1197.069, 7152.000
1198.150, 6981.000
1199.232, 7055.000
1200.313, 6957.000
1201.394, 7057.000
1202.474, 7064.000
1203.555, 7073.000
1204.635, 7110.000
1205.716, 7016.000
1206.796, 7033.000
1207.876, 7068.000
1208.956, 7057.000
1210.035, 7186.000
1211.115, 7212.000
1212.194, 7213.000
1213.274, 6992.000
1214.353, 7106.000
1215.432, 7110.000
1216.510, 7099.000
1217.589, 7223.000
1218.667, 7109.000
1219.746, 7155.000
1220.824, 7192.000
1221.902, 7114.000
1222.980, 7099.000
1224.057, 7168.000
1225.135, 7231.000
1226.212, 7336.000
1227.289, 7351.428
1228.366, 7350.017
1229.443, 7376.000
1230.520, 7297.000
1231.597, 7255.000
1232.673, 7260.000
1233.749, 7310.000
1234.825, 7386.000
1235.901, 7329.000
1236.977, 7391.000
1238.053, 7361.642
1239.128, 7265.000
1240.204, 7300.000
1241.279, 7319.000
1242.354, 7272.000
1243.429, 7356.000
1244.503, 7297.000
1245.578, 7329.000
1246.652, 7449.000
1247.727, 7316.000
1248.801, 7318.000
1249.875, 7371.000
1250.949, 7295.000
1252.022, 7349.000
1253.096, 7475.000
1254.169, 7412.000
1255.242, 7479.000
1256.315, 7413.000
1257.388, 7406.000
1258.461, 7448.000
1259.533, 7420.000
1260.606, 7414.000
1261.678, 7406.000
1262.750, 7427.642
1263.822, 7477.000
1264.894, 7485.000
1265.965, 7498.000
1267.037, 7512.000
1268.108, 7500.000
1269.179, 7577.000
1270.250, 7588.000
1271.321, 7550.000
1272.392, 7489.000
1273.463, 7563.000
1274.533, 7476.000
1275.603, 7586.000
1276.673, 7555.000
1277.743, 7625.000
1278.813, 7536.000
1279.883, 7613.000
1280.952, 7556.000
1282.021, 7641.000
1283.091, 7570.000
1284.160, 7611.000
1285.229, 7692.000
1286.297, 7548.000
1287.366, 7631.000
1288.434, 7583.000
1289.502, 7687.000
1290.570, 7744.000
1291.638, 7670.000
1292.706, 7676.000
1293.774, 7642.000
1294.841, 7544.000
1295.909, 7678.000
1296.976, 7729.000
1298.043, 7605.000
1299.110, 7718.000
1300.176, 7704.000
1301.243, 7704.000
1302.309, 7680.000
1303.376, 7696.373
1304.442, 7758.000
1305.508, 7719.000
1306.573, 7734.000
1307.639, 7732.871
1308.704, 7722.000
1309.770, 7760.000
1310.835, 7875.000
1311.900, 7872.000
1312.965, 7888.000
1314.030, 7883.000
1315.094, 7763.000
1316.159, 7967.000
1317.223, 7929.000
1318.287, 7922.000
1319.351, 7748.000
1320.415, 7985.000
1321.478, 7900.000
1322.542, 7923.000
1323.605, 7906.000
1324.668, 7962.000
1325.731, 7810.000
1326.794, 7821.000
1327.857, 7848.000
1328.919, 7835.000
1329.982, 7867.719
1331.044, 7844.000
1332.106, 7922.000
1333.168, 7926.000
1334.230, 7965.000
1335.292, 8046.000
1336.353, 8058.000
1337.414, 8094.000
1338.476, 8063.000
1339.537, 8084.000
1340.597, 7914.000
1341.658, 7984.000
1342.719, 8141.000
1343.779, 8015.000
1344.839, 8114.000
1345.900, 8076.000
1346.960, 8137.000
1348.019, 8097.000
1349.079, 8203.000
1350.139, 8166.160
1351.198, 8085.000
1352.257, 8119.000
1353.316, 8147.000
1354.375, 8095.000
1355.434, 8180.000
1356.492, 8224.000
1357.551, 8170.000
1358.609, 8211.000
1359.667, 8223.000
1360.725, 8107.000
1361.783, 8104.000
1362.841, 8183.000
1363.898, 8251.000
1364.956, 8188.000
1366.013, 8283.000
1367.070, 8077.000
1368.127, 8222.000
1369.183, 8245.000
1370.240, 8312.000
1371.297, 8167.000
1372.353, 8378.000
1373.409, 8259.000
1374.465, 8216.000
1375.521, 8294.000
1376.577, 8194.000
1377.632, 8230.000
1378.687, 8297.000
1379.743, 8350.000
1380.798, 8214.000
1381.853, 8322.000
1382.907, 8324.000
1383.962, 8334.000
1385.017, 8384.000
1386.071, 8407.000
1387.125, 8321.000
1388.179, 8352.000
1389.233, 8366.000
1390.287, 8391.000
1391.340, 8371.000
1392.394, 8355.000
1393.447, 8357.000
1394.500, 8371.000
1395.553, 8400.200
1396.606, 8384.000
1397.658, 8482.000
1398.711, 8424.000
1399.763, 8447.000
1400.815, 8368.000
1401.868, 8444.000
1402.919, 8319.000
1403.971, 8396.000
1405.023, 8327.000
1406.074, 8358.065
1407.125, 8412.000
1408.177, 8460.000
1409.228, 8450.000
1410.278, 8550.000
1411.329, 8456.000
1412.380, 8438.000
1413.430, 8460.000
1414.480, 8626.000
1415.530, 8531.000
1416.580, 8589.000
1417.630, 8598.000
1418.680, 8558.000
1419.729, 8662.000
1420.778, 8595.000
1421.828, 8519.000
1422.877, 8436.000
1423.925, 8556.000
1424.974, 8574.000
1426.023, 8566.000
1427.071, 8670.000
1428.119, 8668.000
1429.167, 8699.000
1430.215, 8752.000
1431.263, 8652.000
1432.311, 8573.000
1433.358, 8571.000
1434.406, 8626.000
1435.453, 8608.188
1436.500, 8670.825
1437.547, 8657.000
1438.594, 8749.000
1439.640, 8768.000
1440.687, 8733.000
1441.733, 8685.000
1442.779, 8783.000
1443.825, 8655.000
1444.871, 8738.000
1445.917, 8742.000
1446.962, 8837.000
1448.007, 8699.000
1449.053, 8790.000
1450.098, 8827.000
1451.143, 8763.000
1452.187, 8820.000
1453.232, 8769.000
1454.277, 8794.000
1455.321, 8846.000
1456.365, 8800.000
1457.409, 8871.000
1458.453, 8795.000
1459.497, 8838.000
1460.540, 8864.000
1461.584, 8873.000
1462.627, 8942.000
1463.670, 8930.000
1464.713, 8876.000
1465.756, 8907.994
1466.799, 8973.000
1467.841, 8920.000
1468.884, 8974.000
1469.926, 9032.000
1470.968, 9063.000
1472.010, 9058.000
1473.051, 9051.000
1474.093, 8931.000
1475.135, 9000.000
1476.176, 8988.000
1477.217, 9028.000
1478.258, 9061.000
1479.299, 9091.036
1480.340, 9102.284
1481.380, 9127.000
1482.421, 9116.000
1483.461, 9020.000
1484.501, 9026.000
1485.541, 9029.902
1486.581, 8994.000
1487.620, 9109.000
1488.660, 9150.000
1489.699, 9249.000
1490.739, 9064.000
1491.778, 9123.000
1492.817, 9104.000
1493.855, 9179.000
1494.894, 9037.000
1495.932, 9141.000
1496.971, 9077.000
1498.009, 9183.000
1499.047, 9240.000
1500.085, 9202.000
1501.122, 9257.000
1502.160, 9157.000
1503.197, 9284.000
1504.235, 9256.000
1505.272, 9201.000
1506.309, 9165.000
1507.346, 9315.000
1508.382, 9219.000
1509.419, 9329.000
1510.455, 9358.000
1511.491, 9326.000
1512.527, 9343.000
1513.563, 9296.000
1514.599, 9271.000
1515.635, 9274.000
1516.670, 9310.000
1517.706, 9326.000
1518.741, 9391.000
1519.776, 9324.000
1520.811, 9375.000
1521.845, 9496.000
1522.880, 9371.000
1523.914, 9442.000
1524.949, 9338.000
1525.983, 9460.000
1527.017, 9405.000
1528.050, 9605.000
1529.084, 9435.000
1530.118, 9502.000
1531.151, 9501.000
1532.184, 9551.000
1533.217, 9458.000
1534.250, 9485.000
1535.283, 9606.000
1536.316, 9499.000
1537.348, 9539.000
1538.381, 9399.000
1539.413, 9625.000
1540.445, 9578.000
1541.477, 9668.000
1542.508, 9561.000
1543.540, 9552.000
1544.571, 9586.000
1545.603, 9608.000
1546.634, 9592.000
1547.665, 9722.000
1548.696, 9670.000
1549.726, 9701.000
1550.757, 9662.000
1551.787, 9755.000
1552.817, 9644.000
1553.848, 9743.000
1554.878, 9773.000
1555.907, 9720.000
1556.937, 9753.000
1557.966, 9754.000
1558.996, 9684.000
1560.025, 9760.000
1561.054, 9679.000
1562.083, 9681.787
1563.112, 9719.000
1564.140, 9665.000
1565.169, 9711.000
1566.197, 9740.000
1567.225, 9767.000
1568.253, 9819.000
1569.281, 9829.275
1570.309, 9800.000
1571.336, 9846.000
1572.364, 9818.258
1573.391, 9868.000
1574.418, 9789.000
1575.445, 9790.000
1576.472, 9769.000
1577.499, 9959.000
1578.525, 9897.000
##END=



