##NAMES=Actinolite
##RRUFFID=R050336
##IDEAL CHEMISTRY=Ca_2_(Mg_4.5-2.5_Fe^2+^_0.5-2.5_)Si_8_O_22_(OH)_2_
##LOCALITY=Kragerø, Norway
##OWNER=RRUFF
##SOURCE=California Institute of Technology
##DESCRIPTION=Dark green prismatic fragment
##STATUS=The identification of this mineral has been confirmed by X-ray diffraction and chemical analysis
##URL=rruff.info/R050336
##MEASURED CHEMISTRY=([box]_0.62_Na_0.34_K_0.04_)(Ca_1.60_Na_0.40_)_Σ=2_(Mg_3.90_Fe^2+^_0.70_Al_0.20_Ti_0.10_Fe^3+^_0.10_)_Σ=5_(Si_7.52_Al_0.48_)_Σ=8_O_22_((OH)_0.97_F_0.03_)_2_
##PIN_ID=M00343
##ORIENTATION=Laser parallel to -a* (-1 0 0). Fiducial mark perpendicular to laser is parallel to b [0 1 0]
146.0460, 11440.00
147.2750, 11514.00
148.5030, 11532.00
149.7320, 11755.00
150.9600, 12116.00
152.1880, 12484.00
153.4160, 12638.00
154.6440, 13041.00
155.8720, 13060.00
157.0990, 13575.00
158.3270, 13768.00
159.5540, 13928.00
160.7810, 13776.00
162.0080, 13940.00
163.2350, 14051.00
164.4610, 13874.00
165.6880, 13954.00
166.9140, 13814.00
168.1400, 13818.00
169.3660, 13938.00
170.5920, 14087.63
171.8180, 14526.00
173.0430, 14626.00
174.2690, 15041.00
175.4940, 15367.00
176.7190, 15550.00
177.9440, 15723.00
179.1680, 15550.00
180.3930, 15269.00
181.6170, 15117.00
182.8420, 14839.00
184.0660, 14397.00
185.2900, 14375.00
186.5140, 13928.00
187.7370, 13726.00
188.9610, 13679.00
190.1840, 13729.00
191.4070, 13463.00
192.6300, 13380.00
193.8530, 13255.00
195.0760, 13050.00
196.2980, 13160.00
197.5210, 13202.00
198.7430, 13262.00
199.9650, 13288.00
201.1870, 13402.00
202.4090, 13430.00
203.6310, 13318.00
204.8520, 13243.00
206.0730, 13301.00
207.2950, 13429.00
208.5160, 13478.00
209.7360, 13719.00
210.9570, 14158.00
212.1780, 14309.00
213.3980, 14798.00
214.6180, 15012.00
215.8380, 15445.00
217.0580, 15810.00
218.2780, 15964.00
219.4980, 16623.00
220.7170, 16814.00
221.9360, 17242.00
223.1560, 17323.00
224.3750, 17610.00
225.5930, 17708.00
226.8120, 17674.00
228.0310, 17734.00
229.2490, 17710.00
230.4670, 17195.00
231.6850, 17000.00
232.9030, 16658.00
234.1210, 16018.00
235.3380, 15369.00
236.5560, 15048.00
237.7730, 14345.00
238.9900, 14242.00
240.2070, 13660.00
241.4240, 13571.00
242.6410, 13343.00
243.8570, 13113.35
245.0730, 13038.29
246.2900, 12934.48
247.5060, 12803.87
248.7210, 12555.27
249.9370, 12467.13
251.1530, 12319.58
252.3680, 12173.08
253.5830, 12117.71
254.7980, 11904.40
256.0130, 11854.68
257.2280, 11744.59
258.4430, 11667.25
259.6570, 11530.20
260.8720, 11416.13
262.0860, 11369.01
263.3000, 11290.33
264.5130, 11160.11
265.7270, 11105.80
266.9410, 10831.00
268.1540, 10756.00
269.3670, 10863.00
270.5800, 10632.00
271.7930, 10609.00
273.0060, 10706.00
274.2190, 10764.00
275.4310, 10832.00
276.6430, 10873.67
277.8550, 10830.00
279.0670, 10983.00
280.2790, 10895.00
281.4910, 11044.00
282.7020, 11099.00
283.9140, 11065.00
285.1250, 11305.00
286.3360, 11303.00
287.5470, 11292.00
288.7570, 11396.00
289.9680, 11494.00
291.1780, 11508.00
292.3880, 11578.00
293.5990, 11638.09
294.8080, 11650.00
296.0180, 11771.00
297.2280, 11784.00
298.4370, 11880.00
299.6470, 11770.00
300.8560, 11830.00
302.0650, 11841.00
303.2740, 11741.00
304.4820, 11923.00
305.6910, 11737.00
306.8990, 11759.00
308.1070, 11701.00
309.3150, 11668.00
310.5230, 11674.00
311.7310, 11640.00
312.9390, 11646.00
314.1460, 11742.00
315.3530, 11711.00
316.5600, 11743.00
317.7670, 11790.00
318.9740, 11965.00
320.1810, 11871.00
321.3870, 11935.00
322.5930, 12263.00
323.8000, 12072.00
325.0060, 12239.00
326.2110, 12252.00
327.4170, 12406.00
328.6230, 12572.00
329.8280, 12513.00
331.0330, 12504.00
332.2380, 12581.00
333.4430, 12533.00
334.6480, 12445.00
335.8530, 12356.00
337.0570, 12355.00
338.2610, 12285.42
339.4650, 12294.00
340.6690, 12198.00
341.8730, 12193.00
343.0770, 12114.00
344.2800, 12260.00
345.4840, 12288.00
346.6870, 12253.00
347.8900, 12268.00
349.0930, 12388.00
350.2950, 12109.00
351.4980, 12160.00
352.7000, 12147.00
353.9030, 12408.00
355.1050, 12342.00
356.3070, 12450.00
357.5080, 12627.00
358.7100, 13024.00
359.9110, 13020.00
361.1130, 13356.00
362.3140, 13772.00
363.5150, 14010.00
364.7160, 14421.00
365.9160, 14713.00
367.1170, 14828.00
368.3170, 14968.00
369.5170, 15313.00
370.7170, 15633.00
371.9170, 15306.91
373.1170, 15139.00
374.3170, 14719.00
375.5160, 14718.00
376.7150, 14702.00
377.9140, 14445.00
379.1130, 14437.00
380.3120, 14509.00
381.5110, 14682.00
382.7090, 14693.00
383.9070, 15017.00
385.1060, 15370.00
386.3040, 16032.00
387.5010, 16204.00
388.6990, 16603.00
389.8970, 16634.00
391.0940, 16880.00
392.2910, 16803.00
393.4880, 16541.00
394.6850, 16157.00
395.8820, 15712.00
397.0780, 15155.00
398.2750, 14557.00
399.4710, 14044.00
400.6670, 13748.96
401.8630, 13550.00
403.0590, 13382.00
404.2540, 13311.00
405.4500, 13300.91
406.6450, 13378.00
407.8400, 13463.00
409.0350, 13652.00
410.2300, 13851.00
411.4250, 13998.00
412.6190, 14225.00
413.8140, 14005.00
415.0080, 14290.00
416.2020, 13909.00
417.3960, 14020.00
418.5900, 13825.27
419.7830, 13652.12
420.9770, 13397.00
422.1700, 13319.00
423.3630, 13103.00
424.5560, 12896.00
425.7490, 12752.00
426.9410, 12698.00
428.1340, 12574.00
429.3260, 12307.29
430.5180, 12294.66
431.7100, 12249.86
432.9020, 12174.62
434.0940, 11977.77
435.2850, 11938.03
436.4770, 11835.28
437.6680, 11730.02
438.8590, 11712.38
440.0500, 11533.29
441.2410, 11514.26
442.4310, 11645.00
443.6220, 11327.00
444.8120, 11177.00
446.0020, 11150.00
447.1920, 11051.00
448.3820, 10999.00
449.5710, 11037.00
450.7610, 10928.00
451.9500, 10918.00
453.1390, 10949.00
454.3280, 10813.00
455.5170, 10756.00
456.7060, 10842.00
457.8940, 10797.00
459.0830, 10818.03
460.2710, 10752.00
461.4590, 10864.00
462.6470, 10745.00
463.8350, 10804.00
465.0220, 10673.00
466.2100, 10721.00
467.3970, 10798.00
468.5840, 10609.00
469.7710, 10578.00
470.9580, 10675.00
472.1440, 10629.00
473.3310, 10727.00
474.5170, 10641.00
475.7030, 10605.00
476.8890, 10595.00
478.0750, 10636.00
479.2610, 10662.95
480.4460, 10774.00
481.6320, 10786.00
482.8170, 10838.00
484.0020, 10909.00
485.1870, 10928.00
486.3710, 10960.00
487.5560, 11036.00
488.7400, 11025.00
489.9250, 11028.00
491.1090, 11148.00
492.2930, 11154.00
493.4760, 11364.00
494.6600, 11332.00
495.8440, 11507.00
497.0270, 11548.00
498.2100, 11727.00
499.3930, 12031.00
500.5760, 12106.00
501.7580, 12146.00
502.9410, 12354.00
504.1230, 12670.00
505.3060, 12839.00
506.4880, 13198.00
507.6690, 13309.00
508.8510, 13603.00
510.0330, 13967.00
511.2140, 13895.00
512.3950, 13994.00
513.5760, 14182.00
514.7570, 14107.00
515.9380, 14057.00
517.1190, 14077.00
518.2990, 13964.00
519.4800, 14057.00
520.6600, 13833.00
521.8400, 13864.00
523.0190, 13868.00
524.1990, 13799.00
525.3790, 13874.00
526.5580, 14044.00
527.7370, 13918.00
528.9160, 14144.00
530.0950, 14035.00
531.2740, 14000.00
532.4520, 13962.00
533.6310, 13992.00
534.8090, 13855.00
535.9870, 13910.00
537.1650, 13806.00
538.3430, 13748.00
539.5200, 13846.00
540.6980, 13803.00
541.8750, 13879.00
543.0520, 13810.00
544.2290, 13642.00
545.4060, 13609.00
546.5820, 13540.00
547.7590, 13598.00
548.9350, 13515.00
550.1110, 13685.00
551.2870, 13562.00
552.4630, 13671.00
553.6390, 13537.00
554.8140, 13435.00
555.9900, 13552.00
557.1650, 13722.00
558.3400, 13738.00
559.5150, 13639.00
560.6900, 13666.00
561.8640, 13515.00
563.0390, 13681.00
564.2130, 13693.00
565.3870, 13585.00
566.5610, 13557.00
567.7350, 13503.00
568.9080, 13318.00
570.0820, 13310.00
571.2550, 13297.00
572.4280, 13010.00
573.6010, 12779.00
574.7740, 12881.00
575.9470, 12560.00
577.1190, 12566.00
578.2920, 12267.00
579.4640, 11937.00
580.6360, 11949.00
581.8080, 11719.00
582.9790, 11296.00
584.1510, 11134.00
585.3220, 11133.00
586.4940, 10861.00
587.6650, 10711.00
588.8360, 10511.00
590.0060, 10404.00
591.1770, 10228.00
592.3470, 10257.00
593.5180, 10062.00
594.6880, 10059.00
595.8580, 9970.000
597.0280, 10029.00
598.1970, 9909.000
599.3670, 9879.000
600.5360, 10012.00
601.7050, 9955.000
602.8740, 9956.000
604.0430, 10031.00
605.2120, 9968.000
606.3800, 10065.00
607.5490, 10019.00
608.7170, 10119.00
609.8850, 10001.00
611.0530, 10190.00
612.2210, 10115.00
613.3880, 10160.00
614.5560, 10170.00
615.7230, 10173.20
616.8900, 10291.00
618.0570, 10264.00
619.2240, 10290.00
620.3900, 10423.00
621.5570, 10496.00
622.7230, 10492.00
623.8890, 10613.73
625.0550, 10596.00
626.2210, 10749.00
627.3870, 10814.00
628.5520, 10830.00
629.7180, 10835.00
630.8830, 10928.36
632.0480, 11028.36
633.2130, 11164.00
634.3770, 11270.00
635.5420, 11540.00
636.7060, 11585.00
637.8710, 11879.00
639.0350, 11963.00
640.1990, 12053.00
641.3620, 12159.00
642.5260, 12394.00
643.6890, 12396.00
644.8530, 12731.00
646.0160, 13024.00
647.1790, 13133.00
648.3410, 13508.00
649.5040, 13868.00
650.6670, 14277.00
651.8290, 14676.00
652.9910, 15008.00
654.1530, 15703.00
655.3150, 16039.00
656.4770, 16846.00
657.6380, 17723.00
658.7990, 18517.00
659.9610, 19945.00
661.1220, 21366.00
662.2830, 23036.00
663.4430, 25138.00
664.6040, 27242.00
665.7640, 30143.00
666.9240, 32696.00
668.0850, 35306.00
669.2440, 37812.00
670.4040, 39044.00
671.5640, 40187.00
672.7230, 40046.00
673.8830, 38420.00
675.0420, 36409.00
676.2010, 33916.00
677.3590, 30925.00
678.5180, 28118.00
679.6770, 25754.00
680.8350, 23713.00
681.9930, 21857.00
683.1510, 20491.00
684.3090, 19604.00
685.4670, 18400.00
686.6240, 17754.00
687.7810, 17312.00
688.9390, 16980.00
690.0960, 16478.00
691.2530, 16200.00
692.4090, 16048.00
693.5660, 15742.00
694.7220, 15677.00
695.8790, 15691.00
697.0350, 15622.00
698.1910, 15462.00
699.3460, 15592.00
700.5020, 15586.00
701.6570, 15592.00
702.8130, 15826.00
703.9680, 15742.00
705.1230, 16181.00
706.2780, 16132.30
707.4320, 16294.00
708.5870, 16273.00
709.7410, 16563.00
710.8950, 16770.00
712.0490, 16903.00
713.2030, 17175.00
714.3570, 17346.00
715.5100, 17318.00
716.6640, 17827.00
717.8170, 17774.00
718.9700, 17934.00
720.1230, 18442.00
721.2760, 18494.00
722.4280, 18531.00
723.5810, 18818.00
724.7330, 18712.00
725.8850, 18834.00
727.0370, 19194.00
728.1890, 19302.00
729.3400, 19229.00
730.4920, 19461.00
731.6430, 19514.00
732.7940, 19847.00
733.9450, 19679.00
735.0960, 19753.00
736.2460, 19797.00
737.3970, 19523.00
738.5470, 19618.00
739.6970, 19500.00
740.8470, 19326.00
741.9970, 18925.00
743.1470, 18659.00
744.2970, 18585.00
745.4460, 18315.00
746.5950, 17971.00
747.7440, 17756.00
748.8930, 17399.00
750.0420, 17139.86
751.1900, 16851.90
752.3390, 16599.00
753.4870, 16254.00
754.6350, 15994.00
755.7830, 15660.73
756.9310, 15507.00
758.0780, 15140.00
759.2260, 14988.00
760.3730, 14805.00
761.5200, 14501.00
762.6670, 14552.00
763.8140, 14430.00
764.9610, 14228.75
766.1070, 14150.70
767.2530, 13911.00
768.4000, 13878.00
769.5460, 13817.00
770.6910, 13788.00
771.8370, 13703.32
772.9830, 13771.00
774.1280, 13579.00
775.2730, 13573.00
776.4180, 13616.00
777.5630, 13397.00
778.7080, 13543.00
779.8520, 13446.00
780.9970, 13411.00
782.1410, 13479.00
783.2850, 13332.00
784.4290, 13339.00
785.5730, 13387.00
786.7160, 13382.00
787.8600, 13325.00
789.0030, 13316.00
790.1460, 13268.00
791.2890, 13303.00
792.4320, 13259.00
793.5750, 13157.00
794.7170, 13225.00
795.8590, 13140.00
797.0020, 12940.00
798.1440, 12904.00
799.2850, 12824.00
800.4270, 12877.00
801.5690, 12769.00
802.7100, 12759.00
803.8510, 12690.00
804.9920, 12641.00
806.1330, 12538.00
807.2740, 12366.00
808.4140, 12283.00
809.5550, 12160.00
810.6950, 12319.00
811.8350, 12073.00
812.9750, 12335.00
814.1150, 12121.00
815.2540, 12063.00
816.3940, 12103.00
817.5330, 11884.00
818.6720, 11910.00
819.8110, 11915.00
820.9500, 11761.00
822.0880, 11740.00
823.2270, 11757.00
824.3650, 11674.00
825.5030, 11801.00
826.6410, 11650.00
827.7790, 11463.00
828.9170, 11438.00
830.0540, 11559.00
831.1920, 11552.00
832.3290, 11449.00
833.4660, 11381.00
834.6030, 11373.00
835.7390, 11318.14
836.8760, 11343.00
838.0120, 11277.00
839.1480, 11323.38
840.2840, 11303.00
841.4200, 11342.00
842.5560, 11305.00
843.6920, 11246.00
844.8270, 11203.95
845.9620, 11266.65
847.0970, 11301.29
848.2320, 11309.61
849.3670, 11200.42
850.5020, 11252.39
851.6360, 11245.52
852.7700, 11240.17
853.9040, 11326.55
855.0380, 11255.59
856.1720, 11348.79
857.3060, 11382.20
858.4390, 11364.00
859.5730, 11411.00
860.7060, 11381.00
861.8390, 11436.31
862.9720, 11523.00
864.1040, 11482.00
865.2370, 11652.00
866.3690, 11626.00
867.5010, 11572.00
868.6330, 11735.00
869.7650, 11632.00
870.8970, 11727.00
872.0290, 11829.00
873.1600, 11651.00
874.2910, 11885.00
875.4220, 12063.00
876.5530, 11918.00
877.6840, 12085.00
878.8140, 11971.00
879.9450, 12199.00
881.0750, 12217.00
882.2050, 12248.00
883.3350, 12189.00
884.4650, 12384.00
885.5950, 12403.00
886.7240, 12564.00
887.8530, 12496.00
888.9820, 12419.00
890.1110, 12599.00
891.2400, 12757.00
892.3690, 12773.00
893.4970, 12686.00
894.6260, 12917.00
895.7540, 12868.00
896.8820, 12924.00
898.0100, 13032.00
899.1370, 12920.00
900.2650, 13127.00
901.3920, 12990.00
902.5200, 13095.00
903.6470, 13201.00
904.7730, 12840.00
905.9000, 13122.00
907.0270, 13229.00
908.1530, 12984.00
909.2790, 13298.00
910.4050, 13089.00
911.5310, 13303.00
912.6570, 13280.00
913.7830, 13247.00
914.9080, 13255.00
916.0330, 13334.07
917.1580, 13380.24
918.2830, 13536.00
919.4080, 13614.00
920.5330, 13695.00
921.6570, 13922.00
922.7820, 13861.00
923.9060, 13869.00
925.0300, 13992.00
926.1540, 14293.00
927.2770, 14167.00
928.4010, 14238.00
929.5240, 14187.00
930.6470, 14176.00
931.7700, 13915.00
932.8930, 13747.00
934.0160, 13610.00
935.1380, 13553.00
936.2610, 13474.00
937.3830, 13337.00
938.5050, 13147.00
939.6270, 13126.00
940.7490, 13067.00
941.8700, 13082.83
942.9910, 13144.00
944.1130, 13187.00
945.2340, 13210.00
946.3550, 13213.00
947.4750, 13232.23
948.5960, 13217.00
949.7160, 13242.00
950.8370, 13226.27
951.9570, 13229.96
953.0770, 13190.00
954.1970, 13198.00
955.3160, 13157.00
956.4360, 13072.00
957.5550, 12986.00
958.6740, 13032.00
959.7930, 13144.00
960.9120, 13105.00
962.0310, 13369.00
963.1490, 13264.00
964.2670, 13190.00
965.3860, 13353.00
966.5040, 13297.00
967.6210, 13327.00
968.7390, 13364.00
969.8570, 13290.00
970.9740, 13387.00
972.0910, 13367.00
973.2080, 13326.00
974.3250, 13465.00
975.4420, 13362.00
976.5580, 13187.00
977.6750, 13389.00
978.7910, 13183.00
979.9070, 13091.00
981.0230, 13224.00
982.1390, 13191.00
983.2540, 13243.00
984.3700, 13174.00
985.4850, 13218.00
986.6000, 13229.00
987.7150, 13155.00
988.8300, 13225.00
989.9450, 13266.00
991.0590, 13360.00
992.1730, 13424.00
993.2880, 13461.00
994.4010, 13543.47
995.5150, 13406.00
996.6290, 13607.00
997.7420, 13717.00
998.8560, 13611.00
999.9690, 13773.00
1001.082, 13936.00
1002.195, 14035.00
1003.307, 14122.00
1004.420, 14235.00
1005.532, 14356.00
1006.645, 14444.99
1007.757, 14552.59
1008.868, 14626.00
1009.980, 14700.00
1011.092, 14758.17
1012.203, 14730.00
1013.314, 14856.00
1014.425, 14862.00
1015.536, 14897.00
1016.647, 15004.00
1017.758, 15020.00
1018.868, 15130.00
1019.978, 15113.00
1021.088, 15262.00
1022.198, 15276.00
1023.308, 15372.00
1024.418, 15629.00
1025.527, 15730.00
1026.637, 15843.89
1027.746, 15820.00
1028.855, 16013.00
1029.963, 15976.00
1031.072, 16019.00
1032.181, 15965.00
1033.289, 15943.00
1034.397, 15731.00
1035.505, 15611.00
1036.613, 15456.00
1037.721, 15448.00
1038.828, 15449.00
1039.935, 15211.00
1041.043, 15229.00
1042.150, 15139.00
1043.257, 15214.00
1044.363, 15268.00
1045.470, 15324.00
1046.576, 15017.00
1047.682, 15222.00
1048.788, 15247.00
1049.894, 15331.00
1051.000, 15448.00
1052.106, 15554.00
1053.211, 15492.00
1054.316, 15664.00
1055.421, 15705.00
1056.526, 15867.00
1057.631, 15964.00
1058.736, 15970.00
1059.840, 16066.63
1060.944, 16056.51
1062.049, 16125.00
1063.153, 16042.00
1064.256, 16009.00
1065.360, 16007.00
1066.463, 15702.00
1067.567, 15463.00
1068.670, 15375.00
1069.773, 15112.15
1070.876, 15000.00
1071.978, 14771.00
1073.081, 14631.00
1074.183, 14539.00
1075.285, 14252.00
1076.387, 14348.00
1077.489, 14206.00
1078.591, 13999.00
1079.692, 13959.00
1080.794, 13885.00
1081.895, 13863.00
1082.996, 13915.00
1084.097, 13679.00
1085.198, 13486.00
1086.298, 13586.00
1087.399, 13531.00
1088.499, 13458.00
1089.599, 13333.00
1090.699, 13317.00
1091.799, 13143.00
1092.898, 13140.00
1093.998, 13076.00
1095.097, 12971.00
1096.196, 12984.00
1097.295, 12995.00
1098.394, 12913.00
1099.492, 12802.00
1100.591, 12842.00
1101.689, 12731.00
1102.787, 12817.00
1103.885, 12626.00
1104.983, 12856.00
1106.081, 12798.00
1107.178, 12744.00
1108.275, 12607.00
1109.373, 12655.00
1110.470, 12740.00
1111.566, 12567.00
1112.663, 12612.00
1113.760, 12544.00
1114.856, 12594.00
1115.952, 12409.00
1117.048, 12435.00
1118.144, 12459.00
1119.240, 12296.00
1120.335, 12444.00
1121.431, 12361.00
1122.526, 12238.00
1123.621, 12199.00
1124.716, 12261.00
1125.810, 12179.00
1126.905, 12227.00
1127.999, 12243.00
1129.094, 12180.00
1130.188, 12269.00
1131.282, 12115.00
1132.375, 11992.00
1133.469, 11922.00
1134.562, 11897.00
1135.656, 11967.00
1136.749, 11967.00
1137.842, 11885.00
1138.935, 11953.00
1140.027, 11952.00
1141.120, 11918.94
1142.212, 11933.00
1143.304, 11897.00
1144.396, 11829.00
1145.488, 11858.67
1146.579, 11781.00
1147.671, 11810.00
1148.762, 11770.00
1149.853, 11748.33
1150.944, 11797.00
1152.035, 11720.00
1153.126, 11648.00
1154.216, 11645.94
1155.307, 11603.00
1156.397, 11630.00
1157.487, 11642.00
1158.577, 11572.00
1159.667, 11645.00
1160.756, 11605.00
1161.846, 11636.00
1162.935, 11791.00
1164.024, 11526.00
1165.113, 11721.00
1166.201, 11420.00
1167.290, 11554.00
1168.378, 11567.00
1169.467, 11516.00
1170.555, 11430.00
1171.643, 11401.00
1172.730, 11722.00
1173.818, 11554.00
1174.905, 11633.00
1175.993, 11496.00
1177.080, 11614.00
1178.167, 11570.00
1179.254, 11648.00
1180.340, 11544.00
1181.427, 11633.00
1182.513, 11558.00
1183.599, 11575.00
1184.685, 11473.00
1185.771, 11537.00
1186.856, 11476.00
1187.942, 11483.00
1189.027, 11594.00
1190.112, 11708.00
1191.197, 11517.00
1192.282, 11588.00
1193.367, 11520.00
1194.451, 11557.00
1195.536, 11463.00
1196.620, 11437.00
1197.704, 11493.00
1198.788, 11444.00
1199.872, 11603.00
1200.955, 11487.00
1202.039, 11529.00
1203.122, 11613.00
1204.205, 11584.00
1205.288, 11504.00
1206.370, 11608.00
1207.453, 11694.00
1208.535, 11504.00
1209.618, 11659.00
1210.700, 11544.00
1211.782, 11573.00
1212.863, 11559.00
1213.945, 11659.00
1215.026, 11596.00
1216.108, 11590.00
1217.189, 11506.00
1218.270, 11555.97
1219.351, 11605.00
1220.431, 11666.00
1221.512, 11731.00
1222.592, 11821.00
1223.672, 11591.00
1224.752, 11692.00
1225.832, 11842.00
1226.911, 11603.00
1227.991, 11909.00
1229.070, 11684.00
1230.149, 11788.00
1231.228, 11692.00
1232.307, 11796.00
1233.386, 11710.00
1234.464, 11538.00
1235.543, 11757.00
1236.621, 11703.00
1237.699, 11685.00
1238.777, 11930.00
1239.855, 11827.69
1240.932, 11767.00
1242.009, 11809.00
1243.087, 11778.00
1244.164, 11742.00
1245.241, 11795.00
1246.317, 11773.00
1247.394, 11798.00
1248.470, 11797.00
1249.546, 11855.00
1250.623, 11858.00
1251.698, 11860.78
1252.774, 11877.00
1253.850, 11855.00
1254.925, 11853.06
1256.000, 11859.00
1257.076, 11826.00
1258.150, 11745.00
1259.225, 11778.00
1260.300, 11870.00
1261.374, 11845.00
1262.449, 11931.00
1263.523, 11764.00
1264.597, 11824.00
1265.670, 11846.00
1266.744, 11775.00
1267.818, 11872.00
1268.891, 11903.00
1269.964, 12014.00
1271.037, 11929.00
1272.110, 11803.00
1273.183, 11934.00
1274.255, 11917.00
1275.327, 11848.00
1276.400, 11863.00
1277.472, 11912.00
1278.543, 11725.00
1279.615, 11786.00
1280.687, 11751.47
1281.758, 11969.00
1282.829, 11784.00
1283.900, 11841.00
1284.971, 11941.00
1286.042, 11794.00
1287.112, 11971.00
1288.183, 11921.00
1289.253, 11921.00
1290.323, 11992.00
1291.393, 11986.00
1292.463, 11985.00
1293.532, 12098.00
1294.602, 12092.00
1295.671, 12018.00
1296.740, 12104.00
1297.809, 11920.00
1298.878, 11993.00
1299.946, 11919.00
1301.015, 11928.55
1302.083, 12148.00
1303.151, 11998.00
1304.219, 12078.00
1305.287, 12125.00
1306.354, 12050.57
1307.422, 12034.00
1308.489, 11971.00
1309.556, 12069.00
1310.623, 11996.00
1311.690, 12040.00
1312.757, 12158.00
1313.823, 11899.00
1314.890, 12128.00
1315.956, 12113.00
1317.022, 12061.00
1318.088, 12003.00
1319.153, 12042.22
1320.219, 12027.00
1321.284, 12090.00
1322.349, 12090.00
1323.414, 12058.00
1324.479, 12023.00
1325.544, 12041.39
1326.608, 12140.00
1327.673, 12090.00
1328.737, 12118.00
1329.801, 12192.00
1330.865, 12015.93
1331.929, 12112.31
1332.992, 12174.97
1334.056, 12205.68
1335.119, 12113.24
1336.182, 12176.30
1337.245, 12174.91
1338.308, 12169.41
1339.370, 12249.99
1340.433, 12167.60
1341.495, 12243.74
1342.557, 12254.46
1343.619, 12292.90
1344.681, 12266.50
1345.742, 12258.13
1346.804, 12311.58
1347.865, 12328.44
1348.926, 12288.65
1349.987, 12319.82
1351.048, 12219.99
1352.108, 12232.26
1353.169, 12292.03
1354.229, 12247.84
1355.289, 12272.58
1356.349, 12268.96
1357.409, 12141.90
1358.469, 12209.00
1359.528, 12291.00
1360.588, 12160.00
1361.647, 12279.00
1362.706, 12254.00
1363.765, 12210.00
1364.823, 12134.00
1365.882, 12293.00
1366.940, 12398.00
1367.998, 12335.00
1369.056, 12412.73
1370.114, 12251.00
1371.172, 12345.00
1372.229, 12466.00
1373.287, 12323.00
1374.344, 12283.00
1375.401, 12281.00
1376.458, 12373.00
1377.515, 12244.00
1378.571, 12257.00
1379.628, 12322.00
1380.684, 12100.00
1381.740, 12448.00
1382.796, 12444.00
1383.852, 12341.00
1384.907, 12402.00
1385.963, 12335.00
1387.018, 12382.00
1388.073, 12398.00
1389.128, 12336.00
1390.183, 12335.00
1391.237, 12334.00
1392.292, 12320.00
1393.346, 12344.00
1394.400, 12357.00
1395.454, 12354.00
1396.508, 12431.00
1397.562, 12404.96
1398.615, 12315.00
1399.668, 12406.00
1400.722, 12380.00
1401.775, 12401.00
1402.827, 12436.54
1403.880, 12408.00
1404.933, 12486.00
1405.985, 12465.00
1407.037, 12499.00
1408.089, 12529.00
1409.141, 12530.00
1410.193, 12558.11
1411.244, 12592.00
1412.295, 12562.00
1413.347, 12512.00
1414.398, 12449.00
1415.449, 12443.57
1416.499, 12462.00
1417.550, 12469.00
1418.600, 12524.00
1419.650, 12554.71
1420.700, 12570.00
1421.750, 12644.00
1422.800, 12648.00
1423.850, 12676.00
1424.899, 12640.00
1425.948, 12676.50
1426.997, 12675.00
1428.046, 12749.00
1429.095, 12656.00
1430.144, 12744.00
1431.192, 12678.00
1432.240, 12832.00
1433.288, 12831.00
1434.336, 12773.00
1435.384, 12804.00
1436.432, 12781.35
1437.479, 12761.00
1438.526, 12777.00
1439.574, 12801.00
1440.621, 12810.00
1441.667, 12763.00
1442.714, 12864.00
1443.760, 12866.00
1444.807, 12756.00
1445.853, 12717.00
1446.899, 12912.00
1447.945, 12811.00
1448.990, 12881.00
1450.036, 12947.00
1451.081, 12987.00
1452.126, 12885.00
1453.171, 12773.00
1454.216, 12786.00
1455.261, 12905.00
1456.305, 13018.00
1457.350, 12933.00
1458.394, 12992.00
1459.438, 13037.00
1460.482, 12833.00
1461.526, 12929.00
1462.569, 12854.00
1463.612, 12745.00
1464.656, 13084.00
1465.699, 12928.00
1466.742, 12889.00
1467.784, 13037.00
1468.827, 12897.00
1469.869, 13004.00
1470.912, 12930.00
1471.954, 13083.00
1472.996, 12942.00
1474.037, 13006.00
1475.079, 12886.00
1476.120, 13032.00
1477.162, 13069.00
1478.203, 12934.00
1479.244, 12925.00
1480.284, 13035.00
1481.325, 13010.00
1482.365, 13254.00
1483.406, 13041.00
1484.446, 13165.00
1485.486, 13067.00
1486.526, 12830.00
1487.565, 13113.00
1488.605, 12887.00
1489.644, 13008.00
1490.683, 13013.00
1491.722, 13093.00
1492.761, 12921.00
1493.800, 12902.00
1494.838, 12857.00
1495.876, 12995.00
1496.915, 12964.00
1497.953, 13048.00
1498.990, 13042.00
1500.028, 12984.00
1501.066, 13160.00
1502.103, 12868.00
1503.140, 12964.00
1504.177, 12989.00
1505.214, 12989.00
1506.251, 12857.00
1507.287, 13022.00
1508.324, 13077.00
1509.360, 12883.00
1510.396, 13072.00
1511.432, 12971.00
1512.468, 13065.00
1513.503, 13049.85
1514.538, 13289.00
1515.574, 13074.00
1516.609, 12938.00
1517.644, 13116.00
1518.678, 12969.00
1519.713, 13054.00
1520.747, 13070.00
1521.782, 12948.00
1522.816, 12993.00
1523.850, 13097.00
1524.883, 13051.00
1525.917, 12989.00
1526.951, 13131.00
1527.984, 13153.00
1529.017, 13014.00
1530.050, 13009.00
1531.083, 13021.00
1532.115, 13032.00
1533.148, 13144.00
1534.180, 13156.00
1535.212, 13208.00
1536.244, 12988.00
1537.276, 13296.00
1538.308, 13050.00
1539.339, 13077.00
1540.370, 13232.00
1541.402, 13075.00
1542.433, 13150.00
1543.463, 13142.00
1544.494, 13144.00
1545.525, 13136.00
1546.555, 13204.00
##END=



