##NAMES=Actinolite
##RRUFFID=R040063
##IDEAL CHEMISTRY=Ca_2_(Mg_4.5-2.5_Fe^2+^_0.5-2.5_)Si_8_O_22_(OH)_2_
##LOCALITY=Harford County, Maryland, USA
##OWNER=RRUFF
##SOURCE=University of Arizona Mineral Museum
##DESCRIPTION=Mass of green acicular to bladed crystals associated with chlorite
##STATUS=The identification of this mineral has been confirmed by X-ray diffraction and chemical analysis
##URL=rruff.info/R040063
##MEASURED CHEMISTRY=(Ca_1.90_Na_0.06_Mn_0.04_)_Σ=2_(Mg_4.35_Fe_0.65_)_Σ=5_(Si_7.92_Al_0.08_)_Σ=8_O_22_(OH)_2_
##PIN_ID=S00102
##ORIENTATION=Laser parallel to c* (0 0 1). Fiducial mark perpendicular to laser is parallel to b [0 1 0]
62.88700, 511.0000
64.13000, 652.0000
65.37400, 805.0000
66.61700, 903.0000
67.86000, 1190.000
69.10300, 1354.792
70.34600, 1546.000
71.58900, 1939.000
72.83100, 2435.000
74.07400, 3038.000
75.31600, 3789.000
76.55800, 4539.000
77.80000, 5237.000
79.04100, 5282.000
80.28300, 5290.000
81.52400, 5245.000
82.76500, 5432.000
84.00600, 5591.000
85.24700, 5769.000
86.48700, 5957.205
87.72700, 6224.000
88.96800, 6381.000
90.20800, 6649.000
91.44800, 6963.000
92.68700, 7114.000
93.92700, 7303.000
95.16600, 7405.000
96.40500, 7567.000
97.64400, 7741.000
98.88300, 7739.000
100.1210, 7918.000
101.3600, 8019.000
102.5980, 8156.000
103.8360, 8374.240
105.0740, 8533.000
106.3120, 8816.000
107.5490, 9073.000
108.7870, 9299.000
110.0240, 9727.000
111.2610, 10422.00
112.4980, 10852.00
113.7340, 11755.00
114.9710, 13062.92
116.2070, 13579.65
117.4430, 13736.00
118.6790, 14413.00
119.9150, 13096.00
121.1510, 11800.00
122.3860, 10643.00
123.6210, 10195.00
124.8560, 9813.000
126.0910, 9573.000
127.3260, 9376.000
128.5600, 9384.000
129.7950, 9310.000
131.0290, 9287.000
132.2630, 9294.000
133.4970, 9314.000
134.7300, 9417.000
135.9640, 9363.000
137.1970, 9517.000
138.4300, 9612.000
139.6630, 9822.000
140.8960, 9889.000
142.1290, 10032.00
143.3610, 10241.00
144.5930, 10474.00
145.8250, 11016.00
147.0570, 11791.00
148.2890, 12887.00
149.5210, 14551.00
150.7520, 16558.00
151.9830, 19269.00
153.2140, 22893.00
154.4450, 27784.00
155.6760, 33212.00
156.9060, 38620.00
158.1370, 43839.00
159.3670, 46135.00
160.5970, 45260.00
161.8270, 41964.00
163.0560, 38061.00
164.2860, 33464.00
165.5150, 29046.00
166.7440, 26936.00
167.9730, 26775.00
169.2020, 28412.00
170.4300, 31268.00
171.6590, 35634.00
172.8870, 41821.00
174.1150, 48960.00
175.3430, 56785.00
176.5700, 64293.00
177.7980, 68843.00
179.0250, 69623.00
180.2520, 65963.00
181.4790, 59646.00
182.7060, 51591.00
183.9330, 42328.00
185.1590, 34112.00
186.3860, 28697.00
187.6120, 24446.00
188.8380, 21013.00
190.0630, 19121.00
191.2890, 17765.00
192.5150, 16839.00
193.7400, 16440.00
194.9650, 15883.00
196.1900, 15702.00
197.4140, 15663.00
198.6390, 15800.00
199.8630, 15845.00
201.0880, 16132.00
202.3120, 16419.00
203.5350, 16906.00
204.7590, 17540.00
205.9830, 18701.00
207.2060, 19602.00
208.4290, 21240.00
209.6520, 23483.00
210.8750, 25953.00
212.0970, 29652.00
213.3200, 33862.00
214.5420, 39118.00
215.7640, 45589.00
216.9860, 53230.00
218.2080, 61640.00
219.4300, 70757.00
220.6510, 78574.00
221.8720, 83976.00
223.0930, 86221.00
224.3140, 84013.00
225.5350, 78076.00
226.7550, 69662.00
227.9760, 59623.00
229.1960, 49456.00
230.4160, 40855.00
231.6360, 33989.00
232.8550, 28403.00
234.0750, 24342.00
235.2940, 21512.00
236.5130, 19102.00
237.7320, 17494.00
238.9510, 16170.00
240.1700, 15436.00
241.3880, 14833.00
242.6070, 14499.00
243.8250, 14189.00
245.0430, 14169.00
246.2600, 14220.00
247.4780, 14372.00
248.6950, 14413.00
249.9120, 14658.00
251.1300, 14583.00
252.3460, 14482.00
253.5630, 14305.00
254.7800, 14056.00
255.9960, 13763.00
257.2120, 13621.00
258.4280, 13420.00
259.6440, 13321.00
260.8600, 13279.00
262.0750, 12901.00
263.2910, 12689.00
264.5060, 12725.00
265.7210, 12566.00
266.9360, 12514.00
268.1500, 12446.00
269.3650, 12202.00
270.5790, 12051.00
271.7930, 12076.00
273.0070, 11994.00
274.2210, 11946.00
275.4340, 12112.00
276.6480, 11970.00
277.8610, 12243.00
279.0740, 12084.00
280.2870, 12367.00
281.5000, 12562.00
282.7120, 12787.00
283.9250, 12972.00
285.1370, 13360.00
286.3490, 13767.00
287.5610, 13904.00
288.7720, 14405.00
289.9840, 15011.00
291.1950, 15224.00
292.4060, 15666.00
293.6170, 15720.00
294.8280, 16298.00
296.0390, 16752.00
297.2490, 17425.00
298.4600, 17907.00
299.6700, 18439.00
300.8800, 19194.00
302.0890, 19371.00
303.2990, 19334.00
304.5080, 19148.00
305.7180, 18416.00
306.9270, 17560.00
308.1360, 16607.00
309.3450, 15852.00
310.5530, 15170.00
311.7620, 14607.00
312.9700, 14249.00
314.1780, 13869.00
315.3860, 13602.00
316.5930, 13408.00
317.8010, 13379.00
319.0080, 13331.52
320.2150, 13279.00
321.4230, 13501.00
322.6290, 13725.00
323.8360, 13945.00
325.0430, 14167.00
326.2490, 14542.00
327.4550, 14911.00
328.6610, 15357.00
329.8670, 15540.00
331.0730, 16067.00
332.2780, 16257.00
333.4830, 16257.00
334.6880, 16160.15
335.8930, 16081.00
337.0980, 15615.00
338.3030, 15281.00
339.5070, 15192.00
340.7110, 15064.00
341.9160, 15158.00
343.1200, 15016.00
344.3230, 15133.00
345.5270, 15284.00
346.7300, 15448.00
347.9340, 15607.00
349.1370, 15791.00
350.3390, 16093.00
351.5420, 16209.00
352.7450, 16168.00
353.9470, 16192.00
355.1490, 16029.00
356.3510, 15706.00
357.5530, 15528.00
358.7550, 15294.00
359.9560, 15446.00
361.1580, 15302.00
362.3590, 15507.00
363.5600, 15903.00
364.7610, 16394.00
365.9610, 16753.00
367.1620, 17119.00
368.3620, 17597.00
369.5620, 18151.00
370.7620, 18140.00
371.9620, 17768.00
373.1620, 17713.00
374.3610, 17247.00
375.5610, 16683.00
376.7600, 16282.00
377.9590, 15985.00
379.1570, 15757.00
380.3560, 15768.00
381.5550, 15662.00
382.7530, 15939.00
383.9510, 16341.00
385.1490, 17045.00
386.3470, 17720.00
387.5440, 18469.00
388.7420, 19565.00
389.9390, 20702.00
391.1360, 22043.00
392.3330, 22572.00
393.5290, 23122.00
394.7260, 22953.00
395.9220, 22036.00
397.1190, 20789.00
398.3150, 19515.00
399.5110, 18349.00
400.7060, 17130.00
401.9020, 16396.00
403.0970, 15540.00
404.2920, 15019.00
405.4870, 14947.00
406.6820, 14799.00
407.8770, 14758.00
409.0710, 14866.00
410.2660, 15022.00
411.4600, 15047.00
412.6540, 15474.00
413.8480, 15392.00
415.0410, 15658.00
416.2350, 15615.00
417.4280, 15496.00
418.6210, 15187.00
419.8140, 14795.00
421.0070, 14448.00
422.2000, 14235.00
423.3920, 13850.00
424.5840, 13478.00
425.7770, 13388.00
426.9690, 13131.00
428.1600, 13252.00
429.3520, 13030.00
430.5430, 12932.00
431.7350, 12922.00
432.9260, 12882.00
434.1170, 12885.00
435.3070, 12925.00
436.4980, 12854.00
437.6880, 13015.00
438.8790, 13069.00
440.0690, 13448.00
441.2590, 13461.76
442.4480, 13933.00
443.6380, 13617.00
444.8270, 13632.00
446.0170, 13636.00
447.2060, 13953.00
448.3950, 13698.00
449.5830, 13278.00
450.7720, 12672.00
451.9600, 12799.00
453.1480, 12768.00
454.3360, 12754.00
455.5240, 12843.00
456.7120, 12927.00
457.9000, 12941.00
459.0870, 12935.00
460.2740, 12954.00
461.4610, 12953.00
462.6480, 12819.00
463.8350, 13232.00
465.0210, 12967.00
466.2070, 13135.00
467.3940, 13246.00
468.5800, 13155.00
469.7660, 13236.00
470.9510, 13115.00
472.1370, 13190.00
473.3220, 13077.00
474.5070, 13077.12
475.6920, 13129.00
476.8770, 13048.00
478.0620, 13067.00
479.2460, 13051.00
480.4300, 13125.00
481.6150, 13154.00
482.7980, 13076.00
483.9820, 13153.00
485.1660, 12984.00
486.3490, 13208.00
487.5330, 13153.00
488.7160, 12972.00
489.8990, 13245.00
491.0820, 13067.00
492.2640, 13197.00
493.4470, 13068.00
494.6290, 13055.00
495.8110, 13103.33
496.9930, 13173.00
498.1750, 13178.00
499.3560, 13253.00
500.5380, 13337.00
501.7190, 13560.00
502.9000, 13403.00
504.0810, 13530.00
505.2620, 13424.00
506.4420, 13625.00
507.6230, 13578.00
508.8030, 13652.00
509.9830, 13807.00
511.1630, 13701.00
512.3430, 13823.00
513.5220, 13833.00
514.7020, 13895.00
515.8810, 13993.00
517.0600, 13942.00
518.2390, 14172.00
519.4180, 14253.00
520.5960, 14325.00
521.7750, 14310.00
522.9530, 14344.00
524.1310, 14404.00
525.3090, 14652.00
526.4870, 14648.00
527.6640, 14792.02
528.8420, 14910.00
530.0190, 14979.00
531.1960, 14980.00
532.3730, 15036.00
533.5490, 14940.00
534.7260, 15048.00
535.9020, 14760.00
537.0790, 14775.00
538.2550, 14688.00
539.4310, 14696.00
540.6060, 14542.00
541.7820, 14628.00
542.9570, 14426.00
544.1320, 14493.00
545.3070, 14297.00
546.4820, 14403.00
547.6570, 14493.00
548.8310, 14317.00
550.0060, 14416.00
551.1800, 14306.00
552.3540, 14467.00
553.5280, 14440.00
554.7020, 14430.00
555.8750, 14285.00
557.0480, 14520.00
558.2220, 14326.00
559.3950, 14381.00
560.5680, 14190.00
561.7400, 14207.00
562.9130, 14305.00
564.0850, 14117.00
565.2570, 14226.00
566.4290, 14305.00
567.6010, 14253.00
568.7730, 14311.00
569.9440, 14348.00
571.1160, 14201.00
572.2870, 14213.00
573.4580, 14301.00
574.6290, 14457.00
575.7990, 14453.00
576.9700, 14305.00
578.1400, 14358.00
579.3100, 14380.00
580.4800, 14479.00
581.6500, 14381.00
582.8200, 14353.00
583.9890, 14270.00
585.1590, 14425.00
586.3280, 14143.00
587.4970, 14254.00
588.6660, 14319.00
589.8340, 14242.00
591.0030, 14422.00
592.1710, 14032.00
593.3390, 14317.00
594.5070, 14220.00
595.6750, 14339.00
596.8430, 14454.00
598.0100, 14350.00
599.1780, 14400.00
600.3450, 14398.00
601.5120, 14427.97
602.6790, 14494.00
603.8450, 14535.00
605.0120, 14598.00
606.1780, 14626.00
607.3440, 14709.00
608.5100, 14839.00
609.6760, 14871.98
610.8420, 14953.00
612.0070, 14996.00
613.1730, 15184.00
614.3380, 15255.00
615.5030, 15022.00
616.6680, 15336.00
617.8320, 15168.00
618.9970, 15600.00
620.1610, 15641.00
621.3250, 15753.00
622.4890, 15927.00
623.6530, 15917.00
624.8170, 15944.00
625.9800, 15968.00
627.1440, 16207.00
628.3070, 16440.00
629.4700, 16632.00
630.6330, 16853.00
631.7950, 16881.00
632.9580, 17213.00
634.1200, 17378.00
635.2820, 17799.00
636.4440, 17912.00
637.6060, 18119.00
638.7680, 18683.00
639.9290, 19046.00
641.0900, 19373.00
642.2520, 19896.00
643.4130, 20472.00
644.5730, 21062.00
645.7340, 21586.00
646.8950, 22384.00
648.0550, 23530.00
649.2150, 24296.00
650.3750, 25522.00
651.5350, 26660.00
652.6950, 28001.00
653.8540, 29498.00
655.0140, 31256.00
656.1730, 32912.00
657.3320, 35268.00
658.4910, 38056.00
659.6490, 41271.00
660.8080, 45759.00
661.9660, 51660.00
663.1240, 59375.00
664.2820, 69106.00
665.4400, 81489.00
666.5980, 96095.00
667.7550, 112913.0
668.9130, 132016.0
670.0700, 151795.0
671.2270, 169168.0
672.3840, 181684.0
673.5400, 186242.0
674.6970, 182132.0
675.8530, 168985.0
677.0090, 149804.0
678.1650, 127364.0
679.3210, 104681.0
680.4770, 86010.00
681.6330, 70715.00
682.7880, 59632.00
683.9430, 50400.00
685.0980, 43458.00
686.2530, 38900.00
687.4080, 34926.00
688.5620, 31960.00
689.7170, 29466.00
690.8710, 27876.00
692.0250, 26259.00
693.1790, 24794.00
694.3320, 23558.00
695.4860, 22929.00
696.6390, 21938.00
697.7930, 21161.00
698.9460, 20690.00
700.0980, 19950.00
701.2510, 19444.00
702.4040, 19218.00
703.5560, 18664.00
704.7080, 18593.00
705.8600, 18142.00
707.0120, 17909.00
708.1640, 17659.00
709.3160, 17584.00
710.4670, 17468.00
711.6180, 17245.00
712.7690, 17108.00
713.9200, 17009.00
715.0710, 16840.00
716.2220, 16790.00
717.3720, 16697.00
718.5220, 16653.00
719.6720, 16475.00
720.8220, 16342.00
721.9720, 16278.00
723.1220, 16521.00
724.2710, 16340.00
725.4200, 16301.00
726.5690, 16385.00
727.7180, 16300.00
728.8670, 16204.00
730.0160, 16241.00
731.1640, 16234.00
732.3120, 16308.00
733.4600, 16245.00
734.6080, 16176.00
735.7560, 16073.00
736.9040, 16195.00
738.0510, 16214.00
739.1980, 16348.00
740.3460, 16346.88
741.4930, 16117.00
742.6390, 16315.00
743.7860, 16257.00
744.9320, 16148.00
746.0790, 16379.00
747.2250, 16351.00
748.3710, 16541.00
749.5170, 16535.00
750.6620, 16465.00
751.8080, 16613.00
752.9530, 16406.00
754.0980, 16228.00
755.2430, 16392.00
756.3880, 16365.00
757.5330, 16033.00
758.6770, 16133.00
759.8220, 16258.00
760.9660, 15981.00
762.1100, 16147.00
763.2540, 15992.00
764.3970, 15880.00
765.5410, 15856.00
766.6840, 15866.00
767.8270, 15906.00
768.9700, 15935.00
770.1130, 15875.00
771.2560, 16009.00
772.3980, 15998.00
773.5410, 15963.00
774.6830, 15899.00
775.8250, 16074.00
776.9670, 16007.00
778.1080, 15932.00
779.2500, 15822.00
780.3910, 15775.00
781.5330, 16356.00
782.6740, 16033.57
783.8150, 16150.16
784.9550, 15828.00
786.0960, 16021.00
787.2360, 15948.00
788.3770, 15894.00
789.5170, 15796.00
790.6570, 15948.00
791.7960, 15843.00
792.9360, 16002.00
794.0750, 15877.00
795.2150, 16049.00
796.3540, 15867.00
797.4930, 15933.00
798.6310, 15955.00
799.7700, 15888.00
800.9080, 15863.00
802.0470, 16004.00
803.1850, 16013.00
804.3230, 16135.00
805.4610, 16065.00
806.5980, 16000.00
807.7360, 15940.00
808.8730, 16034.00
810.0100, 16054.00
811.1470, 16072.00
812.2840, 16051.00
813.4200, 16158.00
814.5570, 16213.00
815.6930, 16226.00
816.8290, 16182.00
817.9650, 16341.00
819.1010, 16097.00
820.2370, 16210.00
821.3720, 16148.00
822.5080, 16224.00
823.6430, 16118.00
824.7780, 16219.00
825.9130, 16296.00
827.0480, 16371.00
828.1820, 16289.00
829.3160, 16330.00
830.4510, 16258.00
831.5850, 16346.00
832.7190, 16283.00
833.8520, 16425.00
834.9860, 16516.00
836.1190, 16498.00
837.2520, 16414.00
838.3860, 16491.00
839.5180, 16452.00
840.6510, 16424.00
841.7840, 16366.00
842.9160, 16392.00
844.0480, 16414.00
845.1810, 16550.00
846.3120, 16501.00
847.4440, 16637.00
848.5760, 16599.00
849.7070, 16603.00
850.8390, 16708.00
851.9700, 16656.00
853.1010, 16594.00
854.2310, 16633.00
855.3620, 16605.00
856.4930, 16656.00
857.6230, 16725.00
858.7530, 16591.00
859.8830, 16798.00
861.0130, 16723.00
862.1430, 16944.00
863.2720, 16776.00
864.4010, 16811.00
865.5310, 17069.00
866.6600, 16841.00
867.7880, 16825.00
868.9170, 17074.00
870.0460, 16959.00
871.1740, 17137.00
872.3020, 16998.00
873.4300, 17020.00
874.5580, 16996.00
875.6860, 16945.00
876.8130, 17110.00
877.9410, 17307.00
879.0680, 17119.00
880.1950, 17096.00
881.3220, 17211.00
882.4490, 17469.00
883.5750, 17343.00
884.7020, 17474.00
885.8280, 17513.00
886.9540, 17579.00
888.0800, 17629.00
889.2060, 17698.82
890.3320, 17797.00
891.4570, 17872.00
892.5820, 17897.00
893.7070, 18036.00
894.8320, 18228.00
895.9570, 18250.00
897.0820, 18381.00
898.2060, 18379.00
899.3310, 18491.46
900.4550, 18664.00
901.5790, 18676.00
902.7030, 18809.00
903.8260, 18883.00
904.9500, 19125.00
906.0730, 19142.00
907.1960, 19370.99
908.3200, 19457.00
909.4420, 19733.00
910.5650, 20037.00
911.6880, 20145.00
912.8100, 20354.00
913.9320, 20909.00
915.0540, 21233.00
916.1760, 21579.00
917.2980, 22147.00
918.4200, 22948.00
919.5410, 23584.00
920.6620, 24652.00
921.7830, 25901.00
922.9040, 27202.00
924.0250, 28698.00
925.1460, 30678.00
926.2660, 32699.00
927.3870, 34725.00
928.5070, 36385.00
929.6270, 37661.00
930.7470, 38152.00
931.8660, 37936.00
932.9860, 36281.00
934.1050, 34440.00
935.2240, 32347.00
936.3430, 30134.00
937.4620, 28339.00
938.5810, 26745.00
939.6990, 25657.00
940.8180, 24877.00
941.9360, 24297.00
943.0540, 23955.00
944.1720, 23824.00
945.2900, 23721.00
946.4070, 23521.07
947.5250, 23607.00
948.6420, 23279.00
949.7590, 23192.00
950.8760, 23104.00
951.9930, 22418.00
953.1090, 22130.00
954.2260, 21566.00
955.3420, 21603.00
956.4580, 21268.00
957.5740, 21043.00
958.6900, 20939.00
959.8060, 20689.00
960.9210, 20530.00
962.0360, 20352.00
963.1520, 20232.00
964.2670, 20100.24
965.3810, 19959.00
966.4960, 19910.00
967.6110, 19907.00
968.7250, 19888.00
969.8390, 19823.00
970.9530, 19766.00
972.0670, 19723.00
973.1810, 19805.00
974.2940, 19738.58
975.4080, 19555.00
976.5210, 19680.00
977.6340, 19682.00
978.7470, 19608.00
979.8600, 19672.00
980.9730, 19512.00
982.0850, 19596.00
983.1970, 19473.00
984.3090, 19482.00
985.4210, 19596.00
986.5330, 19484.00
987.6450, 19432.00
988.7560, 19639.00
989.8680, 19513.00
990.9790, 19532.00
992.0900, 19588.00
993.2010, 19506.00
994.3110, 19494.00
995.4220, 19654.00
996.5320, 19533.00
997.6430, 19624.00
998.7530, 19653.00
999.8630, 19778.00
1000.972, 19797.00
1002.082, 19798.00
1003.191, 20026.00
1004.301, 20061.00
1005.410, 20220.00
1006.519, 20280.00
1007.627, 20385.00
1008.736, 20574.00
1009.844, 20443.00
1010.953, 20456.00
1012.061, 20937.00
1013.169, 21072.00
1014.277, 21391.00
1015.384, 21743.00
1016.492, 21909.00
1017.599, 22160.00
1018.706, 22409.00
1019.813, 22575.00
1020.920, 22834.00
1022.027, 23171.00
1023.134, 23399.00
1024.240, 23614.00
1025.346, 24026.00
1026.452, 24418.00
1027.558, 24721.00
1028.664, 24833.00
1029.770, 25313.00
1030.875, 25347.00
1031.980, 25258.00
1033.086, 25417.00
1034.190, 25661.00
1035.295, 25881.53
1036.400, 26008.00
1037.504, 26666.00
1038.609, 27299.00
1039.713, 27929.00
1040.817, 28871.00
1041.921, 30006.00
1043.025, 31501.00
1044.128, 33153.00
1045.231, 35325.00
1046.335, 37978.00
1047.438, 41763.00
1048.541, 45178.00
1049.643, 50284.00
1050.746, 56450.00
1051.848, 63458.00
1052.951, 70712.00
1054.053, 79314.00
1055.155, 87299.00
1056.257, 95264.00
1057.358, 99824.00
1058.460, 102653.0
1059.561, 99958.00
1060.662, 94380.00
1061.763, 86292.00
1062.864, 77144.00
1063.965, 68214.00
1065.065, 59970.00
1066.166, 53713.00
1067.266, 48469.00
1068.366, 43893.00
1069.466, 40478.00
1070.566, 37193.00
1071.665, 34293.00
1072.765, 31820.00
1073.864, 30207.00
1074.963, 28514.00
1076.062, 27053.00
1077.161, 26120.00
1078.259, 25399.00
1079.358, 24584.00
1080.456, 23968.00
1081.554, 23507.00
1082.652, 23242.00
1083.750, 22869.00
1084.848, 22570.21
1085.945, 22306.00
1087.043, 22028.00
1088.140, 21832.00
1089.237, 21596.00
1090.334, 21465.00
1091.431, 21430.00
1092.527, 21315.00
1093.624, 21094.00
1094.720, 20978.00
1095.816, 20828.00
1096.912, 20796.00
1098.008, 20780.00
1099.104, 20826.00
1100.199, 20576.00
1101.294, 20586.00
1102.390, 20401.00
1103.485, 20393.11
1104.579, 20525.00
1105.674, 20379.00
1106.769, 20312.00
1107.863, 20250.00
1108.957, 20097.00
1110.051, 20114.79
1111.145, 20386.00
1112.239, 20209.00
1113.333, 20105.00
1114.426, 20363.00
1115.519, 20216.00
1116.612, 20005.00
1117.705, 20036.00
1118.798, 20142.00
1119.891, 19876.00
1120.983, 19945.00
1122.076, 19711.00
1123.168, 19875.00
1124.260, 19938.00
1125.352, 19717.00
1126.443, 19741.00
1127.535, 19880.00
1128.626, 19930.00
1129.718, 19918.94
1130.809, 19698.00
1131.900, 19836.00
1132.990, 19794.00
1134.081, 19679.00
1135.171, 19796.00
1136.262, 19728.00
1137.352, 19624.00
1138.442, 19650.00
1139.532, 19880.00
1140.621, 19683.00
1141.711, 19754.00
1142.800, 19660.00
1143.890, 19570.00
1144.979, 19737.00
1146.067, 19601.00
1147.156, 19554.00
1148.245, 19457.00
1149.333, 19484.15
1150.421, 19547.00
1151.510, 19609.00
1152.597, 19557.00
1153.685, 19674.00
1154.773, 19698.00
1155.860, 19543.00
1156.948, 19606.00
1158.035, 19759.00
1159.122, 19674.00
1160.209, 19571.00
1161.295, 19577.00
1162.382, 19532.00
1163.468, 19522.74
1164.555, 19544.55
1165.641, 19545.00
1166.727, 19588.00
1167.812, 19623.00
1168.898, 19625.00
1169.983, 19660.00
1171.069, 19796.00
1172.154, 19788.00
1173.239, 19758.00
1174.324, 19609.00
1175.408, 19630.00
1176.493, 19827.00
1177.577, 19728.00
1178.661, 19781.00
1179.745, 19710.00
1180.829, 19673.00
1181.913, 19489.00
1182.997, 19534.10
1184.080, 19941.00
1185.163, 19629.00
1186.246, 19696.00
1187.329, 19898.00
1188.412, 19727.00
1189.495, 19687.00
1190.577, 19702.00
1191.660, 19850.00
1192.742, 19788.00
1193.824, 19815.95
1194.906, 19889.00
1195.987, 19785.00
1197.069, 19782.00
1198.150, 19790.00
1199.232, 19789.45
1200.313, 19861.00
1201.394, 19826.00
1202.474, 19959.00
1203.555, 19903.00
1204.635, 19939.00
1205.716, 19887.00
1206.796, 20136.00
1207.876, 20015.00
1208.956, 20064.00
1210.035, 20224.00
1211.115, 19963.00
1212.194, 19971.00
1213.274, 20019.00
1214.353, 19959.00
1215.432, 20009.87
1216.510, 20089.00
1217.589, 20117.00
1218.667, 20135.00
1219.746, 20312.00
1220.824, 20093.00
1221.902, 20167.00
1222.980, 20132.00
1224.057, 20280.00
1225.135, 20182.00
1226.212, 20288.00
1227.289, 20366.00
1228.366, 20228.00
1229.443, 20415.00
1230.520, 20323.00
1231.597, 20354.00
1232.673, 20163.00
1233.749, 20528.00
1234.825, 20264.00
1235.901, 20354.00
1236.977, 20548.00
1238.053, 20416.00
1239.128, 20460.00
1240.204, 20304.00
1241.279, 20193.00
1242.354, 20434.00
1243.429, 20441.00
1244.503, 20471.00
1245.578, 20586.00
1246.652, 20452.00
1247.727, 20516.00
1248.801, 20573.00
1249.875, 20646.00
1250.949, 20613.00
1252.022, 20463.00
1253.096, 20665.00
1254.169, 20527.00
1255.242, 20733.00
1256.315, 20543.00
1257.388, 20713.00
1258.461, 20735.00
1259.533, 20821.00
1260.606, 20596.00
1261.678, 20626.00
1262.750, 20816.00
1263.822, 20788.00
1264.894, 20891.00
1265.965, 20797.00
1267.037, 20890.00
1268.108, 20916.00
1269.179, 20862.00
1270.250, 20758.00
1271.321, 20813.00
1272.392, 20905.00
1273.463, 20864.00
1274.533, 20994.00
1275.603, 20898.00
1276.673, 20764.00
1277.743, 20804.00
1278.813, 20920.00
1279.883, 21095.00
1280.952, 21039.00
1282.021, 21077.00
1283.091, 21089.61
1284.160, 20970.00
1285.229, 21065.00
1286.297, 20907.00
1287.366, 20920.00
1288.434, 20976.00
1289.502, 20989.00
1290.570, 21149.00
1291.638, 21074.00
1292.706, 21167.00
1293.774, 21243.00
1294.841, 21151.00
1295.909, 21045.00
1296.976, 21297.00
1298.043, 21149.00
1299.110, 21454.00
1300.176, 21253.00
1301.243, 21182.00
1302.309, 21217.00
1303.376, 21092.00
1304.442, 21103.24
1305.508, 21162.00
1306.573, 21091.00
1307.639, 21305.00
1308.704, 21359.00
1309.770, 21483.00
1310.835, 21526.00
1311.900, 21532.00
1312.965, 21247.00
1314.030, 21553.00
1315.094, 21288.00
1316.159, 21461.00
1317.223, 21670.00
1318.287, 21498.00
1319.351, 21435.00
1320.415, 21621.00
1321.478, 21604.00
1322.542, 21606.00
1323.605, 21588.00
1324.668, 21810.00
1325.731, 21672.00
1326.794, 21707.00
1327.857, 21548.00
1328.919, 21730.00
1329.982, 21591.00
1331.044, 21737.00
1332.106, 21762.00
1333.168, 21727.00
1334.230, 21868.00
1335.292, 21759.00
1336.353, 21892.00
1337.414, 21788.00
1338.476, 21707.00
1339.537, 21826.00
1340.597, 21848.00
1341.658, 21917.00
1342.719, 21888.00
1343.779, 22068.00
1344.839, 22066.00
1345.900, 21764.00
1346.960, 22012.00
1348.019, 21938.00
1349.079, 21754.00
1350.139, 21850.00
1351.198, 21917.00
1352.257, 22021.00
1353.316, 21943.00
1354.375, 21915.00
1355.434, 22130.00
1356.492, 22011.00
1357.551, 22065.00
1358.609, 22153.00
1359.667, 21967.00
1360.725, 22155.00
1361.783, 22188.00
1362.841, 22052.00
1363.898, 22128.00
1364.956, 22130.00
1366.013, 22079.00
1367.070, 22158.00
1368.127, 22133.00
1369.183, 22235.00
1370.240, 22359.00
1371.297, 22171.00
1372.353, 22220.00
1373.409, 22303.00
1374.465, 22175.00
1375.521, 22198.00
1376.577, 22310.00
1377.632, 22179.00
1378.687, 22164.00
1379.743, 22369.00
1380.798, 22283.00
1381.853, 22365.00
1382.907, 22367.00
1383.962, 22216.00
1385.017, 22408.00
1386.071, 22202.00
1387.125, 22361.00
1388.179, 22392.00
1389.233, 22339.00
1390.287, 22243.00
1391.340, 22382.00
1392.394, 22452.00
1393.447, 22326.00
1394.500, 22231.00
1395.553, 22428.00
1396.606, 22488.00
1397.658, 22648.00
1398.711, 22325.00
1399.763, 22338.00
1400.815, 22457.00
1401.868, 22625.00
1402.919, 22469.00
1403.971, 22621.00
1405.023, 22484.00
1406.074, 22626.00
1407.125, 22519.00
1408.177, 22633.00
1409.228, 22543.00
1410.278, 22595.00
1411.329, 22675.00
1412.380, 22695.00
1413.430, 22636.00
1414.480, 22706.00
1415.530, 22639.00
1416.580, 22826.00
1417.630, 22667.00
1418.680, 22926.00
1419.729, 22721.00
1420.778, 23015.00
1421.828, 22819.00
1422.877, 22775.00
1423.925, 22903.00
1424.974, 22799.00
1426.023, 22815.00
1427.071, 22854.00
1428.119, 22863.00
1429.167, 22741.00
1430.215, 22916.00
1431.263, 22833.00
1432.311, 23099.00
1433.358, 22928.00
1434.406, 22967.00
1435.453, 22803.00
1436.500, 22863.00
1437.547, 23026.00
1438.594, 23003.00
1439.640, 23151.00
1440.687, 23138.00
1441.733, 23102.00
1442.779, 23042.00
1443.825, 23150.00
1444.871, 23449.00
1445.917, 23046.00
1446.962, 23274.00
1448.007, 23203.00
1449.053, 23110.00
1450.098, 23157.00
1451.143, 23272.00
1452.187, 23243.00
1453.232, 23209.00
1454.277, 23286.63
1455.321, 23279.00
1456.365, 23347.00
1457.409, 23393.00
1458.453, 23376.00
1459.497, 23307.00
1460.540, 23609.00
1461.584, 23583.00
1462.627, 23351.00
1463.670, 23468.00
1464.713, 23232.00
1465.756, 23511.00
1466.799, 23404.00
1467.841, 23557.00
1468.884, 23308.00
1469.926, 23361.00
1470.968, 23603.00
1472.010, 23619.00
1473.051, 23554.00
1474.093, 23689.00
1475.135, 23367.00
1476.176, 23565.00
1477.217, 23662.00
1478.258, 23692.00
1479.299, 23929.00
1480.340, 23863.29
1481.380, 23519.00
1482.421, 23803.00
1483.461, 23737.00
1484.501, 23675.00
1485.541, 23847.00
1486.581, 23632.00
1487.620, 23604.00
1488.660, 23918.00
1489.699, 23705.00
1490.739, 23795.00
1491.778, 23739.00
1492.817, 23741.00
1493.855, 23826.00
1494.894, 23963.00
1495.932, 23954.00
1496.971, 23956.00
1498.009, 23934.00
1499.047, 24027.00
1500.085, 23962.00
1501.122, 23883.00
1502.160, 24103.00
1503.197, 23829.00
1504.235, 24124.00
1505.272, 24185.00
1506.309, 24164.00
1507.346, 24118.00
1508.382, 24015.00
1509.419, 24241.00
1510.455, 24162.00
1511.491, 24089.00
1512.527, 24139.00
1513.563, 24059.00
1514.599, 24203.00
1515.635, 24123.00
1516.670, 24223.00
1517.706, 24160.00
1518.741, 24266.00
1519.776, 24268.00
1520.811, 24267.00
1521.845, 24096.00
1522.880, 24545.00
1523.914, 24264.00
1524.949, 24320.00
1525.983, 24500.00
1527.017, 24445.00
1528.050, 24473.00
1529.084, 24574.00
1530.118, 24390.00
1531.151, 24572.00
1532.184, 24648.00
1533.217, 24580.00
1534.250, 24568.00
1535.283, 24588.00
1536.316, 24536.00
1537.348, 24483.00
1538.381, 24349.00
1539.413, 24749.00
1540.445, 24518.00
1541.477, 24913.00
1542.508, 24687.00
1543.540, 24959.00
1544.571, 24832.00
1545.603, 24630.00
1546.634, 24540.00
1547.665, 24591.00
1548.696, 24764.00
1549.726, 25003.00
1550.757, 24702.00
1551.787, 24886.00
1552.817, 24721.00
1553.848, 24698.00
1554.878, 24875.00
1555.907, 24815.00
1556.937, 25007.00
1557.966, 24850.00
1558.996, 25013.00
1560.025, 25040.00
1561.054, 24845.00
1562.083, 24936.00
1563.112, 25029.00
1564.140, 24855.00
1565.169, 25135.00
1566.197, 24991.00
1567.225, 24829.00
1568.253, 24957.00
1569.281, 25045.00
1570.309, 25196.00
1571.336, 25062.00
1572.364, 25211.00
1573.391, 24854.00
1574.418, 25194.00
1575.445, 25246.00
1576.472, 25083.00
1577.499, 25365.00
1578.525, 25016.00
##END=



