##NAMES=Aegirine
##RRUFFID=R040054
##IDEAL CHEMISTRY=NaFe^3+^Si_2_O_6_
##LOCALITY=Mont Saint-Hilaire, Rouville County, Quebec, Canada
##OWNER=RRUFF
##SOURCE=Bob Downs
##DESCRIPTION=Black cleavage fragments
##STATUS=The identification of this mineral has been confirmed by X-ray diffraction and chemical analysis
##URL=rruff.info/R040054
##MEASURED CHEMISTRY=(Na_0.96_Ca_0.04_)(Fe_0.86_Ti_0.07_Mn_0.06_Mg_0.02_)(Si_0.97_Al_0.03_)_2_O_6_
##PIN_ID=M00470
##ORIENTATION=Laser parallel to -c [0 0 -1]. Fiducial mark perpendicular to laser is parallel to -b* (0 -1 0)
171.949, 7758.000
173.326, 7862.000
174.702, 8051.000
176.077, 8391.000
177.453, 8791.000
178.828, 9670.000
180.204, 10660.000
181.579, 11830.000
182.953, 13300.000
184.328, 13560.000
185.702, 13000.000
187.076, 11400.000
188.450, 9969.000
189.824, 9041.000
191.198, 8364.000
192.571, 8176.000
193.944, 7993.000
195.317, 7929.000
196.689, 7791.000
198.062, 7832.000
199.434, 7699.000
200.806, 7667.000
202.178, 7574.000
203.549, 7563.000
204.921, 7440.000
206.292, 7388.000
207.663, 7450.000
209.033, 7548.000
210.404, 7566.000
211.774, 7781.000
213.144, 7913.000
214.514, 8109.000
215.884, 8146.000
217.253, 8180.000
218.622, 8115.962
219.991, 7989.000
221.360, 7784.000
222.729, 7630.000
224.097, 7312.000
225.465, 7035.000
226.833, 6894.000
228.201, 6631.000
229.568, 6471.000
230.936, 6444.000
232.303, 6318.000
233.670, 6346.000
235.036, 6302.000
236.403, 6213.000
237.769, 6179.000
239.135, 6151.000
240.501, 6175.000
241.867, 6062.000
243.232, 6091.000
244.597, 5978.000
245.962, 6078.000
247.327, 6163.000
248.691, 6095.000
250.056, 6083.000
251.420, 6062.000
252.784, 6092.000
254.147, 6123.000
255.511, 6134.000
256.874, 6235.000
258.237, 6234.000
259.600, 6310.000
260.963, 6500.000
262.325, 6483.000
263.687, 6402.000
265.049, 6394.000
266.411, 6599.000
267.773, 6875.000
269.134, 7218.000
270.495, 6808.000
271.856, 6762.000
273.217, 7022.000
274.577, 7159.000
275.938, 7436.000
277.298, 7594.000
278.658, 7883.000
280.017, 8067.000
281.377, 7986.000
282.736, 8007.000
284.095, 7791.000
285.454, 7759.000
286.812, 7446.000
288.171, 7348.000
289.529, 7155.000
290.887, 6976.000
292.245, 7010.000
293.602, 6910.000
294.960, 6877.000
296.317, 6875.000
297.674, 6852.000
299.030, 6852.000
300.387, 6876.000
301.743, 6920.000
303.099, 6900.000
304.455, 7009.000
305.811, 7017.000
307.166, 7012.000
308.522, 7083.000
309.877, 7042.000
311.232, 7151.000
312.586, 7152.000
313.941, 7176.000
315.295, 7229.000
316.649, 7238.000
318.003, 7199.000
319.356, 7170.000
320.709, 7239.000
322.063, 7174.000
323.416, 7226.000
324.768, 7419.000
326.121, 7394.000
327.473, 7646.000
328.825, 7772.000
330.177, 7984.000
331.529, 8397.000
332.880, 8648.000
334.232, 9386.000
335.583, 9772.000
336.934, 10630.000
338.284, 11550.000
339.635, 12230.000
340.985, 13060.000
342.335, 13460.000
343.685, 13930.000
345.034, 13700.000
346.384, 13320.000
347.733, 13040.000
349.082, 12210.000
350.431, 11960.000
351.779, 11140.000
353.128, 10790.000
354.476, 10300.000
355.824, 9837.000
357.171, 9790.000
358.519, 9323.000
359.866, 9260.000
361.213, 9133.000
362.560, 9091.000
363.907, 9182.000
365.253, 9042.000
366.600, 9297.000
367.946, 9266.000
369.291, 9413.000
370.637, 9549.000
371.983, 9577.000
373.328, 9772.000
374.673, 9999.000
376.018, 10480.000
377.362, 10940.000
378.707, 11660.000
380.051, 12680.000
381.395, 13460.000
382.739, 15200.000
384.082, 16500.000
385.426, 17930.000
386.769, 19730.000
388.112, 20520.000
389.454, 21990.000
390.797, 21910.000
392.139, 21700.000
393.481, 20470.000
394.823, 18850.000
396.165, 17570.000
397.506, 15360.000
398.848, 14080.000
400.189, 12510.000
401.530, 11210.000
402.870, 10350.000
404.211, 9411.000
405.551, 8898.000
406.891, 8332.000
408.231, 7978.000
409.571, 7745.000
410.910, 7334.000
412.249, 7112.000
413.588, 6896.000
414.927, 6696.362
416.266, 6642.000
417.604, 6452.000
418.942, 6402.000
420.280, 6327.000
421.618, 6141.000
422.956, 6020.000
424.293, 5981.000
425.630, 5957.000
426.967, 5854.232
428.304, 5794.000
429.641, 5709.000
430.977, 5711.000
432.313, 5668.000
433.649, 5611.000
434.985, 5611.000
436.320, 5505.000
437.656, 5517.000
438.991, 5500.000
440.326, 5538.000
441.660, 5506.000
442.995, 5448.000
444.329, 5517.000
445.663, 5408.000
446.997, 5414.000
448.331, 5406.000
449.664, 5411.000
450.997, 5429.000
452.331, 5444.000
453.663, 5449.000
454.996, 5412.000
456.328, 5486.000
457.661, 5471.000
458.993, 5522.000
460.325, 5498.000
461.656, 5554.000
462.988, 5577.000
464.319, 5540.000
465.650, 5522.000
466.981, 5555.000
468.311, 5455.000
469.642, 5406.000
470.972, 5422.000
472.302, 5347.000
473.632, 5342.000
474.961, 5323.000
476.291, 5361.000
477.620, 5284.000
478.949, 5327.000
480.278, 5256.000
481.606, 5294.000
482.935, 5354.000
484.263, 5348.000
485.591, 5356.000
486.918, 5348.000
488.246, 5352.314
489.573, 5375.000
490.900, 5350.000
492.227, 5367.000
493.554, 5351.000
494.881, 5459.000
496.207, 5514.000
497.533, 5467.000
498.859, 5613.000
500.185, 5634.000
501.510, 5698.000
502.836, 5708.000
504.161, 5663.000
505.486, 5779.000
506.810, 5845.000
508.135, 5744.000
509.459, 5833.000
510.783, 5777.000
512.107, 5941.000
513.431, 5831.000
514.754, 5883.000
516.077, 6002.000
517.401, 6021.000
518.723, 6106.988
520.046, 6106.000
521.369, 6249.000
522.691, 6333.000
524.013, 6422.000
525.335, 6650.000
526.656, 6800.000
527.978, 7183.000
529.299, 7506.000
530.620, 7820.000
531.941, 8384.000
533.262, 8915.000
534.582, 9734.000
535.902, 10760.814
537.222, 11894.508
538.542, 13380.000
539.862, 14890.000
541.181, 16760.000
542.501, 18950.000
543.820, 20440.000
545.139, 21860.000
546.457, 22190.000
547.776, 22930.000
549.094, 22020.000
550.412, 20430.000
551.730, 19610.000
553.047, 17290.000
554.365, 16640.000
555.682, 15260.000
556.999, 14530.000
558.316, 13780.000
559.632, 12850.000
560.949, 12590.000
562.265, 11990.000
563.581, 11580.000
564.897, 11200.000
566.213, 10720.000
567.528, 10460.000
568.843, 9936.000
570.158, 9620.000
571.473, 9355.000
572.788, 8962.000
574.102, 8916.000
575.416, 8573.000
576.730, 8339.000
578.044, 8180.000
579.358, 7787.000
580.671, 7846.000
581.984, 7547.000
583.297, 7375.000
584.610, 7268.000
585.923, 7075.000
587.235, 7086.000
588.547, 6736.000
589.859, 6775.000
591.171, 6598.000
592.483, 6542.000
593.794, 6405.860
595.105, 6139.000
596.416, 6084.000
597.727, 5969.000
599.038, 5800.000
600.348, 5692.000
601.658, 5533.000
602.968, 5449.000
604.278, 5384.000
605.588, 5248.561
606.897, 5190.000
608.206, 5056.000
609.516, 5063.000
610.824, 5035.000
612.133, 4900.000
613.441, 4923.000
614.750, 4850.000
616.058, 4861.000
617.365, 4871.000
618.673, 4837.000
619.980, 4854.000
621.288, 4786.000
622.595, 4798.000
623.902, 4734.000
625.208, 4761.000
626.515, 4734.000
627.821, 4752.000
629.127, 4746.557
630.433, 4700.000
631.738, 4743.000
633.044, 4727.000
634.349, 4734.000
635.654, 4802.000
636.959, 4710.000
638.263, 4723.000
639.568, 4806.000
640.872, 4750.000
642.176, 4846.000
643.480, 4894.000
644.784, 4936.000
646.087, 4971.504
647.390, 4901.000
648.693, 5002.000
649.996, 5014.000
651.299, 5027.000
652.601, 5114.000
653.904, 5133.000
655.206, 5167.000
656.508, 5212.000
657.809, 5223.000
659.111, 5293.000
660.412, 5327.000
661.713, 5386.000
663.014, 5424.000
664.315, 5587.000
665.615, 5730.000
666.915, 5788.000
668.215, 5928.000
669.515, 6167.000
670.815, 6518.000
672.115, 6890.000
673.414, 7308.000
674.713, 7874.000
676.012, 8212.000
677.311, 8684.000
678.609, 9093.000
679.907, 9044.000
681.205, 8960.000
682.503, 8406.000
683.801, 7865.000
685.099, 7315.000
686.396, 6727.000
687.693, 6439.000
688.990, 6039.823
690.287, 5747.514
691.583, 5559.000
692.880, 5294.000
694.176, 5211.000
695.472, 5028.000
696.768, 4976.000
698.063, 4931.000
699.358, 4825.000
700.654, 4834.000
701.949, 4732.000
703.243, 4709.000
704.538, 4791.000
705.832, 4682.000
707.127, 4713.182
708.421, 4667.941
709.714, 4689.000
711.008, 4584.000
712.301, 4559.000
713.595, 4549.000
714.888, 4490.000
716.180, 4552.000
717.473, 4545.000
718.765, 4516.000
720.058, 4508.000
721.350, 4504.000
722.641, 4499.157
723.933, 4496.000
725.225, 4511.000
726.516, 4515.000
727.807, 4529.000
729.098, 4518.000
730.388, 4501.000
731.679, 4504.000
732.969, 4465.000
734.259, 4501.000
735.549, 4500.000
736.839, 4523.000
738.128, 4472.000
739.418, 4497.000
740.707, 4504.000
741.996, 4447.000
743.284, 4518.000
744.573, 4464.000
745.861, 4441.000
747.149, 4471.000
748.437, 4483.000
749.725, 4463.000
751.013, 4462.000
752.300, 4481.000
753.587, 4464.000
754.874, 4495.000
756.161, 4575.000
757.447, 4502.000
758.734, 4553.000
760.020, 4489.000
761.306, 4514.000
762.592, 4514.000
763.877, 4410.000
765.163, 4330.000
766.448, 4409.000
767.733, 4372.000
769.018, 4366.000
770.302, 4431.000
771.587, 4362.339
772.871, 4447.000
774.155, 4345.000
775.439, 4276.000
776.723, 4399.000
778.006, 4314.000
779.289, 4331.000
780.573, 4368.000
781.855, 4386.000
783.138, 4307.000
784.421, 4336.000
785.703, 4296.000
786.985, 4258.000
788.267, 4362.000
789.549, 4366.000
790.830, 4362.000
792.112, 4361.000
793.393, 4337.000
794.674, 4332.000
795.954, 4322.000
797.235, 4348.000
798.515, 4334.000
799.796, 4359.000
801.076, 4359.000
802.355, 4374.000
803.635, 4352.000
804.914, 4334.000
806.194, 4354.000
807.473, 4357.000
808.752, 4364.292
810.030, 4355.000
811.309, 4383.000
812.587, 4374.000
813.865, 4370.000
815.143, 4468.000
816.421, 4496.000
817.698, 4455.000
818.975, 4504.000
820.252, 4458.000
821.529, 4492.000
822.806, 4539.000
824.083, 4504.000
825.359, 4515.000
826.635, 4567.000
827.911, 4529.000
829.187, 4526.000
830.462, 4597.000
831.738, 4624.000
833.013, 4683.000
834.288, 4647.000
835.563, 4629.000
836.837, 4762.000
838.112, 4706.000
839.386, 4766.000
840.660, 4858.000
841.934, 4809.000
843.208, 4888.000
844.481, 4935.000
845.754, 4944.000
847.027, 4958.000
848.300, 5007.207
849.573, 5090.000
850.845, 5092.000
852.118, 5157.000
853.390, 5196.583
854.662, 5254.000
855.934, 5317.000
857.205, 5346.000
858.476, 5390.000
859.748, 5517.000
861.019, 5594.000
862.289, 5601.000
863.560, 5697.000
864.830, 5706.000
866.101, 5815.000
867.371, 5871.000
868.640, 5862.000
869.910, 5918.000
871.180, 5940.000
872.449, 5904.000
873.718, 5911.000
874.987, 5886.000
876.255, 5773.000
877.524, 5776.000
878.792, 5633.000
880.060, 5712.000
881.328, 5618.000
882.596, 5647.000
883.864, 5575.000
885.131, 5592.000
886.398, 5599.000
887.665, 5489.000
888.932, 5538.000
890.199, 5555.000
891.465, 5545.000
892.731, 5489.000
893.997, 5554.000
895.263, 5682.000
896.529, 5578.000
897.794, 5663.000
899.059, 5674.000
900.325, 5671.000
901.589, 5718.000
902.854, 5770.000
904.119, 5803.434
905.383, 5846.000
906.647, 5893.000
907.911, 6009.000
909.175, 6036.000
910.438, 5976.000
911.702, 6203.000
912.965, 6138.000
914.228, 6216.000
915.491, 6318.000
916.753, 6321.000
918.016, 6493.000
919.278, 6558.000
920.540, 6542.000
921.802, 6740.000
923.064, 6715.000
924.325, 6900.000
925.586, 6972.000
926.848, 7075.000
928.109, 7159.000
929.369, 7469.000
930.630, 7479.000
931.890, 7711.000
933.150, 7666.000
934.410, 7969.000
935.670, 8072.000
936.930, 8301.000
938.189, 8587.000
939.448, 8687.000
940.707, 9102.000
941.966, 9338.000
943.225, 9580.000
944.483, 10200.000
945.742, 10700.000
947.000, 11250.000
948.258, 11770.000
949.515, 12500.000
950.773, 13180.000
952.030, 13740.000
953.287, 14153.200
954.544, 14540.000
955.801, 14600.000
957.058, 14720.000
958.314, 14520.000
959.570, 14680.000
960.827, 15190.000
962.082, 15090.000
963.338, 15300.000
964.594, 15670.000
965.849, 15550.000
967.104, 16240.000
968.359, 16350.000
969.614, 16760.000
970.868, 17400.000
972.122, 17450.000
973.377, 17420.000
974.631, 16970.000
975.884, 16190.000
977.138, 15030.000
978.391, 13810.000
979.645, 13070.000
980.898, 12280.000
982.151, 11580.000
983.403, 11090.000
984.656, 10520.000
985.908, 10400.000
987.160, 9921.000
988.412, 9572.000
989.664, 9421.000
990.915, 9043.000
992.167, 8743.000
993.418, 8665.000
994.669, 8326.000
995.920, 8143.000
997.170, 7915.000
998.421, 7668.000
999.671, 7471.000
1000.921, 7429.000
1002.171, 7217.000
1003.421, 7134.000
1004.670, 7098.000
1005.919, 6954.000
1007.168, 6857.000
1008.417, 6733.000
1009.666, 6750.000
1010.915, 6675.000
1012.163, 6635.000
1013.411, 6609.000
1014.659, 6577.000
1015.907, 6585.000
1017.155, 6526.000
1018.402, 6550.000
1019.650, 6529.000
1020.897, 6484.000
1022.144, 6565.000
1023.390, 6518.000
1024.637, 6554.000
1025.883, 6608.000
1027.129, 6666.000
1028.375, 6692.000
1029.621, 6873.000
1030.867, 6951.000
1032.112, 7089.000
1033.357, 7370.000
1034.602, 7455.000
1035.847, 7753.000
1037.092, 8125.000
1038.336, 8466.000
1039.581, 8883.000
1040.825, 9185.000
1042.069, 9882.000
1043.312, 10080.000
1044.556, 9994.000
1045.799, 9885.000
1047.043, 9420.000
1048.286, 8846.000
1049.528, 8515.000
1050.771, 8018.000
1052.014, 7706.000
1053.256, 7417.000
1054.498, 7250.000
1055.740, 7095.000
1056.982, 6912.000
1058.223, 6855.000
1059.464, 6764.000
1060.706, 6673.000
1061.947, 6605.000
1063.187, 6630.000
1064.428, 6583.000
1065.669, 6532.000
1066.909, 6457.000
1068.149, 6411.000
1069.389, 6379.000
1070.628, 6463.000
1071.868, 6491.000
1073.107, 6364.000
1074.346, 6526.000
1075.585, 6439.000
1076.824, 6408.000
1078.063, 6524.000
1079.301, 6435.000
1080.539, 6488.000
1081.777, 6505.000
1083.015, 6512.000
1084.253, 6572.000
1085.490, 6561.000
1086.728, 6472.000
1087.965, 6609.000
1089.202, 6574.486
1090.439, 6561.000
1091.675, 6652.000
1092.912, 6561.000
1094.148, 6627.000
1095.384, 6656.000
1096.620, 6595.000
1097.855, 6768.000
1099.091, 6761.000
1100.326, 6774.000
1101.561, 6856.000
1102.796, 6947.000
1104.031, 6886.000
1105.265, 6863.000
1106.500, 6968.000
1107.734, 7056.000
1108.968, 7058.000
1110.202, 7188.000
1111.436, 7163.000
1112.669, 7239.000
1113.902, 7387.000
1115.135, 7401.000
1116.368, 7424.000
1117.601, 7495.000
1118.834, 7499.000
1120.066, 7609.000
1121.298, 7641.000
1122.530, 7765.000
1123.762, 7890.000
1124.994, 7830.000
1126.225, 8019.000
1127.456, 8151.000
1128.688, 8130.000
1129.918, 8292.000
1131.149, 8215.000
1132.380, 8302.000
1133.610, 8504.000
1134.840, 8674.000
1136.070, 8834.000
1137.300, 8399.000
1138.530, 8144.000
1139.759, 8209.000
1140.989, 7940.000
1142.218, 7616.000
1143.447, 7466.000
1144.675, 7113.000
1145.904, 6939.000
1147.132, 6686.000
1148.360, 6302.000
1149.588, 6050.000
1150.816, 5737.000
1152.044, 5462.000
1153.271, 5382.000
1154.499, 5087.000
1155.726, 5013.000
1156.953, 4951.000
1158.180, 4841.000
1159.406, 4804.000
1160.632, 4739.127
1161.859, 4684.596
1163.085, 4659.000
1164.311, 4616.000
1165.536, 4611.000
1166.762, 4616.000
1167.987, 4580.000
1169.212, 4578.000
1170.437, 4515.000
1171.662, 4557.000
1172.886, 4510.000
1174.111, 4482.000
1175.335, 4476.000
1176.559, 4473.000
1177.783, 4472.000
1179.007, 4469.202
1180.230, 4408.000
1181.453, 4442.000
1182.676, 4446.000
1183.899, 4379.000
1185.122, 4459.000
1186.345, 4431.000
1187.567, 4443.000
1188.789, 4421.000
1190.011, 4392.000
1191.233, 4444.000
1192.455, 4336.000
1193.677, 4367.000
1194.898, 4384.000
1196.119, 4368.000
1197.340, 4346.000
1198.561, 4385.000
1199.781, 4352.000
1201.002, 4373.000
1202.222, 4422.000
1203.442, 4383.000
1204.662, 4425.000
1205.882, 4388.000
1207.101, 4386.000
1208.321, 4345.000
1209.540, 4390.000
1210.759, 4388.000
1211.978, 4377.000
1213.196, 4374.000
1214.415, 4384.000
1215.633, 4372.979
1216.851, 4330.000
1218.069, 4358.000
1219.287, 4342.000
1220.504, 4321.000
1221.722, 4416.000
1222.939, 4354.000
1224.156, 4442.000
1225.373, 4387.000
1226.590, 4356.000
1227.806, 4404.000
1229.022, 4365.000
1230.239, 4338.000
1231.454, 4382.000
1232.670, 4336.000
1233.886, 4310.000
1235.101, 4388.000
1236.317, 4376.000
1237.532, 4354.000
1238.746, 4346.000
1239.961, 4393.000
1241.176, 4338.000
1242.390, 4311.000
1243.604, 4352.000
1244.818, 4395.000
1246.032, 4347.000
1247.246, 4418.000
1248.459, 4385.000
1249.672, 4329.000
1250.886, 4413.000
1252.098, 4336.000
1253.311, 4418.000
1254.524, 4482.000
1255.736, 4377.000
1256.948, 4407.000
1258.160, 4353.000
1259.372, 4291.000
1260.584, 4422.000
1261.795, 4388.000
1263.007, 4434.000
1264.218, 4399.000
1265.429, 4299.000
1266.640, 4343.000
1267.850, 4359.000
1269.061, 4360.000
1270.271, 4390.000
1271.481, 4408.000
1272.691, 4370.000
1273.901, 4390.000
1275.110, 4368.000
1276.320, 4376.000
1277.529, 4402.000
1278.738, 4392.000
1279.947, 4433.000
1281.155, 4395.000
1282.364, 4368.000
1283.572, 4431.000
1284.780, 4385.000
1285.988, 4392.000
1287.196, 4462.000
1288.404, 4380.000
1289.611, 4381.000
1290.818, 4406.000
1292.025, 4387.000
1293.232, 4438.000
1294.439, 4422.000
1295.646, 4473.000
1296.852, 4440.000
1298.058, 4432.000
1299.264, 4492.000
1300.470, 4496.000
1301.676, 4477.069
1302.881, 4457.923
1304.086, 4433.000
1305.292, 4357.000
1306.496, 4352.000
1307.701, 4300.000
1308.906, 4348.000
1310.110, 4402.000
1311.315, 4275.000
1312.519, 4349.000
1313.722, 4354.718
1314.926, 4348.166
1316.130, 4404.000
1317.333, 4398.000
1318.536, 4368.000
1319.739, 4388.000
1320.942, 4368.000
1322.145, 4319.000
1323.347, 4395.000
1324.550, 4314.000
1325.752, 4357.000
1326.954, 4417.000
1328.156, 4374.000
1329.357, 4410.000
1330.559, 4281.000
1331.760, 4387.000
1332.961, 4339.000
1334.162, 4360.000
1335.363, 4428.000
1336.563, 4377.000
1337.764, 4374.000
1338.964, 4357.000
1340.164, 4332.000
1341.364, 4362.000
1342.563, 4371.000
1343.763, 4371.803
1344.962, 4352.000
1346.161, 4408.000
1347.360, 4371.000
1348.559, 4430.000
1349.758, 4374.000
1350.956, 4386.000
1352.155, 4395.000
1353.353, 4377.000
1354.551, 4367.000
1355.748, 4394.000
1356.946, 4355.000
1358.143, 4531.000
1359.341, 4462.548
1360.538, 4561.000
1361.734, 4425.000
1362.931, 4417.000
1364.128, 4381.000
1365.324, 4395.000
1366.520, 4377.000
1367.716, 4432.000
1368.912, 4459.000
1370.108, 4366.000
1371.303, 4439.000
1372.499, 4435.000
1373.694, 4396.000
1374.889, 4402.000
1376.084, 4390.000
1377.278, 4356.000
1378.473, 4416.000
1379.667, 4365.000
1380.861, 4445.000
1382.055, 4489.000
1383.249, 4468.000
1384.442, 4417.000
1385.636, 4456.000
1386.829, 4431.000
1388.022, 4469.000
1389.215, 4395.000
1390.408, 4422.000
1391.600, 4420.000
1392.792, 4436.000
1393.985, 4451.000
1395.177, 4431.000
1396.368, 4410.000
1397.560, 4431.000
1398.752, 4414.000
1399.943, 4445.000
1401.134, 4431.000
1402.325, 4415.000
1403.516, 4478.000
1404.707, 4461.000
1405.897, 4446.000
1407.087, 4454.000
1408.277, 4521.000
1409.467, 4449.000
1410.657, 4484.000
1411.847, 4452.000
1413.036, 4436.000
1414.225, 4553.000
1415.414, 4464.000
1416.603, 4515.000
1417.792, 4469.000
1418.981, 4486.000
1420.169, 4437.000
1421.357, 4459.845
1422.545, 4462.000
1423.733, 4488.000
1424.921, 4496.000
1426.108, 4483.000
1427.296, 4468.000
1428.483, 4500.000
1429.670, 4504.000
1430.857, 4506.000
1432.043, 4490.000
1433.230, 4538.000
1434.416, 4544.000
1435.602, 4505.000
1436.788, 4540.000
1437.974, 4562.000
1439.160, 4489.000
1440.345, 4505.000
1441.530, 4525.000
1442.716, 4526.000
1443.900, 4577.000
1445.085, 4522.000
1446.270, 4497.000
1447.454, 4566.000
1448.638, 4553.000
1449.823, 4592.000
1451.006, 4591.000
1452.190, 4554.000
1453.374, 4608.000
1454.557, 4524.000
1455.740, 4485.000
1456.923, 4589.000
1458.106, 4490.000
1459.289, 4604.000
1460.472, 4612.000
1461.654, 4526.000
1462.836, 4608.000
1464.018, 4602.000
1465.200, 4608.000
1466.382, 4603.000
1467.563, 4615.000
1468.744, 4636.000
1469.926, 4588.000
1471.107, 4564.000
1472.287, 4556.000
1473.468, 4608.000
1474.649, 4552.000
1475.829, 4579.000
1477.009, 4619.000
1478.189, 4581.000
1479.369, 4706.000
1480.548, 4606.000
1481.728, 4663.000
1482.907, 4616.000
1484.086, 4561.000
1485.265, 4642.000
1486.444, 4584.000
1487.623, 4642.000
1488.801, 4637.000
1489.979, 4579.000
1491.157, 4588.000
1492.335, 4618.000
1493.513, 4620.000
1494.691, 4593.000
1495.868, 4660.000
1497.045, 4606.000
1498.222, 4638.000
1499.399, 4683.000
1500.576, 4585.000
1501.753, 4609.000
1502.929, 4680.000
1504.105, 4608.000
1505.281, 4692.000
1506.457, 4662.000
1507.633, 4620.000
1508.808, 4625.000
1509.984, 4661.000
1511.159, 4657.000
1512.334, 4640.000
1513.509, 4644.000
1514.683, 4653.000
1515.858, 4696.000
1517.032, 4564.000
1518.206, 4599.000
1519.380, 4634.000
1520.554, 4588.000
1521.728, 4718.000
1522.902, 4646.000
1524.075, 4604.000
1525.248, 4675.000
1526.421, 4624.000
1527.594, 4625.000
##END=



