##NAMES=Aegirine
##RRUFFID=R050074
##IDEAL CHEMISTRY=NaFe^3+^Si_2_O_6_
##LOCALITY=Mt. Malosa, Zomba, Chilwa, Alkaline Area, Malawi
##OWNER=RRUFF
##SOURCE=Rock Currier
##DESCRIPTION=Black prismatic single crystal
##STATUS=The identification of this mineral has been confirmed by X-ray diffraction and chemical analysis
##URL=rruff.info/R050074
##MEASURED CHEMISTRY=(Na_0.98_Ca_0.02_)_Σ=1_(Fe^3+^_0.96_Ti_0.01_Mn_0.03_)_Σ=1_Si_2.00_O_6_
##PIN_ID=L00155
##ORIENTATION=Laser parallel to -c* (0 0 -1). Fiducial mark perpendicular to laser is parallel to a [1 0 0]
95.702, 6504.000
97.097, 6364.000
98.492, 6178.000
99.886, 6019.000
101.281, 5928.000
102.675, 5719.000
104.069, 5687.000
105.462, 5588.000
106.856, 5487.000
108.249, 5467.000
109.642, 5485.000
111.035, 5504.000
112.427, 5526.000
113.820, 5640.000
115.212, 5589.000
116.603, 5471.000
117.995, 5261.000
119.386, 5189.000
120.778, 5085.000
122.168, 4908.000
123.559, 4824.000
124.950, 4734.000
126.340, 4706.000
127.730, 4686.000
129.119, 4648.000
130.509, 4745.000
131.898, 4984.000
133.287, 5064.000
134.676, 5115.000
136.065, 5144.000
137.453, 4951.000
138.841, 4770.000
140.229, 4447.000
141.617, 4315.000
143.004, 4110.000
144.392, 4007.000
145.779, 3974.000
147.165, 3881.000
148.552, 3828.000
149.938, 3777.000
151.324, 3762.000
152.710, 3840.000
154.096, 3822.000
155.481, 3913.000
156.866, 4164.000
158.251, 4416.000
159.636, 4774.000
161.020, 4951.000
162.405, 4995.000
163.789, 4884.000
165.172, 4524.000
166.556, 4084.000
167.939, 3852.000
169.322, 3667.000
170.705, 3569.000
172.088, 3601.000
173.470, 3697.000
174.853, 3847.000
176.234, 4144.000
177.616, 4438.000
178.998, 4831.000
180.379, 5033.000
181.760, 4932.000
183.141, 4694.000
184.521, 4289.000
185.902, 4021.000
187.282, 3959.000
188.662, 4000.000
190.042, 4318.000
191.421, 4537.000
192.800, 4649.000
194.179, 4690.000
195.558, 4524.000
196.937, 4456.000
198.315, 4225.000
199.693, 4052.000
201.071, 4020.000
202.449, 4063.000
203.826, 4251.000
205.203, 4402.000
206.580, 4841.000
207.957, 5546.000
209.333, 6505.000
210.710, 7852.000
212.086, 9541.000
213.462, 10890.000
214.837, 11530.000
216.213, 10970.000
217.588, 9777.000
218.963, 8162.000
220.337, 6497.000
221.712, 5223.000
223.086, 4458.000
224.460, 3942.000
225.834, 3637.000
227.207, 3476.000
228.581, 3289.000
229.954, 3208.000
231.327, 3081.000
232.699, 3048.000
234.072, 2999.000
235.444, 2951.000
236.816, 2962.000
238.188, 2934.000
239.559, 2952.000
240.931, 2942.618
242.302, 2954.000
243.673, 2939.000
245.043, 2956.000
246.414, 2961.000
247.784, 2970.000
249.154, 3012.000
250.523, 3026.000
251.893, 3061.000
253.262, 3109.000
254.631, 3152.000
256.000, 3222.000
257.369, 3265.000
258.737, 3369.000
260.105, 3456.000
261.473, 3677.000
262.841, 3935.000
264.208, 4047.000
265.576, 4138.000
266.943, 4060.000
268.310, 3968.000
269.676, 3783.000
271.042, 3601.000
272.409, 3579.000
273.775, 3527.000
275.140, 3508.000
276.506, 3636.000
277.871, 3701.000
279.236, 3743.000
280.601, 3778.000
281.965, 3899.000
283.330, 4016.000
284.694, 4250.000
286.058, 4526.000
287.421, 4944.000
288.785, 5550.000
290.148, 6064.000
291.511, 6823.000
292.874, 7326.000
294.236, 7594.000
295.599, 7509.000
296.961, 7199.000
298.323, 6720.000
299.684, 6039.000
301.046, 5565.000
302.407, 5211.000
303.768, 4934.000
305.129, 4842.000
306.489, 4760.000
307.850, 4857.000
309.210, 4970.000
310.570, 5074.000
311.929, 5101.000
313.289, 5054.000
314.648, 4886.000
316.007, 4606.000
317.366, 4414.000
318.724, 4217.000
320.083, 4071.000
321.441, 3998.000
322.799, 3970.269
324.156, 4000.000
325.514, 4094.000
326.871, 4244.000
328.228, 4447.000
329.585, 4756.000
330.941, 5131.000
332.298, 5735.000
333.654, 6445.000
335.010, 7318.000
336.365, 8302.000
337.721, 9369.749
339.076, 10730.000
340.431, 11870.000
341.786, 13330.000
343.140, 14870.000
344.495, 16680.000
345.849, 18340.000
347.203, 19470.000
348.556, 19120.000
349.910, 18260.000
351.263, 15420.000
352.616, 13190.000
353.969, 10770.000
355.321, 8999.000
356.674, 7690.000
358.026, 6787.000
359.378, 6217.000
360.729, 5838.000
362.081, 5603.000
363.432, 5589.000
364.783, 5610.000
366.134, 5591.000
367.484, 5708.000
368.835, 5722.000
370.185, 5734.000
371.535, 5625.000
372.884, 5682.000
374.234, 5589.000
375.583, 5696.000
376.932, 5901.000
378.281, 6284.000
379.630, 6950.000
380.978, 7578.000
382.326, 8478.000
383.674, 9341.000
385.022, 10060.000
386.369, 10580.000
387.717, 10340.000
389.064, 9622.000
390.411, 8673.000
391.757, 7855.000
393.104, 6811.000
394.450, 5925.000
395.796, 5203.000
397.141, 4675.000
398.487, 4181.000
399.832, 3874.000
401.177, 3586.000
402.522, 3432.000
403.867, 3209.000
405.211, 3129.000
406.555, 2951.000
407.899, 2904.000
409.243, 2813.000
410.587, 2745.000
411.930, 2723.000
413.273, 2602.000
414.616, 2612.000
415.959, 2560.000
417.301, 2473.000
418.644, 2470.000
419.986, 2414.000
421.327, 2398.000
422.669, 2351.000
424.010, 2362.000
425.351, 2331.000
426.692, 2313.000
428.033, 2266.000
429.374, 2265.000
430.714, 2305.000
432.054, 2253.000
433.394, 2241.000
434.733, 2229.000
436.073, 2203.000
437.412, 2236.000
438.751, 2249.000
440.090, 2203.000
441.428, 2249.841
442.767, 2239.481
444.105, 2283.000
445.443, 2250.000
446.780, 2236.000
448.118, 2224.000
449.455, 2215.000
450.792, 2272.000
452.129, 2314.000
453.465, 2309.000
454.802, 2391.000
456.138, 2494.000
457.474, 2800.000
458.809, 2553.000
460.145, 2630.000
461.480, 2977.000
462.815, 3098.000
464.150, 2897.000
465.485, 2952.000
466.819, 2907.000
468.153, 2861.000
469.487, 2794.000
470.821, 2675.000
472.155, 2589.000
473.488, 2557.000
474.821, 2518.000
476.154, 2468.000
477.487, 2421.000
478.819, 2426.000
480.151, 2404.000
481.483, 2458.000
482.815, 2423.000
484.147, 2404.000
485.478, 2466.000
486.809, 2505.000
488.140, 2491.000
489.471, 2644.000
490.802, 2674.000
492.132, 2883.000
493.462, 3042.000
494.792, 3338.000
496.122, 3576.000
497.451, 3832.000
498.780, 3870.000
500.109, 3804.000
501.438, 3627.000
502.767, 3389.000
504.095, 3205.000
505.423, 3146.000
506.751, 2947.000
508.079, 2902.000
509.406, 2871.000
510.734, 2811.000
512.061, 2854.000
513.388, 2834.000
514.714, 2814.000
516.041, 2862.000
517.367, 2894.000
518.693, 2978.000
520.019, 3002.000
521.344, 3143.000
522.670, 3180.000
523.995, 3363.000
525.320, 3500.000
526.644, 3698.000
527.969, 3939.000
529.293, 4331.000
530.617, 4559.000
531.941, 5046.000
533.265, 5492.000
534.588, 6323.000
535.911, 7118.000
537.234, 8480.000
538.557, 10160.000
539.880, 12240.000
541.202, 14380.000
542.524, 16320.000
543.846, 17210.000
545.168, 17290.000
546.489, 16050.000
547.811, 14720.000
549.132, 13140.000
550.453, 11680.000
551.773, 11150.000
553.094, 10540.000
554.414, 10690.000
555.734, 10910.000
557.054, 11750.000
558.374, 12590.000
559.693, 13390.000
561.012, 13940.000
562.331, 14070.000
563.650, 13240.000
564.968, 12580.000
566.287, 11210.000
567.605, 10120.000
568.923, 8863.000
570.240, 7886.000
571.558, 7114.000
572.875, 6515.000
574.192, 5897.000
575.509, 5486.000
576.825, 5115.000
578.142, 4843.000
579.458, 4556.000
580.774, 4298.000
582.090, 4107.000
583.405, 3934.000
584.721, 3752.000
586.036, 3581.000
587.351, 3418.000
588.665, 3274.000
589.980, 3216.000
591.294, 3116.000
592.608, 2994.000
593.922, 2863.000
595.236, 2744.000
596.549, 2706.000
597.862, 2626.000
599.175, 2554.000
600.488, 2491.000
601.801, 2433.096
603.113, 2392.000
604.425, 2338.000
605.737, 2294.000
607.049, 2258.000
608.361, 2254.000
609.672, 2223.000
610.983, 2202.000
612.294, 2153.000
613.605, 2162.000
614.915, 2122.000
616.225, 2135.000
617.536, 2157.000
618.845, 2105.000
620.155, 2073.000
621.464, 2068.000
622.774, 2077.000
624.083, 2061.000
625.391, 2056.000
626.700, 2052.000
628.008, 2066.000
629.317, 2067.000
630.625, 2072.000
631.932, 2077.000
633.240, 2029.000
634.547, 2039.000
635.854, 2052.000
637.161, 2044.000
638.468, 2072.000
639.774, 2084.000
641.081, 2086.000
642.387, 2106.000
643.693, 2113.942
644.998, 2127.834
646.304, 2134.000
647.609, 2152.000
648.914, 2154.000
650.219, 2154.000
651.523, 2195.000
652.828, 2234.000
654.132, 2185.000
655.436, 2211.000
656.740, 2215.000
658.043, 2249.000
659.346, 2247.000
660.650, 2263.000
661.952, 2271.000
663.255, 2313.000
664.558, 2352.000
665.860, 2406.000
667.162, 2480.000
668.464, 2565.000
669.766, 2690.000
671.067, 2818.000
672.368, 2982.000
673.669, 3166.000
674.970, 3458.000
676.271, 3632.000
677.571, 3776.000
678.871, 3782.000
680.171, 3687.000
681.471, 3525.000
682.771, 3198.000
684.070, 2979.000
685.369, 2738.000
686.668, 2557.000
687.967, 2493.000
689.266, 2379.000
690.564, 2250.000
691.862, 2192.000
693.160, 2158.000
694.458, 2097.000
695.755, 2103.000
697.053, 2056.000
698.350, 2040.000
699.646, 2008.000
700.943, 2014.000
702.240, 1977.000
703.536, 2008.000
704.832, 1977.000
706.128, 1998.000
707.423, 1964.000
708.719, 1960.000
710.014, 1940.000
711.309, 1935.004
712.604, 1934.223
713.898, 1943.000
715.193, 1935.000
716.487, 1960.000
717.781, 1956.000
719.075, 2004.000
720.368, 1958.000
721.662, 1937.000
722.955, 1970.000
724.248, 1951.000
725.541, 1938.000
726.833, 1949.000
728.125, 1990.000
729.418, 1941.000
730.709, 1962.000
732.001, 1943.000
733.293, 1947.000
734.584, 1938.000
735.875, 1933.000
737.166, 1949.000
738.457, 1949.000
739.747, 1950.000
741.037, 1971.000
742.327, 1943.000
743.617, 1952.000
744.907, 1964.000
746.196, 1978.000
747.486, 1979.000
748.775, 2000.869
750.063, 2014.000
751.352, 2048.000
752.640, 2063.000
753.929, 2107.000
755.217, 2167.000
756.504, 2259.000
757.792, 2268.000
759.079, 2308.000
760.367, 2240.000
761.654, 2178.000
762.940, 2071.000
764.227, 2022.000
765.513, 1992.000
766.799, 1959.000
768.085, 1929.000
769.371, 1940.000
770.657, 1905.000
771.942, 1922.000
773.227, 1949.000
774.512, 1986.000
775.797, 1954.000
777.081, 1926.000
778.365, 1950.000
779.650, 1933.000
780.933, 1958.000
782.217, 1968.000
783.501, 1930.000
784.784, 1979.000
786.067, 1945.000
787.350, 1974.000
788.633, 1965.000
789.915, 1944.000
791.197, 1967.000
792.479, 1932.000
793.761, 1961.000
795.043, 1976.000
796.324, 1978.000
797.606, 2007.000
798.887, 1963.000
800.167, 1972.000
801.448, 2037.000
802.728, 2002.000
804.009, 2061.000
805.289, 2040.000
806.568, 2068.000
807.848, 2035.000
809.128, 2058.000
810.407, 2079.000
811.686, 2044.000
812.965, 2082.000
814.243, 2116.000
815.522, 2089.000
816.800, 2178.000
818.078, 2144.000
819.355, 2187.000
820.633, 2228.000
821.910, 2206.000
823.188, 2278.000
824.465, 2313.000
825.741, 2285.000
827.018, 2380.000
828.294, 2377.000
829.570, 2428.000
830.846, 2476.000
832.122, 2513.000
833.398, 2566.000
834.673, 2655.000
835.948, 2734.000
837.223, 2831.000
838.498, 2869.000
839.772, 3012.000
841.047, 3161.000
842.321, 3224.000
843.595, 3453.000
844.868, 3586.000
846.142, 3767.000
847.415, 4040.000
848.688, 4225.000
849.961, 4429.000
851.234, 4729.000
852.507, 4973.000
853.779, 5145.000
855.051, 5658.000
856.323, 5939.000
857.595, 6322.000
858.866, 6835.000
860.137, 7472.000
861.409, 8117.000
862.679, 8877.000
863.950, 9682.000
865.221, 10090.000
866.491, 10560.000
867.761, 10530.000
869.031, 10480.000
870.301, 9871.000
871.570, 9225.000
872.839, 8399.000
874.109, 7667.000
875.377, 7007.000
876.646, 6457.000
877.915, 5874.000
879.183, 5499.000
880.451, 5065.000
881.719, 4832.000
882.987, 4582.000
884.254, 4358.000
885.521, 4248.000
886.788, 4129.000
888.055, 3959.000
889.322, 3877.000
890.588, 3780.000
891.855, 3742.000
893.121, 3656.000
894.387, 3681.000
895.652, 3693.000
896.918, 3586.000
898.183, 3614.000
899.448, 3595.000
900.713, 3568.000
901.978, 3614.000
903.242, 3517.000
904.506, 3616.000
905.771, 3539.000
907.034, 3584.000
908.298, 3749.000
909.562, 3861.000
910.825, 3704.000
912.088, 3675.000
913.351, 3700.000
914.613, 3718.000
915.876, 3782.000
917.138, 3828.000
918.400, 3958.000
919.662, 3916.000
920.924, 4102.000
922.185, 4136.000
923.447, 4229.000
924.708, 4380.000
925.969, 4432.245
927.229, 4531.000
928.490, 4643.000
929.750, 4780.000
931.010, 4963.000
932.270, 5137.000
933.530, 5366.000
934.789, 5566.000
936.048, 5762.000
937.308, 6269.000
938.566, 6592.000
939.825, 7083.000
941.084, 7656.000
942.342, 8284.000
943.600, 9257.000
944.858, 10190.000
946.116, 11330.000
947.373, 13160.000
948.630, 14510.000
949.888, 16120.000
951.144, 17100.000
952.401, 17500.000
953.658, 17320.000
954.914, 16430.000
956.170, 16010.000
957.426, 15510.000
958.682, 15540.000
959.937, 16140.000
961.193, 16790.000
962.448, 17950.000
963.703, 18900.000
964.957, 21190.000
966.212, 23830.000
967.466, 27850.000
968.720, 32930.000
969.974, 40490.000
971.228, 47030.000
972.482, 50590.000
973.735, 50190.000
974.988, 44200.000
976.241, 37290.000
977.494, 29810.000
978.746, 24260.000
979.999, 20080.000
981.251, 17160.000
982.503, 14900.000
983.755, 13280.000
985.006, 12090.000
986.258, 10870.000
987.509, 10090.000
988.760, 9177.000
990.011, 8634.000
991.261, 7868.000
992.512, 7277.000
993.762, 6716.000
995.012, 6409.000
996.262, 5986.000
997.511, 5638.000
998.761, 5385.000
1000.010, 5152.000
1001.259, 4911.000
1002.508, 4710.000
1003.756, 4541.000
1005.005, 4398.000
1006.253, 4303.000
1007.501, 4160.000
1008.749, 4085.000
1009.996, 3987.000
1011.244, 3926.000
1012.491, 3943.000
1013.738, 3874.000
1014.985, 3900.000
1016.232, 3890.000
1017.478, 3940.000
1018.724, 4013.000
1019.970, 4002.000
1021.216, 4124.000
1022.462, 4195.000
1023.707, 4263.000
1024.953, 4419.000
1026.198, 4510.000
1027.443, 4752.000
1028.687, 4913.000
1029.932, 5290.000
1031.176, 5733.000
1032.420, 6278.000
1033.664, 6978.000
1034.908, 8031.000
1036.152, 9298.000
1037.395, 11050.000
1038.638, 13470.000
1039.881, 16590.000
1041.124, 20500.000
1042.366, 23800.000
1043.609, 25370.000
1044.851, 23560.000
1046.093, 19570.000
1047.335, 15610.000
1048.576, 12160.000
1049.818, 9806.000
1051.059, 8169.000
1052.300, 6926.000
1053.541, 6200.000
1054.781, 5559.000
1056.022, 5007.000
1057.262, 4657.000
1058.502, 4329.000
1059.742, 4106.000
1060.981, 3819.000
1062.221, 3664.000
1063.460, 3550.000
1064.699, 3362.000
1065.938, 3228.000
1067.177, 3210.000
1068.415, 3072.000
1069.653, 3030.000
1070.891, 3065.000
1072.129, 3016.000
1073.367, 2972.000
1074.604, 2944.000
1075.842, 2866.000
1077.079, 2873.000
1078.316, 2825.773
1079.553, 2820.000
1080.789, 2777.000
1082.025, 2779.000
1083.262, 2775.000
1084.498, 2756.000
1085.733, 2778.000
1086.969, 2732.000
1088.204, 2690.000
1089.439, 2729.000
1090.674, 2732.000
1091.909, 2670.000
1093.144, 2714.000
1094.378, 2655.000
1095.612, 2680.000
1096.846, 2671.000
1098.080, 2694.000
1099.314, 2689.000
1100.547, 2724.000
1101.781, 2682.000
1103.014, 2715.000
1104.247, 2740.000
1105.479, 2704.000
1106.712, 2763.000
1107.944, 2725.000
1109.176, 2767.000
1110.408, 2731.000
1111.640, 2761.000
1112.871, 2768.000
1114.102, 2754.000
1115.334, 2816.000
1116.565, 2801.000
1117.795, 2827.000
1119.026, 2878.000
1120.256, 2823.000
1121.486, 2880.000
1122.716, 2875.000
1123.946, 2889.000
1125.176, 2939.000
1126.405, 2993.000
1127.634, 2960.000
1128.863, 2922.000
1130.092, 2998.000
1131.321, 2959.000
1132.549, 2999.000
1133.778, 2980.000
1135.006, 2979.000
1136.233, 2907.000
1137.461, 2834.000
1138.689, 2804.000
1139.916, 2742.000
1141.143, 2641.000
1142.370, 2543.000
1143.597, 2505.000
1144.823, 2432.000
1146.050, 2359.000
1147.276, 2225.000
1148.502, 2196.000
1149.727, 2104.000
1150.953, 2084.000
1152.178, 2060.000
1153.404, 2036.000
1154.629, 1995.000
1155.853, 1987.000
1157.078, 1964.271
1158.302, 1967.000
1159.527, 1938.000
1160.751, 1912.000
1161.975, 1901.000
1163.198, 1881.000
1164.422, 1938.000
1165.645, 1908.758
1166.868, 1909.000
1168.091, 1902.000
1169.314, 1859.000
1170.536, 1859.000
1171.759, 1856.000
1172.981, 1824.000
1174.203, 1831.601
1175.424, 1822.687
1176.646, 1825.000
1177.867, 1828.000
1179.089, 1823.000
1180.310, 1841.000
1181.530, 1822.000
1182.751, 1821.000
1183.971, 1857.000
1185.192, 1807.000
1186.412, 1850.000
1187.632, 1831.000
1188.851, 1803.000
1190.071, 1843.000
1191.290, 1843.000
1192.509, 1827.000
1193.728, 1812.000
1194.947, 1812.000
1196.165, 1812.000
1197.384, 1822.000
1198.602, 1813.000
1199.820, 1851.000
1201.037, 1790.000
1202.255, 1786.000
1203.472, 1820.000
1204.690, 1852.000
1205.907, 1818.000
1207.124, 1842.000
1208.340, 1817.000
1209.557, 1792.000
1210.773, 1808.000
1211.989, 1798.000
1213.205, 1846.000
1214.421, 1826.000
1215.636, 1799.000
1216.851, 1821.000
1218.067, 1801.000
1219.281, 1805.000
1220.496, 1808.000
1221.711, 1804.000
1222.925, 1831.000
1224.139, 1821.000
1225.353, 1793.000
1226.567, 1816.000
1227.781, 1803.000
1228.994, 1798.981
1230.207, 1823.000
1231.421, 1801.000
1232.633, 1792.000
1233.846, 1813.000
1235.059, 1794.000
1236.271, 1813.000
1237.483, 1803.000
1238.695, 1836.000
1239.907, 1861.000
1241.118, 1802.000
1242.330, 1818.000
1243.541, 1833.000
1244.752, 1809.000
1245.963, 1788.000
1247.173, 1800.000
1248.384, 1809.000
1249.594, 1815.000
1250.804, 1811.000
1252.014, 1780.000
1253.223, 1799.000
1254.433, 1780.077
1255.642, 1800.000
1256.851, 1775.000
1258.060, 1798.000
1259.269, 1821.000
1260.478, 1794.000
1261.686, 1800.000
1262.894, 1811.000
1264.102, 1777.000
1265.310, 1797.000
1266.518, 1746.000
1267.725, 1780.000
1268.932, 1788.000
1270.139, 1770.000
1271.346, 1745.000
1272.553, 1795.000
1273.759, 1804.000
1274.966, 1806.000
1276.172, 1786.000
1277.378, 1775.000
1278.583, 1825.000
1279.789, 1814.605
1280.994, 1808.829
1282.200, 1827.000
1283.405, 1790.000
1284.609, 1753.000
1285.814, 1765.000
1287.018, 1776.000
1288.223, 1793.000
1289.427, 1812.000
1290.631, 1801.000
1291.834, 1805.000
1293.038, 1811.000
1294.241, 1781.000
1295.444, 1798.000
1296.647, 1769.000
1297.850, 1817.000
1299.053, 1804.000
1300.255, 1784.000
1301.457, 1774.000
1302.659, 1781.000
1303.861, 1806.000
1305.063, 1793.000
1306.264, 1751.000
1307.466, 1788.000
1308.667, 1761.000
1309.868, 1751.000
1311.068, 1753.000
1312.269, 1798.000
1313.469, 1791.085
1314.669, 1794.998
1315.869, 1798.000
1317.069, 1781.000
1318.269, 1746.000
1319.468, 1733.000
1320.668, 1760.000
1321.867, 1769.000
1323.066, 1795.000
1324.264, 1752.000
1325.463, 1778.000
1326.661, 1761.000
1327.859, 1762.000
1329.057, 1763.743
1330.255, 1760.000
1331.452, 1769.000
1332.650, 1764.000
1333.847, 1793.000
1335.044, 1758.000
1336.241, 1764.000
1337.438, 1780.000
1338.634, 1766.000
1339.830, 1800.000
1341.027, 1770.000
1342.222, 1790.000
1343.418, 1782.000
1344.614, 1752.000
1345.809, 1768.000
1347.004, 1752.000
1348.199, 1758.000
1349.394, 1788.000
1350.589, 1769.000
1351.783, 1792.864
1352.978, 1810.000
1354.172, 1813.000
1355.365, 1782.000
1356.559, 1776.000
1357.753, 1764.000
1358.946, 1778.000
1360.139, 1788.000
1361.332, 1782.836
1362.525, 1784.000
1363.718, 1781.000
1364.910, 1782.000
1366.102, 1779.000
1367.294, 1764.000
1368.486, 1762.000
1369.678, 1779.000
1370.869, 1752.000
1372.061, 1780.000
1373.252, 1764.000
1374.443, 1797.000
1375.634, 1796.000
1376.824, 1785.000
1378.015, 1759.000
1379.205, 1764.631
1380.395, 1762.000
1381.585, 1765.000
1382.775, 1768.663
1383.964, 1769.497
1385.153, 1776.000
1386.343, 1778.000
1387.531, 1781.000
1388.720, 1792.000
1389.909, 1788.000
1391.097, 1767.000
1392.285, 1756.000
1393.473, 1784.000
1394.661, 1806.000
1395.849, 1795.000
1397.037, 1799.000
1398.224, 1798.000
1399.411, 1776.000
1400.598, 1808.000
1401.785, 1822.000
1402.971, 1794.000
1404.158, 1769.000
1405.344, 1796.000
1406.530, 1780.000
1407.716, 1784.000
1408.901, 1787.000
1410.087, 1802.000
1411.272, 1812.000
1412.457, 1800.000
1413.642, 1760.000
1414.827, 1776.000
1416.012, 1808.000
1417.196, 1774.000
1418.380, 1808.000
1419.564, 1780.000
1420.748, 1774.000
1421.932, 1803.000
1423.115, 1790.000
1424.299, 1808.000
1425.482, 1806.000
1426.665, 1811.000
1427.847, 1792.000
1429.030, 1804.000
1430.212, 1767.000
1431.395, 1803.000
1432.577, 1760.000
1433.759, 1803.000
1434.940, 1840.000
1436.122, 1823.000
1437.303, 1812.000
1438.484, 1819.000
1439.665, 1807.000
1440.846, 1807.499
1442.026, 1825.000
1443.207, 1808.000
1444.387, 1817.000
1445.567, 1825.000
1446.747, 1822.000
1447.927, 1834.000
1449.106, 1846.000
1450.286, 1815.000
1451.465, 1840.000
1452.644, 1862.000
1453.822, 1831.000
1455.001, 1828.000
1456.179, 1820.000
1457.358, 1815.836
1458.536, 1855.000
1459.714, 1830.000
1460.891, 1847.000
1462.069, 1872.000
1463.246, 1852.000
1464.423, 1841.000
1465.600, 1843.000
1466.777, 1833.808
1467.954, 1840.000
1469.130, 1826.000
1470.306, 1833.000
1471.483, 1818.000
1472.658, 1858.000
1473.834, 1851.000
1475.010, 1848.000
1476.185, 1871.000
1477.360, 1843.000
1478.535, 1861.000
1479.710, 1858.000
1480.885, 1894.000
1482.059, 1859.000
1483.234, 1878.000
1484.408, 1876.000
1485.582, 1870.000
1486.755, 1874.000
1487.929, 1872.693
1489.102, 1849.000
1490.275, 1873.000
1491.449, 1866.000
1492.621, 1859.000
1493.794, 1878.000
1494.967, 1864.000
1496.139, 1875.683
1497.311, 1875.227
1498.483, 1892.000
1499.655, 1873.000
1500.826, 1883.000
1501.998, 1879.000
1503.169, 1912.000
1504.340, 1893.428
1505.511, 1889.843
1506.682, 1887.000
1507.852, 1866.000
1509.023, 1897.000
1510.193, 1902.000
1511.363, 1874.000
1512.532, 1888.000
1513.702, 1856.000
1514.872, 1912.000
1516.041, 1880.000
1517.210, 1901.000
1518.379, 1941.000
1519.548, 1892.000
1520.716, 1940.000
##END=



