##NAMES=Aenigmatite
##RRUFFID=R061088
##IDEAL CHEMISTRY=Na_4_(Fe^2+^_10_Ti^4+^_2_)O_4_[Si_12_O_36_]
##LOCALITY=Naujakasik, Greenland
##OWNER=RRUFF
##SOURCE=Michael Scott
##DESCRIPTION=Black prismatic crystals
##STATUS=The identification of this mineral has been confirmed by X-ray diffraction and chemical analysis
##URL=rruff.info/R061088
##MEASURED CHEMISTRY=(Na_1.72_Ca_0.28_)_Σ=2_(Fe^2+^_4.90_Mn_0.08_Mg_0.02_)_Σ=5_(Ti_0.85_Al_0.14_Fe^3+^_0.01_)_Σ=1_(Si_5.87_Al_0.13_)_Σ=6_O_20_
##PIN_ID=L01545
##ORIENTATION=Laser parallel to (1 1 0). Fiducial mark perpendicular to laser is parallel to c [0 0 1]
136.5910, 11476.00
137.8260, 11545.00
139.0610, 11557.74
140.2950, 11564.90
141.5290, 11658.00
142.7640, 11649.00
143.9980, 11854.00
145.2320, 11998.00
146.4650, 12253.00
147.6990, 12388.86
148.9320, 12557.75
150.1650, 12652.00
151.3980, 12846.00
152.6310, 12878.00
153.8640, 12983.00
155.0960, 13227.00
156.3280, 13211.00
157.5600, 13382.00
158.7920, 13426.00
160.0240, 13699.00
161.2560, 13742.00
162.4870, 13970.00
163.7180, 13994.74
164.9490, 13940.58
166.1800, 13994.00
167.4110, 13699.00
168.6410, 13610.00
169.8720, 13416.00
171.1020, 13133.00
172.3320, 12923.00
173.5620, 12527.00
174.7910, 12119.00
176.0210, 11951.94
177.2500, 11683.14
178.4790, 11568.00
179.7080, 11402.00
180.9370, 11267.00
182.1650, 11238.00
183.3940, 11073.00
184.6220, 11012.00
185.8500, 11123.00
187.0780, 11103.00
188.3050, 11130.00
189.5330, 11126.00
190.7600, 11162.00
191.9870, 11270.00
193.2140, 11203.00
194.4410, 11282.00
195.6680, 11220.00
196.8940, 11196.00
198.1200, 11220.00
199.3470, 11272.00
200.5720, 11280.00
201.7980, 11219.48
203.0240, 11183.00
204.2490, 11040.00
205.4740, 10818.00
206.6990, 10682.00
207.9240, 10645.00
209.1490, 10573.00
210.3740, 10676.00
211.5980, 10664.00
212.8220, 10757.00
214.0460, 10773.00
215.2700, 10627.00
216.4930, 10646.00
217.7170, 10579.00
218.9400, 10860.00
220.1630, 10935.00
221.3860, 10809.00
222.6090, 10880.00
223.8320, 10839.00
225.0540, 11060.00
226.2760, 11224.00
227.4980, 11077.00
228.7200, 11105.00
229.9420, 11140.00
231.1630, 11249.00
232.3850, 11358.00
233.6060, 11430.00
234.8270, 11521.00
236.0480, 11554.00
237.2690, 11846.00
238.4890, 11702.74
239.7090, 11751.00
240.9290, 11622.00
242.1490, 11567.00
243.3690, 11738.00
244.5890, 11679.83
245.8080, 11711.38
247.0270, 11719.00
248.2470, 11728.00
249.4650, 11722.07
250.6840, 11720.66
251.9030, 11689.00
253.1210, 11705.00
254.3390, 11685.00
255.5570, 11676.00
256.7750, 11688.00
257.9930, 11943.00
259.2100, 11841.80
260.4280, 11797.87
261.6450, 11818.00
262.8620, 11541.00
264.0790, 11536.00
265.2950, 11436.00
266.5120, 11369.00
267.7280, 11303.00
268.9440, 11305.00
270.1600, 11324.00
271.3760, 11425.00
272.5920, 11226.00
273.8070, 11403.00
275.0220, 11314.00
276.2370, 11253.00
277.4520, 11320.00
278.6670, 11368.00
279.8820, 11434.00
281.0960, 11252.00
282.3100, 11261.00
283.5240, 11426.00
284.7380, 11481.00
285.9520, 11564.00
287.1650, 11636.00
288.3780, 11701.00
289.5920, 11782.19
290.8050, 11751.00
292.0170, 11909.00
293.2300, 12032.00
294.4430, 12045.00
295.6550, 12189.00
296.8670, 12326.98
298.0790, 12449.50
299.2910, 12594.00
300.5020, 12759.00
301.7140, 12840.38
302.9250, 12868.00
304.1360, 13011.00
305.3470, 13082.00
306.5580, 13153.00
307.7680, 13221.00
308.9780, 13214.00
310.1890, 13314.00
311.3990, 13270.00
312.6090, 13213.00
313.8180, 13087.00
315.0280, 13039.73
316.2370, 12953.00
317.4460, 12866.00
318.6550, 12693.00
319.8640, 12551.00
321.0730, 12336.00
322.2810, 12292.00
323.4890, 12064.00
324.6980, 12115.00
325.9060, 11960.00
327.1130, 11660.00
328.3210, 11668.00
329.5280, 11635.00
330.7360, 11514.00
331.9430, 11500.00
333.1500, 11398.00
334.3560, 11457.00
335.5630, 11329.00
336.7690, 11359.00
337.9760, 11193.00
339.1820, 11327.00
340.3870, 11254.00
341.5930, 11374.00
342.7990, 11495.00
344.0040, 11574.00
345.2090, 11615.00
346.4140, 11684.00
347.6190, 11826.00
348.8240, 11926.00
350.0280, 11947.00
351.2330, 12382.00
352.4370, 12274.00
353.6410, 12567.00
354.8440, 12956.00
356.0480, 13062.00
357.2520, 13081.00
358.4550, 13125.00
359.6580, 13302.00
360.8610, 13372.00
362.0640, 13211.00
363.2660, 13385.00
364.4690, 13404.00
365.6710, 13205.00
366.8730, 13147.00
368.0750, 12907.00
369.2770, 13106.00
370.4780, 12990.00
371.6800, 12875.00
372.8810, 12746.00
374.0820, 12801.00
375.2830, 12806.00
376.4830, 12670.00
377.6840, 12606.13
378.8840, 12733.00
380.0840, 12397.00
381.2840, 12311.00
382.4840, 12369.00
383.6840, 12442.00
384.8830, 12346.00
386.0830, 12434.00
387.2820, 12145.00
388.4810, 12166.00
389.6800, 12082.00
390.8780, 12128.00
392.0770, 12015.00
393.2750, 12019.00
394.4730, 11862.00
395.6710, 11902.00
396.8690, 11937.00
398.0660, 11780.00
399.2640, 11542.00
400.4610, 11741.00
401.6580, 11566.00
402.8550, 11633.00
404.0520, 11681.00
405.2490, 11547.00
406.4450, 11668.00
407.6410, 11608.00
408.8370, 11617.00
410.0330, 11585.00
411.2290, 11768.00
412.4240, 11776.00
413.6200, 11782.00
414.8150, 11852.00
416.0100, 11856.00
417.2050, 11902.00
418.4000, 11954.00
419.5940, 12107.00
420.7880, 12089.00
421.9830, 12309.00
423.1770, 12509.00
424.3700, 12590.28
425.5640, 12653.00
426.7580, 12786.00
427.9510, 12857.02
429.1440, 12985.87
430.3370, 13090.82
431.5300, 13172.86
432.7220, 13179.91
433.9150, 13271.09
435.1070, 13320.77
436.2990, 13363.44
437.4910, 13548.00
438.6830, 13440.00
439.8750, 13390.00
441.0660, 13409.00
442.2570, 13275.00
443.4480, 13245.00
444.6390, 13163.00
445.8300, 13041.00
447.0210, 12906.00
448.2110, 12679.00
449.4010, 12790.00
450.5910, 12563.00
451.7810, 12503.00
452.9710, 12451.00
454.1610, 12274.00
455.3500, 12286.00
456.5390, 12246.00
457.7280, 12154.00
458.9170, 12183.00
460.1060, 12126.00
461.2940, 12020.00
462.4830, 12086.00
463.6710, 12021.00
464.8590, 11945.00
466.0470, 12083.00
467.2350, 12126.00
468.4220, 11942.00
469.6090, 12079.00
470.7970, 11935.00
471.9840, 12246.00
473.1700, 12271.00
474.3570, 12355.00
475.5440, 12293.00
476.7300, 12273.00
477.9160, 12485.00
479.1020, 12463.00
480.2880, 12632.00
481.4740, 12666.00
482.6590, 12665.00
483.8440, 12620.00
485.0300, 12762.00
486.2140, 12702.00
487.3990, 12805.00
488.5840, 12830.00
489.7680, 12869.00
490.9530, 12991.00
492.1370, 12854.00
493.3210, 12807.00
494.5040, 12882.00
495.6880, 12845.00
496.8720, 12893.00
498.0550, 12987.00
499.2380, 13007.00
500.4210, 13009.00
501.6040, 13066.00
502.7860, 13020.00
503.9690, 13203.00
505.1510, 13346.00
506.3330, 13238.00
507.5150, 13333.00
508.6970, 13434.00
509.8780, 13487.00
511.0600, 13573.00
512.2410, 13627.85
513.4220, 13618.00
514.6030, 13737.00
515.7840, 13805.00
516.9640, 13875.00
518.1440, 13997.00
519.3250, 14132.00
520.5050, 14192.00
521.6850, 14336.19
522.8640, 14454.30
524.0440, 14542.00
525.2230, 14695.00
526.4020, 14719.00
527.5820, 14782.00
528.7600, 15001.00
529.9390, 15007.00
531.1180, 14933.00
532.2960, 15089.00
533.4740, 15126.00
534.6520, 15202.00
535.8300, 15207.00
537.0080, 15114.00
538.1850, 15212.00
539.3630, 15194.00
540.5400, 15151.00
541.7170, 15269.00
542.8940, 15308.00
544.0700, 15260.00
545.2470, 15258.25
546.4230, 15130.00
547.5990, 15109.00
548.7750, 14984.00
549.9510, 14865.00
551.1270, 14969.00
552.3020, 14826.00
553.4780, 14919.00
554.6530, 14995.00
555.8280, 14744.00
557.0030, 14943.00
558.1770, 15051.00
559.3520, 14989.00
560.5260, 14997.00
561.7000, 14990.00
562.8740, 14918.00
564.0480, 14669.00
565.2220, 14720.00
566.3950, 14577.00
567.5680, 14637.00
568.7420, 14527.00
569.9150, 14370.00
571.0870, 14419.00
572.2600, 14301.00
573.4320, 14102.00
574.6050, 14126.00
575.7770, 13820.00
576.9490, 13581.00
578.1210, 13575.00
579.2920, 13344.00
580.4640, 13370.00
581.6350, 13078.00
582.8060, 13062.00
583.9770, 13026.00
585.1480, 12972.00
586.3190, 13015.00
587.4890, 13164.00
588.6590, 13100.00
589.8290, 13071.00
590.9990, 13194.00
592.1690, 13177.00
593.3390, 13359.00
594.5080, 13475.00
595.6770, 13557.00
596.8470, 13544.00
598.0160, 13703.00
599.1840, 13813.00
600.3530, 14096.00
601.5210, 14215.00
602.6900, 14255.00
603.8580, 14442.00
605.0260, 14454.00
606.1930, 14619.00
607.3610, 14858.00
608.5280, 14993.00
609.6960, 15083.00
610.8630, 15323.00
612.0300, 15541.00
613.1970, 15648.00
614.3630, 15651.00
615.5300, 16047.00
616.6960, 16149.00
617.8620, 16460.00
619.0280, 16680.00
620.1940, 17170.00
621.3590, 17403.00
622.5250, 17777.00
623.6900, 17985.00
624.8550, 18632.00
626.0200, 18952.00
627.1850, 19616.00
628.3490, 20285.00
629.5140, 20975.00
630.6780, 21685.00
631.8420, 22427.00
633.0060, 23541.00
634.1700, 24597.00
635.3330, 25863.00
636.4970, 27112.30
637.6600, 28336.00
638.8230, 29863.00
639.9860, 31310.00
641.1490, 32880.00
642.3110, 34005.00
643.4740, 35361.00
644.6360, 36281.00
645.7980, 37287.62
646.9600, 38140.02
648.1220, 38892.00
649.2840, 39412.00
650.4450, 39859.00
651.6060, 40066.00
652.7670, 40168.25
653.9280, 39898.00
655.0890, 39893.00
656.2500, 39395.00
657.4100, 38864.00
658.5700, 38494.00
659.7300, 37834.00
660.8900, 37093.00
662.0500, 36473.00
663.2100, 35637.00
664.3690, 34868.00
665.5280, 33872.00
666.6880, 33237.00
667.8460, 32407.00
669.0050, 31725.00
670.1640, 30841.00
671.3220, 30113.00
672.4810, 29379.00
673.6390, 28863.85
674.7970, 28416.19
675.9540, 28061.00
677.1120, 27848.00
678.2690, 27624.00
679.4270, 27556.00
680.5840, 27146.00
681.7410, 26961.00
682.8980, 26974.00
684.0540, 26956.00
685.2110, 26737.00
686.3670, 26719.00
687.5230, 26530.00
688.6790, 26386.00
689.8350, 26266.00
690.9900, 25920.00
692.1460, 25521.00
693.3010, 25071.00
694.4560, 24594.00
695.6110, 23895.00
696.7660, 23226.00
697.9210, 22599.00
699.0750, 21712.00
700.2290, 21054.00
701.3840, 20395.00
702.5370, 19830.00
703.6910, 19186.00
704.8450, 18640.00
705.9980, 18148.68
707.1520, 17595.00
708.3050, 17282.00
709.4580, 16824.00
710.6110, 16514.00
711.7630, 16050.00
712.9160, 15837.00
714.0680, 15545.00
715.2200, 15348.52
716.3720, 15222.00
717.5240, 15053.00
718.6760, 14927.00
719.8270, 14747.00
720.9780, 14624.29
722.1300, 14452.00
723.2810, 14364.61
724.4310, 14213.00
725.5820, 14073.00
726.7330, 13996.00
727.8830, 13815.00
729.0330, 13928.00
730.1830, 14041.00
731.3330, 13738.00
732.4830, 13563.00
733.6320, 13643.00
734.7810, 13498.00
735.9310, 13529.00
737.0800, 13424.00
738.2290, 13472.00
739.3770, 13456.00
740.5260, 13332.00
741.6740, 13251.00
742.8220, 13318.00
743.9700, 13127.00
745.1180, 13292.00
746.2660, 13033.00
747.4130, 13007.00
748.5610, 12971.00
749.7080, 12913.00
750.8550, 12898.17
752.0020, 12826.89
753.1490, 12845.00
754.2950, 12718.00
755.4420, 12670.00
756.5880, 12659.22
757.7340, 12816.00
758.8800, 12700.00
760.0250, 12732.00
761.1710, 12782.00
762.3160, 12674.00
763.4620, 12501.00
764.6070, 12768.00
765.7520, 12627.00
766.8960, 12630.00
768.0410, 12741.00
769.1850, 12761.00
770.3300, 12736.00
771.4740, 12801.00
772.6180, 12687.00
773.7610, 12716.00
774.9050, 12773.00
776.0480, 12593.00
777.1920, 12794.00
778.3350, 12673.00
779.4780, 12714.00
780.6200, 12895.00
781.7630, 12834.00
782.9060, 12844.00
784.0480, 12701.00
785.1900, 12850.00
786.3320, 12769.00
787.4740, 12906.00
788.6150, 12733.00
789.7570, 12950.00
790.8980, 13031.00
792.0390, 12924.00
793.1800, 12978.00
794.3210, 13019.00
795.4620, 13056.00
796.6020, 13004.00
797.7420, 12974.00
798.8830, 13015.00
800.0230, 13029.00
801.1620, 13251.00
802.3020, 13141.00
803.4420, 13177.00
804.5810, 13273.00
805.7200, 13203.00
806.8590, 13108.00
807.9980, 13338.00
809.1370, 13116.00
810.2750, 13374.00
811.4140, 13350.00
812.5520, 13477.00
813.6900, 13523.00
814.8280, 13474.00
815.9650, 13496.00
817.1030, 13644.00
818.2400, 13690.00
819.3780, 13581.00
820.5150, 13606.00
821.6520, 13775.00
822.7880, 13777.00
823.9250, 13906.00
825.0610, 13973.00
826.1980, 13870.00
827.3340, 13963.00
828.4700, 14039.00
829.6050, 14029.00
830.7410, 14040.00
831.8760, 14227.00
833.0120, 14131.00
834.1470, 14212.00
835.2820, 14367.00
836.4160, 14325.00
837.5510, 14596.00
838.6860, 14659.00
839.8200, 14641.00
840.9540, 14619.00
842.0880, 14736.00
843.2220, 14886.00
844.3550, 14973.00
845.4890, 15099.00
846.6220, 15175.42
847.7550, 15279.11
848.8880, 15316.00
850.0210, 15445.00
851.1540, 15528.00
852.2860, 15556.00
853.4190, 15772.00
854.5510, 15674.00
855.6830, 15938.00
856.8150, 15865.00
857.9460, 16173.00
859.0780, 16278.00
860.2090, 16186.00
861.3410, 16386.00
862.4720, 16593.00
863.6020, 16667.00
864.7330, 16627.00
865.8640, 16824.00
866.9940, 16934.00
868.1240, 17061.00
869.2540, 17235.00
870.3840, 17387.00
871.5140, 17357.00
872.6440, 17728.00
873.7730, 17888.00
874.9020, 18235.00
876.0320, 18359.00
877.1600, 18456.00
878.2890, 18823.00
879.4180, 19087.00
880.5460, 19217.00
881.6750, 19481.00
882.8030, 19754.00
883.9310, 19809.00
885.0590, 19848.00
886.1860, 20046.00
887.3140, 20101.00
888.4410, 20083.00
889.5680, 20205.00
890.6950, 20288.00
891.8220, 20026.00
892.9490, 20032.00
894.0750, 19486.00
895.2020, 19389.00
896.3280, 19273.00
897.4540, 18890.00
898.5800, 18640.00
899.7050, 17981.00
900.8310, 17797.00
901.9560, 17493.00
903.0820, 17332.00
904.2070, 17136.00
905.3320, 16856.82
906.4560, 16638.00
907.5810, 16353.00
908.7050, 16162.00
909.8300, 15948.00
910.9540, 15839.00
912.0780, 15606.00
913.2010, 15488.00
914.3250, 15267.00
915.4480, 15043.00
916.5720, 14948.00
917.6950, 14839.07
918.8180, 14724.77
919.9410, 14779.00
921.0630, 14574.00
922.1860, 14606.00
923.3080, 14555.00
924.4300, 14491.00
925.5520, 14308.00
926.6740, 14269.00
927.7960, 14108.00
928.9170, 14239.00
930.0390, 14220.00
931.1600, 14035.00
932.2810, 14022.00
933.4020, 13953.00
934.5230, 14003.00
935.6430, 13950.00
936.7640, 13852.00
937.8840, 13825.00
939.0040, 13783.24
940.1240, 13896.00
941.2440, 13761.00
942.3630, 13912.00
943.4830, 13968.00
944.6020, 13793.00
945.7210, 13836.00
946.8400, 13682.00
947.9590, 13724.00
949.0770, 13669.00
950.1960, 13689.00
951.3140, 13668.00
952.4320, 13634.00
953.5500, 13717.00
954.6680, 13789.00
955.7860, 13540.00
956.9030, 13536.00
958.0210, 13405.00
959.1380, 13272.00
960.2550, 13549.00
961.3720, 13442.00
962.4890, 13475.00
963.6050, 13481.00
964.7220, 13515.00
965.8380, 13533.00
966.9540, 13537.00
968.0700, 13564.00
969.1860, 13567.00
970.3010, 13539.00
971.4170, 13539.00
972.5320, 13585.00
973.6470, 13537.41
974.7620, 13534.00
975.8770, 13502.00
976.9910, 13461.00
978.1060, 13483.00
979.2200, 13535.00
980.3340, 13532.00
981.4480, 13529.00
982.5620, 13577.00
983.6760, 13579.00
984.7890, 13581.00
985.9030, 13532.00
987.0160, 13510.21
988.1290, 13436.00
989.2420, 13414.00
990.3550, 13419.00
991.4670, 13356.00
992.5800, 13456.00
993.6920, 13286.00
994.8040, 13286.00
995.9160, 13236.00
997.0280, 13120.00
998.1390, 13125.00
999.2510, 13281.00
1000.362, 13193.00
1001.473, 13156.00
1002.584, 13114.00
1003.695, 13080.00
1004.805, 13099.00
1005.916, 13187.00
1007.026, 13060.00
1008.136, 13189.00
1009.246, 13096.00
1010.356, 13076.00
1011.466, 13135.00
1012.576, 13006.00
1013.685, 13088.00
1014.794, 13060.00
1015.903, 13261.00
1017.012, 13034.00
1018.121, 13218.00
1019.229, 13015.00
1020.338, 13191.00
1021.446, 13188.00
1022.554, 13251.00
1023.662, 13213.00
1024.770, 13318.00
1025.878, 13284.00
1026.985, 13218.00
1028.092, 13368.00
1029.200, 13117.00
1030.307, 13279.00
1031.413, 13287.00
1032.520, 13304.00
1033.627, 13209.00
1034.733, 13377.00
1035.839, 13429.00
1036.945, 13338.00
1038.051, 13332.00
1039.157, 13420.00
1040.262, 13305.00
1041.368, 13418.00
1042.473, 13349.00
1043.578, 13306.00
1044.683, 13368.00
1045.788, 13455.00
1046.893, 13394.00
1047.997, 13465.39
1049.101, 13378.00
1050.205, 13494.84
1051.309, 13469.00
1052.413, 13444.23
1053.517, 13520.00
1054.621, 13319.00
1055.724, 13112.00
1056.827, 13181.00
1057.930, 13097.00
1059.033, 13075.00
1060.136, 13145.00
1061.238, 13166.00
1062.341, 13116.00
1063.443, 13146.00
1064.545, 13125.00
1065.647, 12984.00
1066.749, 13001.00
1067.850, 12856.00
1068.952, 12850.28
1070.053, 12919.00
1071.154, 12832.00
1072.255, 12879.00
1073.356, 12904.00
1074.457, 12804.00
1075.557, 12736.00
1076.658, 12841.00
1077.758, 12744.00
1078.858, 12831.00
1079.958, 12627.00
1081.057, 12727.00
1082.157, 12617.00
1083.256, 12656.00
1084.356, 12790.00
1085.455, 12770.00
1086.554, 12736.00
1087.653, 12778.62
1088.751, 12680.00
1089.850, 12768.00
1090.948, 12744.00
1092.046, 12740.00
1093.144, 12718.00
1094.242, 12739.00
1095.340, 12738.32
1096.437, 12782.00
1097.534, 12741.00
1098.632, 12753.00
1099.729, 12709.00
1100.826, 12667.00
1101.922, 12725.00
1103.019, 12681.00
1104.115, 12611.00
1105.212, 12701.00
1106.308, 12757.00
1107.404, 12774.00
1108.499, 12684.00
1109.595, 12734.53
1110.691, 12705.00
1111.786, 12755.00
1112.881, 12772.00
1113.976, 12818.00
1115.071, 12748.00
1116.166, 12760.00
1117.260, 12867.00
1118.355, 12772.00
1119.449, 12702.00
1120.543, 12789.00
1121.637, 12693.00
1122.731, 12687.00
1123.824, 12649.00
1124.918, 12757.00
1126.011, 12626.00
1127.104, 12719.91
1128.197, 12696.98
1129.290, 12788.00
1130.382, 12703.00
1131.475, 12647.00
1132.567, 12683.00
1133.659, 12753.00
1134.751, 12768.00
1135.843, 12791.74
1136.935, 12783.32
1138.027, 12784.00
1139.118, 12751.00
1140.209, 12689.00
1141.300, 12714.00
1142.391, 12678.66
1143.482, 12651.21
1144.573, 12647.00
1145.663, 12593.00
1146.754, 12546.00
1147.844, 12508.00
1148.934, 12519.60
1150.024, 12715.00
1151.113, 12591.00
1152.203, 12665.00
1153.292, 12752.00
1154.381, 12638.00
1155.470, 12575.00
1156.559, 12617.00
1157.648, 12749.00
1158.737, 12710.00
1159.825, 12652.00
1160.913, 12774.00
1162.001, 12694.00
1163.089, 12825.00
1164.177, 12747.00
1165.265, 12711.00
1166.352, 12740.00
1167.440, 12823.00
1168.527, 12793.00
1169.614, 13083.00
1170.701, 12957.68
1171.788, 13054.00
1172.874, 12875.00
1173.961, 12983.00
1175.047, 13021.00
1176.133, 13051.00
1177.219, 13067.28
1178.305, 13069.00
1179.390, 13067.00
1180.476, 12961.00
1181.561, 13007.00
1182.646, 12974.00
1183.731, 13127.00
1184.816, 13115.00
1185.901, 13280.00
1186.985, 13131.00
1188.070, 13258.00
1189.154, 13078.00
1190.238, 13337.00
1191.322, 13162.00
1192.406, 13246.00
1193.489, 13234.00
1194.573, 13199.60
1195.656, 13172.00
1196.739, 13242.00
1197.822, 13387.00
1198.905, 13505.00
1199.988, 13451.00
1201.070, 13522.14
1202.153, 13234.00
1203.235, 13459.00
1204.317, 13439.00
1205.399, 13303.00
1206.481, 13410.00
1207.562, 13461.00
1208.644, 13570.00
1209.725, 13546.12
1210.806, 13552.00
1211.887, 13473.00
1212.968, 13493.00
1214.049, 13435.00
1215.129, 13457.00
1216.209, 13440.00
1217.290, 13542.00
1218.370, 13570.00
1219.450, 13457.00
1220.529, 13602.00
1221.609, 13585.00
1222.688, 13463.00
1223.768, 13427.00
1224.847, 13248.00
1225.926, 13455.00
1227.005, 13438.00
1228.083, 13516.00
1229.162, 13417.00
1230.240, 13444.00
1231.318, 13403.00
1232.396, 13453.00
1233.474, 13532.00
1234.552, 13555.00
1235.629, 13550.61
1236.707, 13373.00
1237.784, 13511.00
1238.861, 13394.00
1239.938, 13393.00
1241.015, 13496.00
1242.092, 13393.00
1243.168, 13393.00
1244.244, 13290.00
1245.321, 13350.19
1246.397, 13434.00
1247.473, 13484.00
1248.548, 13344.00
1249.624, 13406.00
1250.699, 13351.00
1251.775, 13393.00
1252.850, 13460.00
1253.925, 13444.00
1254.999, 13477.94
1256.074, 13462.00
1257.148, 13494.00
1258.223, 13492.00
1259.297, 13502.00
1260.371, 13526.59
1261.445, 13485.00
1262.519, 13564.00
1263.592, 13590.00
1264.666, 13599.00
1265.739, 13553.00
1266.812, 13593.54
1267.885, 13512.00
1268.958, 13609.79
1270.030, 13669.00
1271.103, 13636.00
1272.175, 13715.00
1273.247, 13889.00
1274.319, 13827.00
1275.391, 13718.00
1276.463, 13957.00
1277.535, 13972.41
1278.606, 14034.61
1279.677, 14214.00
1280.748, 14178.00
1281.819, 14183.00
1282.890, 14243.00
1283.961, 14425.00
1285.031, 14420.00
1286.102, 14461.00
1287.172, 14488.00
1288.242, 14560.00
1289.312, 14666.00
1290.381, 14599.00
1291.451, 14736.00
1292.520, 14774.00
1293.590, 14787.00
1294.659, 14867.00
1295.728, 14937.00
1296.797, 14835.00
1297.865, 14816.00
1298.934, 14966.00
1300.002, 15053.00
1301.070, 15208.00
1302.138, 15078.00
1303.206, 15209.00
1304.274, 15097.00
1305.341, 15247.00
1306.409, 15239.00
1307.476, 15279.00
1308.543, 15185.00
1309.610, 15233.00
1310.677, 15234.00
1311.744, 15236.00
1312.810, 15260.00
1313.877, 15186.00
1314.943, 15332.00
1316.009, 15174.00
1317.075, 15285.00
1318.140, 15502.00
1319.206, 15372.00
1320.272, 15212.00
1321.337, 15318.00
1322.402, 15130.00
1323.467, 15207.00
1324.532, 15166.00
1325.596, 15241.00
1326.661, 15229.00
1327.725, 15072.65
1328.790, 15150.78
1329.854, 15191.28
1330.918, 15195.92
1331.981, 15071.69
1333.045, 15102.89
1334.108, 15065.10
1335.172, 15019.87
1336.235, 15059.28
1337.298, 14929.16
1338.361, 14957.58
1339.423, 14916.06
1340.486, 14899.55
1341.548, 14813.69
1342.611, 14742.96
1343.673, 14993.00
1344.735, 14733.00
1345.796, 14797.00
1346.858, 14723.00
1347.919, 14736.00
1348.981, 14667.00
1350.042, 14792.00
1351.103, 14628.00
1352.164, 14465.00
1353.225, 14378.00
1354.285, 14496.00
1355.346, 14470.00
1356.406, 14588.00
1357.466, 14387.00
1358.526, 14335.00
1359.586, 14306.00
1360.645, 14306.00
1361.705, 14269.00
1362.764, 14249.00
1363.823, 14134.00
1364.882, 14057.00
1365.941, 14065.00
1367.000, 14041.00
1368.059, 14076.57
1369.117, 14040.00
1370.175, 14100.00
1371.233, 14002.00
1372.291, 13813.00
1373.349, 13847.00
1374.407, 13789.00
1375.464, 13766.00
1376.522, 13770.00
1377.579, 13729.00
1378.636, 13745.00
1379.693, 13686.24
1380.750, 13596.00
1381.806, 13565.00
1382.863, 13677.00
1383.919, 13606.00
1384.975, 13583.49
1386.031, 13635.00
1387.087, 13444.00
1388.143, 13471.00
1389.199, 13365.00
1390.254, 13271.00
1391.309, 13122.00
1392.364, 13214.00
1393.419, 13209.00
1394.474, 13198.00
1395.529, 13185.00
1396.583, 13101.00
1397.638, 13015.00
1398.692, 12981.68
1399.746, 13023.00
1400.800, 12905.00
1401.853, 12982.00
1402.907, 13010.00
1403.960, 12856.00
1405.014, 12901.00
1406.067, 12961.00
1407.120, 12892.00
1408.173, 12910.00
1409.225, 12854.00
1410.278, 12887.00
1411.330, 12847.00
1412.383, 12788.00
1413.435, 12704.00
1414.487, 12856.00
1415.538, 12814.00
1416.590, 12600.00
1417.641, 12786.00
1418.693, 12676.00
1419.744, 12682.00
1420.795, 12809.00
1421.846, 12717.00
1422.897, 12862.00
1423.947, 12662.00
1424.998, 12741.00
1426.048, 12758.00
1427.098, 12677.00
1428.148, 12641.00
1429.198, 12568.00
1430.247, 12672.00
1431.297, 12741.00
1432.346, 12663.00
1433.396, 12610.00
1434.445, 12654.00
1435.494, 12553.00
1436.542, 12679.00
1437.591, 12574.00
1438.639, 12628.00
1439.688, 12637.00
1440.736, 12813.00
1441.784, 12711.00
1442.832, 12792.00
1443.880, 12734.00
1444.927, 12684.00
1445.975, 12644.00
1447.022, 12691.00
1448.069, 12630.00
1449.116, 12514.00
1450.163, 12619.00
1451.209, 12709.00
1452.256, 12628.00
1453.302, 12790.00
1454.348, 12598.00
1455.394, 12622.00
1456.440, 12566.00
1457.486, 12724.00
1458.532, 12514.00
1459.577, 12708.00
1460.623, 12734.00
1461.668, 12725.00
1462.713, 12768.43
1463.758, 12674.00
1464.802, 12747.00
1465.847, 12733.00
1466.891, 12777.00
1467.936, 12721.00
1468.980, 12751.00
1470.024, 12704.00
1471.067, 12681.00
1472.111, 12778.00
1473.155, 12829.00
1474.198, 12741.00
1475.241, 12679.00
1476.284, 12799.00
1477.327, 12872.00
1478.370, 12763.00
1479.413, 12888.00
1480.455, 12932.00
1481.497, 12828.00
1482.540, 12795.00
1483.582, 12874.00
1484.624, 12917.00
1485.665, 12999.00
1486.707, 12991.63
1487.748, 12949.00
1488.790, 12990.00
1489.831, 12918.00
1490.872, 12957.00
1491.912, 13083.00
1492.953, 13035.00
1493.994, 13097.00
1495.034, 13091.00
1496.074, 12812.00
1497.114, 12922.00
1498.154, 12944.00
1499.194, 13196.00
1500.234, 13151.00
1501.273, 13152.00
1502.313, 13050.00
1503.352, 13181.00
1504.391, 13127.00
1505.430, 13219.00
1506.468, 13293.00
1507.507, 13253.00
1508.545, 13176.00
1509.584, 13297.00
1510.622, 13344.00
1511.660, 13266.00
1512.698, 13295.00
1513.735, 13443.00
1514.773, 13229.00
1515.810, 13262.00
1516.848, 13555.00
1517.885, 13435.00
1518.922, 13420.00
1519.958, 13527.00
1520.995, 13589.00
1522.032, 13546.00
1523.068, 13581.00
1524.104, 13508.00
1525.140, 13621.00
1526.176, 13678.00
1527.212, 13623.00
1528.248, 13705.00
1529.283, 13886.00
1530.318, 13755.00
1531.353, 13906.00
1532.389, 13751.00
1533.423, 13775.00
1534.458, 13786.00
1535.493, 13870.00
1536.527, 13812.00
1537.561, 13964.00
1538.596, 13809.00
1539.630, 13877.00
1540.663, 13821.00
1541.697, 14044.00
1542.731, 13903.00
1543.764, 14064.00
1544.797, 13990.00
1545.830, 14045.00
1546.863, 14031.00
1547.896, 14113.00
1548.929, 14118.74
##END=



