##NAMES=Aenigmatite
##RRUFFID=R061088
##IDEAL CHEMISTRY=Na_4_(Fe^2+^_10_Ti^4+^_2_)O_4_[Si_12_O_36_]
##LOCALITY=Naujakasik, Greenland
##OWNER=RRUFF
##SOURCE=Michael Scott
##DESCRIPTION=Black prismatic crystals
##STATUS=The identification of this mineral has been confirmed by X-ray diffraction and chemical analysis
##URL=rruff.info/R061088
##MEASURED CHEMISTRY=(Na_1.72_Ca_0.28_)_Σ=2_(Fe^2+^_4.90_Mn_0.08_Mg_0.02_)_Σ=5_(Ti_0.85_Al_0.14_Fe^3+^_0.01_)_Σ=1_(Si_5.87_Al_0.13_)_Σ=6_O_20_
##PIN_ID=L01545
##ORIENTATION=Laser parallel to (1 1 0). Fiducial mark perpendicular to laser is parallel to c [0 0 1]
140.2950, 10013.00
141.5290, 9917.000
142.7640, 9835.000
143.9980, 9810.000
145.2320, 9903.000
146.4650, 10003.00
147.6990, 9980.000
148.9320, 10118.00
150.1650, 10105.00
151.3980, 10295.00
152.6310, 10435.00
153.8640, 10296.00
155.0960, 10327.00
156.3280, 10298.00
157.5600, 10262.00
158.7920, 10279.00
160.0240, 10357.00
161.2560, 10277.00
162.4870, 10460.00
163.7180, 10596.00
164.9490, 10702.00
166.1800, 10607.00
167.4110, 10625.00
168.6410, 10473.00
169.8720, 10545.00
171.1020, 10412.00
172.3320, 10303.00
173.5620, 10139.00
174.7910, 9849.000
176.0210, 9912.000
177.2500, 9699.000
178.4790, 9642.000
179.7080, 9600.000
180.9370, 9478.000
182.1650, 9432.000
183.3940, 9483.000
184.6220, 9490.000
185.8500, 9511.000
187.0780, 9592.000
188.3050, 9675.000
189.5330, 9484.000
190.7600, 9658.000
191.9870, 9693.000
193.2140, 9658.000
194.4410, 9826.000
195.6680, 9793.000
196.8940, 9664.000
198.1200, 9830.000
199.3470, 9856.000
200.5720, 9986.000
201.7980, 9836.000
203.0240, 9872.000
204.2490, 9662.000
205.4740, 9474.000
206.6990, 9468.000
207.9240, 9466.000
209.1490, 9385.000
210.3740, 9424.000
211.5980, 9448.000
212.8220, 9487.000
214.0460, 9502.086
215.2700, 9532.596
216.4930, 9524.000
217.7170, 9601.000
218.9400, 9602.000
220.1630, 9671.000
221.3860, 9649.749
222.6090, 9644.834
223.8320, 9581.000
225.0540, 9590.000
226.2760, 9515.000
227.4980, 9473.000
228.7200, 9464.000
229.9420, 9359.000
231.1630, 9425.000
232.3850, 9417.000
233.6060, 9409.000
234.8270, 9503.000
236.0480, 9441.000
237.2690, 9442.000
238.4890, 9505.000
239.7090, 9547.000
240.9290, 9443.000
242.1490, 9461.000
243.3690, 9465.409
244.5890, 9466.311
245.8080, 9501.000
247.0270, 9558.000
248.2470, 9593.000
249.4650, 9688.000
250.6840, 9648.000
251.9030, 9777.000
253.1210, 9597.000
254.3390, 9552.000
255.5570, 9742.000
256.7750, 9745.000
257.9930, 9823.000
259.2100, 9899.457
260.4280, 9829.492
261.6450, 9938.000
262.8620, 9733.000
264.0790, 9594.000
265.2950, 9608.000
266.5120, 9470.000
267.7280, 9531.000
268.9440, 9514.000
270.1600, 9553.000
271.3760, 9546.981
272.5920, 9558.759
273.8070, 9539.000
275.0220, 9549.000
276.2370, 9572.000
277.4520, 9503.000
278.6670, 9587.000
279.8820, 9564.000
281.0960, 9517.000
282.3100, 9681.000
283.5240, 9576.000
284.7380, 9708.000
285.9520, 9701.000
287.1650, 9605.000
288.3780, 9824.000
289.5920, 9665.000
290.8050, 9844.000
292.0170, 9901.000
293.2300, 9861.000
294.4430, 9831.000
295.6550, 9915.000
296.8670, 9876.000
298.0790, 10047.00
299.2910, 10097.00
300.5020, 10145.00
301.7140, 10305.00
302.9250, 10174.00
304.1360, 10135.00
305.3470, 10253.00
306.5580, 10403.00
307.7680, 10335.00
308.9780, 10485.00
310.1890, 10485.00
311.3990, 10567.00
312.6090, 10462.00
313.8180, 10386.00
315.0280, 10261.00
316.2370, 10347.00
317.4460, 10298.00
318.6550, 10185.00
319.8640, 10142.00
321.0730, 10043.00
322.2810, 10046.00
323.4890, 10043.00
324.6980, 9940.000
325.9060, 9795.000
327.1130, 9765.000
328.3210, 9727.000
329.5280, 9703.000
330.7360, 9641.003
331.9430, 9628.778
333.1500, 9544.000
334.3560, 9582.000
335.5630, 9602.000
336.7690, 9568.000
337.9760, 9498.000
339.1820, 9432.000
340.3870, 9499.000
341.5930, 9533.000
342.7990, 9473.000
344.0040, 9428.000
345.2090, 9352.000
346.4140, 9540.000
347.6190, 9518.000
348.8240, 9676.000
350.0280, 9613.000
351.2330, 9609.000
352.4370, 9669.000
353.6410, 9753.000
354.8440, 9705.000
356.0480, 9730.000
357.2520, 9879.000
358.4550, 10071.00
359.6580, 10061.00
360.8610, 10129.74
362.0640, 10016.00
363.2660, 10055.00
364.4690, 10217.00
365.6710, 10065.00
366.8730, 10184.00
368.0750, 10048.00
369.2770, 9949.000
370.4780, 10019.00
371.6800, 9965.000
372.8810, 9918.000
374.0820, 9938.000
375.2830, 9966.000
376.4830, 10018.00
377.6840, 9866.000
378.8840, 9832.000
380.0840, 9775.000
381.2840, 9912.000
382.4840, 9817.000
383.6840, 9758.000
384.8830, 9823.000
386.0830, 9706.000
387.2820, 9624.000
388.4810, 9657.000
389.6800, 9725.000
390.8780, 9715.000
392.0770, 9743.000
393.2750, 9677.000
394.4730, 9745.000
395.6710, 9789.000
396.8690, 9594.000
398.0660, 9790.000
399.2640, 9652.000
400.4610, 9634.000
401.6580, 9655.000
402.8550, 9575.000
404.0520, 9656.000
405.2490, 9709.000
406.4450, 9682.000
407.6410, 9655.000
408.8370, 9677.000
410.0330, 9760.000
411.2290, 9714.000
412.4240, 9687.000
413.6200, 9856.000
414.8150, 9723.000
416.0100, 9737.000
417.2050, 9819.000
418.4000, 9803.000
419.5940, 10018.00
420.7880, 9949.000
421.9830, 10016.00
423.1770, 9951.000
424.3700, 10209.00
425.5640, 10180.00
426.7580, 10334.00
427.9510, 10169.00
429.1440, 10270.00
430.3370, 10345.00
431.5300, 10357.00
432.7220, 10467.00
433.9150, 10467.07
435.1070, 10404.00
436.2990, 10491.00
437.4910, 10529.00
438.6830, 10535.00
439.8750, 10585.00
441.0660, 10598.03
442.2570, 10556.42
443.4480, 10623.00
444.6390, 10473.00
445.8300, 10441.00
447.0210, 10446.00
448.2110, 10315.00
449.4010, 10353.00
450.5910, 10254.00
451.7810, 10153.00
452.9710, 10144.00
454.1610, 10167.00
455.3500, 10150.00
456.5390, 10082.00
457.7280, 10079.00
458.9170, 10046.05
460.1060, 10103.00
461.2940, 10022.00
462.4830, 9996.000
463.6710, 10024.00
464.8590, 9934.000
466.0470, 9943.000
467.2350, 9829.000
468.4220, 9948.000
469.6090, 9974.000
470.7970, 9984.000
471.9840, 9915.000
473.1700, 9928.000
474.3570, 9955.000
475.5440, 10031.00
476.7300, 9976.000
477.9160, 9967.000
479.1020, 10113.00
480.2880, 10051.00
481.4740, 10070.00
482.6590, 10155.00
483.8440, 10242.00
485.0300, 10172.00
486.2140, 10199.00
487.3990, 10149.00
488.5840, 10190.00
489.7680, 10327.00
490.9530, 10262.00
492.1370, 10398.00
493.3210, 10433.00
494.5040, 10403.00
495.6880, 10347.00
496.8720, 10300.00
498.0550, 10319.00
499.2380, 10454.00
500.4210, 10447.00
501.6040, 10419.00
502.7860, 10406.00
503.9690, 10437.00
505.1510, 10452.00
506.3330, 10449.00
507.5150, 10576.00
508.6970, 10544.00
509.8780, 10525.00
511.0600, 10580.00
512.2410, 10495.00
513.4220, 10575.58
514.6030, 10801.00
515.7840, 10665.00
516.9640, 10811.00
518.1440, 10812.00
519.3250, 10833.00
520.5050, 10994.00
521.6850, 10915.00
522.8640, 11082.00
524.0440, 11063.00
525.2230, 11055.00
526.4020, 11136.00
527.5820, 11156.46
528.7600, 11211.00
529.9390, 11256.00
531.1180, 11304.00
532.2960, 11306.00
533.4740, 11383.00
534.6520, 11402.63
535.8300, 11511.00
537.0080, 11459.00
538.1850, 11410.00
539.3630, 11405.00
540.5400, 11494.00
541.7170, 11438.00
542.8940, 11468.00
544.0700, 11558.00
545.2470, 11452.00
546.4230, 11468.00
547.5990, 11336.00
548.7750, 11299.00
549.9510, 11295.00
551.1270, 11346.00
552.3020, 11296.00
553.4780, 11377.00
554.6530, 11479.00
555.8280, 11367.00
557.0030, 11373.00
558.1770, 11274.00
559.3520, 11438.00
560.5260, 11416.00
561.7000, 11356.00
562.8740, 11406.00
564.0480, 11300.00
565.2220, 11330.00
566.3950, 11228.00
567.5680, 11324.00
568.7420, 11337.00
569.9150, 11141.00
571.0870, 11206.00
572.2600, 11141.00
573.4320, 11055.00
574.6050, 10958.00
575.7770, 11004.00
576.9490, 10875.49
578.1210, 10800.00
579.2920, 10679.00
580.4640, 10613.75
581.6350, 10632.00
582.8060, 10490.00
583.9770, 10540.00
585.1480, 10493.00
586.3190, 10525.00
587.4890, 10509.22
588.6590, 10495.40
589.8290, 10500.00
590.9990, 10490.00
592.1690, 10530.00
593.3390, 10567.00
594.5080, 10598.37
595.6770, 10692.00
596.8470, 10703.00
598.0160, 10748.00
599.1840, 10828.00
600.3530, 10827.00
601.5210, 10904.78
602.6900, 11022.00
603.8580, 11034.00
605.0260, 11060.00
606.1930, 11145.00
607.3610, 11303.00
608.5280, 11427.00
609.6960, 11498.00
610.8630, 11498.00
612.0300, 11610.00
613.1970, 11518.79
614.3630, 11672.71
615.5300, 11790.60
616.6960, 11874.69
617.8620, 11801.84
619.0280, 11948.55
620.1940, 12017.61
621.3590, 12090.47
622.5250, 12289.17
623.6900, 12277.00
624.8550, 12488.46
626.0200, 12620.96
627.1850, 12800.34
628.3490, 12901.39
629.5140, 13036.36
630.6780, 13264.14
631.8420, 13472.00
633.0060, 13865.00
634.1700, 14053.00
635.3330, 14531.00
636.4970, 14717.00
637.6600, 15363.00
638.8230, 15762.00
639.9860, 16209.00
641.1490, 16914.00
642.3110, 17300.00
643.4740, 17794.00
644.6360, 18419.00
645.7980, 18909.00
646.9600, 19247.00
648.1220, 19599.00
649.2840, 20022.00
650.4450, 20299.00
651.6060, 20457.00
652.7670, 20668.00
653.9280, 20790.00
655.0890, 20856.00
656.2500, 20626.00
657.4100, 20517.00
658.5700, 20448.00
659.7300, 20311.00
660.8900, 20300.00
662.0500, 20052.00
663.2100, 19927.00
664.3690, 19669.00
665.5280, 19573.00
666.6880, 19254.00
667.8460, 18942.00
669.0050, 18668.00
670.1640, 18142.00
671.3220, 18318.00
672.4810, 17810.00
673.6390, 17704.00
674.7970, 17587.00
675.9540, 17492.00
677.1120, 17282.00
678.2690, 17253.00
679.4270, 17120.00
680.5840, 16745.00
681.7410, 16660.00
682.8980, 16666.00
684.0540, 16684.00
685.2110, 16563.00
686.3670, 16529.00
687.5230, 16534.00
688.6790, 16445.00
689.8350, 16383.00
690.9900, 16180.00
692.1460, 16134.00
693.3010, 15855.00
694.4560, 15676.64
695.6110, 15583.00
696.7660, 15197.00
697.9210, 15065.00
699.0750, 14787.00
700.2290, 14574.00
701.3840, 14237.00
702.5370, 13959.00
703.6910, 13619.00
704.8450, 13374.00
705.9980, 13119.00
707.1520, 12804.00
708.3050, 12817.00
709.4580, 12573.00
710.6110, 12288.00
711.7630, 12222.00
712.9160, 12008.00
714.0680, 11936.00
715.2200, 11699.00
716.3720, 11597.45
717.5240, 11546.00
718.6760, 11398.00
719.8270, 11411.00
720.9780, 11405.00
722.1300, 11279.00
723.2810, 11222.00
724.4310, 11221.00
725.5820, 11127.00
726.7330, 11129.00
727.8830, 10970.00
729.0330, 11003.00
730.1830, 10884.00
731.3330, 10949.00
732.4830, 10899.00
733.6320, 10885.00
734.7810, 10970.00
735.9310, 10804.00
737.0800, 10983.00
738.2290, 10870.04
739.3770, 10858.00
740.5260, 10755.00
741.6740, 10791.00
742.8220, 10762.00
743.9700, 10691.00
745.1180, 10683.00
746.2660, 10566.00
747.4130, 10593.00
748.5610, 10425.00
749.7080, 10446.00
750.8550, 10381.00
752.0020, 10527.00
753.1490, 10492.00
754.2950, 10464.00
755.4420, 10464.00
756.5880, 10441.23
757.7340, 10402.00
758.8800, 10442.00
760.0250, 10464.00
761.1710, 10509.00
762.3160, 10345.00
763.4620, 10337.00
764.6070, 10322.00
765.7520, 10397.00
766.8960, 10444.00
768.0410, 10469.00
769.1850, 10487.15
770.3300, 10488.51
771.4740, 10480.00
772.6180, 10455.00
773.7610, 10447.00
774.9050, 10408.00
776.0480, 10474.00
777.1920, 10466.00
778.3350, 10409.00
779.4780, 10414.00
780.6200, 10515.00
781.7630, 10505.00
782.9060, 10548.00
784.0480, 10382.00
785.1900, 10527.00
786.3320, 10434.00
787.4740, 10493.00
788.6150, 10417.00
789.7570, 10467.00
790.8980, 10544.00
792.0390, 10510.00
793.1800, 10600.00
794.3210, 10542.00
795.4620, 10558.00
796.6020, 10578.00
797.7420, 10593.00
798.8830, 10618.00
800.0230, 10557.00
801.1620, 10658.00
802.3020, 10689.00
803.4420, 10576.00
804.5810, 10665.00
805.7200, 10639.00
806.8590, 10546.00
807.9980, 10703.00
809.1370, 10653.00
810.2750, 10829.00
811.4140, 10813.00
812.5520, 10786.00
813.6900, 10883.00
814.8280, 10792.00
815.9650, 10894.00
817.1030, 10803.00
818.2400, 10855.00
819.3780, 10761.00
820.5150, 10776.00
821.6520, 10897.00
822.7880, 11002.00
823.9250, 11044.00
825.0610, 11014.00
826.1980, 10973.00
827.3340, 10949.00
828.4700, 11037.00
829.6050, 11014.00
830.7410, 11062.00
831.8760, 11016.00
833.0120, 11040.00
834.1470, 11071.00
835.2820, 11228.00
836.4160, 11095.00
837.5510, 11356.00
838.6860, 11325.00
839.8200, 11415.00
840.9540, 11421.00
842.0880, 11423.00
843.2220, 11414.00
844.3550, 11421.00
845.4890, 11445.54
846.6220, 11442.00
847.7550, 11535.00
848.8880, 11562.00
850.0210, 11665.00
851.1540, 11591.00
852.2860, 11681.00
853.4190, 11690.00
854.5510, 11580.00
855.6830, 11799.00
856.8150, 11862.00
857.9460, 12002.00
859.0780, 11850.00
860.2090, 11970.00
861.3410, 11972.00
862.4720, 11968.00
863.6020, 11961.00
864.7330, 12241.00
865.8640, 12127.00
866.9940, 12259.00
868.1240, 12273.00
869.2540, 12247.00
870.3840, 12217.00
871.5140, 12455.00
872.6440, 12549.00
873.7730, 12614.00
874.9020, 12666.00
876.0320, 12630.00
877.1600, 12818.00
878.2890, 12642.00
879.4180, 12898.00
880.5460, 12976.00
881.6750, 13148.00
882.8030, 13199.00
883.9310, 13167.00
885.0590, 13320.00
886.1860, 13333.00
887.3140, 13340.00
888.4410, 13401.00
889.5680, 13371.00
890.6950, 13593.00
891.8220, 13699.00
892.9490, 13571.63
894.0750, 13540.15
895.2020, 13486.86
896.3280, 13413.08
897.4540, 13257.15
898.5800, 13207.29
899.7050, 13115.00
900.8310, 13020.89
901.9560, 12986.04
903.0820, 12820.00
904.2070, 12716.00
905.3320, 12564.00
906.4560, 12511.00
907.5810, 12433.00
908.7050, 12259.00
909.8300, 12311.00
910.9540, 12163.00
912.0780, 12003.00
913.2010, 12017.00
914.3250, 11962.00
915.4480, 12061.00
916.5720, 11950.00
917.6950, 11948.00
918.8180, 11763.00
919.9410, 11792.00
921.0630, 11790.00
922.1860, 11735.00
923.3080, 11790.00
924.4300, 11680.00
925.5520, 11637.00
926.6740, 11598.00
927.7960, 11595.00
928.9170, 11533.00
930.0390, 11638.00
931.1600, 11525.00
932.2810, 11612.00
933.4020, 11550.00
934.5230, 11630.00
935.6430, 11514.38
936.7640, 11472.99
937.8840, 11319.00
939.0040, 11356.00
940.1240, 11365.00
941.2440, 11414.00
942.3630, 11330.00
943.4830, 11345.00
944.6020, 11540.00
945.7210, 11359.00
946.8400, 11531.00
947.9590, 11476.00
949.0770, 11476.00
950.1960, 11682.00
951.3140, 11629.00
952.4320, 11685.00
953.5500, 11604.00
954.6680, 11696.00
955.7860, 11610.00
956.9030, 11572.00
958.0210, 11467.00
959.1380, 11448.00
960.2550, 11509.00
961.3720, 11558.00
962.4890, 11541.23
963.6050, 11685.00
964.7220, 11528.00
965.8380, 11609.00
966.9540, 11600.00
968.0700, 11536.00
969.1860, 11452.00
970.3010, 11601.00
971.4170, 11523.00
972.5320, 11496.00
973.6470, 11559.00
974.7620, 11560.00
975.8770, 11519.00
976.9910, 11552.00
978.1060, 11534.00
979.2200, 11593.00
980.3340, 11564.00
981.4480, 11527.00
982.5620, 11547.00
983.6760, 11484.00
984.7890, 11511.00
985.9030, 11337.00
987.0160, 11524.00
988.1290, 11579.00
989.2420, 11381.00
990.3550, 11525.00
991.4670, 11563.00
992.5800, 11424.00
993.6920, 11453.00
994.8040, 11461.00
995.9160, 11296.00
997.0280, 11388.00
998.1390, 11431.00
999.2510, 11246.00
1000.362, 11309.00
1001.473, 11354.00
1002.584, 11206.00
1003.695, 11259.00
1004.805, 11226.00
1005.916, 11313.00
1007.026, 11215.00
1008.136, 11314.00
1009.246, 11209.00
1010.356, 11277.00
1011.466, 11345.00
1012.576, 11221.00
1013.685, 11444.00
1014.794, 11299.00
1015.903, 11187.00
1017.012, 11294.00
1018.121, 11295.61
1019.229, 11270.99
1020.338, 11306.03
1021.446, 11277.00
1022.554, 11293.00
1023.662, 11342.00
1024.770, 11336.00
1025.878, 11378.00
1026.985, 11473.00
1028.092, 11288.00
1029.200, 11512.00
1030.307, 11454.00
1031.413, 11395.00
1032.520, 11500.00
1033.627, 11621.00
1034.733, 11548.69
1035.839, 11511.00
1036.945, 11433.00
1038.051, 11521.00
1039.157, 11372.00
1040.262, 11473.00
1041.368, 11439.00
1042.473, 11344.00
1043.578, 11348.00
1044.683, 11295.00
1045.788, 11331.00
1046.893, 11360.00
1047.997, 11385.00
1049.101, 11373.51
1050.205, 11249.00
1051.309, 11293.00
1052.413, 11239.00
1053.517, 11111.00
1054.621, 11197.00
1055.724, 11058.00
1056.827, 11109.00
1057.930, 11192.00
1059.033, 11051.00
1060.136, 11128.00
1061.238, 11094.00
1062.341, 10983.00
1063.443, 10991.00
1064.545, 11030.00
1065.647, 11054.00
1066.749, 10954.00
1067.850, 10942.00
1068.952, 11169.00
1070.053, 11093.00
1071.154, 11022.00
1072.255, 10904.00
1073.356, 10890.39
1074.457, 10969.00
1075.557, 10848.00
1076.658, 10914.00
1077.758, 10904.00
1078.858, 10950.00
1079.958, 10849.00
1081.057, 10763.00
1082.157, 10842.00
1083.256, 10832.00
1084.356, 10854.00
1085.455, 10891.00
1086.554, 10903.98
1087.653, 10882.00
1088.751, 10937.00
1089.850, 11000.00
1090.948, 10970.00
1092.046, 10829.00
1093.144, 10920.00
1094.242, 10881.00
1095.340, 10788.00
1096.437, 10849.00
1097.534, 10765.00
1098.632, 10892.00
1099.729, 10858.00
1100.826, 10807.00
1101.922, 10703.00
1103.019, 10804.00
1104.115, 10709.00
1105.212, 10738.00
1106.308, 10683.00
1107.404, 10862.00
1108.499, 10990.00
1109.595, 10955.00
1110.691, 10881.00
1111.786, 10827.00
1112.881, 10834.00
1113.976, 10846.00
1115.071, 10895.00
1116.166, 10851.00
1117.260, 10801.00
1118.355, 10858.00
1119.449, 10984.00
1120.543, 11040.00
1121.637, 10953.00
1122.731, 11027.00
1123.824, 11000.30
1124.918, 10879.00
1126.011, 10958.00
1127.104, 10869.00
1128.197, 10781.00
1129.290, 10925.00
1130.382, 10851.00
1131.475, 10760.00
1132.567, 10926.00
1133.659, 10871.00
1134.751, 10767.00
1135.843, 10843.00
1136.935, 10787.00
1138.027, 10728.00
1139.118, 10844.00
1140.209, 10823.00
1141.300, 10859.00
1142.391, 10874.00
1143.482, 10820.00
1144.573, 10740.00
1145.663, 10786.00
1146.754, 10705.00
1147.844, 10831.00
1148.934, 10808.00
1150.024, 10790.00
1151.113, 10768.00
1152.203, 10743.00
1153.292, 10751.84
1154.381, 10740.70
1155.470, 10776.00
1156.559, 10766.00
1157.648, 10784.00
1158.737, 10843.00
1159.825, 10851.26
1160.913, 10770.00
1162.001, 10869.00
1163.089, 10927.00
1164.177, 10841.00
1165.265, 10856.00
1166.352, 10905.00
1167.440, 10786.00
1168.527, 10930.00
1169.614, 10858.00
1170.701, 10820.00
1171.788, 10804.00
1172.874, 10852.00
1173.961, 10866.00
1175.047, 10892.00
1176.133, 11017.00
1177.219, 10895.00
1178.305, 10874.00
1179.390, 11007.00
1180.476, 10882.00
1181.561, 11006.00
1182.646, 10950.41
1183.731, 11123.00
1184.816, 10917.00
1185.901, 10961.00
1186.985, 11054.00
1188.070, 11118.00
1189.154, 10993.00
1190.238, 11097.00
1191.322, 11055.00
1192.406, 10928.00
1193.489, 11120.00
1194.573, 11092.00
1195.656, 11002.00
1196.739, 11065.00
1197.822, 11009.00
1198.905, 10978.00
1199.988, 11011.00
1201.070, 10994.55
1202.153, 11161.00
1203.235, 11047.00
1204.317, 11183.00
1205.399, 11257.00
1206.481, 11122.00
1207.562, 11022.00
1208.644, 10957.00
1209.725, 11103.00
1210.806, 11166.00
1211.887, 11134.00
1212.968, 11038.00
1214.049, 11227.00
1215.129, 11107.00
1216.209, 11251.00
1217.290, 11224.00
1218.370, 11194.00
1219.450, 11192.00
1220.529, 11219.00
1221.609, 11196.04
1222.688, 11206.09
1223.768, 11176.00
1224.847, 11196.00
1225.926, 11169.00
1227.005, 11144.00
1228.083, 11151.00
1229.162, 11143.87
1230.240, 11161.00
1231.318, 11145.00
1232.396, 11127.00
1233.474, 11095.05
1234.552, 11098.49
1235.629, 11065.00
1236.707, 11074.00
1237.784, 11064.00
1238.861, 11077.13
1239.938, 11119.00
1241.015, 11123.00
1242.092, 11143.00
1243.168, 11175.04
1244.244, 11157.27
1245.321, 11164.00
1246.397, 11125.00
1247.473, 11083.00
1248.548, 11050.00
1249.624, 11041.00
1250.699, 11024.00
1251.775, 11083.00
1252.850, 11048.00
1253.925, 11180.00
1254.999, 11217.00
1256.074, 11248.00
1257.148, 11259.06
1258.223, 11204.00
1259.297, 11205.00
1260.371, 11155.00
1261.445, 11122.00
1262.519, 11197.00
1263.592, 11011.00
1264.666, 11185.00
1265.739, 11225.00
1266.812, 11199.00
1267.885, 11089.00
1268.958, 11283.00
1270.030, 11355.00
1271.103, 11244.00
1272.175, 11216.00
1273.247, 11160.00
1274.319, 11367.00
1275.391, 11205.00
1276.463, 11450.00
1277.535, 11440.00
1278.606, 11352.00
1279.677, 11379.00
1280.748, 11282.00
1281.819, 11400.00
1282.890, 11432.00
1283.961, 11456.00
1285.031, 11511.00
1286.102, 11582.00
1287.172, 11520.00
1288.242, 11591.00
1289.312, 11493.00
1290.381, 11609.00
1291.451, 11826.00
1292.520, 11817.00
1293.590, 11694.00
1294.659, 11790.03
1295.728, 11718.73
1296.797, 11801.00
1297.865, 11757.00
1298.934, 11818.00
1300.002, 12019.00
1301.070, 11760.00
1302.138, 11833.00
1303.206, 11983.00
1304.274, 12069.00
1305.341, 12023.00
1306.409, 11940.00
1307.476, 12099.00
1308.543, 11918.00
1309.610, 11997.00
1310.677, 11938.00
1311.744, 11925.00
1312.810, 11965.00
1313.877, 11982.00
1314.943, 11980.00
1316.009, 11913.00
1317.075, 12047.00
1318.140, 11921.00
1319.206, 11973.00
1320.272, 11989.00
1321.337, 12049.00
1322.402, 12034.00
1323.467, 12063.00
1324.532, 12039.00
1325.596, 11964.00
1326.661, 11995.28
1327.725, 12058.00
1328.790, 11963.00
1329.854, 12009.00
1330.918, 11920.00
1331.981, 11915.29
1333.045, 12005.00
1334.108, 11887.00
1335.172, 11961.00
1336.235, 11908.78
1337.298, 11954.43
1338.361, 11977.70
1339.423, 11979.76
1340.486, 11899.00
1341.548, 11923.69
1342.611, 11905.21
1343.673, 11884.33
1344.735, 11922.00
1345.796, 11849.96
1346.858, 11885.39
1347.919, 11877.02
1348.981, 11887.74
1350.042, 11855.04
1351.103, 11834.91
1352.164, 11856.93
1353.225, 11854.60
1354.285, 11814.39
1355.346, 11822.49
1356.406, 11742.48
1357.466, 11738.58
1358.526, 11767.15
1359.586, 11808.00
1360.645, 11846.00
1361.705, 11738.00
1362.764, 11564.00
1363.823, 11703.00
1364.882, 11620.00
1365.941, 11564.00
1367.000, 11585.00
1368.059, 11496.00
1369.117, 11646.00
1370.175, 11581.00
1371.233, 11436.00
1372.291, 11604.00
1373.349, 11390.00
1374.407, 11512.00
1375.464, 11422.00
1376.522, 11523.00
1377.579, 11575.00
1378.636, 11362.00
1379.693, 11437.00
1380.750, 11436.00
1381.806, 11368.12
1382.863, 11409.00
1383.919, 11340.00
1384.975, 11273.00
1386.031, 11272.00
1387.087, 11294.00
1388.143, 11242.00
1389.199, 11268.00
1390.254, 11165.00
1391.309, 11255.00
1392.364, 11382.00
1393.419, 11303.00
1394.474, 11280.00
1395.529, 11333.00
1396.583, 11217.00
1397.638, 11255.00
1398.692, 11228.00
1399.746, 11407.00
1400.800, 11136.00
1401.853, 11241.00
1402.907, 11100.00
1403.960, 11064.00
1405.014, 11098.00
1406.067, 10888.00
1407.120, 11213.00
1408.173, 11325.00
1409.225, 11116.00
1410.278, 11032.00
1411.330, 11110.00
1412.383, 10939.00
1413.435, 11039.00
1414.487, 11130.00
1415.538, 11020.00
1416.590, 11052.00
1417.641, 11081.00
1418.693, 11066.38
1419.744, 10975.00
1420.795, 11114.00
1421.846, 11072.00
1422.897, 11082.00
1423.947, 10879.00
1424.998, 11140.00
1426.048, 10918.00
1427.098, 11003.00
1428.148, 11010.00
1429.198, 10996.00
1430.247, 11054.00
1431.297, 10964.00
1432.346, 11019.00
1433.396, 10987.00
1434.445, 10888.00
1435.494, 11016.00
1436.542, 11152.00
1437.591, 11006.00
1438.639, 10956.00
1439.688, 10936.00
1440.736, 10945.00
1441.784, 11006.00
1442.832, 11040.00
1443.880, 11012.00
1444.927, 10962.00
1445.975, 10969.00
1447.022, 10970.00
1448.069, 10963.69
1449.116, 10886.00
1450.163, 10997.00
1451.209, 11037.00
1452.256, 11090.00
1453.302, 10920.00
1454.348, 10977.00
1455.394, 11003.00
1456.440, 10882.00
1457.486, 11086.00
1458.532, 10956.00
1459.577, 10940.00
1460.623, 10847.00
1461.668, 11018.00
1462.713, 11056.00
1463.758, 10906.00
1464.802, 11100.00
1465.847, 11078.00
1466.891, 11143.00
1467.936, 11175.00
1468.980, 11161.00
1470.024, 11027.00
1471.067, 11167.00
1472.111, 11182.00
1473.155, 11037.00
1474.198, 11124.00
1475.241, 11110.00
1476.284, 11174.00
1477.327, 11013.00
1478.370, 11049.00
1479.413, 11074.00
1480.455, 11248.00
1481.497, 11068.00
1482.540, 11187.00
1483.582, 11081.00
1484.624, 11159.00
1485.665, 11150.00
1486.707, 11196.00
1487.748, 11149.00
1488.790, 11148.00
1489.831, 11076.00
1490.872, 11147.00
1491.912, 11101.00
1492.953, 11369.00
1493.994, 11301.00
1495.034, 11354.00
1496.074, 11348.84
1497.114, 11275.45
1498.154, 11239.00
1499.194, 11177.00
1500.234, 11163.00
1501.273, 11210.00
1502.313, 11259.00
1503.352, 11275.00
1504.391, 11441.00
1505.430, 11418.00
1506.468, 11397.00
1507.507, 11181.00
1508.545, 11254.00
1509.584, 11273.00
1510.622, 11427.00
1511.660, 11290.00
1512.698, 11297.00
1513.735, 11300.00
1514.773, 11399.00
1515.810, 11393.00
1516.848, 11422.05
1517.885, 11517.00
1518.922, 11447.00
1519.958, 11452.00
1520.995, 11460.00
1522.032, 11369.00
1523.068, 11349.00
1524.104, 11359.00
1525.140, 11385.00
1526.176, 11440.00
1527.212, 11482.00
1528.248, 11437.00
1529.283, 11371.00
1530.318, 11468.00
1531.353, 11539.00
1532.389, 11627.00
1533.423, 11573.00
1534.458, 11550.00
1535.493, 11699.00
1536.527, 11532.00
1537.561, 11643.00
1538.596, 11670.00
1539.630, 11671.00
1540.663, 11690.00
1541.697, 11551.00
##END=



