##NAMES=Aenigmatite
##RRUFFID=R061088
##IDEAL CHEMISTRY=Na_4_(Fe^2+^_10_Ti^4+^_2_)O_4_[Si_12_O_36_]
##LOCALITY=Naujakasik, Greenland
##OWNER=RRUFF
##SOURCE=Michael Scott
##DESCRIPTION=Black prismatic crystals
##STATUS=The identification of this mineral has been confirmed by X-ray diffraction and chemical analysis
##URL=rruff.info/R061088
##MEASURED CHEMISTRY=(Na_1.72_Ca_0.28_)_Σ=2_(Fe^2+^_4.90_Mn_0.08_Mg_0.02_)_Σ=5_(Ti_0.85_Al_0.14_Fe^3+^_0.01_)_Σ=1_(Si_5.87_Al_0.13_)_Σ=6_O_20_
##PIN_ID=L01708
##ORIENTATION=Laser parallel to -a* (-1 0 0). Fiducial mark perpendicular to laser is parallel to b [0 1 0]
145.0840, 36677.18
146.3140, 36853.36
147.5440, 36974.06
148.7730, 37042.22
150.0020, 36900.67
151.2320, 37029.96
152.4610, 37050.69
153.6900, 37066.97
154.9180, 37234.30
156.1470, 37123.25
157.3750, 37288.18
158.6040, 37342.98
159.8320, 37333.00
161.0600, 37481.00
162.2870, 37968.00
163.5150, 38552.00
164.7420, 38411.00
165.9700, 38391.00
167.1970, 38567.00
168.4240, 38467.00
169.6510, 38151.95
170.8770, 37886.35
172.1040, 37564.96
173.3300, 37191.39
174.5560, 36608.11
175.7820, 36374.00
177.0080, 35563.00
178.2340, 35059.00
179.4590, 34705.00
180.6850, 34235.00
181.9100, 33679.00
183.1350, 33661.00
184.3600, 33587.00
185.5850, 33255.00
186.8090, 33506.00
188.0340, 33641.00
189.2580, 33635.00
190.4820, 33941.43
191.7060, 34223.00
192.9300, 34433.00
194.1530, 34645.00
195.3770, 34925.00
196.6000, 34826.00
197.8230, 34977.00
199.0460, 34877.00
200.2690, 34881.00
201.4910, 34610.00
202.7140, 34636.00
203.9360, 34195.00
205.1580, 33869.00
206.3800, 33676.00
207.6020, 33336.00
208.8240, 33123.17
210.0450, 33139.00
211.2670, 32752.00
212.4880, 32777.00
213.7090, 32783.00
214.9300, 32685.00
216.1510, 32511.00
217.3710, 32589.53
218.5920, 32860.00
219.8120, 32741.00
221.0320, 32733.00
222.2520, 32966.00
223.4720, 32906.00
224.6910, 32794.00
225.9110, 32866.00
227.1300, 32983.00
228.3490, 32858.00
229.5680, 32548.00
230.7870, 32675.00
232.0050, 32620.91
233.2240, 33047.00
234.4420, 32722.00
235.6600, 32973.00
236.8780, 32919.00
238.0960, 32740.00
239.3140, 32861.00
240.5310, 32836.00
241.7490, 33080.00
242.9660, 32829.00
244.1830, 32950.00
245.4000, 33141.00
246.6160, 33229.00
247.8330, 33376.00
249.0490, 33332.00
250.2660, 33390.00
251.4820, 33623.00
252.6980, 33883.00
253.9130, 34259.00
255.1290, 34660.00
256.3440, 34552.00
257.5600, 34538.00
258.7750, 34078.00
259.9900, 33421.00
261.2040, 33244.00
262.4190, 33061.00
263.6330, 33104.00
264.8480, 33119.00
266.0620, 32944.00
267.2760, 33078.08
268.4900, 33029.00
269.7030, 33032.47
270.9170, 32699.00
272.1300, 33051.00
273.3430, 32969.00
274.5560, 32914.05
275.7690, 33085.61
276.9820, 33031.00
278.1940, 33192.00
279.4070, 33225.00
280.6190, 33207.38
281.8310, 33458.00
283.0430, 33812.00
284.2550, 33652.00
285.4660, 33612.00
286.6770, 34121.00
287.8890, 33929.00
289.1000, 34052.00
290.3110, 34357.00
291.5210, 34654.00
292.7320, 34980.00
293.9420, 35197.00
295.1530, 34919.00
296.3630, 34904.00
297.5730, 35188.00
298.7830, 35337.00
299.9920, 35559.30
301.2020, 35745.04
302.4110, 35963.00
303.6200, 36159.00
304.8290, 36088.00
306.0380, 36422.00
307.2470, 36446.00
308.4550, 36884.00
309.6630, 37109.00
310.8720, 37038.00
312.0800, 37543.61
313.2880, 37523.59
314.4950, 38066.00
315.7030, 37929.64
316.9100, 37741.43
318.1170, 37497.74
319.3240, 37201.55
320.5310, 36695.64
321.7380, 36460.54
322.9450, 36116.92
324.1510, 35418.00
325.3570, 35194.00
326.5630, 34808.00
327.7690, 34599.00
328.9750, 34311.00
330.1810, 34044.00
331.3860, 33818.00
332.5910, 33765.00
333.7960, 33344.00
335.0010, 33484.00
336.2060, 33140.00
337.4110, 33007.00
338.6150, 32778.00
339.8200, 32865.00
341.0240, 32524.00
342.2280, 32634.00
343.4320, 32448.00
344.6350, 32662.00
345.8390, 32462.00
347.0420, 32473.00
348.2450, 32420.00
349.4480, 32375.65
350.6510, 32814.00
351.8540, 33056.00
353.0560, 33382.00
354.2590, 33564.86
355.4610, 33826.80
356.6630, 33869.00
357.8650, 34278.00
359.0670, 34500.00
360.2680, 34711.00
361.4700, 35135.00
362.6710, 35356.00
363.8720, 35302.00
365.0730, 35535.00
366.2740, 35370.00
367.4740, 35203.00
368.6750, 35045.00
369.8750, 35117.00
371.0750, 34743.00
372.2750, 34768.00
373.4750, 34727.00
374.6740, 34444.00
375.8740, 34336.00
377.0730, 34128.00
378.2720, 34162.00
379.4710, 33897.00
380.6700, 34016.00
381.8690, 34014.00
383.0670, 33895.79
384.2660, 33562.62
385.4640, 33634.23
386.6620, 33609.59
387.8600, 33200.46
389.0570, 33287.88
390.2550, 33176.27
391.4520, 33056.55
392.6490, 33213.85
393.8460, 32860.70
395.0430, 33013.60
396.2400, 33023.00
397.4370, 32909.00
398.6330, 32969.00
399.8290, 33242.00
401.0250, 33032.20
402.2210, 33100.00
403.4170, 32825.00
404.6130, 32926.00
405.8080, 32855.00
407.0030, 32970.00
408.1980, 32856.00
409.3930, 33089.00
410.5880, 32841.00
411.7830, 32906.00
412.9770, 32945.00
414.1720, 33227.00
415.3660, 33276.00
416.5600, 33569.00
417.7530, 33499.00
418.9470, 33437.00
420.1410, 33728.00
421.3340, 33514.00
422.5270, 34016.00
423.7200, 34132.00
424.9130, 34418.00
426.1060, 34359.85
427.2980, 34714.11
428.4900, 34966.66
429.6830, 35123.07
430.8750, 34894.88
432.0670, 35163.19
433.2580, 35232.43
434.4500, 35293.60
435.6410, 35631.69
436.8320, 35459.32
438.0240, 35793.11
439.2140, 35837.00
440.4050, 35742.00
441.5960, 36007.00
442.7860, 35961.00
443.9760, 35820.00
445.1670, 35731.00
446.3560, 36016.00
447.5460, 35602.00
448.7360, 35269.00
449.9250, 35468.00
451.1150, 34731.00
452.3040, 34688.00
453.4930, 34580.00
454.6810, 34655.00
455.8700, 34293.00
457.0590, 34165.00
458.2470, 34079.00
459.4350, 33926.19
460.6230, 33892.00
461.8110, 33820.00
462.9980, 33915.00
464.1860, 33915.00
465.3730, 33711.00
466.5600, 34059.00
467.7470, 33687.00
468.9340, 33747.00
470.1210, 33796.00
471.3080, 34089.00
472.4940, 33919.00
473.6800, 34042.00
474.8660, 33948.00
476.0520, 33970.00
477.2380, 34176.00
478.4230, 33908.00
479.6090, 34430.00
480.7940, 34219.00
481.9790, 34490.00
483.1640, 34538.00
484.3490, 35006.00
485.5330, 34835.00
486.7180, 34933.00
487.9020, 35030.60
489.0860, 35203.00
490.2700, 35213.95
491.4540, 35383.00
492.6370, 35268.00
493.8210, 35251.00
495.0040, 35272.00
496.1870, 35107.00
497.3700, 35034.00
498.5530, 34997.00
499.7360, 35259.00
500.9180, 35100.00
502.1000, 35313.00
503.2830, 35217.00
504.4650, 35531.00
505.6460, 35585.00
506.8280, 35266.00
508.0100, 35480.74
509.1910, 35665.00
510.3720, 35581.00
511.5530, 35612.00
512.7340, 35834.00
513.9150, 36023.00
515.0950, 36059.00
516.2760, 36227.00
517.4560, 36397.16
518.6360, 36619.94
519.8160, 36708.00
520.9950, 36971.86
522.1750, 37096.47
523.3540, 37429.69
524.5340, 37693.73
525.7130, 37891.26
526.8920, 37865.21
528.0700, 38096.01
529.2490, 38204.56
530.4270, 38294.71
531.6060, 38522.22
532.7840, 38457.38
533.9620, 38654.74
535.1390, 38728.04
536.3170, 38838.01
537.4940, 38824.92
538.6720, 38831.78
539.8490, 38934.04
541.0260, 39112.00
542.2030, 38788.00
543.3790, 38948.00
544.5560, 38701.00
545.7320, 38792.00
546.9080, 38552.00
548.0840, 38740.00
549.2600, 38810.00
550.4360, 38580.00
551.6110, 38728.00
552.7860, 38617.00
553.9620, 38682.91
555.1370, 38822.00
556.3110, 38732.00
557.4860, 38862.41
558.6610, 38628.79
559.8350, 38595.00
561.0090, 38860.00
562.1830, 38807.00
563.3570, 38663.00
564.5310, 38753.00
565.7040, 38562.00
566.8780, 38407.00
568.0510, 38254.00
569.2240, 38103.00
570.3970, 38187.00
571.5700, 38150.00
572.7420, 38060.00
573.9150, 37825.00
575.0870, 37758.00
576.2590, 37422.00
577.4310, 37480.00
578.6030, 37127.00
579.7740, 36954.00
580.9460, 36784.00
582.1170, 36675.00
583.2880, 36478.45
584.4590, 36243.00
585.6300, 36180.00
586.8010, 36050.00
587.9710, 36020.68
589.1410, 36007.00
590.3110, 36222.00
591.4810, 36373.00
592.6510, 36614.00
593.8210, 36750.00
594.9900, 36809.48
596.1600, 37323.46
597.3290, 37735.49
598.4980, 38051.29
599.6670, 37982.59
600.8350, 38410.15
602.0040, 38638.97
603.1720, 38859.39
604.3400, 39356.83
605.5080, 39392.00
606.6760, 39885.00
607.8440, 40057.00
609.0120, 40834.00
610.1790, 40797.97
611.3460, 40956.00
612.5130, 40887.00
613.6800, 41290.00
614.8470, 41321.00
616.0130, 41509.00
617.1800, 41469.00
618.3460, 41803.00
619.5120, 41836.00
620.6780, 42141.00
621.8440, 42393.00
623.0090, 42623.00
624.1750, 43113.00
625.3400, 43498.00
626.5050, 44300.00
627.6700, 44996.00
628.8350, 45412.00
629.9990, 46782.00
631.1640, 47721.00
632.3280, 49256.00
633.4920, 50172.00
634.6560, 51374.00
635.8200, 53105.00
636.9840, 54927.00
638.1470, 57406.00
639.3100, 59362.00
640.4730, 61449.00
641.6360, 64891.00
642.7990, 67129.00
643.9620, 69120.00
645.1240, 71060.00
646.2870, 72563.83
647.4490, 74413.00
648.6110, 75043.00
649.7730, 76274.00
650.9340, 77070.00
652.0960, 75382.00
653.2570, 74460.00
654.4180, 73764.00
655.5790, 72947.00
656.7400, 71267.00
657.9010, 70593.00
659.0620, 68938.00
660.2220, 67879.00
661.3820, 66711.00
662.5420, 65055.00
663.7020, 63692.00
664.8620, 62570.00
666.0210, 61114.00
667.1810, 60277.00
668.3400, 59340.00
669.4990, 58404.00
670.6580, 57584.00
671.8170, 57258.00
672.9750, 56657.00
674.1340, 56354.00
675.2920, 56110.00
676.4500, 56023.00
677.6080, 55872.00
678.7660, 55752.00
679.9230, 55589.00
681.0810, 55165.00
682.2380, 55282.00
683.3950, 55169.00
684.5520, 54681.00
685.7090, 55040.00
686.8660, 54620.00
688.0220, 54730.00
689.1780, 54813.00
690.3340, 54816.00
691.4900, 54268.00
692.6460, 53775.00
693.8020, 53122.16
694.9570, 52473.00
696.1130, 51365.00
697.2680, 50633.00
698.4230, 49552.00
699.5780, 48852.00
700.7320, 48302.00
701.8870, 46777.00
703.0410, 45691.00
704.1950, 44979.00
705.3490, 44068.00
706.5030, 43345.00
707.6570, 42770.90
708.8110, 42350.00
709.9640, 41844.00
711.1170, 41367.26
712.2700, 40913.00
713.4230, 40412.00
714.5760, 40102.00
715.7280, 39580.00
716.8810, 39478.00
718.0330, 38944.00
719.1850, 38942.00
720.3370, 38668.00
721.4890, 38264.00
722.6400, 38114.00
723.7920, 38140.00
724.9430, 37943.00
726.0940, 37940.00
727.2450, 37950.00
728.3960, 37817.00
729.5460, 37706.00
730.6970, 37514.00
731.8470, 37678.00
732.9970, 37689.00
734.1470, 37922.00
735.2970, 37950.00
736.4460, 37645.00
737.5960, 38021.00
738.7450, 37576.00
739.8940, 37635.00
741.0430, 37641.00
742.1920, 37496.00
743.3410, 37448.00
744.4890, 36893.00
745.6370, 36863.00
746.7850, 36738.00
747.9330, 36850.00
749.0810, 36741.00
750.2290, 36541.00
751.3760, 36463.00
752.5240, 36639.00
753.6710, 36345.00
754.8180, 36500.00
755.9650, 36458.00
757.1110, 36220.00
758.2580, 36280.58
759.4040, 36307.04
760.5510, 36130.00
761.6970, 36409.00
762.8420, 36317.00
763.9880, 36119.57
765.1340, 36583.00
766.2790, 36131.00
767.4240, 36137.00
768.5690, 36421.00
769.7140, 36402.00
770.8590, 36360.00
772.0030, 36412.00
773.1480, 36072.00
774.2920, 36128.00
775.4360, 36190.00
776.5800, 36155.00
777.7240, 36242.00
778.8670, 36140.00
780.0110, 36297.00
781.1540, 36286.00
782.2970, 36069.00
783.4400, 36387.00
784.5830, 36397.00
785.7250, 36148.00
786.8680, 36421.00
788.0100, 36364.00
789.1520, 36145.00
790.2940, 36091.00
791.4360, 36560.00
792.5780, 36561.00
793.7190, 36348.00
794.8600, 36444.00
796.0010, 36362.00
797.1420, 36226.00
798.2830, 36316.00
799.4240, 36614.00
800.5640, 36142.00
801.7050, 36134.00
802.8450, 36531.00
803.9850, 36414.00
805.1250, 36428.00
806.2640, 36610.00
807.4040, 36463.00
808.5430, 36625.00
809.6820, 36645.00
810.8210, 36754.00
811.9600, 36883.00
813.0990, 36830.00
814.2370, 36810.00
815.3760, 36884.00
816.5140, 37025.00
817.6520, 37152.00
818.7900, 37054.00
819.9270, 37237.00
821.0650, 37159.00
822.2020, 37209.00
823.3390, 37455.00
824.4760, 37445.00
825.6130, 37469.00
826.7500, 37585.00
827.8870, 37574.00
829.0230, 37618.00
830.1590, 37680.41
831.2950, 37804.00
832.4310, 37824.00
833.5670, 38096.00
834.7030, 38281.00
835.8380, 38167.00
836.9730, 38106.00
838.1080, 38333.00
839.2430, 38379.00
840.3780, 38428.00
841.5130, 38615.00
842.6470, 38724.00
843.7810, 38769.00
844.9150, 38959.00
846.0490, 39039.00
847.1830, 39161.54
848.3170, 39043.00
849.4500, 39426.00
850.5830, 39541.00
851.7160, 39718.00
852.8490, 40154.00
853.9820, 39777.00
855.1150, 40314.00
856.2470, 40426.00
857.3800, 41057.00
858.5120, 40606.00
859.6440, 40987.00
860.7760, 41055.00
861.9070, 41324.00
863.0390, 41472.00
864.1700, 41608.00
865.3010, 41566.00
866.4320, 41723.52
867.5630, 41915.81
868.6940, 42030.00
869.8240, 42317.00
870.9540, 42756.00
872.0850, 42820.00
873.2150, 43075.00
874.3450, 43867.00
875.4740, 43906.00
876.6040, 44046.00
877.7330, 44028.00
878.8620, 44366.00
879.9910, 45172.00
881.1200, 45300.00
882.2490, 45958.00
883.3770, 46111.00
884.5060, 46836.00
885.6340, 47105.00
886.7620, 47566.00
887.8900, 47901.00
889.0180, 48313.00
890.1450, 48557.33
891.2730, 48924.00
892.4000, 48907.35
893.5270, 49066.57
894.6540, 49046.47
895.7810, 48850.02
896.9070, 48320.37
898.0340, 47937.41
899.1600, 47322.68
900.2860, 46893.54
901.4120, 46384.00
902.5380, 45897.00
903.6630, 45383.00
904.7890, 44768.00
905.9140, 44407.00
907.0390, 43920.00
908.1640, 43583.00
909.2890, 43583.00
910.4130, 43358.00
911.5380, 43107.00
912.6620, 42668.00
913.7860, 42485.00
914.9100, 42186.00
916.0340, 42346.00
917.1580, 41774.00
918.2810, 41753.00
919.4040, 41833.00
920.5280, 41499.00
921.6510, 41470.00
922.7730, 41659.88
923.8960, 41363.97
925.0180, 41294.16
926.1410, 41076.00
927.2630, 40918.00
928.3850, 40786.00
929.5070, 40696.00
930.6280, 40693.00
931.7500, 40562.11
932.8710, 40285.00
933.9920, 40352.00
935.1130, 40335.00
936.2340, 40171.00
937.3550, 40336.00
938.4760, 40188.16
939.5960, 40260.32
940.7160, 40082.00
941.8360, 40301.00
942.9560, 40358.00
944.0760, 40233.00
945.1950, 40340.00
946.3150, 40122.00
947.4340, 40173.00
948.5530, 40283.00
949.6720, 40523.00
950.7900, 40210.00
951.9090, 40320.00
953.0270, 40306.00
954.1460, 40629.00
955.2640, 40624.00
956.3820, 40990.00
957.4990, 41166.00
958.6170, 40661.00
959.7340, 41090.00
960.8520, 40861.03
961.9690, 41097.00
963.0860, 40701.00
964.2020, 40967.00
965.3190, 40896.00
966.4350, 40615.74
967.5520, 40872.35
968.6680, 41027.22
969.7840, 41085.85
970.8990, 40759.97
972.0150, 40930.61
973.1310, 40902.26
974.2460, 40865.74
975.3610, 41106.23
976.4760, 40836.27
977.5910, 41072.37
978.7050, 41106.43
979.8200, 41232.97
980.9340, 41159.29
982.0480, 41147.44
983.1620, 40872.00
984.2760, 40951.00
985.3900, 40935.00
986.5030, 41278.00
987.6160, 40996.00
988.7300, 41465.00
989.8430, 41357.00
990.9550, 40985.00
992.0680, 41084.00
993.1810, 40910.00
994.2930, 41013.00
995.4050, 41031.00
996.5170, 40423.00
997.6290, 40804.00
998.7410, 40252.00
999.8520, 40331.00
1000.964, 39979.00
1002.075, 40009.00
1003.186, 39901.00
1004.297, 39677.00
1005.407, 39647.00
1006.518, 39747.00
1007.628, 39828.00
1008.738, 39722.00
1009.848, 40007.83
1010.958, 39951.30
1012.068, 40342.00
1013.178, 40105.00
1014.287, 39936.00
1015.396, 40186.00
1016.505, 39789.00
1017.614, 40202.00
1018.723, 40039.00
1019.831, 40303.00
1020.940, 40293.00
1022.048, 40248.00
1023.156, 40188.00
1024.264, 40217.00
1025.372, 40371.00
1026.479, 40311.00
1027.587, 40252.00
1028.694, 40260.00
1029.801, 40543.00
1030.908, 40577.00
1032.015, 40734.00
1033.121, 40727.04
1034.228, 40823.81
1035.334, 40686.00
1036.440, 40884.00
1037.546, 41009.00
1038.652, 40875.00
1039.758, 40843.00
1040.863, 40872.00
1041.968, 41093.00
1043.074, 41094.00
1044.178, 40891.00
1045.283, 40614.00
1046.388, 40699.00
1047.492, 40548.99
1048.597, 40563.00
1049.701, 40310.00
1050.805, 40401.00
1051.909, 40225.05
1053.012, 40308.00
1054.116, 39952.00
1055.219, 39877.00
1056.322, 39708.00
1057.425, 39923.00
1058.528, 39598.00
1059.631, 39791.00
1060.733, 39669.00
1061.836, 39459.00
1062.938, 39338.00
1064.040, 39490.00
1065.142, 39339.00
1066.243, 39533.00
1067.345, 39349.00
1068.446, 39168.25
1069.547, 39350.61
1070.648, 39431.25
1071.749, 39415.66
1072.850, 39015.57
1073.951, 39111.97
1075.051, 39009.45
1076.151, 38898.78
1077.251, 39065.11
1078.351, 38720.99
1079.451, 38882.92
1080.550, 38842.89
1081.650, 38895.28
1082.749, 38754.00
1083.848, 38659.83
1084.947, 39018.00
1086.046, 38705.00
1087.144, 38957.00
1088.243, 39003.00
1089.341, 38682.00
1090.439, 38768.00
1091.537, 38939.00
1092.635, 38933.00
1093.732, 38932.00
1094.830, 38919.00
1095.927, 38807.00
1097.024, 39063.00
1098.121, 38993.00
1099.218, 38661.00
1100.314, 38872.00
1101.411, 38847.00
1102.507, 39021.00
1103.603, 39185.00
1104.699, 39032.00
1105.795, 38752.79
1106.890, 39018.30
1107.986, 39176.95
1109.081, 39234.14
1110.176, 38901.66
1111.271, 39060.48
1112.366, 39015.14
1113.461, 38956.46
1114.555, 39169.61
1115.649, 38867.13
1116.744, 39065.52
1117.838, 39056.74
1118.931, 39135.25
1120.025, 39008.38
1121.119, 38938.16
1122.212, 38899.49
1123.305, 39136.84
1124.398, 39272.47
1125.491, 39311.87
1126.584, 38966.78
1127.676, 39118.17
1128.768, 39070.59
1129.861, 39014.86
1130.953, 39236.13
1132.044, 38946.95
1133.136, 39163.84
1134.228, 39178.71
1135.319, 39286.03
1136.410, 39193.15
1137.501, 39162.11
1138.592, 39331.33
1139.683, 39389.66
1140.773, 39273.73
1141.864, 39040.00
1142.954, 39098.00
1144.044, 39157.00
1145.134, 39245.00
1146.224, 38994.00
1147.313, 39146.74
1148.402, 38922.00
1149.492, 39270.00
1150.581, 39065.00
1151.670, 39176.00
1152.758, 39274.00
1153.847, 39066.00
1154.935, 39146.00
1156.024, 39456.00
1157.112, 39438.00
1158.200, 39551.00
1159.287, 39395.00
1160.375, 39588.00
1161.462, 39474.54
1162.550, 39373.00
1163.637, 39304.00
1164.724, 39289.88
1165.810, 39397.00
1166.897, 39335.00
1167.983, 39447.00
1169.070, 39519.00
1170.156, 39877.00
1171.242, 39811.00
1172.327, 39531.00
1173.413, 39954.00
1174.499, 39821.00
1175.584, 39925.00
1176.669, 39846.00
1177.754, 39898.00
1178.839, 40021.33
1179.923, 40072.00
1181.008, 40088.67
1182.092, 40143.00
1183.176, 40114.00
1184.260, 40109.00
1185.344, 40175.00
1186.428, 40245.00
1187.511, 40250.00
1188.595, 40423.00
1189.678, 40243.00
1190.761, 40344.00
1191.843, 40469.00
1192.926, 40310.00
1194.009, 40507.00
1195.091, 40769.00
1196.173, 40256.00
1197.255, 40432.00
1198.337, 40785.00
1199.419, 40786.00
1200.500, 40821.00
1201.582, 41018.00
1202.663, 40914.00
1203.744, 40909.00
1204.825, 40771.00
1205.905, 40884.00
1206.986, 40722.00
1208.066, 40848.00
1209.146, 40970.00
1210.226, 40965.00
1211.306, 40764.00
1212.386, 41252.00
1213.466, 40955.00
1214.545, 40933.00
1215.624, 41034.00
1216.703, 41023.00
1217.782, 40929.00
1218.861, 41214.00
1219.939, 41133.02
1221.018, 41167.00
1222.096, 41078.00
1223.174, 41192.00
1224.252, 40911.00
1225.330, 40913.00
1226.407, 41279.00
1227.485, 40992.00
1228.562, 41098.13
1229.639, 41310.00
1230.716, 40960.00
1231.793, 41403.00
1232.869, 41281.00
1233.946, 41206.00
1235.022, 41150.00
1236.098, 41224.00
1237.174, 41116.00
1238.250, 41058.00
1239.325, 40814.00
1240.401, 41043.00
1241.476, 41213.00
1242.551, 40997.00
1243.626, 40967.00
1244.701, 41229.00
1245.776, 40966.00
1246.850, 41342.00
1247.924, 41124.00
1248.999, 40940.00
1250.073, 41293.00
1251.146, 41161.00
1252.220, 41118.00
1253.293, 41057.00
1254.367, 41149.00
1255.440, 40950.00
1256.513, 41328.00
1257.586, 41195.00
1258.658, 41203.00
1259.731, 41631.00
1260.803, 41545.00
1261.875, 41418.00
1262.947, 41396.00
1264.019, 41482.00
1265.091, 41402.98
1266.162, 41723.45
1267.234, 41942.29
1268.305, 42064.81
1269.376, 41802.83
1270.447, 42037.35
1271.517, 42072.81
1272.588, 42100.20
1273.658, 42404.51
1274.729, 42198.46
1275.799, 42498.38
1276.868, 42596.21
1277.938, 42786.58
1279.008, 42894.81
1280.077, 43012.33
1281.146, 43056.00
1282.215, 43202.00
1283.284, 43306.24
1284.353, 43341.00
1285.421, 43412.00
1286.490, 43457.00
1287.558, 43618.00
1288.626, 43677.00
1289.694, 43356.00
1290.762, 43603.00
1291.829, 43605.00
1292.897, 43810.00
1293.964, 43963.00
1295.031, 44008.00
1296.098, 44219.00
1297.165, 44131.00
1298.231, 44234.30
1299.298, 44139.02
1300.364, 44334.00
1301.430, 44083.00
1302.496, 44175.00
1303.562, 44581.00
1304.627, 44224.00
1305.693, 44389.00
1306.758, 44415.00
1307.823, 44270.00
1308.888, 44426.00
1309.953, 44606.00
1311.018, 44415.00
1312.082, 44489.00
1313.146, 44436.99
1314.210, 44230.00
1315.274, 44409.00
1316.338, 44296.91
1317.402, 44475.54
1318.465, 44397.00
1319.529, 44438.00
1320.592, 44403.00
1321.655, 44453.74
1322.718, 44434.53
1323.780, 44498.00
1324.843, 44419.00
1325.905, 44251.00
1326.967, 44243.00
1328.029, 44194.00
1329.091, 44160.00
1330.153, 44174.23
1331.214, 44102.36
1332.275, 44190.00
1333.337, 44091.00
1334.398, 44062.60
1335.458, 44265.00
1336.519, 44086.00
1337.580, 44213.00
1338.640, 44247.00
1339.700, 43855.00
1340.760, 44054.00
1341.820, 44043.00
1342.880, 43826.00
1343.939, 43768.00
1344.999, 43741.00
1346.058, 43707.13
1347.117, 43754.91
1348.176, 43762.00
1349.235, 43823.00
1350.293, 43826.00
1351.351, 43722.00
1352.410, 43657.00
1353.468, 43617.00
1354.526, 43499.00
1355.583, 43467.93
1356.641, 43507.00
1357.698, 43331.00
1358.756, 43377.73
1359.813, 43240.27
1360.869, 43283.00
1361.926, 43096.00
1362.983, 43006.00
1364.039, 42877.00
1365.095, 43219.00
1366.152, 43106.00
1367.207, 43079.00
1368.263, 42719.00
1369.319, 42878.00
1370.374, 43051.00
1371.430, 42645.00
1372.485, 42764.00
1373.540, 42527.00
1374.594, 42592.00
1375.649, 42678.00
1376.703, 42418.00
1377.758, 42341.00
1378.812, 42484.00
1379.866, 42449.00
1380.920, 42411.00
1381.973, 42604.00
1383.027, 42348.00
1384.080, 42488.00
1385.133, 42293.00
1386.186, 42320.00
1387.239, 42163.00
1388.291, 42315.00
1389.344, 42034.00
1390.396, 42116.08
1391.448, 42224.64
1392.500, 42277.72
1393.552, 42278.31
1394.604, 42069.18
1395.655, 42130.88
1396.707, 42084.02
1397.758, 42032.74
1398.809, 42132.55
1399.860, 41953.94
1400.910, 42051.38
1401.961, 42038.61
1403.011, 42076.28
1404.061, 42004.76
1405.111, 41966.96
1406.161, 42038.41
1407.211, 42049.36
1408.260, 41965.29
1409.310, 42006.17
1410.359, 41823.78
1411.408, 41837.33
1412.457, 41935.42
1413.506, 41856.84
1414.554, 41899.75
1415.603, 41896.38
1416.651, 41682.76
1417.699, 41834.82
1418.747, 41828.73
1419.794, 41660.29
1420.842, 41799.81
1421.889, 41843.00
1422.937, 41755.00
1423.984, 41601.00
1425.031, 41731.00
1426.077, 41898.00
1427.124, 41664.00
1428.170, 41759.00
1429.217, 41390.00
1430.263, 41812.00
1431.309, 41615.00
1432.354, 41549.00
1433.400, 41508.00
1434.445, 41834.00
1435.491, 41733.39
1436.536, 41781.00
1437.581, 41827.00
1438.625, 41685.00
1439.670, 41763.00
1440.714, 41617.00
1441.759, 41729.00
1442.803, 41714.51
1443.847, 41856.82
1444.890, 41943.64
1445.934, 41977.98
1446.978, 41802.59
1448.021, 41898.01
1449.064, 41884.89
1450.107, 41867.33
1451.150, 42000.86
1452.192, 41855.95
1453.235, 41987.08
1454.277, 42008.02
1455.319, 42079.38
1456.361, 42041.54
1457.403, 42037.44
1458.445, 42142.57
1459.486, 42187.20
1460.528, 42136.79
1461.569, 42211.34
1462.610, 42062.61
1463.651, 42109.81
1464.691, 42241.54
1465.732, 42196.61
1466.772, 41924.00
1467.812, 41941.00
1468.852, 42010.00
1469.892, 42214.00
1470.932, 42166.00
1471.971, 42249.00
1473.011, 42006.00
1474.050, 42303.00
1475.089, 42084.00
1476.128, 42089.00
1477.166, 42143.00
1478.205, 42290.00
1479.243, 42373.00
1480.282, 42550.41
1481.320, 42580.59
1482.357, 42591.10
1483.395, 42647.00
1484.433, 42549.00
1485.470, 42554.00
1486.507, 42590.00
1487.544, 42582.49
1488.581, 42744.19
1489.618, 42850.42
1490.655, 42904.15
1491.691, 42748.12
1492.727, 42862.91
1493.763, 42869.16
1494.799, 42870.97
1495.835, 43023.88
1496.871, 42898.36
1497.906, 43048.83
1498.941, 43089.12
1499.976, 43179.84
1501.011, 43161.36
1502.046, 43176.61
1503.081, 43301.09
1504.115, 43365.06
1505.149, 43333.98
1506.183, 43427.87
1507.217, 43298.47
1508.251, 43365.01
1509.285, 43516.09
1510.318, 43419.00
1511.352, 43431.61
1512.385, 43471.00
1513.418, 43434.00
1514.450, 43681.00
1515.483, 43793.00
1516.516, 43824.00
1517.548, 43623.00
1518.580, 43850.00
1519.612, 43662.00
1520.644, 43513.38
1521.675, 43797.75
1522.707, 43980.46
1523.738, 44066.88
1524.769, 43768.81
1525.800, 43967.23
1526.831, 43966.68
1527.862, 43957.97
1528.892, 44226.22
1529.923, 43984.07
1530.953, 44247.93
1531.983, 44309.78
1533.013, 44464.08
1534.042, 44418.14
1535.072, 44434.08
1536.101, 44650.23
1537.131, 44696.00
1538.160, 44495.48
1539.188, 44759.83
1540.217, 44921.02
1541.246, 44984.48
1542.274, 44661.94
1543.302, 44834.41
1544.330, 44806.42
1545.358, 44768.80
1546.386, 45006.70
1547.413, 44732.65
1548.441, 44963.20
1549.468, 44990.24
1550.495, 45108.26
1551.522, 45024.59
1552.549, 45001.29
1553.575, 45176.75
1554.602, 45239.87
1555.628, 45127.24
1556.654, 45242.25
1557.680, 44946.42
1558.706, 45008.34
1559.731, 45223.78
1560.757, 45113.83
1561.782, 45225.13
1562.807, 45250.13
1563.832, 44888.17
1564.857, 45195.14
1565.881, 45210.71
1566.906, 44927.12
1567.930, 45206.71
1568.954, 44961.22
1569.978, 44901.16
1571.002, 44980.28
##END=



