##NAMES=Aenigmatite
##RRUFFID=R061088
##IDEAL CHEMISTRY=Na_4_(Fe^2+^_10_Ti^4+^_2_)O_4_[Si_12_O_36_]
##LOCALITY=Naujakasik, Greenland
##OWNER=RRUFF
##SOURCE=Michael Scott
##DESCRIPTION=Black prismatic crystals
##STATUS=The identification of this mineral has been confirmed by X-ray diffraction and chemical analysis
##URL=rruff.info/R061088
##MEASURED CHEMISTRY=(Na_1.72_Ca_0.28_)_Σ=2_(Fe^2+^_4.90_Mn_0.08_Mg_0.02_)_Σ=5_(Ti_0.85_Al_0.14_Fe^3+^_0.01_)_Σ=1_(Si_5.87_Al_0.13_)_Σ=6_O_20_
##PIN_ID=L00777
##ORIENTATION=Laser parallel to b* (0 1 0). Fiducial mark perpendicular to laser is parallel to c [0 0 1]
138.6700, 8526.000
139.9000, 8514.076
141.1290, 8687.000
142.3590, 8482.000
143.5880, 8461.000
144.8170, 8434.000
146.0460, 8529.000
147.2750, 8612.000
148.5030, 8614.000
149.7320, 8839.000
150.9600, 9076.000
152.1880, 9246.000
153.4160, 9368.000
154.6440, 9660.000
155.8720, 9819.000
157.0990, 9826.000
158.3270, 9803.000
159.5540, 9853.000
160.7810, 10019.00
162.0080, 9860.000
163.2350, 9869.000
164.4610, 9827.000
165.6880, 9664.000
166.9140, 9541.231
168.1400, 9218.000
169.3660, 9113.000
170.5920, 9013.000
171.8180, 8724.000
173.0430, 8624.000
174.2690, 8512.000
175.4940, 8426.000
176.7190, 8348.762
177.9440, 8305.855
179.1680, 8349.287
180.3930, 8362.732
181.6170, 8347.844
182.8420, 8219.653
184.0660, 8237.763
185.2900, 8197.250
186.5140, 8154.333
187.7370, 8193.050
188.9610, 8081.357
190.1840, 8118.779
191.4070, 8096.686
192.6300, 8101.832
193.8530, 8047.993
195.0760, 8012.373
196.2980, 8173.000
197.5210, 8078.000
198.7430, 8110.000
199.9650, 8230.000
201.1870, 8271.000
202.4090, 8114.000
203.6310, 7930.000
204.8520, 7714.000
206.0730, 7745.000
207.2950, 7723.000
208.5160, 7758.000
209.7360, 7836.000
210.9570, 7867.668
212.1780, 7883.000
213.3980, 7922.000
214.6180, 7856.000
215.8380, 7705.000
217.0580, 7614.000
218.2780, 7579.000
219.4980, 7343.000
220.7170, 7240.000
221.9360, 7079.000
223.1560, 7037.000
224.3750, 6941.000
225.5930, 6812.000
226.8120, 6798.000
228.0310, 6681.000
229.2490, 6752.000
230.4670, 6669.000
231.6850, 6659.000
232.9030, 6580.000
234.1210, 6539.847
235.3380, 6574.000
236.5560, 6488.000
237.7730, 6437.000
238.9900, 6493.000
240.2070, 6522.000
241.4240, 6397.000
242.6410, 6374.000
243.8570, 6319.000
245.0730, 6388.000
246.2900, 6381.000
247.5060, 6445.000
248.7210, 6577.000
249.9370, 6544.000
251.1530, 6503.000
252.3680, 6437.000
253.5830, 6492.313
254.7980, 6557.051
256.0130, 6584.343
257.2280, 6575.802
258.4430, 6446.500
259.6570, 6456.027
260.8720, 6399.429
262.0860, 6332.991
263.3000, 6340.699
264.5130, 6137.000
265.7270, 6296.000
266.9410, 6318.000
268.1540, 6227.000
269.3670, 6153.000
270.5800, 6118.000
271.7930, 6117.000
273.0060, 6095.559
274.2190, 6165.000
275.4310, 6125.000
276.6430, 6194.000
277.8550, 6252.000
279.0670, 6201.000
280.2790, 6247.000
281.4910, 6239.000
282.7020, 6159.000
283.9140, 6303.000
285.1250, 6337.000
286.3360, 6458.000
287.5470, 6412.000
288.7570, 6423.000
289.9680, 6483.000
291.1780, 6483.000
292.3880, 6467.000
293.5990, 6606.000
294.8080, 6657.000
296.0180, 6656.000
297.2280, 6714.000
298.4370, 6761.000
299.6470, 6880.000
300.8560, 6806.000
302.0650, 6902.000
303.2740, 6907.000
304.4820, 6798.000
305.6910, 6784.000
306.8990, 6843.000
308.1070, 6736.000
309.3150, 6722.000
310.5230, 6708.000
311.7310, 6660.000
312.9390, 6631.000
314.1460, 6556.000
315.3530, 6560.000
316.5600, 6358.000
317.7670, 6467.000
318.9740, 6348.000
320.1810, 6264.000
321.3870, 6261.000
322.5930, 6222.118
323.8000, 6200.000
325.0060, 6252.000
326.2110, 6241.000
327.4170, 6282.000
328.6230, 6184.000
329.8280, 6217.000
331.0330, 6192.000
332.2380, 6231.000
333.4430, 6118.000
334.6480, 6128.000
335.8530, 6158.000
337.0570, 6122.000
338.2610, 6191.000
339.4650, 6158.000
340.6690, 6157.000
341.8730, 6123.000
343.0770, 6196.000
344.2800, 6259.000
345.4840, 6283.000
346.6870, 6254.000
347.8900, 6369.000
349.0930, 6500.000
350.2950, 6378.000
351.4980, 6516.000
352.7000, 6628.000
353.9030, 6742.000
355.1050, 6760.000
356.3070, 6828.000
357.5080, 7057.000
358.7100, 6987.000
359.9110, 7061.000
361.1130, 6999.000
362.3140, 7014.353
363.5150, 6985.000
364.7160, 6997.000
365.9160, 6906.000
367.1170, 6828.000
368.3170, 6723.000
369.5170, 6741.000
370.7170, 6738.000
371.9170, 6686.000
373.1170, 6568.000
374.3170, 6535.000
375.5160, 6474.000
376.7150, 6389.000
377.9140, 6491.000
379.1130, 6480.000
380.3120, 6457.000
381.5110, 6400.000
382.7090, 6427.000
383.9070, 6488.000
385.1060, 6406.000
386.3040, 6570.000
387.5010, 6514.036
388.6990, 6524.748
389.8970, 6477.000
391.0940, 6515.000
392.2910, 6461.000
393.4880, 6466.000
394.6850, 6400.000
395.8820, 6429.000
397.0780, 6330.000
398.2750, 6439.000
399.4710, 6436.000
400.6670, 6405.000
401.8630, 6479.000
403.0590, 6396.000
404.2540, 6359.000
405.4500, 6348.000
406.6450, 6332.000
407.8400, 6344.308
409.0350, 6368.000
410.2300, 6373.000
411.4250, 6416.000
412.6190, 6399.000
413.8140, 6356.000
415.0080, 6488.000
416.2020, 6376.000
417.3960, 6437.000
418.5900, 6495.000
419.7830, 6580.000
420.9770, 6645.071
422.1700, 6714.983
423.3630, 6791.000
424.5560, 6861.000
425.7490, 6925.000
426.9410, 7012.000
428.1340, 7078.868
429.3260, 7107.000
430.5180, 7218.000
431.7100, 7272.000
432.9020, 7322.000
434.0940, 7501.000
435.2850, 7569.000
436.4770, 7586.000
437.6680, 7553.000
438.8590, 7643.000
440.0500, 7708.000
441.2410, 7537.000
442.4310, 7501.089
443.6220, 7450.000
444.8120, 7247.000
446.0020, 7114.000
447.1920, 7062.000
448.3820, 6932.000
449.5710, 6790.000
450.7610, 6710.000
451.9500, 6722.000
453.1390, 6615.000
454.3280, 6609.000
455.5170, 6540.000
456.7060, 6518.000
457.8940, 6512.000
459.0830, 6480.000
460.2710, 6465.309
461.4590, 6465.000
462.6470, 6438.000
463.8350, 6396.000
465.0220, 6408.000
466.2100, 6470.000
467.3970, 6337.000
468.5840, 6411.000
469.7710, 6469.000
470.9580, 6424.000
472.1440, 6468.000
473.3310, 6452.000
474.5170, 6533.000
475.7030, 6502.000
476.8890, 6481.000
478.0750, 6554.000
479.2610, 6642.000
480.4460, 6703.000
481.6320, 6771.000
482.8170, 6823.000
484.0020, 6879.000
485.1870, 6809.000
486.3710, 6853.000
487.5560, 6991.000
488.7400, 6937.000
489.9250, 7076.000
491.1090, 7056.000
492.2930, 7077.000
493.4760, 7134.000
494.6600, 7064.000
495.8440, 7110.000
497.0270, 7016.000
498.2100, 6962.000
499.3930, 6915.000
500.5760, 6872.000
501.7580, 6836.000
502.9410, 6828.000
504.1230, 6682.000
505.3060, 6744.000
506.4880, 6693.000
507.6690, 6758.000
508.8510, 6683.000
510.0330, 6747.000
511.2140, 6870.000
512.3950, 6751.000
513.5760, 6844.000
514.7570, 6875.000
515.9380, 6994.000
517.1190, 7038.000
518.2990, 7086.000
519.4800, 7295.000
520.6600, 7332.000
521.8400, 7484.000
523.0190, 7543.000
524.1990, 7667.000
525.3790, 7784.000
526.5580, 7841.000
527.7370, 8103.000
528.9160, 8252.000
530.0950, 8211.000
531.2740, 8332.000
532.4520, 8206.573
533.6310, 8237.139
534.8090, 8237.771
535.9870, 8210.050
537.1650, 7992.000
538.3430, 8082.000
539.5200, 7939.000
540.6980, 7866.000
541.8750, 7878.000
543.0520, 7930.000
544.2290, 7899.000
545.4060, 7860.000
546.5820, 7817.000
547.7590, 7870.000
548.9350, 7818.260
550.1110, 7897.000
551.2870, 7778.000
552.4630, 7753.000
553.6390, 7726.000
554.8140, 7728.000
555.9900, 7759.000
557.1650, 7856.000
558.3400, 7724.000
559.5150, 7746.000
560.6900, 7674.000
561.8640, 7552.000
563.0390, 7460.000
564.2130, 7356.000
565.3870, 7416.000
566.5610, 7426.000
567.7350, 7412.000
568.9080, 7396.865
570.0820, 7294.000
571.2550, 7265.000
572.4280, 7191.000
573.6010, 7149.195
574.7740, 7124.000
575.9470, 7094.000
577.1190, 7045.086
578.2920, 7050.000
579.4640, 7000.000
580.6360, 6962.000
581.8080, 6960.000
582.9790, 6925.000
584.1510, 6914.000
585.3220, 6951.000
586.4940, 6866.000
587.6650, 6952.000
588.8360, 6884.000
590.0060, 6973.000
591.1770, 6825.000
592.3470, 6938.000
593.5180, 6979.000
594.6880, 7236.000
595.8580, 7074.000
597.0280, 7151.000
598.1970, 7185.000
599.3670, 7268.000
600.5360, 7394.000
601.7050, 7505.000
602.8740, 7565.000
604.0430, 7603.000
605.2120, 7712.000
606.3800, 7771.000
607.5490, 7839.000
608.7170, 7856.000
609.8850, 7784.000
611.0530, 7717.000
612.2210, 7724.000
613.3880, 7717.000
614.5560, 7695.000
615.7230, 7659.000
616.8900, 7728.000
618.0570, 7677.000
619.2240, 7826.000
620.3900, 7767.000
621.5570, 7908.000
622.7230, 7998.000
623.8890, 8150.000
625.0550, 8314.000
626.2210, 8636.000
627.3870, 8635.000
628.5520, 8996.000
629.7180, 9400.000
630.8830, 9820.000
632.0480, 10480.00
633.2130, 11040.00
634.3770, 11565.00
635.5420, 12257.00
636.7060, 13140.00
637.8710, 13682.00
639.0350, 14659.00
640.1990, 15446.00
641.3620, 16078.00
642.5260, 16691.00
643.6890, 16861.00
644.8530, 16875.00
646.0160, 16894.00
647.1790, 16307.00
648.3410, 15747.00
649.5040, 15266.00
650.6670, 14500.00
651.8290, 13712.00
652.9910, 13316.00
654.1530, 12742.00
655.3150, 11985.00
656.4770, 11727.00
657.6380, 11227.00
658.7990, 10733.00
659.9610, 10384.00
661.1220, 10119.00
662.2830, 9914.000
663.4430, 9609.000
664.6040, 9407.000
665.7640, 9317.000
666.9240, 9278.000
668.0850, 9285.000
669.2440, 9312.973
670.4040, 9437.000
671.5640, 9489.000
672.7230, 9641.000
673.8830, 9811.000
675.0420, 9916.000
676.2010, 9999.000
677.3590, 10049.00
678.5180, 9963.000
679.6770, 9900.000
680.8350, 9789.000
681.9930, 9830.000
683.1510, 9911.000
684.3090, 9919.000
685.4670, 10005.00
686.6240, 9838.000
687.7810, 9839.000
688.9390, 9786.000
690.0960, 9468.000
691.2530, 9214.000
692.4090, 8971.000
693.5660, 8611.000
694.7220, 8424.000
695.8790, 8144.506
697.0350, 7918.132
698.1910, 7745.000
699.3460, 7525.000
700.5020, 7518.000
701.6570, 7387.000
702.8130, 7289.000
703.9680, 7239.000
705.1230, 7125.000
706.2780, 7046.000
707.4320, 7034.000
708.5870, 6962.000
709.7410, 6956.000
710.8950, 6887.000
712.0490, 6863.000
713.2030, 6807.000
714.3570, 6756.000
715.5100, 6825.000
716.6640, 6741.000
717.8170, 6799.000
718.9700, 6777.000
720.1230, 6755.720
721.2760, 6726.000
722.4280, 6707.000
723.5810, 6664.000
724.7330, 6591.000
725.8850, 6521.000
727.0370, 6541.628
728.1890, 6605.000
729.3400, 6557.000
730.4920, 6645.000
731.6430, 6590.000
732.7940, 6597.000
733.9450, 6587.000
735.0960, 6570.072
736.2460, 6574.000
737.3970, 6544.000
738.5470, 6550.000
739.6970, 6506.000
740.8470, 6478.000
741.9970, 6424.338
743.1470, 6447.832
744.2970, 6458.270
745.4460, 6456.373
746.5950, 6404.391
747.7440, 6417.682
748.8930, 6405.181
750.0420, 6391.874
751.1900, 6415.104
752.3390, 6371.752
753.4870, 6394.930
754.6350, 6391.917
755.7830, 6401.272
756.9310, 6384.672
758.0780, 6376.434
759.2260, 6394.677
760.3730, 6398.664
761.5200, 6380.092
762.6670, 6391.785
763.8140, 6332.000
764.9610, 6332.601
766.1070, 6337.000
767.2530, 6334.000
768.4000, 6364.000
769.5460, 6388.000
770.6910, 6349.000
771.8370, 6315.000
772.9830, 6278.000
774.1280, 6283.104
775.2730, 6332.000
776.4180, 6310.000
777.5630, 6361.000
778.7080, 6390.000
779.8520, 6349.000
780.9970, 6428.000
782.1410, 6401.000
783.2850, 6405.000
784.4290, 6358.000
785.5730, 6345.000
786.7160, 6304.000
787.8600, 6341.000
789.0030, 6381.000
790.1460, 6413.000
791.2890, 6412.000
792.4320, 6400.242
793.5750, 6273.000
794.7170, 6336.000
795.8590, 6279.000
797.0020, 6245.000
798.1440, 6288.000
799.2850, 6295.000
800.4270, 6347.000
801.5690, 6432.000
802.7100, 6357.000
803.8510, 6443.000
804.9920, 6379.000
806.1330, 6310.000
807.2740, 6334.000
808.4140, 6325.000
809.5550, 6464.000
810.6950, 6370.000
811.8350, 6461.000
812.9750, 6424.000
814.1150, 6413.000
815.2540, 6516.000
816.3940, 6480.000
817.5330, 6507.000
818.6720, 6491.000
819.8110, 6482.000
820.9500, 6520.000
822.0880, 6530.000
823.2270, 6518.000
824.3650, 6531.000
825.5030, 6609.000
826.6410, 6602.300
827.7790, 6638.501
828.9170, 6652.000
830.0540, 6676.000
831.1920, 6708.000
832.3290, 6717.000
833.4660, 6746.000
834.6030, 6744.843
835.7390, 6744.000
836.8760, 6742.000
838.0120, 6751.000
839.1480, 6756.052
840.2840, 6780.293
841.4200, 6835.000
842.5560, 6848.000
843.6920, 6877.597
844.8270, 6935.000
845.9620, 6919.000
847.0970, 6942.000
848.2320, 6986.000
849.3670, 7171.000
850.5020, 7100.000
851.6360, 7269.000
852.7700, 7241.000
853.9040, 7468.000
855.0380, 7587.000
856.1720, 7605.000
857.3060, 7738.000
858.4390, 7833.000
859.5730, 7723.000
860.7060, 7783.000
861.8390, 7682.000
862.9720, 7751.000
864.1040, 7607.000
865.2370, 7584.000
866.3690, 7606.000
867.5010, 7689.000
868.6330, 7683.000
869.7650, 7658.000
870.8970, 7698.000
872.0290, 7737.000
873.1600, 7711.000
874.2910, 7799.000
875.4220, 7861.000
876.5530, 8035.000
877.6840, 8097.000
878.8140, 8193.000
879.9450, 8284.000
881.0750, 8428.000
882.2050, 8600.000
883.3350, 8809.000
884.4650, 8931.000
885.5950, 9074.000
886.7240, 9237.000
887.8530, 9524.000
888.9820, 9763.000
890.1110, 9885.000
891.2400, 9865.000
892.3690, 9957.000
893.4970, 9895.000
894.6260, 9940.000
895.7540, 9560.000
896.8820, 9328.000
898.0100, 9152.000
899.1370, 8902.000
900.2650, 8681.000
901.3920, 8485.000
902.5200, 8331.556
903.6470, 8254.000
904.7730, 8100.000
905.9000, 8011.000
907.0270, 7942.000
908.1530, 7779.000
909.2790, 7745.000
910.4050, 7676.000
911.5310, 7540.000
912.6570, 7596.000
913.7830, 7419.613
914.9080, 7460.000
916.0330, 7222.000
917.1580, 7247.000
918.2830, 7307.000
919.4080, 7215.000
920.5330, 7244.000
921.6570, 7166.000
922.7820, 7168.000
923.9060, 7114.000
925.0300, 7142.000
926.1540, 7036.000
927.2770, 7138.000
928.4010, 7056.000
929.5240, 7063.000
930.6470, 7050.000
931.7700, 7031.064
932.8930, 7044.181
934.0160, 7045.696
935.1380, 7036.338
936.2610, 6978.336
937.3830, 6987.073
938.5050, 6971.469
939.6270, 6956.510
940.7490, 6979.538
941.8700, 6937.442
942.9910, 6963.322
944.1130, 6964.461
945.2340, 6979.417
946.3550, 6969.870
947.4750, 6970.125
948.5960, 6998.318
949.7160, 7013.693
950.8370, 7007.967
951.9570, 7130.000
953.0770, 7154.000
954.1970, 7159.000
955.3160, 7062.000
956.4360, 7091.392
957.5550, 7081.000
958.6740, 7079.000
959.7930, 7246.000
960.9120, 7278.000
962.0310, 7304.000
963.1490, 7353.624
964.2670, 7319.000
965.3860, 7349.000
966.5040, 7319.000
967.6210, 7284.000
968.7390, 7287.000
969.8570, 7328.000
970.9740, 7316.000
972.0910, 7212.000
973.2080, 7285.000
974.3250, 7344.000
975.4420, 7255.000
976.5580, 7478.000
977.6750, 7452.000
978.7910, 7471.000
979.9070, 7551.000
981.0230, 7541.000
982.1390, 7650.000
983.2540, 7785.000
984.3700, 7808.000
985.4850, 7868.000
986.6000, 7976.000
987.7150, 8016.000
988.8300, 8075.000
989.9450, 7931.000
991.0590, 7950.000
992.1730, 7821.000
993.2880, 7710.000
994.4010, 7780.000
995.5150, 7583.000
996.6290, 7563.000
997.7420, 7422.000
998.8560, 7341.000
999.9690, 7367.000
1001.082, 7235.000
1002.195, 7230.000
1003.307, 7308.000
1004.420, 7171.000
1005.532, 7154.000
1006.645, 7153.000
1007.757, 7162.000
1008.868, 7085.000
1009.980, 7173.000
1011.092, 7111.000
1012.203, 7059.000
1013.314, 7224.000
1014.425, 7113.000
1015.536, 7104.000
1016.647, 7223.000
1017.758, 7188.000
1018.868, 7227.000
1019.978, 7218.000
1021.088, 7192.000
1022.198, 7248.000
1023.308, 7201.000
1024.418, 7219.000
1025.527, 7307.000
1026.637, 7245.000
1027.746, 7332.000
1028.855, 7359.000
1029.963, 7495.000
1031.072, 7603.000
1032.181, 7484.000
1033.289, 7635.000
1034.397, 7544.000
1035.505, 7629.000
1036.613, 7571.000
1037.721, 7666.000
1038.828, 7764.000
1039.935, 7646.000
1041.043, 7693.000
1042.150, 7663.000
1043.257, 7519.000
1044.363, 7377.000
1045.470, 7362.000
1046.576, 7393.000
1047.682, 7293.000
1048.788, 7372.000
1049.894, 7114.000
1051.000, 7256.000
1052.106, 7137.000
1053.211, 7182.000
1054.316, 7160.000
1055.421, 7055.000
1056.526, 7139.000
1057.631, 7140.000
1058.736, 7070.000
1059.840, 7132.000
1060.944, 7060.000
1062.049, 7091.000
1063.153, 7046.000
1064.256, 7028.876
1065.360, 6964.000
1066.463, 6996.000
1067.567, 7003.000
1068.670, 6991.000
1069.773, 6984.000
1070.876, 6996.000
1071.978, 6942.000
1073.081, 6848.000
1074.183, 6835.000
1075.285, 6795.000
1076.387, 6802.114
1077.489, 6805.662
1078.591, 6853.000
1079.692, 6842.000
1080.794, 6859.000
1081.895, 6880.000
1082.996, 6857.000
1084.097, 6922.000
1085.198, 6805.000
1086.298, 6833.000
1087.399, 6906.000
1088.499, 6914.000
1089.599, 6839.000
1090.699, 6707.000
1091.799, 6874.000
1092.898, 6826.000
1093.998, 6913.000
1095.097, 6810.000
1096.196, 6815.000
1097.295, 6755.000
1098.394, 6750.178
1099.492, 6737.378
1100.591, 6768.000
1101.689, 6728.000
1102.787, 6746.000
1103.885, 6758.000
1104.983, 6765.000
1106.081, 6743.000
1107.178, 6688.000
1108.275, 6757.000
1109.373, 6756.000
1110.470, 6813.000
1111.566, 6705.000
1112.663, 6705.000
1113.760, 6696.000
1114.856, 6708.000
1115.952, 6685.704
1117.048, 6665.000
1118.144, 6673.000
1119.240, 6693.000
1120.335, 6745.000
1121.431, 6702.000
1122.526, 6768.000
1123.621, 6667.000
1124.716, 6673.000
1125.810, 6682.000
1126.905, 6727.000
1127.999, 6670.000
1129.094, 6658.000
1130.188, 6603.000
1131.282, 6585.000
1132.375, 6696.000
1133.469, 6664.000
1134.562, 6599.000
1135.656, 6745.000
1136.749, 6716.000
1137.842, 6778.000
1138.935, 6648.000
1140.027, 6701.000
1141.120, 6662.000
1142.212, 6673.000
1143.304, 6674.000
1144.396, 6674.000
1145.488, 6631.000
1146.579, 6602.000
1147.671, 6598.000
1148.762, 6600.236
1149.853, 6716.000
1150.944, 6638.000
1152.035, 6710.000
1153.126, 6728.000
1154.216, 6706.000
1155.307, 6690.000
1156.397, 6683.426
1157.487, 6698.000
1158.577, 6666.000
1159.667, 6658.000
1160.756, 6680.000
1161.846, 6718.000
1162.935, 6744.000
1164.024, 6729.000
1165.113, 6729.000
1166.201, 6773.000
1167.290, 6682.000
1168.378, 6794.000
1169.467, 6649.000
1170.555, 6713.000
1171.643, 6711.000
1172.730, 6786.000
1173.818, 6758.000
1174.905, 6801.000
1175.993, 6804.000
1177.080, 6866.000
1178.167, 6802.000
1179.254, 6884.000
1180.340, 6780.000
1181.427, 6845.000
1182.513, 6919.000
1183.599, 6795.000
1184.685, 6867.000
1185.771, 6915.000
1186.856, 6904.000
1187.942, 6924.000
1189.027, 6810.000
1190.112, 6925.000
1191.197, 6934.000
1192.282, 7026.000
1193.367, 6917.000
1194.451, 6907.000
1195.536, 6872.000
1196.620, 7005.000
1197.704, 7086.000
1198.788, 7000.000
1199.872, 6907.000
1200.955, 7007.000
1202.039, 7033.000
1203.122, 6977.000
1204.205, 7083.000
1205.288, 7057.000
1206.370, 7062.000
1207.453, 7068.000
1208.535, 7068.000
1209.618, 7078.000
1210.700, 7066.362
1211.782, 7065.815
1212.863, 7035.000
1213.945, 7059.000
1215.026, 7028.000
1216.108, 7036.000
1217.189, 6984.000
1218.270, 7005.000
1219.351, 7020.000
1220.431, 7029.000
1221.512, 6949.000
1222.592, 7070.000
1223.672, 7021.000
1224.752, 6937.000
1225.832, 6965.000
1226.911, 6836.000
1227.991, 6894.000
1229.070, 6961.000
1230.149, 6835.000
1231.228, 6975.000
1232.307, 6867.000
1233.386, 6953.000
1234.464, 6891.000
1235.543, 6758.000
1236.621, 6916.000
1237.699, 7073.000
1238.777, 6825.000
1239.855, 6926.000
1240.932, 7002.000
1242.009, 6943.000
1243.087, 6927.000
1244.164, 7002.000
1245.241, 6907.000
1246.317, 7011.000
1247.394, 6944.000
1248.470, 6955.000
1249.546, 6988.000
1250.623, 7079.000
1251.698, 6954.000
1252.774, 7047.000
1253.850, 7024.000
1254.925, 7044.000
1256.000, 7196.000
1257.076, 7101.000
1258.150, 7084.000
1259.225, 7151.000
1260.300, 7228.000
1261.374, 7126.000
1262.449, 7172.338
1263.523, 7079.000
1264.597, 7132.000
1265.670, 7147.000
1266.744, 7131.000
1267.818, 7223.000
1268.891, 7264.000
1269.964, 7329.000
1271.037, 7294.000
1272.110, 7242.000
1273.183, 7356.000
1274.255, 7434.000
1275.327, 7385.000
1276.400, 7427.000
1277.472, 7401.000
1278.543, 7499.000
1279.615, 7495.000
1280.687, 7537.000
1281.758, 7657.000
1282.829, 7568.000
1283.900, 7660.000
1284.971, 7705.000
1286.042, 7751.000
1287.112, 7757.000
1288.183, 7809.000
1289.253, 7794.000
1290.323, 7808.006
1291.393, 7853.000
1292.463, 7809.000
1293.532, 7800.000
1294.602, 7803.000
1295.671, 7891.000
1296.740, 7911.000
1297.809, 7901.000
1298.878, 7862.000
1299.946, 7849.000
1301.015, 7832.000
1302.083, 7828.000
1303.151, 7832.290
1304.219, 7930.970
1305.287, 7862.000
1306.354, 7869.000
1307.422, 7902.360
1308.489, 7849.815
1309.556, 7857.000
1310.623, 7772.000
1311.690, 7800.000
1312.757, 7706.000
1313.823, 7897.000
1314.890, 7791.000
1315.956, 7812.000
1317.022, 7682.000
1318.088, 7737.000
1319.153, 7746.000
1320.219, 7734.000
1321.284, 7784.000
1322.349, 7666.000
1323.414, 7785.000
1324.479, 7704.000
1325.544, 7718.000
1326.608, 7697.000
1327.673, 7722.000
1328.737, 7640.000
1329.801, 7664.000
1330.865, 7601.000
1331.929, 7729.000
1332.992, 7537.000
1334.056, 7644.000
1335.119, 7644.000
1336.182, 7629.000
1337.245, 7572.000
1338.308, 7569.000
1339.370, 7505.000
1340.433, 7536.000
1341.495, 7538.000
1342.557, 7530.000
1343.619, 7446.000
1344.681, 7463.000
1345.742, 7379.000
1346.804, 7492.000
1347.865, 7435.000
1348.926, 7450.000
1349.987, 7361.000
1351.048, 7419.000
1352.108, 7305.000
1353.169, 7347.000
1354.229, 7320.551
1355.289, 7274.374
1356.349, 7307.000
1357.409, 7229.000
1358.469, 7252.000
1359.528, 7268.000
1360.588, 7268.000
1361.647, 7106.000
1362.706, 7297.000
1363.765, 7170.000
1364.823, 7268.000
1365.882, 7214.000
1366.940, 7204.000
1367.998, 7245.000
1369.056, 7193.000
1370.114, 7117.000
1371.172, 7221.000
1372.229, 7149.000
1373.287, 7197.000
1374.344, 7043.000
1375.401, 7145.000
1376.458, 7171.000
1377.515, 7114.000
1378.571, 7163.000
1379.628, 7116.528
1380.684, 7157.000
1381.740, 7047.000
1382.796, 7059.000
1383.852, 7023.000
1384.907, 7053.000
1385.963, 7057.000
1387.018, 7086.000
1388.073, 7081.607
1389.128, 7021.000
1390.183, 7066.000
1391.237, 7113.000
1392.292, 7097.000
1393.346, 7001.000
1394.400, 7134.000
1395.454, 6970.000
1396.508, 7043.000
1397.562, 6995.000
1398.615, 7040.000
1399.668, 7020.000
1400.722, 6996.000
1401.775, 7067.000
1402.827, 7099.000
1403.880, 7055.000
1404.933, 6938.000
1405.985, 7029.000
1407.037, 7005.000
1408.089, 6993.000
1409.141, 7012.000
1410.193, 6987.118
1411.244, 7082.000
1412.295, 6954.000
1413.347, 7052.000
1414.398, 7021.000
1415.449, 6999.000
1416.499, 6999.000
1417.550, 6988.000
1418.600, 6976.000
1419.650, 6968.000
1420.700, 6966.629
1421.750, 6940.000
1422.800, 6954.000
1423.850, 6969.000
1424.899, 6932.000
1425.948, 6933.000
1426.997, 7036.000
1428.046, 7001.000
1429.095, 6983.000
1430.144, 7079.000
1431.192, 6995.000
1432.240, 7037.000
1433.288, 7052.000
1434.336, 6974.000
1435.384, 6967.000
1436.432, 7024.000
1437.479, 6972.000
1438.526, 6955.000
1439.574, 6920.000
1440.621, 7046.000
1441.667, 7033.000
1442.714, 7091.000
1443.760, 7095.312
1444.807, 7060.000
1445.853, 7046.000
1446.899, 7023.000
1447.945, 7018.691
1448.990, 7006.222
1450.036, 7014.000
1451.081, 7019.000
1452.126, 7004.000
1453.171, 7068.000
1454.216, 7062.000
1455.261, 7062.000
1456.305, 7036.000
1457.350, 7057.000
1458.394, 7090.000
1459.438, 7101.000
1460.482, 7147.000
1461.526, 7034.000
1462.569, 7073.000
1463.612, 7087.000
1464.656, 6963.000
1465.699, 7005.000
1466.742, 7114.000
1467.784, 7097.000
1468.827, 7136.000
1469.869, 7153.771
1470.912, 7100.000
1471.954, 7167.000
1472.996, 7143.000
1474.037, 7172.000
1475.079, 7169.143
1476.120, 7160.000
1477.162, 7153.000
1478.203, 7118.000
1479.244, 7120.000
1480.284, 7197.000
1481.325, 7159.000
1482.365, 7214.000
1483.406, 7129.000
1484.446, 7243.000
1485.486, 7216.183
1486.526, 7257.346
1487.565, 7163.000
1488.605, 7321.000
1489.644, 7161.000
1490.683, 7114.000
1491.722, 7129.000
1492.761, 7332.000
1493.800, 7292.000
1494.838, 7234.000
1495.876, 7319.000
1496.915, 7307.000
1497.953, 7347.000
1498.990, 7374.995
1500.028, 7373.252
1501.066, 7371.000
1502.103, 7380.000
1503.140, 7283.000
1504.177, 7267.000
1505.214, 7258.025
1506.251, 7234.541
1507.287, 7263.000
1508.324, 7274.000
1509.360, 7302.000
1510.396, 7386.000
1511.432, 7441.000
1512.468, 7365.000
1513.503, 7469.000
1514.538, 7389.000
1515.574, 7267.000
1516.609, 7458.000
1517.644, 7356.000
1518.678, 7370.000
1519.713, 7493.000
1520.747, 7493.000
1521.782, 7439.000
1522.816, 7531.000
1523.850, 7579.000
1524.883, 7508.000
1525.917, 7544.000
1526.951, 7452.000
1527.984, 7642.000
1529.017, 7609.000
1530.050, 7621.000
1531.083, 7530.000
1532.115, 7679.000
1533.148, 7572.000
1534.180, 7600.000
1535.212, 7572.000
1536.244, 7645.000
1537.276, 7755.000
1538.308, 7693.000
1539.339, 7834.000
1540.370, 7621.000
1541.402, 7588.000
1542.433, 7780.000
1543.463, 7679.000
1544.494, 7737.000
1545.525, 7774.000
1546.555, 7615.000
##END=



