##NAMES=Aenigmatite
##RRUFFID=R061088
##IDEAL CHEMISTRY=Na_4_(Fe^2+^_10_Ti^4+^_2_)O_4_[Si_12_O_36_]
##LOCALITY=Naujakasik, Greenland
##OWNER=RRUFF
##SOURCE=Michael Scott
##DESCRIPTION=Black prismatic crystals
##STATUS=The identification of this mineral has been confirmed by X-ray diffraction and chemical analysis
##URL=rruff.info/R061088
##MEASURED CHEMISTRY=(Na_1.72_Ca_0.28_)_Σ=2_(Fe^2+^_4.90_Mn_0.08_Mg_0.02_)_Σ=5_(Ti_0.85_Al_0.14_Fe^3+^_0.01_)_Σ=1_(Si_5.87_Al_0.13_)_Σ=6_O_20_
##PIN_ID=L01392
##ORIENTATION=Laser parallel to (1 0 1). Fiducial mark perpendicular to laser is parallel to b [0 1 0]
180.8640, 17304.00
182.0960, 17153.00
183.3280, 17173.71
184.5600, 17468.81
185.7910, 17685.20
187.0220, 17827.17
188.2540, 17671.97
189.4840, 17900.45
190.7150, 17975.18
191.9460, 18043.61
193.1760, 18326.11
194.4060, 18312.00
195.6360, 18428.00
196.8660, 18603.00
198.0960, 18889.07
199.3250, 19041.00
200.5540, 19646.00
201.7830, 20185.00
203.0120, 20730.00
204.2400, 20029.00
205.4690, 18895.00
206.6970, 17872.00
207.9250, 17077.07
209.1530, 17071.18
210.3800, 16986.79
211.6080, 16827.85
212.8350, 16371.79
214.0620, 16299.59
215.2880, 16073.71
216.5150, 15841.37
217.7410, 15823.35
218.9680, 15410.52
220.1940, 15389.11
221.4190, 14978.00
222.6450, 14595.00
223.8700, 14359.00
225.0960, 14124.00
226.3210, 14121.00
227.5450, 14022.00
228.7700, 13910.00
229.9940, 13870.00
231.2190, 13904.00
232.4430, 13834.00
233.6660, 13874.00
234.8900, 13967.00
236.1140, 13911.00
237.3370, 14025.00
238.5600, 13887.00
239.7830, 13932.00
241.0050, 13826.00
242.2280, 13743.42
243.4500, 13748.00
244.6720, 13579.00
245.8940, 13431.00
247.1160, 13393.00
248.3370, 13176.00
249.5580, 13206.00
250.7790, 13146.00
252.0000, 13198.00
253.2210, 13159.00
254.4410, 13029.66
255.6620, 13150.50
256.8820, 13192.75
258.1020, 13160.60
259.3210, 12831.22
260.5410, 12885.66
261.7600, 12786.31
262.9790, 12680.65
264.1980, 12789.17
265.4170, 12503.03
266.6360, 12608.14
267.8540, 12557.12
269.0720, 12577.59
270.2900, 12255.00
271.5080, 12206.00
272.7260, 12344.00
273.9430, 12304.00
275.1600, 12408.82
276.3770, 12651.00
277.5940, 12577.00
278.8100, 12515.00
280.0270, 12530.00
281.2430, 12335.00
282.4590, 12425.00
283.6750, 12382.00
284.8910, 12701.00
286.1060, 12878.00
287.3210, 13028.00
288.5360, 13279.00
289.7510, 13367.00
290.9660, 13496.00
292.1800, 13788.00
293.3950, 13999.00
294.6090, 14222.00
295.8230, 14440.00
297.0360, 14635.00
298.2500, 14601.00
299.4630, 14878.00
300.6760, 14976.00
301.8890, 15240.00
303.1020, 15147.00
304.3150, 15326.00
305.5270, 15302.00
306.7390, 15228.00
307.9510, 15190.00
309.1630, 15103.48
310.3750, 15040.76
311.5860, 14947.57
312.7970, 14825.46
314.0080, 14587.77
315.2190, 14499.32
316.4300, 14351.06
317.6400, 14200.46
318.8510, 14133.03
320.0610, 13912.25
321.2710, 13843.61
322.4800, 13714.34
323.6900, 13363.68
324.8990, 13266.00
326.1080, 12863.00
327.3170, 12677.00
328.5260, 12550.00
329.7340, 12275.00
330.9430, 12001.91
332.1510, 11714.00
333.3590, 11432.00
334.5670, 11334.00
335.7740, 11247.00
336.9820, 10995.00
338.1890, 10934.00
339.3960, 10827.00
340.6030, 10679.00
341.8100, 10670.29
343.0160, 10452.00
344.2220, 10605.00
345.4280, 10552.00
346.6340, 10492.00
347.8400, 10407.00
349.0460, 10528.00
350.2510, 10422.00
351.4560, 10584.00
352.6610, 10632.00
353.8660, 10540.00
355.0700, 10633.00
356.2750, 10621.12
357.4790, 10703.00
358.6830, 10665.00
359.8870, 10732.00
361.0910, 10766.00
362.2940, 10770.00
363.4970, 10722.00
364.7000, 10893.00
365.9030, 10935.00
367.1060, 10850.00
368.3080, 10828.00
369.5110, 10700.00
370.7130, 10900.00
371.9150, 10788.00
373.1170, 10961.00
374.3180, 10930.00
375.5200, 10970.00
376.7210, 10882.00
377.9220, 10974.00
379.1230, 11030.00
380.3230, 11188.00
381.5240, 11273.00
382.7240, 11367.00
383.9240, 11321.00
385.1240, 11491.00
386.3240, 11483.00
387.5230, 11535.00
388.7230, 11652.00
389.9220, 11756.00
391.1210, 11822.00
392.3200, 11880.00
393.5180, 11986.00
394.7170, 12056.00
395.9150, 12217.00
397.1130, 12355.00
398.3110, 12441.00
399.5080, 12652.00
400.7060, 12597.00
401.9030, 12768.00
403.1000, 12712.00
404.2970, 12726.00
405.4940, 12831.00
406.6910, 12746.00
407.8870, 12607.00
409.0830, 12655.00
410.2790, 12487.00
411.4750, 12278.00
412.6710, 12315.00
413.8660, 12311.00
415.0610, 12131.00
416.2560, 12127.00
417.4510, 11953.00
418.6460, 12081.00
419.8410, 12176.00
421.0350, 12158.00
422.2290, 12330.00
423.4230, 12394.00
424.6170, 12508.00
425.8100, 12445.00
427.0040, 12702.00
428.1970, 12675.00
429.3900, 12764.00
430.5830, 12874.00
431.7760, 12846.00
432.9680, 12738.00
434.1610, 12872.00
435.3530, 12685.00
436.5450, 12582.00
437.7360, 12551.00
438.9280, 12388.00
440.1190, 12392.00
441.3110, 12320.00
442.5020, 12162.00
443.6930, 12198.00
444.8830, 12042.00
446.0740, 12128.00
447.2640, 11984.00
448.4540, 11969.00
449.6440, 11832.00
450.8340, 11794.00
452.0240, 11744.23
453.2130, 11762.00
454.4020, 11673.00
455.5910, 11607.00
456.7800, 11600.00
457.9690, 11558.02
459.1570, 11558.00
460.3460, 11535.00
461.5340, 11459.00
462.7220, 11433.00
463.9090, 11345.00
465.0970, 11412.00
466.2840, 11379.00
467.4720, 11504.00
468.6590, 11425.00
469.8460, 11554.00
471.0320, 11614.00
472.2190, 11658.00
473.4050, 11714.00
474.5910, 11784.61
475.7770, 11881.00
476.9630, 11910.00
478.1490, 11957.00
479.3340, 11973.00
480.5190, 12041.00
481.7040, 12163.00
482.8890, 12232.00
484.0740, 12237.00
485.2580, 12305.19
486.4430, 12135.67
487.6270, 12251.04
488.8110, 12292.00
489.9950, 12035.68
491.1780, 12163.22
492.3620, 12248.00
493.5450, 12176.00
494.7280, 12291.00
495.9110, 12390.00
497.0940, 12224.00
498.2760, 12078.30
499.4590, 12240.13
500.6410, 12323.34
501.8230, 12332.14
503.0050, 12043.67
504.1860, 12139.08
505.3680, 12080.65
506.5490, 12015.92
507.7300, 12067.29
508.9110, 12153.00
510.0920, 12091.00
511.2730, 12206.00
512.4530, 12264.00
513.6330, 12261.00
514.8130, 12367.00
515.9930, 12394.00
517.1730, 12478.00
518.3520, 12579.87
519.5320, 12527.68
520.7110, 12791.23
521.8900, 12976.14
523.0690, 13086.64
524.2470, 12899.81
525.4260, 13096.90
526.6040, 13140.08
527.7820, 13321.00
528.9600, 13400.00
530.1380, 13454.00
531.3150, 13514.00
532.4930, 13405.00
533.6700, 13489.00
534.8470, 13375.00
536.0240, 13152.00
537.2000, 13131.00
538.3770, 13009.28
539.5530, 12828.94
540.7290, 12841.93
541.9050, 12825.16
543.0810, 12689.49
544.2570, 12616.00
545.4320, 12574.64
546.6080, 12463.96
547.7830, 12502.17
548.9580, 12510.62
550.1320, 12520.98
551.3070, 12414.34
552.4810, 12455.79
553.6550, 12467.46
554.8300, 12360.24
556.0030, 12406.55
557.1770, 12391.33
558.3510, 12373.59
559.5240, 12441.51
560.6970, 12351.58
561.8700, 12419.68
563.0430, 12408.94
564.2160, 12375.12
565.3880, 12362.22
566.5600, 12307.00
567.7320, 12310.00
568.9040, 12267.00
570.0760, 12250.00
571.2480, 12137.00
572.4190, 12129.00
573.5900, 12174.00
574.7610, 11982.00
575.9320, 11991.00
577.1030, 11672.00
578.2740, 11774.00
579.4440, 11628.00
580.6140, 11636.00
581.7840, 11563.00
582.9540, 11496.00
584.1240, 11276.00
585.2930, 11310.00
586.4630, 11114.00
587.6320, 11257.00
588.8010, 11133.00
589.9700, 11178.00
591.1380, 11271.00
592.3070, 11361.00
593.4750, 11378.00
594.6430, 11728.00
595.8110, 11656.00
596.9790, 11990.00
598.1460, 12112.15
599.3140, 12508.00
600.4810, 12394.00
601.6480, 12573.00
602.8150, 12650.00
603.9820, 12766.00
605.1480, 12706.00
606.3150, 12884.00
607.4810, 13016.00
608.6470, 13363.14
609.8130, 13245.09
610.9790, 13174.99
612.1440, 13106.00
613.3100, 12996.64
614.4750, 12808.00
615.6400, 12860.00
616.8050, 12788.00
617.9690, 12848.65
619.1340, 12869.38
620.2980, 12888.09
621.4620, 12906.41
622.6260, 12835.20
623.7900, 12946.91
624.9540, 13186.00
626.1170, 13404.00
627.2810, 13698.00
628.4440, 14128.00
629.6070, 14489.00
630.7690, 15075.00
631.9320, 15604.00
633.0950, 16491.00
634.2570, 17474.00
635.4190, 18249.00
636.5810, 19293.46
637.7430, 20305.38
638.9040, 21284.00
640.0660, 22341.00
641.2270, 23289.00
642.3880, 24063.00
643.5490, 24870.00
644.7100, 25174.00
645.8700, 25598.00
647.0310, 25486.00
648.1910, 25489.00
649.3510, 25006.00
650.5110, 24551.00
651.6710, 23847.00
652.8300, 23290.00
653.9900, 22375.00
655.1490, 21458.00
656.3080, 20987.00
657.4670, 20325.00
658.6250, 19475.00
659.7840, 19258.00
660.9420, 18902.00
662.1010, 18516.00
663.2590, 18352.00
664.4170, 18400.80
665.5740, 18578.00
666.7320, 18837.00
667.8890, 18996.85
669.0460, 19123.00
670.2030, 19459.00
671.3600, 19828.00
672.5170, 20072.21
673.6740, 20260.63
674.8300, 20470.00
675.9860, 20413.00
677.1420, 20448.00
678.2980, 20284.00
679.4540, 20002.00
680.6090, 19741.00
681.7650, 19367.00
682.9200, 18863.00
684.0750, 18273.00
685.2300, 17895.00
686.3840, 17551.00
687.5390, 17139.00
688.6930, 16858.00
689.8470, 16354.00
691.0010, 16091.00
692.1550, 15660.00
693.3090, 15271.00
694.4620, 14736.00
695.6160, 14292.00
696.7690, 14092.00
697.9220, 13712.00
699.0750, 13422.67
700.2280, 13192.18
701.3800, 12912.00
702.5320, 12738.00
703.6850, 12623.00
704.8370, 12453.10
705.9880, 12480.88
707.1400, 12535.00
708.2920, 12507.00
709.4430, 12489.00
710.5940, 12359.00
711.7450, 12278.00
712.8960, 12140.00
714.0470, 12127.00
715.1970, 12161.00
716.3480, 12102.00
717.4980, 12001.00
718.6480, 11859.00
719.7980, 11646.00
720.9470, 11803.00
722.0970, 11646.00
723.2460, 11547.00
724.3960, 11698.00
725.5450, 11707.00
726.6940, 11781.00
727.8420, 11780.00
728.9910, 11832.00
730.1390, 12126.00
731.2870, 12030.00
732.4350, 12144.00
733.5830, 12104.00
734.7310, 12123.00
735.8790, 11964.00
737.0260, 11957.00
738.1730, 11901.00
739.3200, 11799.00
740.4670, 11482.00
741.6140, 11418.00
742.7610, 11254.00
743.9070, 11104.00
745.0530, 11007.00
746.1990, 10914.00
747.3450, 10970.00
748.4910, 10809.00
749.6370, 10783.00
750.7820, 10649.00
751.9270, 10778.00
753.0720, 10657.00
754.2170, 10684.00
755.3620, 10680.00
756.5070, 10654.27
757.6510, 10731.93
758.7950, 10778.14
759.9400, 10794.58
761.0840, 10692.12
762.2270, 10743.19
763.3710, 10732.74
764.5140, 10719.76
765.6580, 10792.45
766.8010, 10707.27
767.9440, 10778.60
769.0870, 10787.45
770.2290, 10784.00
771.3720, 10762.00
772.5140, 10729.00
773.6560, 10774.00
774.7990, 10775.00
775.9400, 10659.00
777.0820, 10772.00
778.2240, 10642.00
779.3650, 10773.00
780.5060, 10687.00
781.6470, 10728.00
782.7880, 10656.00
783.9290, 10756.00
785.0690, 10643.00
786.2100, 10728.52
787.3500, 10804.04
788.4900, 10848.11
789.6300, 10862.41
790.7700, 10757.80
791.9090, 10806.74
793.0490, 10794.15
794.1880, 10779.03
795.3270, 10849.58
796.4660, 10762.26
797.6050, 10780.00
798.7440, 10752.00
799.8820, 10821.00
801.0200, 10860.00
802.1590, 10823.00
803.2970, 10823.00
804.4340, 10921.00
805.5720, 11039.00
806.7100, 11022.00
807.8470, 10920.00
808.9840, 11043.18
810.1210, 11075.11
811.2580, 11146.00
812.3950, 11205.00
813.5310, 11200.00
814.6680, 11089.00
815.8040, 11281.00
816.9400, 11345.00
818.0760, 11543.00
819.2120, 11559.00
820.3470, 11594.00
821.4830, 11742.00
822.6180, 11967.00
823.7530, 12030.00
824.8880, 12131.00
826.0230, 12238.00
827.1580, 12312.00
828.2920, 12411.00
829.4270, 12516.00
830.5610, 12623.00
831.6950, 12675.00
832.8290, 12695.00
833.9620, 12686.00
835.0960, 12655.00
836.2290, 12646.00
837.3620, 12656.00
838.4950, 12592.00
839.6280, 12357.00
840.7610, 12331.00
841.8940, 12290.00
843.0260, 12197.00
844.1580, 12364.00
845.2910, 12189.00
846.4230, 12501.00
847.5540, 12306.00
848.6860, 12330.00
849.8170, 12543.00
850.9490, 12434.00
852.0800, 12700.00
853.2110, 12601.00
854.3420, 12953.00
855.4730, 13068.00
856.6030, 13016.00
857.7340, 12980.00
858.8640, 13203.00
859.9940, 13166.00
861.1240, 13251.00
862.2540, 13199.87
863.3830, 13059.00
864.5130, 12967.00
865.6420, 12987.00
866.7710, 12786.00
867.9000, 12787.00
869.0290, 12736.00
870.1570, 12741.00
871.2860, 12756.06
872.4140, 12735.07
873.5430, 12805.00
874.6710, 12768.00
875.7980, 12777.00
876.9260, 12873.00
878.0540, 12968.00
879.1810, 12849.00
880.3080, 13102.00
881.4360, 13167.19
882.5630, 13573.00
883.6890, 13485.00
884.8160, 13719.00
885.9420, 13902.00
887.0690, 14078.00
888.1950, 14140.00
889.3210, 14329.00
890.4470, 14448.74
891.5730, 14481.06
892.6980, 14680.00
893.8240, 14553.00
894.9490, 14559.00
896.0740, 14622.00
897.1990, 14369.00
898.3240, 14240.00
899.4480, 14331.00
900.5730, 14143.00
901.6970, 14101.00
902.8210, 14098.00
903.9450, 13943.00
905.0690, 13878.00
906.1930, 13988.00
907.3160, 14131.00
908.4400, 14148.26
909.5630, 14318.00
910.6860, 14250.00
911.8090, 14232.00
912.9320, 14167.00
914.0550, 14258.00
915.1770, 14384.00
916.2990, 14561.00
917.4210, 14547.10
918.5440, 14595.51
919.6650, 14548.00
920.7870, 14548.00
921.9090, 14555.00
923.0300, 14524.00
924.1510, 14490.00
925.2720, 14498.45
926.3930, 14492.04
927.5140, 14452.02
928.6350, 14561.57
929.7550, 14618.71
930.8760, 14626.23
931.9960, 14435.58
933.1160, 14500.84
934.2360, 14463.55
935.3550, 14422.06
936.4750, 14523.33
937.5940, 14361.52
938.7140, 14460.54
939.8330, 14455.44
940.9520, 14497.99
942.0710, 14443.99
943.1890, 14330.80
944.3080, 14371.16
945.4260, 14349.99
946.5440, 14326.29
947.6620, 14388.27
948.7800, 14292.38
949.8980, 14352.99
951.0160, 14351.13
952.1330, 14377.87
953.2500, 14342.70
954.3680, 14326.64
955.4850, 14372.52
956.6010, 14384.12
957.7180, 14341.81
958.8350, 14305.38
959.9510, 14404.39
961.0670, 14345.54
962.1830, 14443.19
963.2990, 14382.00
964.4150, 14383.38
965.5310, 14275.00
966.6460, 14360.00
967.7620, 14327.00
968.8770, 14468.00
969.9920, 14495.00
971.1070, 14655.00
972.2210, 14973.00
973.3360, 15078.00
974.4500, 15390.00
975.5650, 15728.00
976.6790, 16017.00
977.7930, 16548.00
978.9070, 16803.75
980.0200, 17349.95
981.1340, 17865.15
982.2470, 18594.84
983.3610, 18992.22
984.4740, 19301.27
985.5870, 19524.02
986.6990, 19571.21
987.8120, 19715.57
988.9250, 19426.00
990.0370, 19296.00
991.1490, 18721.00
992.2610, 18305.00
993.3730, 17693.00
994.4850, 17253.00
995.5960, 16829.00
996.7080, 16179.00
997.8190, 15750.00
998.9300, 15382.00
1000.041, 15200.00
1001.152, 14873.00
1002.263, 14698.00
1003.373, 14657.00
1004.484, 14584.42
1005.594, 14563.00
1006.704, 14606.78
1007.814, 14668.00
1008.924, 14753.21
1010.034, 14890.79
1011.143, 14996.87
1012.253, 15073.24
1013.362, 15030.65
1014.471, 15141.60
1015.580, 15191.02
1016.689, 15237.91
1017.797, 15370.41
1018.906, 15345.12
1020.014, 15476.26
1021.122, 15544.93
1022.230, 15642.19
1023.338, 15677.55
1024.446, 15732.02
1025.554, 15745.00
1026.661, 15943.00
1027.768, 16056.00
1028.875, 16278.00
1029.983, 16427.00
1031.089, 16384.00
1032.196, 16757.00
1033.303, 16658.00
1034.409, 16896.00
1035.515, 16801.00
1036.622, 16898.00
1037.728, 16687.00
1038.833, 16498.00
1039.939, 16353.00
1041.045, 16107.00
1042.150, 15999.00
1043.255, 15855.00
1044.360, 15744.00
1045.465, 15628.00
1046.570, 15371.00
1047.675, 15425.00
1048.779, 15193.00
1049.884, 14926.00
1050.988, 14860.00
1052.092, 14821.00
1053.196, 14819.00
1054.300, 14569.00
1055.404, 14410.00
1056.507, 14278.00
1057.610, 13969.00
1058.714, 13824.00
1059.817, 13716.17
1060.920, 13656.50
1062.022, 13553.00
1063.125, 13481.80
1064.228, 13547.00
1065.330, 13359.00
1066.432, 13316.00
1067.534, 13306.00
1068.636, 13121.00
1069.738, 13108.00
1070.840, 12939.00
1071.941, 13088.00
1073.042, 12901.00
1074.144, 12900.00
1075.245, 12873.00
1076.346, 12874.00
1077.446, 12837.00
1078.547, 12741.00
1079.647, 12824.00
1080.748, 12840.00
1081.848, 12702.00
1082.948, 12632.00
1084.048, 12717.00
1085.148, 12721.00
1086.247, 12801.00
1087.347, 12725.00
1088.446, 12622.00
1089.545, 12570.00
1090.644, 12593.00
1091.743, 12450.00
1092.842, 12448.00
1093.940, 12408.00
1095.039, 12481.00
1096.137, 12548.00
1097.235, 12201.00
1098.333, 12538.00
1099.431, 12374.00
1100.529, 12344.00
1101.627, 12435.00
1102.724, 12338.00
1103.822, 12381.87
1104.919, 12240.88
1106.016, 12380.00
1107.113, 12283.00
1108.209, 12232.00
1109.306, 12278.95
1110.402, 12312.00
1111.499, 12262.00
1112.595, 12404.00
1113.691, 12356.00
1114.787, 12289.00
1115.883, 12422.00
1116.978, 12504.00
1118.074, 12623.00
1119.169, 12647.35
1120.264, 12544.00
1121.359, 12662.00
1122.454, 12607.00
1123.549, 12581.00
1124.644, 12687.00
1125.738, 12433.00
1126.832, 12230.00
1127.927, 12276.00
1129.021, 12256.00
1130.115, 12206.00
1131.208, 12083.00
1132.302, 12113.00
1133.396, 12021.00
1134.489, 12079.00
1135.582, 12002.00
1136.675, 12153.00
1137.768, 12081.00
1138.861, 12104.37
1139.954, 12022.00
1141.046, 12064.56
1142.138, 12133.01
1143.231, 12170.00
1144.323, 12177.23
1145.415, 12065.56
1146.507, 12107.43
1147.598, 12087.77
1148.690, 12065.58
1149.781, 12059.84
1150.872, 12130.04
1151.964, 12168.78
1153.054, 12177.76
1154.145, 12067.83
1155.236, 12111.45
1156.327, 12093.53
1157.417, 12073.10
1158.507, 12138.33
1159.597, 12045.69
1160.687, 12109.56
1161.777, 12110.96
1162.867, 12140.95
1163.956, 12109.03
1165.046, 12096.23
1166.135, 12143.54
1167.224, 12129.00
1168.313, 12106.00
1169.402, 12106.00
1170.491, 12107.04
1171.580, 12089.00
1172.668, 12162.00
1173.756, 12168.00
1174.845, 12271.00
1175.933, 12166.00
1177.020, 12203.47
1178.108, 12043.00
1179.196, 12174.00
1180.283, 12202.00
1181.371, 12194.00
1182.458, 12241.46
1183.545, 12185.00
1184.632, 12245.00
1185.719, 12133.00
1186.805, 12123.00
1187.892, 12208.00
1188.978, 12304.00
1190.065, 12255.00
1191.151, 12234.00
1192.237, 12219.00
1193.323, 12121.00
1194.408, 12131.00
1195.494, 12233.00
1196.579, 12192.62
1197.664, 12408.00
1198.750, 12296.00
1199.835, 12150.00
1200.919, 12309.00
1202.004, 12225.40
1203.089, 12242.00
1204.173, 12215.00
1205.258, 12171.00
1206.342, 12027.00
1207.426, 12158.00
1208.510, 12110.00
1209.594, 12016.00
1210.677, 12213.00
1211.761, 12201.00
1212.844, 12012.00
1213.927, 11995.00
1215.010, 12382.00
1216.093, 12092.63
1217.176, 12128.00
1218.259, 11903.00
1219.341, 12068.00
1220.424, 12092.00
1221.506, 11954.00
1222.588, 12069.00
1223.670, 12124.00
1224.752, 12143.00
1225.834, 11966.00
1226.915, 12009.00
1227.997, 11958.00
1229.078, 12073.00
1230.159, 12021.00
1231.240, 11982.00
1232.321, 11924.00
1233.402, 11934.00
1234.483, 11994.00
1235.563, 11932.00
1236.644, 12039.00
1237.724, 12054.00
1238.804, 12037.00
1239.884, 12067.61
1240.964, 11997.00
1242.044, 12027.00
1243.123, 12050.00
1244.203, 11988.00
1245.282, 12023.00
1246.361, 11970.00
1247.440, 12004.00
1248.519, 11933.00
1249.598, 11898.00
1250.676, 11980.00
1251.755, 11993.00
1252.833, 12037.00
1253.911, 11934.00
1254.989, 12055.00
1256.067, 11988.00
1257.145, 12283.00
1258.223, 12143.00
1259.300, 12052.00
1260.378, 11980.00
1261.455, 12199.00
1262.532, 12140.00
1263.609, 12224.58
1264.686, 12322.00
1265.763, 12127.00
1266.840, 12248.29
1267.916, 12232.00
1268.992, 12344.00
1270.069, 12264.00
1271.145, 12421.00
1272.221, 12284.00
1273.296, 12412.00
1274.372, 12382.00
1275.448, 12496.00
1276.523, 12503.00
1277.598, 12541.22
1278.673, 12497.00
1279.749, 12592.00
1280.823, 12564.00
1281.898, 12534.00
1282.973, 12654.00
1284.047, 12596.00
1285.122, 12580.00
1286.196, 12610.00
1287.270, 12634.11
1288.344, 12794.00
1289.418, 12785.00
1290.491, 12837.00
1291.565, 12977.00
1292.638, 13014.00
1293.712, 13068.00
1294.785, 13055.00
1295.858, 13100.00
1296.931, 13085.00
1298.003, 13058.00
1299.076, 13157.00
1300.149, 13009.00
1301.221, 12987.00
1302.293, 13012.00
1303.365, 13194.00
1304.437, 13284.00
1305.509, 13209.00
1306.581, 13056.00
1307.652, 13279.00
1308.724, 13293.00
1309.795, 13374.00
1310.866, 13366.00
1311.937, 13240.00
1313.008, 13353.00
1314.079, 13106.00
1315.150, 13475.00
1316.220, 13242.00
1317.291, 13287.00
1318.361, 13428.00
1319.431, 13246.00
1320.501, 13324.00
1321.571, 13410.00
1322.641, 13091.00
1323.710, 13212.00
1324.780, 13255.00
1325.849, 13294.35
1326.918, 13356.65
1327.987, 13387.49
1329.056, 13388.57
1330.125, 13270.74
1331.194, 13306.45
1332.263, 13280.64
1333.331, 13252.30
1334.399, 13309.64
1335.467, 13209.12
1336.535, 13265.09
1337.603, 13258.60
1338.671, 13280.70
1339.739, 13240.88
1340.806, 13226.00
1341.874, 13197.00
1342.941, 13202.00
1344.008, 13227.00
1345.075, 13089.00
1346.142, 13093.00
1347.209, 12935.00
1348.275, 12950.00
1349.342, 12935.97
1350.408, 13057.00
1351.475, 12975.00
1352.541, 13046.00
1353.607, 13093.00
1354.673, 13023.00
1355.738, 13061.00
1356.804, 12801.00
1357.869, 12863.00
1358.935, 12648.00
1360.000, 12832.00
1361.065, 12782.00
1362.130, 12769.00
1363.195, 12826.00
1364.259, 12754.00
1365.324, 12635.00
1366.388, 12740.42
1367.453, 12699.15
1368.517, 12815.00
1369.581, 12729.00
1370.645, 12624.00
1371.709, 12537.00
1372.772, 12520.00
1373.836, 12527.00
1374.899, 12643.00
1375.963, 12563.00
1377.026, 12592.72
1378.089, 12586.00
1379.152, 12564.00
1380.214, 12504.00
1381.277, 12499.00
1382.340, 12446.00
1383.402, 12497.00
1384.464, 12441.00
1385.526, 12464.00
1386.588, 12455.00
1387.650, 12467.00
1388.712, 12446.00
1389.774, 12357.00
1390.835, 12375.00
1391.896, 12395.00
1392.958, 12300.00
1394.019, 12398.00
1395.080, 12336.00
1396.141, 12375.00
1397.201, 12402.00
1398.262, 12498.00
1399.323, 12482.00
1400.383, 12455.57
1401.443, 12526.00
1402.503, 12340.00
1403.563, 12229.00
1404.623, 12178.00
1405.683, 12262.00
1406.742, 12195.00
1407.802, 12297.00
1408.861, 12329.00
1409.920, 12392.00
1410.980, 12234.00
1412.039, 12199.00
1413.097, 12109.00
1414.156, 12246.00
1415.215, 12327.00
1416.273, 12345.00
1417.331, 12332.00
1418.390, 12340.60
1419.448, 12136.00
1420.506, 12283.00
1421.564, 12209.00
1422.621, 12160.00
1423.679, 12228.00
1424.736, 12231.00
1425.794, 12305.00
1426.851, 12321.00
1427.908, 12453.00
1428.965, 12341.00
1430.022, 12210.00
1431.079, 12297.00
1432.135, 12191.00
1433.192, 12386.00
1434.248, 12348.00
1435.304, 12281.00
1436.360, 12232.00
1437.416, 12252.95
1438.472, 12242.00
1439.528, 12315.19
1440.583, 12390.41
1441.639, 12434.17
1442.694, 12448.17
1443.749, 12343.27
1444.804, 12391.91
1445.859, 12379.01
1446.914, 12363.59
1447.969, 12433.84
1449.024, 12346.23
1450.078, 12415.11
1451.132, 12421.53
1452.187, 12456.54
1453.241, 12429.63
1454.295, 12421.84
1455.349, 12475.99
1456.402, 12495.85
1457.456, 12461.81
1458.509, 12498.63
1459.563, 12408.85
1460.616, 12430.17
1461.669, 12499.41
1462.722, 12468.49
1463.775, 12525.00
1464.828, 12545.00
1465.880, 12461.00
1466.933, 12442.00
1467.985, 12408.00
1469.037, 12452.00
1470.090, 12476.00
1471.142, 12398.00
1472.193, 12370.00
1473.245, 12480.00
1474.297, 12511.00
1475.348, 12474.00
1476.400, 12526.43
1477.451, 12496.00
1478.502, 12467.00
1479.553, 12715.00
1480.604, 12563.00
1481.655, 12676.00
1482.706, 12629.00
1483.756, 12730.00
1484.807, 12621.00
1485.857, 12611.00
1486.907, 12649.00
1487.957, 12531.00
1489.007, 12652.00
1490.057, 12501.00
1491.106, 12625.00
1492.156, 12661.00
1493.205, 12757.00
1494.255, 12683.00
1495.304, 12767.78
1496.353, 12753.28
1497.402, 12849.00
1498.451, 12756.00
1499.500, 12786.00
1500.548, 12817.00
1501.597, 12763.00
1502.645, 12920.00
1503.693, 12882.00
1504.741, 12865.00
1505.789, 12806.00
1506.837, 12877.00
1507.885, 12865.23
1508.932, 12895.00
1509.980, 12891.00
1511.027, 12950.00
1512.075, 12899.38
1513.122, 12890.00
1514.169, 12957.00
1515.216, 13008.84
1516.262, 13076.00
1517.309, 13091.81
1518.356, 13145.00
1519.402, 13089.00
1520.448, 13104.00
1521.495, 13046.00
1522.541, 13045.00
1523.587, 12998.00
1524.632, 12961.95
1525.678, 12960.98
1526.724, 12907.00
1527.769, 13002.00
1528.814, 13033.00
1529.860, 13172.00
1530.905, 13099.00
1531.950, 13266.00
1532.995, 13208.00
1534.039, 13146.00
1535.084, 13119.00
1536.128, 13276.00
1537.173, 13135.00
1538.217, 12972.00
1539.261, 13229.00
1540.305, 13056.00
1541.349, 13129.00
1542.393, 13184.00
##END=



