##NAMES=Aenigmatite
##RRUFFID=R061088
##IDEAL CHEMISTRY=Na_4_(Fe^2+^_10_Ti^4+^_2_)O_4_[Si_12_O_36_]
##LOCALITY=Naujakasik, Greenland
##OWNER=RRUFF
##SOURCE=Michael Scott
##DESCRIPTION=Black prismatic crystals
##STATUS=The identification of this mineral has been confirmed by X-ray diffraction and chemical analysis
##URL=rruff.info/R061088
##MEASURED CHEMISTRY=(Na_1.72_Ca_0.28_)_Σ=2_(Fe^2+^_4.90_Mn_0.08_Mg_0.02_)_Σ=5_(Ti_0.85_Al_0.14_Fe^3+^_0.01_)_Σ=1_(Si_5.87_Al_0.13_)_Σ=6_O_20_
##PIN_ID=L01392
##ORIENTATION=Laser parallel to (1 0 1). Fiducial mark perpendicular to laser is parallel to b [0 1 0]
145.0440, 9150.000
146.2820, 9270.000
147.5200, 9572.000
148.7570, 9351.000
149.9950, 9415.000
151.2320, 9821.000
152.4690, 9852.000
153.7060, 9627.000
154.9420, 9773.000
156.1790, 9752.000
157.4150, 9420.000
158.6510, 9350.000
159.8870, 9359.000
161.1220, 9368.000
162.3570, 9474.000
163.5930, 9666.000
164.8280, 9810.000
166.0620, 9611.000
167.2970, 9357.000
168.5310, 9366.000
169.7650, 9317.000
170.9990, 9370.000
172.2330, 8980.000
173.4670, 8530.000
174.7000, 8456.000
175.9330, 8412.000
177.1660, 8264.000
178.3990, 8294.000
179.6310, 8180.000
180.8640, 8098.000
182.0960, 8183.000
183.3280, 8157.000
184.5600, 8286.000
185.7910, 8403.000
187.0220, 8554.000
188.2540, 8633.000
189.4840, 8513.000
190.7150, 8711.000
191.9460, 8692.000
193.1760, 8719.000
194.4060, 8858.000
195.6360, 8882.000
196.8660, 8837.000
198.0960, 9036.000
199.3250, 8902.447
200.5540, 8878.551
201.7830, 8833.549
203.0120, 8768.577
204.2400, 8623.878
205.4690, 8582.144
206.6970, 8089.000
207.9250, 7824.000
209.1530, 7758.000
210.3800, 7841.000
211.6080, 8075.000
212.8350, 8212.000
214.0620, 8375.000
215.2880, 8279.000
216.5150, 8150.000
217.7410, 8223.000
218.9680, 8184.000
220.1940, 8296.000
221.4190, 8202.000
222.6450, 8249.000
223.8700, 8151.000
225.0960, 8166.000
226.3210, 8151.000
227.5450, 8153.000
228.7700, 8251.000
229.9940, 8132.000
231.2190, 8232.000
232.4430, 8108.000
233.6660, 8030.000
234.8900, 7931.000
236.1140, 8087.000
237.3370, 7958.000
238.5600, 7945.000
239.7830, 7919.000
241.0050, 7826.000
242.2280, 7894.000
243.4500, 7855.000
244.6720, 7763.000
245.8940, 7785.000
247.1160, 7911.000
248.3370, 7909.000
249.5580, 7967.000
250.7790, 8032.000
252.0000, 8177.938
253.2210, 8187.458
254.4410, 8528.000
255.6620, 8421.000
256.8820, 8552.000
258.1020, 9028.000
259.3210, 9141.718
260.5410, 8949.423
261.7600, 9058.633
262.9790, 9072.877
264.1980, 8997.255
265.4170, 8846.000
266.6360, 8816.000
267.8540, 8836.000
269.0720, 8839.000
270.2900, 8977.000
271.5080, 9025.000
272.7260, 9196.000
273.9430, 9379.000
275.1600, 9420.000
276.3770, 9772.000
277.5940, 9926.000
278.8100, 9990.000
280.0270, 10065.00
281.2430, 10158.00
282.4590, 10217.00
283.6750, 10372.00
284.8910, 10468.00
286.1060, 10455.00
287.3210, 10657.00
288.5360, 10722.17
289.7510, 10843.60
290.9660, 10884.00
292.1800, 11099.00
293.3950, 11028.00
294.6090, 11119.00
295.8230, 11306.00
297.0360, 11514.00
298.2500, 11676.00
299.4630, 11809.00
300.6760, 11731.00
301.8890, 11986.00
303.1020, 11922.00
304.3150, 12046.00
305.5270, 11991.00
306.7390, 12063.00
307.9510, 12093.06
309.1630, 11968.07
310.3750, 12111.00
311.5860, 11786.00
312.7970, 11683.00
314.0080, 11731.00
315.2190, 11504.00
316.4300, 11461.00
317.6400, 11381.00
318.8510, 11320.00
320.0610, 11158.63
321.2710, 10984.00
322.4800, 10735.00
323.6900, 10676.00
324.8990, 10324.89
326.1080, 10136.00
327.3170, 9829.000
328.5260, 9738.000
329.7340, 9463.000
330.9430, 9260.000
332.1510, 9048.000
333.3590, 8800.000
334.5670, 8625.000
335.7740, 8427.000
336.9820, 8213.000
338.1890, 8175.000
339.3960, 7970.000
340.6030, 7900.000
341.8100, 7822.000
343.0160, 7701.000
344.2220, 7661.000
345.4280, 7653.000
346.6340, 7742.000
347.8400, 7669.000
349.0460, 7704.000
350.2510, 7923.000
351.4560, 7898.000
352.6610, 8058.000
353.8660, 8251.000
355.0700, 8273.000
356.2750, 8549.000
357.4790, 8764.000
358.6830, 8867.000
359.8870, 9109.000
361.0910, 8998.000
362.2940, 9021.000
363.4970, 9116.000
364.7000, 9241.000
365.9030, 9128.000
367.1060, 9097.000
368.3080, 8957.000
369.5110, 8773.000
370.7130, 8682.000
371.9150, 8490.000
373.1170, 8394.703
374.3180, 8368.000
375.5200, 8181.000
376.7210, 8194.000
377.9220, 8077.000
379.1230, 7962.000
380.3230, 7849.000
381.5240, 7824.000
382.7240, 7758.000
383.9240, 7723.000
385.1240, 7709.971
386.3240, 7700.292
387.5230, 7705.000
388.7230, 7728.000
389.9220, 7754.000
391.1210, 7777.000
392.3200, 7798.000
393.5180, 7912.000
394.7170, 8055.000
395.9150, 7973.000
397.1130, 8154.000
398.3110, 8221.000
399.5080, 8276.000
400.7060, 8392.000
401.9030, 8338.000
403.1000, 8532.000
404.2970, 8430.000
405.4940, 8620.000
406.6910, 8558.000
407.8870, 8473.000
409.0830, 8487.000
410.2790, 8431.281
411.4750, 8437.000
412.6710, 8387.000
413.8660, 8474.000
415.0610, 8465.000
416.2560, 8498.000
417.4510, 8579.000
418.6460, 8597.000
419.8410, 8708.626
421.0350, 8808.000
422.2290, 8918.000
423.4230, 9057.000
424.6170, 9149.269
425.8100, 9210.939
427.0040, 9291.000
428.1970, 9262.000
429.3900, 9338.000
430.5830, 9286.000
431.7760, 9159.000
432.9680, 9195.000
434.1610, 9161.032
435.3530, 8969.000
436.5450, 9092.000
437.7360, 8863.000
438.9280, 8604.000
440.1190, 8514.000
441.3110, 8651.000
442.5020, 8516.253
443.6930, 8486.444
444.8830, 8448.000
446.0740, 8412.000
447.2640, 8229.000
448.4540, 8348.000
449.6440, 8194.000
450.8340, 8155.000
452.0240, 8191.000
453.2130, 8265.000
454.4020, 8199.000
455.5910, 8135.000
456.7800, 8112.901
457.9690, 8010.000
459.1570, 8008.000
460.3460, 7964.000
461.5340, 7956.000
462.7220, 7913.000
463.9090, 7858.000
465.0970, 7965.000
466.2840, 7873.000
467.4720, 7880.000
468.6590, 7993.000
469.8460, 7913.093
471.0320, 7989.951
472.2190, 8043.085
473.4050, 8073.735
474.5910, 8014.630
475.7770, 8071.425
476.9630, 8081.773
478.1490, 8090.215
479.3340, 8163.304
480.5190, 8117.235
481.7040, 8189.298
482.8890, 8214.204
484.0740, 8260.693
485.2580, 8260.429
486.4430, 8401.000
487.6270, 8446.000
488.8110, 8467.220
489.9950, 8465.302
491.1780, 8493.461
492.3620, 8552.833
493.5450, 8423.000
494.7280, 8414.786
495.9110, 8284.000
497.0940, 8412.000
498.2760, 8353.000
499.4590, 8185.498
500.6410, 8255.952
501.8230, 8170.000
503.0050, 8183.000
504.1860, 8081.000
505.3680, 7948.000
506.5490, 8070.000
507.7300, 7971.000
508.9110, 8097.000
510.0920, 8096.000
511.2730, 8202.000
512.4530, 8148.000
513.6330, 8169.000
514.8130, 8365.000
515.9930, 8379.000
517.1730, 8493.000
518.3520, 8462.000
519.5320, 8675.000
520.7110, 8808.000
521.8900, 8708.000
523.0690, 8790.000
524.2470, 8627.000
525.4260, 8680.000
526.6040, 8846.000
527.7820, 8812.000
528.9600, 8812.000
530.1380, 8861.000
531.3150, 8935.000
532.4930, 8826.000
533.6700, 8781.000
534.8470, 8679.000
536.0240, 8581.000
537.2000, 8529.075
538.3770, 8504.000
539.5530, 8444.000
540.7290, 8339.000
541.9050, 8381.000
543.0810, 8442.000
544.2570, 8313.000
545.4320, 8326.000
546.6080, 8213.000
547.7830, 8219.000
548.9580, 8271.000
550.1320, 8100.000
551.3070, 8164.742
552.4810, 8285.000
553.6550, 8110.000
554.8300, 8240.000
556.0030, 8110.000
557.1770, 8154.000
558.3510, 8260.000
559.5240, 8368.000
560.6970, 8419.000
561.8700, 8411.000
563.0430, 8309.000
564.2160, 8357.000
565.3880, 8298.000
566.5600, 8366.000
567.7320, 8370.000
568.9040, 8445.000
570.0760, 8383.000
571.2480, 8384.000
572.4190, 8377.000
573.5900, 8421.000
574.7610, 8380.000
575.9320, 8234.000
577.1030, 8343.000
578.2740, 8362.000
579.4440, 8302.000
580.6140, 8453.000
581.7840, 8361.000
582.9540, 8504.000
584.1240, 8310.319
585.2930, 8642.866
586.4630, 8880.543
587.6320, 9028.259
588.8010, 8816.954
589.9700, 9069.244
591.1380, 9135.654
592.3070, 9194.543
593.4750, 9504.000
594.6430, 9758.000
595.8110, 10141.00
596.9790, 10619.00
598.1460, 10772.00
599.3140, 11234.22
600.4810, 11550.31
601.6480, 12023.00
602.8150, 12183.00
603.9820, 12657.00
605.1480, 12871.00
606.3150, 13303.00
607.4810, 13295.00
608.6470, 13485.00
609.8130, 13473.00
610.9790, 13181.00
612.1440, 13211.00
613.3100, 13075.00
614.4750, 12918.00
615.6400, 12698.00
616.8050, 12513.00
617.9690, 12098.00
619.1340, 12060.00
620.2980, 12006.00
621.4620, 11944.00
622.6260, 12058.00
623.7900, 12100.00
624.9540, 12131.00
626.1170, 12449.00
627.2810, 12619.00
628.4440, 13088.00
629.6070, 13450.00
630.7690, 14154.00
631.9320, 14954.00
633.0950, 15681.00
634.2570, 16604.00
635.4190, 17509.00
636.5810, 18819.00
637.7430, 19832.00
638.9040, 20933.00
640.0660, 22217.00
641.2270, 23195.00
642.3880, 23944.00
643.5490, 24499.00
644.7100, 24905.00
645.8700, 25025.00
647.0310, 25226.00
648.1910, 24941.00
649.3510, 24430.00
650.5110, 23618.00
651.6710, 22692.00
652.8300, 21850.00
653.9900, 20936.00
655.1490, 20045.00
656.3080, 19287.00
657.4670, 18455.99
658.6250, 17747.00
659.7840, 17034.00
660.9420, 16364.00
662.1010, 15899.00
663.2590, 15477.00
664.4170, 15208.00
665.5740, 15153.00
666.7320, 14844.00
667.8890, 14942.00
669.0460, 15144.00
670.2030, 15234.00
671.3600, 15261.00
672.5170, 15459.00
673.6740, 15647.00
674.8300, 15878.00
675.9860, 16004.00
677.1420, 16172.78
678.2980, 16467.00
679.4540, 16421.00
680.6090, 16563.00
681.7650, 16635.00
682.9200, 16546.00
684.0750, 16364.00
685.2300, 16230.00
686.3840, 16159.00
687.5390, 16135.00
688.6930, 15969.00
689.8470, 15430.00
691.0010, 15060.00
692.1550, 14449.00
693.3090, 13966.00
694.4620, 13309.00
695.6160, 12617.00
696.7690, 12090.00
697.9220, 11604.00
699.0750, 11125.00
700.2280, 10726.00
701.3800, 10446.00
702.5320, 10099.00
703.6850, 9989.000
704.8370, 9778.000
705.9880, 9549.000
707.1400, 9470.000
708.2920, 9150.000
709.4430, 9334.000
710.5940, 9186.000
711.7450, 9137.000
712.8960, 8951.000
714.0470, 8859.000
715.1970, 8903.000
716.3480, 8819.000
717.4980, 8842.000
718.6480, 8804.000
719.7980, 8698.000
720.9470, 8608.000
722.0970, 8468.000
723.2460, 8618.000
724.3960, 8447.000
725.5450, 8612.000
726.6940, 8608.949
727.8420, 8632.000
728.9910, 8693.000
730.1390, 8755.000
731.2870, 8827.000
732.4350, 8883.000
733.5830, 8955.000
734.7310, 8785.000
735.8790, 8785.000
737.0260, 8676.000
738.1730, 8620.000
739.3200, 8499.000
740.4670, 8492.000
741.6140, 8248.000
742.7610, 8136.000
743.9070, 8105.000
745.0530, 8008.000
746.1990, 7986.000
747.3450, 7932.000
748.4910, 7917.000
749.6370, 7896.062
750.7820, 7805.000
751.9270, 7852.000
753.0720, 7860.000
754.2170, 7801.000
755.3620, 7868.000
756.5070, 7930.000
757.6510, 7916.000
758.7950, 7937.000
759.9400, 8007.000
761.0840, 7948.000
762.2270, 8073.000
763.3710, 8085.000
764.5140, 8177.000
765.6580, 8171.000
766.8010, 8236.000
767.9440, 8240.361
769.0870, 8151.000
770.2290, 8213.000
771.3720, 8108.000
772.5140, 8030.000
773.6560, 8034.000
774.7990, 7978.000
775.9400, 7970.879
777.0820, 7913.000
778.2240, 7974.000
779.3650, 7914.000
780.5060, 7932.000
781.6470, 8026.000
782.7880, 7878.000
783.9290, 7826.000
785.0690, 7950.000
786.2100, 7744.000
787.3500, 7886.000
788.4900, 7948.000
789.6300, 7889.000
790.7700, 7876.000
791.9090, 7827.000
793.0490, 7871.583
794.1880, 7900.000
795.3270, 7906.000
796.4660, 7911.000
797.6050, 7897.672
798.7440, 7951.000
799.8820, 7871.000
801.0200, 7863.000
802.1590, 7895.000
803.2970, 7972.000
804.4340, 7965.000
805.5720, 7831.000
806.7100, 8011.000
807.8470, 7840.000
808.9840, 7918.000
810.1210, 7926.000
811.2580, 7943.000
812.3950, 7951.471
813.5310, 7948.000
814.6680, 7951.000
815.8040, 7941.000
816.9400, 7989.000
818.0760, 7938.000
819.2120, 8109.000
820.3470, 8059.000
821.4830, 8100.000
822.6180, 8099.000
823.7530, 8112.680
824.8880, 8126.000
826.0230, 8185.000
827.1580, 8247.000
828.2920, 8334.000
829.4270, 8367.222
830.5610, 8308.000
831.6950, 8412.000
832.8290, 8349.000
833.9620, 8288.000
835.0960, 8389.000
836.2290, 8385.000
837.3620, 8343.000
838.4950, 8492.000
839.6280, 8506.000
840.7610, 8271.000
841.8940, 8447.000
843.0260, 8505.000
844.1580, 8549.000
845.2910, 8646.000
846.4230, 8618.000
847.5540, 8743.000
848.6860, 8821.000
849.8170, 8808.000
850.9490, 8930.000
852.0800, 8960.323
853.2110, 8988.000
854.3420, 9078.000
855.4730, 9164.000
856.6030, 9240.000
857.7340, 9310.000
858.8640, 9257.390
859.9940, 9336.017
861.1240, 9390.902
862.2540, 9423.321
863.3830, 9365.964
864.5130, 9424.528
865.6420, 9436.624
866.7710, 9446.813
867.9000, 9521.669
869.0290, 9477.365
870.1570, 9551.173
871.2860, 9549.000
872.4140, 9661.000
873.5430, 9744.000
874.6710, 9946.000
875.7980, 10044.00
876.9260, 10219.00
878.0540, 10417.00
879.1810, 10613.00
880.3080, 10820.00
881.4360, 11139.00
882.5630, 11386.00
883.6890, 11709.00
884.8160, 11986.94
885.9420, 12327.00
887.0690, 12530.00
888.1950, 12868.00
889.3210, 13082.00
890.4470, 13510.00
891.5730, 13505.00
892.6980, 13748.00
893.8240, 13529.00
894.9490, 13495.00
896.0740, 13161.00
897.1990, 12860.00
898.3240, 12560.00
899.4480, 12376.00
900.5730, 12156.00
901.6970, 11774.00
902.8210, 11640.00
903.9450, 11298.00
905.0690, 11094.00
906.1930, 11130.00
907.3160, 10888.00
908.4400, 10795.00
909.5630, 10638.00
910.6860, 10771.00
911.8090, 10677.00
912.9320, 10706.00
914.0550, 10574.00
915.1770, 10529.00
916.2990, 10777.00
917.4210, 10649.00
918.5440, 10732.00
919.6650, 10747.00
920.7870, 10715.00
921.9090, 10711.83
923.0300, 10733.00
924.1510, 10613.00
925.2720, 10533.00
926.3930, 10464.00
927.5140, 10463.00
928.6350, 10422.00
929.7550, 10292.00
930.8760, 10338.00
931.9960, 10361.00
933.1160, 10323.11
934.2360, 10443.00
935.3550, 10283.00
936.4750, 10261.00
937.5940, 10146.00
938.7140, 10259.00
939.8330, 10241.00
940.9520, 10220.00
942.0710, 10231.00
943.1890, 10282.11
944.3080, 10312.00
945.4260, 10411.00
946.5440, 10494.00
947.6620, 10531.00
948.7800, 10712.00
949.8980, 10866.00
951.0160, 10934.00
952.1330, 11086.00
953.2500, 11271.00
954.3680, 11235.00
955.4850, 11275.00
956.6010, 11337.00
957.7180, 11073.00
958.8350, 11143.00
959.9510, 11142.00
961.0670, 10930.44
962.1830, 10914.00
963.2990, 10647.00
964.4150, 10548.00
965.5310, 10499.00
966.6460, 10402.00
967.7620, 10446.00
968.8770, 10462.00
969.9920, 10511.00
971.1070, 10519.00
972.2210, 10598.00
973.3360, 10630.00
974.4500, 10776.00
975.5650, 10976.00
976.6790, 11190.00
977.7930, 11331.00
978.9070, 11664.00
980.0200, 11874.00
981.1340, 12219.00
982.2470, 12517.00
983.3610, 12735.00
984.4740, 12787.00
985.5870, 12878.88
986.6990, 12804.00
987.8120, 12760.00
988.9250, 12628.00
990.0370, 12356.00
991.1490, 12132.00
992.2610, 11709.00
993.3730, 11558.00
994.4850, 11176.00
995.5960, 10923.00
996.7080, 10624.00
997.8190, 10321.00
998.9300, 10267.00
1000.041, 10084.00
1001.152, 9954.000
1002.263, 9833.000
1003.373, 9714.000
1004.484, 9668.000
1005.594, 9670.000
1006.704, 9670.000
1007.814, 9870.000
1008.924, 9947.000
1010.034, 10018.00
1011.143, 10083.00
1012.253, 10408.00
1013.362, 10237.00
1014.471, 10278.00
1015.580, 10444.00
1016.689, 10330.00
1017.797, 10275.00
1018.906, 10172.00
1020.014, 10114.00
1021.122, 10137.00
1022.230, 10187.00
1023.338, 10111.00
1024.446, 10188.00
1025.554, 10186.00
1026.661, 10205.00
1027.768, 10369.00
1028.875, 10381.00
1029.983, 10492.00
1031.089, 10578.00
1032.196, 10540.00
1033.303, 10659.00
1034.409, 10654.24
1035.515, 10733.00
1036.622, 10784.00
1037.728, 10702.00
1038.833, 10967.00
1039.939, 10705.60
1041.045, 10925.00
1042.150, 10324.00
1043.255, 10210.00
1044.360, 10066.00
1045.465, 9981.000
1046.570, 9946.000
1047.675, 9701.000
1048.779, 9661.000
1049.884, 9591.000
1050.988, 9411.000
1052.092, 9496.000
1053.196, 9397.000
1054.300, 9278.000
1055.404, 9276.000
1056.507, 9194.000
1057.610, 9167.000
1058.714, 9204.000
1059.817, 9078.000
1060.920, 9160.000
1062.022, 9004.000
1063.125, 9057.000
1064.228, 9017.000
1065.330, 9000.000
1066.432, 9009.000
1067.534, 8960.000
1068.636, 8865.000
1069.738, 9017.000
1070.840, 8937.000
1071.941, 8942.000
1073.042, 8827.000
1074.144, 8804.000
1075.245, 8857.000
1076.346, 8740.000
1077.446, 8833.000
1078.547, 8839.000
1079.647, 8773.000
1080.748, 8610.000
1081.848, 8773.000
1082.948, 8676.000
1084.048, 8815.000
1085.148, 8712.000
1086.247, 8735.000
1087.347, 8712.000
1088.446, 8767.000
1089.545, 8685.000
1090.644, 8720.000
1091.743, 8632.000
1092.842, 8658.000
1093.940, 8616.000
1095.039, 8545.000
1096.137, 8673.000
1097.235, 8606.143
1098.333, 8650.808
1099.431, 8671.730
1100.529, 8670.187
1101.627, 8578.888
1102.724, 8603.497
1103.822, 8581.650
1104.919, 8557.908
1106.016, 8598.830
1107.113, 8520.594
1108.209, 8611.000
1109.306, 8503.000
1110.402, 8424.000
1111.499, 8570.000
1112.595, 8440.000
1113.691, 8525.000
1114.787, 8515.000
1115.883, 8695.000
1116.978, 8795.000
1118.074, 8738.000
1119.169, 8895.000
1120.264, 8825.000
1121.359, 8935.000
1122.454, 8896.000
1123.549, 8963.000
1124.644, 8824.000
1125.738, 8695.000
1126.832, 8644.000
1127.927, 8552.773
1129.021, 8580.033
1130.115, 8613.670
1131.208, 8623.583
1132.302, 8611.012
1133.396, 8508.686
1134.489, 8522.278
1135.582, 8489.424
1136.675, 8454.664
1137.768, 8484.572
1138.861, 8395.319
1139.954, 8424.200
1141.046, 8405.942
1142.138, 8427.280
1143.231, 8406.850
1144.323, 8470.000
1145.415, 8363.000
1146.507, 8277.000
1147.598, 8273.000
1148.690, 8369.000
1149.781, 8364.000
1150.872, 8335.000
1151.964, 8309.000
1153.054, 8376.000
1154.145, 8383.000
1155.236, 8307.000
1156.327, 8453.000
1157.417, 8362.000
1158.507, 8399.000
1159.597, 8331.000
1160.687, 8482.000
1161.777, 8500.000
1162.867, 8441.000
1163.956, 8529.000
1165.046, 8468.000
1166.135, 8410.000
1167.224, 8456.000
1168.313, 8562.000
1169.402, 8504.000
1170.491, 8590.000
1171.580, 8608.000
1172.668, 8560.000
1173.756, 8716.000
1174.845, 8495.000
1175.933, 8571.000
1177.020, 8534.000
1178.108, 8549.000
1179.196, 8570.000
1180.283, 8568.408
1181.371, 8588.038
1182.458, 8607.000
1183.545, 8623.000
1184.632, 8657.000
1185.719, 8695.000
1186.805, 8821.000
1187.892, 8720.000
1188.978, 8782.000
1190.065, 8754.000
1191.151, 8639.000
1192.237, 8780.000
1193.323, 8715.000
1194.408, 8721.000
1195.494, 8825.000
1196.579, 8849.000
1197.664, 8842.818
1198.750, 8874.000
1199.835, 8876.000
1200.919, 8888.718
1202.004, 8882.000
1203.089, 8895.000
1204.173, 8883.000
1205.258, 8846.000
1206.342, 8833.000
1207.426, 8858.000
1208.510, 8824.000
1209.594, 8827.000
1210.677, 8856.000
1211.761, 8799.000
1212.844, 8928.000
1213.927, 8750.000
1215.010, 8866.000
1216.093, 8806.000
1217.176, 8638.000
1218.259, 8804.000
1219.341, 8753.000
1220.424, 8796.000
1221.506, 8790.279
1222.588, 8784.000
1223.670, 8684.000
1224.752, 8658.000
1225.834, 8641.648
1226.915, 8671.000
1227.997, 8643.000
1229.078, 8648.000
1230.159, 8694.000
1231.240, 8548.000
1232.321, 8622.000
1233.402, 8615.000
1234.483, 8683.000
1235.563, 8613.000
1236.644, 8544.000
1237.724, 8584.000
1238.804, 8591.000
1239.884, 8773.000
1240.964, 8728.000
1242.044, 8677.000
1243.123, 8517.000
1244.203, 8544.000
1245.282, 8628.000
1246.361, 8685.000
1247.440, 8733.000
1248.519, 8681.000
1249.598, 8702.000
1250.676, 8666.000
1251.755, 8762.000
1252.833, 8702.000
1253.911, 8825.000
1254.989, 8789.000
1256.067, 8809.000
1257.145, 8980.000
1258.223, 8953.000
1259.300, 8833.000
1260.378, 8996.000
1261.455, 8905.000
1262.532, 8927.000
1263.609, 9047.000
1264.686, 9020.000
1265.763, 9046.000
1266.840, 9170.000
1267.916, 9050.000
1268.992, 9186.000
1270.069, 9258.000
1271.145, 9298.000
1272.221, 9412.000
1273.296, 9381.341
1274.372, 9397.000
1275.448, 9345.000
1276.523, 9488.000
1277.598, 9504.000
1278.673, 9603.000
1279.749, 9620.000
1280.823, 9612.000
1281.898, 9770.000
1282.973, 9768.218
1284.047, 9791.000
1285.122, 9827.000
1286.196, 9917.000
1287.270, 9852.333
1288.344, 10102.00
1289.418, 9967.000
1290.491, 10089.00
1291.565, 10158.00
1292.638, 9976.000
1293.712, 10192.00
1294.785, 10304.00
1295.858, 10217.00
1296.931, 10260.00
1298.003, 10211.00
1299.076, 10191.00
1300.149, 10195.00
1301.221, 10217.14
1302.293, 10195.00
1303.365, 10286.00
1304.437, 10238.88
1305.509, 10279.97
1306.581, 10297.32
1307.652, 10292.21
1308.724, 10197.33
1309.795, 10218.37
1310.866, 10192.96
1311.937, 10165.65
1313.008, 10202.99
1314.079, 10136.00
1315.150, 10153.00
1316.220, 10048.00
1317.291, 10034.00
1318.361, 10138.00
1319.431, 10132.00
1320.501, 10279.00
1321.571, 10159.00
1322.641, 10027.00
1323.710, 10263.00
1324.780, 10154.00
1325.849, 10159.00
1326.918, 10064.00
1327.987, 10029.00
1329.056, 10031.00
1330.125, 9911.000
1331.194, 10008.00
1332.263, 9987.000
1333.331, 10020.00
1334.399, 9884.000
1335.467, 9839.000
1336.535, 9799.000
1337.603, 9819.755
1338.671, 9784.782
1339.739, 9796.000
1340.806, 9762.000
1341.874, 9743.283
1342.941, 9726.000
1344.008, 9668.000
1345.075, 9616.000
1346.142, 9644.000
1347.209, 9525.000
1348.275, 9462.000
1349.342, 9535.000
1350.408, 9503.000
1351.475, 9384.000
1352.541, 9457.000
1353.607, 9318.000
1354.673, 9280.000
1355.738, 9294.000
1356.804, 9364.000
1357.869, 9293.000
1358.935, 9176.000
1360.000, 9106.000
1361.065, 9196.000
1362.130, 9022.000
1363.195, 9012.000
1364.259, 9104.000
1365.324, 9050.000
1366.388, 9063.031
1367.453, 8854.000
1368.517, 8998.000
1369.581, 8922.000
1370.645, 8818.000
1371.709, 8836.000
1372.772, 8961.000
1373.836, 8824.000
1374.899, 8913.000
1375.963, 8768.000
1377.026, 8707.000
1378.089, 8775.000
1379.152, 8705.000
1380.214, 8666.000
1381.277, 8626.000
1382.340, 8658.000
1383.402, 8563.000
1384.464, 8633.000
1385.526, 8577.000
1386.588, 8663.000
1387.650, 8630.000
1388.712, 8534.000
1389.774, 8621.000
1390.835, 8534.000
1391.896, 8556.000
1392.958, 8481.000
1394.019, 8444.000
1395.080, 8564.000
1396.141, 8435.000
1397.201, 8464.000
1398.262, 8420.000
1399.323, 8366.000
1400.383, 8491.000
1401.443, 8343.000
1402.503, 8404.000
1403.563, 8276.000
1404.623, 8449.000
1405.683, 8353.000
1406.742, 8365.000
1407.802, 8382.000
1408.861, 8320.000
1409.920, 8400.000
1410.980, 8391.131
1412.039, 8383.367
1413.097, 8407.000
1414.156, 8374.000
1415.215, 8382.087
1416.273, 8297.000
1417.331, 8351.000
1418.390, 8304.000
1419.448, 8237.000
1420.506, 8282.000
1421.564, 8379.000
1422.621, 8219.000
1423.679, 8324.000
1424.736, 8333.000
1425.794, 8224.000
1426.851, 8302.000
1427.908, 8389.000
1428.965, 8303.022
1430.022, 8366.311
1431.079, 8206.000
1432.135, 8383.000
1433.192, 8321.000
1434.248, 8363.000
1435.304, 8339.000
1436.360, 8292.000
1437.416, 8443.000
1438.472, 8296.000
1439.528, 8337.000
1440.583, 8258.000
1441.639, 8346.000
1442.694, 8384.000
1443.749, 8242.000
1444.804, 8370.000
1445.859, 8262.000
1446.914, 8301.000
1447.969, 8325.000
1449.024, 8271.000
1450.078, 8462.000
1451.132, 8292.000
1452.187, 8368.000
1453.241, 8294.000
1454.295, 8271.000
1455.349, 8331.000
1456.402, 8291.000
1457.456, 8383.000
1458.509, 8501.000
1459.563, 8403.000
1460.616, 8391.000
1461.669, 8485.000
1462.722, 8388.477
1463.775, 8447.124
1464.828, 8484.667
1465.880, 8502.231
1466.933, 8440.022
1467.985, 8480.827
1469.037, 8480.344
1470.090, 8478.179
1471.142, 8533.482
1472.193, 8482.859
1473.245, 8537.252
1474.297, 8549.728
1475.348, 8581.379
1476.400, 8571.497
1477.451, 8574.438
1478.502, 8618.932
1479.553, 8640.417
1480.604, 8625.744
1481.655, 8658.614
1482.706, 8606.541
1483.756, 8628.996
1484.807, 8683.622
1485.857, 8573.000
1486.907, 8739.000
1487.957, 8715.000
1489.007, 8710.000
1490.057, 8736.000
1491.106, 8655.000
1492.156, 8747.000
1493.205, 8717.000
1494.255, 8796.000
1495.304, 8803.000
1496.353, 8763.000
1497.402, 8801.000
1498.451, 8814.000
1499.500, 8847.000
1500.548, 8806.000
1501.597, 8830.000
1502.645, 8816.268
1503.693, 8899.000
1504.741, 8837.000
1505.789, 8928.000
1506.837, 9038.000
1507.885, 9075.000
1508.932, 9106.162
1509.980, 8996.000
1511.027, 9078.000
1512.075, 9014.000
1513.122, 8932.000
1514.169, 9002.000
1515.216, 8959.000
1516.262, 9015.000
1517.309, 9114.000
1518.356, 9124.000
1519.402, 9113.000
1520.448, 9141.000
1521.495, 9148.031
1522.541, 9147.021
1523.587, 9162.000
1524.632, 9165.000
1525.678, 9129.000
1526.724, 9171.000
1527.769, 9157.301
1528.814, 9288.000
1529.860, 9147.000
1530.905, 9307.000
1531.950, 9271.497
1532.995, 9292.034
##END=



