##NAMES=Aenigmatite
##RRUFFID=R061088
##IDEAL CHEMISTRY=Na_4_(Fe^2+^_10_Ti^4+^_2_)O_4_[Si_12_O_36_]
##LOCALITY=Naujakasik, Greenland
##OWNER=RRUFF
##SOURCE=Michael Scott
##DESCRIPTION=Black prismatic crystals
##STATUS=The identification of this mineral has been confirmed by X-ray diffraction and chemical analysis
##URL=rruff.info/R061088
##MEASURED CHEMISTRY=(Na_1.72_Ca_0.28_)_Σ=2_(Fe^2+^_4.90_Mn_0.08_Mg_0.02_)_Σ=5_(Ti_0.85_Al_0.14_Fe^3+^_0.01_)_Σ=1_(Si_5.87_Al_0.13_)_Σ=6_O_20_
##PIN_ID=L00777
##ORIENTATION=Laser parallel to b* (0 1 0). Fiducial mark perpendicular to laser is parallel to c [0 0 1]
160.7810, 9505.000
162.0080, 9539.000
163.2350, 9659.000
164.4610, 9678.000
165.6880, 9531.000
166.9140, 9462.000
168.1400, 9334.000
169.3660, 9403.000
170.5920, 9191.000
171.8180, 9078.000
173.0430, 9065.000
174.2690, 8879.000
175.4940, 8715.000
176.7190, 8910.000
177.9440, 8678.574
179.1680, 8693.000
180.3930, 8581.000
181.6170, 8581.000
182.8420, 8759.000
184.0660, 8723.000
185.2900, 8863.000
186.5140, 8755.000
187.7370, 8764.000
188.9610, 8702.000
190.1840, 8853.000
191.4070, 8892.000
192.6300, 8953.000
193.8530, 9001.000
195.0760, 8995.000
196.2980, 9009.000
197.5210, 9032.000
198.7430, 9098.000
199.9650, 9179.000
201.1870, 9090.000
202.4090, 9120.000
203.6310, 8888.000
204.8520, 8806.000
206.0730, 8685.000
207.2950, 8678.000
208.5160, 8675.000
209.7360, 8625.000
210.9570, 8789.000
212.1780, 8820.000
213.3980, 8797.000
214.6180, 8758.000
215.8380, 8822.000
217.0580, 8764.000
218.2780, 8753.000
219.4980, 8606.000
220.7170, 8645.000
221.9360, 8620.000
223.1560, 8652.000
224.3750, 8625.454
225.5930, 8609.595
226.8120, 8581.000
228.0310, 8514.230
229.2490, 8509.000
230.4670, 8364.000
231.6850, 8362.425
232.9030, 8316.290
234.1210, 8304.000
235.3380, 8318.000
236.5560, 8306.000
237.7730, 8276.638
238.9900, 8350.000
240.2070, 8305.313
241.4240, 8213.775
242.6410, 8247.990
243.8570, 8257.793
245.0730, 8170.073
246.2900, 8208.284
247.5060, 8196.027
248.7210, 8181.700
249.9370, 8237.635
251.1530, 8164.099
252.3680, 8218.918
253.5830, 8113.125
254.7980, 8171.361
256.0130, 8203.801
257.2280, 8211.829
258.4430, 8122.335
259.6570, 8158.772
260.8720, 8144.741
262.0860, 8128.642
263.3000, 8182.803
264.5130, 8107.495
265.7270, 8160.542
266.9410, 8162.352
268.1540, 8187.612
269.3670, 8162.093
270.5800, 8289.000
271.7930, 8207.000
273.0060, 8267.000
274.2190, 8124.000
275.4310, 8197.000
276.6430, 8263.000
277.8550, 8254.000
279.0670, 8193.000
280.2790, 8323.000
281.4910, 8207.000
282.7020, 8306.000
283.9140, 8314.000
285.1250, 8383.000
286.3360, 8315.000
287.5470, 8452.000
288.7570, 8377.000
289.9680, 8528.000
291.1780, 8453.000
292.3880, 8458.000
293.5990, 8552.000
294.8080, 8510.000
296.0180, 8726.000
297.2280, 8721.000
298.4370, 8722.000
299.6470, 8823.000
300.8560, 8727.000
302.0650, 8806.000
303.2740, 8728.000
304.4820, 8930.000
305.6910, 8907.000
306.8990, 8922.258
308.1070, 9107.000
309.3150, 8893.000
310.5230, 8925.000
311.7310, 8843.000
312.9390, 8861.000
314.1460, 8735.000
315.3530, 8778.000
316.5600, 8745.000
317.7670, 8577.000
318.9740, 8606.000
320.1810, 8621.000
321.3870, 8534.000
322.5930, 8448.000
323.8000, 8544.000
325.0060, 8491.000
326.2110, 8424.000
327.4170, 8371.000
328.6230, 8352.000
329.8280, 8393.000
331.0330, 8305.000
332.2380, 8264.000
333.4430, 8198.000
334.6480, 8293.000
335.8530, 8270.000
337.0570, 8327.000
338.2610, 8286.000
339.4650, 8363.000
340.6690, 8302.000
341.8730, 8247.000
343.0770, 8252.000
344.2800, 8210.557
345.4840, 8258.000
346.6870, 8255.000
347.8900, 8253.000
349.0930, 8438.000
350.2950, 8617.000
351.4980, 8583.000
352.7000, 8472.000
353.9030, 8671.000
355.1050, 8724.000
356.3070, 8833.000
357.5080, 8796.000
358.7100, 8876.000
359.9110, 8821.000
361.1130, 8963.000
362.3140, 9045.000
363.5150, 8826.000
364.7160, 8967.000
365.9160, 8919.000
367.1170, 8905.000
368.3170, 8949.000
369.5170, 8848.000
370.7170, 8782.000
371.9170, 8706.000
373.1170, 8855.000
374.3170, 8710.000
375.5160, 8881.000
376.7150, 8752.000
377.9140, 8760.000
379.1130, 8725.000
380.3120, 8604.000
381.5110, 8685.000
382.7090, 8626.495
383.9070, 8686.000
385.1060, 8675.000
386.3040, 8701.000
387.5010, 8851.000
388.6990, 8785.000
389.8970, 8641.000
391.0940, 8760.000
392.2910, 8669.000
393.4880, 8623.000
394.6850, 8600.000
395.8820, 8585.000
397.0780, 8614.000
398.2750, 8590.000
399.4710, 8563.000
400.6670, 8675.000
401.8630, 8762.000
403.0590, 8465.000
404.2540, 8657.000
405.4500, 8574.000
406.6450, 8596.000
407.8400, 8571.000
409.0350, 8635.000
410.2300, 8586.000
411.4250, 8564.000
412.6190, 8601.000
413.8140, 8620.750
415.0080, 8670.000
416.2020, 8704.000
417.3960, 8800.000
418.5900, 8784.000
419.7830, 8847.000
420.9770, 8908.000
422.1700, 8871.000
423.3630, 8966.000
424.5560, 9006.000
425.7490, 9088.000
426.9410, 9084.000
428.1340, 8991.000
429.3260, 9139.000
430.5180, 9070.000
431.7100, 9169.000
432.9020, 9199.000
434.0940, 9241.000
435.2850, 9165.000
436.4770, 9238.000
437.6680, 9090.000
438.8590, 9249.000
440.0500, 9150.000
441.2410, 9179.000
442.4310, 9144.000
443.6220, 9026.000
444.8120, 9003.000
446.0020, 9012.000
447.1920, 9073.000
448.3820, 8988.000
449.5710, 8930.000
450.7610, 8867.000
451.9500, 8846.652
453.1390, 8814.534
454.3280, 8838.000
455.5170, 8803.000
456.7060, 8814.000
457.8940, 8846.000
459.0830, 8763.000
460.2710, 8927.000
461.4590, 8928.000
462.6470, 8853.000
463.8350, 8827.000
465.0220, 8891.000
466.2100, 8869.000
467.3970, 8832.000
468.5840, 8828.000
469.7710, 8867.000
470.9580, 8846.000
472.1440, 8877.000
473.3310, 8872.000
474.5170, 8905.000
475.7030, 8903.000
476.8890, 8874.000
478.0750, 8952.000
479.2610, 8890.000
480.4460, 9009.000
481.6320, 9105.000
482.8170, 8993.000
484.0020, 9133.000
485.1870, 9172.000
486.3710, 9222.000
487.5560, 9301.000
488.7400, 9161.000
489.9250, 9180.000
491.1090, 9262.000
492.2930, 9278.000
493.4760, 9298.000
494.6600, 9274.000
495.8440, 9151.000
497.0270, 9241.000
498.2100, 9197.000
499.3930, 9278.000
500.5760, 9212.000
501.7580, 9264.000
502.9410, 9204.000
504.1230, 9207.187
505.3060, 9266.000
506.4880, 9234.000
507.6690, 9304.000
508.8510, 9403.000
510.0330, 9253.000
511.2140, 9394.000
512.3950, 9419.000
513.5760, 9458.000
514.7570, 9576.000
515.9380, 9520.000
517.1190, 9572.000
518.2990, 9602.000
519.4800, 9691.000
520.6600, 9716.000
521.8400, 9635.000
523.0190, 9751.000
524.1990, 9729.000
525.3790, 9849.000
526.5580, 9868.000
527.7370, 10001.00
528.9160, 9934.000
530.0950, 9953.000
531.2740, 10114.00
532.4520, 10094.00
533.6310, 9994.000
534.8090, 10088.00
535.9870, 10047.00
537.1650, 9997.000
538.3430, 9958.000
539.5200, 9877.000
540.6980, 9985.000
541.8750, 9928.000
543.0520, 10058.00
544.2290, 9974.000
545.4060, 9985.000
546.5820, 10027.00
547.7590, 9906.000
548.9350, 9863.000
550.1110, 9960.000
551.2870, 9848.000
552.4630, 9928.000
553.6390, 9935.000
554.8140, 9830.000
555.9900, 10016.00
557.1650, 9982.000
558.3400, 9995.000
559.5150, 9908.000
560.6900, 9973.000
561.8640, 9874.000
563.0390, 9992.000
564.2130, 10012.00
565.3870, 9856.000
566.5610, 9985.000
567.7350, 9947.000
568.9080, 9833.000
570.0820, 9878.000
571.2550, 9955.000
572.4280, 9866.000
573.6010, 9871.000
574.7740, 9727.000
575.9470, 9812.000
577.1190, 9656.000
578.2920, 9721.000
579.4640, 9654.000
580.6360, 9650.000
581.8080, 9759.000
582.9790, 9572.000
584.1510, 9597.000
585.3220, 9829.000
586.4940, 9628.000
587.6650, 9524.000
588.8360, 9689.000
590.0060, 9573.000
591.1770, 9703.000
592.3470, 9627.000
593.5180, 9617.000
594.6880, 9664.000
595.8580, 9700.000
597.0280, 9729.315
598.1970, 9822.000
599.3670, 9818.000
600.5360, 9868.000
601.7050, 9923.000
602.8740, 9866.000
604.0430, 9965.808
605.2120, 9906.024
606.3800, 10005.38
607.5490, 10078.98
608.7170, 10128.12
609.8850, 10079.75
611.0530, 10157.31
612.2210, 10184.40
613.3880, 10209.39
614.5560, 10304.67
615.7230, 10270.44
616.8900, 10364.58
618.0570, 10407.47
619.2240, 10473.81
620.3900, 10567.00
621.5570, 10659.00
622.7230, 10825.00
623.8890, 10878.00
625.0550, 11013.00
626.2210, 11053.00
627.3870, 11212.00
628.5520, 11431.00
629.7180, 11680.00
630.8830, 11948.00
632.0480, 12288.00
633.2130, 12557.00
634.3770, 12979.00
635.5420, 13455.00
636.7060, 13832.00
637.8710, 14250.00
639.0350, 14738.00
640.1990, 15077.00
641.3620, 15487.00
642.5260, 15760.00
643.6890, 15959.00
644.8530, 16303.00
646.0160, 16341.00
647.1790, 16318.00
648.3410, 16197.00
649.5040, 15912.00
650.6670, 15806.00
651.8290, 15552.51
652.9910, 15371.00
654.1530, 15130.00
655.3150, 14881.00
656.4770, 14783.00
657.6380, 14474.00
658.7990, 14497.00
659.9610, 14267.00
661.1220, 14097.08
662.2830, 13994.00
663.4430, 13767.00
664.6040, 13632.00
665.7640, 13523.00
666.9240, 13520.00
668.0850, 13401.00
669.2440, 13436.00
670.4040, 13483.00
671.5640, 13521.00
672.7230, 13508.00
673.8830, 13511.00
675.0420, 13511.00
676.2010, 13452.97
677.3590, 13484.00
678.5180, 13377.00
679.6770, 13282.00
680.8350, 13342.00
681.9930, 13385.00
683.1510, 13285.00
684.3090, 13319.00
685.4670, 13303.00
686.6240, 13232.66
687.7810, 13199.00
688.9390, 13100.00
690.0960, 12968.00
691.2530, 12857.00
692.4090, 12757.00
693.5660, 12539.00
694.7220, 12373.22
695.8790, 12013.00
697.0350, 11918.00
698.1910, 11733.00
699.3460, 11450.00
700.5020, 11578.00
701.6570, 11344.00
702.8130, 11331.00
703.9680, 10990.00
705.1230, 10982.00
706.2780, 10830.00
707.4320, 10864.00
708.5870, 10933.00
709.7410, 10828.00
710.8950, 10610.00
712.0490, 10663.00
713.2030, 10614.00
714.3570, 10616.00
715.5100, 10572.17
716.6640, 10546.93
717.8170, 10524.76
718.9700, 10478.00
720.1230, 10466.00
721.2760, 10408.00
722.4280, 10369.37
723.5810, 10420.00
724.7330, 10316.00
725.8850, 10228.00
727.0370, 10365.00
728.1890, 10276.00
729.3400, 10379.00
730.4920, 10313.00
731.6430, 10349.00
732.7940, 10523.00
733.9450, 10456.28
735.0960, 10263.00
736.2460, 10399.00
737.3970, 10442.00
738.5470, 10271.00
739.6970, 10274.00
740.8470, 10208.00
741.9970, 10220.00
743.1470, 10127.00
744.2970, 10224.00
745.4460, 10220.00
746.5950, 10006.00
747.7440, 10228.00
748.8930, 10055.00
750.0420, 10076.00
751.1900, 10149.00
752.3390, 10122.00
753.4870, 10043.00
754.6350, 10052.00
755.7830, 10202.00
756.9310, 10081.00
758.0780, 10231.00
759.2260, 10072.00
760.3730, 10205.00
761.5200, 10038.00
762.6670, 10167.00
763.8140, 10186.00
764.9610, 10250.00
766.1070, 10253.00
767.2530, 10086.00
768.4000, 10214.00
769.5460, 10241.00
770.6910, 10088.00
771.8370, 10249.00
772.9830, 10176.00
774.1280, 10272.00
775.2730, 10132.00
776.4180, 10119.00
777.5630, 10234.00
778.7080, 10133.00
779.8520, 10264.00
780.9970, 10290.00
782.1410, 10326.00
783.2850, 10145.00
784.4290, 10286.00
785.5730, 10214.00
786.7160, 10348.00
787.8600, 10287.00
789.0030, 10404.00
790.1460, 10452.00
791.2890, 10399.80
792.4320, 10302.00
793.5750, 10333.00
794.7170, 10269.00
795.8590, 10261.00
797.0020, 10381.00
798.1440, 10324.00
799.2850, 10459.00
800.4270, 10408.00
801.5690, 10564.00
802.7100, 10535.00
803.8510, 10485.00
804.9920, 10416.00
806.1330, 10504.00
807.2740, 10454.00
808.4140, 10427.00
809.5550, 10442.00
810.6950, 10622.00
811.8350, 10643.00
812.9750, 10655.00
814.1150, 10710.00
815.2540, 10703.00
816.3940, 10798.00
817.5330, 10740.00
818.6720, 10777.00
819.8110, 10766.00
820.9500, 10724.00
822.0880, 10768.92
823.2270, 10728.00
824.3650, 10804.00
825.5030, 10869.00
826.6410, 10860.00
827.7790, 10923.47
828.9170, 10880.00
830.0540, 10974.00
831.1920, 10918.00
832.3290, 10906.00
833.4660, 10912.00
834.6030, 10997.00
835.7390, 11066.00
836.8760, 11092.00
838.0120, 11010.00
839.1480, 11002.00
840.2840, 11072.00
841.4200, 11181.00
842.5560, 11108.00
843.6920, 11126.00
844.8270, 11142.00
845.9620, 11284.00
847.0970, 11226.00
848.2320, 11327.00
849.3670, 11349.00
850.5020, 11322.00
851.6360, 11379.16
852.7700, 11382.00
853.9040, 11439.44
855.0380, 11541.02
856.1720, 11616.80
857.3060, 11668.17
858.4390, 11621.97
859.5730, 11701.75
860.7060, 11731.02
861.8390, 11758.22
862.9720, 11855.68
864.1040, 11823.64
865.2370, 11919.99
866.3690, 11965.06
867.5010, 12033.58
868.6330, 12051.33
869.7650, 12084.75
870.8970, 12168.98
872.0290, 12100.00
873.1600, 12100.00
874.2910, 12141.00
875.4220, 12319.00
876.5530, 12478.00
877.6840, 12435.00
878.8140, 12590.00
879.9450, 12510.00
881.0750, 12862.00
882.2050, 12687.00
883.3350, 12919.00
884.4650, 12950.00
885.5950, 13054.00
886.7240, 13219.00
887.8530, 13248.00
888.9820, 13297.46
890.1110, 13280.89
891.2400, 13292.00
892.3690, 13169.00
893.4970, 13123.00
894.6260, 13086.00
895.7540, 12908.00
896.8820, 12761.00
898.0100, 12759.00
899.1370, 12665.00
900.2650, 12631.00
901.3920, 12605.00
902.5200, 12370.00
903.6470, 12309.00
904.7730, 12216.00
905.9000, 12206.00
907.0270, 12194.00
908.1530, 12088.00
909.2790, 12217.00
910.4050, 12127.00
911.5310, 12203.00
912.6570, 12057.00
913.7830, 11942.00
914.9080, 11852.00
916.0330, 11913.00
917.1580, 12047.00
918.2830, 12019.00
919.4080, 11908.00
920.5330, 11837.00
921.6570, 11915.00
922.7820, 11820.00
923.9060, 11840.00
925.0300, 11949.00
926.1540, 11727.00
927.2770, 11985.00
928.4010, 11984.00
929.5240, 11844.00
930.6470, 11848.00
931.7700, 11774.00
932.8930, 11884.00
934.0160, 11905.00
935.1380, 11861.00
936.2610, 11902.00
937.3830, 11917.70
938.5050, 11940.00
939.6270, 11944.00
940.7490, 11942.00
941.8700, 11867.00
942.9910, 11853.00
944.1130, 11853.00
945.2340, 11923.00
946.3550, 11891.00
947.4750, 11967.00
948.5960, 11889.00
949.7160, 11940.00
950.8370, 11955.58
951.9570, 11963.00
953.0770, 12005.00
954.1970, 12035.00
955.3160, 12064.00
956.4360, 12059.31
957.5550, 12087.01
958.6740, 12124.79
959.7930, 12129.00
960.9120, 12203.00
962.0310, 12255.76
963.1490, 12275.00
964.2670, 12333.88
965.3860, 12374.00
966.5040, 12371.00
967.6210, 12389.87
968.7390, 12382.50
969.8570, 12371.00
970.9740, 12330.00
972.0910, 12303.00
973.2080, 12224.00
974.3250, 12247.27
975.4420, 12259.04
976.5580, 12303.00
977.6750, 12345.00
978.7910, 12430.00
979.9070, 12473.00
981.0230, 12366.00
982.1390, 12484.00
983.2540, 12354.00
984.3700, 12493.00
985.4850, 12436.54
986.6000, 12426.20
987.7150, 12400.00
988.8300, 12428.00
989.9450, 12466.00
991.0590, 12526.00
992.1730, 12347.00
993.2880, 12448.00
994.4010, 12365.00
995.5150, 12326.00
996.6290, 12352.00
997.7420, 12317.00
998.8560, 12355.00
999.9690, 12226.00
1001.082, 12459.00
1002.195, 12349.00
1003.307, 12416.00
1004.420, 12308.00
1005.532, 12237.00
1006.645, 12366.00
1007.757, 12314.00
1008.868, 12304.00
1009.980, 12259.00
1011.092, 12318.00
1012.203, 12350.00
1013.314, 12311.00
1014.425, 12199.00
1015.536, 12280.00
1016.647, 12341.00
1017.758, 12394.00
1018.868, 12499.00
1019.978, 12341.00
1021.088, 12411.00
1022.198, 12384.00
1023.308, 12456.00
1024.418, 12349.00
1025.527, 12331.00
1026.637, 12406.00
1027.746, 12467.00
1028.855, 12486.00
1029.963, 12593.00
1031.072, 12550.00
1032.181, 12747.00
1033.289, 12571.00
1034.397, 12681.00
1035.505, 12591.00
1036.613, 12543.00
1037.721, 12448.00
1038.828, 12622.00
1039.935, 12702.00
1041.043, 12532.00
1042.150, 12718.00
1043.257, 12675.00
1044.363, 12648.00
1045.470, 12654.00
1046.576, 12636.00
1047.682, 12576.00
1048.788, 12448.00
1049.894, 12474.00
1051.000, 12481.00
1052.106, 12545.00
1053.211, 12483.00
1054.316, 12524.00
1055.421, 12504.00
1056.526, 12454.00
1057.631, 12464.00
1058.736, 12465.00
1059.840, 12466.00
1060.944, 12462.00
1062.049, 12473.00
1063.153, 12456.00
1064.256, 12455.00
1065.360, 12464.00
1066.463, 12484.00
1067.567, 12476.00
1068.670, 12540.00
1069.773, 12381.00
1070.876, 12380.00
1071.978, 12359.00
1073.081, 12412.00
1074.183, 12233.00
1075.285, 12349.00
1076.387, 12447.00
1077.489, 12545.00
1078.591, 12386.00
1079.692, 12345.00
1080.794, 12423.00
1081.895, 12498.00
1082.996, 12403.00
1084.097, 12551.00
1085.198, 12400.00
1086.298, 12474.00
1087.399, 12468.00
1088.499, 12555.00
1089.599, 12578.00
1090.699, 12589.00
1091.799, 12595.15
1092.898, 12523.00
1093.998, 12532.00
1095.097, 12411.00
1096.196, 12329.00
1097.295, 12557.00
1098.394, 12655.00
1099.492, 12527.00
1100.591, 12530.00
1101.689, 12494.00
1102.787, 12555.00
1103.885, 12513.00
1104.983, 12610.00
1106.081, 12493.00
1107.178, 12595.00
1108.275, 12520.00
1109.373, 12467.00
1110.470, 12592.00
1111.566, 12650.00
1112.663, 12665.00
1113.760, 12643.00
1114.856, 12690.00
1115.952, 12591.00
1117.048, 12681.00
1118.144, 12557.00
1119.240, 12738.00
1120.335, 12597.00
1121.431, 12687.00
1122.526, 12642.00
1123.621, 12597.00
1124.716, 12550.00
1125.810, 12644.00
1126.905, 12654.00
1127.999, 12599.00
1129.094, 12661.00
1130.188, 12658.00
1131.282, 12659.96
1132.375, 12681.00
1133.469, 12671.00
1134.562, 12689.00
1135.656, 12679.00
1136.749, 12632.00
1137.842, 12700.00
1138.935, 12547.00
1140.027, 12733.00
1141.120, 12798.00
1142.212, 12720.00
1143.304, 12740.00
1144.396, 12656.00
1145.488, 12838.00
1146.579, 12694.00
1147.671, 12838.00
1148.762, 12743.00
1149.853, 12828.00
1150.944, 12658.00
1152.035, 12690.00
1153.126, 12766.00
1154.216, 12716.00
1155.307, 12721.00
1156.397, 12808.00
1157.487, 12798.00
1158.577, 12851.00
1159.667, 12899.00
1160.756, 12789.00
1161.846, 12817.00
1162.935, 12871.00
1164.024, 12855.00
1165.113, 13085.00
1166.201, 12849.00
1167.290, 12955.00
1168.378, 12920.00
1169.467, 12697.00
1170.555, 12927.00
1171.643, 12945.00
1172.730, 12896.00
1173.818, 12850.00
1174.905, 12886.00
1175.993, 13131.00
1177.080, 13039.00
1178.167, 12960.00
1179.254, 13152.00
1180.340, 13055.00
1181.427, 13198.00
1182.513, 13200.00
1183.599, 13052.00
1184.685, 13041.00
1185.771, 13190.00
1186.856, 13103.00
1187.942, 13172.00
1189.027, 13226.00
1190.112, 13109.80
1191.197, 13180.42
1192.282, 13225.24
1193.367, 13245.66
1194.451, 13168.54
1195.536, 13217.35
1196.620, 13215.70
1197.704, 13211.97
1198.788, 13278.50
1199.872, 13215.56
1200.955, 13280.97
1202.039, 13295.15
1203.122, 13332.77
1204.205, 13319.62
1205.288, 13322.14
1206.370, 13375.45
1207.453, 13400.65
1208.535, 13381.63
1209.618, 13420.75
1210.700, 13356.01
1211.782, 13382.40
1212.863, 13448.08
1213.945, 13284.00
1215.026, 13420.00
1216.108, 13381.00
1217.189, 13462.00
1218.270, 13330.00
1219.351, 13558.00
1220.431, 13262.00
1221.512, 13500.00
1222.592, 13310.00
1223.672, 13506.00
1224.752, 13578.00
1225.832, 13532.00
1226.911, 13532.00
1227.991, 13471.00
1229.070, 13446.00
1230.149, 13520.00
1231.228, 13592.00
1232.307, 13591.94
1233.386, 13626.08
1234.464, 13614.00
1235.543, 13619.00
1236.621, 13578.00
1237.699, 13547.00
1238.777, 13628.00
1239.855, 13666.00
1240.932, 13510.00
1242.009, 13734.00
1243.087, 13623.00
1244.164, 13677.00
1245.241, 13902.00
1246.317, 13685.00
1247.394, 13664.00
1248.470, 13712.00
1249.546, 13688.00
1250.623, 13676.00
1251.698, 13689.00
1252.774, 13795.00
1253.850, 13746.00
1254.925, 13703.00
1256.000, 13870.00
1257.076, 14054.00
1258.150, 13926.00
1259.225, 13749.00
1260.300, 13911.00
1261.374, 13964.00
1262.449, 13804.00
1263.523, 13929.00
1264.597, 13767.00
1265.670, 13880.00
1266.744, 14035.00
1267.818, 13999.00
1268.891, 13978.00
1269.964, 14004.00
1271.037, 14057.00
1272.110, 14007.00
1273.183, 14083.00
1274.255, 13919.00
1275.327, 14074.00
1276.400, 14062.00
1277.472, 14355.00
1278.543, 14243.00
1279.615, 14199.00
1280.687, 14342.00
1281.758, 14098.00
1282.829, 14311.00
1283.900, 14338.00
1284.971, 14287.00
1286.042, 14317.00
1287.112, 14465.00
1288.183, 14337.00
1289.253, 14593.00
1290.323, 14407.00
1291.393, 14445.00
1292.463, 14527.00
1293.532, 14471.00
1294.602, 14553.00
1295.671, 14588.00
1296.740, 14710.00
1297.809, 14613.00
1298.878, 14787.00
1299.946, 14846.00
1301.015, 14597.00
1302.083, 14750.00
1303.151, 14751.00
1304.219, 14604.00
1305.287, 14647.00
1306.354, 14840.00
1307.422, 14811.00
1308.489, 14840.00
1309.556, 14678.00
1310.623, 14723.15
1311.690, 14673.37
1312.757, 14764.00
1313.823, 14669.00
1314.890, 14787.00
1315.956, 14884.00
1317.022, 14878.00
1318.088, 14923.69
1319.153, 14623.00
1320.219, 14870.00
1321.284, 14787.00
1322.349, 14664.00
1323.414, 14795.00
1324.479, 14852.00
1325.544, 14873.00
1326.608, 14585.00
1327.673, 14732.00
1328.737, 14767.00
1329.801, 14798.00
1330.865, 14888.00
1331.929, 14879.00
1332.992, 14975.00
1334.056, 14967.00
1335.119, 14894.00
1336.182, 14858.00
1337.245, 14967.00
1338.308, 15004.00
1339.370, 14887.00
1340.433, 14957.00
1341.495, 14901.00
1342.557, 15007.00
1343.619, 14946.00
1344.681, 14827.00
1345.742, 14961.00
1346.804, 14863.00
1347.865, 14963.00
1348.926, 14790.00
1349.987, 14863.00
1351.048, 14755.00
1352.108, 14909.00
1353.169, 14978.00
1354.229, 14765.00
1355.289, 14841.00
1356.349, 14842.00
1357.409, 14881.00
1358.469, 14759.00
1359.528, 14944.00
1360.588, 14918.00
1361.647, 15054.00
1362.706, 14888.00
1363.765, 14783.00
1364.823, 14951.00
1365.882, 14896.00
1366.940, 14809.00
1367.998, 14839.00
1369.056, 14787.00
1370.114, 14872.00
1371.172, 14879.00
1372.229, 14712.00
1373.287, 14814.00
1374.344, 14942.00
1375.401, 14750.00
1376.458, 14987.00
1377.515, 15036.00
1378.571, 14866.00
1379.628, 14833.00
1380.684, 14968.00
1381.740, 14745.00
1382.796, 14846.00
1383.852, 14909.00
1384.907, 14752.00
1385.963, 14795.00
1387.018, 15013.00
1388.073, 14948.00
1389.128, 14948.00
1390.183, 14808.00
1391.237, 14689.00
1392.292, 14976.00
1393.346, 14884.00
1394.400, 14962.00
1395.454, 14831.00
1396.508, 14810.00
1397.562, 15014.00
1398.615, 14924.00
1399.668, 14992.78
1400.722, 14822.00
1401.775, 14969.00
1402.827, 14944.00
1403.880, 14801.00
1404.933, 15021.00
1405.985, 15051.00
1407.037, 15034.00
1408.089, 15152.00
1409.141, 15169.00
1410.193, 14917.00
1411.244, 15001.00
1412.295, 15005.00
1413.347, 15101.00
1414.398, 14928.00
1415.449, 14892.00
1416.499, 15011.00
1417.550, 15077.00
1418.600, 14958.00
1419.650, 14981.00
1420.700, 14899.00
1421.750, 15041.00
1422.800, 15087.00
1423.850, 15082.00
1424.899, 15121.00
1425.948, 15076.00
1426.997, 15105.72
1428.046, 15073.00
1429.095, 15174.00
1430.144, 15075.00
1431.192, 15194.00
1432.240, 15187.00
1433.288, 15144.00
1434.336, 15214.00
1435.384, 15083.00
1436.432, 15327.00
1437.479, 15276.00
1438.526, 15068.00
1439.574, 15179.00
1440.621, 15375.00
1441.667, 15265.00
1442.714, 15313.00
1443.760, 15291.00
1444.807, 15276.00
1445.853, 15304.00
1446.899, 15420.00
1447.945, 15321.00
1448.990, 15469.00
1450.036, 15467.00
1451.081, 15477.00
1452.126, 15374.00
1453.171, 15597.00
1454.216, 15444.00
1455.261, 15503.00
1456.305, 15411.00
1457.350, 15360.00
1458.394, 15329.00
1459.438, 15484.00
1460.482, 15405.00
1461.526, 15515.00
1462.569, 15517.00
1463.612, 15463.00
1464.656, 15540.00
1465.699, 15627.00
1466.742, 15526.00
1467.784, 15561.00
1468.827, 15655.00
1469.869, 15581.00
1470.912, 15436.00
1471.954, 15535.00
1472.996, 15648.00
1474.037, 15657.00
1475.079, 15770.00
1476.120, 15645.00
1477.162, 15634.00
1478.203, 15576.00
1479.244, 15638.00
1480.284, 15580.00
1481.325, 15729.00
1482.365, 15711.00
1483.406, 15696.00
1484.446, 15729.69
1485.486, 15843.00
1486.526, 15673.00
1487.565, 15806.00
1488.605, 15730.00
1489.644, 15777.00
1490.683, 15837.00
1491.722, 15855.00
1492.761, 15878.00
1493.800, 15940.00
1494.838, 15763.00
1495.876, 15861.00
1496.915, 16054.00
1497.953, 15894.00
1498.990, 15880.00
1500.028, 15866.00
1501.066, 16037.00
1502.103, 15832.00
1503.140, 16014.00
1504.177, 15904.00
1505.214, 15907.00
1506.251, 15919.00
1507.287, 16153.00
1508.324, 16004.00
1509.360, 16046.00
1510.396, 16132.00
1511.432, 16009.00
1512.468, 15990.00
1513.503, 16051.00
1514.538, 16133.00
1515.574, 16001.00
1516.609, 16288.00
1517.644, 16162.00
1518.678, 16066.00
1519.713, 16134.00
1520.747, 16059.00
1521.782, 16402.00
1522.816, 16332.00
1523.850, 16329.00
1524.883, 16458.00
1525.917, 16405.00
1526.951, 16471.00
1527.984, 16351.00
1529.017, 16495.00
1530.050, 16463.00
1531.083, 16453.00
1532.115, 16276.00
1533.148, 16475.00
1534.180, 16367.00
1535.212, 16537.00
1536.244, 16582.00
1537.276, 16553.00
1538.308, 16628.00
1539.339, 16442.00
1540.370, 16621.00
1541.402, 16490.00
1542.433, 16555.00
1543.463, 16581.00
1544.494, 16369.00
1545.525, 16675.00
1546.555, 16464.00
1547.585, 16657.00
1548.615, 16717.00
1549.645, 16835.00
1550.675, 16641.00
1551.704, 16850.00
##END=



