##NAMES=Aenigmatite
##RRUFFID=R061088
##IDEAL CHEMISTRY=Na_4_(Fe^2+^_10_Ti^4+^_2_)O_4_[Si_12_O_36_]
##LOCALITY=Naujakasik, Greenland
##OWNER=RRUFF
##SOURCE=Michael Scott
##DESCRIPTION=Black prismatic crystals
##STATUS=The identification of this mineral has been confirmed by X-ray diffraction and chemical analysis
##URL=rruff.info/R061088
##MEASURED CHEMISTRY=(Na_1.72_Ca_0.28_)_Σ=2_(Fe^2+^_4.90_Mn_0.08_Mg_0.02_)_Σ=5_(Ti_0.85_Al_0.14_Fe^3+^_0.01_)_Σ=1_(Si_5.87_Al_0.13_)_Σ=6_O_20_
##PIN_ID=L00919
##ORIENTATION=Laser parallel to (0 -1 -1). Fiducial mark perpendicular to laser is parallel to a [1 0 0]
136.2100, 10445.00
137.4400, 10431.00
138.6700, 10568.00
139.9000, 10647.00
141.1290, 10434.00
142.3590, 10333.00
143.5880, 10399.00
144.8170, 10471.00
146.0460, 10481.00
147.2750, 10512.00
148.5030, 10380.00
149.7320, 10334.52
150.9600, 10367.80
152.1880, 10370.34
153.4160, 10342.75
154.6440, 10252.26
155.8720, 10167.00
157.0990, 9930.000
158.3270, 9974.000
159.5540, 9728.000
160.7810, 9788.000
162.0080, 9747.000
163.2350, 9873.000
164.4610, 9842.000
165.6880, 9680.000
166.9140, 9512.000
168.1400, 9444.000
169.3660, 9364.000
170.5920, 9340.000
171.8180, 9120.000
173.0430, 9059.000
174.2690, 8939.000
175.4940, 8925.000
176.7190, 8729.000
177.9440, 8757.000
179.1680, 8678.000
180.3930, 8709.000
181.6170, 8537.000
182.8420, 8478.000
184.0660, 8515.000
185.2900, 8567.000
186.5140, 8592.000
187.7370, 8595.000
188.9610, 8726.000
190.1840, 8587.000
191.4070, 8745.000
192.6300, 8691.000
193.8530, 8771.000
195.0760, 8672.000
196.2980, 8634.000
197.5210, 8696.000
198.7430, 8677.000
199.9650, 8795.000
201.1870, 8780.000
202.4090, 8823.000
203.6310, 8458.000
204.8520, 8407.000
206.0730, 8214.000
207.2950, 8189.000
208.5160, 8201.000
209.7360, 8263.000
210.9570, 8330.000
212.1780, 8317.000
213.3980, 8357.000
214.6180, 8422.000
215.8380, 8147.000
217.0580, 8142.000
218.2780, 8191.000
219.4980, 8243.000
220.7170, 8151.000
221.9360, 8121.000
223.1560, 7980.000
224.3750, 7970.000
225.5930, 7913.000
226.8120, 7898.000
228.0310, 7824.000
229.2490, 7747.000
230.4670, 7861.000
231.6850, 7734.000
232.9030, 7812.000
234.1210, 7617.000
235.3380, 7488.000
236.5560, 7597.000
237.7730, 7539.000
238.9900, 7433.000
240.2070, 7501.000
241.4240, 7415.000
242.6410, 7550.000
243.8570, 7337.000
245.0730, 7417.000
246.2900, 7293.000
247.5060, 7308.000
248.7210, 7423.000
249.9370, 7354.142
251.1530, 7384.000
252.3680, 7349.000
253.5830, 7310.632
254.7980, 7337.792
256.0130, 7353.386
257.2280, 7358.036
258.4430, 7318.965
259.6570, 7336.351
260.8720, 7331.112
262.0860, 7324.944
263.3000, 7350.277
264.5130, 7317.564
265.7270, 7342.397
266.9410, 7344.259
268.1540, 7422.000
269.3670, 7381.143
270.5800, 7415.000
271.7930, 7376.000
273.0060, 7511.000
274.2190, 7481.000
275.4310, 7502.000
276.6430, 7627.000
277.8550, 7606.000
279.0670, 7639.735
280.2790, 7576.000
281.4910, 7647.000
282.7020, 7637.000
283.9140, 7643.000
285.1250, 7681.000
286.3360, 7651.000
287.5470, 7700.914
288.7570, 7783.000
289.9680, 7808.000
291.1780, 7730.000
292.3880, 7845.000
293.5990, 7869.031
294.8080, 7910.000
296.0180, 8008.000
297.2280, 7928.000
298.4370, 7965.000
299.6470, 7972.000
300.8560, 7969.000
302.0650, 7982.000
303.2740, 8014.000
304.4820, 8049.000
305.6910, 8048.000
306.8990, 8084.000
308.1070, 8065.261
309.3150, 8098.000
310.5230, 7983.000
311.7310, 7948.000
312.9390, 7812.000
314.1460, 7924.000
315.3530, 7857.000
316.5600, 7731.000
317.7670, 7729.000
318.9740, 7656.000
320.1810, 7490.000
321.3870, 7484.000
322.5930, 7453.000
323.8000, 7316.000
325.0060, 7252.000
326.2110, 7190.171
327.4170, 7059.000
328.6230, 7131.000
329.8280, 7066.000
331.0330, 7169.000
332.2380, 7068.000
333.4430, 7060.000
334.6480, 7023.974
335.8530, 6987.896
337.0570, 7017.889
338.2610, 7036.317
339.4650, 7043.801
340.6690, 7007.563
341.8730, 7027.784
343.0770, 7025.378
344.2800, 7022.042
345.4840, 7050.208
346.6870, 7083.000
347.8900, 7054.000
349.0930, 7037.000
350.2950, 7072.084
351.4980, 7053.497
352.7000, 7139.000
353.9030, 7093.000
355.1050, 7167.000
356.3070, 7258.000
357.5080, 7279.000
358.7100, 7381.000
359.9110, 7288.000
361.1130, 7348.000
362.3140, 7299.000
363.5150, 7305.000
364.7160, 7353.000
365.9160, 7386.000
367.1170, 7345.000
368.3170, 7244.000
369.5170, 7287.000
370.7170, 7278.000
371.9170, 7316.000
373.1170, 7368.000
374.3170, 7236.000
375.5160, 7249.000
376.7150, 7312.000
377.9140, 7249.000
379.1130, 7280.000
380.3120, 7278.000
381.5110, 7253.845
382.7090, 7252.081
383.9070, 7240.000
385.1060, 7224.198
386.3040, 7185.014
387.5010, 7197.250
388.6990, 7197.911
389.8970, 7187.627
391.0940, 7133.634
392.2910, 7136.098
393.4880, 7115.937
394.6850, 7094.848
395.8820, 7105.258
397.0780, 7057.636
398.2750, 7067.547
399.4710, 7054.499
400.6670, 7025.000
401.8630, 6985.000
403.0590, 6997.000
404.2540, 7045.000
405.4500, 6971.000
406.6450, 6958.000
407.8400, 6989.000
409.0350, 6929.000
410.2300, 7041.000
411.4250, 6930.000
412.6190, 6982.000
413.8140, 7092.000
415.0080, 7014.000
416.2020, 7020.000
417.3960, 7084.000
418.5900, 7049.000
419.7830, 7082.000
420.9770, 7202.000
422.1700, 7208.767
423.3630, 7271.635
424.5560, 7336.000
425.7490, 7331.000
426.9410, 7412.000
428.1340, 7389.000
429.3260, 7434.000
430.5180, 7365.000
431.7100, 7267.000
432.9020, 7401.000
434.0940, 7416.000
435.2850, 7481.000
436.4770, 7428.000
437.6680, 7467.376
438.8590, 7348.000
440.0500, 7467.000
441.2410, 7371.000
442.4310, 7322.000
443.6220, 7281.000
444.8120, 7233.000
446.0020, 7107.000
447.1920, 7225.000
448.3820, 7259.000
449.5710, 7128.000
450.7610, 7174.110
451.9500, 7273.000
453.1390, 7152.000
454.3280, 7123.000
455.5170, 7243.000
456.7060, 7158.000
457.8940, 7064.000
459.0830, 7131.000
460.2710, 7181.000
461.4590, 7171.000
462.6470, 7202.201
463.8350, 7156.000
465.0220, 7186.000
466.2100, 7150.000
467.3970, 7100.000
468.5840, 7221.000
469.7710, 7115.000
470.9580, 7146.000
472.1440, 7326.000
473.3310, 7231.000
474.5170, 7189.000
475.7030, 7183.000
476.8890, 7159.032
478.0750, 7161.242
479.2610, 7171.000
480.4460, 7195.000
481.6320, 7188.000
482.8170, 7239.000
484.0020, 7172.000
485.1870, 7309.000
486.3710, 7286.000
487.5560, 7329.000
488.7400, 7419.000
489.9250, 7364.000
491.1090, 7320.000
492.2930, 7293.000
493.4760, 7464.000
494.6600, 7448.000
495.8440, 7440.000
497.0270, 7401.000
498.2100, 7385.000
499.3930, 7433.000
500.5760, 7369.000
501.7580, 7493.000
502.9410, 7436.000
504.1230, 7471.000
505.3060, 7486.000
506.4880, 7485.000
507.6690, 7534.000
508.8510, 7475.000
510.0330, 7552.000
511.2140, 7514.000
512.3950, 7554.000
513.5760, 7645.000
514.7570, 7561.000
515.9380, 7635.000
517.1190, 7572.000
518.2990, 7683.000
519.4800, 7725.000
520.6600, 7765.000
521.8400, 7619.000
523.0190, 7773.000
524.1990, 7682.000
525.3790, 7787.755
526.5580, 7823.700
527.7370, 7848.081
528.9160, 7861.518
530.0950, 7831.231
531.2740, 7857.404
532.4520, 7860.943
533.6310, 7863.561
534.8090, 7897.671
535.9870, 7873.737
537.1650, 7907.347
538.3430, 7917.987
539.5200, 7864.000
540.6980, 7841.000
541.8750, 7895.000
543.0520, 7857.000
544.2290, 7887.000
545.4060, 7900.000
546.5820, 7890.000
547.7590, 7882.000
548.9350, 7844.000
550.1110, 7882.000
551.2870, 7851.482
552.4630, 7865.248
553.6390, 7867.449
554.8140, 7858.716
555.9900, 7806.251
557.1650, 7810.255
558.3400, 7791.633
559.5150, 7772.083
560.6900, 7784.033
561.8640, 7737.949
563.0390, 7749.399
564.2130, 7737.889
565.3870, 7736.892
566.5610, 7627.000
567.7350, 7683.000
568.9080, 7702.000
570.0820, 7594.000
571.2550, 7688.000
572.4280, 7518.000
573.6010, 7387.000
574.7740, 7509.000
575.9470, 7370.000
577.1190, 7267.000
578.2920, 7334.000
579.4640, 7414.000
580.6360, 7176.000
581.8080, 7229.000
582.9790, 7187.000
584.1510, 7280.000
585.3220, 7211.000
586.4940, 7215.000
587.6650, 7242.000
588.8360, 7164.000
590.0060, 7156.000
591.1770, 7109.000
592.3470, 7191.000
593.5180, 7196.000
594.6880, 7285.000
595.8580, 7270.000
597.0280, 7215.000
598.1970, 7205.000
599.3670, 7432.000
600.5360, 7362.000
601.7050, 7439.000
602.8740, 7422.000
604.0430, 7379.000
605.2120, 7430.000
606.3800, 7521.000
607.5490, 7525.000
608.7170, 7597.000
609.8850, 7536.000
611.0530, 7680.000
612.2210, 7777.000
613.3880, 7643.000
614.5560, 7765.000
615.7230, 7796.000
616.8900, 8020.000
618.0570, 7975.000
619.2240, 7947.000
620.3900, 8018.000
621.5570, 8206.000
622.7230, 8186.000
623.8890, 8370.000
625.0550, 8333.000
626.2210, 8472.000
627.3870, 8652.000
628.5520, 8852.000
629.7180, 9028.593
630.8830, 9235.036
632.0480, 9416.000
633.2130, 9630.000
634.3770, 9810.000
635.5420, 9972.000
636.7060, 10114.00
637.8710, 10641.00
639.0350, 10766.47
640.1990, 11163.00
641.3620, 11278.00
642.5260, 11595.00
643.6890, 11841.00
644.8530, 12009.00
646.0160, 12195.84
647.1790, 12342.17
648.3410, 12503.00
649.5040, 12533.00
650.6670, 12793.00
651.8290, 12775.00
652.9910, 12902.00
654.1530, 12775.00
655.3150, 12812.00
656.4770, 12828.00
657.6380, 12621.00
658.7990, 12486.00
659.9610, 12569.00
661.1220, 12588.00
662.2830, 12299.00
663.4430, 12307.00
664.6040, 12298.00
665.7640, 12239.00
666.9240, 12129.00
668.0850, 11980.00
669.2440, 11943.00
670.4040, 11840.00
671.5640, 11822.00
672.7230, 11885.00
673.8830, 11844.16
675.0420, 11844.14
676.2010, 11821.53
677.3590, 11777.57
678.5180, 11648.13
679.6770, 11629.01
680.8350, 11565.73
681.9930, 11500.63
683.1510, 11497.09
684.3090, 11380.12
685.4670, 11375.60
686.6240, 11307.00
687.7810, 11273.00
688.9390, 11214.52
690.0960, 11059.00
691.2530, 11042.00
692.4090, 10884.00
693.5660, 10653.00
694.7220, 10423.00
695.8790, 10323.00
697.0350, 10071.00
698.1910, 9904.000
699.3460, 9799.000
700.5020, 9515.000
701.6570, 9411.000
702.8130, 9260.000
703.9680, 9043.000
705.1230, 8955.000
706.2780, 8944.000
707.4320, 8693.000
708.5870, 8626.000
709.7410, 8535.000
710.8950, 8296.000
712.0490, 8441.000
713.2030, 8234.000
714.3570, 8221.000
715.5100, 7994.000
716.6640, 8045.000
717.8170, 8006.000
718.9700, 7903.000
720.1230, 7912.000
721.2760, 7842.000
722.4280, 7717.000
723.5810, 7776.000
724.7330, 7624.000
725.8850, 7669.000
727.0370, 7635.000
728.1890, 7554.000
729.3400, 7659.000
730.4920, 7615.000
731.6430, 7605.000
732.7940, 7526.000
733.9450, 7646.000
735.0960, 7579.000
736.2460, 7552.000
737.3970, 7480.000
738.5470, 7446.000
739.6970, 7410.000
740.8470, 7367.000
741.9970, 7417.000
743.1470, 7399.000
744.2970, 7310.000
745.4460, 7367.000
746.5950, 7337.000
747.7440, 7266.000
748.8930, 7353.000
750.0420, 7247.000
751.1900, 7146.000
752.3390, 7253.000
753.4870, 7206.000
754.6350, 7242.000
755.7830, 7146.000
756.9310, 7175.000
758.0780, 7268.000
759.2260, 7223.000
760.3730, 7195.000
761.5200, 7151.000
762.6670, 7229.000
763.8140, 7189.000
764.9610, 7292.000
766.1070, 7191.000
767.2530, 7214.000
768.4000, 7081.000
769.5460, 7220.000
770.6910, 7172.000
771.8370, 7218.000
772.9830, 7146.000
774.1280, 7237.000
775.2730, 7277.000
776.4180, 7238.000
777.5630, 7150.000
778.7080, 7221.000
779.8520, 7123.000
780.9970, 7152.000
782.1410, 7218.000
783.2850, 7191.000
784.4290, 7155.000
785.5730, 7270.000
786.7160, 7290.000
787.8600, 7281.000
789.0030, 7410.000
790.1460, 7310.000
791.2890, 7215.000
792.4320, 7306.000
793.5750, 7311.000
794.7170, 7361.000
795.8590, 7268.000
797.0020, 7339.000
798.1440, 7340.000
799.2850, 7293.000
800.4270, 7326.000
801.5690, 7293.000
802.7100, 7342.000
803.8510, 7361.000
804.9920, 7324.000
806.1330, 7414.000
807.2740, 7444.000
808.4140, 7384.000
809.5550, 7431.000
810.6950, 7501.000
811.8350, 7517.000
812.9750, 7540.000
814.1150, 7472.000
815.2540, 7545.000
816.3940, 7485.000
817.5330, 7460.000
818.6720, 7548.000
819.8110, 7569.000
820.9500, 7640.000
822.0880, 7657.000
823.2270, 7619.000
824.3650, 7540.000
825.5030, 7564.045
826.6410, 7558.977
827.7790, 7593.000
828.9170, 7611.000
830.0540, 7696.000
831.1920, 7715.000
832.3290, 7722.000
833.4660, 7791.000
834.6030, 7751.000
835.7390, 7764.000
836.8760, 7801.000
838.0120, 7829.000
839.1480, 7940.000
840.2840, 7967.000
841.4200, 7917.000
842.5560, 7845.000
843.6920, 7949.000
844.8270, 8088.000
845.9620, 8063.000
847.0970, 8171.000
848.2320, 8091.000
849.3670, 8100.000
850.5020, 8180.000
851.6360, 8162.000
852.7700, 8219.000
853.9040, 8291.000
855.0380, 8254.000
856.1720, 8306.000
857.3060, 8229.000
858.4390, 8287.000
859.5730, 8334.000
860.7060, 8401.000
861.8390, 8421.000
862.9720, 8550.000
864.1040, 8469.000
865.2370, 8514.000
866.3690, 8635.000
867.5010, 8597.000
868.6330, 8618.000
869.7650, 8662.000
870.8970, 8791.000
872.0290, 8789.266
873.1600, 8807.000
874.2910, 8884.000
875.4220, 8834.000
876.5530, 8942.000
877.6840, 8922.000
878.8140, 8978.316
879.9450, 9107.000
881.0750, 9119.915
882.2050, 9208.001
883.3350, 9274.936
884.4650, 9321.341
885.5950, 9314.437
886.7240, 9354.391
887.8530, 9362.150
888.9820, 9359.413
890.1110, 9378.606
891.2400, 9330.187
892.3690, 9349.000
893.4970, 9283.000
894.6260, 9195.000
895.7540, 9162.747
896.8820, 9054.000
898.0100, 9034.000
899.1370, 8978.000
900.2650, 8871.000
901.3920, 8795.000
902.5200, 8676.000
903.6470, 8881.000
904.7730, 8817.000
905.9000, 8799.000
907.0270, 8655.000
908.1530, 8730.000
909.2790, 8730.000
910.4050, 8617.000
911.5310, 8511.000
912.6570, 8589.000
913.7830, 8613.000
914.9080, 8472.000
916.0330, 8402.000
917.1580, 8387.000
918.2830, 8378.000
919.4080, 8421.000
920.5330, 8449.000
921.6570, 8337.000
922.7820, 8436.000
923.9060, 8357.000
925.0300, 8370.000
926.1540, 8209.000
927.2770, 8253.000
928.4010, 8312.000
929.5240, 8155.000
930.6470, 8137.000
931.7700, 8269.000
932.8930, 8071.000
934.0160, 8184.000
935.1380, 8269.000
936.2610, 8229.000
937.3830, 8082.000
938.5050, 8097.000
939.6270, 8247.000
940.7490, 8108.000
941.8700, 8269.000
942.9910, 8198.000
944.1130, 8173.000
945.2340, 8299.000
946.3550, 8241.000
947.4750, 8299.000
948.5960, 8214.000
949.7160, 8141.000
950.8370, 8304.000
951.9570, 8128.000
953.0770, 8121.000
954.1970, 8153.000
955.3160, 8136.000
956.4360, 8227.000
957.5550, 8230.000
958.6740, 8239.000
959.7930, 8240.000
960.9120, 8194.000
962.0310, 8242.000
963.1490, 8397.000
964.2670, 8299.000
965.3860, 8349.000
966.5040, 8419.000
967.6210, 8328.000
968.7390, 8416.000
969.8570, 8401.000
970.9740, 8429.000
972.0910, 8431.000
973.2080, 8413.000
974.3250, 8464.000
975.4420, 8449.000
976.5580, 8436.000
977.6750, 8445.987
978.7910, 8509.809
979.9070, 8558.123
981.0230, 8591.322
982.1390, 8588.917
983.2540, 8613.514
984.3700, 8615.708
985.4850, 8609.052
986.6000, 8613.821
987.7150, 8574.051
988.8300, 8561.984
989.9450, 8527.299
991.0590, 8490.965
992.1730, 8451.496
993.2880, 8298.000
994.4010, 8356.000
995.5150, 8352.000
996.6290, 8310.000
997.7420, 8411.000
998.8560, 8222.000
999.9690, 8174.000
1001.082, 8247.000
1002.195, 8134.000
1003.307, 8181.000
1004.420, 8104.000
1005.532, 8128.000
1006.645, 8110.000
1007.757, 8117.000
1008.868, 8133.702
1009.980, 8067.000
1011.092, 8180.000
1012.203, 8122.000
1013.314, 8168.000
1014.425, 8149.000
1015.536, 8241.000
1016.647, 8186.000
1017.758, 8156.000
1018.868, 8203.000
1019.978, 8205.000
1021.088, 8197.000
1022.198, 8223.000
1023.308, 8232.562
1024.418, 8248.871
1025.527, 8268.550
1026.637, 8280.996
1027.746, 8285.224
1028.855, 8281.618
1029.963, 8249.698
1031.072, 8252.065
1032.181, 8239.299
1033.289, 8224.968
1034.397, 8229.331
1035.505, 8196.425
1036.613, 8198.493
1037.721, 8185.213
1038.828, 8177.524
1039.935, 8107.000
1041.043, 8137.000
1042.150, 8177.000
1043.257, 8043.000
1044.363, 8047.000
1045.470, 8021.000
1046.576, 8053.000
1047.682, 7956.000
1048.788, 7927.000
1049.894, 7959.000
1051.000, 7841.000
1052.106, 7919.000
1053.211, 7873.000
1054.316, 7907.000
1055.421, 7820.000
1056.526, 7808.000
1057.631, 7895.000
1058.736, 7759.000
1059.840, 7709.000
1060.944, 7739.000
1062.049, 7771.000
1063.153, 7761.000
1064.256, 7713.000
1065.360, 7604.000
1066.463, 7716.000
1067.567, 7628.000
1068.670, 7564.000
1069.773, 7610.000
1070.876, 7501.000
1071.978, 7603.000
1073.081, 7593.000
1074.183, 7485.000
1075.285, 7553.000
1076.387, 7570.000
1077.489, 7549.000
1078.591, 7585.000
1079.692, 7552.000
1080.794, 7581.000
1081.895, 7526.000
1082.996, 7505.000
1084.097, 7486.000
1085.198, 7456.000
1086.298, 7448.000
1087.399, 7525.000
1088.499, 7441.000
1089.599, 7508.000
1090.699, 7450.000
1091.799, 7465.000
1092.898, 7452.000
1093.998, 7395.000
1095.097, 7477.000
1096.196, 7409.000
1097.295, 7400.000
1098.394, 7440.000
1099.492, 7387.000
1100.591, 7494.000
1101.689, 7374.000
1102.787, 7427.000
1103.885, 7392.000
1104.983, 7342.000
1106.081, 7371.000
1107.178, 7486.000
1108.275, 7470.000
1109.373, 7512.000
1110.470, 7372.000
1111.566, 7430.000
1112.663, 7426.000
1113.760, 7447.000
1114.856, 7469.000
1115.952, 7463.000
1117.048, 7378.000
1118.144, 7414.000
1119.240, 7337.000
1120.335, 7474.000
1121.431, 7305.000
1122.526, 7423.000
1123.621, 7287.000
1124.716, 7390.000
1125.810, 7381.000
1126.905, 7380.000
1127.999, 7383.000
1129.094, 7380.000
1130.188, 7440.000
1131.282, 7359.000
1132.375, 7484.000
1133.469, 7426.000
1134.562, 7395.385
1135.656, 7412.906
1136.749, 7423.197
1137.842, 7426.649
1138.935, 7402.774
1140.027, 7414.185
1141.120, 7411.456
1142.212, 7408.146
1143.304, 7424.522
1144.396, 7404.621
1145.488, 7420.686
1146.579, 7422.393
1147.671, 7430.672
1148.762, 7424.721
1149.853, 7423.166
1150.944, 7435.843
1152.035, 7440.639
1153.126, 7433.050
1154.216, 7441.745
1155.307, 7421.346
1156.397, 7426.478
1157.487, 7442.624
1158.577, 7435.750
1159.667, 7444.705
1160.756, 7431.637
1161.846, 7457.031
1162.935, 7472.736
1164.024, 7479.274
1165.113, 7449.195
1166.201, 7466.397
1167.290, 7464.653
1168.378, 7462.129
1169.467, 7485.990
1170.555, 7461.233
1171.643, 7484.672
1172.730, 7488.870
1173.818, 7501.875
1174.905, 7495.811
1175.993, 7495.639
1177.080, 7514.537
1178.167, 7522.874
1179.254, 7514.614
1180.340, 7528.173
1181.427, 7502.748
1182.513, 7511.532
1183.599, 7535.077
1184.685, 7527.773
1185.771, 7541.681
1186.856, 7547.507
1187.942, 7516.624
1189.027, 7549.584
1190.112, 7554.934
1191.197, 7531.931
1192.282, 7505.000
1193.367, 7474.000
1194.451, 7547.000
1195.536, 7513.000
1196.620, 7618.000
1197.704, 7534.000
1198.788, 7549.000
1199.872, 7709.000
1200.955, 7554.000
1202.039, 7598.000
1203.122, 7506.000
1204.205, 7561.000
1205.288, 7538.000
1206.370, 7578.000
1207.453, 7572.706
1208.535, 7598.499
1209.618, 7583.000
1210.700, 7592.000
1211.782, 7645.000
1212.863, 7509.000
1213.945, 7614.000
1215.026, 7546.000
1216.108, 7609.000
1217.189, 7601.000
1218.270, 7563.000
1219.351, 7518.000
1220.431, 7522.076
1221.512, 7581.000
1222.592, 7529.000
1223.672, 7574.000
1224.752, 7610.000
1225.832, 7624.000
1226.911, 7598.000
1227.991, 7617.027
1229.070, 7605.497
1230.149, 7598.000
1231.228, 7580.000
1232.307, 7539.000
1233.386, 7496.000
1234.464, 7541.000
1235.543, 7465.000
1236.621, 7629.000
1237.699, 7610.000
1238.777, 7572.000
1239.855, 7677.000
1240.932, 7553.000
1242.009, 7541.000
1243.087, 7550.000
1244.164, 7624.000
1245.241, 7630.000
1246.317, 7574.000
1247.394, 7627.000
1248.470, 7580.000
1249.546, 7590.000
1250.623, 7609.000
1251.698, 7626.000
1252.774, 7563.000
1253.850, 7616.000
1254.925, 7645.000
1256.000, 7586.000
1257.076, 7595.000
1258.150, 7648.000
1259.225, 7669.074
1260.300, 7686.892
1261.374, 7697.991
1262.449, 7702.765
1263.523, 7680.722
1264.597, 7694.477
1265.670, 7694.598
1266.744, 7694.654
1267.818, 7714.909
1268.891, 7699.393
1269.964, 7720.353
1271.037, 7727.466
1272.110, 7741.661
1273.183, 7742.138
1274.255, 7747.512
1275.327, 7767.629
1276.400, 7780.384
1277.472, 7781.255
1278.543, 7798.910
1279.615, 7787.990
1280.687, 7803.110
1281.758, 7829.744
1282.829, 7833.866
1283.900, 7854.326
1284.971, 7869.265
1286.042, 7857.317
1287.112, 7893.510
1288.183, 7909.618
1289.253, 7905.066
1290.323, 7941.149
1291.393, 7899.000
1292.463, 7998.000
1293.532, 8086.000
1294.602, 8045.000
1295.671, 8057.000
1296.740, 8104.000
1297.809, 8158.000
1298.878, 8126.000
1299.946, 8175.000
1301.015, 8076.000
1302.083, 8161.000
1303.151, 8138.000
1304.219, 8153.000
1305.287, 8165.000
1306.354, 8233.000
1307.422, 8227.969
1308.489, 8266.000
1309.556, 8234.000
1310.623, 8232.000
1311.690, 8193.000
1312.757, 8332.000
1313.823, 8118.000
1314.890, 8207.000
1315.956, 8358.000
1317.022, 8209.000
1318.088, 8262.000
1319.153, 8320.000
1320.219, 8237.000
1321.284, 8290.000
1322.349, 8288.000
1323.414, 8307.000
1324.479, 8269.000
1325.544, 8292.000
1326.608, 8292.000
1327.673, 8203.000
1328.737, 8359.000
1329.801, 8257.000
1330.865, 8338.000
1331.929, 8314.000
1332.992, 8271.000
1334.056, 8284.000
1335.119, 8204.000
1336.182, 8226.000
1337.245, 8167.000
1338.308, 8236.000
1339.370, 8204.000
1340.433, 8337.000
1341.495, 8263.000
1342.557, 8306.000
1343.619, 8259.000
1344.681, 8266.000
1345.742, 8258.000
1346.804, 8273.000
1347.865, 8202.000
1348.926, 8147.000
1349.987, 8188.000
1351.048, 8182.000
1352.108, 8074.000
1353.169, 8088.000
1354.229, 8265.000
1355.289, 8159.000
1356.349, 8197.000
1357.409, 8229.000
1358.469, 8145.000
1359.528, 8073.000
1360.588, 8219.000
1361.647, 8152.000
1362.706, 8087.000
1363.765, 8099.000
1364.823, 8113.000
1365.882, 8058.000
1366.940, 8170.000
1367.998, 8069.000
1369.056, 8043.386
1370.114, 8259.000
1371.172, 7957.000
1372.229, 7947.000
1373.287, 8007.000
1374.344, 8091.000
1375.401, 7949.000
1376.458, 7872.000
1377.515, 7997.000
1378.571, 7932.000
1379.628, 7961.000
1380.684, 7843.000
1381.740, 7891.000
1382.796, 7985.000
1383.852, 7876.000
1384.907, 7864.000
1385.963, 7897.000
1387.018, 7914.000
1388.073, 7762.000
1389.128, 7916.000
1390.183, 7807.000
1391.237, 7875.000
1392.292, 7860.000
1393.346, 7802.000
1394.400, 7748.000
1395.454, 7822.000
1396.508, 7817.000
1397.562, 7777.000
1398.615, 7686.000
1399.668, 7813.000
1400.722, 7752.000
1401.775, 7811.000
1402.827, 7706.000
1403.880, 7738.000
1404.933, 7651.000
1405.985, 7693.000
1407.037, 7723.000
1408.089, 7706.000
1409.141, 7650.000
1410.193, 7662.679
1411.244, 7657.000
1412.295, 7665.000
1413.347, 7632.000
1414.398, 7695.000
1415.449, 7761.000
1416.499, 7664.000
1417.550, 7765.000
1418.600, 7712.000
1419.650, 7617.000
1420.700, 7725.000
1421.750, 7646.000
1422.800, 7732.000
1423.850, 7773.000
1424.899, 7653.000
1425.948, 7611.000
1426.997, 7810.000
1428.046, 7719.000
1429.095, 7629.000
1430.144, 7705.000
1431.192, 7583.000
1432.240, 7670.000
1433.288, 7640.000
1434.336, 7716.000
1435.384, 7749.000
1436.432, 7710.000
1437.479, 7632.000
1438.526, 7793.000
1439.574, 7762.000
1440.621, 7618.000
1441.667, 7765.000
1442.714, 7757.000
1443.760, 7828.000
1444.807, 7673.000
1445.853, 7551.000
1446.899, 7636.000
1447.945, 7659.000
1448.990, 7598.000
1450.036, 7622.000
1451.081, 7724.000
1452.126, 7839.000
1453.171, 7779.000
1454.216, 7717.000
1455.261, 7672.000
1456.305, 7717.000
1457.350, 7758.000
1458.394, 7641.000
1459.438, 7689.000
1460.482, 7674.326
1461.526, 7698.000
1462.569, 7686.000
1463.612, 7654.000
1464.656, 7653.000
1465.699, 7721.000
1466.742, 7773.000
1467.784, 7653.000
1468.827, 7747.000
1469.869, 7757.000
1470.912, 7843.000
1471.954, 7815.171
1472.996, 7718.000
1474.037, 7773.000
1475.079, 7696.000
1476.120, 7720.000
1477.162, 7680.000
1478.203, 7845.000
1479.244, 7756.000
1480.284, 7951.000
1481.325, 7778.000
1482.365, 7878.000
1483.406, 7767.000
1484.446, 7853.000
1485.486, 7831.000
1486.526, 7823.000
1487.565, 7767.000
1488.605, 7817.000
1489.644, 7793.000
1490.683, 7809.000
1491.722, 7863.000
1492.761, 7823.000
1493.800, 7832.570
1494.838, 7810.000
1495.876, 7810.000
1496.915, 7754.000
1497.953, 7769.000
1498.990, 7789.444
1500.028, 7801.000
1501.066, 7849.000
1502.103, 7890.000
1503.140, 7886.000
1504.177, 7827.000
1505.214, 7814.000
1506.251, 7879.000
1507.287, 7959.000
1508.324, 7931.000
1509.360, 7806.000
1510.396, 7890.000
1511.432, 7907.000
1512.468, 7915.000
1513.503, 7958.000
1514.538, 7907.000
1515.574, 7973.000
1516.609, 7941.000
1517.644, 7924.000
1518.678, 7988.000
1519.713, 7954.000
1520.747, 8011.000
1521.782, 8046.000
1522.816, 7938.000
1523.850, 7906.000
1524.883, 7955.000
1525.917, 7953.000
1526.951, 8042.000
1527.984, 7870.000
1529.017, 7964.000
1530.050, 7960.000
1531.083, 8161.000
1532.115, 8102.402
1533.148, 8152.026
1534.180, 8063.000
1535.212, 8118.000
1536.244, 8116.000
1537.276, 8014.000
1538.308, 8143.000
1539.339, 8107.000
1540.370, 8099.000
1541.402, 8015.000
1542.433, 8154.000
1543.463, 8099.000
##END=



