##NAMES=Aenigmatite
##RRUFFID=R061088
##IDEAL CHEMISTRY=Na_4_(Fe^2+^_10_Ti^4+^_2_)O_4_[Si_12_O_36_]
##LOCALITY=Naujakasik, Greenland
##OWNER=RRUFF
##SOURCE=Michael Scott
##DESCRIPTION=Black prismatic crystals
##STATUS=The identification of this mineral has been confirmed by X-ray diffraction and chemical analysis
##URL=rruff.info/R061088
##MEASURED CHEMISTRY=(Na_1.72_Ca_0.28_)_Σ=2_(Fe^2+^_4.90_Mn_0.08_Mg_0.02_)_Σ=5_(Ti_0.85_Al_0.14_Fe^3+^_0.01_)_Σ=1_(Si_5.87_Al_0.13_)_Σ=6_O_20_
##PIN_ID=L00919
##ORIENTATION=Laser parallel to (0 -1 -1). Fiducial mark perpendicular to laser is parallel to a [1 0 0]
141.1290, 8548.000
142.3590, 8537.000
143.5880, 8543.000
144.8170, 8591.000
146.0460, 8643.000
147.2750, 8752.000
148.5030, 8717.000
149.7320, 8858.000
150.9600, 8953.000
152.1880, 8983.000
153.4160, 8853.000
154.6440, 8928.000
155.8720, 8908.000
157.0990, 8810.000
158.3270, 8831.000
159.5540, 8729.000
160.7810, 8862.000
162.0080, 8766.000
163.2350, 8839.000
164.4610, 8612.000
165.6880, 8544.000
166.9140, 8295.000
168.1400, 8223.000
169.3660, 8075.153
170.5920, 8060.000
171.8180, 7790.000
173.0430, 7648.000
174.2690, 7450.000
175.4940, 7385.000
176.7190, 7267.000
177.9440, 7286.000
179.1680, 7283.000
180.3930, 7207.000
181.6170, 7168.000
182.8420, 7249.000
184.0660, 7272.000
185.2900, 7326.000
186.5140, 7470.000
187.7370, 7415.000
188.9610, 7504.000
190.1840, 7621.000
191.4070, 7587.000
192.6300, 7618.000
193.8530, 7703.000
195.0760, 7675.000
196.2980, 7712.000
197.5210, 7755.000
198.7430, 7769.000
199.9650, 7837.000
201.1870, 7835.000
202.4090, 7827.000
203.6310, 7618.000
204.8520, 7541.000
206.0730, 7402.000
207.2950, 7292.000
208.5160, 7303.000
209.7360, 7192.000
210.9570, 7243.000
212.1780, 7467.000
213.3980, 7496.000
214.6180, 7444.000
215.8380, 7341.000
217.0580, 7330.000
218.2780, 7266.000
219.4980, 7217.000
220.7170, 7210.000
221.9360, 7117.000
223.1560, 6974.000
224.3750, 6940.000
225.5930, 6831.000
226.8120, 6772.000
228.0310, 6663.000
229.2490, 6582.000
230.4670, 6518.294
231.6850, 6429.000
232.9030, 6397.000
234.1210, 6334.000
235.3380, 6289.000
236.5560, 6248.000
237.7730, 6296.000
238.9900, 6175.000
240.2070, 6232.000
241.4240, 6194.000
242.6410, 6044.000
243.8570, 6109.000
245.0730, 6171.000
246.2900, 6113.915
247.5060, 6168.000
248.7210, 6063.000
249.9370, 6156.000
251.1530, 6038.000
252.3680, 6102.000
253.5830, 6088.442
254.7980, 6098.280
256.0130, 6329.000
257.2280, 6271.000
258.4430, 6348.923
259.6570, 6232.420
260.8720, 6387.000
262.0860, 5975.000
263.3000, 5930.000
264.5130, 5988.000
265.7270, 5897.000
266.9410, 5902.000
268.1540, 5880.000
269.3670, 5850.000
270.5800, 5866.000
271.7930, 5861.000
273.0060, 5820.000
274.2190, 5912.000
275.4310, 5814.000
276.6430, 5753.000
277.8550, 5910.000
279.0670, 5956.000
280.2790, 5842.000
281.4910, 5826.000
282.7020, 5890.000
283.9140, 5952.000
285.1250, 5865.000
286.3360, 5869.000
287.5470, 6022.000
288.7570, 5987.000
289.9680, 5958.000
291.1780, 5968.000
292.3880, 5935.000
293.5990, 5977.000
294.8080, 5927.000
296.0180, 5956.890
297.2280, 5977.000
298.4370, 5964.000
299.6470, 6030.000
300.8560, 5970.000
302.0650, 6007.000
303.2740, 6020.000
304.4820, 5980.000
305.6910, 5931.000
306.8990, 5848.000
308.1070, 5996.000
309.3150, 5973.000
310.5230, 5826.000
311.7310, 5849.000
312.9390, 5711.000
314.1460, 5770.000
315.3530, 5730.000
316.5600, 5777.000
317.7670, 5730.000
318.9740, 5628.000
320.1810, 5632.000
321.3870, 5632.000
322.5930, 5690.000
323.8000, 5539.000
325.0060, 5597.000
326.2110, 5529.000
327.4170, 5528.000
328.6230, 5638.000
329.8280, 5504.000
331.0330, 5522.000
332.2380, 5534.000
333.4430, 5524.000
334.6480, 5538.000
335.8530, 5518.000
337.0570, 5520.164
338.2610, 5548.000
339.4650, 5518.000
340.6690, 5561.000
341.8730, 5576.000
343.0770, 5568.000
344.2800, 5616.000
345.4840, 5637.691
346.6870, 5662.000
347.8900, 5672.000
349.0930, 5714.000
350.2950, 5746.322
351.4980, 5762.360
352.7000, 5828.000
353.9030, 5812.000
355.1050, 5842.000
356.3070, 5889.000
357.5080, 5877.000
358.7100, 5878.000
359.9110, 5983.000
361.1130, 5928.000
362.3140, 5971.000
363.5150, 5979.000
364.7160, 5890.000
365.9160, 5967.000
367.1170, 5949.000
368.3170, 5882.000
369.5170, 5922.000
370.7170, 5853.000
371.9170, 5880.000
373.1170, 5840.000
374.3170, 5878.000
375.5160, 5892.000
376.7150, 5805.000
377.9140, 5777.000
379.1130, 5796.000
380.3120, 5856.000
381.5110, 5861.752
382.7090, 5819.000
383.9070, 5906.000
385.1060, 5854.000
386.3040, 5814.000
387.5010, 5827.000
388.6990, 5811.488
389.8970, 5801.000
391.0940, 5817.000
392.2910, 5845.000
393.4880, 5813.000
394.6850, 5846.000
395.8820, 5831.000
397.0780, 5813.000
398.2750, 5791.000
399.4710, 5799.000
400.6670, 5839.000
401.8630, 5735.366
403.0590, 5775.592
404.2540, 5796.895
405.4500, 5800.287
406.6450, 5732.134
407.8400, 5756.370
409.0350, 5743.581
410.2300, 5729.273
411.4250, 5766.511
412.6190, 5708.768
413.8140, 5745.189
415.0080, 5744.022
416.2020, 5760.060
417.3960, 5738.845
418.5900, 5842.000
419.7830, 5762.000
420.9770, 5801.000
422.1700, 5816.000
423.3630, 5852.000
424.5560, 5930.000
425.7490, 5898.000
426.9410, 5867.000
428.1340, 5947.000
429.3260, 5887.000
430.5180, 6056.000
431.7100, 6034.329
432.9020, 6036.921
434.0940, 6092.000
435.2850, 6015.000
436.4770, 6068.000
437.6680, 6070.000
438.8590, 6094.000
440.0500, 6089.000
441.2410, 6104.000
442.4310, 5963.000
443.6220, 5834.000
444.8120, 5966.000
446.0020, 5976.000
447.1920, 5973.000
448.3820, 5963.000
449.5710, 5937.062
450.7610, 5808.000
451.9500, 5854.000
453.1390, 5821.000
454.3280, 5755.000
455.5170, 5786.000
456.7060, 5809.000
457.8940, 5799.000
459.0830, 5744.000
460.2710, 5734.000
461.4590, 5780.000
462.6470, 5721.000
463.8350, 5796.000
465.0220, 5890.000
466.2100, 5815.000
467.3970, 5835.000
468.5840, 5729.000
469.7710, 5870.000
470.9580, 5842.000
472.1440, 5980.000
473.3310, 5921.000
474.5170, 5851.000
475.7030, 5995.000
476.8890, 6075.000
478.0750, 6121.000
479.2610, 6181.881
480.4460, 6184.000
481.6320, 6202.000
482.8170, 6262.000
484.0020, 6213.000
485.1870, 6247.000
486.3710, 6266.000
487.5560, 6312.000
488.7400, 6370.000
489.9250, 6376.000
491.1090, 6387.000
492.2930, 6478.000
493.4760, 6474.000
494.6600, 6370.000
495.8440, 6487.000
497.0270, 6436.000
498.2100, 6418.000
499.3930, 6413.000
500.5760, 6419.000
501.7580, 6355.000
502.9410, 6437.000
504.1230, 6402.000
505.3060, 6368.000
506.4880, 6421.000
507.6690, 6438.000
508.8510, 6467.000
510.0330, 6432.000
511.2140, 6490.000
512.3950, 6521.000
513.5760, 6477.000
514.7570, 6565.000
515.9380, 6485.000
517.1190, 6463.000
518.2990, 6434.000
519.4800, 6607.000
520.6600, 6541.000
521.8400, 6618.000
523.0190, 6588.000
524.1990, 6619.000
525.3790, 6634.000
526.5580, 6748.000
527.7370, 6748.000
528.9160, 6823.912
530.0950, 6879.000
531.2740, 6916.000
532.4520, 6953.000
533.6310, 6929.000
534.8090, 6897.000
535.9870, 6935.581
537.1650, 6986.283
538.3430, 7022.230
539.5200, 7043.916
540.6980, 7024.554
541.8750, 7046.089
543.0520, 7043.828
544.2290, 7035.524
545.4060, 7047.709
546.5820, 7007.133
547.7590, 7008.347
548.9350, 6985.505
550.1110, 6965.989
551.2870, 6922.574
552.4630, 6879.636
553.6390, 6852.000
554.8140, 6825.000
555.9900, 6900.000
557.1650, 6850.000
558.3400, 6781.000
559.5150, 6672.000
560.6900, 6804.000
561.8640, 6798.000
563.0390, 6723.000
564.2130, 6567.000
565.3870, 6699.000
566.5610, 6603.000
567.7350, 6600.000
568.9080, 6528.000
570.0820, 6513.000
571.2550, 6300.000
572.4280, 6420.000
573.6010, 6222.000
574.7740, 6228.000
575.9470, 6116.000
577.1190, 6133.000
578.2920, 6118.000
579.4640, 6078.000
580.6360, 6024.000
581.8080, 6079.000
582.9790, 5894.000
584.1510, 5937.000
585.3220, 5869.000
586.4940, 5896.000
587.6650, 5954.000
588.8360, 5927.000
590.0060, 5975.000
591.1770, 5973.000
592.3470, 6065.000
593.5180, 6085.000
594.6880, 6125.000
595.8580, 6154.000
597.0280, 6200.000
598.1970, 6209.000
599.3670, 6266.000
600.5360, 6378.000
601.7050, 6365.000
602.8740, 6429.000
604.0430, 6532.000
605.2120, 6520.000
606.3800, 6577.744
607.5490, 6541.000
608.7170, 6650.000
609.8850, 6570.000
611.0530, 6656.000
612.2210, 6805.000
613.3880, 6768.000
614.5560, 6854.000
615.7230, 6859.000
616.8900, 6972.000
618.0570, 6928.000
619.2240, 7094.000
620.3900, 7232.000
621.5570, 7438.000
622.7230, 7480.000
623.8890, 7629.000
625.0550, 7677.000
626.2210, 7984.000
627.3870, 8132.000
628.5520, 8431.000
629.7180, 8698.000
630.8830, 9055.000
632.0480, 9354.000
633.2130, 9933.000
634.3770, 10216.00
635.5420, 10791.00
636.7060, 11155.00
637.8710, 11550.00
639.0350, 12016.00
640.1990, 12366.00
641.3620, 13103.00
642.5260, 13427.91
643.6890, 13838.79
644.8530, 14144.00
646.0160, 14466.00
647.1790, 14523.00
648.3410, 14673.00
649.5040, 14888.00
650.6670, 14843.00
651.8290, 14611.00
652.9910, 14592.00
654.1530, 14499.00
655.3150, 14318.00
656.4770, 14180.00
657.6380, 13815.00
658.7990, 13637.00
659.9610, 13310.00
661.1220, 13092.00
662.2830, 12844.00
663.4430, 12537.00
664.6040, 12319.20
665.7640, 12086.00
666.9240, 11852.00
668.0850, 11764.00
669.2440, 11596.00
670.4040, 11379.00
671.5640, 11160.31
672.7230, 11203.04
673.8830, 11198.40
675.0420, 11149.05
676.2010, 10920.83
677.3590, 10923.63
678.5180, 10833.82
679.6770, 10740.21
680.8350, 10775.52
681.9930, 10573.37
683.1510, 10606.64
684.3090, 10545.93
685.4670, 10528.24
686.6240, 10355.10
687.7810, 10471.00
688.9390, 10283.00
690.0960, 10221.00
691.2530, 10177.00
692.4090, 9840.000
693.5660, 9600.000
694.7220, 9353.000
695.8790, 9104.000
697.0350, 8905.000
698.1910, 8731.000
699.3460, 8353.000
700.5020, 8201.000
701.6570, 7848.000
702.8130, 7818.000
703.9680, 7556.000
705.1230, 7438.000
706.2780, 7320.000
707.4320, 7184.000
708.5870, 7146.000
709.7410, 6999.000
710.8950, 6867.000
712.0490, 6906.000
713.2030, 6715.000
714.3570, 6662.000
715.5100, 6701.000
716.6640, 6540.000
717.8170, 6503.000
718.9700, 6506.000
720.1230, 6418.000
721.2760, 6309.000
722.4280, 6375.000
723.5810, 6347.000
724.7330, 6200.000
725.8850, 6289.000
727.0370, 6298.000
728.1890, 6310.000
729.3400, 6235.000
730.4920, 6182.000
731.6430, 6123.000
732.7940, 6165.000
733.9450, 6146.000
735.0960, 6217.000
736.2460, 6075.000
737.3970, 6169.000
738.5470, 6139.000
739.6970, 6009.000
740.8470, 6017.000
741.9970, 5969.000
743.1470, 5981.000
744.2970, 5970.000
745.4460, 5974.000
746.5950, 5958.000
747.7440, 5936.223
748.8930, 5892.576
750.0420, 5889.000
751.1900, 5805.000
752.3390, 5793.000
753.4870, 5805.000
754.6350, 5886.000
755.7830, 5924.000
756.9310, 5965.000
758.0780, 5855.000
759.2260, 5828.000
760.3730, 5863.000
761.5200, 5812.000
762.6670, 5851.000
763.8140, 5867.000
764.9610, 5877.000
766.1070, 5906.000
767.2530, 5892.000
768.4000, 5951.000
769.5460, 5929.000
770.6910, 5976.000
771.8370, 5911.496
772.9830, 5930.000
774.1280, 5829.000
775.2730, 5892.000
776.4180, 5991.000
777.5630, 5912.000
778.7080, 5927.000
779.8520, 5934.000
780.9970, 5948.000
782.1410, 5938.000
783.2850, 5921.000
784.4290, 5885.000
785.5730, 5872.000
786.7160, 5987.000
787.8600, 5905.456
789.0030, 5956.000
790.1460, 5918.000
791.2890, 5885.000
792.4320, 5897.696
793.5750, 5991.000
794.7170, 5931.000
795.8590, 5963.000
797.0020, 6091.000
798.1440, 6089.000
799.2850, 6082.000
800.4270, 6140.000
801.5690, 6114.000
802.7100, 6061.000
803.8510, 6050.000
804.9920, 6149.000
806.1330, 6259.000
807.2740, 6066.000
808.4140, 6261.000
809.5550, 6167.000
810.6950, 6234.000
811.8350, 6264.000
812.9750, 6244.000
814.1150, 6207.000
815.2540, 6259.281
816.3940, 6401.000
817.5330, 6332.000
818.6720, 6284.000
819.8110, 6304.000
820.9500, 6483.000
822.0880, 6353.000
823.2270, 6458.000
824.3650, 6437.000
825.5030, 6463.000
826.6410, 6444.000
827.7790, 6526.000
828.9170, 6537.000
830.0540, 6579.000
831.1920, 6593.000
832.3290, 6617.000
833.4660, 6580.000
834.6030, 6615.103
835.7390, 6715.000
836.8760, 6660.000
838.0120, 6741.000
839.1480, 6791.000
840.2840, 6771.000
841.4200, 6965.000
842.5560, 6916.000
843.6920, 6960.000
844.8270, 7097.000
845.9620, 7036.000
847.0970, 7157.000
848.2320, 7173.000
849.3670, 7171.000
850.5020, 7214.000
851.6360, 7312.000
852.7700, 7375.000
853.9040, 7258.000
855.0380, 7382.000
856.1720, 7352.000
857.3060, 7535.000
858.4390, 7496.000
859.5730, 7505.000
860.7060, 7534.000
861.8390, 7515.000
862.9720, 7563.000
864.1040, 7606.783
865.2370, 7603.000
866.3690, 7740.000
867.5010, 7769.000
868.6330, 7859.000
869.7650, 7837.000
870.8970, 7852.000
872.0290, 7986.000
873.1600, 8027.000
874.2910, 8051.000
875.4220, 8111.000
876.5530, 8368.000
877.6840, 8429.239
878.8140, 8544.146
879.9450, 8686.000
881.0750, 8647.000
882.2050, 8683.000
883.3350, 8564.000
884.4650, 8752.000
885.5950, 8781.787
886.7240, 8860.335
887.8530, 8898.298
888.9820, 8896.693
890.1110, 8801.881
891.2400, 8777.800
892.3690, 8695.031
893.4970, 8589.181
894.6260, 8513.146
895.7540, 8320.590
896.8820, 8235.000
898.0100, 8149.000
899.1370, 7994.000
900.2650, 7869.000
901.3920, 7762.000
902.5200, 7543.000
903.6470, 7455.000
904.7730, 7373.000
905.9000, 7315.000
907.0270, 7242.000
908.1530, 7147.000
909.2790, 7084.000
910.4050, 7032.000
911.5310, 6923.000
912.6570, 6863.000
913.7830, 6793.000
914.9080, 6756.000
916.0330, 6667.000
917.1580, 6640.000
918.2830, 6731.000
919.4080, 6633.000
920.5330, 6628.000
921.6570, 6574.000
922.7820, 6517.000
923.9060, 6490.000
925.0300, 6480.000
926.1540, 6519.000
927.2770, 6500.000
928.4010, 6495.000
929.5240, 6454.000
930.6470, 6480.000
931.7700, 6493.000
932.8930, 6454.000
934.0160, 6399.000
935.1380, 6456.000
936.2610, 6404.000
937.3830, 6354.000
938.5050, 6404.000
939.6270, 6384.000
940.7490, 6315.000
941.8700, 6483.000
942.9910, 6458.000
944.1130, 6416.000
945.2340, 6413.000
946.3550, 6364.000
947.4750, 6339.000
948.5960, 6355.300
949.7160, 6336.000
950.8370, 6342.806
951.9570, 6401.081
953.0770, 6440.431
954.1970, 6461.871
955.3160, 6411.751
956.4360, 6454.033
957.5550, 6459.277
958.6740, 6463.002
959.7930, 6518.273
960.9120, 6478.560
962.0310, 6533.014
963.1490, 6549.864
964.2670, 6491.000
965.3860, 6442.000
966.5040, 6482.000
967.6210, 6577.000
968.7390, 6495.000
969.8570, 6573.000
970.9740, 6674.000
972.0910, 6614.000
973.2080, 6645.000
974.3250, 6667.000
975.4420, 6712.000
976.5580, 6715.000
977.6750, 6717.952
978.7910, 6769.044
979.9070, 6801.211
981.0230, 6815.469
982.1390, 6758.181
983.2540, 6793.273
984.3700, 6791.347
985.4850, 6787.896
986.6000, 6835.991
987.7150, 6730.050
988.8300, 6756.009
989.9450, 6763.042
991.0590, 6752.183
992.1730, 6669.777
993.2880, 6679.742
994.4010, 6652.714
995.5150, 6624.152
996.6290, 6647.136
997.7420, 6575.151
998.8560, 6597.318
999.9690, 6581.911
1001.082, 6583.708
1002.195, 6548.250
1003.307, 6524.314
1004.420, 6537.629
1005.532, 6530.325
1006.645, 6490.579
1007.757, 6493.484
1008.868, 6420.230
1009.980, 6413.805
1011.092, 6436.220
1012.203, 6398.378
1013.314, 6459.000
1014.425, 6429.000
1015.536, 6447.000
1016.647, 6527.000
1017.758, 6462.000
1018.868, 6484.000
1019.978, 6395.000
1021.088, 6496.000
1022.198, 6409.000
1023.308, 6498.000
1024.418, 6471.000
1025.527, 6523.000
1026.637, 6481.000
1027.746, 6498.000
1028.855, 6546.000
1029.963, 6561.000
1031.072, 6579.000
1032.181, 6527.000
1033.289, 6533.000
1034.397, 6489.000
1035.505, 6484.000
1036.613, 6425.000
1037.721, 6450.000
1038.828, 6472.000
1039.935, 6468.000
1041.043, 6386.000
1042.150, 6412.000
1043.257, 6401.000
1044.363, 6304.000
1045.470, 6392.000
1046.576, 6336.000
1047.682, 6331.000
1048.788, 6326.000
1049.894, 6261.000
1051.000, 6179.000
1052.106, 6166.620
1053.211, 6216.000
1054.316, 6131.000
1055.421, 6182.000
1056.526, 6232.000
1057.631, 6172.000
1058.736, 6118.000
1059.840, 6157.000
1060.944, 6200.000
1062.049, 6063.000
1063.153, 6094.000
1064.256, 6124.000
1065.360, 6055.000
1066.463, 6102.000
1067.567, 6131.000
1068.670, 6018.000
1069.773, 6025.000
1070.876, 6001.000
1071.978, 6048.000
1073.081, 5920.000
1074.183, 6063.000
1075.285, 5898.000
1076.387, 5947.000
1077.489, 5935.000
1078.591, 5932.000
1079.692, 6020.000
1080.794, 5896.000
1081.895, 5976.000
1082.996, 5896.000
1084.097, 5976.000
1085.198, 5928.000
1086.298, 5895.000
1087.399, 5973.000
1088.499, 5965.000
1089.599, 5920.000
1090.699, 5938.000
1091.799, 5889.000
1092.898, 5846.000
1093.998, 5935.000
1095.097, 5857.000
1096.196, 5850.000
1097.295, 5878.000
1098.394, 5910.000
1099.492, 5963.000
1100.591, 5869.000
1101.689, 5877.000
1102.787, 5884.000
1103.885, 5965.000
1104.983, 5983.000
1106.081, 5873.000
1107.178, 5947.000
1108.275, 5890.000
1109.373, 5961.000
1110.470, 5899.000
1111.566, 5909.776
1112.663, 5924.000
1113.760, 5869.000
1114.856, 5915.000
1115.952, 5826.000
1117.048, 5851.000
1118.144, 5956.000
1119.240, 5928.000
1120.335, 5961.596
1121.431, 5847.000
1122.526, 5961.000
1123.621, 5906.000
1124.716, 5891.000
1125.810, 5908.444
1126.905, 5925.000
1127.999, 5866.000
1129.094, 5842.000
1130.188, 5793.000
1131.282, 5887.000
1132.375, 5806.000
1133.469, 5806.000
1134.562, 5915.000
1135.656, 5859.000
1136.749, 5936.000
1137.842, 5923.000
1138.935, 5948.000
1140.027, 5926.616
1141.120, 5937.255
1142.212, 5830.000
1143.304, 5908.000
1144.396, 5827.000
1145.488, 5724.000
1146.579, 5857.000
1147.671, 5849.000
1148.762, 5840.264
1149.853, 5879.182
1150.944, 5858.000
1152.035, 5874.000
1153.126, 5923.000
1154.216, 5924.000
1155.307, 5854.000
1156.397, 5822.000
1157.487, 5840.000
1158.577, 5830.000
1159.667, 5852.000
1160.756, 5776.000
1161.846, 5935.000
1162.935, 5889.000
1164.024, 5843.000
1165.113, 5928.000
1166.201, 5889.000
1167.290, 5948.000
1168.378, 5892.000
1169.467, 5951.000
1170.555, 5952.000
1171.643, 5842.000
1172.730, 5932.000
1173.818, 6038.000
1174.905, 5856.000
1175.993, 5938.000
1177.080, 5950.000
1178.167, 5964.000
1179.254, 6045.000
1180.340, 5880.000
1181.427, 6030.000
1182.513, 5919.000
1183.599, 6078.000
1184.685, 6008.000
1185.771, 5981.000
1186.856, 6035.000
1187.942, 5948.000
1189.027, 5934.000
1190.112, 5948.000
1191.197, 5928.082
1192.282, 5937.254
1193.367, 5974.000
1194.451, 5962.000
1195.536, 6021.000
1196.620, 6068.000
1197.704, 5999.000
1198.788, 6005.000
1199.872, 5977.000
1200.955, 6040.000
1202.039, 6108.000
1203.122, 6053.000
1204.205, 6089.000
1205.288, 6020.000
1206.370, 6097.000
1207.453, 6022.000
1208.535, 6079.000
1209.618, 6049.000
1210.700, 6064.000
1211.782, 5998.000
1212.863, 6076.000
1213.945, 6118.000
1215.026, 5966.000
1216.108, 5987.000
1217.189, 6152.000
1218.270, 5987.000
1219.351, 6126.000
1220.431, 6085.000
1221.512, 6230.000
1222.592, 6083.000
1223.672, 6116.962
1224.752, 6036.000
1225.832, 6067.000
1226.911, 6112.000
1227.991, 6098.000
1229.070, 6082.000
1230.149, 6031.000
1231.228, 6039.000
1232.307, 6068.000
1233.386, 6033.000
1234.464, 5955.000
1235.543, 6044.000
1236.621, 5992.000
1237.699, 6056.000
1238.777, 6005.000
1239.855, 6095.000
1240.932, 6083.000
1242.009, 5982.000
1243.087, 6025.000
1244.164, 6099.000
1245.241, 6030.000
1246.317, 6046.000
1247.394, 5985.000
1248.470, 6101.000
1249.546, 5972.000
1250.623, 6034.000
1251.698, 6055.000
1252.774, 6052.000
1253.850, 6194.000
1254.925, 6068.000
1256.000, 6066.000
1257.076, 6074.000
1258.150, 6203.000
1259.225, 6104.000
1260.300, 6165.000
1261.374, 6144.000
1262.449, 6028.000
1263.523, 6132.000
1264.597, 6066.000
1265.670, 6145.000
1266.744, 6210.000
1267.818, 6166.000
1268.891, 6105.000
1269.964, 6201.000
1271.037, 6174.000
1272.110, 6228.000
1273.183, 6240.000
1274.255, 6169.000
1275.327, 6254.000
1276.400, 6246.000
1277.472, 6262.000
1278.543, 6352.000
1279.615, 6270.000
1280.687, 6286.000
1281.758, 6352.000
1282.829, 6298.000
1283.900, 6404.000
1284.971, 6488.000
1286.042, 6432.000
1287.112, 6426.000
1288.183, 6514.000
1289.253, 6387.000
1290.323, 6572.000
1291.393, 6634.000
1292.463, 6567.000
1293.532, 6551.000
1294.602, 6643.000
1295.671, 6638.000
1296.740, 6692.000
1297.809, 6682.000
1298.878, 6609.000
1299.946, 6619.000
1301.015, 6606.243
1302.083, 6737.000
1303.151, 6635.000
1304.219, 6695.000
1305.287, 6756.000
1306.354, 6690.000
1307.422, 6777.000
1308.489, 6664.000
1309.556, 6668.000
1310.623, 6715.000
1311.690, 6651.000
1312.757, 6767.000
1313.823, 6652.000
1314.890, 6779.000
1315.956, 6703.000
1317.022, 6746.000
1318.088, 6645.000
1319.153, 6699.000
1320.219, 6727.000
1321.284, 6798.000
1322.349, 6737.000
1323.414, 6714.000
1324.479, 6664.000
1325.544, 6737.000
1326.608, 6665.000
1327.673, 6583.000
1328.737, 6760.000
1329.801, 6718.000
1330.865, 6652.000
1331.929, 6714.000
1332.992, 6710.000
1334.056, 6718.000
1335.119, 6611.000
1336.182, 6658.000
1337.245, 6575.000
1338.308, 6667.000
1339.370, 6682.000
1340.433, 6629.000
1341.495, 6696.000
1342.557, 6567.000
1343.619, 6551.000
1344.681, 6569.000
1345.742, 6577.000
1346.804, 6548.000
1347.865, 6638.000
1348.926, 6474.000
1349.987, 6513.000
1351.048, 6543.000
1352.108, 6446.000
1353.169, 6482.424
1354.229, 6514.000
1355.289, 6468.000
1356.349, 6366.000
1357.409, 6375.000
1358.469, 6472.000
1359.528, 6301.000
1360.588, 6414.000
1361.647, 6429.000
1362.706, 6305.000
1363.765, 6291.000
1364.823, 6332.000
1365.882, 6328.000
1366.940, 6239.000
1367.998, 6285.000
1369.056, 6305.000
1370.114, 6232.000
1371.172, 6282.000
1372.229, 6316.000
1373.287, 6246.000
1374.344, 6335.000
1375.401, 6190.000
1376.458, 6164.000
1377.515, 6223.000
1378.571, 6228.000
1379.628, 6184.000
1380.684, 6119.000
1381.740, 6109.000
1382.796, 6150.000
1383.852, 6137.000
1384.907, 6158.000
1385.963, 6101.000
1387.018, 6067.000
1388.073, 6237.000
1389.128, 6120.000
1390.183, 6107.000
1391.237, 6031.000
1392.292, 5973.000
1393.346, 6058.000
1394.400, 5967.000
1395.454, 5997.000
1396.508, 5923.000
1397.562, 6096.000
1398.615, 6019.753
1399.668, 6033.555
1400.722, 5996.000
1401.775, 5964.000
1402.827, 5985.000
1403.880, 5874.000
1404.933, 5933.000
1405.985, 5991.000
1407.037, 5844.000
1408.089, 5853.000
1409.141, 5947.000
1410.193, 5984.000
1411.244, 5896.000
1412.295, 5944.000
1413.347, 5931.000
1414.398, 5901.000
1415.449, 5899.000
1416.499, 5884.000
1417.550, 5868.577
1418.600, 5817.000
1419.650, 5857.000
1420.700, 5840.000
1421.750, 5863.000
1422.800, 5897.000
1423.850, 5885.000
1424.899, 5853.000
1425.948, 5911.000
1426.997, 5859.000
1428.046, 5915.000
1429.095, 5859.000
1430.144, 5853.000
1431.192, 5969.000
1432.240, 5847.000
1433.288, 5895.000
1434.336, 5876.000
1435.384, 5802.000
1436.432, 5753.000
1437.479, 5858.000
1438.526, 5916.000
1439.574, 5892.000
1440.621, 5885.000
1441.667, 5876.000
1442.714, 5875.000
1443.760, 5865.765
1444.807, 5900.000
1445.853, 5861.000
1446.899, 5851.000
1447.945, 5868.000
1448.990, 5941.000
1450.036, 5929.000
1451.081, 5955.266
1452.126, 5863.000
1453.171, 5982.000
1454.216, 5916.000
1455.261, 5948.000
1456.305, 5971.108
1457.350, 5956.533
1458.394, 5960.000
1459.438, 5967.000
1460.482, 5899.000
1461.526, 5882.000
1462.569, 6015.000
1463.612, 5880.000
1464.656, 5931.000
1465.699, 5900.000
1466.742, 5863.000
1467.784, 6002.000
1468.827, 5918.000
1469.869, 5838.000
1470.912, 6009.000
1471.954, 5904.000
1472.996, 5888.000
1474.037, 5876.000
1475.079, 5931.000
1476.120, 5891.000
1477.162, 5978.000
1478.203, 5932.000
1479.244, 5982.000
1480.284, 5980.000
1481.325, 5995.000
1482.365, 5961.000
1483.406, 6018.000
1484.446, 6001.396
1485.486, 5926.000
1486.526, 5999.000
1487.565, 6018.000
1488.605, 6000.425
1489.644, 6042.188
1490.683, 5967.000
1491.722, 6012.000
1492.761, 6095.000
1493.800, 5965.000
1494.838, 6045.000
1495.876, 6036.000
1496.915, 6053.000
1497.953, 6114.000
1498.990, 6114.101
1500.028, 6127.400
1501.066, 6126.000
1502.103, 6098.000
1503.140, 6027.000
1504.177, 5946.000
1505.214, 5969.000
1506.251, 5967.625
1507.287, 6096.000
1508.324, 6041.000
1509.360, 6097.000
1510.396, 6104.000
1511.432, 6041.000
1512.468, 6012.000
1513.503, 6166.000
1514.538, 6121.000
1515.574, 6201.000
1516.609, 6108.000
1517.644, 6188.000
1518.678, 6095.000
1519.713, 6142.000
1520.747, 6153.000
1521.782, 6211.000
1522.816, 6200.000
1523.850, 6202.000
1524.883, 6250.000
1525.917, 6181.000
1526.951, 6284.000
1527.984, 6176.000
1529.017, 6260.000
1530.050, 6206.000
1531.083, 6304.000
1532.115, 6227.000
1533.148, 6282.000
1534.180, 6303.000
1535.212, 6358.000
1536.244, 6351.000
1537.276, 6287.000
1538.308, 6262.000
1539.339, 6265.000
1540.370, 6234.000
1541.402, 6262.000
1542.433, 6331.000
1543.463, 6376.000
1544.494, 6286.000
1545.525, 6383.000
##END=



