##NAMES=Aenigmatite
##RRUFFID=R061088
##IDEAL CHEMISTRY=Na_4_(Fe^2+^_10_Ti^4+^_2_)O_4_[Si_12_O_36_]
##LOCALITY=Naujakasik, Greenland
##OWNER=RRUFF
##SOURCE=Michael Scott
##DESCRIPTION=Black prismatic crystals
##STATUS=The identification of this mineral has been confirmed by X-ray diffraction and chemical analysis
##URL=rruff.info/R061088
##MEASURED CHEMISTRY=(Na_1.72_Ca_0.28_)_Σ=2_(Fe^2+^_4.90_Mn_0.08_Mg_0.02_)_Σ=5_(Ti_0.85_Al_0.14_Fe^3+^_0.01_)_Σ=1_(Si_5.87_Al_0.13_)_Σ=6_O_20_
##PIN_ID=L01392
##ORIENTATION=Laser parallel to (1 0 1). Fiducial mark perpendicular to laser is parallel to b [0 1 0]
151.2320, 10577.84
152.4690, 10763.00
153.7060, 10743.00
154.9420, 10884.00
156.1790, 10609.00
157.4150, 10379.00
158.6510, 11142.95
159.8870, 10904.26
161.1220, 10855.54
162.3570, 11147.00
163.5930, 10429.00
164.8280, 10385.00
166.0620, 10090.00
167.2970, 9869.000
168.5310, 9704.000
169.7650, 9540.918
170.9990, 9365.467
172.2330, 9299.000
173.4670, 9110.000
174.7000, 8937.000
175.9330, 8935.000
177.1660, 8764.000
178.3990, 8764.000
179.6310, 8651.000
180.8640, 8710.000
182.0960, 8575.000
183.3280, 8945.000
184.5600, 9932.000
185.7910, 9836.000
187.0220, 9707.000
188.2540, 9945.000
189.4840, 9582.000
190.7150, 9379.000
191.9460, 9477.000
193.1760, 9458.000
194.4060, 9559.000
195.6360, 9720.000
196.8660, 9955.000
198.0960, 10074.51
199.3250, 10064.00
200.5540, 10343.00
201.7830, 10589.00
203.0120, 10613.00
204.2400, 10369.00
205.4690, 9898.000
206.6970, 9650.000
207.9250, 9366.000
209.1530, 9347.000
210.3800, 9544.000
211.6080, 9605.000
212.8350, 9726.000
214.0620, 9624.511
215.2880, 9539.000
216.5150, 9322.000
217.7410, 9180.000
218.9680, 9003.000
220.1940, 8845.000
221.4190, 8645.496
222.6450, 8462.000
223.8700, 8260.000
225.0960, 8086.000
226.3210, 7957.000
227.5450, 7894.000
228.7700, 7684.000
229.9940, 7631.000
231.2190, 7471.000
232.4430, 7401.000
233.6660, 7368.000
234.8900, 7336.000
236.1140, 7278.834
237.3370, 7180.000
238.5600, 7172.000
239.7830, 7180.000
241.0050, 7106.000
242.2280, 7194.000
243.4500, 7182.000
244.6720, 7165.000
245.8940, 7238.000
247.1160, 7260.000
248.3370, 7291.000
249.5580, 7437.000
250.7790, 7470.000
252.0000, 7638.000
253.2210, 7525.000
254.4410, 7802.000
255.6620, 7753.000
256.8820, 7765.000
258.1020, 8228.000
259.3210, 8185.506
260.5410, 8001.819
261.7600, 7859.983
262.9790, 7690.764
264.1980, 7495.628
265.4170, 7509.000
266.6360, 7466.000
267.8540, 7295.000
269.0720, 7242.000
270.2900, 7176.000
271.5080, 7173.000
272.7260, 7118.000
273.9430, 7232.000
275.1600, 7228.000
276.3770, 7281.000
277.5940, 7277.000
278.8100, 7334.000
280.0270, 7287.000
281.2430, 7356.000
282.4590, 7262.000
283.6750, 7451.000
284.8910, 7407.000
286.1060, 7473.163
287.3210, 7436.000
288.5360, 7610.000
289.7510, 7575.000
290.9660, 7677.000
292.1800, 7856.000
293.3950, 7941.000
294.6090, 7986.000
295.8230, 7984.000
297.0360, 8055.000
298.2500, 8092.000
299.4630, 8176.000
300.6760, 8064.000
301.8890, 8263.000
303.1020, 8208.000
304.3150, 8086.000
305.5270, 8082.000
306.7390, 8162.000
307.9510, 8041.000
309.1630, 7880.000
310.3750, 7954.000
311.5860, 7868.000
312.7970, 7656.000
314.0080, 7647.000
315.2190, 7587.000
316.4300, 7597.000
317.6400, 7541.000
318.8510, 7446.000
320.0610, 7520.000
321.2710, 7396.000
322.4800, 7386.000
323.6900, 7314.000
324.8990, 7308.000
326.1080, 7231.000
327.3170, 7115.000
328.5260, 7274.000
329.7340, 7148.000
330.9430, 7006.000
332.1510, 7101.000
333.3590, 7024.000
334.5670, 6883.000
335.7740, 6991.000
336.9820, 6964.000
338.1890, 7016.000
339.3960, 6929.000
340.6030, 6868.000
341.8100, 6784.000
343.0160, 6754.000
344.2220, 6919.000
345.4280, 6943.000
346.6340, 6927.000
347.8400, 6822.000
349.0460, 6900.000
350.2510, 6963.000
351.4560, 7040.000
352.6610, 7187.000
353.8660, 7358.000
355.0700, 7417.874
356.2750, 7450.000
357.4790, 7628.000
358.6830, 7545.000
359.8870, 7739.000
361.0910, 7737.000
362.2940, 7630.000
363.4970, 7643.000
364.7000, 7718.000
365.9030, 7725.000
367.1060, 7693.000
368.3080, 7690.000
369.5110, 7581.000
370.7130, 7543.000
371.9150, 7481.000
373.1170, 7534.000
374.3180, 7552.000
375.5200, 7413.000
376.7210, 7324.000
377.9220, 7362.000
379.1230, 7281.000
380.3230, 7254.000
381.5240, 7244.794
382.7240, 7156.000
383.9240, 7209.000
385.1240, 7127.000
386.3240, 7112.000
387.5230, 7185.000
388.7230, 7187.000
389.9220, 7107.000
391.1210, 7126.000
392.3200, 7242.000
393.5180, 7177.859
394.7170, 7245.614
395.9150, 7186.000
397.1130, 7249.000
398.3110, 7301.000
399.5080, 7195.000
400.7060, 7204.000
401.9030, 7255.000
403.1000, 7204.000
404.2970, 7286.000
405.4940, 7323.000
406.6910, 7330.083
407.8870, 7322.000
409.0830, 7325.000
410.2790, 7264.000
411.4750, 7271.658
412.6710, 7225.067
413.8660, 7265.000
415.0610, 7174.000
416.2560, 7200.000
417.4510, 7245.000
418.6460, 7332.000
419.8410, 7334.000
421.0350, 7458.000
422.2290, 7429.000
423.4230, 7471.000
424.6170, 7524.000
425.8100, 7644.000
427.0040, 7684.000
428.1970, 7733.000
429.3900, 7728.000
430.5830, 7828.000
431.7760, 7832.000
432.9680, 8016.000
434.1610, 7927.000
435.3530, 7960.000
436.5450, 7952.000
437.7360, 7889.000
438.9280, 7884.000
440.1190, 7858.000
441.3110, 7800.000
442.5020, 7835.000
443.6930, 7804.000
444.8830, 7726.000
446.0740, 7690.000
447.2640, 7661.266
448.4540, 7615.342
449.6440, 7631.000
450.8340, 7550.000
452.0240, 7562.000
453.2130, 7523.560
454.4020, 7522.000
455.5910, 7501.000
456.7800, 7464.000
457.9690, 7439.000
459.1570, 7507.000
460.3460, 7483.000
461.5340, 7534.610
462.7220, 7529.849
463.9090, 7612.000
465.0970, 7501.000
466.2840, 7493.000
467.4720, 7438.000
468.6590, 7489.000
469.8460, 7418.000
471.0320, 7453.000
472.2190, 7487.000
473.4050, 7529.000
474.5910, 7524.000
475.7770, 7558.597
476.9630, 7655.000
478.1490, 7587.000
479.3340, 7678.000
480.5190, 7678.000
481.7040, 7817.000
482.8890, 7822.000
484.0740, 7780.000
485.2580, 7833.000
486.4430, 7903.000
487.6270, 7983.000
488.8110, 7904.000
489.9950, 8014.000
491.1780, 7991.000
492.3620, 7979.000
493.5450, 8064.000
494.7280, 7988.000
495.9110, 8060.000
497.0940, 7878.000
498.2760, 7882.000
499.4590, 7723.000
500.6410, 7807.000
501.8230, 7860.000
503.0050, 7807.000
504.1860, 7782.000
505.3680, 7685.000
506.5490, 7643.000
507.7300, 7602.000
508.9110, 7671.000
510.0920, 7667.870
511.2730, 7656.338
512.4530, 7794.000
513.6330, 7644.000
514.8130, 7778.000
515.9930, 7808.000
517.1730, 7816.000
518.3520, 7899.000
519.5320, 7894.000
520.7110, 7979.000
521.8900, 8074.000
523.0690, 7956.000
524.2470, 8059.000
525.4260, 8119.000
526.6040, 8190.000
527.7820, 8231.000
528.9600, 8261.000
530.1380, 8346.000
531.3150, 8257.000
532.4930, 8495.000
533.6700, 8309.000
534.8470, 8320.000
536.0240, 8367.000
537.2000, 8453.000
538.3770, 8321.000
539.5530, 8368.000
540.7290, 8445.000
541.9050, 8297.343
543.0810, 8345.708
544.2570, 8362.118
545.4320, 8348.315
546.6080, 8213.698
547.7830, 8235.080
548.9580, 8193.954
550.1320, 8150.285
551.3070, 8193.621
552.4810, 8076.614
553.6550, 8048.000
554.8300, 8122.000
556.0030, 8055.000
557.1770, 8078.000
558.3510, 8045.221
559.5240, 7846.000
560.6970, 7912.000
561.8700, 7851.000
563.0430, 7678.000
564.2160, 7655.000
565.3880, 7634.000
566.5600, 7534.000
567.7320, 7492.000
568.9040, 7502.000
570.0760, 7465.000
571.2480, 7381.000
572.4190, 7432.000
573.5900, 7428.000
574.7610, 7339.000
575.9320, 7360.000
577.1030, 7249.000
578.2740, 7287.000
579.4440, 7406.000
580.6140, 7225.000
581.7840, 7316.000
582.9540, 7407.000
584.1240, 7372.000
585.2930, 7432.000
586.4630, 7413.000
587.6320, 7522.000
588.8010, 7566.000
589.9700, 7737.000
591.1380, 7745.000
592.3070, 7753.000
593.4750, 7902.000
594.6430, 8083.000
595.8110, 8219.000
596.9790, 8430.000
598.1460, 8699.000
599.3140, 8857.000
600.4810, 9138.000
601.6480, 9269.536
602.8150, 9444.554
603.9820, 9535.000
605.1480, 9687.000
606.3150, 9804.000
607.4810, 9811.000
608.6470, 10037.00
609.8130, 9978.000
610.9790, 9975.000
612.1440, 9948.000
613.3100, 10029.00
614.4750, 10020.51
615.6400, 9934.000
616.8050, 10072.00
617.9690, 10120.00
619.1340, 10147.26
620.2980, 10325.64
621.4620, 10403.00
622.6260, 10639.00
623.7900, 10946.00
624.9540, 11113.00
626.1170, 11619.00
627.2810, 12191.00
628.4440, 12946.00
629.6070, 13562.00
630.7690, 14158.00
631.9320, 15034.00
633.0950, 16066.00
634.2570, 17286.00
635.4190, 18475.00
636.5810, 19537.00
637.7430, 20998.00
638.9040, 22227.00
640.0660, 23364.00
641.2270, 24493.00
642.3880, 25121.00
643.5490, 25798.00
644.7100, 26139.00
645.8700, 25980.00
647.0310, 25790.00
648.1910, 25198.00
649.3510, 24881.00
650.5110, 23989.00
651.6710, 23025.00
652.8300, 21905.00
653.9900, 21133.00
655.1490, 19694.00
656.3080, 18958.00
657.4670, 17858.00
658.6250, 17151.00
659.7840, 16337.00
660.9420, 15843.00
662.1010, 15136.00
663.2590, 14583.00
664.4170, 14233.00
665.5740, 13859.00
666.7320, 13664.00
667.8890, 13613.00
669.0460, 13528.00
670.2030, 13503.00
671.3600, 13527.00
672.5170, 13614.00
673.6740, 13633.00
674.8300, 13938.00
675.9860, 14069.00
677.1420, 14057.00
678.2980, 14309.00
679.4540, 14325.00
680.6090, 14376.00
681.7650, 14447.00
682.9200, 14156.00
684.0750, 14255.00
685.2300, 14105.00
686.3840, 14030.00
687.5390, 13984.00
688.6930, 13521.00
689.8470, 13279.00
691.0010, 13095.00
692.1550, 12575.00
693.3090, 12216.00
694.4620, 11649.00
695.6160, 11186.00
696.7690, 10660.00
697.9220, 10285.00
699.0750, 10025.00
700.2280, 9826.000
701.3800, 9448.000
702.5320, 9176.000
703.6850, 8974.000
704.8370, 8812.000
705.9880, 8632.534
707.1400, 8501.793
708.2920, 8372.000
709.4430, 8306.000
710.5940, 8217.000
711.7450, 8216.000
712.8960, 8126.000
714.0470, 8040.000
715.1970, 7966.000
716.3480, 8024.000
717.4980, 7956.000
718.6480, 7940.000
719.7980, 7875.128
720.9470, 7951.000
722.0970, 7773.000
723.2460, 7759.000
724.3960, 7869.000
725.5450, 7881.000
726.6940, 7902.962
727.8420, 7896.000
728.9910, 7907.000
730.1390, 7892.000
731.2870, 7832.000
732.4350, 8081.000
733.5830, 7942.416
734.7310, 8024.000
735.8790, 7876.000
737.0260, 7777.000
738.1730, 7808.000
739.3200, 7754.000
740.4670, 7508.000
741.6140, 7528.000
742.7610, 7450.539
743.9070, 7434.692
745.0530, 7375.000
746.1990, 7491.000
747.3450, 7396.000
748.4910, 7396.000
749.6370, 7431.744
750.7820, 7389.493
751.9270, 7450.000
753.0720, 7397.000
754.2170, 7366.000
755.3620, 7395.000
756.5070, 7407.690
757.6510, 7501.000
758.7950, 7518.000
759.9400, 7556.000
761.0840, 7642.000
762.2270, 7613.000
763.3710, 7666.000
764.5140, 7646.000
765.6580, 7685.000
766.8010, 7578.000
767.9440, 7642.000
769.0870, 7572.000
770.2290, 7659.000
771.3720, 7594.956
772.5140, 7295.132
773.6560, 7573.000
774.7990, 7434.000
775.9400, 7582.000
777.0820, 7527.112
778.2240, 7508.000
779.3650, 7391.000
780.5060, 7359.000
781.6470, 7333.000
782.7880, 7428.000
783.9290, 7340.000
785.0690, 7487.000
786.2100, 7371.000
787.3500, 7343.000
788.4900, 7385.000
789.6300, 7354.000
790.7700, 7355.000
791.9090, 7368.000
793.0490, 7459.000
794.1880, 7426.000
795.3270, 7438.000
796.4660, 7353.000
797.6050, 7382.000
798.7440, 7398.488
799.8820, 7427.000
801.0200, 7484.000
802.1590, 7511.000
803.2970, 7568.000
804.4340, 7583.205
805.5720, 7564.000
806.7100, 7589.000
807.8470, 7570.000
808.9840, 7519.000
810.1210, 7553.000
811.2580, 7546.707
812.3950, 7567.607
813.5310, 7606.000
814.6680, 7599.000
815.8040, 7667.000
816.9400, 7613.000
818.0760, 7583.000
819.2120, 7664.000
820.3470, 7724.000
821.4830, 7741.000
822.6180, 7817.000
823.7530, 7799.000
824.8880, 7802.000
826.0230, 7847.000
827.1580, 7801.000
828.2920, 7738.000
829.4270, 7798.000
830.5610, 7887.000
831.6950, 7954.000
832.8290, 8054.000
833.9620, 7970.000
835.0960, 8125.000
836.2290, 8082.000
837.3620, 8029.000
838.4950, 8061.000
839.6280, 8246.000
840.7610, 8166.000
841.8940, 8108.900
843.0260, 8249.215
844.1580, 8357.576
845.2910, 8435.761
846.4230, 8393.090
847.5540, 8506.346
848.6860, 8557.146
849.8170, 8701.000
850.9490, 8806.000
852.0800, 8832.000
853.2110, 9084.000
854.3420, 9175.000
855.4730, 9218.000
856.6030, 9332.000
857.7340, 9308.000
858.8640, 9399.000
859.9940, 9432.675
861.1240, 9444.631
862.2540, 9424.635
863.3830, 9374.461
864.5130, 9203.438
865.6420, 9213.000
866.7710, 9299.000
867.9000, 9322.000
869.0290, 9242.000
870.1570, 9397.000
871.2860, 9395.000
872.4140, 9397.000
873.5430, 9400.000
874.6710, 9653.000
875.7980, 9743.000
876.9260, 9948.000
878.0540, 10203.00
879.1810, 10192.00
880.3080, 10599.00
881.4360, 10796.00
882.5630, 10955.00
883.6890, 11425.00
884.8160, 11581.00
885.9420, 12078.00
887.0690, 12157.00
888.1950, 12377.00
889.3210, 12647.00
890.4470, 12867.00
891.5730, 12955.00
892.6980, 12948.00
893.8240, 12795.00
894.9490, 12608.00
896.0740, 12467.00
897.1990, 12084.00
898.3240, 11811.00
899.4480, 11394.00
900.5730, 11069.00
901.6970, 10800.00
902.8210, 10451.00
903.9450, 10214.00
905.0690, 10029.00
906.1930, 9733.018
907.3160, 9615.969
908.4400, 9304.000
909.5630, 9317.000
910.6860, 9263.000
911.8090, 9046.000
912.9320, 8953.000
914.0550, 8973.000
915.1770, 8868.000
916.2990, 8833.135
917.4210, 8823.994
918.5440, 8782.000
919.6650, 8770.000
920.7870, 8745.487
921.9090, 8774.000
923.0300, 8701.000
924.1510, 8651.000
925.2720, 8626.000
926.3930, 8521.000
927.5140, 8473.000
928.6350, 8481.000
929.7550, 8511.000
930.8760, 8353.000
931.9960, 8342.000
933.1160, 8459.000
934.2360, 8326.000
935.3550, 8422.000
936.4750, 8384.000
937.5940, 8380.000
938.7140, 8424.000
939.8330, 8341.000
940.9520, 8294.000
942.0710, 8423.000
943.1890, 8454.000
944.3080, 8477.000
945.4260, 8478.000
946.5440, 8520.000
947.6620, 8655.000
948.7800, 8551.000
949.8980, 8830.000
951.0160, 8849.000
952.1330, 8988.000
953.2500, 8942.000
954.3680, 8964.000
955.4850, 9053.000
956.6010, 9177.000
957.7180, 9032.000
958.8350, 9062.000
959.9510, 9200.000
961.0670, 9051.000
962.1830, 8939.000
963.2990, 9024.000
964.4150, 8876.000
965.5310, 8889.000
966.6460, 8919.000
967.7620, 8841.000
968.8770, 8838.000
969.9920, 8777.000
971.1070, 8778.000
972.2210, 8893.000
973.3360, 8899.000
974.4500, 8933.000
975.5650, 9026.000
976.6790, 9067.000
977.7930, 9189.000
978.9070, 9395.000
980.0200, 9496.000
981.1340, 9735.000
982.2470, 9751.000
983.3610, 10081.00
984.4740, 10124.00
985.5870, 10200.00
986.6990, 10177.00
987.8120, 10166.00
988.9250, 10009.65
990.0370, 9957.168
991.1490, 9872.734
992.2610, 9758.069
993.3730, 9522.612
994.4850, 9660.939
995.5960, 9332.095
996.7080, 9187.583
997.8190, 9229.183
998.9300, 8895.000
1000.041, 8718.000
1001.152, 8509.000
1002.263, 8562.000
1003.373, 8463.000
1004.484, 8462.000
1005.594, 8266.000
1006.704, 8339.000
1007.814, 8341.000
1008.924, 8195.000
1010.034, 8241.000
1011.143, 8383.000
1012.253, 8328.000
1013.362, 8438.000
1014.471, 8371.000
1015.580, 8462.000
1016.689, 8421.000
1017.797, 8399.000
1018.906, 8433.000
1020.014, 8385.000
1021.122, 8473.000
1022.230, 8465.000
1023.338, 8604.000
1024.446, 8635.126
1025.554, 8864.000
1026.661, 8786.000
1027.768, 8903.000
1028.875, 9056.000
1029.983, 9031.000
1031.089, 9168.000
1032.196, 9204.489
1033.303, 9238.000
1034.409, 9303.000
1035.515, 9313.000
1036.622, 9378.000
1037.728, 9362.000
1038.833, 9158.000
1039.939, 9225.000
1041.045, 9082.000
1042.150, 9104.000
1043.255, 8991.000
1044.360, 8819.000
1045.465, 8792.000
1046.570, 8623.000
1047.675, 8589.000
1048.779, 8532.000
1049.884, 8399.000
1050.988, 8406.000
1052.092, 8374.000
1053.196, 8345.000
1054.300, 8325.000
1055.404, 8276.000
1056.507, 8256.308
1057.610, 8255.000
1058.714, 8204.000
1059.817, 8211.000
1060.920, 8193.000
1062.022, 8060.000
1063.125, 8110.000
1064.228, 8010.000
1065.330, 7999.000
1066.432, 7987.000
1067.534, 8038.000
1068.636, 8024.000
1069.738, 7945.000
1070.840, 7955.000
1071.941, 7851.000
1073.042, 7861.000
1074.144, 7886.000
1075.245, 7873.000
1076.346, 7920.000
1077.446, 7922.000
1078.547, 7891.000
1079.647, 7871.000
1080.748, 7804.000
1081.848, 7821.000
1082.948, 7858.000
1084.048, 7707.000
1085.148, 7827.000
1086.247, 7792.000
1087.347, 7794.000
1088.446, 7880.000
1089.545, 7825.999
1090.644, 7817.826
1091.743, 7767.000
1092.842, 7775.000
1093.940, 7697.000
1095.039, 7769.000
1096.137, 7717.000
1097.235, 7682.000
1098.333, 7753.000
1099.431, 7646.000
1100.529, 7728.000
1101.627, 7746.000
1102.724, 7676.000
1103.822, 7784.000
1104.919, 7655.000
1106.016, 7729.000
1107.113, 7691.000
1108.209, 7664.000
1109.306, 7627.000
1110.402, 7612.000
1111.499, 7686.000
1112.595, 7670.000
1113.691, 7680.000
1114.787, 7770.000
1115.883, 7735.000
1116.978, 7765.000
1118.074, 7802.000
1119.169, 7881.000
1120.264, 7966.000
1121.359, 7932.000
1122.454, 7938.522
1123.549, 7809.000
1124.644, 7869.000
1125.738, 7646.000
1126.832, 7642.000
1127.927, 7873.000
1129.021, 7726.000
1130.115, 7522.000
1131.208, 7611.000
1132.302, 7808.000
1133.396, 7625.000
1134.489, 7542.000
1135.582, 7583.000
1136.675, 7522.000
1137.768, 7602.000
1138.861, 7585.000
1139.954, 7686.000
1141.046, 7687.711
1142.138, 7753.000
1143.231, 7699.000
1144.323, 7622.000
1145.415, 7578.000
1146.507, 7514.000
1147.598, 7602.025
1148.690, 7543.237
1149.781, 7540.041
1150.872, 7578.000
1151.964, 7494.000
1153.054, 7616.000
1154.145, 7585.000
1155.236, 7542.000
1156.327, 7706.000
1157.417, 7608.000
1158.507, 7535.000
1159.597, 7610.000
1160.687, 7686.000
1161.777, 7692.000
1162.867, 7677.000
1163.956, 7729.000
1165.046, 7600.000
1166.135, 7650.000
1167.224, 7638.000
1168.313, 7677.000
1169.402, 7596.000
1170.491, 7733.000
1171.580, 7705.000
1172.668, 7656.000
1173.756, 7711.000
1174.845, 7742.000
1175.933, 7691.000
1177.020, 7652.000
1178.108, 7741.000
1179.196, 7673.061
1180.283, 7757.054
1181.371, 7809.106
1182.458, 7830.912
1183.545, 7731.925
1184.632, 7788.917
1185.719, 7783.400
1186.805, 7775.310
1187.892, 7854.255
1188.978, 7772.827
1190.065, 7850.393
1191.151, 7864.486
1192.237, 7879.000
1193.323, 7912.000
1194.408, 7955.000
1195.494, 7938.000
1196.579, 7930.000
1197.664, 7896.000
1198.750, 7904.560
1199.835, 7923.319
1200.919, 7940.000
1202.004, 7964.000
1203.089, 8042.000
1204.173, 8014.000
1205.258, 8033.743
1206.342, 7975.000
1207.426, 8014.000
1208.510, 8008.000
1209.594, 7994.000
1210.677, 7883.000
1211.761, 8012.000
1212.844, 7947.612
1213.927, 8052.000
1215.010, 7942.000
1216.093, 7919.000
1217.176, 7911.000
1218.259, 7892.000
1219.341, 7915.000
1220.424, 7884.496
1221.506, 7831.000
1222.588, 7855.000
1223.670, 7822.000
1224.752, 7829.000
1225.834, 7828.000
1226.915, 7861.000
1227.997, 7794.000
1229.078, 7893.000
1230.159, 7739.000
1231.240, 7768.000
1232.321, 7813.000
1233.402, 7771.000
1234.483, 7825.000
1235.563, 7695.000
1236.644, 7799.000
1237.724, 7774.000
1238.804, 7767.000
1239.884, 7902.000
1240.964, 7810.000
1242.044, 7911.000
1243.123, 7850.000
1244.203, 7724.000
1245.282, 7762.000
1246.361, 7845.000
1247.440, 7784.000
1248.519, 7712.000
1249.598, 7821.000
1250.676, 7830.000
1251.755, 7931.000
1252.833, 7885.000
1253.911, 7966.000
1254.989, 7915.000
1256.067, 7875.000
1257.145, 7910.000
1258.223, 7917.606
1259.300, 8003.000
1260.378, 8036.000
1261.455, 8001.000
1262.532, 8114.000
1263.609, 8069.000
1264.686, 8131.000
1265.763, 8156.000
1266.840, 8267.000
1267.916, 8259.000
1268.992, 8264.000
1270.069, 8311.000
1271.145, 8350.000
1272.221, 8418.000
1273.296, 8469.000
1274.372, 8452.000
1275.448, 8578.000
1276.523, 8566.000
1277.598, 8737.000
1278.673, 8660.000
1279.749, 8710.000
1280.823, 8785.000
1281.898, 8796.000
1282.973, 8747.000
1284.047, 8971.000
1285.122, 8952.000
1286.196, 8857.000
1287.270, 9071.000
1288.344, 9039.000
1289.418, 9121.000
1290.491, 9170.000
1291.565, 9129.000
1292.638, 9155.000
1293.712, 9250.000
1294.785, 9266.000
1295.858, 9238.000
1296.931, 9114.000
1298.003, 9212.000
1299.076, 9245.000
1300.149, 9174.000
1301.221, 9328.000
1302.293, 9134.000
1303.365, 9199.000
1304.437, 9106.000
1305.509, 9164.000
1306.581, 9199.000
1307.652, 9097.000
1308.724, 9106.000
1309.795, 9197.000
1310.866, 9238.000
1311.937, 9261.000
1313.008, 9179.000
1314.079, 9106.000
1315.150, 9082.000
1316.220, 9053.272
1317.291, 9043.622
1318.361, 9059.000
1319.431, 9085.000
1320.501, 9111.000
1321.571, 9193.000
1322.641, 9030.000
1323.710, 9089.000
1324.780, 9091.000
1325.849, 8970.000
1326.918, 9102.000
1327.987, 9019.000
1329.056, 8937.000
1330.125, 9102.000
1331.194, 8956.000
1332.263, 9013.213
1333.331, 9002.418
1334.399, 8985.000
1335.467, 8935.000
1336.535, 8809.000
1337.603, 8717.000
1338.671, 8731.369
1339.739, 8773.908
1340.806, 8784.522
1341.874, 8764.874
1342.941, 8624.459
1344.008, 8640.023
1345.075, 8593.082
1346.142, 8543.574
1347.209, 8581.093
1348.275, 8458.273
1349.342, 8494.411
1350.408, 8467.116
1351.475, 8468.836
1352.541, 8407.688
1353.607, 8365.965
1354.673, 8387.162
1355.738, 8373.547
1356.804, 8277.000
1357.869, 8310.000
1358.935, 8261.000
1360.000, 8279.000
1361.065, 8279.000
1362.130, 8222.000
1363.195, 8063.000
1364.259, 8085.000
1365.324, 8041.000
1366.388, 8075.000
1367.453, 8049.000
1368.517, 8143.000
1369.581, 8087.000
1370.645, 8134.000
1371.709, 8029.000
1372.772, 8049.000
1373.836, 7954.000
1374.899, 7922.000
1375.963, 7971.000
1377.026, 7994.000
1378.089, 7897.000
1379.152, 7937.000
1380.214, 7876.000
1381.277, 7974.000
1382.340, 7875.000
1383.402, 7753.000
1384.464, 7802.000
1385.526, 7778.000
1386.588, 7843.000
1387.650, 7696.000
1388.712, 7793.000
1389.774, 7795.000
1390.835, 7694.000
1391.896, 7735.000
1392.958, 7693.000
1394.019, 7712.000
1395.080, 7751.000
1396.141, 7658.000
1397.201, 7622.000
1398.262, 7789.000
1399.323, 7710.000
1400.383, 7723.000
1401.443, 7591.000
1402.503, 7720.000
1403.563, 7730.000
1404.623, 7640.000
1405.683, 7587.000
1406.742, 7670.000
1407.802, 7668.000
1408.861, 7583.000
1409.920, 7594.000
1410.980, 7610.000
1412.039, 7592.000
1413.097, 7635.000
1414.156, 7660.000
1415.215, 7659.000
1416.273, 7623.000
1417.331, 7578.000
1418.390, 7695.000
1419.448, 7618.000
1420.506, 7639.000
1421.564, 7670.000
1422.621, 7632.000
1423.679, 7523.000
1424.736, 7585.000
1425.794, 7565.000
1426.851, 7644.000
1427.908, 7640.082
1428.965, 7632.000
1430.022, 7634.000
1431.079, 7616.000
1432.135, 7566.000
1433.192, 7538.000
1434.248, 7573.000
1435.304, 7718.000
1436.360, 7615.000
1437.416, 7624.000
1438.472, 7486.000
1439.528, 7628.000
1440.583, 7579.000
1441.639, 7656.000
1442.694, 7594.000
1443.749, 7618.000
1444.804, 7606.000
1445.859, 7580.000
1446.914, 7549.000
1447.969, 7609.000
1449.024, 7679.000
1450.078, 7618.000
1451.132, 7634.000
1452.187, 7669.000
1453.241, 7571.000
1454.295, 7588.000
1455.349, 7718.000
1456.402, 7692.000
1457.456, 7686.000
1458.509, 7670.000
1459.563, 7656.000
1460.616, 7662.000
1461.669, 7661.000
1462.722, 7552.000
1463.775, 7871.000
1464.828, 7728.529
1465.880, 7770.966
1466.933, 7690.000
1467.985, 7732.000
1469.037, 7740.000
1470.090, 7728.000
1471.142, 7734.000
1472.193, 7655.000
1473.245, 7680.000
1474.297, 7626.000
1475.348, 7730.000
1476.400, 7788.000
1477.451, 7722.000
1478.502, 7703.000
1479.553, 7767.000
1480.604, 7796.000
1481.655, 7785.000
1482.706, 7862.000
1483.756, 7905.000
1484.807, 7759.000
1485.857, 7809.000
1486.907, 7734.000
1487.957, 7796.000
1489.007, 7812.000
1490.057, 7920.000
1491.106, 7964.000
1492.156, 7764.000
1493.205, 7894.000
1494.255, 7899.000
1495.304, 7883.000
1496.353, 7941.000
1497.402, 7891.000
1498.451, 7997.000
1499.500, 7892.000
1500.548, 8041.000
1501.597, 8016.000
1502.645, 7946.000
1503.693, 8034.000
1504.741, 7944.000
1505.789, 7987.106
1506.837, 8010.417
1507.885, 8062.000
1508.932, 8038.000
1509.980, 8128.000
1511.027, 8088.000
1512.075, 8126.000
1513.122, 8109.000
1514.169, 8032.000
1515.216, 8039.000
1516.262, 8153.000
1517.309, 8105.000
1518.356, 8253.000
1519.402, 8149.000
1520.448, 8228.000
1521.495, 8227.000
1522.541, 8131.000
1523.587, 8215.000
1524.632, 8242.000
1525.678, 8260.000
1526.724, 8313.000
1527.769, 8324.000
1528.814, 8328.810
1529.860, 8407.000
1530.905, 8321.000
1531.950, 8322.000
1532.995, 8324.000
1534.039, 8392.000
1535.084, 8301.000
1536.128, 8407.000
1537.173, 8347.000
1538.217, 8474.000
1539.261, 8308.000
1540.305, 8430.000
1541.349, 8463.000
1542.393, 8381.000
1543.436, 8598.000
1544.480, 8336.000
1545.523, 8417.000
1546.567, 8367.000
##END=



