##NAMES=Aenigmatite
##RRUFFID=R061088
##IDEAL CHEMISTRY=Na_4_(Fe^2+^_10_Ti^4+^_2_)O_4_[Si_12_O_36_]
##LOCALITY=Naujakasik, Greenland
##OWNER=RRUFF
##SOURCE=Michael Scott
##DESCRIPTION=Black prismatic crystals
##STATUS=The identification of this mineral has been confirmed by X-ray diffraction and chemical analysis
##URL=rruff.info/R061088
##MEASURED CHEMISTRY=(Na_1.72_Ca_0.28_)_Σ=2_(Fe^2+^_4.90_Mn_0.08_Mg_0.02_)_Σ=5_(Ti_0.85_Al_0.14_Fe^3+^_0.01_)_Σ=1_(Si_5.87_Al_0.13_)_Σ=6_O_20_
##PIN_ID=L00777
##ORIENTATION=Laser parallel to b* (0 1 0). Fiducial mark perpendicular to laser is parallel to c [0 0 1]
137.4400, 4887.000
138.6700, 5048.000
139.9000, 5011.000
141.1290, 4848.000
142.3590, 4713.000
143.5880, 4669.000
144.8170, 4701.000
146.0460, 4771.000
147.2750, 4890.000
148.5030, 4822.000
149.7320, 4863.000
150.9600, 5038.000
152.1880, 5128.000
153.4160, 5092.000
154.6440, 5111.000
155.8720, 5007.000
157.0990, 4934.000
158.3270, 4988.000
159.5540, 4867.000
160.7810, 5030.000
162.0080, 5289.000
163.2350, 5261.000
164.4610, 5412.000
165.6880, 5431.000
166.9140, 5342.000
168.1400, 5294.000
169.3660, 5268.000
170.5920, 5182.067
171.8180, 5136.000
173.0430, 5046.000
174.2690, 4873.000
175.4940, 4800.000
176.7190, 4727.000
177.9440, 4810.000
179.1680, 4749.000
180.3930, 4699.000
181.6170, 4726.291
182.8420, 4590.000
184.0660, 4731.000
185.2900, 4775.000
186.5140, 4815.000
187.7370, 4728.000
188.9610, 4747.000
190.1840, 4839.000
191.4070, 4875.000
192.6300, 4913.000
193.8530, 4829.000
195.0760, 4846.000
196.2980, 4879.000
197.5210, 4850.000
198.7430, 4960.000
199.9650, 5027.000
201.1870, 5027.000
202.4090, 5043.000
203.6310, 4808.000
204.8520, 4746.000
206.0730, 4599.000
207.2950, 4567.000
208.5160, 4534.000
209.7360, 4626.000
210.9570, 4659.000
212.1780, 4747.000
213.3980, 4833.000
214.6180, 4848.000
215.8380, 4794.000
217.0580, 4792.000
218.2780, 4815.000
219.4980, 4859.000
220.7170, 4844.000
221.9360, 4853.000
223.1560, 4790.000
224.3750, 4889.000
225.5930, 4762.000
226.8120, 4803.000
228.0310, 4733.000
229.2490, 4777.000
230.4670, 4805.000
231.6850, 4696.000
232.9030, 4721.000
234.1210, 4729.000
235.3380, 4783.000
236.5560, 4713.000
237.7730, 4647.000
238.9900, 4727.000
240.2070, 4668.000
241.4240, 4682.000
242.6410, 4672.000
243.8570, 4627.000
245.0730, 4616.000
246.2900, 4536.000
247.5060, 4579.000
248.7210, 4616.000
249.9370, 4633.000
251.1530, 4535.000
252.3680, 4618.000
253.5830, 4536.252
254.7980, 4577.632
256.0130, 4610.138
257.2280, 4634.248
258.4430, 4624.812
259.6570, 4658.676
260.8720, 4675.197
262.0860, 4690.990
263.3000, 4730.950
264.5130, 4726.359
265.7270, 4765.936
266.9410, 4787.890
268.1540, 4847.000
269.3670, 4844.000
270.5800, 4929.000
271.7930, 4959.391
273.0060, 5008.907
274.2190, 5037.000
275.4310, 5112.000
276.6430, 5126.000
277.8550, 5163.000
279.0670, 5192.465
280.2790, 5135.000
281.4910, 5211.000
282.7020, 5195.000
283.9140, 5157.000
285.1250, 5178.000
286.3360, 5234.000
287.5470, 5273.000
288.7570, 5307.074
289.9680, 5341.206
291.1780, 5382.000
292.3880, 5397.000
293.5990, 5436.000
294.8080, 5473.000
296.0180, 5653.000
297.2280, 5702.000
298.4370, 5800.000
299.6470, 5806.000
300.8560, 5999.000
302.0650, 6075.000
303.2740, 6030.000
304.4820, 6060.000
305.6910, 6263.000
306.8990, 6266.000
308.1070, 6249.000
309.3150, 6259.000
310.5230, 6215.000
311.7310, 6148.000
312.9390, 6094.000
314.1460, 6002.000
315.3530, 5848.000
316.5600, 5681.000
317.7670, 5650.000
318.9740, 5573.000
320.1810, 5411.000
321.3870, 5250.000
322.5930, 5241.000
323.8000, 5199.000
325.0060, 5015.000
326.2110, 4900.000
327.4170, 4902.000
328.6230, 4852.000
329.8280, 4770.000
331.0330, 4613.000
332.2380, 4710.000
333.4430, 4651.000
334.6480, 4520.000
335.8530, 4543.000
337.0570, 4570.000
338.2610, 4491.000
339.4650, 4477.000
340.6690, 4493.000
341.8730, 4436.000
343.0770, 4514.000
344.2800, 4507.000
345.4840, 4445.000
346.6870, 4479.000
347.8900, 4458.242
349.0930, 4522.000
350.2950, 4477.000
351.4980, 4568.000
352.7000, 4618.000
353.9030, 4659.000
355.1050, 4719.000
356.3070, 4818.000
357.5080, 4921.000
358.7100, 4886.000
359.9110, 4895.000
361.1130, 4897.000
362.3140, 4994.000
363.5150, 5041.000
364.7160, 5100.000
365.9160, 4998.000
367.1170, 5070.000
368.3170, 4936.000
369.5170, 4996.000
370.7170, 4987.000
371.9170, 5041.000
373.1170, 5014.697
374.3170, 5013.467
375.5160, 4951.000
376.7150, 4977.000
377.9140, 4934.000
379.1130, 4908.000
380.3120, 4988.000
381.5110, 4931.000
382.7090, 4868.000
383.9070, 4944.000
385.1060, 4909.000
386.3040, 4818.000
387.5010, 4851.000
388.6990, 4844.000
389.8970, 4826.000
391.0940, 4839.000
392.2910, 4721.000
393.4880, 4755.000
394.6850, 4625.000
395.8820, 4706.000
397.0780, 4652.000
398.2750, 4705.000
399.4710, 4575.000
400.6670, 4660.000
401.8630, 4624.000
403.0590, 4707.000
404.2540, 4603.000
405.4500, 4623.000
406.6450, 4604.000
407.8400, 4622.000
409.0350, 4670.000
410.2300, 4721.000
411.4250, 4705.000
412.6190, 4780.000
413.8140, 4911.000
415.0080, 4928.000
416.2020, 5021.563
417.3960, 5090.000
418.5900, 5141.000
419.7830, 5210.521
420.9770, 5322.000
422.1700, 5325.000
423.3630, 5397.000
424.5560, 5466.000
425.7490, 5383.000
426.9410, 5333.000
428.1340, 5429.000
429.3260, 5347.000
430.5180, 5313.000
431.7100, 5339.000
432.9020, 5225.000
434.0940, 5205.000
435.2850, 5149.000
436.4770, 5120.000
437.6680, 5054.000
438.8590, 5032.000
440.0500, 4981.000
441.2410, 4909.000
442.4310, 4831.000
443.6220, 4740.000
444.8120, 4740.000
446.0020, 4689.000
447.1920, 4720.000
448.3820, 4727.000
449.5710, 4586.000
450.7610, 4600.000
451.9500, 4602.000
453.1390, 4509.000
454.3280, 4474.000
455.5170, 4479.000
456.7060, 4405.000
457.8940, 4373.000
459.0830, 4428.000
460.2710, 4366.000
461.4590, 4451.000
462.6470, 4355.000
463.8350, 4342.000
465.0220, 4419.000
466.2100, 4397.000
467.3970, 4403.000
468.5840, 4419.000
469.7710, 4456.000
470.9580, 4414.000
472.1440, 4432.000
473.3310, 4474.000
474.5170, 4519.000
475.7030, 4491.000
476.8890, 4576.000
478.0750, 4522.000
479.2610, 4498.000
480.4460, 4563.000
481.6320, 4570.000
482.8170, 4585.000
484.0020, 4597.000
485.1870, 4580.000
486.3710, 4526.000
487.5560, 4547.000
488.7400, 4551.000
489.9250, 4524.000
491.1090, 4576.000
492.2930, 4501.000
493.4760, 4492.000
494.6600, 4438.000
495.8440, 4486.000
497.0270, 4549.000
498.2100, 4574.000
499.3930, 4592.598
500.5760, 4591.000
501.7580, 4624.000
502.9410, 4543.000
504.1230, 4602.000
505.3060, 4586.000
506.4880, 4672.000
507.6690, 4609.000
508.8510, 4656.000
510.0330, 4709.000
511.2140, 4687.226
512.3950, 4794.000
513.5760, 4734.000
514.7570, 4748.000
515.9380, 4836.000
517.1190, 4880.000
518.2990, 4798.000
519.4800, 4846.000
520.6600, 4835.000
521.8400, 4865.000
523.0190, 4917.000
524.1990, 4926.000
525.3790, 4908.000
526.5580, 4877.000
527.7370, 4773.000
528.9160, 4900.000
530.0950, 4859.000
531.2740, 4857.000
532.4520, 4964.000
533.6310, 4875.000
534.8090, 4877.000
535.9870, 4923.000
537.1650, 4860.000
538.3430, 4828.000
539.5200, 4858.000
540.6980, 4814.000
541.8750, 4779.000
543.0520, 4763.000
544.2290, 4663.000
545.4060, 4756.000
546.5820, 4743.000
547.7590, 4679.000
548.9350, 4700.000
550.1110, 4695.697
551.2870, 4674.855
552.4630, 4711.000
553.6390, 4710.000
554.8140, 4673.000
555.9900, 4794.000
557.1650, 4709.000
558.3400, 4684.000
559.5150, 4629.000
560.6900, 4675.000
561.8640, 4822.000
563.0390, 4798.000
564.2130, 4809.000
565.3870, 4820.000
566.5610, 4841.000
567.7350, 4864.000
568.9080, 4836.271
570.0820, 4748.000
571.2550, 4770.000
572.4280, 4756.000
573.6010, 4710.000
574.7740, 4739.000
575.9470, 4752.000
577.1190, 4684.000
578.2920, 4645.000
579.4640, 4537.000
580.6360, 4586.000
581.8080, 4578.000
582.9790, 4549.000
584.1510, 4667.000
585.3220, 4644.000
586.4940, 4632.000
587.6650, 4608.000
588.8360, 4678.000
590.0060, 4693.000
591.1770, 4677.000
592.3470, 4778.000
593.5180, 4727.000
594.6880, 4773.000
595.8580, 4880.000
597.0280, 4796.000
598.1970, 4874.000
599.3670, 4926.000
600.5360, 4931.000
601.7050, 5068.000
602.8740, 5153.000
604.0430, 5020.000
605.2120, 5114.000
606.3800, 5181.000
607.5490, 5144.000
608.7170, 5129.000
609.8850, 5341.000
611.0530, 5215.000
612.2210, 5324.000
613.3880, 5364.000
614.5560, 5365.000
615.7230, 5531.000
616.8900, 5561.000
618.0570, 5523.000
619.2240, 5690.000
620.3900, 5650.000
621.5570, 5799.000
622.7230, 5819.000
623.8890, 5879.000
625.0550, 6085.000
626.2210, 6101.000
627.3870, 6321.000
628.5520, 6438.000
629.7180, 6513.000
630.8830, 6832.000
632.0480, 7118.000
633.2130, 7438.000
634.3770, 7669.437
635.5420, 7968.000
636.7060, 8179.000
637.8710, 8446.000
639.0350, 8827.000
640.1990, 9204.000
641.3620, 9461.000
642.5260, 9930.000
643.6890, 9984.000
644.8530, 10293.00
646.0160, 10359.00
647.1790, 10691.00
648.3410, 10923.00
649.5040, 10841.00
650.6670, 11051.00
651.8290, 11169.00
652.9910, 11189.00
654.1530, 11235.00
655.3150, 11237.00
656.4770, 11286.00
657.6380, 11208.00
658.7990, 11164.00
659.9610, 11068.00
661.1220, 10912.00
662.2830, 10958.00
663.4430, 10809.00
664.6040, 10627.70
665.7640, 10671.84
666.9240, 10684.92
668.0850, 10668.59
669.2440, 10534.90
670.4040, 10552.80
671.5640, 10509.94
672.7230, 10464.61
673.8830, 10503.84
675.0420, 10387.23
676.2010, 10425.14
677.3590, 10401.40
678.5180, 10405.86
679.6770, 10349.19
680.8350, 10311.42
681.9930, 10234.00
683.1510, 10344.00
684.3090, 10235.00
685.4670, 10189.00
686.6240, 10255.00
687.7810, 10310.00
688.9390, 10115.00
690.0960, 9896.000
691.2530, 9853.000
692.4090, 9503.000
693.5660, 9232.000
694.7220, 9057.000
695.8790, 8718.000
697.0350, 8454.000
698.1910, 8120.000
699.3460, 7826.000
700.5020, 7530.000
701.6570, 7243.000
702.8130, 7111.000
703.9680, 6893.000
705.1230, 6807.000
706.2780, 6504.000
707.4320, 6396.000
708.5870, 6362.000
709.7410, 6141.000
710.8950, 5969.000
712.0490, 5873.000
713.2030, 5790.000
714.3570, 5671.000
715.5100, 5602.000
716.6640, 5554.000
717.8170, 5396.000
718.9700, 5404.000
720.1230, 5441.000
721.2760, 5337.000
722.4280, 5244.000
723.5810, 5211.000
724.7330, 5132.041
725.8850, 5128.000
727.0370, 5091.000
728.1890, 5083.000
729.3400, 5198.000
730.4920, 5136.000
731.6430, 5136.000
732.7940, 5155.000
733.9450, 5120.000
735.0960, 5067.322
736.2460, 5022.000
737.3970, 4927.000
738.5470, 4884.000
739.6970, 4839.000
740.8470, 4783.000
741.9970, 4798.000
743.1470, 4674.000
744.2970, 4626.000
745.4460, 4633.000
746.5950, 4524.000
747.7440, 4644.000
748.8930, 4586.000
750.0420, 4566.000
751.1900, 4573.000
752.3390, 4580.000
753.4870, 4481.000
754.6350, 4463.000
755.7830, 4513.000
756.9310, 4454.000
758.0780, 4462.000
759.2260, 4479.000
760.3730, 4530.000
761.5200, 4486.240
762.6670, 4521.564
763.8140, 4461.000
764.9610, 4497.000
766.1070, 4590.000
767.2530, 4491.000
768.4000, 4518.000
769.5460, 4576.000
770.6910, 4499.000
771.8370, 4629.000
772.9830, 4506.000
774.1280, 4544.000
775.2730, 4555.000
776.4180, 4564.000
777.5630, 4582.127
778.7080, 4583.000
779.8520, 4624.000
780.9970, 4600.000
782.1410, 4668.000
783.2850, 4701.000
784.4290, 4717.000
785.5730, 4670.000
786.7160, 4692.000
787.8600, 4620.000
789.0030, 4638.000
790.1460, 4687.000
791.2890, 4684.000
792.4320, 4710.000
793.5750, 4692.000
794.7170, 4674.000
795.8590, 4734.000
797.0020, 4793.000
798.1440, 4685.000
799.2850, 4795.000
800.4270, 4801.000
801.5690, 4831.000
802.7100, 4821.000
803.8510, 4879.000
804.9920, 4896.000
806.1330, 4895.000
807.2740, 4904.000
808.4140, 4948.000
809.5550, 4892.000
810.6950, 4927.000
811.8350, 4918.000
812.9750, 5006.000
814.1150, 4994.000
815.2540, 5031.000
816.3940, 5001.000
817.5330, 4947.000
818.6720, 4964.000
819.8110, 4989.000
820.9500, 4988.000
822.0880, 5007.000
823.2270, 5013.000
824.3650, 5123.000
825.5030, 5051.000
826.6410, 5159.000
827.7790, 5093.000
828.9170, 5167.000
830.0540, 5109.000
831.1920, 5178.000
832.3290, 5224.000
833.4660, 5163.000
834.6030, 5219.000
835.7390, 5192.000
836.8760, 5372.000
838.0120, 5274.000
839.1480, 5360.000
840.2840, 5457.000
841.4200, 5367.000
842.5560, 5332.000
843.6920, 5371.000
844.8270, 5415.000
845.9620, 5554.000
847.0970, 5481.000
848.2320, 5491.000
849.3670, 5692.000
850.5020, 5609.000
851.6360, 5601.000
852.7700, 5675.000
853.9040, 5761.000
855.0380, 5725.000
856.1720, 5764.000
857.3060, 5886.000
858.4390, 5850.000
859.5730, 5943.000
860.7060, 5988.000
861.8390, 6066.000
862.9720, 6119.902
864.1040, 6162.962
865.2370, 6212.000
866.3690, 6230.000
867.5010, 6251.000
868.6330, 6304.136
869.7650, 6331.000
870.8970, 6412.000
872.0290, 6480.443
873.1600, 6559.983
874.2910, 6659.000
875.4220, 6709.000
876.5530, 6775.000
877.6840, 6845.000
878.8140, 6871.000
879.9450, 6923.000
881.0750, 6943.000
882.2050, 7043.000
883.3350, 7179.000
884.4650, 7192.000
885.5950, 7219.000
886.7240, 7242.000
887.8530, 7203.854
888.9820, 7144.000
890.1110, 7129.000
891.2400, 7094.000
892.3690, 7082.000
893.4970, 7019.000
894.6260, 6986.834
895.7540, 6918.000
896.8820, 6858.000
898.0100, 6793.600
899.1370, 6728.000
900.2650, 6635.000
901.3920, 6588.000
902.5200, 6483.000
903.6470, 6517.000
904.7730, 6496.000
905.9000, 6370.000
907.0270, 6427.000
908.1530, 6372.000
909.2790, 6375.000
910.4050, 6328.000
911.5310, 6263.000
912.6570, 6226.000
913.7830, 6107.000
914.9080, 6100.000
916.0330, 6025.000
917.1580, 6024.000
918.2830, 6025.000
919.4080, 5969.000
920.5330, 5935.000
921.6570, 5931.000
922.7820, 5853.000
923.9060, 5783.000
925.0300, 5891.000
926.1540, 5763.000
927.2770, 5743.000
928.4010, 5886.000
929.5240, 5778.000
930.6470, 5784.000
931.7700, 5805.000
932.8930, 5751.000
934.0160, 5780.000
935.1380, 5730.000
936.2610, 5797.000
937.3830, 5794.000
938.5050, 5864.000
939.6270, 5887.000
940.7490, 5778.000
941.8700, 5788.000
942.9910, 5841.000
944.1130, 5786.000
945.2340, 5901.000
946.3550, 5851.000
947.4750, 5789.000
948.5960, 5733.000
949.7160, 5790.000
950.8370, 5935.000
951.9570, 5934.000
953.0770, 5893.000
954.1970, 5919.000
955.3160, 5905.000
956.4360, 5855.000
957.5550, 5879.363
958.6740, 5868.457
959.7930, 5892.000
960.9120, 5890.000
962.0310, 5912.000
963.1490, 5929.000
964.2670, 5936.000
965.3860, 5911.669
966.5040, 5776.000
967.6210, 5874.000
968.7390, 5767.000
969.8570, 5811.000
970.9740, 5744.000
972.0910, 5787.000
973.2080, 5835.000
974.3250, 5729.000
975.4420, 5652.000
976.5580, 5624.000
977.6750, 5594.000
978.7910, 5656.000
979.9070, 5737.000
981.0230, 5617.000
982.1390, 5660.000
983.2540, 5580.000
984.3700, 5503.000
985.4850, 5444.000
986.6000, 5462.000
987.7150, 5505.000
988.8300, 5414.000
989.9450, 5537.000
991.0590, 5448.000
992.1730, 5453.000
993.2880, 5323.000
994.4010, 5464.000
995.5150, 5364.000
996.6290, 5287.000
997.7420, 5422.000
998.8560, 5325.000
999.9690, 5331.000
1001.082, 5293.000
1002.195, 5442.000
1003.307, 5447.000
1004.420, 5308.000
1005.532, 5347.000
1006.645, 5284.000
1007.757, 5312.000
1008.868, 5377.000
1009.980, 5302.000
1011.092, 5337.000
1012.203, 5350.000
1013.314, 5313.000
1014.425, 5488.000
1015.536, 5447.000
1016.647, 5494.000
1017.758, 5457.000
1018.868, 5443.000
1019.978, 5472.000
1021.088, 5467.000
1022.198, 5498.454
1023.308, 5533.342
1024.418, 5555.693
1025.527, 5565.979
1026.637, 5539.062
1027.746, 5551.802
1028.855, 5543.524
1029.963, 5530.885
1031.072, 5538.752
1032.181, 5498.427
1033.289, 5498.616
1034.397, 5477.527
1035.505, 5460.854
1036.613, 5423.063
1037.721, 5444.000
1038.828, 5445.000
1039.935, 5406.000
1041.043, 5391.000
1042.150, 5405.000
1043.257, 5452.000
1044.363, 5317.000
1045.470, 5385.000
1046.576, 5321.000
1047.682, 5371.000
1048.788, 5309.000
1049.894, 5377.000
1051.000, 5329.975
1052.106, 5252.000
1053.211, 5255.000
1054.316, 5184.000
1055.421, 5130.000
1056.526, 5120.000
1057.631, 5129.000
1058.736, 5152.000
1059.840, 5164.000
1060.944, 5087.000
1062.049, 5049.000
1063.153, 5087.000
1064.256, 5035.431
1065.360, 5051.879
1066.463, 4984.000
1067.567, 5052.000
1068.670, 4975.000
1069.773, 4943.000
1070.876, 4993.000
1071.978, 4933.000
1073.081, 4942.704
1074.183, 4998.000
1075.285, 4933.000
1076.387, 4949.000
1077.489, 4963.000
1078.591, 4935.881
1079.692, 4949.000
1080.794, 4923.000
1081.895, 4952.000
1082.996, 4948.000
1084.097, 4916.000
1085.198, 4920.000
1086.298, 4858.000
1087.399, 4965.000
1088.499, 4878.000
1089.599, 4918.000
1090.699, 4971.000
1091.799, 4883.000
1092.898, 4877.000
1093.998, 4955.000
1095.097, 4878.000
1096.196, 4937.000
1097.295, 4967.000
1098.394, 4970.000
1099.492, 4904.000
1100.591, 4933.000
1101.689, 4887.000
1102.787, 4929.000
1103.885, 4911.000
1104.983, 4901.000
1106.081, 4914.000
1107.178, 4928.000
1108.275, 4905.000
1109.373, 4905.000
1110.470, 4871.000
1111.566, 4843.000
1112.663, 4828.000
1113.760, 4882.000
1114.856, 4910.000
1115.952, 4874.000
1117.048, 4825.000
1118.144, 4854.000
1119.240, 4938.000
1120.335, 4948.000
1121.431, 4803.000
1122.526, 4933.000
1123.621, 4825.000
1124.716, 4832.000
1125.810, 4759.000
1126.905, 4904.000
1127.999, 4935.000
1129.094, 4928.000
1130.188, 4928.000
1131.282, 4951.000
1132.375, 4890.000
1133.469, 4804.000
1134.562, 4855.000
1135.656, 4861.000
1136.749, 4902.000
1137.842, 4866.000
1138.935, 4900.000
1140.027, 4783.000
1141.120, 4877.000
1142.212, 4828.000
1143.304, 4869.000
1144.396, 4853.000
1145.488, 4841.721
1146.579, 4872.000
1147.671, 4852.000
1148.762, 4871.000
1149.853, 4939.000
1150.944, 4893.000
1152.035, 4832.000
1153.126, 4874.000
1154.216, 4827.000
1155.307, 4871.000
1156.397, 4812.000
1157.487, 4924.000
1158.577, 4901.000
1159.667, 4909.000
1160.756, 4914.505
1161.846, 4929.521
1162.935, 4927.459
1164.024, 4926.254
1165.113, 4846.117
1166.201, 4927.038
1167.290, 4973.799
1168.378, 4988.229
1169.467, 4873.511
1170.555, 4925.562
1171.643, 4910.779
1172.730, 4893.252
1173.818, 4968.776
1174.905, 4872.837
1175.993, 4946.885
1177.080, 4953.076
1178.167, 4990.322
1179.254, 4960.321
1180.340, 4951.088
1181.427, 5009.126
1182.513, 5029.915
1183.599, 4992.169
1184.685, 5031.387
1185.771, 4933.097
1186.856, 4955.469
1187.942, 5029.905
1189.027, 4995.539
1190.112, 5035.983
1191.197, 5047.936
1192.282, 4930.403
1193.367, 5038.057
1194.451, 5048.323
1195.536, 4958.597
1196.620, 5058.533
1197.704, 4982.590
1198.788, 4969.425
1199.872, 5003.505
1200.955, 4988.331
1202.039, 5050.809
1203.122, 5038.479
1204.205, 5019.466
1205.288, 5025.000
1206.370, 5018.000
1207.453, 5062.000
1208.535, 5066.000
1209.618, 5074.000
1210.700, 5041.000
1211.782, 5024.000
1212.863, 5043.000
1213.945, 5120.000
1215.026, 5007.000
1216.108, 5094.000
1217.189, 5000.000
1218.270, 5127.000
1219.351, 5025.000
1220.431, 5102.000
1221.512, 4967.000
1222.592, 5117.000
1223.672, 5069.000
1224.752, 4990.000
1225.832, 5101.000
1226.911, 5083.000
1227.991, 5092.000
1229.070, 5087.000
1230.149, 5142.000
1231.228, 5126.000
1232.307, 5133.000
1233.386, 5130.221
1234.464, 5119.411
1235.543, 5075.000
1236.621, 5097.000
1237.699, 5024.000
1238.777, 4998.000
1239.855, 5101.000
1240.932, 5159.000
1242.009, 5101.000
1243.087, 5131.000
1244.164, 5069.000
1245.241, 5057.000
1246.317, 5182.000
1247.394, 5141.000
1248.470, 5125.000
1249.546, 5173.000
1250.623, 5106.000
1251.698, 5154.000
1252.774, 5152.000
1253.850, 5108.000
1254.925, 5179.000
1256.000, 5092.000
1257.076, 5126.000
1258.150, 5192.000
1259.225, 5194.000
1260.300, 5181.000
1261.374, 5218.000
1262.449, 5187.000
1263.523, 5205.000
1264.597, 5230.000
1265.670, 5190.000
1266.744, 5230.000
1267.818, 5273.000
1268.891, 5300.000
1269.964, 5306.000
1271.037, 5283.000
1272.110, 5288.000
1273.183, 5317.000
1274.255, 5333.000
1275.327, 5352.000
1276.400, 5378.757
1277.472, 5394.946
1278.543, 5425.000
1279.615, 5432.000
1280.687, 5446.000
1281.758, 5459.000
1282.829, 5520.000
1283.900, 5563.000
1284.971, 5565.000
1286.042, 5527.000
1287.112, 5543.000
1288.183, 5524.000
1289.253, 5562.000
1290.323, 5546.000
1291.393, 5573.565
1292.463, 5758.000
1293.532, 5616.000
1294.602, 5773.000
1295.671, 5788.000
1296.740, 5785.000
1297.809, 5794.000
1298.878, 5790.000
1299.946, 5814.000
1301.015, 5835.000
1302.083, 5795.000
1303.151, 5855.000
1304.219, 5817.000
1305.287, 5858.000
1306.354, 5876.000
1307.422, 5856.000
1308.489, 5934.000
1309.556, 5920.000
1310.623, 5821.000
1311.690, 5863.000
1312.757, 5884.000
1313.823, 5937.000
1314.890, 5929.000
1315.956, 5934.162
1317.022, 5905.000
1318.088, 5909.000
1319.153, 5904.000
1320.219, 5893.000
1321.284, 5901.161
1322.349, 5927.363
1323.414, 5921.000
1324.479, 5977.000
1325.544, 6014.000
1326.608, 5991.000
1327.673, 6019.000
1328.737, 6081.000
1329.801, 5953.000
1330.865, 6013.000
1331.929, 6009.000
1332.992, 5924.000
1334.056, 6008.000
1335.119, 6093.000
1336.182, 5993.000
1337.245, 6048.000
1338.308, 6006.000
1339.370, 6012.000
1340.433, 6024.000
1341.495, 6019.000
1342.557, 5947.000
1343.619, 5964.000
1344.681, 5992.000
1345.742, 5921.000
1346.804, 5954.000
1347.865, 5956.000
1348.926, 5893.000
1349.987, 5954.000
1351.048, 5945.000
1352.108, 5915.000
1353.169, 5794.000
1354.229, 5880.000
1355.289, 5848.000
1356.349, 5947.000
1357.409, 5876.000
1358.469, 5868.000
1359.528, 5858.000
1360.588, 5807.000
1361.647, 5807.000
1362.706, 5841.000
1363.765, 5792.000
1364.823, 5842.000
1365.882, 5698.000
1366.940, 5771.000
1367.998, 5701.000
1369.056, 5743.000
1370.114, 5740.000
1371.172, 5713.000
1372.229, 5644.000
1373.287, 5636.000
1374.344, 5629.094
1375.401, 5574.000
1376.458, 5641.000
1377.515, 5643.000
1378.571, 5633.000
1379.628, 5641.909
1380.684, 5562.000
1381.740, 5587.000
1382.796, 5596.000
1383.852, 5523.000
1384.907, 5521.000
1385.963, 5474.000
1387.018, 5508.000
1388.073, 5472.000
1389.128, 5433.000
1390.183, 5402.000
1391.237, 5447.000
1392.292, 5413.000
1393.346, 5442.000
1394.400, 5421.000
1395.454, 5433.000
1396.508, 5435.000
1397.562, 5406.000
1398.615, 5355.000
1399.668, 5342.000
1400.722, 5418.000
1401.775, 5396.000
1402.827, 5308.000
1403.880, 5391.000
1404.933, 5289.000
1405.985, 5303.000
1407.037, 5273.000
1408.089, 5309.000
1409.141, 5376.000
1410.193, 5284.000
1411.244, 5232.000
1412.295, 5284.000
1413.347, 5296.000
1414.398, 5292.000
1415.449, 5288.000
1416.499, 5255.000
1417.550, 5221.000
1418.600, 5279.000
1419.650, 5274.000
1420.700, 5374.000
1421.750, 5262.000
1422.800, 5196.000
1423.850, 5263.000
1424.899, 5281.000
1425.948, 5305.000
1426.997, 5241.000
1428.046, 5272.000
1429.095, 5208.000
1430.144, 5281.000
1431.192, 5250.000
1432.240, 5274.000
1433.288, 5259.000
1434.336, 5253.038
1435.384, 5277.000
1436.432, 5250.000
1437.479, 5294.000
1438.526, 5315.237
1439.574, 5249.000
1440.621, 5327.000
1441.667, 5282.000
1442.714, 5276.000
1443.760, 5341.000
1444.807, 5213.000
1445.853, 5277.000
1446.899, 5249.000
1447.945, 5306.000
1448.990, 5276.000
1450.036, 5242.000
1451.081, 5238.000
1452.126, 5242.127
1453.171, 5266.000
1454.216, 5270.000
1455.261, 5248.000
1456.305, 5238.000
1457.350, 5192.000
1458.394, 5330.000
1459.438, 5161.000
1460.482, 5322.000
1461.526, 5252.000
1462.569, 5312.000
1463.612, 5239.000
1464.656, 5211.000
1465.699, 5323.000
1466.742, 5274.000
1467.784, 5396.000
1468.827, 5328.000
1469.869, 5309.000
1470.912, 5234.000
1471.954, 5368.000
1472.996, 5296.000
1474.037, 5434.000
1475.079, 5365.000
1476.120, 5401.000
1477.162, 5320.000
1478.203, 5363.557
1479.244, 5343.168
1480.284, 5425.000
1481.325, 5317.000
1482.365, 5312.000
1483.406, 5267.000
1484.446, 5398.000
1485.486, 5385.000
1486.526, 5391.000
1487.565, 5369.000
1488.605, 5363.000
1489.644, 5457.000
1490.683, 5418.000
1491.722, 5470.000
1492.761, 5445.000
1493.800, 5407.000
1494.838, 5464.000
1495.876, 5493.000
1496.915, 5441.000
1497.953, 5482.000
1498.990, 5440.000
1500.028, 5421.000
1501.066, 5477.000
1502.103, 5550.000
1503.140, 5512.000
1504.177, 5587.000
1505.214, 5662.000
1506.251, 5584.000
1507.287, 5621.000
1508.324, 5539.000
1509.360, 5592.000
1510.396, 5546.000
1511.432, 5510.000
1512.468, 5628.000
1513.503, 5657.000
1514.538, 5580.000
1515.574, 5589.000
1516.609, 5648.000
1517.644, 5678.000
1518.678, 5709.000
1519.713, 5698.000
1520.747, 5718.257
1521.782, 5663.000
1522.816, 5711.000
1523.850, 5750.000
1524.883, 5718.000
1525.917, 5781.000
1526.951, 5737.000
1527.984, 5651.000
1529.017, 5759.000
1530.050, 5702.000
1531.083, 5800.000
1532.115, 5855.000
1533.148, 5839.000
1534.180, 5828.000
1535.212, 5847.000
1536.244, 5945.000
1537.276, 5871.000
1538.308, 5769.000
1539.339, 5881.000
1540.370, 5791.000
1541.402, 5807.000
1542.433, 5904.000
1543.463, 5953.000
1544.494, 5798.000
1545.525, 5897.000
1546.555, 5889.000
1547.585, 5889.000
1548.615, 5908.000
1549.645, 5964.000
1550.675, 5997.353
##END=



