##NAMES=Aenigmatite
##RRUFFID=R061088
##IDEAL CHEMISTRY=Na_4_(Fe^2+^_10_Ti^4+^_2_)O_4_[Si_12_O_36_]
##LOCALITY=Naujakasik, Greenland
##OWNER=RRUFF
##SOURCE=Michael Scott
##DESCRIPTION=Black prismatic crystals
##STATUS=The identification of this mineral has been confirmed by X-ray diffraction and chemical analysis
##URL=rruff.info/R061088
##MEASURED CHEMISTRY=(Na_1.72_Ca_0.28_)_Σ=2_(Fe^2+^_4.90_Mn_0.08_Mg_0.02_)_Σ=5_(Ti_0.85_Al_0.14_Fe^3+^_0.01_)_Σ=1_(Si_5.87_Al_0.13_)_Σ=6_O_20_
##PIN_ID=L01498
##ORIENTATION=Laser parallel to -c* (0 0 -1). Fiducial mark perpendicular to laser is parallel to a [1 0 0]
152.1880, 13018.00
153.4160, 12999.00
154.6440, 12925.00
155.8720, 12917.41
157.0990, 12845.00
158.3270, 12893.00
159.5540, 12850.62
160.7810, 12807.00
162.0080, 12829.00
163.2350, 12769.00
164.4610, 12775.00
165.6880, 12710.00
166.9140, 12686.00
168.1400, 12430.00
169.3660, 12435.00
170.5920, 12407.00
171.8180, 12026.00
173.0430, 11835.00
174.2690, 11707.00
175.4940, 11497.00
176.7190, 11477.00
177.9440, 11432.00
179.1680, 11414.00
180.3930, 11401.84
181.6170, 11362.26
182.8420, 11379.46
184.0660, 11387.05
185.2900, 11356.24
186.5140, 11375.01
187.7370, 11533.00
188.9610, 11535.90
190.1840, 11575.10
191.4070, 11604.13
192.6300, 11623.56
193.8530, 11604.58
195.0760, 11635.20
196.2980, 11645.92
197.5210, 11655.85
198.7430, 11782.00
199.9650, 11835.00
201.1870, 11833.00
202.4090, 11848.00
203.6310, 11522.00
204.8520, 11397.00
206.0730, 11260.00
207.2950, 11131.00
208.5160, 11185.00
209.7360, 11198.93
210.9570, 11201.93
212.1780, 11213.76
213.3980, 11303.00
214.6180, 11192.00
215.8380, 11263.00
217.0580, 11237.00
218.2780, 11173.00
219.4980, 11071.00
220.7170, 11056.00
221.9360, 10927.00
223.1560, 10873.00
224.3750, 10915.00
225.5930, 10935.00
226.8120, 10682.00
228.0310, 10769.00
229.2490, 10589.00
230.4670, 10750.00
231.6850, 10767.00
232.9030, 10691.00
234.1210, 10705.00
235.3380, 10662.00
236.5560, 10665.43
237.7730, 10666.00
238.9900, 10622.00
240.2070, 10655.00
241.4240, 10495.00
242.6410, 10558.00
243.8570, 10667.00
245.0730, 10476.00
246.2900, 10549.00
247.5060, 10569.00
248.7210, 10702.00
249.9370, 10514.00
251.1530, 10576.05
252.3680, 10742.00
253.5830, 10546.64
254.7980, 10563.64
256.0130, 10570.47
257.2280, 10567.70
258.4430, 10526.53
259.6570, 10534.95
260.8720, 10523.49
262.0860, 10511.22
263.3000, 10526.62
264.5130, 10491.04
265.7270, 10506.00
266.9410, 10566.00
268.1540, 10510.00
269.3670, 10540.00
270.5800, 10551.06
271.7930, 10484.00
273.0060, 10573.00
274.2190, 10546.00
275.4310, 10552.00
276.6430, 10690.00
277.8550, 10615.00
279.0670, 10671.00
280.2790, 10677.00
281.4910, 10676.00
282.7020, 10731.00
283.9140, 10788.00
285.1250, 10683.00
286.3360, 10870.00
287.5470, 10803.00
288.7570, 10837.00
289.9680, 10916.00
291.1780, 10958.00
292.3880, 11010.42
293.5990, 10995.00
294.8080, 11069.00
296.0180, 10941.00
297.2280, 10865.00
298.4370, 11027.00
299.6470, 10935.00
300.8560, 11173.00
302.0650, 11087.00
303.2740, 11084.00
304.4820, 10972.00
305.6910, 11100.00
306.8990, 11009.00
308.1070, 11048.00
309.3150, 11102.00
310.5230, 11148.00
311.7310, 11087.63
312.9390, 10827.00
314.1460, 10948.00
315.3530, 10781.00
316.5600, 10716.00
317.7670, 10724.00
318.9740, 10778.00
320.1810, 10637.00
321.3870, 10579.00
322.5930, 10573.00
323.8000, 10635.00
325.0060, 10425.00
326.2110, 10388.00
327.4170, 10423.00
328.6230, 10294.00
329.8280, 10253.00
331.0330, 10244.00
332.2380, 10252.00
333.4430, 10209.00
334.6480, 10187.00
335.8530, 10127.00
337.0570, 10104.00
338.2610, 10016.00
339.4650, 10008.00
340.6690, 10092.00
341.8730, 10093.00
343.0770, 10044.00
344.2800, 10113.00
345.4840, 10073.00
346.6870, 10048.00
347.8900, 10085.00
349.0930, 10090.57
350.2950, 10161.00
351.4980, 10199.00
352.7000, 10233.00
353.9030, 10359.00
355.1050, 10424.00
356.3070, 10455.00
357.5080, 10338.00
358.7100, 10501.00
359.9110, 10449.00
361.1130, 10550.00
362.3140, 10495.00
363.5150, 10466.00
364.7160, 10553.00
365.9160, 10618.00
367.1170, 10531.00
368.3170, 10456.00
369.5170, 10487.00
370.7170, 10489.00
371.9170, 10526.00
373.1170, 10458.00
374.3170, 10363.00
375.5160, 10344.00
376.7150, 10328.00
377.9140, 10432.00
379.1130, 10320.00
380.3120, 10378.00
381.5110, 10331.00
382.7090, 10465.00
383.9070, 10207.00
385.1060, 10377.00
386.3040, 10310.00
387.5010, 10403.00
388.6990, 10442.79
389.8970, 10446.00
391.0940, 10458.00
392.2910, 10496.00
393.4880, 10393.00
394.6850, 10340.00
395.8820, 10380.00
397.0780, 10402.00
398.2750, 10261.00
399.4710, 10429.00
400.6670, 10319.00
401.8630, 10414.00
403.0590, 10376.00
404.2540, 10433.00
405.4500, 10430.00
406.6450, 10423.00
407.8400, 10447.48
409.0350, 10443.56
410.2300, 10453.00
411.4250, 10435.22
412.6190, 10419.97
413.8140, 10367.00
415.0080, 10309.00
416.2020, 10363.00
417.3960, 10370.00
418.5900, 10580.00
419.7830, 10439.00
420.9770, 10489.00
422.1700, 10640.00
423.3630, 10615.00
424.5560, 10584.00
425.7490, 10555.00
426.9410, 10713.00
428.1340, 10692.00
429.3260, 10694.00
430.5180, 10840.00
431.7100, 10750.00
432.9020, 10782.00
434.0940, 10700.00
435.2850, 10880.00
436.4770, 10801.00
437.6680, 10797.00
438.8590, 10764.00
440.0500, 10738.22
441.2410, 10717.00
442.4310, 10699.00
443.6220, 10726.00
444.8120, 10687.00
446.0020, 10521.00
447.1920, 10578.00
448.3820, 10516.00
449.5710, 10577.00
450.7610, 10570.00
451.9500, 10468.00
453.1390, 10498.00
454.3280, 10469.00
455.5170, 10360.00
456.7060, 10595.00
457.8940, 10345.00
459.0830, 10448.00
460.2710, 10294.00
461.4590, 10477.00
462.6470, 10445.00
463.8350, 10369.00
465.0220, 10371.00
466.2100, 10374.00
467.3970, 10371.00
468.5840, 10366.00
469.7710, 10433.00
470.9580, 10366.00
472.1440, 10311.00
473.3310, 10431.00
474.5170, 10502.00
475.7030, 10487.00
476.8890, 10510.00
478.0750, 10568.00
479.2610, 10580.00
480.4460, 10657.00
481.6320, 10609.00
482.8170, 10636.00
484.0020, 10572.00
485.1870, 10584.08
486.3710, 10615.00
487.5560, 10634.00
488.7400, 10774.00
489.9250, 10911.00
491.1090, 10951.00
492.2930, 10887.00
493.4760, 10881.00
494.6600, 10861.00
495.8440, 10814.00
497.0270, 10867.00
498.2100, 10875.00
499.3930, 10907.00
500.5760, 10938.50
501.7580, 10912.00
502.9410, 10979.00
504.1230, 10886.10
505.3060, 10936.46
506.4880, 10976.64
507.6690, 11007.19
508.8510, 10999.36
510.0330, 11041.12
511.2140, 11062.98
512.3950, 11084.03
513.5760, 11132.74
514.7570, 11130.48
515.9380, 11178.75
517.1190, 11206.85
518.2990, 11244.16
519.4800, 11261.50
520.6600, 11284.99
521.8400, 11328.48
523.0190, 11270.00
524.1990, 11452.00
525.3790, 11355.00
526.5580, 11554.00
527.7370, 11588.00
528.9160, 11438.00
530.0950, 11584.00
531.2740, 11469.00
532.4520, 11528.00
533.6310, 11592.00
534.8090, 11648.00
535.9870, 11650.00
537.1650, 11673.87
538.3430, 11657.00
539.5200, 11668.00
540.6980, 11657.00
541.8750, 11646.37
543.0520, 11656.81
544.2290, 11657.10
545.4060, 11647.77
546.5820, 11600.06
547.7590, 11601.92
548.9350, 11583.92
550.1110, 11565.10
551.2870, 11573.95
552.4630, 11531.83
553.6390, 11515.56
554.8140, 11533.62
555.9900, 11495.00
557.1650, 11553.00
558.3400, 11487.00
559.5150, 11509.00
560.6900, 11446.00
561.8640, 11472.00
563.0390, 11521.00
564.2130, 11299.00
565.3870, 11239.93
566.5610, 11254.78
567.7350, 11259.47
568.9080, 11254.56
570.0820, 11211.24
571.2550, 11217.51
572.4280, 11203.92
573.6010, 11118.00
574.7740, 10997.00
575.9470, 11067.00
577.1190, 11186.00
578.2920, 11166.00
579.4640, 11013.00
580.6360, 11129.00
581.8080, 10961.00
582.9790, 11043.00
584.1510, 11035.00
585.3220, 11011.00
586.4940, 10981.00
587.6650, 10994.43
588.8360, 11136.00
590.0060, 11080.00
591.1770, 11167.00
592.3470, 11354.00
593.5180, 11378.00
594.6880, 11375.00
595.8580, 11420.00
597.0280, 11393.00
598.1970, 11605.00
599.3670, 11674.00
600.5360, 11641.00
601.7050, 11699.00
602.8740, 11739.00
604.0430, 11819.00
605.2120, 11853.96
606.3800, 11885.59
607.5490, 11943.00
608.7170, 11945.00
609.8850, 11992.00
611.0530, 12056.04
612.2210, 12185.00
613.3880, 12221.00
614.5560, 12306.00
615.7230, 12285.00
616.8900, 12395.00
618.0570, 12480.00
619.2240, 12376.00
620.3900, 12527.00
621.5570, 12840.00
622.7230, 12829.00
623.8890, 13026.00
625.0550, 12940.00
626.2210, 13282.00
627.3870, 13339.00
628.5520, 13621.00
629.7180, 13940.00
630.8830, 14195.00
632.0480, 14487.00
633.2130, 14768.00
634.3770, 15094.00
635.5420, 15389.00
636.7060, 15846.00
637.8710, 16236.00
639.0350, 16624.41
640.1990, 17172.00
641.3620, 17448.00
642.5260, 17750.00
643.6890, 18165.00
644.8530, 18330.00
646.0160, 18607.88
647.1790, 18660.00
648.3410, 19010.00
649.5040, 19130.00
650.6670, 19304.00
651.8290, 19463.05
652.9910, 19359.00
654.1530, 19590.00
655.3150, 19179.00
656.4770, 19011.00
657.6380, 18800.00
658.7990, 18700.00
659.9610, 18636.00
661.1220, 18406.00
662.2830, 18319.00
663.4430, 18323.00
664.6040, 17998.00
665.7640, 17739.00
666.9240, 17583.00
668.0850, 17600.00
669.2440, 17541.00
670.4040, 17360.00
671.5640, 17129.00
672.7230, 17128.00
673.8830, 17056.00
675.0420, 17147.00
676.2010, 16940.00
677.3590, 16801.00
678.5180, 16854.00
679.6770, 16712.00
680.8350, 16614.00
681.9930, 16613.00
683.1510, 16589.00
684.3090, 16445.00
685.4670, 16402.00
686.6240, 16292.00
687.7810, 16169.89
688.9390, 16155.00
690.0960, 15895.00
691.2530, 15799.00
692.4090, 15603.00
693.5660, 15380.00
694.7220, 15203.76
695.8790, 14971.00
697.0350, 14758.00
698.1910, 14373.00
699.3460, 14111.00
700.5020, 14032.00
701.6570, 13696.00
702.8130, 13640.00
703.9680, 13516.00
705.1230, 13324.00
706.2780, 13171.00
707.4320, 13046.00
708.5870, 12986.00
709.7410, 12844.00
710.8950, 12731.00
712.0490, 12867.00
713.2030, 12658.61
714.3570, 12645.95
715.5100, 12447.00
716.6640, 12480.00
717.8170, 12442.00
718.9700, 12332.00
720.1230, 12179.00
721.2760, 12153.00
722.4280, 12072.00
723.5810, 12063.00
724.7330, 11993.00
725.8850, 11900.00
727.0370, 11733.00
728.1890, 11879.00
729.3400, 11767.00
730.4920, 11705.00
731.6430, 11883.00
732.7940, 11854.00
733.9450, 11718.00
735.0960, 11737.00
736.2460, 11681.00
737.3970, 11648.00
738.5470, 11587.00
739.6970, 11556.00
740.8470, 11536.00
741.9970, 11444.00
743.1470, 11364.00
744.2970, 11406.00
745.4460, 11444.00
746.5950, 11346.00
747.7440, 11358.00
748.8930, 11331.20
750.0420, 11241.00
751.1900, 11293.49
752.3390, 11313.97
753.4870, 11324.29
754.6350, 11325.00
755.7830, 11287.31
756.9310, 11299.20
758.0780, 11291.23
759.2260, 11282.44
760.3730, 11301.31
761.5200, 11269.21
762.6670, 11287.65
763.8140, 11285.91
764.9610, 11293.41
766.1070, 11310.53
767.2530, 11329.00
768.4000, 11307.00
769.5460, 11284.00
770.6910, 11298.90
771.8370, 11297.64
772.9830, 11312.00
774.1280, 11316.00
775.2730, 11326.00
776.4180, 11309.00
777.5630, 11423.00
778.7080, 11301.00
779.8520, 11221.00
780.9970, 11382.00
782.1410, 11210.00
783.2850, 11306.00
784.4290, 11307.00
785.5730, 11331.00
786.7160, 11365.00
787.8600, 11385.00
789.0030, 11477.00
790.1460, 11550.00
791.2890, 11253.00
792.4320, 11350.00
793.5750, 11430.00
794.7170, 11454.00
795.8590, 11520.00
797.0020, 11475.00
798.1440, 11415.00
799.2850, 11497.00
800.4270, 11525.00
801.5690, 11600.00
802.7100, 11661.00
803.8510, 11485.00
804.9920, 11485.00
806.1330, 11499.00
807.2740, 11603.00
808.4140, 11617.12
809.5550, 11572.00
810.6950, 11734.00
811.8350, 11661.00
812.9750, 11736.00
814.1150, 11735.00
815.2540, 11881.00
816.3940, 11940.00
817.5330, 11935.00
818.6720, 11792.00
819.8110, 11860.00
820.9500, 11825.00
822.0880, 11868.00
823.2270, 12009.00
824.3650, 11917.00
825.5030, 12076.00
826.6410, 11970.00
827.7790, 12009.00
828.9170, 12205.00
830.0540, 12160.03
831.1920, 12212.58
832.3290, 12254.94
833.4660, 12287.70
834.6030, 12282.06
835.7390, 12325.97
836.8760, 12350.04
838.0120, 12373.27
839.1480, 12409.32
840.2840, 12473.60
841.4200, 12527.73
842.5560, 12572.24
843.6920, 12578.36
844.8270, 12634.02
845.9620, 12669.81
847.0970, 12704.79
848.2320, 12767.43
849.3670, 12779.10
850.5020, 12841.30
851.6360, 12883.29
852.7700, 12864.00
853.9040, 12944.81
855.0380, 13044.56
856.1720, 13020.00
857.3060, 13206.00
858.4390, 13092.00
859.5730, 13055.00
860.7060, 13254.00
861.8390, 13216.00
862.9720, 13137.00
864.1040, 13281.00
865.2370, 13199.00
866.3690, 13235.00
867.5010, 13359.00
868.6330, 13445.00
869.7650, 13541.00
870.8970, 13647.93
872.0290, 13766.00
873.1600, 13820.00
874.2910, 13889.98
875.4220, 13911.00
876.5530, 13995.00
877.6840, 14026.00
878.8140, 14046.00
879.9450, 14126.00
881.0750, 14326.00
882.2050, 14202.00
883.3350, 14116.00
884.4650, 14466.00
885.5950, 14406.00
886.7240, 14467.00
887.8530, 14617.00
888.9820, 14390.00
890.1110, 14439.00
891.2400, 14530.00
892.3690, 14519.00
893.4970, 14201.00
894.6260, 14290.00
895.7540, 14088.00
896.8820, 14146.00
898.0100, 13949.00
899.1370, 13801.00
900.2650, 13717.00
901.3920, 13613.33
902.5200, 13535.12
903.6470, 13534.00
904.7730, 13405.00
905.9000, 13438.00
907.0270, 13374.00
908.1530, 13374.00
909.2790, 13258.00
910.4050, 13318.00
911.5310, 13108.00
912.6570, 13066.00
913.7830, 13063.00
914.9080, 13017.00
916.0330, 12996.00
917.1580, 12848.00
918.2830, 12858.00
919.4080, 12862.00
920.5330, 12722.00
921.6570, 12866.00
922.7820, 12776.00
923.9060, 12779.00
925.0300, 12761.00
926.1540, 12644.00
927.2770, 12763.00
928.4010, 12713.00
929.5240, 12853.00
930.6470, 12709.00
931.7700, 12684.00
932.8930, 12790.00
934.0160, 12746.00
935.1380, 12656.00
936.2610, 12636.00
937.3830, 12745.00
938.5050, 12693.00
939.6270, 12806.00
940.7490, 12682.01
941.8700, 12739.64
942.9910, 12774.41
944.1130, 12787.56
945.2340, 12714.31
946.3550, 12752.62
947.4750, 12746.22
948.5960, 12738.00
949.7160, 12792.01
950.8370, 12731.32
951.9570, 12784.35
953.0770, 12791.98
954.1970, 12820.39
955.3160, 12803.80
956.4360, 12801.12
957.5550, 12843.43
958.6740, 12860.82
959.7930, 12839.06
960.9120, 12858.79
962.0310, 12833.00
963.1490, 12858.21
964.2670, 12880.56
965.3860, 12893.00
966.5040, 12931.00
967.6210, 12958.00
968.7390, 12978.65
969.8570, 12956.17
970.9740, 12999.31
972.0910, 13025.15
973.2080, 12981.87
974.3250, 13027.85
975.4420, 13038.05
976.5580, 13046.77
977.6750, 13037.86
978.7910, 13098.00
979.9070, 13140.69
981.0230, 13166.51
982.1390, 13144.97
983.2540, 13169.23
984.3700, 13165.76
985.4850, 13154.73
986.6000, 13150.00
987.7150, 13125.42
988.8300, 13175.55
989.9450, 13205.82
991.0590, 13217.15
992.1730, 13161.57
993.2880, 13185.69
994.4010, 13173.77
995.5150, 13157.57
996.6290, 13184.53
997.7420, 13123.65
998.8560, 13144.04
999.9690, 13127.91
1001.082, 13124.24
1002.195, 13084.34
1003.307, 13051.84
1004.420, 13049.71
1005.532, 13026.25
1006.645, 12970.84
1007.757, 12875.00
1008.868, 12931.00
1009.980, 12838.00
1011.092, 12942.00
1012.203, 12793.00
1013.314, 12939.00
1014.425, 12772.00
1015.536, 12917.00
1016.647, 12989.00
1017.758, 12945.00
1018.868, 12953.00
1019.978, 12982.00
1021.088, 12924.00
1022.198, 12979.00
1023.308, 13035.00
1024.418, 13025.00
1025.527, 13059.00
1026.637, 13079.01
1027.746, 13083.79
1028.855, 13106.00
1029.963, 13091.00
1031.072, 13082.00
1032.181, 13054.09
1033.289, 13038.34
1034.397, 12972.45
1035.505, 12994.01
1036.613, 12992.71
1037.721, 12969.80
1038.828, 12860.51
1039.935, 12862.78
1041.043, 12820.32
1042.150, 12776.05
1043.257, 12794.03
1044.363, 12697.33
1045.470, 12714.33
1046.576, 12685.95
1047.682, 12678.35
1048.788, 12553.00
1049.894, 12584.00
1051.000, 12660.00
1052.106, 12542.00
1053.211, 12591.00
1054.316, 12494.00
1055.421, 12543.00
1056.526, 12400.00
1057.631, 12487.00
1058.736, 12481.00
1059.840, 12521.00
1060.944, 12432.00
1062.049, 12496.00
1063.153, 12383.00
1064.256, 12386.00
1065.360, 12407.47
1066.463, 12332.57
1067.567, 12343.52
1068.670, 12254.00
1069.773, 12326.00
1070.876, 12296.00
1071.978, 12334.00
1073.081, 12228.00
1074.183, 12275.00
1075.285, 12219.00
1076.387, 12258.00
1077.489, 12183.00
1078.591, 12235.00
1079.692, 12223.00
1080.794, 12247.96
1081.895, 12133.00
1082.996, 12302.00
1084.097, 12252.00
1085.198, 12215.00
1086.298, 12324.00
1087.399, 12237.00
1088.499, 12237.00
1089.599, 12226.00
1090.699, 12179.00
1091.799, 12200.00
1092.898, 12268.00
1093.998, 12267.00
1095.097, 12280.00
1096.196, 12210.00
1097.295, 12128.00
1098.394, 12169.00
1099.492, 12143.00
1100.591, 12159.00
1101.689, 12200.95
1102.787, 12216.04
1103.885, 12280.00
1104.983, 12260.00
1106.081, 12276.00
1107.178, 12121.52
1108.275, 12221.94
1109.373, 12280.07
1110.470, 12298.15
1111.566, 12156.28
1112.663, 12220.96
1113.760, 12202.86
1114.856, 12181.36
1115.952, 12275.10
1117.048, 12156.50
1118.144, 12248.41
1119.240, 12256.29
1120.335, 12289.00
1121.431, 12244.00
1122.526, 12240.00
1123.621, 12178.00
1124.716, 12175.00
1125.810, 12218.00
1126.905, 12348.00
1127.999, 12236.00
1129.094, 12298.00
1130.188, 12355.00
1131.282, 12271.00
1132.375, 12161.00
1133.469, 12299.00
1134.562, 12414.00
1135.656, 12250.00
1136.749, 12248.00
1137.842, 12302.00
1138.935, 12225.00
1140.027, 12296.00
1141.120, 12315.00
1142.212, 12361.00
1143.304, 12315.00
1144.396, 12276.00
1145.488, 12441.00
1146.579, 12316.00
1147.671, 12418.00
1148.762, 12245.00
1149.853, 12530.00
1150.944, 12460.00
1152.035, 12357.00
1153.126, 12411.00
1154.216, 12391.00
1155.307, 12442.00
1156.397, 12429.00
1157.487, 12334.00
1158.577, 12470.00
1159.667, 12374.00
1160.756, 12493.00
1161.846, 12326.00
1162.935, 12458.00
1164.024, 12512.00
1165.113, 12469.00
1166.201, 12373.03
1167.290, 12460.64
1168.378, 12511.67
1169.467, 12528.11
1170.555, 12406.31
1171.643, 12463.01
1172.730, 12448.17
1173.818, 12430.40
1174.905, 12512.22
1175.993, 12410.53
1177.080, 12490.77
1178.167, 12498.38
1179.254, 12539.23
1180.340, 12508.11
1181.427, 12508.00
1182.513, 12530.00
1183.599, 12570.00
1184.685, 12604.49
1185.771, 12649.00
1186.856, 12683.00
1187.942, 12754.00
1189.027, 12764.00
1190.112, 12705.00
1191.197, 12763.00
1192.282, 12746.50
1193.367, 12728.00
1194.451, 12760.00
1195.536, 12788.00
1196.620, 12785.97
1197.704, 12691.00
1198.788, 12713.00
1199.872, 12708.00
1200.955, 12645.00
1202.039, 12709.00
1203.122, 12700.00
1204.205, 12765.00
1205.288, 12706.00
1206.370, 12695.00
1207.453, 12676.00
1208.535, 12763.00
1209.618, 12741.00
1210.700, 12917.00
1211.782, 12824.00
1212.863, 12748.00
1213.945, 12904.00
1215.026, 12771.00
1216.108, 12800.00
1217.189, 12736.00
1218.270, 12750.86
1219.351, 12777.08
1220.431, 12832.00
1221.512, 12848.00
1222.592, 12921.00
1223.672, 12958.00
1224.752, 12932.00
1225.832, 12970.25
1226.911, 12971.80
1227.991, 12991.00
1229.070, 12940.00
1230.149, 12977.00
1231.228, 12862.00
1232.307, 12856.00
1233.386, 12894.00
1234.464, 12746.00
1235.543, 12816.00
1236.621, 12780.00
1237.699, 12819.00
1238.777, 12897.00
1239.855, 12814.00
1240.932, 12893.00
1242.009, 12927.00
1243.087, 12754.00
1244.164, 12891.00
1245.241, 13004.00
1246.317, 12869.00
1247.394, 12797.00
1248.470, 12856.00
1249.546, 12966.00
1250.623, 12872.00
1251.698, 12932.00
1252.774, 12918.00
1253.850, 12820.00
1254.925, 12869.00
1256.000, 13033.00
1257.076, 13077.00
1258.150, 12923.00
1259.225, 13062.00
1260.300, 12973.00
1261.374, 13018.00
1262.449, 13056.00
1263.523, 13093.00
1264.597, 12968.00
1265.670, 13170.00
1266.744, 13086.00
1267.818, 13030.00
1268.891, 13172.00
1269.964, 13195.00
1271.037, 13146.00
1272.110, 13173.00
1273.183, 13186.55
1274.255, 13231.00
1275.327, 13207.00
1276.400, 13275.00
1277.472, 13223.00
1278.543, 13233.00
1279.615, 13254.00
1280.687, 13474.00
1281.758, 13311.00
1282.829, 13467.00
1283.900, 13445.00
1284.971, 13461.00
1286.042, 13598.00
1287.112, 13480.00
1288.183, 13627.00
1289.253, 13618.00
1290.323, 13587.00
1291.393, 13718.00
1292.463, 13655.00
1293.532, 13704.13
1294.602, 13699.00
1295.671, 13736.00
1296.740, 13694.00
1297.809, 13683.00
1298.878, 13797.00
1299.946, 13814.00
1301.015, 13879.00
1302.083, 13749.00
1303.151, 13704.00
1304.219, 13804.00
1305.287, 13828.00
1306.354, 13689.00
1307.422, 13899.00
1308.489, 13816.00
1309.556, 13925.00
1310.623, 13776.00
1311.690, 13859.00
1312.757, 13840.00
1313.823, 13813.00
1314.890, 13888.00
1315.956, 13847.00
1317.022, 13937.24
1318.088, 13931.36
1319.153, 14042.00
1320.219, 13945.00
1321.284, 13850.00
1322.349, 13841.00
1323.414, 13862.00
1324.479, 13769.00
1325.544, 13980.00
1326.608, 13877.00
1327.673, 13775.00
1328.737, 13724.00
1329.801, 13912.00
1330.865, 14017.00
1331.929, 13938.00
1332.992, 13881.00
1334.056, 13970.00
1335.119, 13935.00
1336.182, 13792.00
1337.245, 13922.00
1338.308, 13926.00
1339.370, 13846.00
1340.433, 13715.00
1341.495, 13794.00
1342.557, 13859.00
1343.619, 13953.00
1344.681, 13750.00
1345.742, 13809.00
1346.804, 13752.00
1347.865, 13786.00
1348.926, 13696.00
1349.987, 13633.00
1351.048, 13672.00
1352.108, 13841.00
1353.169, 13798.00
1354.229, 13746.00
1355.289, 13686.00
1356.349, 13711.00
1357.409, 13758.00
1358.469, 13722.00
1359.528, 13603.00
1360.588, 13786.00
1361.647, 13565.00
1362.706, 13642.00
1363.765, 13486.00
1364.823, 13711.00
1365.882, 13658.00
1366.940, 13579.00
1367.998, 13810.00
1369.056, 13589.00
1370.114, 13598.00
1371.172, 13486.00
1372.229, 13475.00
1373.287, 13596.00
1374.344, 13425.00
1375.401, 13565.00
1376.458, 13613.00
1377.515, 13566.00
1378.571, 13499.00
1379.628, 13386.00
1380.684, 13469.00
1381.740, 13387.00
1382.796, 13348.00
1383.852, 13513.00
1384.907, 13282.00
1385.963, 13336.00
1387.018, 13315.00
1388.073, 13408.00
1389.128, 13381.29
1390.183, 13247.00
1391.237, 13368.00
1392.292, 13266.00
1393.346, 13267.00
1394.400, 13232.00
1395.454, 13250.41
1396.508, 13263.00
1397.562, 13306.00
1398.615, 13436.00
1399.668, 13412.00
1400.722, 13243.00
1401.775, 13331.00
1402.827, 13251.00
1403.880, 13317.00
1404.933, 13248.00
1405.985, 13272.00
1407.037, 13433.00
1408.089, 13259.00
1409.141, 13154.00
1410.193, 13233.00
1411.244, 13132.00
1412.295, 13191.00
1413.347, 13332.00
1414.398, 13371.00
1415.449, 13337.00
1416.499, 13250.00
1417.550, 13354.00
1418.600, 13417.00
1419.650, 13305.76
1420.700, 13337.72
1421.750, 13358.92
1422.800, 13369.94
1423.850, 13340.31
1424.899, 13363.17
1425.948, 13364.99
1426.997, 13365.94
1428.046, 13396.19
1429.095, 13372.46
1430.144, 13402.25
1431.192, 13410.66
1432.240, 13428.86
1433.288, 13425.88
1434.336, 13429.44
1435.384, 13454.18
1436.432, 13467.19
1437.479, 13461.77
1438.526, 13442.00
1439.574, 13582.00
1440.621, 13683.00
1441.667, 13494.00
1442.714, 13696.00
1443.760, 13662.00
1444.807, 13545.00
1445.853, 13690.00
1446.899, 13558.00
1447.945, 13482.00
1448.990, 13713.00
1450.036, 13497.00
1451.081, 13570.00
1452.126, 13618.00
1453.171, 13611.00
1454.216, 13680.00
1455.261, 13624.00
1456.305, 13649.09
1457.350, 13651.00
1458.394, 13634.00
1459.438, 13620.00
1460.482, 13585.00
1461.526, 13672.00
1462.569, 13554.00
1463.612, 13425.00
1464.656, 13413.00
1465.699, 13519.00
1466.742, 13578.00
1467.784, 13575.00
1468.827, 13583.49
1469.869, 13570.00
1470.912, 13542.00
1471.954, 13556.00
1472.996, 13607.00
1474.037, 13635.00
1475.079, 13623.00
1476.120, 13405.00
1477.162, 13606.00
1478.203, 13390.00
1479.244, 13556.00
1480.284, 13626.00
1481.325, 13617.00
1482.365, 13731.00
1483.406, 13478.00
1484.446, 13485.00
1485.486, 13456.00
1486.526, 13426.14
1487.565, 13709.00
1488.605, 13509.00
1489.644, 13624.00
1490.683, 13683.00
1491.722, 13439.00
1492.761, 13591.00
1493.800, 13622.00
1494.838, 13802.00
1495.876, 13591.00
1496.915, 13686.00
1497.953, 13578.00
1498.990, 13655.00
1500.028, 13791.00
1501.066, 13681.00
1502.103, 13802.00
1503.140, 13655.00
1504.177, 13615.00
1505.214, 13660.00
1506.251, 13655.00
1507.287, 13805.00
1508.324, 13870.00
1509.360, 13852.20
1510.396, 13768.00
1511.432, 13814.00
1512.468, 13692.00
1513.503, 13663.00
1514.538, 13713.00
1515.574, 13610.00
1516.609, 13803.00
1517.644, 13759.00
1518.678, 13819.00
1519.713, 13859.00
1520.747, 13999.00
1521.782, 13905.00
1522.816, 13758.00
1523.850, 13873.00
1524.883, 13812.00
1525.917, 13961.00
1526.951, 13905.00
1527.984, 13834.00
1529.017, 13967.00
1530.050, 14014.00
1531.083, 13914.00
1532.115, 13964.00
1533.148, 13898.00
1534.180, 13889.00
1535.212, 13797.00
1536.244, 13934.00
1537.276, 13909.00
1538.308, 13951.00
1539.339, 13842.00
1540.370, 13943.00
1541.402, 13990.00
1542.433, 14044.00
1543.463, 14120.00
1544.494, 13947.00
1545.525, 14111.00
1546.555, 13980.00
1547.585, 14223.00
##END=



