##NAMES=Aenigmatite
##RRUFFID=R061088
##IDEAL CHEMISTRY=Na_4_(Fe^2+^_10_Ti^4+^_2_)O_4_[Si_12_O_36_]
##LOCALITY=Naujakasik, Greenland
##OWNER=RRUFF
##SOURCE=Michael Scott
##DESCRIPTION=Black prismatic crystals
##STATUS=The identification of this mineral has been confirmed by X-ray diffraction and chemical analysis
##URL=rruff.info/R061088
##MEASURED CHEMISTRY=(Na_1.72_Ca_0.28_)_Σ=2_(Fe^2+^_4.90_Mn_0.08_Mg_0.02_)_Σ=5_(Ti_0.85_Al_0.14_Fe^3+^_0.01_)_Σ=1_(Si_5.87_Al_0.13_)_Σ=6_O_20_
##PIN_ID=L01545
##ORIENTATION=Laser parallel to (1 1 0). Fiducial mark perpendicular to laser is parallel to c [0 0 1]
132.8850, 8917.000
134.1200, 8918.000
135.3560, 8922.000
136.5910, 8991.000
137.8260, 9107.000
139.0610, 9102.952
140.2950, 9355.000
141.5290, 9138.000
142.7640, 9185.000
143.9980, 9169.000
145.2320, 9345.000
146.4650, 9372.000
147.6990, 9434.000
148.9320, 9356.000
150.1650, 9390.000
151.3980, 9602.000
152.6310, 9876.000
153.8640, 9657.000
155.0960, 9958.000
156.3280, 9753.000
157.5600, 9726.000
158.7920, 9761.000
160.0240, 9803.000
161.2560, 9954.000
162.4870, 10018.00
163.7180, 10161.00
164.9490, 10071.00
166.1800, 10080.00
167.4110, 9815.000
168.6410, 9772.000
169.8720, 9667.000
171.1020, 9470.634
172.3320, 9352.000
173.5620, 9134.000
174.7910, 8978.000
176.0210, 8795.000
177.2500, 8627.000
178.4790, 8657.000
179.7080, 8484.000
180.9370, 8365.000
182.1650, 8250.000
183.3940, 8359.000
184.6220, 8229.000
185.8500, 8420.000
187.0780, 8432.000
188.3050, 8455.000
189.5330, 8426.000
190.7600, 8552.000
191.9870, 8454.000
193.2140, 8560.000
194.4410, 8553.000
195.6680, 8736.000
196.8940, 8664.000
198.1200, 8666.000
199.3470, 8754.000
200.5720, 8709.000
201.7980, 8791.000
203.0240, 8802.000
204.2490, 8506.000
205.4740, 8354.000
206.6990, 8347.000
207.9240, 8267.000
209.1490, 8211.000
210.3740, 8149.000
211.5980, 8212.000
212.8220, 8215.000
214.0460, 8347.000
215.2700, 8259.000
216.4930, 8269.000
217.7170, 8258.000
218.9400, 8242.000
220.1630, 8319.000
221.3860, 8142.000
222.6090, 8169.000
223.8320, 8236.000
225.0540, 8209.000
226.2760, 8365.000
227.4980, 8195.000
228.7200, 8306.000
229.9420, 8214.000
231.1630, 8455.000
232.3850, 8337.000
233.6060, 8323.000
234.8270, 8151.000
236.0480, 8310.000
237.2690, 8384.000
238.4890, 8225.000
239.7090, 8339.000
240.9290, 8311.000
242.1490, 8418.000
243.3690, 8480.000
244.5890, 8413.000
245.8080, 8438.000
247.0270, 8597.000
248.2470, 8633.000
249.4650, 8644.000
250.6840, 8596.000
251.9030, 8650.000
253.1210, 8594.000
254.3390, 8646.000
255.5570, 8687.000
256.7750, 8662.000
257.9930, 8855.000
259.2100, 8867.566
260.4280, 8788.110
261.6450, 8982.000
262.8620, 8622.000
264.0790, 8562.000
265.2950, 8590.000
266.5120, 8624.000
267.7280, 8431.000
268.9440, 8377.000
270.1600, 8354.000
271.3760, 8387.000
272.5920, 8391.000
273.8070, 8397.000
275.0220, 8373.000
276.2370, 8411.000
277.4520, 8429.000
278.6670, 8476.000
279.8820, 8268.000
281.0960, 8398.000
282.3100, 8362.000
283.5240, 8501.000
284.7380, 8448.000
285.9520, 8498.000
287.1650, 8532.000
288.3780, 8540.000
289.5920, 8488.000
290.8050, 8661.000
292.0170, 8376.000
293.2300, 8494.000
294.4430, 8607.000
295.6550, 8624.000
296.8670, 8542.000
298.0790, 8518.000
299.2910, 8577.000
300.5020, 8569.000
301.7140, 8571.510
302.9250, 8589.759
304.1360, 8595.000
305.3470, 8598.000
306.5580, 8668.000
307.7680, 8682.000
308.9780, 8622.000
310.1890, 8681.000
311.3990, 8682.000
312.6090, 8576.000
313.8180, 8544.000
315.0280, 8489.000
316.2370, 8541.000
317.4460, 8583.000
318.6550, 8417.000
319.8640, 8565.000
321.0730, 8509.000
322.2810, 8493.000
323.4890, 8511.000
324.6980, 8492.000
325.9060, 8361.000
327.1130, 8343.000
328.3210, 8387.000
329.5280, 8507.000
330.7360, 8381.000
331.9430, 8275.000
333.1500, 8284.000
334.3560, 8194.000
335.5630, 8218.000
336.7690, 8211.000
337.9760, 8243.000
339.1820, 8149.000
340.3870, 8108.000
341.5930, 8238.000
342.7990, 8122.000
344.0040, 8175.000
345.2090, 8248.000
346.4140, 8279.000
347.6190, 8188.000
348.8240, 8385.000
350.0280, 8346.000
351.2330, 8344.000
352.4370, 8429.000
353.6410, 8400.000
354.8440, 8603.000
356.0480, 8649.000
357.2520, 8790.000
358.4550, 8817.000
359.6580, 8891.000
360.8610, 8977.000
362.0640, 8951.000
363.2660, 8954.000
364.4690, 9011.000
365.6710, 8850.000
366.8730, 8774.000
368.0750, 8854.000
369.2770, 8766.000
370.4780, 8719.139
371.6800, 8811.000
372.8810, 8631.000
374.0820, 8769.000
375.2830, 8867.000
376.4830, 8538.000
377.6840, 8748.000
378.8840, 8576.000
380.0840, 8631.000
381.2840, 8553.000
382.4840, 8545.000
383.6840, 8593.000
384.8830, 8400.000
386.0830, 8413.000
387.2820, 8446.000
388.4810, 8393.000
389.6800, 8481.000
390.8780, 8303.000
392.0770, 8304.000
393.2750, 8367.000
394.4730, 8359.000
395.6710, 8334.000
396.8690, 8387.000
398.0660, 8498.000
399.2640, 8357.000
400.4610, 8427.000
401.6580, 8361.000
402.8550, 8357.000
404.0520, 8422.000
405.2490, 8424.000
406.4450, 8469.000
407.6410, 8455.121
408.8370, 8394.000
410.0330, 8463.000
411.2290, 8399.000
412.4240, 8506.000
413.6200, 8481.315
414.8150, 8576.000
416.0100, 8485.000
417.2050, 8437.000
418.4000, 8446.000
419.5940, 8461.179
420.7880, 8622.000
421.9830, 8569.000
423.1770, 8701.000
424.3700, 8741.000
425.5640, 8659.000
426.7580, 8753.000
427.9510, 8874.000
429.1440, 8855.000
430.3370, 8882.000
431.5300, 8818.000
432.7220, 8984.000
433.9150, 8952.000
435.1070, 9059.000
436.2990, 9007.000
437.4910, 9191.000
438.6830, 9135.040
439.8750, 9202.862
441.0660, 9062.000
442.2570, 9267.000
443.4480, 9188.000
444.6390, 9163.000
445.8300, 9176.761
447.0210, 9106.713
448.2110, 9021.000
449.4010, 9088.000
450.5910, 8897.000
451.7810, 9021.000
452.9710, 8955.011
454.1610, 8861.000
455.3500, 8924.000
456.5390, 8679.000
457.7280, 8662.000
458.9170, 8837.000
460.1060, 8738.502
461.2940, 8796.000
462.4830, 8774.000
463.6710, 8599.000
464.8590, 8511.000
466.0470, 8532.000
467.2350, 8712.000
468.4220, 8570.000
469.6090, 8602.000
470.7970, 8587.000
471.9840, 8629.000
473.1700, 8650.000
474.3570, 8630.000
475.5440, 8680.000
476.7300, 8750.000
477.9160, 8812.000
479.1020, 8705.000
480.2880, 8811.000
481.4740, 8893.000
482.6590, 8746.000
483.8440, 8861.000
485.0300, 8972.000
486.2140, 9026.000
487.3990, 9020.000
488.5840, 8969.000
489.7680, 9079.000
490.9530, 9159.000
492.1370, 9061.000
493.3210, 9191.000
494.5040, 9053.000
495.6880, 9190.000
496.8720, 9144.000
498.0550, 9213.000
499.2380, 9161.000
500.4210, 9250.000
501.6040, 9166.000
502.7860, 9209.000
503.9690, 9236.000
505.1510, 9124.000
506.3330, 9191.000
507.5150, 9219.000
508.6970, 9293.000
509.8780, 9254.000
511.0600, 9309.000
512.2410, 9334.000
513.4220, 9362.000
514.6030, 9433.000
515.7840, 9432.000
516.9640, 9543.000
518.1440, 9649.000
519.3250, 9616.000
520.5050, 9811.000
521.6850, 9788.000
522.8640, 9856.000
524.0440, 9975.165
525.2230, 9944.000
526.4020, 10121.00
527.5820, 10139.00
528.7600, 10097.00
529.9390, 10103.00
531.1180, 10174.46
532.2960, 10223.00
533.4740, 10312.00
534.6520, 10380.00
535.8300, 10384.00
537.0080, 10401.23
538.1850, 10481.00
539.3630, 10358.00
540.5400, 10386.00
541.7170, 10361.00
542.8940, 10427.00
544.0700, 10567.00
545.2470, 10347.00
546.4230, 10394.00
547.5990, 10289.00
548.7750, 10365.00
549.9510, 10292.69
551.1270, 10331.00
552.3020, 10205.00
553.4780, 10278.00
554.6530, 10279.00
555.8280, 10174.00
557.0030, 10127.00
558.1770, 10118.00
559.3520, 10201.00
560.5260, 10052.00
561.7000, 10144.00
562.8740, 10072.00
564.0480, 10012.00
565.2220, 9975.000
566.3950, 9858.000
567.5680, 10003.00
568.7420, 9838.000
569.9150, 9919.000
571.0870, 9759.000
572.2600, 9616.000
573.4320, 9602.000
574.6050, 9565.000
575.7770, 9380.000
576.9490, 9400.066
578.1210, 9341.000
579.2920, 9336.000
580.4640, 9345.000
581.6350, 9330.000
582.8060, 9290.520
583.9770, 9258.876
585.1480, 9219.000
586.3190, 9199.000
587.4890, 9226.000
588.6590, 9292.000
589.8290, 9325.098
590.9990, 9375.421
592.1690, 9434.000
593.3390, 9490.000
594.5080, 9503.000
595.6770, 9592.000
596.8470, 9675.238
598.0160, 9906.000
599.1840, 9852.000
600.3530, 10026.00
601.5210, 10045.00
602.6900, 10078.00
603.8580, 10324.00
605.0260, 10502.00
606.1930, 10512.00
607.3610, 10641.00
608.5280, 10747.00
609.6960, 10670.00
610.8630, 10852.00
612.0300, 10985.00
613.1970, 10933.00
614.3630, 11034.00
615.5300, 11282.00
616.6960, 11077.00
617.8620, 11218.00
619.0280, 11262.00
620.1940, 11182.00
621.3590, 11428.00
622.5250, 11536.00
623.6900, 11675.00
624.8550, 11825.00
626.0200, 11909.00
627.1850, 12063.00
628.3490, 12306.00
629.5140, 12510.00
630.6780, 12752.00
631.8420, 13050.00
633.0060, 13394.67
634.1700, 13820.00
635.3330, 14264.00
636.4970, 14745.00
637.6600, 15374.00
638.8230, 15741.00
639.9860, 16510.00
641.1490, 17298.00
642.3110, 17859.00
643.4740, 18547.00
644.6360, 19193.00
645.7980, 19731.00
646.9600, 20240.00
648.1220, 20652.00
649.2840, 20786.00
650.4450, 21164.00
651.6060, 21552.00
652.7670, 21499.00
653.9280, 21735.00
655.0890, 21683.00
656.2500, 21538.00
657.4100, 21542.00
658.5700, 21301.00
659.7300, 21034.00
660.8900, 20831.00
662.0500, 20493.00
663.2100, 20211.00
664.3690, 19958.00
665.5280, 19549.24
666.6880, 18993.00
667.8460, 18728.00
669.0050, 18342.00
670.1640, 17867.00
671.3220, 17806.00
672.4810, 17269.00
673.6390, 17431.00
674.7970, 16810.00
675.9540, 16692.00
677.1120, 16252.00
678.2690, 16370.00
679.4270, 16238.00
680.5840, 16238.00
681.7410, 16060.00
682.8980, 16017.00
684.0540, 15855.00
685.2110, 15707.00
686.3670, 15837.00
687.5230, 15668.00
688.6790, 15657.00
689.8350, 15636.00
690.9900, 15580.00
692.1460, 15391.73
693.3010, 15086.00
694.4560, 14924.00
695.6110, 14624.00
696.7660, 14349.00
697.9210, 13988.00
699.0750, 13626.00
700.2290, 13392.00
701.3840, 12973.00
702.5370, 12685.00
703.6910, 12373.00
704.8450, 12012.00
705.9980, 11852.00
707.1520, 11468.00
708.3050, 11420.00
709.4580, 11213.00
710.6110, 10962.00
711.7630, 10716.00
712.9160, 10740.00
714.0680, 10655.00
715.2200, 10311.00
716.3720, 10175.00
717.5240, 10257.00
718.6760, 10200.00
719.8270, 9932.000
720.9780, 9899.000
722.1300, 9872.000
723.2810, 9912.000
724.4310, 9772.000
725.5820, 9740.000
726.7330, 9739.000
727.8830, 9711.000
729.0330, 9664.203
730.1830, 9547.000
731.3330, 9577.000
732.4830, 9496.000
733.6320, 9487.000
734.7810, 9558.000
735.9310, 9498.000
737.0800, 9391.000
738.2290, 9390.000
739.3770, 9392.000
740.5260, 9417.000
741.6740, 9394.213
742.8220, 9360.071
743.9700, 9348.000
745.1180, 9258.000
746.2660, 9200.000
747.4130, 9151.000
748.5610, 9114.000
749.7080, 9112.000
750.8550, 9078.411
752.0020, 9122.000
753.1490, 9050.000
754.2950, 9089.000
755.4420, 9088.000
756.5880, 9089.000
757.7340, 9051.000
758.8800, 9030.000
760.0250, 9086.000
761.1710, 9144.126
762.3160, 9198.485
763.4620, 9228.580
764.6070, 9235.716
765.7520, 9151.124
766.8960, 9184.980
768.0410, 9171.367
769.1850, 9155.809
770.3300, 9206.335
771.4740, 9135.085
772.6180, 9184.564
773.7610, 9185.852
774.9050, 9209.194
776.0480, 9184.777
777.1920, 9175.110
778.3350, 9213.222
779.4780, 9224.879
780.6200, 9194.964
781.7630, 9219.710
782.9060, 9146.793
784.0480, 9086.000
785.1900, 9185.000
786.3320, 9153.000
787.4740, 9228.000
788.6150, 9155.000
789.7570, 9157.668
790.8980, 9167.757
792.0390, 9115.000
793.1800, 9174.000
794.3210, 9178.000
795.4620, 9198.000
796.6020, 9177.000
797.7420, 9147.000
798.8830, 9254.000
800.0230, 9237.000
801.1620, 9329.000
802.3020, 9383.000
803.4420, 9261.000
804.5810, 9419.000
805.7200, 9342.000
806.8590, 9288.000
807.9980, 9410.000
809.1370, 9370.000
810.2750, 9446.000
811.4140, 9539.000
812.5520, 9399.000
813.6900, 9454.000
814.8280, 9545.000
815.9650, 9524.000
817.1030, 9514.000
818.2400, 9682.000
819.3780, 9650.000
820.5150, 9610.000
821.6520, 9593.000
822.7880, 9650.000
823.9250, 9642.252
825.0610, 9722.000
826.1980, 9717.000
827.3340, 9728.000
828.4700, 9802.000
829.6050, 9909.000
830.7410, 9923.830
831.8760, 9955.000
833.0120, 9960.000
834.1470, 9955.000
835.2820, 9873.000
836.4160, 9921.000
837.5510, 10007.00
838.6860, 10082.00
839.8200, 10172.00
840.9540, 10251.00
842.0880, 10151.00
843.2220, 10243.00
844.3550, 10131.00
845.4890, 10327.00
846.6220, 10387.00
847.7550, 10320.00
848.8880, 10420.00
850.0210, 10468.00
851.1540, 10522.00
852.2860, 10538.00
853.4190, 10639.00
854.5510, 10604.00
855.6830, 10747.00
856.8150, 10908.00
857.9460, 10862.00
859.0780, 10882.00
860.2090, 10975.00
861.3410, 10801.00
862.4720, 10968.00
863.6020, 11040.00
864.7330, 11030.00
865.8640, 11282.00
866.9940, 11263.00
868.1240, 11156.00
869.2540, 11213.00
870.3840, 11387.00
871.5140, 11313.00
872.6440, 11452.00
873.7730, 11486.91
874.9020, 11543.74
876.0320, 11612.00
877.1600, 11760.00
878.2890, 11907.00
879.4180, 12021.82
880.5460, 12187.00
881.6750, 12271.00
882.8030, 12442.00
883.9310, 12517.00
885.0590, 12623.00
886.1860, 12707.90
887.3140, 12827.00
888.4410, 12808.00
889.5680, 12858.00
890.6950, 12840.00
891.8220, 12821.66
892.9490, 12785.00
894.0750, 12741.00
895.2020, 12679.00
896.3280, 12588.00
897.4540, 12514.00
898.5800, 12379.41
899.7050, 12182.00
900.8310, 12015.00
901.9560, 11860.00
903.0820, 11682.58
904.2070, 11482.00
905.3320, 11342.00
906.4560, 11267.00
907.5810, 11078.00
908.7050, 10948.00
909.8300, 10887.00
910.9540, 10894.00
912.0780, 10604.00
913.2010, 10691.00
914.3250, 10433.00
915.4480, 10407.00
916.5720, 10519.00
917.6950, 10397.00
918.8180, 10246.00
919.9410, 10231.00
921.0630, 10253.00
922.1860, 10107.00
923.3080, 10194.00
924.4300, 10126.00
925.5520, 10187.00
926.6740, 9878.000
927.7960, 10008.00
928.9170, 9941.000
930.0390, 9893.000
931.1600, 9984.000
932.2810, 9911.000
933.4020, 10007.00
934.5230, 9915.000
935.6430, 9956.000
936.7640, 9902.000
937.8840, 9827.000
939.0040, 9934.000
940.1240, 9861.000
941.2440, 9802.000
942.3630, 9783.000
943.4830, 9902.000
944.6020, 9846.000
945.7210, 9948.000
946.8400, 9893.000
947.9590, 10028.00
949.0770, 9891.000
950.1960, 9982.000
951.3140, 9973.000
952.4320, 10051.00
953.5500, 9953.000
954.6680, 9919.000
955.7860, 9841.000
956.9030, 9768.000
958.0210, 9794.236
959.1380, 9886.000
960.2550, 9870.000
961.3720, 9907.000
962.4890, 9994.000
963.6050, 9888.000
964.7220, 10032.00
965.8380, 10017.00
966.9540, 10011.00
968.0700, 10096.00
969.1860, 9956.000
970.3010, 9907.000
971.4170, 9939.000
972.5320, 9925.000
973.6470, 9867.000
974.7620, 9934.000
975.8770, 9987.000
976.9910, 10180.00
978.1060, 10145.00
979.2200, 9900.000
980.3340, 10073.00
981.4480, 10025.00
982.5620, 10032.00
983.6760, 10084.00
984.7890, 9953.000
985.9030, 10052.00
987.0160, 10010.00
988.1290, 9975.000
989.2420, 9991.000
990.3550, 9948.000
991.4670, 9926.000
992.5800, 9902.000
993.6920, 9933.000
994.8040, 9965.000
995.9160, 9855.000
997.0280, 9798.000
998.1390, 9828.000
999.2510, 9744.000
1000.362, 9716.000
1001.473, 9809.000
1002.584, 9711.000
1003.695, 9667.000
1004.805, 9790.000
1005.916, 9726.000
1007.026, 9637.000
1008.136, 9679.000
1009.246, 9803.000
1010.356, 9681.000
1011.466, 9748.000
1012.576, 9766.000
1013.685, 9652.000
1014.794, 9724.000
1015.903, 9804.000
1017.012, 9699.000
1018.121, 9862.000
1019.229, 9777.000
1020.338, 9806.000
1021.446, 9807.000
1022.554, 9916.000
1023.662, 9859.000
1024.770, 9800.000
1025.878, 9927.000
1026.985, 9879.000
1028.092, 9984.000
1029.200, 9880.000
1030.307, 9862.000
1031.413, 9912.000
1032.520, 9912.000
1033.627, 9900.000
1034.733, 9912.576
1035.839, 9963.000
1036.945, 9920.000
1038.051, 9862.000
1039.157, 9907.000
1040.262, 9836.257
1041.368, 9855.000
1042.473, 9763.000
1043.578, 9824.000
1044.683, 9807.000
1045.788, 9814.000
1046.893, 9753.000
1047.997, 9599.000
1049.101, 9745.000
1050.205, 9635.000
1051.309, 9806.000
1052.413, 9683.000
1053.517, 9719.000
1054.621, 9579.000
1055.724, 9521.000
1056.827, 9522.000
1057.930, 9553.000
1059.033, 9507.944
1060.136, 9530.619
1061.238, 9483.000
1062.341, 9531.000
1063.443, 9557.000
1064.545, 9545.000
1065.647, 9492.000
1066.749, 9541.000
1067.850, 9423.000
1068.952, 9437.000
1070.053, 9474.000
1071.154, 9588.000
1072.255, 9445.000
1073.356, 9443.000
1074.457, 9384.000
1075.557, 9344.000
1076.658, 9428.000
1077.758, 9230.000
1078.858, 9444.000
1079.958, 9425.000
1081.057, 9293.000
1082.157, 9327.000
1083.256, 9334.000
1084.356, 9253.000
1085.455, 9303.000
1086.554, 9254.458
1087.653, 9238.000
1088.751, 9237.000
1089.850, 9257.000
1090.948, 9323.000
1092.046, 9357.000
1093.144, 9285.000
1094.242, 9198.000
1095.340, 9294.000
1096.437, 9237.000
1097.534, 9273.000
1098.632, 9215.000
1099.729, 9269.000
1100.826, 9264.085
1101.922, 9417.000
1103.019, 9286.000
1104.115, 9371.000
1105.212, 9384.000
1106.308, 9246.000
1107.404, 9342.000
1108.499, 9331.000
1109.595, 9296.000
1110.691, 9434.000
1111.786, 9256.000
1112.881, 9285.000
1113.976, 9286.000
1115.071, 9260.000
1116.166, 9193.000
1117.260, 9353.000
1118.355, 9396.000
1119.449, 9332.000
1120.543, 9272.000
1121.637, 9336.000
1122.731, 9402.000
1123.824, 9239.000
1124.918, 9286.000
1126.011, 9373.000
1127.104, 9281.000
1128.197, 9302.000
1129.290, 9431.000
1130.382, 9278.000
1131.475, 9327.000
1132.567, 9350.000
1133.659, 9456.000
1134.751, 9319.000
1135.843, 9238.000
1136.935, 9402.000
1138.027, 9235.000
1139.118, 9224.000
1140.209, 9299.000
1141.300, 9274.000
1142.391, 9258.000
1143.482, 9228.000
1144.573, 9230.582
1145.663, 9208.000
1146.754, 9239.000
1147.844, 9296.000
1148.934, 9311.000
1150.024, 9285.000
1151.113, 9286.000
1152.203, 9272.023
1153.292, 9251.000
1154.381, 9271.000
1155.470, 9298.000
1156.559, 9368.000
1157.648, 9259.000
1158.737, 9371.000
1159.825, 9274.000
1160.913, 9300.000
1162.001, 9233.000
1163.089, 9372.000
1164.177, 9359.000
1165.265, 9437.000
1166.352, 9388.000
1167.440, 9374.000
1168.527, 9329.000
1169.614, 9304.000
1170.701, 9472.000
1171.788, 9397.000
1172.874, 9275.000
1173.961, 9490.000
1175.047, 9360.000
1176.133, 9492.000
1177.219, 9291.000
1178.305, 9496.000
1179.390, 9600.000
1180.476, 9433.000
1181.561, 9479.000
1182.646, 9534.000
1183.731, 9567.000
1184.816, 9581.000
1185.901, 9527.000
1186.985, 9585.000
1188.070, 9694.000
1189.154, 9463.000
1190.238, 9488.000
1191.322, 9559.000
1192.406, 9489.000
1193.489, 9529.000
1194.573, 9678.000
1195.656, 9466.000
1196.739, 9549.000
1197.822, 9518.000
1198.905, 9748.000
1199.988, 9635.000
1201.070, 9766.000
1202.153, 9596.000
1203.235, 9683.000
1204.317, 9755.000
1205.399, 9703.000
1206.481, 9584.000
1207.562, 9711.000
1208.644, 9541.000
1209.725, 9644.000
1210.806, 9714.000
1211.887, 9774.000
1212.968, 9714.000
1214.049, 9751.000
1215.129, 9708.000
1216.209, 9827.000
1217.290, 9653.000
1218.370, 9784.000
1219.450, 9702.000
1220.529, 9674.000
1221.609, 9790.000
1222.688, 9763.000
1223.768, 9671.000
1224.847, 9668.000
1225.926, 9663.574
1227.005, 9709.000
1228.083, 9702.000
1229.162, 9759.000
1230.240, 9787.000
1231.318, 9738.000
1232.396, 9722.000
1233.474, 9731.000
1234.552, 9687.000
1235.629, 9682.000
1236.707, 9663.000
1237.784, 9754.000
1238.861, 9819.000
1239.938, 9664.000
1241.015, 9707.000
1242.092, 9650.000
1243.168, 9702.000
1244.244, 9689.055
1245.321, 9633.000
1246.397, 9669.000
1247.473, 9638.000
1248.548, 9584.000
1249.624, 9676.000
1250.699, 9662.000
1251.775, 9728.000
1252.850, 9655.000
1253.925, 9777.000
1254.999, 9841.000
1256.074, 9645.000
1257.148, 9578.000
1258.223, 9751.000
1259.297, 9634.000
1260.371, 9695.000
1261.445, 9721.070
1262.519, 9577.000
1263.592, 9746.000
1264.666, 9765.000
1265.739, 9774.000
1266.812, 9850.331
1267.885, 9831.000
1268.958, 9863.000
1270.030, 9935.000
1271.103, 9844.000
1272.175, 9992.000
1273.247, 9872.000
1274.319, 9879.000
1275.391, 9970.000
1276.463, 9955.000
1277.535, 9925.000
1278.606, 10105.00
1279.677, 10009.00
1280.748, 10030.00
1281.819, 10013.00
1282.890, 10024.17
1283.961, 10229.00
1285.031, 10151.00
1286.102, 10202.00
1287.172, 10389.00
1288.242, 10245.00
1289.312, 10247.00
1290.381, 10262.00
1291.451, 10381.00
1292.520, 10403.00
1293.590, 10311.00
1294.659, 10285.00
1295.728, 10416.00
1296.797, 10578.00
1297.865, 10606.00
1298.934, 10467.00
1300.002, 10533.00
1301.070, 10555.00
1302.138, 10657.00
1303.206, 10760.00
1304.274, 10609.00
1305.341, 10574.00
1306.409, 10631.00
1307.476, 10781.00
1308.543, 10741.00
1309.610, 10685.00
1310.677, 10601.00
1311.744, 10718.00
1312.810, 10685.00
1313.877, 10699.00
1314.943, 10709.00
1316.009, 10685.00
1317.075, 10701.00
1318.140, 10710.00
1319.206, 10673.00
1320.272, 10656.00
1321.337, 10627.00
1322.402, 10661.00
1323.467, 10777.00
1324.532, 10691.00
1325.596, 10735.00
1326.661, 10781.00
1327.725, 10693.00
1328.790, 10599.00
1329.854, 10616.00
1330.918, 10556.98
1331.981, 10693.00
1333.045, 10554.00
1334.108, 10627.00
1335.172, 10693.00
1336.235, 10597.00
1337.298, 10569.00
1338.361, 10600.00
1339.423, 10530.00
1340.486, 10596.00
1341.548, 10471.00
1342.611, 10523.00
1343.673, 10559.00
1344.735, 10459.00
1345.796, 10413.00
1346.858, 10452.00
1347.919, 10505.00
1348.981, 10481.00
1350.042, 10347.00
1351.103, 10500.00
1352.164, 10292.00
1353.225, 10296.00
1354.285, 10308.00
1355.346, 10282.00
1356.406, 10234.00
1357.466, 10257.00
1358.526, 10300.00
1359.586, 10300.00
1360.645, 10117.00
1361.705, 10092.00
1362.764, 10208.00
1363.823, 10223.00
1364.882, 9988.000
1365.941, 10096.00
1367.000, 10063.00
1368.059, 10053.00
1369.117, 10162.00
1370.175, 10091.00
1371.233, 10011.00
1372.291, 10018.00
1373.349, 9977.000
1374.407, 10129.00
1375.464, 9871.000
1376.522, 9958.000
1377.579, 10012.00
1378.636, 9838.000
1379.693, 9936.000
1380.750, 9820.000
1381.806, 9876.000
1382.863, 9738.000
1383.919, 9792.000
1384.975, 9833.000
1386.031, 9739.000
1387.087, 9919.000
1388.143, 9606.000
1389.199, 9758.000
1390.254, 9638.000
1391.309, 9668.000
1392.364, 9713.000
1393.419, 9494.000
1394.474, 9675.000
1395.529, 9662.000
1396.583, 9671.000
1397.638, 9576.000
1398.692, 9658.000
1399.746, 9533.000
1400.800, 9635.000
1401.853, 9450.000
1402.907, 9462.000
1403.960, 9578.000
1405.014, 9512.000
1406.067, 9469.000
1407.120, 9579.000
1408.173, 9500.000
1409.225, 9438.000
1410.278, 9457.000
1411.330, 9422.000
1412.383, 9433.000
1413.435, 9368.000
1414.487, 9461.000
1415.538, 9423.000
1416.590, 9489.000
1417.641, 9484.000
1418.693, 9434.000
1419.744, 9370.000
1420.795, 9302.000
1421.846, 9450.000
1422.897, 9375.000
1423.947, 9414.000
1424.998, 9424.000
1426.048, 9416.000
1427.098, 9386.000
1428.148, 9355.000
1429.198, 9304.000
1430.247, 9450.000
1431.297, 9354.000
1432.346, 9413.000
1433.396, 9315.000
1434.445, 9337.000
1435.494, 9443.000
1436.542, 9399.000
1437.591, 9438.000
1438.639, 9411.000
1439.688, 9425.735
1440.736, 9416.301
1441.784, 9453.000
1442.832, 9395.000
1443.880, 9397.000
1444.927, 9401.000
1445.975, 9285.000
1447.022, 9334.000
1448.069, 9427.000
1449.116, 9401.000
1450.163, 9331.000
1451.209, 9338.000
1452.256, 9394.000
1453.302, 9360.000
1454.348, 9439.000
1455.394, 9462.708
1456.440, 9488.112
1457.486, 9531.450
1458.532, 9550.524
1459.577, 9546.649
1460.623, 9451.036
1461.668, 9473.883
1462.713, 9449.260
1463.758, 9422.690
1464.802, 9462.220
1465.847, 9440.000
1466.891, 9411.000
1467.936, 9481.000
1468.980, 9475.418
1470.024, 9392.000
1471.067, 9446.000
1472.111, 9528.000
1473.155, 9412.000
1474.198, 9467.000
1475.241, 9524.000
1476.284, 9483.121
1477.327, 9512.562
1478.370, 9511.000
1479.413, 9452.000
1480.455, 9500.000
1481.497, 9386.000
1482.540, 9470.000
1483.582, 9619.000
1484.624, 9556.000
1485.665, 9503.000
1486.707, 9533.000
1487.748, 9480.000
1488.790, 9502.251
1489.831, 9504.860
1490.872, 9530.000
1491.912, 9581.000
1492.953, 9579.000
1493.994, 9737.000
1495.034, 9638.000
1496.074, 9666.020
1497.114, 9700.000
1498.154, 9618.000
1499.194, 9665.000
1500.234, 9674.000
1501.273, 9759.000
1502.313, 9678.000
1503.352, 9604.000
1504.391, 9679.000
1505.430, 9702.000
1506.468, 9658.000
1507.507, 9630.000
1508.545, 9713.000
1509.584, 9634.000
1510.622, 9755.000
1511.660, 9765.000
1512.698, 9713.000
1513.735, 9788.000
1514.773, 9725.000
1515.810, 9697.000
1516.848, 9792.000
1517.885, 9749.000
1518.922, 9838.000
1519.958, 9863.000
1520.995, 9858.000
1522.032, 9976.000
1523.068, 10004.00
1524.104, 9910.000
1525.140, 9766.000
1526.176, 9845.855
1527.212, 9856.000
1528.248, 9966.000
1529.283, 9837.000
1530.318, 9957.000
1531.353, 10165.00
1532.389, 10002.00
1533.423, 9942.000
1534.458, 9999.000
1535.493, 10118.00
1536.527, 10041.00
1537.561, 10069.00
1538.596, 9991.000
1539.630, 10145.00
1540.663, 10058.00
1541.697, 9922.000
1542.731, 10119.00
1543.764, 10029.00
1544.797, 10113.00
1545.830, 10137.00
1546.863, 10093.00
1547.896, 10278.00
1548.929, 10198.00
##END=



