##NAMES=Aenigmatite
##RRUFFID=R061088
##IDEAL CHEMISTRY=Na_4_(Fe^2+^_10_Ti^4+^_2_)O_4_[Si_12_O_36_]
##LOCALITY=Naujakasik, Greenland
##OWNER=RRUFF
##SOURCE=Michael Scott
##DESCRIPTION=Black prismatic crystals
##STATUS=The identification of this mineral has been confirmed by X-ray diffraction and chemical analysis
##URL=rruff.info/R061088
##MEASURED CHEMISTRY=(Na_1.72_Ca_0.28_)_Σ=2_(Fe^2+^_4.90_Mn_0.08_Mg_0.02_)_Σ=5_(Ti_0.85_Al_0.14_Fe^3+^_0.01_)_Σ=1_(Si_5.87_Al_0.13_)_Σ=6_O_20_
##PIN_ID=L01392
##ORIENTATION=Laser parallel to (1 0 1). Fiducial mark perpendicular to laser is parallel to b [0 1 0]
132.6530, 14514.00
133.8930, 14348.00
135.1330, 14697.00
136.3730, 14712.00
137.6120, 15193.00
138.8510, 15239.45
140.0900, 15291.57
141.3290, 15395.00
142.5680, 15327.00
143.8060, 15245.00
145.0440, 15365.00
146.2820, 15702.00
147.5200, 16044.00
148.7570, 15716.00
149.9950, 15714.00
151.2320, 16481.00
152.4690, 16587.00
153.7060, 16243.00
154.9420, 16412.00
156.1790, 15986.00
157.4150, 15623.00
158.6510, 15417.00
159.8870, 15251.00
161.1220, 15265.00
162.3570, 15374.00
163.5930, 15456.00
164.8280, 15592.00
166.0620, 15357.00
167.2970, 15155.00
168.5310, 14871.00
169.7650, 14997.00
170.9990, 14977.00
172.2330, 14603.00
173.4670, 14117.00
174.7000, 14079.00
175.9330, 13919.00
177.1660, 13887.00
178.3990, 14031.00
179.6310, 13893.00
180.8640, 13718.00
182.0960, 13899.00
183.3280, 13801.00
184.5600, 13863.00
185.7910, 14185.00
187.0220, 14286.00
188.2540, 14219.00
189.4840, 14242.00
190.7150, 14406.00
191.9460, 14462.00
193.1760, 14637.00
194.4060, 14669.00
195.6360, 14711.00
196.8660, 14676.00
198.0960, 14788.00
199.3250, 14960.00
200.5540, 15548.00
201.7830, 15682.00
203.0120, 15889.00
204.2400, 15259.00
205.4690, 14695.00
206.6970, 14012.00
207.9250, 13751.00
209.1530, 13841.00
210.3800, 13754.00
211.6080, 13987.00
212.8350, 13995.00
214.0620, 14134.00
215.2880, 13837.00
216.5150, 13282.00
217.7410, 13306.00
218.9680, 12906.00
220.1940, 12522.00
221.4190, 12275.00
222.6450, 11983.87
223.8700, 11879.00
225.0960, 11638.00
226.3210, 11534.00
227.5450, 11587.00
228.7700, 11399.00
229.9940, 11321.00
231.2190, 11229.00
232.4430, 11204.00
233.6660, 11184.00
234.8900, 11103.00
236.1140, 11100.00
237.3370, 11025.00
238.5600, 11000.00
239.7830, 10878.00
241.0050, 10904.00
242.2280, 10880.00
243.4500, 10979.00
244.6720, 10855.00
245.8940, 11019.00
247.1160, 10799.00
248.3370, 10934.00
249.5580, 10782.43
250.7790, 10991.78
252.0000, 11121.33
253.2210, 11175.07
254.4410, 10943.10
255.6620, 11066.89
256.8820, 11040.06
258.1020, 11001.55
259.3210, 11159.00
260.5410, 10939.05
261.7600, 11081.84
262.9790, 11071.82
264.1980, 11123.38
265.4170, 11023.45
266.6360, 10962.82
267.8540, 11042.30
269.0720, 11035.33
270.2900, 10807.00
271.5080, 10799.00
272.7260, 10833.00
273.9430, 10998.00
275.1600, 11005.00
276.3770, 11242.00
277.5940, 11253.00
278.8100, 11284.00
280.0270, 11328.00
281.2430, 11324.00
282.4590, 11409.00
283.6750, 11345.00
284.8910, 11522.00
286.1060, 11781.00
287.3210, 11701.01
288.5360, 11748.00
289.7510, 11749.00
290.9660, 11858.00
292.1800, 12002.00
293.3950, 12065.76
294.6090, 12203.02
295.8230, 12244.00
297.0360, 12439.00
298.2500, 12459.00
299.4630, 12567.00
300.6760, 12633.00
301.8890, 12665.00
303.1020, 12722.00
304.3150, 12800.00
305.5270, 12678.00
306.7390, 12551.00
307.9510, 12601.00
309.1630, 12505.00
310.3750, 12588.00
311.5860, 12484.00
312.7970, 12447.00
314.0080, 12511.00
315.2190, 12286.00
316.4300, 12385.00
317.6400, 12213.00
318.8510, 12200.00
320.0610, 12132.00
321.2710, 11806.00
322.4800, 11541.00
323.6900, 11485.00
324.8990, 11567.00
326.1080, 11330.00
327.3170, 11206.00
328.5260, 11260.00
329.7340, 11011.00
330.9430, 10879.00
332.1510, 10697.00
333.3590, 10511.00
334.5670, 10349.00
335.7740, 10219.75
336.9820, 10125.49
338.1890, 10021.00
339.3960, 9996.000
340.6030, 9969.000
341.8100, 9911.000
343.0160, 9892.000
344.2220, 9924.000
345.4280, 9947.000
346.6340, 9766.000
347.8400, 9927.000
349.0460, 9874.000
350.2510, 10014.00
351.4560, 10113.00
352.6610, 10109.00
353.8660, 10142.00
355.0700, 10313.00
356.2750, 10372.00
357.4790, 10500.00
358.6830, 10604.62
359.8870, 10621.44
361.0910, 10712.00
362.2940, 10735.00
363.4970, 10770.95
364.7000, 10803.00
365.9030, 10813.00
367.1060, 10682.00
368.3080, 10657.00
369.5110, 10560.00
370.7130, 10524.00
371.9150, 10456.00
373.1170, 10385.70
374.3180, 10288.00
375.5200, 10163.05
376.7210, 10302.28
377.9220, 10367.45
379.1230, 10362.55
380.3230, 10077.73
381.5240, 10154.37
382.7240, 10086.17
383.9240, 10012.04
385.1240, 10139.58
386.3240, 9895.482
387.5230, 10222.00
388.7230, 10155.83
389.9220, 10100.00
391.1210, 10167.00
392.3200, 10297.00
393.5180, 10196.00
394.7170, 10288.00
395.9150, 10353.00
397.1130, 10412.00
398.3110, 10425.00
399.5080, 10543.00
400.7060, 10576.00
401.9030, 10631.00
403.1000, 10579.42
404.2970, 10654.70
405.4940, 10678.57
406.6910, 10652.08
407.8870, 10519.33
409.0830, 10611.00
410.2790, 10366.00
411.4750, 10480.00
412.6710, 10446.00
413.8660, 10459.00
415.0610, 10408.00
416.2560, 10308.00
417.4510, 10516.00
418.6460, 10481.00
419.8410, 10652.00
421.0350, 10658.00
422.2290, 10761.00
423.4230, 10825.56
424.6170, 10871.73
425.8100, 10942.00
427.0040, 11112.00
428.1970, 11203.00
429.3900, 11302.73
430.5830, 11397.07
431.7760, 11389.00
432.9680, 11500.00
434.1610, 11323.00
435.3530, 11267.00
436.5450, 11284.00
437.7360, 11120.00
438.9280, 11223.00
440.1190, 11023.00
441.3110, 11022.00
442.5020, 10994.00
443.6930, 10907.00
444.8830, 10879.00
446.0740, 10809.00
447.2640, 10786.00
448.4540, 10719.23
449.6440, 10675.00
450.8340, 10588.00
452.0240, 10560.00
453.2130, 10486.00
454.4020, 10599.00
455.5910, 10431.00
456.7800, 10547.00
457.9690, 10434.00
459.1570, 10453.00
460.3460, 10380.00
461.5340, 10425.00
462.7220, 10432.00
463.9090, 10426.00
465.0970, 10161.00
466.2840, 10278.00
467.4720, 10264.00
468.6590, 10215.00
469.8460, 10300.00
471.0320, 10215.00
472.2190, 10297.00
473.4050, 10390.00
474.5910, 10405.00
475.7770, 10461.52
476.9630, 10480.26
478.1490, 10500.00
479.3340, 10524.00
480.5190, 10511.00
481.7040, 10588.00
482.8890, 10655.00
484.0740, 10770.00
485.2580, 10773.12
486.4430, 10973.00
487.6270, 10830.00
488.8110, 10819.00
489.9950, 10927.00
491.1780, 10956.00
492.3620, 10905.00
493.5450, 11066.00
494.7280, 11096.00
495.9110, 11152.56
497.0940, 11213.00
498.2760, 11275.00
499.4590, 11267.62
500.6410, 11304.17
501.8230, 11276.00
503.0050, 11039.00
504.1860, 10953.00
505.3680, 10805.32
506.5490, 10688.25
507.7300, 10546.00
508.9110, 10553.00
510.0920, 10524.15
511.2730, 10572.77
512.4530, 10511.00
513.6330, 10582.00
514.8130, 10693.00
515.9930, 10643.90
517.1730, 10741.00
518.3520, 10810.00
519.5320, 10839.00
520.7110, 10866.00
521.8900, 11021.00
523.0690, 11001.00
524.2470, 11061.00
525.4260, 11059.00
526.6040, 11247.00
527.7820, 11260.00
528.9600, 11285.00
530.1380, 11387.00
531.3150, 11397.00
532.4930, 11448.00
533.6700, 11456.46
534.8470, 11298.00
536.0240, 11419.00
537.2000, 11305.00
538.3770, 11228.00
539.5530, 11257.00
540.7290, 11215.00
541.9050, 11269.00
543.0810, 11201.00
544.2570, 11236.00
545.4320, 11023.00
546.6080, 10993.00
547.7830, 11105.00
548.9580, 10923.00
550.1320, 10994.00
551.3070, 11130.00
552.4810, 10974.00
553.6550, 10933.00
554.8300, 10829.00
556.0030, 10959.00
557.1770, 10968.00
558.3510, 10896.00
559.5240, 11019.00
560.6970, 10783.00
561.8700, 10864.00
563.0430, 10879.00
564.2160, 10885.00
565.3880, 10819.00
566.5600, 10800.97
567.7320, 10727.00
568.9040, 10653.00
570.0760, 10634.00
571.2480, 10463.00
572.4190, 10572.62
573.5900, 10355.70
574.7610, 10388.45
575.9320, 10350.00
577.1030, 10357.00
578.2740, 10393.38
579.4440, 10332.00
580.6140, 10311.00
581.7840, 10332.00
582.9540, 10202.00
584.1240, 10177.00
585.2930, 10317.00
586.4630, 10224.00
587.6320, 10378.00
588.8010, 10387.00
589.9700, 10379.00
591.1380, 10574.00
592.3070, 10671.00
593.4750, 10808.00
594.6430, 10896.00
595.8110, 11145.00
596.9790, 11362.00
598.1460, 11624.00
599.3140, 11832.00
600.4810, 11969.00
601.6480, 12175.00
602.8150, 12462.00
603.9820, 12538.00
605.1480, 12718.00
606.3150, 12989.00
607.4810, 12926.00
608.6470, 13023.00
609.8130, 13143.00
610.9790, 13005.00
612.1440, 12996.56
613.3100, 13102.00
614.4750, 12791.00
615.6400, 12894.00
616.8050, 12851.00
617.9690, 12761.00
619.1340, 12873.00
620.2980, 12716.00
621.4620, 12923.00
622.6260, 12941.00
623.7900, 13282.00
624.9540, 13329.00
626.1170, 13829.00
627.2810, 14255.00
628.4440, 14706.00
629.6070, 15214.00
630.7690, 15919.00
631.9320, 16719.00
633.0950, 17579.00
634.2570, 18520.00
635.4190, 19609.00
636.5810, 20923.00
637.7430, 22013.00
638.9040, 23467.00
640.0660, 25165.06
641.2270, 26029.91
642.3880, 26780.52
643.5490, 26644.00
644.7100, 27202.00
645.8700, 27452.00
647.0310, 27118.00
648.1910, 26993.00
649.3510, 26421.00
650.5110, 25448.00
651.6710, 24795.00
652.8300, 23900.00
653.9900, 22918.00
655.1490, 22078.00
656.3080, 21282.00
657.4670, 20278.00
658.6250, 19695.00
659.7840, 18910.00
660.9420, 18381.00
662.1010, 17729.00
663.2590, 17564.00
664.4170, 17251.00
665.5740, 16944.00
666.7320, 16978.00
667.8890, 16858.00
669.0460, 16923.00
670.2030, 17153.00
671.3600, 17293.00
672.5170, 17626.00
673.6740, 17727.69
674.8300, 17825.00
675.9860, 17871.00
677.1420, 18064.00
678.2980, 17855.00
679.4540, 17923.00
680.6090, 17552.00
681.7650, 17574.00
682.9200, 17439.00
684.0750, 17269.00
685.2300, 17251.00
686.3840, 17044.00
687.5390, 16970.00
688.6930, 16623.00
689.8470, 16279.00
691.0010, 15667.00
692.1550, 15576.00
693.3090, 14982.00
694.4620, 14314.00
695.6160, 13955.00
696.7690, 13528.00
697.9220, 13164.00
699.0750, 12776.00
700.2280, 12476.14
701.3800, 12138.00
702.5320, 11971.00
703.6850, 11676.00
704.8370, 11538.00
705.9880, 11478.00
707.1400, 11331.00
708.2920, 11182.96
709.4430, 11172.69
710.5940, 11142.67
711.7450, 11093.96
712.8960, 10970.60
714.0470, 10943.64
715.1970, 10878.09
716.3480, 10810.91
717.4980, 10797.57
718.6480, 10685.12
719.7980, 10670.92
720.9470, 10617.54
722.0970, 10582.07
723.2460, 10507.78
724.3960, 10445.45
725.5450, 10422.04
726.6940, 10510.00
727.8420, 10510.00
728.9910, 10472.00
730.1390, 10608.00
731.2870, 10603.00
732.4350, 10631.00
733.5830, 10637.35
734.7310, 10634.00
735.8790, 10583.00
737.0260, 10532.00
738.1730, 10502.00
739.3200, 10415.18
740.4670, 10359.00
741.6140, 10221.00
742.7610, 10184.00
743.9070, 10033.00
745.0530, 9879.000
746.1990, 9831.000
747.3450, 9851.000
748.4910, 9783.000
749.6370, 9610.000
750.7820, 9707.000
751.9270, 9632.000
753.0720, 9768.000
754.2170, 9826.000
755.3620, 9829.000
756.5070, 9775.000
757.6510, 9695.000
758.7950, 9775.000
759.9400, 9752.788
761.0840, 9887.000
762.2270, 9837.000
763.3710, 9911.000
764.5140, 9984.000
765.6580, 9938.000
766.8010, 9941.000
767.9440, 9987.771
769.0870, 9901.000
770.2290, 10061.00
771.3720, 9754.000
772.5140, 9760.000
773.6560, 9832.000
774.7990, 9762.000
775.9400, 9664.000
777.0820, 9806.000
778.2240, 9638.000
779.3650, 9771.000
780.5060, 9805.000
781.6470, 9800.000
782.7880, 9722.000
783.9290, 9653.000
785.0690, 9688.000
786.2100, 9715.000
787.3500, 9776.000
788.4900, 9726.000
789.6300, 9829.000
790.7700, 9690.000
791.9090, 9733.000
793.0490, 9692.000
794.1880, 9775.000
795.3270, 9681.000
796.4660, 9784.000
797.6050, 9774.000
798.7440, 9814.000
799.8820, 9775.000
801.0200, 9780.000
802.1590, 9750.000
803.2970, 9803.000
804.4340, 9840.000
805.5720, 9831.000
806.7100, 9874.000
807.8470, 9902.000
808.9840, 9876.000
810.1210, 9955.000
811.2580, 10056.00
812.3950, 10052.00
813.5310, 9982.000
814.6680, 10018.00
815.8040, 9941.000
816.9400, 10137.00
818.0760, 10170.00
819.2120, 10091.00
820.3470, 10234.00
821.4830, 10203.00
822.6180, 10349.00
823.7530, 10415.00
824.8880, 10401.00
826.0230, 10381.00
827.1580, 10419.00
828.2920, 10578.00
829.4270, 10501.00
830.5610, 10582.00
831.6950, 10667.00
832.8290, 10574.00
833.9620, 10640.00
835.0960, 10721.00
836.2290, 10762.00
837.3620, 10669.00
838.4950, 10744.00
839.6280, 10687.00
840.7610, 10802.00
841.8940, 10839.00
843.0260, 10686.00
844.1580, 10757.00
845.2910, 10870.00
846.4230, 11023.00
847.5540, 11054.00
848.6860, 11133.00
849.8170, 11231.00
850.9490, 11539.00
852.0800, 11523.00
853.2110, 11673.00
854.3420, 11779.00
855.4730, 11806.00
856.6030, 11984.00
857.7340, 12008.00
858.8640, 12056.00
859.9940, 12115.15
861.1240, 12074.86
862.2540, 12109.00
863.3830, 11986.00
864.5130, 11867.00
865.6420, 11794.00
866.7710, 11765.00
867.9000, 11741.38
869.0290, 11755.79
870.1570, 11814.00
871.2860, 11831.00
872.4140, 11962.00
873.5430, 12012.00
874.6710, 12225.00
875.7980, 12232.00
876.9260, 12448.00
878.0540, 12651.00
879.1810, 12773.00
880.3080, 12928.00
881.4360, 13259.00
882.5630, 13689.00
883.6890, 13816.40
884.8160, 13922.00
885.9420, 14281.00
887.0690, 14398.00
888.1950, 14775.00
889.3210, 14920.00
890.4470, 15025.73
891.5730, 15211.00
892.6980, 15106.00
893.8240, 15004.00
894.9490, 14892.00
896.0740, 14723.00
897.1990, 14475.00
898.3240, 14222.00
899.4480, 13977.00
900.5730, 13759.00
901.6970, 13392.00
902.8210, 13259.00
903.9450, 12959.00
905.0690, 12909.00
906.1930, 12786.00
907.3160, 12495.00
908.4400, 12507.00
909.5630, 12361.00
910.6860, 12319.00
911.8090, 12284.00
912.9320, 12338.00
914.0550, 12172.00
915.1770, 12214.00
916.2990, 12171.00
917.4210, 12147.00
918.5440, 12257.00
919.6650, 12181.86
920.7870, 12237.00
921.9090, 12051.00
923.0300, 12175.00
924.1510, 11952.00
925.2720, 12003.00
926.3930, 12036.00
927.5140, 11904.00
928.6350, 11997.00
929.7550, 11743.00
930.8760, 11833.00
931.9960, 11950.00
933.1160, 11663.00
934.2360, 11641.00
935.3550, 11748.00
936.4750, 11837.00
937.5940, 11816.00
938.7140, 11760.00
939.8330, 11805.00
940.9520, 11717.00
942.0710, 11655.00
943.1890, 11734.00
944.3080, 11781.00
945.4260, 11835.00
946.5440, 12090.00
947.6620, 12155.00
948.7800, 12248.00
949.8980, 12026.00
951.0160, 12163.49
952.1330, 12445.00
953.2500, 12223.00
954.3680, 12336.00
955.4850, 12346.00
956.6010, 12320.00
957.7180, 12412.00
958.8350, 12422.56
959.9510, 12485.00
961.0670, 12431.00
962.1830, 12364.00
963.2990, 12176.00
964.4150, 12205.00
965.5310, 12134.00
966.6460, 12331.00
967.7620, 12404.00
968.8770, 12326.36
969.9920, 12374.00
971.1070, 12242.00
972.2210, 12511.00
973.3360, 12612.00
974.4500, 12587.00
975.5650, 12928.00
976.6790, 12973.00
977.7930, 13171.00
978.9070, 13506.00
980.0200, 13680.00
981.1340, 14080.00
982.2470, 14258.00
983.3610, 14526.00
984.4740, 14685.00
985.5870, 14686.00
986.6990, 14953.00
987.8120, 14917.00
988.9250, 14521.00
990.0370, 14473.00
991.1490, 14360.00
992.2610, 13954.00
993.3730, 13778.00
994.4850, 13441.00
995.5960, 13037.00
996.7080, 12917.00
997.8190, 12712.00
998.9300, 12450.00
1000.041, 12174.00
1001.152, 12163.00
1002.263, 12211.00
1003.373, 11822.00
1004.484, 11898.00
1005.594, 11832.00
1006.704, 11899.00
1007.814, 11834.00
1008.924, 11743.00
1010.034, 11923.00
1011.143, 12075.00
1012.253, 11899.00
1013.362, 12111.00
1014.471, 12073.00
1015.580, 12138.00
1016.689, 12087.00
1017.797, 12234.00
1018.906, 12323.00
1020.014, 12296.00
1021.122, 12156.00
1022.230, 12202.00
1023.338, 12313.00
1024.446, 12502.00
1025.554, 12499.00
1026.661, 12619.24
1027.768, 12489.00
1028.875, 12736.00
1029.983, 12866.00
1031.089, 12895.00
1032.196, 13068.00
1033.303, 13101.00
1034.409, 13237.00
1035.515, 13095.00
1036.622, 13154.00
1037.728, 13175.00
1038.833, 13027.00
1039.939, 13017.00
1041.045, 12802.00
1042.150, 12747.27
1043.255, 12669.24
1044.360, 12585.64
1045.465, 12497.54
1046.570, 12348.96
1047.675, 12310.96
1048.779, 12248.55
1049.884, 12198.69
1050.988, 12008.00
1052.092, 12020.00
1053.196, 11945.00
1054.300, 11606.00
1055.404, 11554.00
1056.507, 11639.00
1057.610, 11404.00
1058.714, 11448.00
1059.817, 11387.00
1060.920, 11393.00
1062.022, 11258.00
1063.125, 11424.00
1064.228, 11106.00
1065.330, 11417.00
1066.432, 11173.76
1067.534, 11190.00
1068.636, 10901.00
1069.738, 11025.00
1070.840, 11024.00
1071.941, 11076.00
1073.042, 11018.29
1074.144, 10910.00
1075.245, 10817.00
1076.346, 10805.00
1077.446, 10652.00
1078.547, 10734.00
1079.647, 10754.00
1080.748, 10853.00
1081.848, 10784.00
1082.948, 10790.23
1084.048, 10740.00
1085.148, 10702.00
1086.247, 10625.00
1087.347, 10566.00
1088.446, 10586.00
1089.545, 10709.00
1090.644, 10681.00
1091.743, 10661.00
1092.842, 10529.00
1093.940, 10498.00
1095.039, 10525.00
1096.137, 10533.00
1097.235, 10484.00
1098.333, 10649.00
1099.431, 10441.00
1100.529, 10474.00
1101.627, 10564.00
1102.724, 10461.00
1103.822, 10391.00
1104.919, 10485.00
1106.016, 10409.00
1107.113, 10396.00
1108.209, 10387.00
1109.306, 10471.00
1110.402, 10350.00
1111.499, 10455.00
1112.595, 10258.00
1113.691, 10287.00
1114.787, 10372.00
1115.883, 10595.00
1116.978, 10599.00
1118.074, 10756.00
1119.169, 10793.00
1120.264, 10844.00
1121.359, 10899.00
1122.454, 10836.00
1123.549, 10777.00
1124.644, 10720.00
1125.738, 10560.00
1126.832, 10467.00
1127.927, 10363.00
1129.021, 10289.00
1130.115, 10329.00
1131.208, 10238.00
1132.302, 10185.00
1133.396, 10131.00
1134.489, 10361.00
1135.582, 10185.00
1136.675, 10237.00
1137.768, 10203.00
1138.861, 10154.00
1139.954, 10156.00
1141.046, 10161.00
1142.138, 10180.00
1143.231, 10140.00
1144.323, 10211.00
1145.415, 10159.00
1146.507, 10143.00
1147.598, 10153.00
1148.690, 10045.00
1149.781, 10161.00
1150.872, 10159.00
1151.964, 10255.00
1153.054, 10141.00
1154.145, 10127.00
1155.236, 10152.00
1156.327, 10190.00
1157.417, 10205.41
1158.507, 10235.00
1159.597, 10253.00
1160.687, 10277.00
1161.777, 10264.93
1162.867, 10251.54
1163.956, 10159.00
1165.046, 10207.00
1166.135, 10183.00
1167.224, 10192.00
1168.313, 10193.00
1169.402, 10274.00
1170.491, 10252.00
1171.580, 10190.00
1172.668, 10181.00
1173.756, 10317.00
1174.845, 10236.00
1175.933, 10309.00
1177.020, 10248.00
1178.108, 10287.00
1179.196, 10244.76
1180.283, 10301.81
1181.371, 10339.12
1182.458, 10357.73
1183.545, 10301.69
1184.632, 10342.05
1185.719, 10343.78
1186.805, 10343.91
1187.892, 10397.84
1188.978, 10352.65
1190.065, 10369.00
1191.151, 10399.00
1192.237, 10420.00
1193.323, 10322.00
1194.408, 10324.00
1195.494, 10329.12
1196.579, 10405.58
1197.664, 10453.34
1198.750, 10473.83
1199.835, 10390.71
1200.919, 10437.26
1202.004, 10429.34
1203.089, 10417.47
1204.173, 10477.14
1205.258, 10399.89
1206.342, 10454.83
1207.426, 10454.49
1208.510, 10414.00
1209.594, 10369.00
1210.677, 10466.00
1211.761, 10347.00
1212.844, 10429.00
1213.927, 10447.00
1215.010, 10456.00
1216.093, 10323.00
1217.176, 10353.00
1218.259, 10364.00
1219.341, 10472.00
1220.424, 10343.00
1221.506, 10465.00
1222.588, 10333.00
1223.670, 10419.00
1224.752, 10313.00
1225.834, 10259.00
1226.915, 10299.00
1227.997, 10236.00
1229.078, 10365.00
1230.159, 10294.00
1231.240, 10250.00
1232.321, 10342.00
1233.402, 10285.00
1234.483, 10317.00
1235.563, 10395.00
1236.644, 10284.00
1237.724, 10295.00
1238.804, 10404.00
1239.884, 10208.00
1240.964, 10229.00
1242.044, 10403.00
1243.123, 10251.00
1244.203, 10264.00
1245.282, 10265.00
1246.361, 10329.00
1247.440, 10313.04
1248.519, 10291.56
1249.598, 10378.00
1250.676, 10244.00
1251.755, 10399.00
1252.833, 10465.00
1253.911, 10409.00
1254.989, 10452.00
1256.067, 10349.00
1257.145, 10543.00
1258.223, 10538.00
1259.300, 10498.00
1260.378, 10485.00
1261.455, 10479.00
1262.532, 10475.39
1263.609, 10604.00
1264.686, 10540.00
1265.763, 10628.00
1266.840, 10766.00
1267.916, 10762.00
1268.992, 10839.46
1270.069, 10890.43
1271.145, 10905.00
1272.221, 10975.00
1273.296, 11005.91
1274.372, 11053.97
1275.448, 11058.00
1276.523, 11048.00
1277.598, 11094.00
1278.673, 11080.00
1279.749, 11184.00
1280.823, 11268.00
1281.898, 11231.00
1282.973, 11296.00
1284.047, 11310.00
1285.122, 11353.00
1286.196, 11295.00
1287.270, 11410.00
1288.344, 11552.00
1289.418, 11427.73
1290.491, 11516.91
1291.565, 11579.17
1292.638, 11615.94
1293.712, 11550.93
1294.785, 11617.35
1295.858, 11631.08
1296.931, 11642.66
1298.003, 11727.55
1299.076, 11677.32
1300.149, 11761.07
1301.221, 11719.00
1302.293, 11691.00
1303.365, 11645.00
1304.437, 11679.00
1305.509, 11668.00
1306.581, 11684.00
1307.652, 11633.00
1308.724, 11655.00
1309.795, 11654.00
1310.866, 11553.00
1311.937, 11808.00
1313.008, 11581.00
1314.079, 11678.00
1315.150, 11660.00
1316.220, 11564.00
1317.291, 11544.00
1318.361, 11544.42
1319.431, 11682.00
1320.501, 11538.00
1321.571, 11602.00
1322.641, 11526.00
1323.710, 11702.00
1324.780, 11516.00
1325.849, 11610.00
1326.918, 11463.00
1327.987, 11565.00
1329.056, 11613.00
1330.125, 11480.00
1331.194, 11489.00
1332.263, 11468.00
1333.331, 11456.00
1334.399, 11456.00
1335.467, 11472.00
1336.535, 11495.00
1337.603, 11362.00
1338.671, 11539.00
1339.739, 11312.00
1340.806, 11327.00
1341.874, 11400.00
1342.941, 11318.00
1344.008, 11277.00
1345.075, 11345.00
1346.142, 11260.00
1347.209, 11246.00
1348.275, 11116.00
1349.342, 11144.00
1350.408, 11043.00
1351.475, 10940.00
1352.541, 11024.00
1353.607, 10971.00
1354.673, 10969.00
1355.738, 11007.00
1356.804, 10956.00
1357.869, 10981.25
1358.935, 10947.69
1360.000, 10966.00
1361.065, 10894.00
1362.130, 10830.00
1363.195, 10826.00
1364.259, 10671.00
1365.324, 10662.14
1366.388, 10647.00
1367.453, 10616.00
1368.517, 10673.00
1369.581, 10754.00
1370.645, 10703.00
1371.709, 10606.00
1372.772, 10642.00
1373.836, 10498.00
1374.899, 10617.00
1375.963, 10373.00
1377.026, 10492.00
1378.089, 10459.00
1379.152, 10518.00
1380.214, 10308.00
1381.277, 10426.00
1382.340, 10356.00
1383.402, 10377.92
1384.464, 10401.00
1385.526, 10443.00
1386.588, 10436.00
1387.650, 10391.00
1388.712, 10339.00
1389.774, 10463.00
1390.835, 10275.00
1391.896, 10383.00
1392.958, 10348.33
1394.019, 10199.00
1395.080, 10325.00
1396.141, 10279.00
1397.201, 10256.00
1398.262, 10268.00
1399.323, 10249.00
1400.383, 10275.00
1401.443, 10143.00
1402.503, 10306.00
1403.563, 10164.00
1404.623, 10237.00
1405.683, 10071.00
1406.742, 10206.00
1407.802, 10216.00
1408.861, 10147.00
1409.920, 10265.00
1410.980, 10175.00
1412.039, 10281.00
1413.097, 10275.00
1414.156, 10212.00
1415.215, 10190.00
1416.273, 10122.00
1417.331, 10241.24
1418.390, 10177.57
1419.448, 10200.62
1420.506, 10178.00
1421.564, 10153.00
1422.621, 10104.30
1423.679, 10161.90
1424.736, 10192.57
1425.794, 10197.76
1426.851, 10101.15
1427.908, 10135.99
1428.965, 10118.16
1430.022, 10098.16
1431.079, 10151.50
1432.135, 10069.70
1433.192, 10121.88
1434.248, 10120.59
1435.304, 10143.77
1436.360, 10113.94
1437.416, 10275.00
1438.472, 10177.00
1439.528, 10157.00
1440.583, 10206.00
1441.639, 10150.00
1442.694, 10237.00
1443.749, 10152.00
1444.804, 10326.00
1445.859, 10193.00
1446.914, 10245.00
1447.969, 10071.00
1449.024, 10156.00
1450.078, 10271.00
1451.132, 10178.00
1452.187, 10257.00
1453.241, 10189.00
1454.295, 10148.00
1455.349, 10324.00
1456.402, 9972.000
1457.456, 10235.00
1458.509, 10209.00
1459.563, 10076.00
1460.616, 10199.00
1461.669, 10148.00
1462.722, 10189.00
1463.775, 10249.00
1464.828, 10344.00
1465.880, 10148.00
1466.933, 10135.00
1467.985, 10215.00
1469.037, 10204.00
1470.090, 10198.00
1471.142, 10367.00
1472.193, 10255.00
1473.245, 10418.00
1474.297, 10407.00
1475.348, 10226.00
1476.400, 10330.00
1477.451, 10287.00
1478.502, 10292.98
1479.553, 10330.47
1480.604, 10357.00
1481.655, 10395.00
1482.706, 10418.00
1483.756, 10517.00
1484.807, 10403.00
1485.857, 10508.68
1486.907, 10379.00
1487.957, 10570.00
1489.007, 10507.00
1490.057, 10432.00
1491.106, 10390.00
1492.156, 10484.00
1493.205, 10450.00
1494.255, 10501.93
1495.304, 10569.00
1496.353, 10586.00
1497.402, 10676.00
1498.451, 10711.00
1499.500, 10457.00
1500.548, 10529.00
1501.597, 10368.00
1502.645, 10645.00
1503.693, 10553.00
1504.741, 10592.00
1505.789, 10534.00
1506.837, 10720.00
1507.885, 10718.00
1508.932, 10711.00
1509.980, 10692.00
1511.027, 10791.00
1512.075, 10664.00
1513.122, 10821.00
1514.169, 10736.00
1515.216, 10669.00
1516.262, 10649.00
1517.309, 10713.00
1518.356, 10684.00
1519.402, 10759.00
1520.448, 10791.00
1521.495, 10781.00
1522.541, 10790.00
1523.587, 10953.00
1524.632, 10841.00
1525.678, 11001.00
1526.724, 10867.00
1527.769, 10866.00
1528.814, 11007.00
1529.860, 10973.00
1530.905, 10954.00
1531.950, 11064.00
1532.995, 10900.00
1534.039, 10947.00
1535.084, 10937.00
1536.128, 10964.00
1537.173, 10991.00
1538.217, 11076.00
1539.261, 11094.00
1540.305, 11010.00
1541.349, 11110.00
##END=



