##NAMES=Aenigmatite
##RRUFFID=R061088
##IDEAL CHEMISTRY=Na_4_(Fe^2+^_10_Ti^4+^_2_)O_4_[Si_12_O_36_]
##LOCALITY=Naujakasik, Greenland
##OWNER=RRUFF
##SOURCE=Michael Scott
##DESCRIPTION=Black prismatic crystals
##STATUS=The identification of this mineral has been confirmed by X-ray diffraction and chemical analysis
##URL=rruff.info/R061088
##MEASURED CHEMISTRY=(Na_1.72_Ca_0.28_)_Σ=2_(Fe^2+^_4.90_Mn_0.08_Mg_0.02_)_Σ=5_(Ti_0.85_Al_0.14_Fe^3+^_0.01_)_Σ=1_(Si_5.87_Al_0.13_)_Σ=6_O_20_
##PIN_ID=L00919
##ORIENTATION=Laser parallel to (0 -1 -1). Fiducial mark perpendicular to laser is parallel to a [1 0 0]
142.3590, 15473.00
143.5880, 15407.00
144.8170, 15481.00
146.0460, 15487.00
147.2750, 16058.00
148.5030, 15617.00
149.7320, 15297.00
150.9600, 15805.00
152.1880, 15733.00
153.4160, 15671.00
154.6440, 15814.00
155.8720, 15710.00
157.0990, 15588.00
158.3270, 15461.00
159.5540, 15629.00
160.7810, 15561.00
162.0080, 15697.00
163.2350, 15914.00
164.4610, 15752.90
165.6880, 16107.00
166.9140, 15533.00
168.1400, 15438.00
169.3660, 15289.00
170.5920, 15367.00
171.8180, 15172.75
173.0430, 15234.00
174.2690, 14961.00
175.4940, 15023.00
176.7190, 15054.00
177.9440, 14927.00
179.1680, 14765.00
180.3930, 14626.00
181.6170, 14753.00
182.8420, 14743.00
184.0660, 14715.00
185.2900, 14879.00
186.5140, 14901.95
187.7370, 14947.21
188.9610, 15113.00
190.1840, 14995.00
191.4070, 15130.00
192.6300, 15084.00
193.8530, 15039.00
195.0760, 15050.00
196.2980, 15191.00
197.5210, 15319.00
198.7430, 15305.18
199.9650, 15380.00
201.1870, 15388.57
202.4090, 15262.48
203.6310, 15313.97
204.8520, 15318.46
206.0730, 15135.18
207.2950, 15194.36
208.5160, 15156.38
209.7360, 15114.43
210.9570, 15207.75
212.1780, 15051.78
213.3980, 15142.96
214.6180, 15135.49
215.8380, 15119.00
217.0580, 15042.00
218.2780, 15002.10
219.4980, 15390.00
220.7170, 14921.00
221.9360, 14825.00
223.1560, 14887.00
224.3750, 15322.00
225.5930, 15274.00
226.8120, 14729.00
228.0310, 14561.00
229.2490, 14433.00
230.4670, 14490.00
231.6850, 14482.00
232.9030, 14523.00
234.1210, 14400.00
235.3380, 14462.00
236.5560, 14364.00
237.7730, 14483.00
238.9900, 14231.00
240.2070, 14491.00
241.4240, 14410.00
242.6410, 14400.00
243.8570, 14514.00
245.0730, 14341.00
246.2900, 14413.00
247.5060, 14543.00
248.7210, 14580.00
249.9370, 14498.00
251.1530, 14586.00
252.3680, 14507.00
253.5830, 14596.00
254.7980, 14457.00
256.0130, 14734.00
257.2280, 14741.00
258.4430, 14825.56
259.6570, 14776.74
260.8720, 14938.00
262.0860, 14620.00
263.3000, 14458.00
264.5130, 14542.00
265.7270, 14549.00
266.9410, 14411.00
268.1540, 14471.00
269.3670, 14430.00
270.5800, 14410.00
271.7930, 14452.00
273.0060, 14588.00
274.2190, 14364.00
275.4310, 14480.00
276.6430, 14627.00
277.8550, 14812.00
279.0670, 14511.00
280.2790, 14569.00
281.4910, 14449.00
282.7020, 14718.00
283.9140, 14552.00
285.1250, 14536.00
286.3360, 14627.00
287.5470, 14559.00
288.7570, 14707.00
289.9680, 14660.00
291.1780, 14720.00
292.3880, 14874.00
293.5990, 14817.00
294.8080, 14745.00
296.0180, 14821.00
297.2280, 14859.00
298.4370, 14880.00
299.6470, 14888.00
300.8560, 14878.00
302.0650, 15022.00
303.2740, 14883.00
304.4820, 14935.97
305.6910, 15054.00
306.8990, 14883.00
308.1070, 14975.00
309.3150, 14895.00
310.5230, 14894.00
311.7310, 14848.00
312.9390, 14895.00
314.1460, 14856.00
315.3530, 14879.00
316.5600, 14834.05
317.7670, 14785.34
318.9740, 14713.00
320.1810, 14644.00
321.3870, 14543.00
322.5930, 14433.00
323.8000, 14546.00
325.0060, 14426.00
326.2110, 14491.00
327.4170, 14342.00
328.6230, 14242.00
329.8280, 14164.00
331.0330, 14289.00
332.2380, 14272.00
333.4430, 14167.00
334.6480, 14191.00
335.8530, 14165.00
337.0570, 14288.00
338.2610, 14200.00
339.4650, 14116.00
340.6690, 14205.00
341.8730, 14111.00
343.0770, 14223.00
344.2800, 14190.00
345.4840, 14188.00
346.6870, 14118.00
347.8900, 14218.00
349.0930, 14312.00
350.2950, 14269.00
351.4980, 14248.00
352.7000, 14336.00
353.9030, 14403.00
355.1050, 14302.00
356.3070, 14302.00
357.5080, 14139.00
358.7100, 14122.00
359.9110, 14121.70
361.1130, 14209.00
362.3140, 14207.00
363.5150, 14290.00
364.7160, 14435.00
365.9160, 14293.00
367.1170, 14188.00
368.3170, 14192.00
369.5170, 14331.00
370.7170, 14368.00
371.9170, 14294.00
373.1170, 14221.00
374.3170, 14262.00
375.5160, 14287.00
376.7150, 14282.00
377.9140, 14114.00
379.1130, 14227.00
380.3120, 14218.00
381.5110, 14341.00
382.7090, 14261.00
383.9070, 14325.00
385.1060, 14349.00
386.3040, 14407.00
387.5010, 14262.00
388.6990, 14488.00
389.8970, 14352.00
391.0940, 14275.00
392.2910, 14490.00
393.4880, 14354.00
394.6850, 14298.00
395.8820, 14442.00
397.0780, 14379.00
398.2750, 14346.00
399.4710, 14285.00
400.6670, 14341.00
401.8630, 14359.00
403.0590, 14343.00
404.2540, 14449.00
405.4500, 14345.00
406.6450, 14307.00
407.8400, 14419.00
409.0350, 14334.00
410.2300, 14154.00
411.4250, 14300.00
412.6190, 14220.00
413.8140, 14406.00
415.0080, 14503.00
416.2020, 14343.00
417.3960, 14300.00
418.5900, 14382.00
419.7830, 14446.00
420.9770, 14353.00
422.1700, 14398.00
423.3630, 14517.00
424.5560, 14584.00
425.7490, 14612.00
426.9410, 14722.00
428.1340, 14724.00
429.3260, 14605.00
430.5180, 14691.00
431.7100, 14708.00
432.9020, 14716.00
434.0940, 14732.00
435.2850, 14733.59
436.4770, 14785.00
437.6680, 14744.00
438.8590, 14741.00
440.0500, 14765.00
441.2410, 14697.00
442.4310, 14790.00
443.6220, 14686.00
444.8120, 14777.00
446.0020, 14875.00
447.1920, 14741.00
448.3820, 14736.00
449.5710, 14648.00
450.7610, 14638.47
451.9500, 14713.00
453.1390, 14694.00
454.3280, 14740.00
455.5170, 14739.23
456.7060, 14841.00
457.8940, 14718.00
459.0830, 14774.00
460.2710, 14747.00
461.4590, 14900.00
462.6470, 14853.51
463.8350, 14828.00
465.0220, 14851.00
466.2100, 14708.00
467.3970, 14733.00
468.5840, 14830.00
469.7710, 15046.00
470.9580, 14785.00
472.1440, 14851.00
473.3310, 14943.00
474.5170, 14899.00
475.7030, 14719.00
476.8890, 14940.00
478.0750, 14836.00
479.2610, 14933.00
480.4460, 15041.00
481.6320, 14915.00
482.8170, 14985.00
484.0020, 15031.00
485.1870, 15015.00
486.3710, 15040.00
487.5560, 15151.00
488.7400, 15070.00
489.9250, 15007.00
491.1090, 15049.00
492.2930, 15115.00
493.4760, 15117.00
494.6600, 15156.00
495.8440, 15181.71
497.0270, 14960.00
498.2100, 15206.00
499.3930, 15157.00
500.5760, 15125.00
501.7580, 15271.00
502.9410, 15189.85
504.1230, 15237.00
505.3060, 15168.00
506.4880, 15199.00
507.6690, 15213.00
508.8510, 15349.00
510.0330, 15320.00
511.2140, 15399.71
512.3950, 15449.00
513.5760, 15455.00
514.7570, 15537.00
515.9380, 15462.00
517.1190, 15555.00
518.2990, 15574.00
519.4800, 15664.00
520.6600, 15664.00
521.8400, 15678.00
523.0190, 15820.00
524.1990, 15872.00
525.3790, 15983.00
526.5580, 15997.00
527.7370, 15879.00
528.9160, 16040.00
530.0950, 16184.00
531.2740, 15887.00
532.4520, 16038.00
533.6310, 16046.00
534.8090, 16022.00
535.9870, 15989.00
537.1650, 15980.69
538.3430, 16014.00
539.5200, 15958.00
540.6980, 15996.00
541.8750, 16028.00
543.0520, 15906.00
544.2290, 16077.00
545.4060, 15879.00
546.5820, 15974.00
547.7590, 15995.00
548.9350, 15984.00
550.1110, 16073.00
551.2870, 15977.00
552.4630, 16140.00
553.6390, 16143.00
554.8140, 16124.00
555.9900, 16069.00
557.1650, 16005.00
558.3400, 16158.00
559.5150, 16246.00
560.6900, 16023.00
561.8640, 16219.00
563.0390, 16219.00
564.2130, 15961.00
565.3870, 16056.00
566.5610, 15949.00
567.7350, 15918.00
568.9080, 16106.00
570.0820, 15958.00
571.2550, 15990.00
572.4280, 15855.00
573.6010, 15873.00
574.7740, 15783.00
575.9470, 15836.00
577.1190, 15746.00
578.2920, 15952.00
579.4640, 15747.00
580.6360, 15757.00
581.8080, 15927.00
582.9790, 16019.00
584.1510, 15968.00
585.3220, 15999.00
586.4940, 15928.00
587.6650, 16034.00
588.8360, 16089.00
590.0060, 15883.00
591.1770, 15972.00
592.3470, 16068.00
593.5180, 16008.00
594.6880, 16119.00
595.8580, 16152.00
597.0280, 16005.00
598.1970, 16347.00
599.3670, 16258.00
600.5360, 16372.00
601.7050, 16350.00
602.8740, 16369.00
604.0430, 16354.00
605.2120, 16394.00
606.3800, 16580.00
607.5490, 16528.00
608.7170, 16581.00
609.8850, 16750.00
611.0530, 16650.00
612.2210, 16786.00
613.3880, 16876.00
614.5560, 17135.00
615.7230, 17312.00
616.8900, 17456.00
618.0570, 17627.00
619.2240, 17777.00
620.3900, 18022.00
621.5570, 18312.00
622.7230, 18459.00
623.8890, 18581.00
625.0550, 18633.61
626.2210, 18699.00
627.3870, 18615.00
628.5520, 18570.00
629.7180, 18588.00
630.8830, 18611.53
632.0480, 18666.00
633.2130, 18810.00
634.3770, 18988.00
635.5420, 19228.00
636.7060, 19460.00
637.8710, 19621.00
639.0350, 19936.00
640.1990, 20425.00
641.3620, 20887.00
642.5260, 21138.00
643.6890, 21459.00
644.8530, 21538.00
646.0160, 21845.00
647.1790, 22007.00
648.3410, 21920.00
649.5040, 22106.00
650.6670, 22209.00
651.8290, 21972.00
652.9910, 21819.00
654.1530, 21846.00
655.3150, 21907.00
656.4770, 21480.00
657.6380, 21029.00
658.7990, 21105.00
659.9610, 20837.00
661.1220, 20639.00
662.2830, 20419.00
663.4430, 20546.00
664.6040, 20337.00
665.7640, 20368.00
666.9240, 20121.00
668.0850, 19953.00
669.2440, 20102.00
670.4040, 20030.00
671.5640, 19813.00
672.7230, 19826.00
673.8830, 19971.00
675.0420, 19805.00
676.2010, 19820.00
677.3590, 19748.00
678.5180, 19725.00
679.6770, 19632.00
680.8350, 19660.00
681.9930, 19607.09
683.1510, 19576.27
684.3090, 19553.00
685.4670, 19490.00
686.6240, 19457.00
687.7810, 19348.00
688.9390, 19471.00
690.0960, 19274.75
691.2530, 19271.00
692.4090, 18983.00
693.5660, 18908.00
694.7220, 18772.00
695.8790, 18599.04
697.0350, 18406.98
698.1910, 18437.00
699.3460, 17916.00
700.5020, 18042.00
701.6570, 17774.00
702.8130, 17690.00
703.9680, 17630.00
705.1230, 17645.00
706.2780, 17565.00
707.4320, 17522.57
708.5870, 17325.00
709.7410, 17382.00
710.8950, 17381.00
712.0490, 17271.00
713.2030, 17391.00
714.3570, 17219.00
715.5100, 17196.00
716.6640, 17144.00
717.8170, 17077.96
718.9700, 17136.00
720.1230, 17077.00
721.2760, 17189.00
722.4280, 17338.00
723.5810, 17103.00
724.7330, 16933.00
725.8850, 17170.00
727.0370, 17043.00
728.1890, 16923.00
729.3400, 17050.00
730.4920, 17199.00
731.6430, 16913.00
732.7940, 17086.00
733.9450, 17112.00
735.0960, 17110.00
736.2460, 16998.00
737.3970, 16920.00
738.5470, 17086.00
739.6970, 16769.00
740.8470, 16994.00
741.9970, 17014.00
743.1470, 16951.00
744.2970, 17032.21
745.4460, 16977.26
746.5950, 16990.00
747.7440, 16948.00
748.8930, 16877.00
750.0420, 16917.00
751.1900, 16837.00
752.3390, 16855.94
753.4870, 16904.00
754.6350, 16898.00
755.7830, 16894.00
756.9310, 16966.00
758.0780, 17000.00
759.2260, 16960.00
760.3730, 16862.00
761.5200, 17004.00
762.6670, 16971.00
763.8140, 17068.00
764.9610, 17075.62
766.1070, 16988.00
767.2530, 17046.00
768.4000, 17014.00
769.5460, 16922.00
770.6910, 17051.00
771.8370, 17037.00
772.9830, 17008.00
774.1280, 17216.00
775.2730, 17204.00
776.4180, 17168.00
777.5630, 17269.00
778.7080, 17182.00
779.8520, 17247.00
780.9970, 17258.00
782.1410, 17318.00
783.2850, 17350.00
784.4290, 17462.00
785.5730, 17277.00
786.7160, 17546.00
787.8600, 17341.00
789.0030, 17463.00
790.1460, 17460.00
791.2890, 17337.00
792.4320, 17446.00
793.5750, 17443.00
794.7170, 17484.00
795.8590, 17528.00
797.0020, 17508.31
798.1440, 17651.39
799.2850, 17744.78
800.4270, 17791.19
801.5690, 17649.82
802.7100, 17750.91
803.8510, 17754.82
804.9920, 17754.75
806.1330, 17889.96
807.2740, 17775.88
808.4140, 17908.92
809.5550, 17943.33
810.6950, 18022.87
811.8350, 18042.45
812.9750, 17956.00
814.1150, 18092.00
815.2540, 18019.00
816.3940, 18137.00
817.5330, 17939.00
818.6720, 18005.00
819.8110, 18242.00
820.9500, 18023.00
822.0880, 18076.00
823.2270, 18168.00
824.3650, 18254.00
825.5030, 18195.00
826.6410, 18284.00
827.7790, 18116.00
828.9170, 18533.00
830.0540, 18461.00
831.1920, 18494.00
832.3290, 18390.00
833.4660, 18645.00
834.6030, 18533.00
835.7390, 18865.00
836.8760, 18716.00
838.0120, 18880.00
839.1480, 18905.00
840.2840, 19060.00
841.4200, 18998.00
842.5560, 18976.00
843.6920, 18992.00
844.8270, 19010.79
845.9620, 19178.00
847.0970, 19153.00
848.2320, 19362.00
849.3670, 19531.00
850.5020, 19313.00
851.6360, 19635.00
852.7700, 19473.00
853.9040, 19879.00
855.0380, 19988.00
856.1720, 20367.00
857.3060, 20333.00
858.4390, 20267.00
859.5730, 20539.00
860.7060, 20447.00
861.8390, 20389.00
862.9720, 20180.00
864.1040, 20178.00
865.2370, 20005.00
866.3690, 19875.00
867.5010, 20001.00
868.6330, 19891.00
869.7650, 19771.00
870.8970, 19931.00
872.0290, 19934.00
873.1600, 19828.00
874.2910, 19886.00
875.4220, 20096.00
876.5530, 19908.00
877.6840, 20145.00
878.8140, 20136.00
879.9450, 20075.00
881.0750, 20205.00
882.2050, 20398.00
883.3350, 20441.00
884.4650, 20569.04
885.5950, 20551.86
886.7240, 20711.00
887.8530, 20396.21
888.9820, 20372.00
890.1110, 20148.00
891.2400, 20383.00
892.3690, 20247.00
893.4970, 20241.00
894.6260, 20434.00
895.7540, 20150.00
896.8820, 20081.00
898.0100, 20233.00
899.1370, 20024.00
900.2650, 20143.00
901.3920, 19931.00
902.5200, 19955.00
903.6470, 19931.00
904.7730, 19767.00
905.9000, 19892.00
907.0270, 19917.00
908.1530, 20106.00
909.2790, 19915.00
910.4050, 19983.72
911.5310, 19845.00
912.6570, 19884.00
913.7830, 19703.00
914.9080, 19566.00
916.0330, 19241.00
917.1580, 19468.00
918.2830, 19441.00
919.4080, 19256.00
920.5330, 19338.00
921.6570, 19511.00
922.7820, 19468.00
923.9060, 19428.00
925.0300, 19284.00
926.1540, 19386.00
927.2770, 19222.00
928.4010, 19357.00
929.5240, 19383.00
930.6470, 19081.00
931.7700, 19291.00
932.8930, 19262.00
934.0160, 19279.00
935.1380, 19380.00
936.2610, 19395.00
937.3830, 19311.00
938.5050, 19233.00
939.6270, 19270.00
940.7490, 19280.00
941.8700, 19363.00
942.9910, 19273.00
944.1130, 19343.00
945.2340, 19212.00
946.3550, 19604.00
947.4750, 19429.00
948.5960, 19595.00
949.7160, 19676.00
950.8370, 19692.00
951.9570, 19768.00
953.0770, 19512.00
954.1970, 19600.00
955.3160, 19528.00
956.4360, 19588.00
957.5550, 19593.19
958.6740, 19549.36
959.7930, 19690.00
960.9120, 19489.00
962.0310, 19682.00
963.1490, 19684.00
964.2670, 19776.00
965.3860, 19459.00
966.5040, 19430.00
967.6210, 19537.00
968.7390, 19574.00
969.8570, 19670.00
970.9740, 19610.00
972.0910, 19721.00
973.2080, 19520.00
974.3250, 19602.00
975.4420, 19539.00
976.5580, 19543.00
977.6750, 19695.00
978.7910, 19818.00
979.9070, 19679.00
981.0230, 19835.00
982.1390, 19864.00
983.2540, 19897.86
984.3700, 20227.00
985.4850, 19937.00
986.6000, 20176.00
987.7150, 19995.00
988.8300, 19910.00
989.9450, 20138.00
991.0590, 19907.00
992.1730, 19842.00
993.2880, 19869.00
994.4010, 19977.00
995.5150, 20056.00
996.6290, 20184.10
997.7420, 20315.94
998.8560, 20426.85
999.9690, 20483.13
1001.082, 20487.46
1002.195, 20299.04
1003.307, 20348.17
1004.420, 20295.16
1005.532, 20233.23
1006.645, 20301.61
1007.757, 20014.00
1008.868, 19952.00
1009.980, 19925.00
1011.092, 19835.00
1012.203, 19860.00
1013.314, 19906.00
1014.425, 19747.00
1015.536, 19945.00
1016.647, 20064.00
1017.758, 20246.00
1018.868, 20121.00
1019.978, 20322.00
1021.088, 20104.00
1022.198, 20277.00
1023.308, 20314.00
1024.418, 20337.00
1025.527, 20270.00
1026.637, 20205.00
1027.746, 20223.00
1028.855, 20304.00
1029.963, 20008.00
1031.072, 20098.00
1032.181, 19959.00
1033.289, 19888.70
1034.397, 19915.84
1035.505, 19850.00
1036.613, 19903.00
1037.721, 20009.00
1038.828, 19996.00
1039.935, 19844.00
1041.043, 19981.00
1042.150, 19851.00
1043.257, 19871.00
1044.363, 19847.00
1045.470, 19733.00
1046.576, 19652.00
1047.682, 19587.00
1048.788, 19787.00
1049.894, 19827.00
1051.000, 19820.00
1052.106, 19751.00
1053.211, 19657.00
1054.316, 19688.00
1055.421, 19523.00
1056.526, 19393.00
1057.631, 19579.00
1058.736, 19560.00
1059.840, 19347.00
1060.944, 19490.00
1062.049, 19466.00
1063.153, 19531.00
1064.256, 19465.00
1065.360, 19479.00
1066.463, 19580.00
1067.567, 19605.00
1068.670, 19778.00
1069.773, 19736.00
1070.876, 19634.00
1071.978, 19736.00
1073.081, 19683.07
1074.183, 19690.00
1075.285, 19693.00
1076.387, 19754.00
1077.489, 19747.00
1078.591, 19920.00
1079.692, 19944.00
1080.794, 19968.00
1081.895, 20076.00
1082.996, 20013.00
1084.097, 19952.00
1085.198, 20012.00
1086.298, 19935.00
1087.399, 19901.00
1088.499, 19893.00
1089.599, 19914.00
1090.699, 19859.00
1091.799, 19858.00
1092.898, 19799.00
1093.998, 19758.00
1095.097, 19687.00
1096.196, 19844.00
1097.295, 19791.00
1098.394, 19733.00
1099.492, 19567.00
1100.591, 19894.00
1101.689, 19773.96
1102.787, 19853.88
1103.885, 19815.00
1104.983, 19937.00
1106.081, 19915.00
1107.178, 19925.00
1108.275, 19873.00
1109.373, 19931.00
1110.470, 20093.00
1111.566, 20320.00
1112.663, 20023.00
1113.760, 19851.00
1114.856, 19691.00
1115.952, 19735.00
1117.048, 20034.00
1118.144, 19615.00
1119.240, 19817.00
1120.335, 19883.00
1121.431, 19813.00
1122.526, 19932.00
1123.621, 19720.00
1124.716, 19872.00
1125.810, 19743.00
1126.905, 19741.00
1127.999, 19884.00
1129.094, 19751.00
1130.188, 19876.00
1131.282, 19931.00
1132.375, 19836.00
1133.469, 19887.00
1134.562, 19958.00
1135.656, 19821.00
1136.749, 19831.00
1137.842, 19838.00
1138.935, 19837.00
1140.027, 19724.00
1141.120, 19895.00
1142.212, 19741.00
1143.304, 19954.00
1144.396, 19781.00
1145.488, 19878.00
1146.579, 19714.00
1147.671, 19701.00
1148.762, 19917.00
1149.853, 20040.00
1150.944, 20021.00
1152.035, 19941.00
1153.126, 20070.00
1154.216, 19940.00
1155.307, 20192.00
1156.397, 19881.00
1157.487, 20115.00
1158.577, 20054.00
1159.667, 19968.00
1160.756, 20137.00
1161.846, 20182.00
1162.935, 20150.00
1164.024, 20235.00
1165.113, 20237.00
1166.201, 19965.00
1167.290, 20071.00
1168.378, 20142.00
1169.467, 20333.00
1170.555, 20252.00
1171.643, 20218.00
1172.730, 20142.00
1173.818, 20143.00
1174.905, 20290.00
1175.993, 20251.62
1177.080, 20357.00
1178.167, 20359.00
1179.254, 20372.00
1180.340, 20498.00
1181.427, 20327.00
1182.513, 20545.00
1183.599, 20444.00
1184.685, 20456.00
1185.771, 20537.00
1186.856, 20510.00
1187.942, 20347.00
1189.027, 20521.00
1190.112, 20568.00
1191.197, 20333.00
1192.282, 20370.00
1193.367, 20216.00
1194.451, 20457.00
1195.536, 20587.00
1196.620, 20467.00
1197.704, 20650.00
1198.788, 20513.00
1199.872, 20652.00
1200.955, 20660.00
1202.039, 20504.00
1203.122, 20510.00
1204.205, 20615.00
1205.288, 20743.00
1206.370, 20523.00
1207.453, 20544.00
1208.535, 20561.00
1209.618, 20616.00
1210.700, 20766.00
1211.782, 20626.00
1212.863, 20511.00
1213.945, 20882.00
1215.026, 20801.00
1216.108, 20717.00
1217.189, 20787.00
1218.270, 20757.00
1219.351, 20882.00
1220.431, 20718.00
1221.512, 20784.00
1222.592, 20775.00
1223.672, 20853.00
1224.752, 20845.00
1225.832, 20857.00
1226.911, 20839.00
1227.991, 20958.00
1229.070, 21084.00
1230.149, 20917.00
1231.228, 20834.00
1232.307, 20985.00
1233.386, 20903.00
1234.464, 20815.00
1235.543, 21020.55
1236.621, 21151.04
1237.699, 21231.86
1238.777, 21265.68
1239.855, 21111.72
1240.932, 21200.22
1242.009, 21191.55
1243.087, 21178.90
1244.164, 21301.53
1245.241, 21174.87
1246.317, 21295.34
1247.394, 21317.16
1248.470, 21384.12
1249.546, 21353.31
1250.623, 21352.72
1251.698, 21449.89
1252.774, 21492.93
1253.850, 21450.87
1254.925, 21520.69
1256.000, 21390.57
1257.076, 21435.92
1258.150, 21396.00
1259.225, 21426.00
1260.300, 21520.00
1261.374, 21547.00
1262.449, 21471.00
1263.523, 21498.00
1264.597, 21595.00
1265.670, 21548.00
1266.744, 21794.00
1267.818, 21613.00
1268.891, 21960.00
1269.964, 22007.00
1271.037, 21726.00
1272.110, 21982.00
1273.183, 22050.00
1274.255, 21797.00
1275.327, 22176.00
1276.400, 21978.00
1277.472, 21897.00
1278.543, 22060.00
1279.615, 21914.00
1280.687, 22049.00
1281.758, 21932.00
1282.829, 21962.00
1283.900, 22006.00
1284.971, 22092.00
1286.042, 22052.00
1287.112, 22319.00
1288.183, 22177.00
1289.253, 22071.00
1290.323, 22222.00
1291.393, 22318.00
1292.463, 22481.00
1293.532, 22537.00
1294.602, 22397.00
1295.671, 22526.00
1296.740, 22497.00
1297.809, 22478.00
1298.878, 22477.00
1299.946, 22497.00
1301.015, 22509.04
1302.083, 22457.00
1303.151, 22586.00
1304.219, 22559.00
1305.287, 22640.00
1306.354, 22780.00
1307.422, 22694.00
1308.489, 22710.00
1309.556, 22843.00
1310.623, 22819.00
1311.690, 22983.00
1312.757, 22892.00
1313.823, 23037.00
1314.890, 22922.45
1315.956, 22731.00
1317.022, 22732.00
1318.088, 22708.00
1319.153, 22706.00
1320.219, 22582.00
1321.284, 22548.00
1322.349, 22591.00
1323.414, 22327.00
1324.479, 22459.00
1325.544, 22392.00
1326.608, 22331.00
1327.673, 22423.00
1328.737, 22310.00
1329.801, 22240.00
1330.865, 22087.00
1331.929, 22360.00
1332.992, 22203.00
1334.056, 22171.00
1335.119, 22268.00
1336.182, 22180.00
1337.245, 22066.00
1338.308, 22138.00
1339.370, 22050.00
1340.433, 22072.00
1341.495, 22023.00
1342.557, 21961.00
1343.619, 22047.00
1344.681, 22150.00
1345.742, 22125.61
1346.804, 22145.09
1347.865, 22149.00
1348.926, 22074.00
1349.987, 22054.00
1351.048, 22006.71
1352.108, 22028.29
1353.169, 22038.09
1354.229, 22100.00
1355.289, 22062.00
1356.349, 22095.00
1357.409, 22015.00
1358.469, 21888.00
1359.528, 22119.00
1360.588, 21937.00
1361.647, 21903.00
1362.706, 22048.00
1363.765, 22195.00
1364.823, 22032.00
1365.882, 21792.00
1366.940, 21947.00
1367.998, 22235.00
1369.056, 22037.00
1370.114, 22073.00
1371.172, 21889.00
1372.229, 22128.00
1373.287, 21949.00
1374.344, 22085.00
1375.401, 22079.00
1376.458, 22170.00
1377.515, 22150.00
1378.571, 22048.00
1379.628, 22003.00
1380.684, 22107.00
1381.740, 21997.00
1382.796, 22061.00
1383.852, 22037.00
1384.907, 22077.00
1385.963, 22080.00
1387.018, 21899.00
1388.073, 21927.00
1389.128, 22080.00
1390.183, 21972.00
1391.237, 22122.00
1392.292, 21928.00
1393.346, 22197.00
1394.400, 21649.00
1395.454, 21980.00
1396.508, 21831.00
1397.562, 21886.00
1398.615, 21935.00
1399.668, 21769.00
1400.722, 21857.00
1401.775, 21850.00
1402.827, 21800.00
1403.880, 21834.00
1404.933, 21750.00
1405.985, 21851.00
1407.037, 21758.80
1408.089, 21922.00
1409.141, 21660.00
1410.193, 21696.00
1411.244, 21718.00
1412.295, 21954.00
1413.347, 21894.62
1414.398, 21778.00
1415.449, 21901.00
1416.499, 21798.00
1417.550, 21785.00
1418.600, 21865.00
1419.650, 21753.00
1420.700, 21860.00
1421.750, 22029.00
1422.800, 22028.00
1423.850, 22084.65
1424.899, 21849.00
1425.948, 22065.00
1426.997, 22098.00
1428.046, 22048.00
1429.095, 22278.00
1430.144, 22495.00
1431.192, 22490.00
1432.240, 22422.00
1433.288, 22620.00
1434.336, 22736.00
1435.384, 22770.00
1436.432, 22912.00
1437.479, 23078.00
1438.526, 23490.00
1439.574, 23374.00
1440.621, 23834.00
1441.667, 23802.22
1442.714, 23979.69
1443.760, 23826.00
1444.807, 24161.00
1445.853, 24182.00
1446.899, 24000.00
1447.945, 24279.00
1448.990, 24279.00
1450.036, 24137.00
1451.081, 24228.00
1452.126, 24468.00
1453.171, 24254.00
1454.216, 24349.00
1455.261, 24336.00
1456.305, 24352.00
1457.350, 24286.37
1458.394, 24143.00
1459.438, 24073.00
1460.482, 23937.00
1461.526, 23787.98
1462.569, 23606.00
1463.612, 23569.00
1464.656, 23389.00
1465.699, 23349.00
1466.742, 23274.00
1467.784, 23268.00
1468.827, 23108.00
1469.869, 22994.00
1470.912, 23071.00
1471.954, 22816.00
1472.996, 22901.00
1474.037, 22676.00
1475.079, 22811.00
1476.120, 22826.00
1477.162, 22804.00
1478.203, 22886.00
1479.244, 22937.00
1480.284, 22823.00
1481.325, 22674.00
1482.365, 22707.00
1483.406, 22677.00
1484.446, 22579.00
1485.486, 22645.00
1486.526, 22581.00
1487.565, 22346.00
1488.605, 22369.00
1489.644, 22325.00
1490.683, 22340.00
1491.722, 22349.42
1492.761, 22212.00
1493.800, 22331.00
1494.838, 22333.00
1495.876, 22216.00
1496.915, 22322.00
1497.953, 22281.00
1498.990, 22277.00
1500.028, 22316.61
1501.066, 22151.00
1502.103, 22310.00
1503.140, 22284.00
1504.177, 22201.00
1505.214, 22113.00
1506.251, 22099.00
1507.287, 22126.00
1508.324, 22146.00
1509.360, 22130.52
1510.396, 22216.00
1511.432, 22118.00
1512.468, 22123.00
1513.503, 22133.00
1514.538, 22265.00
1515.574, 22355.00
1516.609, 22173.00
1517.644, 22396.00
1518.678, 22235.00
1519.713, 22700.00
1520.747, 22495.04
1521.782, 22783.00
1522.816, 22341.00
1523.850, 22391.00
1524.883, 22455.00
1525.917, 22519.00
1526.951, 22637.00
1527.984, 22498.00
1529.017, 22637.00
1530.050, 22498.00
1531.083, 22567.73
1532.115, 22394.00
1533.148, 22659.00
1534.180, 22655.00
1535.212, 22674.00
1536.244, 22910.00
1537.276, 22442.00
1538.308, 22349.00
1539.339, 22422.00
1540.370, 22635.00
1541.402, 22511.00
1542.433, 22611.00
1543.463, 22546.00
1544.494, 22608.00
1545.525, 22516.00
1546.555, 22524.00
1547.585, 22634.00
1548.615, 22490.00
1549.645, 22604.16
1550.675, 22720.00
1551.704, 22711.00
1552.734, 22897.00
1553.763, 22956.00
1554.792, 22974.00
1555.821, 22739.00
1556.849, 22739.00
1557.878, 22686.00
1558.906, 22569.00
1559.935, 22553.00
1560.963, 22788.00
1561.991, 22689.00
##END=



