##NAMES=Aenigmatite
##RRUFFID=R061088
##IDEAL CHEMISTRY=Na_4_(Fe^2+^_10_Ti^4+^_2_)O_4_[Si_12_O_36_]
##LOCALITY=Naujakasik, Greenland
##OWNER=RRUFF
##SOURCE=Michael Scott
##DESCRIPTION=Black prismatic crystals
##STATUS=The identification of this mineral has been confirmed by X-ray diffraction and chemical analysis
##URL=rruff.info/R061088
##MEASURED CHEMISTRY=(Na_1.72_Ca_0.28_)_Σ=2_(Fe^2+^_4.90_Mn_0.08_Mg_0.02_)_Σ=5_(Ti_0.85_Al_0.14_Fe^3+^_0.01_)_Σ=1_(Si_5.87_Al_0.13_)_Σ=6_O_20_
##PIN_ID=L00919
##ORIENTATION=Laser parallel to (0 -1 -1). Fiducial mark perpendicular to laser is parallel to a [1 0 0]
141.1290, 6550.000
142.3590, 6390.000
143.5880, 6372.000
144.8170, 6225.000
146.0460, 6317.000
147.2750, 6285.000
148.5030, 6200.000
149.7320, 6090.000
150.9600, 6321.000
152.1880, 6374.000
153.4160, 6184.000
154.6440, 6129.000
155.8720, 5992.000
157.0990, 5961.000
158.3270, 6054.000
159.5540, 5988.000
160.7810, 6132.000
162.0080, 6130.000
163.2350, 6292.000
164.4610, 6383.000
165.6880, 6270.000
166.9140, 6152.101
168.1400, 6155.387
169.3660, 6140.484
170.5920, 6108.369
171.8180, 6007.490
173.0430, 5995.436
174.2690, 5947.767
175.4940, 5898.669
176.7190, 5899.113
177.9440, 5898.000
179.1680, 5794.000
180.3930, 5691.000
181.6170, 5763.000
182.8420, 5564.000
184.0660, 5697.000
185.2900, 5806.000
186.5140, 5943.000
187.7370, 5764.000
188.9610, 5947.000
190.1840, 5923.000
191.4070, 5935.000
192.6300, 6083.000
193.8530, 6043.000
195.0760, 6168.000
196.2980, 6047.606
197.5210, 6089.415
198.7430, 6113.034
199.9650, 6119.440
201.1870, 6057.083
202.4090, 6083.520
203.6310, 6074.371
204.8520, 6063.763
206.0730, 6157.000
207.2950, 6119.000
208.5160, 6110.000
209.7360, 6195.000
210.9570, 6227.134
212.1780, 6327.000
213.3980, 6328.000
214.6180, 6278.000
215.8380, 6183.000
217.0580, 6148.000
218.2780, 6036.000
219.4980, 5963.000
220.7170, 5984.000
221.9360, 5820.000
223.1560, 5761.727
224.3750, 5697.000
225.5930, 5563.000
226.8120, 5474.000
228.0310, 5402.000
229.2490, 5440.000
230.4670, 5373.000
231.6850, 5331.000
232.9030, 5400.000
234.1210, 5540.000
235.3380, 5406.000
236.5560, 5511.000
237.7730, 5528.000
238.9900, 5523.000
240.2070, 5478.000
241.4240, 5596.000
242.6410, 5660.000
243.8570, 5616.000
245.0730, 5669.000
246.2900, 5678.000
247.5060, 5644.000
248.7210, 5650.000
249.9370, 5601.000
251.1530, 5571.000
252.3680, 5614.000
253.5830, 5625.000
254.7980, 5585.273
256.0130, 5621.083
257.2280, 5638.704
258.4430, 5639.112
259.6570, 5570.761
260.8720, 5591.200
262.0860, 5576.059
263.3000, 5559.459
264.5130, 5592.405
265.7270, 5534.055
266.9410, 5566.211
268.1540, 5562.243
269.3670, 5547.000
270.5800, 5683.000
271.7930, 5594.000
273.0060, 5669.000
274.2190, 5709.000
275.4310, 5693.000
276.6430, 5743.000
277.8550, 5817.000
279.0670, 5920.000
280.2790, 5914.000
281.4910, 5999.000
282.7020, 6023.000
283.9140, 6099.613
285.1250, 6174.314
286.3360, 6264.000
287.5470, 6319.000
288.7570, 6394.000
289.9680, 6432.000
291.1780, 6573.000
292.3880, 6473.000
293.5990, 6580.000
294.8080, 6606.000
296.0180, 6736.000
297.2280, 6628.000
298.4370, 6705.000
299.6470, 6762.000
300.8560, 6678.000
302.0650, 6762.000
303.2740, 6767.000
304.4820, 6767.000
305.6910, 6832.000
306.8990, 6873.000
308.1070, 6809.000
309.3150, 6866.000
310.5230, 6870.000
311.7310, 6910.000
312.9390, 6697.000
314.1460, 6677.000
315.3530, 6544.000
316.5600, 6491.000
317.7670, 6451.000
318.9740, 6326.000
320.1810, 6259.000
321.3870, 6011.000
322.5930, 6032.000
323.8000, 5832.000
325.0060, 5715.000
326.2110, 5641.000
327.4170, 5517.000
328.6230, 5464.000
329.8280, 5443.000
331.0330, 5364.000
332.2380, 5354.000
333.4430, 5210.000
334.6480, 5229.000
335.8530, 5148.000
337.0570, 5143.000
338.2610, 5067.000
339.4650, 5081.000
340.6690, 5009.000
341.8730, 5023.000
343.0770, 5056.000
344.2800, 5125.000
345.4840, 4984.000
346.6870, 5031.000
347.8900, 5019.000
349.0930, 4985.000
350.2950, 4998.000
351.4980, 4991.000
352.7000, 4977.000
353.9030, 5040.000
355.1050, 5026.000
356.3070, 5080.000
357.5080, 5085.000
358.7100, 5023.000
359.9110, 4984.000
361.1130, 4981.834
362.3140, 5008.000
363.5150, 4976.000
364.7160, 4984.000
365.9160, 5006.000
367.1170, 4969.000
368.3170, 4884.000
369.5170, 4948.000
370.7170, 4816.000
371.9170, 4881.000
373.1170, 4888.000
374.3170, 4851.000
375.5160, 4887.000
376.7150, 4866.000
377.9140, 4833.000
379.1130, 4872.000
380.3120, 4834.000
381.5110, 4779.000
382.7090, 4830.000
383.9070, 4824.000
385.1060, 4869.000
386.3040, 4902.000
387.5010, 4885.000
388.6990, 4904.000
389.8970, 4909.944
391.0940, 4926.044
392.2910, 4932.000
393.4880, 4965.000
394.6850, 5002.000
395.8820, 5008.000
397.0780, 4922.000
398.2750, 5047.000
399.4710, 4855.000
400.6670, 5013.000
401.8630, 5064.000
403.0590, 4952.000
404.2540, 5094.000
405.4500, 5055.000
406.6450, 5062.000
407.8400, 5058.000
409.0350, 5071.000
410.2300, 5065.000
411.4250, 5050.000
412.6190, 5042.000
413.8140, 5116.000
415.0080, 5006.000
416.2020, 5027.000
417.3960, 5135.000
418.5900, 5115.000
419.7830, 5139.000
420.9770, 5149.000
422.1700, 5105.000
423.3630, 5158.000
424.5560, 5157.931
425.7490, 5227.000
426.9410, 5189.000
428.1340, 5261.000
429.3260, 5247.000
430.5180, 5233.000
431.7100, 5185.000
432.9020, 5143.000
434.0940, 5204.000
435.2850, 5144.000
436.4770, 5236.230
437.6680, 5269.720
438.8590, 5285.021
440.0500, 5283.108
441.2410, 5212.432
442.4310, 5230.558
443.6220, 5213.091
444.8120, 5194.172
446.0020, 5224.795
447.1920, 5164.127
448.3820, 5193.964
449.5710, 5187.680
450.7610, 5197.924
451.9500, 5172.370
453.1390, 5157.875
454.3280, 5179.196
455.5170, 5180.686
456.7060, 5151.010
457.8940, 5162.318
459.0830, 5100.406
460.2710, 5102.747
461.4590, 5132.807
462.6470, 5104.938
463.8350, 5108.000
465.0220, 5171.000
466.2100, 5144.000
467.3970, 5154.000
468.5840, 5131.000
469.7710, 5155.000
470.9580, 5020.000
472.1440, 5118.000
473.3310, 5081.000
474.5170, 5053.000
475.7030, 5180.000
476.8890, 5178.000
478.0750, 5191.000
479.2610, 5151.000
480.4460, 5265.000
481.6320, 5277.000
482.8170, 5258.000
484.0020, 5348.000
485.1870, 5340.000
486.3710, 5264.000
487.5560, 5295.000
488.7400, 5370.000
489.9250, 5348.000
491.1090, 5365.000
492.2930, 5395.000
493.4760, 5308.000
494.6600, 5357.000
495.8440, 5340.000
497.0270, 5338.000
498.2100, 5219.000
499.3930, 5392.000
500.5760, 5254.000
501.7580, 5434.000
502.9410, 5386.000
504.1230, 5348.000
505.3060, 5385.000
506.4880, 5459.000
507.6690, 5501.000
508.8510, 5527.548
510.0330, 5465.000
511.2140, 5548.000
512.3950, 5558.000
513.5760, 5521.000
514.7570, 5608.000
515.9380, 5665.000
517.1190, 5679.000
518.2990, 5737.000
519.4800, 5741.000
520.6600, 5755.000
521.8400, 5869.000
523.0190, 5891.000
524.1990, 5893.000
525.3790, 6003.000
526.5580, 6110.000
527.7370, 6146.000
528.9160, 6124.000
530.0950, 6174.000
531.2740, 6232.000
532.4520, 6164.000
533.6310, 6199.000
534.8090, 6051.000
535.9870, 6112.000
537.1650, 6033.000
538.3430, 5939.000
539.5200, 5941.000
540.6980, 5894.057
541.8750, 5892.000
543.0520, 5886.000
544.2290, 5905.000
545.4060, 5931.000
546.5820, 5853.000
547.7590, 5799.000
548.9350, 5808.000
550.1110, 5872.000
551.2870, 5765.000
552.4630, 5912.000
553.6390, 5812.000
554.8140, 5903.000
555.9900, 5918.000
557.1650, 5994.000
558.3400, 5974.973
559.5150, 5986.000
560.6900, 5926.000
561.8640, 5919.000
563.0390, 5903.000
564.2130, 5844.000
565.3870, 5869.000
566.5610, 5804.000
567.7350, 5792.000
568.9080, 5775.000
570.0820, 5660.000
571.2550, 5626.000
572.4280, 5648.000
573.6010, 5597.000
574.7740, 5604.000
575.9470, 5492.000
577.1190, 5425.000
578.2920, 5441.000
579.4640, 5466.000
580.6360, 5359.000
581.8080, 5318.000
582.9790, 5370.000
584.1510, 5273.000
585.3220, 5329.000
586.4940, 5262.000
587.6650, 5160.000
588.8360, 5207.000
590.0060, 5254.000
591.1770, 5141.000
592.3470, 5140.000
593.5180, 5181.000
594.6880, 5113.000
595.8580, 5104.000
597.0280, 5107.000
598.1970, 5156.000
599.3670, 5203.000
600.5360, 5234.000
601.7050, 5250.314
602.8740, 5176.000
604.0430, 5254.000
605.2120, 5216.000
606.3800, 5197.000
607.5490, 5216.000
608.7170, 5181.000
609.8850, 5199.312
611.0530, 5291.000
612.2210, 5248.000
613.3880, 5296.000
614.5560, 5381.000
615.7230, 5323.000
616.8900, 5360.000
618.0570, 5371.000
619.2240, 5380.000
620.3900, 5435.000
621.5570, 5466.000
622.7230, 5550.000
623.8890, 5614.000
625.0550, 5650.000
626.2210, 5560.000
627.3870, 5645.000
628.5520, 5707.000
629.7180, 5827.000
630.8830, 5852.548
632.0480, 5819.000
633.2130, 5937.000
634.3770, 5968.000
635.5420, 6042.000
636.7060, 6283.000
637.8710, 6352.000
639.0350, 6431.000
640.1990, 6625.000
641.3620, 6634.000
642.5260, 6830.000
643.6890, 6930.000
644.8530, 7027.000
646.0160, 7042.000
647.1790, 7123.000
648.3410, 7322.000
649.5040, 7295.000
650.6670, 7427.000
651.8290, 7347.000
652.9910, 7537.000
654.1530, 7485.000
655.3150, 7564.000
656.4770, 7551.000
657.6380, 7563.000
658.7990, 7528.000
659.9610, 7556.245
661.1220, 7615.000
662.2830, 7641.000
663.4430, 7640.000
664.6040, 7771.000
665.7640, 7862.000
666.9240, 7897.822
668.0850, 7916.000
669.2440, 8003.000
670.4040, 8045.000
671.5640, 8095.000
672.7230, 8238.000
673.8830, 8187.000
675.0420, 8245.000
676.2010, 8366.000
677.3590, 8228.000
678.5180, 8050.000
679.6770, 8081.000
680.8350, 7955.000
681.9930, 7939.627
683.1510, 8014.000
684.3090, 7875.000
685.4670, 7928.000
686.6240, 7804.000
687.7810, 7710.000
688.9390, 7740.000
690.0960, 7648.000
691.2530, 7557.000
692.4090, 7384.000
693.5660, 7331.000
694.7220, 7255.000
695.8790, 7055.000
697.0350, 6922.000
698.1910, 6836.000
699.3460, 6611.000
700.5020, 6602.000
701.6570, 6504.000
702.8130, 6308.000
703.9680, 6237.000
705.1230, 6219.000
706.2780, 6113.000
707.4320, 6071.220
708.5870, 6026.000
709.7410, 5954.000
710.8950, 5847.000
712.0490, 5789.000
713.2030, 5734.000
714.3570, 5679.017
715.5100, 5628.288
716.6640, 5616.000
717.8170, 5559.000
718.9700, 5550.000
720.1230, 5581.000
721.2760, 5522.000
722.4280, 5601.000
723.5810, 5556.000
724.7330, 5542.000
725.8850, 5576.000
727.0370, 5494.000
728.1890, 5424.000
729.3400, 5473.000
730.4920, 5616.000
731.6430, 5520.000
732.7940, 5501.000
733.9450, 5536.000
735.0960, 5505.000
736.2460, 5556.000
737.3970, 5541.000
738.5470, 5457.000
739.6970, 5407.000
740.8470, 5407.000
741.9970, 5398.000
743.1470, 5309.776
744.2970, 5333.896
745.4460, 5339.843
746.5950, 5328.578
747.7440, 5248.548
748.8930, 5257.313
750.0420, 5230.494
751.1900, 5202.230
752.3390, 5223.494
753.4870, 5153.481
754.6350, 5173.974
755.7830, 5158.338
756.9310, 5159.238
758.0780, 5126.706
759.2260, 5141.937
760.3730, 5060.000
761.5200, 5171.000
762.6670, 5120.000
763.8140, 5138.000
764.9610, 5075.000
766.1070, 5185.000
767.2530, 5198.000
768.4000, 5158.000
769.5460, 5139.000
770.6910, 5137.000
771.8370, 5129.375
772.9830, 5140.678
774.1280, 5149.000
775.2730, 5187.000
776.4180, 5211.000
777.5630, 5263.000
778.7080, 5229.245
779.8520, 5173.000
780.9970, 5185.000
782.1410, 5178.000
783.2850, 5215.000
784.4290, 5266.000
785.5730, 5113.000
786.7160, 5193.000
787.8600, 5145.000
789.0030, 5297.000
790.1460, 5214.000
791.2890, 5171.000
792.4320, 5277.000
793.5750, 5125.000
794.7170, 5233.000
795.8590, 5293.000
797.0020, 5294.000
798.1440, 5311.303
799.2850, 5359.184
800.4270, 5226.000
801.5690, 5347.000
802.7100, 5245.144
803.8510, 5293.425
804.9920, 5257.000
806.1330, 5349.000
807.2740, 5334.000
808.4140, 5299.000
809.5550, 5283.000
810.6950, 5301.000
811.8350, 5366.000
812.9750, 5426.000
814.1150, 5379.000
815.2540, 5379.000
816.3940, 5400.000
817.5330, 5321.000
818.6720, 5255.000
819.8110, 5369.000
820.9500, 5471.000
822.0880, 5358.000
823.2270, 5345.000
824.3650, 5364.000
825.5030, 5430.000
826.6410, 5365.000
827.7790, 5400.000
828.9170, 5409.000
830.0540, 5473.000
831.1920, 5492.000
832.3290, 5418.000
833.4660, 5365.000
834.6030, 5456.000
835.7390, 5473.000
836.8760, 5487.000
838.0120, 5541.000
839.1480, 5572.000
840.2840, 5486.000
841.4200, 5511.000
842.5560, 5536.000
843.6920, 5514.000
844.8270, 5542.581
845.9620, 5531.000
847.0970, 5597.000
848.2320, 5622.000
849.3670, 5717.000
850.5020, 5659.000
851.6360, 5703.000
852.7700, 5656.000
853.9040, 5711.000
855.0380, 5743.000
856.1720, 5773.000
857.3060, 5730.000
858.4390, 5789.000
859.5730, 5733.000
860.7060, 5826.000
861.8390, 5727.000
862.9720, 5831.000
864.1040, 5861.000
865.2370, 5762.000
866.3690, 5840.000
867.5010, 5805.000
868.6330, 5789.000
869.7650, 5900.000
870.8970, 5861.000
872.0290, 5901.000
873.1600, 5926.434
874.2910, 5875.000
875.4220, 5945.000
876.5530, 5921.000
877.6840, 5912.000
878.8140, 5941.000
879.9450, 6026.000
881.0750, 6043.000
882.2050, 6040.000
883.3350, 6039.000
884.4650, 6064.952
885.5950, 6069.674
886.7240, 6126.000
887.8530, 6093.000
888.9820, 6148.000
890.1110, 6144.000
891.2400, 6254.000
892.3690, 6332.000
893.4970, 6235.000
894.6260, 6176.000
895.7540, 6321.000
896.8820, 6343.000
898.0100, 6412.000
899.1370, 6329.000
900.2650, 6326.000
901.3920, 6445.000
902.5200, 6410.000
903.6470, 6549.000
904.7730, 6590.000
905.9000, 6515.000
907.0270, 6552.000
908.1530, 6628.000
909.2790, 6574.000
910.4050, 6673.000
911.5310, 6583.000
912.6570, 6558.000
913.7830, 6495.000
914.9080, 6505.000
916.0330, 6504.000
917.1580, 6406.000
918.2830, 6424.000
919.4080, 6367.000
920.5330, 6339.737
921.6570, 6395.000
922.7820, 6304.000
923.9060, 6292.000
925.0300, 6293.000
926.1540, 6173.000
927.2770, 6258.000
928.4010, 6301.000
929.5240, 6188.000
930.6470, 6335.000
931.7700, 6178.000
932.8930, 6310.000
934.0160, 6333.000
935.1380, 6279.000
936.2610, 6304.000
937.3830, 6299.000
938.5050, 6309.000
939.6270, 6322.000
940.7490, 6262.000
941.8700, 6327.000
942.9910, 6387.000
944.1130, 6287.000
945.2340, 6448.000
946.3550, 6367.000
947.4750, 6414.000
948.5960, 6483.000
949.7160, 6614.000
950.8370, 6570.000
951.9570, 6587.000
953.0770, 6649.000
954.1970, 6633.000
955.3160, 6586.000
956.4360, 6576.000
957.5550, 6489.000
958.6740, 6629.000
959.7930, 6727.000
960.9120, 6681.000
962.0310, 6741.000
963.1490, 6710.000
964.2670, 6694.000
965.3860, 6765.000
966.5040, 6682.000
967.6210, 6685.000
968.7390, 6742.000
969.8570, 6727.000
970.9740, 6704.000
972.0910, 6695.000
973.2080, 6738.000
974.3250, 6762.000
975.4420, 6881.000
976.5580, 6846.000
977.6750, 6895.000
978.7910, 6895.000
979.9070, 6894.000
981.0230, 6933.548
982.1390, 6956.102
983.2540, 6984.000
984.3700, 7024.000
985.4850, 7039.000
986.6000, 7044.000
987.7150, 6915.000
988.8300, 6915.000
989.9450, 6875.000
991.0590, 6787.000
992.1730, 6792.000
993.2880, 6679.000
994.4010, 6663.243
995.5150, 6560.000
996.6290, 6603.000
997.7420, 6562.000
998.8560, 6535.000
999.9690, 6478.000
1001.082, 6501.000
1002.195, 6424.000
1003.307, 6470.000
1004.420, 6563.000
1005.532, 6491.000
1006.645, 6477.000
1007.757, 6521.000
1008.868, 6507.000
1009.980, 6524.000
1011.092, 6675.000
1012.203, 6540.000
1013.314, 6680.000
1014.425, 6528.000
1015.536, 6762.000
1016.647, 6659.000
1017.758, 6641.000
1018.868, 6662.000
1019.978, 6698.000
1021.088, 6627.000
1022.198, 6610.000
1023.308, 6603.000
1024.418, 6562.000
1025.527, 6535.000
1026.637, 6610.000
1027.746, 6546.000
1028.855, 6663.000
1029.963, 6665.000
1031.072, 6626.000
1032.181, 6639.000
1033.289, 6665.000
1034.397, 6619.000
1035.505, 6624.000
1036.613, 6641.000
1037.721, 6586.000
1038.828, 6611.000
1039.935, 6485.000
1041.043, 6475.000
1042.150, 6476.000
1043.257, 6358.000
1044.363, 6376.000
1045.470, 6385.000
1046.576, 6176.000
1047.682, 6222.000
1048.788, 6039.000
1049.894, 6079.000
1051.000, 6072.000
1052.106, 6026.000
1053.211, 6009.000
1054.316, 5974.000
1055.421, 5933.000
1056.526, 5933.000
1057.631, 5809.000
1058.736, 5770.000
1059.840, 5783.000
1060.944, 5805.000
1062.049, 5782.000
1063.153, 5778.395
1064.256, 5798.000
1065.360, 5729.000
1066.463, 5693.000
1067.567, 5649.000
1068.670, 5623.000
1069.773, 5605.077
1070.876, 5571.292
1071.978, 5591.000
1073.081, 5541.000
1074.183, 5546.000
1075.285, 5579.000
1076.387, 5521.000
1077.489, 5546.000
1078.591, 5581.000
1079.692, 5577.000
1080.794, 5532.000
1081.895, 5644.000
1082.996, 5508.000
1084.097, 5591.000
1085.198, 5639.000
1086.298, 5581.000
1087.399, 5568.000
1088.499, 5546.000
1089.599, 5535.000
1090.699, 5588.000
1091.799, 5541.000
1092.898, 5568.000
1093.998, 5567.000
1095.097, 5509.000
1096.196, 5562.000
1097.295, 5542.000
1098.394, 5438.000
1099.492, 5579.000
1100.591, 5525.000
1101.689, 5536.000
1102.787, 5588.000
1103.885, 5493.000
1104.983, 5491.000
1106.081, 5500.000
1107.178, 5488.000
1108.275, 5559.000
1109.373, 5527.000
1110.470, 5545.000
1111.566, 5568.000
1112.663, 5553.099
1113.760, 5531.000
1114.856, 5562.000
1115.952, 5504.000
1117.048, 5525.000
1118.144, 5536.741
1119.240, 5551.000
1120.335, 5570.000
1121.431, 5500.000
1122.526, 5494.000
1123.621, 5496.000
1124.716, 5547.000
1125.810, 5476.000
1126.905, 5578.000
1127.999, 5494.000
1129.094, 5499.000
1130.188, 5560.000
1131.282, 5418.000
1132.375, 5509.000
1133.469, 5529.000
1134.562, 5569.000
1135.656, 5543.000
1136.749, 5533.000
1137.842, 5546.041
1138.935, 5530.000
1140.027, 5535.000
1141.120, 5517.000
1142.212, 5478.000
1143.304, 5474.000
1144.396, 5531.000
1145.488, 5563.000
1146.579, 5455.000
1147.671, 5552.000
1148.762, 5383.000
1149.853, 5487.000
1150.944, 5582.000
1152.035, 5541.000
1153.126, 5519.000
1154.216, 5513.000
1155.307, 5465.000
1156.397, 5487.000
1157.487, 5488.984
1158.577, 5530.000
1159.667, 5524.000
1160.756, 5569.000
1161.846, 5577.000
1162.935, 5489.000
1164.024, 5565.000
1165.113, 5558.000
1166.201, 5591.000
1167.290, 5639.000
1168.378, 5596.000
1169.467, 5554.000
1170.555, 5638.226
1171.643, 5688.303
1172.730, 5720.184
1173.818, 5734.861
1174.905, 5680.765
1175.993, 5715.472
1177.080, 5714.585
1178.167, 5712.240
1179.254, 5759.437
1180.340, 5715.334
1181.427, 5761.745
1182.513, 5633.000
1183.599, 5677.000
1184.685, 5683.000
1185.771, 5685.000
1186.856, 5749.000
1187.942, 5651.000
1189.027, 5775.000
1190.112, 5668.000
1191.197, 5617.000
1192.282, 5665.000
1193.367, 5664.000
1194.451, 5722.000
1195.536, 5743.000
1196.620, 5653.000
1197.704, 5766.000
1198.788, 5737.000
1199.872, 5693.000
1200.955, 5724.000
1202.039, 5670.000
1203.122, 5679.184
1204.205, 5699.000
1205.288, 5678.000
1206.370, 5678.000
1207.453, 5675.000
1208.535, 5707.000
1209.618, 5698.000
1210.700, 5694.000
1211.782, 5669.000
1212.863, 5673.000
1213.945, 5690.000
1215.026, 5722.000
1216.108, 5751.000
1217.189, 5625.000
1218.270, 5606.000
1219.351, 5651.000
1220.431, 5739.000
1221.512, 5691.000
1222.592, 5733.000
1223.672, 5678.000
1224.752, 5568.000
1225.832, 5678.000
1226.911, 5603.000
1227.991, 5691.000
1229.070, 5520.000
1230.149, 5690.000
1231.228, 5697.000
1232.307, 5679.000
1233.386, 5579.000
1234.464, 5596.000
1235.543, 5577.000
1236.621, 5650.000
1237.699, 5745.000
1238.777, 5696.000
1239.855, 5526.000
1240.932, 5561.000
1242.009, 5603.000
1243.087, 5695.000
1244.164, 5663.000
1245.241, 5685.000
1246.317, 5514.000
1247.394, 5663.000
1248.470, 5590.000
1249.546, 5583.000
1250.623, 5624.000
1251.698, 5601.000
1252.774, 5593.000
1253.850, 5590.000
1254.925, 5639.000
1256.000, 5579.000
1257.076, 5663.000
1258.150, 5682.000
1259.225, 5667.000
1260.300, 5558.000
1261.374, 5603.000
1262.449, 5640.000
1263.523, 5561.000
1264.597, 5643.000
1265.670, 5604.000
1266.744, 5660.000
1267.818, 5650.000
1268.891, 5678.000
1269.964, 5689.000
1271.037, 5684.000
1272.110, 5646.000
1273.183, 5661.000
1274.255, 5674.000
1275.327, 5651.000
1276.400, 5545.000
1277.472, 5572.000
1278.543, 5622.000
1279.615, 5773.000
1280.687, 5757.000
1281.758, 5717.000
1282.829, 5802.000
1283.900, 5774.000
1284.971, 5662.000
1286.042, 5713.000
1287.112, 5808.000
1288.183, 5701.000
1289.253, 5735.000
1290.323, 5760.000
1291.393, 5865.000
1292.463, 5792.000
1293.532, 5825.000
1294.602, 5791.000
1295.671, 5850.000
1296.740, 5781.000
1297.809, 5813.000
1298.878, 5796.147
1299.946, 5848.004
1301.015, 5881.680
1302.083, 5898.135
1303.151, 5845.825
1304.219, 5882.311
1305.287, 5883.211
1306.354, 5882.643
1307.422, 5931.625
1308.489, 5889.308
1309.556, 5937.496
1310.623, 5949.556
1311.690, 5978.149
1312.757, 5970.939
1313.823, 5974.779
1314.890, 6014.444
1315.956, 6034.269
1317.022, 6022.927
1318.088, 6052.563
1319.153, 6008.976
1320.219, 6003.000
1321.284, 5933.000
1322.349, 5933.000
1323.414, 5975.000
1324.479, 5991.000
1325.544, 5960.000
1326.608, 6003.000
1327.673, 5998.044
1328.737, 5928.000
1329.801, 5993.000
1330.865, 6079.000
1331.929, 6029.000
1332.992, 6052.000
1334.056, 6102.000
1335.119, 6082.368
1336.182, 6063.324
1337.245, 6144.000
1338.308, 5976.000
1339.370, 6084.000
1340.433, 6057.000
1341.495, 5959.000
1342.557, 6039.000
1343.619, 6038.000
1344.681, 6038.000
1345.742, 6039.000
1346.804, 6031.071
1347.865, 6040.000
1348.926, 6009.000
1349.987, 6049.000
1351.048, 6030.000
1352.108, 6027.000
1353.169, 6136.000
1354.229, 6093.531
1355.289, 6131.000
1356.349, 6049.000
1357.409, 6104.000
1358.469, 5994.000
1359.528, 6065.000
1360.588, 6011.000
1361.647, 5980.000
1362.706, 5961.000
1363.765, 5956.000
1364.823, 5961.000
1365.882, 6025.000
1366.940, 5984.000
1367.998, 5910.000
1369.056, 5985.000
1370.114, 5854.000
1371.172, 5899.000
1372.229, 6050.000
1373.287, 6009.000
1374.344, 6013.000
1375.401, 5940.000
1376.458, 5988.000
1377.515, 5946.000
1378.571, 5849.000
1379.628, 5910.000
1380.684, 5856.000
1381.740, 5962.000
1382.796, 5887.000
1383.852, 5904.000
1384.907, 5916.000
1385.963, 5860.000
1387.018, 5852.000
1388.073, 5954.000
1389.128, 5911.000
1390.183, 5853.000
1391.237, 5803.000
1392.292, 5878.000
1393.346, 5816.000
1394.400, 5813.000
1395.454, 5880.000
1396.508, 5809.000
1397.562, 5737.000
1398.615, 5788.000
1399.668, 5885.000
1400.722, 5801.000
1401.775, 5838.000
1402.827, 5913.000
1403.880, 5799.000
1404.933, 5837.000
1405.985, 5835.000
1407.037, 5786.000
1408.089, 5699.000
1409.141, 5751.000
1410.193, 5713.395
1411.244, 5774.000
1412.295, 5751.000
1413.347, 5740.000
1414.398, 5806.000
1415.449, 5746.000
1416.499, 5875.000
1417.550, 5791.601
1418.600, 5771.000
1419.650, 5684.000
1420.700, 5768.000
1421.750, 5746.000
1422.800, 5775.000
1423.850, 5823.000
1424.899, 5779.000
1425.948, 5807.000
1426.997, 5728.000
1428.046, 5776.000
1429.095, 5830.000
1430.144, 5760.000
1431.192, 5765.000
1432.240, 5794.000
1433.288, 5794.000
1434.336, 5762.000
1435.384, 5838.000
1436.432, 5782.000
1437.479, 5744.000
1438.526, 5775.000
1439.574, 5828.000
1440.621, 5832.000
1441.667, 5849.000
1442.714, 5833.000
1443.760, 5801.000
1444.807, 5843.000
1445.853, 5833.000
1446.899, 5780.000
1447.945, 5759.000
1448.990, 5818.000
1450.036, 5866.000
1451.081, 5848.000
1452.126, 5739.000
1453.171, 5882.000
1454.216, 5853.000
1455.261, 5764.000
1456.305, 5828.000
1457.350, 5852.000
1458.394, 5797.000
1459.438, 5895.000
1460.482, 5825.000
1461.526, 5845.000
1462.569, 5885.000
1463.612, 5770.000
1464.656, 5768.000
1465.699, 5807.000
1466.742, 5852.000
1467.784, 5895.000
1468.827, 5845.000
1469.869, 5869.000
1470.912, 5790.000
1471.954, 5783.000
1472.996, 5819.000
1474.037, 5808.000
1475.079, 5833.000
1476.120, 5861.000
1477.162, 5832.679
1478.203, 5877.169
1479.244, 5903.469
1480.284, 5912.554
1481.325, 5852.877
1482.365, 5881.993
1483.406, 5875.526
1484.446, 5867.598
1485.486, 5909.210
1486.526, 5859.533
1487.565, 5900.357
1488.605, 5905.057
1489.644, 5926.289
1490.683, 5911.715
1491.722, 5908.201
1492.761, 5940.503
1493.800, 5952.973
1494.838, 5934.275
1495.876, 5956.555
1496.915, 5868.000
1497.953, 5881.266
1498.990, 6006.000
1500.028, 5909.000
1501.066, 5920.000
1502.103, 5920.000
1503.140, 5815.000
1504.177, 5910.000
1505.214, 5915.000
1506.251, 6032.000
1507.287, 5902.000
1508.324, 5938.000
1509.360, 5846.000
1510.396, 5901.000
1511.432, 5874.862
1512.468, 5968.000
1513.503, 5884.000
1514.538, 5912.000
1515.574, 5965.000
1516.609, 5902.000
1517.644, 5906.000
1518.678, 5932.000
1519.713, 5882.000
1520.747, 5999.000
1521.782, 6050.000
1522.816, 6009.000
1523.850, 5932.000
1524.883, 6012.000
1525.917, 6041.000
1526.951, 5998.000
1527.984, 5987.000
1529.017, 5992.000
1530.050, 6016.000
1531.083, 6045.000
1532.115, 6028.000
1533.148, 6013.000
1534.180, 6093.000
1535.212, 6073.000
1536.244, 6060.000
1537.276, 6061.000
1538.308, 6041.415
1539.339, 5976.000
1540.370, 6021.000
1541.402, 6099.000
1542.433, 6108.000
##END=



