##NAMES=Aenigmatite
##RRUFFID=R061088
##IDEAL CHEMISTRY=Na_4_(Fe^2+^_10_Ti^4+^_2_)O_4_[Si_12_O_36_]
##LOCALITY=Naujakasik, Greenland
##OWNER=RRUFF
##SOURCE=Michael Scott
##DESCRIPTION=Black prismatic crystals
##STATUS=The identification of this mineral has been confirmed by X-ray diffraction and chemical analysis
##URL=rruff.info/R061088
##MEASURED CHEMISTRY=(Na_1.72_Ca_0.28_)_Σ=2_(Fe^2+^_4.90_Mn_0.08_Mg_0.02_)_Σ=5_(Ti_0.85_Al_0.14_Fe^3+^_0.01_)_Σ=1_(Si_5.87_Al_0.13_)_Σ=6_O_20_
##PIN_ID=L01708
##ORIENTATION=Laser parallel to -a* (-1 0 0). Fiducial mark perpendicular to laser is parallel to b [0 1 0]
143.8540, 42104.00
145.0840, 42221.00
146.3140, 41704.00
147.5440, 41909.00
148.7730, 41814.00
150.0020, 41759.00
151.2320, 41534.00
152.4610, 41554.22
153.6900, 41325.00
154.9180, 41502.00
156.1470, 41578.00
157.3750, 41533.00
158.6040, 41648.41
159.8320, 41746.64
161.0600, 41788.32
162.2870, 42029.61
163.5150, 42236.21
164.7420, 42409.72
165.9700, 42451.72
167.1970, 42458.00
168.4240, 42798.00
169.6510, 42851.00
170.8770, 42775.00
172.1040, 42407.00
173.3300, 42015.00
174.5560, 41825.00
175.7820, 41207.00
177.0080, 40853.00
178.2340, 40440.00
179.4590, 39985.84
180.6850, 39604.67
181.9100, 39254.00
183.1350, 38974.00
184.3600, 38767.00
185.5850, 38664.17
186.8090, 38589.62
188.0340, 38694.00
189.2580, 38646.00
190.4820, 38851.00
191.7060, 38995.00
192.9300, 39009.00
194.1530, 39092.00
195.3770, 39168.38
196.6000, 38996.71
197.8230, 39049.77
199.0460, 39041.84
200.2690, 38974.80
201.4910, 38750.05
202.7140, 38669.05
203.9360, 38493.91
205.1580, 37927.00
206.3800, 37482.00
207.6020, 37121.00
208.8240, 36673.00
210.0450, 36622.00
211.2670, 36860.00
212.4880, 37031.00
213.7090, 36735.00
214.9300, 36522.00
216.1510, 36594.00
217.3710, 36739.00
218.5920, 36789.00
219.8120, 36849.69
221.0320, 36762.95
222.2520, 36901.15
223.4720, 37006.40
224.6910, 36979.93
225.9110, 37123.53
227.1300, 37198.93
228.3490, 37271.54
229.5680, 37508.20
230.7870, 37320.00
232.0050, 37716.00
233.2240, 37871.00
234.4420, 37762.00
235.6600, 37658.00
236.8780, 37560.00
238.0960, 37716.00
239.3140, 37783.00
240.5310, 37622.00
241.7490, 37300.00
242.9660, 37404.00
244.1830, 37237.00
245.4000, 37288.00
246.6160, 37405.00
247.8330, 36960.25
249.0490, 37231.21
250.2660, 37362.85
251.4820, 37362.72
252.6980, 36836.01
253.9130, 36989.31
255.1290, 36870.07
256.3440, 36739.69
257.5600, 36988.66
258.7750, 36538.57
259.9900, 36781.57
261.2040, 36747.93
262.4190, 36840.88
263.6330, 36659.69
264.8480, 36810.00
266.0620, 36436.00
267.2760, 36848.00
268.4900, 36822.87
269.7030, 37148.00
270.9170, 36932.00
272.1300, 36838.00
273.3430, 36618.00
274.5560, 36586.00
275.7690, 36702.00
276.9820, 36758.00
278.1940, 36797.34
279.4070, 36756.69
280.6190, 36879.22
281.8310, 36972.46
283.0430, 36948.69
284.2550, 37076.02
285.4660, 37142.73
286.6770, 37206.95
287.8890, 37355.55
289.1000, 37348.73
290.3110, 37495.93
291.5210, 37586.00
292.7320, 37610.94
293.9420, 37953.00
295.1530, 37802.00
296.3630, 38214.00
297.5730, 38371.00
298.7830, 38686.00
299.9920, 39004.00
301.2020, 39273.00
302.4110, 39611.16
303.6200, 39953.00
304.8290, 40267.00
306.0380, 40621.00
307.2470, 40970.00
308.4550, 41411.00
309.6630, 41822.00
310.8720, 42024.35
312.0800, 42246.51
313.2880, 42309.00
314.4950, 42314.00
315.7030, 42229.00
316.9100, 41915.00
318.1170, 41825.44
319.3240, 41456.00
320.5310, 41151.00
321.7380, 41048.00
322.9450, 40152.48
324.1510, 39909.00
325.3570, 39212.00
326.5630, 38969.00
327.7690, 38586.00
328.9750, 38068.00
330.1810, 37682.00
331.3860, 37384.00
332.5910, 36967.00
333.7960, 37195.00
335.0010, 36748.00
336.2060, 36365.00
337.4110, 36662.00
338.6150, 36192.00
339.8200, 36347.00
341.0240, 36404.00
342.2280, 36041.00
343.4320, 36258.00
344.6350, 35947.00
345.8390, 36155.00
347.0420, 36334.00
348.2450, 36277.00
349.4480, 36378.55
350.6510, 36563.00
351.8540, 36569.00
353.0560, 36618.00
354.2590, 36839.65
355.4610, 37181.00
356.6630, 37350.00
357.8650, 37741.00
359.0670, 37974.38
360.2680, 38182.13
361.4700, 38461.80
362.6710, 38688.16
363.8720, 38863.05
365.0730, 38898.74
366.2740, 39008.47
367.4740, 39027.82
368.6750, 39016.18
369.8750, 38975.29
371.0750, 38817.38
372.2750, 38810.57
373.4750, 38743.21
374.6740, 38673.41
375.8740, 38687.87
377.0730, 38547.03
378.2720, 38605.22
379.4710, 38534.07
380.6700, 38456.57
381.8690, 38476.89
383.0670, 38307.48
384.2660, 38319.48
385.4640, 38254.40
386.6620, 38219.74
387.8600, 38108.61
389.0570, 37903.00
390.2550, 38208.00
391.4520, 37879.00
392.6490, 37983.00
393.8460, 37811.00
395.0430, 37778.00
396.2400, 37783.00
397.4370, 37598.00
398.6330, 37391.00
399.8290, 37429.00
401.0250, 37426.00
402.2210, 37438.00
403.4170, 37174.00
404.6130, 37256.44
405.8080, 37129.99
407.0030, 37118.25
408.1980, 37014.59
409.3930, 37169.98
410.5880, 37288.23
411.7830, 37371.32
412.9770, 37313.94
414.1720, 37437.94
415.3660, 37489.21
416.5600, 37537.50
417.7530, 37846.00
418.9470, 37913.00
420.1410, 38423.63
421.3340, 38765.58
422.5270, 39048.27
423.7200, 39273.71
424.9130, 39521.72
426.1060, 39714.95
427.2980, 39932.00
428.4900, 40068.00
429.6830, 40278.00
430.8750, 40449.00
432.0670, 40365.00
433.2580, 40303.00
434.4500, 40419.00
435.6410, 40392.00
436.8320, 40454.57
438.0240, 40446.84
439.2140, 40560.00
440.4050, 40446.00
441.5960, 40443.00
442.7860, 40527.00
443.9760, 40352.00
445.1670, 40161.00
446.3560, 40202.00
447.5460, 39696.00
448.7360, 39537.00
449.9250, 39155.00
451.1150, 39188.00
452.3040, 38683.00
453.4930, 38558.00
454.6810, 38245.00
455.8700, 38066.00
457.0590, 38026.47
458.2470, 38169.00
459.4350, 37976.00
460.6230, 37914.00
461.8110, 37854.00
462.9980, 37889.00
464.1860, 37683.00
465.3730, 37833.00
466.5600, 37520.00
467.7470, 37816.00
468.9340, 37585.00
470.1210, 37991.00
471.3080, 37962.00
472.4940, 37826.00
473.6800, 37908.00
474.8660, 38117.00
476.0520, 38064.00
477.2380, 38079.00
478.4230, 37835.21
479.6090, 38200.52
480.7940, 38426.50
481.9790, 38520.67
483.1640, 38088.26
484.3490, 38335.82
485.5330, 38310.84
486.7180, 38274.73
487.9020, 38617.95
489.0860, 38262.09
490.2700, 38599.30
491.4540, 38659.85
492.6370, 38846.98
493.8210, 38759.96
495.0040, 38757.59
496.1870, 39029.50
497.3700, 39149.53
498.5530, 39030.91
499.7360, 39226.09
500.9180, 38860.57
502.1000, 38987.04
503.2830, 39325.81
504.4650, 39220.93
505.6460, 39421.04
506.8280, 39505.02
508.0100, 39346.00
509.1910, 39407.85
510.3720, 39675.00
511.5530, 39859.00
512.7340, 39991.00
513.9150, 40404.00
515.0950, 40143.00
516.2760, 40614.00
517.4560, 40529.00
518.6360, 40897.00
519.8160, 40885.18
520.9950, 41099.90
522.1750, 41283.79
523.3540, 41438.28
524.5340, 41475.86
525.7130, 41664.43
526.8920, 41792.45
528.0700, 41917.85
529.2490, 42069.00
530.4270, 42126.61
531.6060, 42208.00
532.7840, 42239.00
533.9620, 42200.00
535.1390, 42241.48
536.3170, 42473.00
537.4940, 42316.00
538.6720, 42614.00
539.8490, 42634.00
541.0260, 42643.00
542.2030, 42382.00
543.3790, 42310.00
544.5560, 42133.00
545.7320, 42248.00
546.9080, 42425.00
548.0840, 42438.00
549.2600, 42503.00
550.4360, 42203.00
551.6110, 42207.00
552.7860, 42291.00
553.9620, 42606.00
555.1370, 42420.00
556.3110, 42568.00
557.4860, 42328.00
558.6610, 42458.00
559.8350, 42511.00
561.0090, 42721.00
562.1830, 42836.00
563.3570, 42809.78
564.5310, 42627.50
565.7040, 42664.26
566.8780, 42617.31
568.0510, 42399.02
569.2240, 42277.50
570.3970, 42457.00
571.5700, 42464.00
572.7420, 42361.00
573.9150, 42286.00
575.0870, 42168.00
576.2590, 41823.00
577.4310, 41562.00
578.6030, 41414.00
579.7740, 40930.00
580.9460, 40745.00
582.1170, 40267.00
583.2880, 39963.40
584.4590, 39384.00
585.6300, 39404.00
586.8010, 39155.00
587.9710, 39086.00
589.1410, 38922.00
590.3110, 38864.92
591.4810, 38748.00
592.6510, 38837.00
593.8210, 38892.00
594.9900, 38957.00
596.1600, 39002.00
597.3290, 38978.00
598.4980, 39345.00
599.6670, 39638.00
600.8350, 39565.00
602.0040, 39954.00
603.1720, 39727.00
604.3400, 40507.00
605.5080, 40593.00
606.6760, 41445.00
607.8440, 41423.74
609.0120, 41481.45
610.1790, 41390.00
611.3460, 41517.00
612.5130, 41363.00
613.6800, 41927.00
614.8470, 41826.00
616.0130, 42334.00
617.1800, 42525.00
618.3460, 42672.00
619.5120, 43076.00
620.6780, 43342.00
621.8440, 43651.00
623.0090, 43902.00
624.1750, 44489.00
625.3400, 45008.00
626.5050, 45846.00
627.6700, 46071.00
628.8350, 46679.00
629.9990, 47519.00
631.1640, 48477.00
632.3280, 49917.00
633.4920, 50837.00
634.6560, 52151.00
635.8200, 53994.00
636.9840, 55581.00
638.1470, 57360.00
639.3100, 59153.00
640.4730, 61659.00
641.6360, 64160.00
642.7990, 66286.00
643.9620, 68563.00
645.1240, 70622.00
646.2870, 72672.00
647.4490, 73961.00
648.6110, 75341.00
649.7730, 75272.00
650.9340, 75443.00
652.0960, 75416.00
653.2570, 74834.00
654.4180, 74425.00
655.5790, 73916.00
656.7400, 72411.00
657.9010, 72139.00
659.0620, 70777.00
660.2220, 69590.00
661.3820, 68657.00
662.5420, 67250.00
663.7020, 66192.00
664.8620, 64934.00
666.0210, 63963.93
667.1810, 63070.00
668.3400, 62194.34
669.4990, 61406.69
670.6580, 60669.00
671.8170, 60208.04
672.9750, 59870.00
674.1340, 59580.00
675.2920, 59477.19
676.4500, 59433.13
677.6080, 59354.25
678.7660, 59242.41
679.9230, 58999.04
681.0810, 58925.55
682.2380, 58784.04
683.3950, 58639.74
684.5520, 58590.28
685.7090, 58361.00
686.8660, 58428.00
688.0220, 58380.00
689.1780, 58164.00
690.3340, 58012.78
691.4900, 57687.00
692.6460, 57400.00
693.8020, 57001.00
694.9570, 56505.00
696.1130, 55527.00
697.2680, 54763.00
698.4230, 53832.82
699.5780, 53051.00
700.7320, 51895.00
701.8870, 51255.00
703.0410, 50474.00
704.1950, 49231.82
705.3490, 48327.00
706.5030, 46988.00
707.6570, 46354.00
708.8110, 45608.00
709.9640, 45061.00
711.1170, 44461.00
712.2700, 44084.00
713.4230, 43698.00
714.5760, 43144.00
715.7280, 42767.00
716.8810, 42582.00
718.0330, 42133.00
719.1850, 41892.43
720.3370, 41550.00
721.4890, 41317.00
722.6400, 41098.00
723.7920, 40896.26
724.9430, 40607.21
726.0940, 40616.98
727.2450, 40591.93
728.3960, 40533.93
729.5460, 40344.34
730.6970, 40324.68
731.8470, 40236.96
732.9970, 40146.44
734.1470, 40150.77
735.2970, 39980.33
736.4460, 39983.21
737.5960, 39916.88
738.7450, 39882.25
739.8940, 39779.08
741.0430, 39697.08
742.1920, 39683.65
743.3410, 39632.25
744.4890, 39521.25
745.6370, 39488.69
746.7850, 39315.98
747.9330, 39266.26
749.0810, 39269.60
750.2290, 39174.00
751.3760, 39282.00
752.5240, 39041.00
753.6710, 39008.00
754.8180, 38843.00
755.9650, 38920.00
757.1110, 38748.00
758.2580, 38708.75
759.4040, 38761.32
760.5510, 38780.64
761.6970, 38768.65
762.8420, 38626.63
763.9880, 38656.20
765.1340, 38619.25
766.2790, 38581.12
767.4240, 38639.45
768.5690, 38524.61
769.7140, 38584.65
770.8590, 38577.12
772.0030, 38602.86
773.1480, 38561.66
774.2920, 38543.23
775.4360, 38594.97
776.5800, 38610.35
777.7240, 38567.67
778.8670, 38605.04
780.0110, 38503.84
781.1540, 38527.24
782.2970, 38605.30
783.4400, 38574.07
784.5830, 38620.69
785.7250, 38639.86
786.8680, 38649.00
788.0100, 38629.00
789.1520, 38741.00
790.2940, 38739.00
791.4360, 38684.00
792.5780, 38997.00
793.7190, 38973.00
794.8600, 38659.00
796.0010, 38916.00
797.1420, 39066.00
798.2830, 38881.00
799.4240, 39030.00
800.5640, 39255.00
801.7050, 38953.00
802.8450, 39192.00
803.9850, 39100.00
805.1250, 38989.00
806.2640, 39012.00
807.4040, 39114.00
808.5430, 39075.00
809.6820, 39002.00
810.8210, 39222.00
811.9600, 39523.00
813.0990, 39407.73
814.2370, 39370.00
815.3760, 39327.00
816.5140, 39292.00
817.6520, 39207.00
818.7900, 39673.00
819.9270, 39433.00
821.0650, 39804.00
822.2020, 39720.00
823.3390, 39932.00
824.4760, 39959.00
825.6130, 40154.00
826.7500, 40270.00
827.8870, 40309.65
829.0230, 40174.00
830.1590, 40376.00
831.2950, 40293.00
832.4310, 40257.00
833.5670, 40382.00
834.7030, 40805.00
835.8380, 40601.00
836.9730, 41068.00
838.1080, 40780.00
839.2430, 40999.00
840.3780, 40896.00
841.5130, 41348.00
842.6470, 41279.83
843.7810, 41465.00
844.9150, 41295.00
846.0490, 41517.00
847.1830, 41426.00
848.3170, 41601.63
849.4500, 41665.00
850.5830, 41909.00
851.7160, 41866.00
852.8490, 41868.00
853.9820, 42139.00
855.1150, 42362.00
856.2470, 42428.00
857.3800, 42973.00
858.5120, 42869.00
859.6440, 43089.00
860.7760, 43115.00
861.9070, 43463.00
863.0390, 43376.00
864.1700, 43497.00
865.3010, 44030.00
866.4320, 43862.00
867.5630, 44117.00
868.6940, 44634.00
869.8240, 44560.00
870.9540, 44927.00
872.0850, 45048.00
873.2150, 45291.00
874.3450, 45666.29
875.4740, 45835.33
876.6040, 46446.00
877.7330, 46436.00
878.8620, 46876.00
879.9910, 47411.00
881.1200, 47920.00
882.2490, 48103.00
883.3770, 48777.00
884.5060, 48904.00
885.6340, 49034.00
886.7620, 49699.00
887.8900, 50031.00
889.0180, 50070.57
890.1450, 50384.27
891.2730, 50555.58
892.4000, 50586.16
893.5270, 50560.13
894.6540, 50387.00
895.7810, 50183.00
896.9070, 49848.00
898.0340, 49481.03
899.1600, 49056.31
900.2860, 48504.00
901.4120, 48096.00
902.5380, 47490.00
903.6630, 47049.00
904.7890, 46687.00
905.9140, 46415.00
907.0390, 46148.00
908.1640, 45822.00
909.2890, 45537.00
910.4130, 45269.32
911.5380, 44966.16
912.6620, 44744.87
913.7860, 44417.95
914.9100, 44326.47
916.0340, 44208.68
917.1580, 44066.47
918.2810, 43801.26
919.4040, 43714.55
920.5280, 43568.11
921.6510, 43427.51
922.7730, 43390.35
923.8960, 43186.83
925.0180, 43165.16
926.1410, 43082.75
927.2630, 43040.56
928.3850, 42938.32
929.5070, 42865.74
930.6280, 42870.27
931.7500, 42798.94
932.8710, 42989.00
933.9920, 42794.00
935.1130, 42784.00
936.2340, 42913.00
937.3550, 42676.00
938.4760, 42957.00
939.5960, 42641.00
940.7160, 42916.00
941.8360, 42570.00
942.9560, 42634.00
944.0760, 42646.00
945.1950, 42811.00
946.3150, 42563.00
947.4340, 42528.00
948.5530, 42565.00
949.6720, 42833.00
950.7900, 42974.00
951.9090, 43017.34
953.0270, 42821.00
954.1460, 43169.00
955.2640, 42928.95
956.3820, 43113.10
957.4990, 42915.00
958.6170, 42919.00
959.7340, 42962.00
960.8520, 42803.00
961.9690, 42933.00
963.0860, 43022.00
964.2020, 43173.00
965.3190, 43141.00
966.4350, 43184.00
967.5520, 43135.38
968.6680, 42945.00
969.7840, 42919.00
970.8990, 42819.29
972.0150, 42606.00
973.1310, 42744.00
974.2460, 42682.00
975.3610, 42690.00
976.4760, 42772.00
977.5910, 42727.00
978.7050, 42572.00
979.8200, 42862.00
980.9340, 42513.00
982.0480, 42611.00
983.1620, 42655.00
984.2760, 42683.00
985.3900, 42852.00
986.5030, 42635.00
987.6160, 42557.00
988.7300, 42706.00
989.8430, 42798.00
990.9550, 42608.00
992.0680, 42426.00
993.1810, 42701.00
994.2930, 42485.82
995.4050, 42413.15
996.5170, 42404.00
997.6290, 42112.00
998.7410, 42079.00
999.8520, 41917.00
1000.964, 41851.00
1002.075, 41805.00
1003.186, 41794.00
1004.297, 41585.00
1005.407, 42028.00
1006.518, 42038.00
1007.628, 41427.00
1008.738, 41709.00
1009.848, 41398.00
1010.958, 41514.00
1012.068, 41332.00
1013.178, 41317.00
1014.287, 41622.00
1015.396, 41781.00
1016.505, 41550.00
1017.614, 41556.00
1018.723, 41685.00
1019.831, 41786.00
1020.940, 42036.00
1022.048, 41806.00
1023.156, 41629.00
1024.264, 41878.00
1025.372, 42020.00
1026.479, 41950.00
1027.587, 41942.00
1028.694, 42165.00
1029.801, 41895.00
1030.908, 42079.00
1032.015, 42075.00
1033.121, 42238.00
1034.228, 42241.00
1035.334, 42217.98
1036.440, 42230.59
1037.546, 42185.00
1038.652, 42237.00
1039.758, 42373.00
1040.863, 42616.00
1041.968, 42474.00
1043.074, 42440.00
1044.178, 42196.00
1045.283, 42210.34
1046.388, 42342.00
1047.492, 42226.00
1048.597, 42249.00
1049.701, 42385.00
1050.805, 42106.00
1051.909, 42095.00
1053.012, 42132.00
1054.116, 42099.00
1055.219, 42038.70
1056.322, 42027.00
1057.425, 41809.46
1058.528, 41752.00
1059.631, 41502.00
1060.733, 41694.00
1061.836, 41452.00
1062.938, 41602.00
1064.040, 41655.00
1065.142, 41716.00
1066.243, 41767.00
1067.345, 41363.00
1068.446, 41496.00
1069.547, 41372.00
1070.648, 41266.00
1071.749, 41694.00
1072.850, 41196.00
1073.951, 41532.00
1075.051, 41154.00
1076.151, 41409.00
1077.251, 41219.00
1078.351, 41512.00
1079.451, 41131.00
1080.550, 40928.00
1081.650, 41202.00
1082.749, 40916.24
1083.848, 41077.48
1084.947, 40945.00
1086.046, 40985.00
1087.144, 40980.91
1088.243, 40681.00
1089.341, 40945.00
1090.439, 41030.00
1091.537, 41038.00
1092.635, 40832.00
1093.732, 40844.00
1094.830, 40793.00
1095.927, 41174.00
1097.024, 40917.00
1098.121, 41064.00
1099.218, 40703.00
1100.314, 41008.00
1101.411, 40656.00
1102.507, 41154.00
1103.603, 41161.00
1104.699, 41005.00
1105.795, 40748.00
1106.890, 40876.59
1107.986, 40804.51
1109.081, 41003.00
1110.176, 40986.00
1111.271, 41000.00
1112.366, 41217.00
1113.461, 41187.89
1114.555, 41214.00
1115.649, 41235.00
1116.744, 41086.46
1117.838, 40976.00
1118.931, 40805.00
1120.025, 40853.00
1121.119, 41060.00
1122.212, 40944.38
1123.305, 40987.30
1124.398, 40894.00
1125.491, 40948.00
1126.584, 40839.00
1127.676, 40919.00
1128.768, 40928.00
1129.861, 40937.00
1130.953, 40897.00
1132.044, 41083.00
1133.136, 40835.00
1134.228, 40777.23
1135.319, 40520.00
1136.410, 40604.00
1137.501, 40619.00
1138.592, 40922.00
1139.683, 40830.00
1140.773, 40864.00
1141.864, 40856.00
1142.954, 40804.00
1144.044, 40741.00
1145.134, 40871.00
1146.224, 40737.00
1147.313, 40834.00
1148.402, 40860.00
1149.492, 40976.00
1150.581, 40870.00
1151.670, 40655.00
1152.758, 40963.00
1153.847, 40854.00
1154.935, 40982.00
1156.024, 40738.00
1157.112, 40866.00
1158.200, 40802.00
1159.287, 40989.00
1160.375, 40915.00
1161.462, 40754.00
1162.550, 41000.00
1163.637, 40906.00
1164.724, 41147.00
1165.810, 41245.00
1166.897, 40979.00
1167.983, 41172.00
1169.070, 40931.00
1170.156, 41207.00
1171.242, 41259.00
1172.327, 41251.00
1173.413, 41222.00
1174.499, 41198.00
1175.584, 41106.00
1176.669, 41272.00
1177.754, 41182.00
1178.839, 41110.00
1179.923, 41731.00
1181.008, 41547.00
1182.092, 41466.00
1183.176, 41138.00
1184.260, 41579.00
1185.344, 41430.00
1186.428, 41389.00
1187.511, 41511.00
1188.595, 41478.36
1189.678, 41829.00
1190.761, 41550.00
1191.843, 41829.00
1192.926, 41759.00
1194.009, 41729.00
1195.091, 41662.00
1196.173, 42123.00
1197.255, 41886.00
1198.337, 41972.00
1199.419, 42041.00
1200.500, 41932.00
1201.582, 42040.20
1202.663, 42437.00
1203.744, 42045.00
1204.825, 42237.00
1205.905, 42084.00
1206.986, 41936.00
1208.066, 42190.00
1209.146, 41789.00
1210.226, 42585.00
1211.306, 42401.00
1212.386, 42074.00
1213.466, 41888.00
1214.545, 42204.00
1215.624, 42174.00
1216.703, 42121.00
1217.782, 42528.00
1218.861, 42260.20
1219.939, 42465.01
1221.018, 42576.95
1222.096, 42601.03
1223.174, 42274.05
1224.252, 42400.39
1225.330, 42345.05
1226.407, 42282.28
1227.485, 42472.42
1228.562, 42196.51
1229.639, 42382.65
1230.716, 42384.34
1231.793, 42470.45
1232.869, 42373.78
1233.946, 42333.56
1235.022, 42476.19
1236.098, 42396.00
1237.174, 42272.00
1238.250, 42218.00
1239.325, 42190.00
1240.401, 42142.00
1241.476, 42245.00
1242.551, 42304.00
1243.626, 42305.00
1244.701, 42495.00
1245.776, 42527.00
1246.850, 42664.00
1247.924, 42629.34
1248.999, 42637.00
1250.073, 42513.00
1251.146, 42499.00
1252.220, 42439.00
1253.293, 42469.00
1254.367, 42453.21
1255.440, 42463.00
1256.513, 42461.00
1257.586, 42443.07
1258.658, 42428.00
1259.731, 42398.00
1260.803, 42698.00
1261.875, 42574.00
1262.947, 42548.00
1264.019, 42852.00
1265.091, 42604.00
1266.162, 42741.00
1267.234, 42722.00
1268.305, 43002.00
1269.376, 43114.00
1270.447, 43119.00
1271.517, 43159.00
1272.588, 43443.00
1273.658, 43352.00
1274.729, 43567.00
1275.799, 43729.00
1276.868, 43625.00
1277.938, 43971.00
1279.008, 43968.00
1280.077, 44118.00
1281.146, 44191.72
1282.215, 44280.00
1283.284, 44237.00
1284.353, 44344.00
1285.421, 44369.00
1286.490, 44458.00
1287.558, 44726.00
1288.626, 44753.00
1289.694, 44886.50
1290.762, 45000.50
1291.829, 45010.00
1292.897, 45207.00
1293.964, 45170.00
1295.031, 45345.00
1296.098, 45557.00
1297.165, 45335.00
1298.231, 45538.00
1299.298, 45801.00
1300.364, 45580.00
1301.430, 45468.00
1302.496, 45499.00
1303.562, 45893.00
1304.627, 45718.00
1305.693, 45794.00
1306.758, 46067.00
1307.823, 45879.00
1308.888, 45432.00
1309.953, 45647.00
1311.018, 45431.15
1312.082, 46007.00
1313.146, 45491.00
1314.210, 45573.00
1315.274, 45860.00
1316.338, 45840.00
1317.402, 45913.00
1318.465, 45962.15
1319.529, 46052.00
1320.592, 45917.00
1321.655, 45806.00
1322.718, 45721.00
1323.780, 45803.00
1324.843, 45760.00
1325.905, 45478.00
1326.967, 45814.00
1328.029, 45754.00
1329.091, 45356.00
1330.153, 45564.00
1331.214, 45856.00
1332.275, 45753.00
1333.337, 45880.91
1334.398, 45520.00
1335.458, 45767.00
1336.519, 45875.00
1337.580, 45631.36
1338.640, 45303.00
1339.700, 45515.00
1340.760, 45506.00
1341.820, 45267.00
1342.880, 45484.00
1343.939, 45390.00
1344.999, 45202.00
1346.058, 45561.00
1347.117, 45162.00
1348.176, 45037.00
1349.235, 45010.00
1350.293, 44834.00
1351.351, 44815.00
1352.410, 44790.99
1353.468, 44725.56
1354.526, 44757.00
1355.583, 44720.00
1356.641, 44611.00
1357.698, 44678.00
1358.756, 44227.00
1359.813, 44647.00
1360.869, 44570.00
1361.926, 44172.00
1362.983, 44662.00
1364.039, 44309.00
1365.095, 44232.10
1366.152, 44134.00
1367.207, 44067.00
1368.263, 44095.00
1369.319, 44039.08
1370.374, 43865.00
1371.430, 44031.00
1372.485, 43843.00
1373.540, 43845.00
1374.594, 43522.00
1375.649, 44091.00
1376.703, 43784.00
1377.758, 43814.00
1378.812, 43953.00
1379.866, 43784.00
1380.920, 43877.80
1381.973, 43709.02
1383.027, 43749.00
1384.080, 43546.00
1385.133, 43143.00
1386.186, 43439.00
1387.239, 43276.00
1388.291, 43571.00
1389.344, 43423.00
1390.396, 43064.00
1391.448, 43188.00
1392.500, 43403.00
1393.552, 43285.00
1394.604, 43296.00
1395.655, 43216.00
1396.707, 43122.48
1397.758, 43116.00
1398.809, 42919.00
1399.860, 42979.00
1400.910, 42872.00
1401.961, 43027.00
1403.011, 42805.00
1404.061, 43309.00
1405.111, 42853.00
1406.161, 42847.00
1407.211, 42531.00
1408.260, 42693.00
1409.310, 42627.00
1410.359, 42838.00
1411.408, 42779.46
1412.457, 42714.34
1413.506, 42697.00
1414.554, 42639.00
1415.603, 42552.00
1416.651, 42815.00
1417.699, 42568.00
1418.747, 42693.00
1419.794, 42548.00
1420.842, 42780.00
1421.889, 42548.00
1422.937, 42575.00
1423.984, 42654.34
1425.031, 42366.00
1426.077, 42810.50
1427.124, 42541.00
1428.170, 42669.00
1429.217, 42269.00
1430.263, 42425.00
1431.309, 42388.00
1432.354, 42522.00
1433.400, 42354.00
1434.445, 42395.00
1435.491, 42369.00
1436.536, 42470.00
1437.581, 42474.00
1438.625, 42338.00
1439.670, 42297.00
1440.714, 42234.00
1441.759, 42181.62
1442.803, 42368.00
1443.847, 42207.00
1444.890, 42299.00
1445.934, 42506.00
1446.978, 42320.32
1448.021, 42418.44
1449.064, 42481.73
1450.107, 42512.07
1451.150, 42410.77
1452.192, 42479.44
1453.235, 42480.00
1454.277, 42477.76
1455.319, 42570.36
1456.361, 42488.18
1457.403, 42579.27
1458.445, 42601.20
1459.486, 42654.77
1460.528, 42639.80
1461.569, 42646.00
1462.610, 42720.75
1463.651, 42757.55
1464.691, 42734.66
1465.732, 42790.23
1466.772, 42705.63
1467.812, 42744.02
1468.852, 42835.48
1469.892, 42816.04
1470.932, 42872.85
1471.971, 42900.60
1473.011, 42796.38
1474.050, 42854.71
1475.089, 42933.79
1476.128, 42857.31
1477.166, 42886.76
1478.205, 42880.00
1479.243, 42888.00
1480.282, 43038.00
1481.320, 42990.00
1482.357, 42821.00
1483.395, 42993.00
1484.433, 43050.00
1485.470, 42808.00
1486.507, 42852.00
1487.544, 42942.92
1488.581, 43131.00
1489.618, 43152.00
1490.655, 43304.00
1491.691, 43261.00
1492.727, 43494.00
1493.763, 43244.00
1494.799, 43591.00
1495.835, 43772.00
1496.871, 43449.00
1497.906, 43523.00
1498.941, 43452.00
1499.976, 43719.00
1501.011, 43501.00
1502.046, 43584.00
1503.081, 43787.00
1504.115, 43821.00
1505.149, 43848.45
1506.183, 43882.00
1507.217, 43767.00
1508.251, 43763.00
1509.285, 43808.17
1510.318, 43943.00
1511.352, 43962.00
1512.385, 44030.00
1513.418, 44193.00
1514.450, 44127.00
1515.483, 44257.00
1516.516, 44000.00
1517.548, 44272.00
1518.580, 44431.00
1519.612, 44453.00
1520.644, 44264.00
1521.675, 44364.00
1522.707, 44349.00
1523.738, 44532.00
1524.769, 44666.00
1525.800, 44756.00
1526.831, 44622.00
1527.862, 44683.00
1528.892, 44753.00
1529.923, 44748.00
1530.953, 44851.00
1531.983, 44872.00
1533.013, 44825.00
1534.042, 45020.00
1535.072, 45021.00
1536.101, 44979.00
1537.131, 45258.00
1538.160, 45135.00
1539.188, 45309.00
1540.217, 45215.00
1541.246, 45102.00
1542.274, 45500.00
1543.302, 44971.06
1544.330, 45293.23
1545.358, 45476.11
1546.386, 45527.18
1547.413, 45051.66
1548.441, 45256.12
1549.468, 45188.07
1550.495, 45108.85
1551.522, 45409.01
1552.549, 45010.09
1553.575, 45304.22
1554.602, 45321.71
1555.628, 45465.80
1556.654, 45335.72
1557.680, 45290.32
1558.706, 45519.20
1559.731, 45596.20
1560.757, 45434.55
1561.782, 45586.70
1562.807, 45436.15
1563.832, 45231.00
1564.857, 45221.00
1565.881, 45018.00
1566.906, 44924.00
1567.930, 45017.00
##END=



