##NAMES=Aenigmatite
##RRUFFID=R061088
##IDEAL CHEMISTRY=Na_4_(Fe^2+^_10_Ti^4+^_2_)O_4_[Si_12_O_36_]
##LOCALITY=Naujakasik, Greenland
##OWNER=RRUFF
##SOURCE=Michael Scott
##DESCRIPTION=Black prismatic crystals
##STATUS=The identification of this mineral has been confirmed by X-ray diffraction and chemical analysis
##URL=rruff.info/R061088
##MEASURED CHEMISTRY=(Na_1.72_Ca_0.28_)_Σ=2_(Fe^2+^_4.90_Mn_0.08_Mg_0.02_)_Σ=5_(Ti_0.85_Al_0.14_Fe^3+^_0.01_)_Σ=1_(Si_5.87_Al_0.13_)_Σ=6_O_20_
##PIN_ID=L01708
##ORIENTATION=Laser parallel to -a* (-1 0 0). Fiducial mark perpendicular to laser is parallel to b [0 1 0]
135.2390, 44915.00
136.4710, 45052.00
137.7020, 45658.00
138.9320, 46506.00
140.1630, 46869.00
141.3930, 46844.00
142.6240, 46576.00
143.8540, 46784.00
145.0840, 47463.00
146.3140, 47917.00
147.5440, 48140.08
148.7730, 48613.00
150.0020, 48814.00
151.2320, 49220.00
152.4610, 49990.00
153.6900, 49377.00
154.9180, 50329.00
156.1470, 50661.00
157.3750, 50704.00
158.6040, 51252.00
159.8320, 52560.00
161.0600, 52600.00
162.2870, 53616.00
163.5150, 54495.00
164.7420, 54490.00
165.9700, 55154.89
167.1970, 55475.00
168.4240, 55528.00
169.6510, 55005.00
170.8770, 54789.00
172.1040, 53591.00
173.3300, 52059.00
174.5560, 50843.00
175.7820, 49438.00
177.0080, 48011.00
178.2340, 46929.00
179.4590, 46048.00
180.6850, 45535.00
181.9100, 44750.00
183.1350, 44282.81
184.3600, 44055.00
185.5850, 43484.00
186.8090, 43795.00
188.0340, 43630.00
189.2580, 43651.00
190.4820, 44121.00
191.7060, 43994.00
192.9300, 44144.00
194.1530, 44504.00
195.3770, 44395.00
196.6000, 44621.97
197.8230, 44974.00
199.0460, 44735.00
200.2690, 44723.00
201.4910, 44555.00
202.7140, 44187.00
203.9360, 44216.00
205.1580, 43800.00
206.3800, 43375.00
207.6020, 43162.95
208.8240, 42845.58
210.0450, 42542.00
211.2670, 42336.00
212.4880, 42154.00
213.7090, 41974.63
214.9300, 41835.00
216.1510, 41749.00
217.3710, 41812.00
218.5920, 41809.00
219.8120, 41636.00
221.0320, 41797.00
222.2520, 41650.00
223.4720, 41948.00
224.6910, 41735.00
225.9110, 42112.00
227.1300, 42032.00
228.3490, 42432.00
229.5680, 42567.00
230.7870, 43046.00
232.0050, 42892.00
233.2240, 43290.00
234.4420, 43507.00
235.6600, 43883.00
236.8780, 43811.00
238.0960, 44103.55
239.3140, 44178.57
240.5310, 44226.00
241.7490, 44551.00
242.9660, 44162.92
244.1830, 44768.00
245.4000, 44705.00
246.6160, 45028.00
247.8330, 44901.00
249.0490, 45260.00
250.2660, 45924.00
251.4820, 45844.00
252.6980, 45926.00
253.9130, 46432.00
255.1290, 46663.00
256.3440, 46790.00
257.5600, 46452.00
258.7750, 45607.00
259.9900, 45067.00
261.2040, 44593.00
262.4190, 44553.00
263.6330, 44186.24
264.8480, 43949.58
266.0620, 43850.00
267.2760, 43592.00
268.4900, 43427.00
269.7030, 43507.00
270.9170, 43416.00
272.1300, 43409.00
273.3430, 43284.00
274.5560, 43224.00
275.7690, 43581.00
276.9820, 43166.00
278.1940, 43798.00
279.4070, 43620.00
280.6190, 43656.00
281.8310, 43893.00
283.0430, 43815.00
284.2550, 44167.00
285.4660, 43916.00
286.6770, 44043.00
287.8890, 44421.00
289.1000, 44445.00
290.3110, 44643.10
291.5210, 44568.11
292.7320, 44902.38
293.9420, 45199.71
295.1530, 45350.65
296.3630, 45690.68
297.5730, 45954.84
298.7830, 46325.79
299.9920, 46829.00
301.2020, 47146.00
302.4110, 47565.00
303.6200, 47977.00
304.8290, 48148.00
306.0380, 48758.00
307.2470, 48938.00
308.4550, 49458.00
309.6630, 50212.00
310.8720, 50262.00
312.0800, 50663.93
313.2880, 50751.00
314.4950, 50883.00
315.7030, 50682.00
316.9100, 50480.00
318.1170, 50127.00
319.3240, 49875.00
320.5310, 49724.00
321.7380, 49146.00
322.9450, 48436.00
324.1510, 48404.00
325.3570, 47794.00
326.5630, 47424.00
327.7690, 47177.00
328.9750, 46782.00
330.1810, 46481.00
331.3860, 46128.23
332.5910, 45619.00
333.7960, 45439.00
335.0010, 44821.00
336.2060, 44529.00
337.4110, 44456.00
338.6150, 44655.00
339.8200, 44257.00
341.0240, 44791.00
342.2280, 44420.00
343.4320, 44538.00
344.6350, 44127.00
345.8390, 44502.79
347.0420, 44816.80
348.2450, 45092.04
349.4480, 45527.18
350.6510, 45886.40
351.8540, 46401.00
353.0560, 46801.00
354.2590, 47328.00
355.4610, 47971.00
356.6630, 48725.00
357.8650, 49651.00
359.0670, 50506.00
360.2680, 51163.00
361.4700, 51882.00
362.6710, 52213.00
363.8720, 52488.59
365.0730, 52753.00
366.2740, 52425.00
367.4740, 52102.00
368.6750, 51485.00
369.8750, 51023.00
371.0750, 50278.00
372.2750, 50110.00
373.4750, 49424.00
374.6740, 49001.00
375.8740, 48653.00
377.0730, 48457.00
378.2720, 48410.00
379.4710, 47970.00
380.6700, 47856.44
381.8690, 47488.00
383.0670, 47420.00
384.2660, 47064.00
385.4640, 46832.05
386.6620, 47070.00
387.8600, 46924.00
389.0570, 46823.00
390.2550, 46728.00
391.4520, 46233.00
392.6490, 46210.00
393.8460, 45984.00
395.0430, 45843.00
396.2400, 45793.00
397.4370, 45573.00
398.6330, 45530.00
399.8290, 45234.00
401.0250, 45480.00
402.2210, 45312.00
403.4170, 45202.00
404.6130, 45256.00
405.8080, 45090.00
407.0030, 45032.00
408.1980, 44992.00
409.3930, 44989.40
410.5880, 45045.00
411.7830, 45125.00
412.9770, 45166.18
414.1720, 45322.14
415.3660, 45262.00
416.5600, 45534.00
417.7530, 45426.00
418.9470, 45453.00
420.1410, 45589.00
421.3340, 45762.00
422.5270, 45923.00
423.7200, 46184.96
424.9130, 46552.00
426.1060, 46740.00
427.2980, 47116.00
428.4900, 47386.00
429.6830, 47720.00
430.8750, 48186.00
432.0670, 48595.00
433.2580, 48725.00
434.4500, 49137.00
435.6410, 49561.69
436.8320, 50158.00
438.0240, 50526.00
439.2140, 50824.00
440.4050, 51329.00
441.5960, 51383.00
442.7860, 51565.80
443.9760, 51559.40
445.1670, 51595.00
446.3560, 51188.00
447.5460, 51038.00
448.7360, 50554.00
449.9250, 50093.00
451.1150, 49690.00
452.3040, 49493.80
453.4930, 49062.73
454.6810, 49213.00
455.8700, 48402.00
457.0590, 48175.00
458.2470, 47890.00
459.4350, 48008.00
460.6230, 47396.00
461.8110, 47353.00
462.9980, 46973.00
464.1860, 46913.00
465.3730, 47084.00
466.5600, 47269.00
467.7470, 46833.00
468.9340, 46901.00
470.1210, 47078.80
471.3080, 47166.88
472.4940, 47235.61
473.6800, 47287.06
474.8660, 47211.29
476.0520, 47344.29
477.2380, 47420.82
478.4230, 47513.55
479.6090, 47731.43
480.7940, 47773.93
481.9790, 48028.80
483.1640, 48262.00
484.3490, 48523.00
485.5330, 48726.75
486.7180, 48834.25
487.9020, 49089.22
489.0860, 49258.02
490.2700, 49342.75
491.4540, 49233.46
492.6370, 49266.18
493.8210, 49175.64
495.0040, 49236.00
496.1870, 49125.00
497.3700, 49399.00
498.5530, 49286.00
499.7360, 49420.00
500.9180, 49242.00
502.1000, 49068.00
503.2830, 49102.00
504.4650, 49468.00
505.6460, 49458.00
506.8280, 49648.00
508.0100, 49638.00
509.1910, 49959.00
510.3720, 49903.00
511.5530, 50179.00
512.7340, 50653.00
513.9150, 50974.00
515.0950, 50789.00
516.2760, 51109.00
517.4560, 51300.83
518.6360, 51930.07
519.8160, 52488.76
520.9950, 52978.62
522.1750, 53290.49
523.3540, 53759.61
524.5340, 54121.46
525.7130, 54448.15
526.8920, 54848.77
528.0700, 55022.79
529.2490, 55358.36
530.4270, 55585.00
531.6060, 55815.40
532.7840, 55651.20
533.9620, 56143.05
535.1390, 56495.12
536.3170, 56715.23
537.4940, 56407.32
538.6720, 56781.17
539.8490, 56881.71
541.0260, 56971.06
542.2030, 57440.70
543.3790, 57209.42
544.5560, 57673.04
545.7320, 57859.16
546.9080, 57999.72
548.0840, 58206.79
549.2600, 58311.23
550.4360, 58317.22
551.6110, 58004.95
552.7860, 58046.34
553.9620, 57910.88
555.1370, 57744.24
556.3110, 57764.02
557.4860, 57369.34
558.6610, 57335.62
559.8350, 57123.02
561.0090, 56955.98
562.1830, 56611.26
563.3570, 56288.73
564.5310, 56093.98
565.7040, 55704.00
566.8780, 55654.00
568.0510, 54991.00
569.2240, 54606.00
570.3970, 54736.00
571.5700, 54548.00
572.7420, 54036.00
573.9150, 53948.00
575.0870, 53600.00
576.2590, 53317.00
577.4310, 53166.00
578.6030, 52838.82
579.7740, 52028.00
580.9460, 52295.00
582.1170, 51859.00
583.2880, 51531.00
584.4590, 51584.00
585.6300, 51555.00
586.8010, 51334.00
587.9710, 51733.00
589.1410, 51423.00
590.3110, 51701.00
591.4810, 51958.00
592.6510, 52530.00
593.8210, 52669.00
594.9900, 53288.00
596.1600, 53912.00
597.3290, 54378.00
598.4980, 55122.00
599.6670, 55561.00
600.8350, 56228.00
602.0040, 56863.00
603.1720, 57553.00
604.3400, 58455.00
605.5080, 59285.00
606.6760, 60103.00
607.8440, 60782.00
609.0120, 61425.65
610.1790, 62019.00
611.3460, 62471.78
612.5130, 63041.20
613.6800, 63379.92
614.8470, 63823.92
616.0130, 64107.76
617.1800, 64307.00
618.3460, 64445.00
619.5120, 65507.00
620.6780, 65838.00
621.8440, 66652.00
623.0090, 67435.00
624.1750, 68839.00
625.3400, 69863.00
626.5050, 71672.00
627.6700, 73148.00
628.8350, 74822.00
629.9990, 77531.00
631.1640, 80302.00
632.3280, 83031.00
633.4920, 86642.00
634.6560, 91001.00
635.8200, 95369.00
636.9840, 100134.0
638.1470, 105568.0
639.3100, 111868.0
640.4730, 117880.0
641.6360, 123621.0
642.7990, 130344.0
643.9620, 135977.0
645.1240, 140635.0
646.2870, 144787.0
647.4490, 147556.0
648.6110, 148806.0
649.7730, 148931.0
650.9340, 147680.0
652.0960, 145921.0
653.2570, 142952.0
654.4180, 139439.0
655.5790, 136774.0
656.7400, 131468.0
657.9010, 128281.0
659.0620, 124620.0
660.2220, 120029.0
661.3820, 116334.0
662.5420, 112597.0
663.7020, 109456.0
664.8620, 105756.0
666.0210, 102631.0
667.1810, 99237.00
668.3400, 96609.00
669.4990, 94250.54
670.6580, 92538.00
671.8170, 90539.00
672.9750, 89185.00
674.1340, 88148.00
675.2920, 86741.00
676.4500, 86204.00
677.6080, 85573.00
678.7660, 85491.00
679.9230, 85029.00
681.0810, 84552.00
682.2380, 84838.00
683.3950, 84073.00
684.5520, 84332.00
685.7090, 84650.00
686.8660, 85060.00
688.0220, 84802.00
689.1780, 85252.00
690.3340, 84984.00
691.4900, 84566.00
692.6460, 84215.00
693.8020, 82659.00
694.9570, 81353.00
696.1130, 81518.00
697.2680, 78832.00
698.4230, 76858.00
699.5780, 73858.00
700.7320, 71752.00
701.8870, 69880.23
703.0410, 68037.00
704.1950, 66650.00
705.3490, 64943.00
706.5030, 63866.00
707.6570, 62735.35
708.8110, 61477.29
709.9640, 60853.00
711.1170, 60003.00
712.2700, 59026.00
713.4230, 58660.95
714.5760, 57929.91
715.7280, 57867.00
716.8810, 56886.00
718.0330, 56566.00
719.1850, 56034.00
720.3370, 55961.00
721.4890, 55273.00
722.6400, 54683.00
723.7920, 54959.00
724.9430, 54335.00
726.0940, 54040.00
727.2450, 53936.57
728.3960, 53658.00
729.5460, 53320.20
730.6970, 53275.92
731.8470, 53195.19
732.9970, 53079.96
734.1470, 52820.33
735.2970, 52752.24
736.4460, 52610.60
737.5960, 52467.95
738.7450, 52433.25
739.8940, 52206.10
741.0430, 52174.14
742.1920, 52067.36
743.3410, 51998.05
744.4890, 51854.69
745.6370, 51737.11
746.7850, 51698.12
747.9330, 51619.04
749.0810, 51475.72
750.2290, 51421.97
751.3760, 51214.40
752.5240, 51145.95
753.6710, 51138.88
754.8180, 51010.49
755.9650, 50969.23
757.1110, 50897.91
758.2580, 50681.71
759.4040, 50723.43
760.5510, 50656.72
761.6970, 50922.00
762.8420, 50650.00
763.9880, 50993.00
765.1340, 50599.00
766.2790, 50524.00
767.4240, 50589.00
768.5690, 50602.00
769.7140, 50266.00
770.8590, 50292.00
772.0030, 50281.00
773.1480, 50460.00
774.2920, 50276.00
775.4360, 50428.00
776.5800, 50397.00
777.7240, 50260.00
778.8670, 50436.00
780.0110, 50260.00
781.1540, 50219.00
782.2970, 50305.00
783.4400, 50222.00
784.5830, 50411.00
785.7250, 50055.00
786.8680, 50542.00
788.0100, 50298.00
789.1520, 50368.00
790.2940, 50582.00
791.4360, 50191.00
792.5780, 50256.00
793.7190, 49932.00
794.8600, 50128.00
796.0010, 50380.00
797.1420, 50561.00
798.2830, 50319.00
799.4240, 50467.00
800.5640, 50704.00
801.7050, 50281.00
802.8450, 50191.00
803.9850, 50063.00
805.1250, 50139.00
806.2640, 50459.00
807.4040, 50362.00
808.5430, 50753.00
809.6820, 50576.00
810.8210, 50705.00
811.9600, 50759.00
813.0990, 50902.00
814.2370, 51004.00
815.3760, 51028.83
816.5140, 51154.12
817.6520, 51156.00
818.7900, 51365.00
819.9270, 51612.00
821.0650, 51814.00
822.2020, 51327.00
823.3390, 51755.00
824.4760, 51829.00
825.6130, 51866.00
826.7500, 52100.00
827.8870, 52343.00
829.0230, 52389.00
830.1590, 52200.00
831.2950, 52223.00
832.4310, 52810.00
833.5670, 52517.00
834.7030, 52891.00
835.8380, 52797.00
836.9730, 53169.00
838.1080, 53061.00
839.2430, 53264.00
840.3780, 53576.00
841.5130, 53727.00
842.6470, 53976.01
843.7810, 54160.77
844.9150, 54403.00
846.0490, 54443.00
847.1830, 54623.00
848.3170, 54634.00
849.4500, 54999.50
850.5830, 55606.00
851.7160, 55553.00
852.8490, 56104.00
853.9820, 55983.00
855.1150, 56349.17
856.2470, 56771.90
857.3800, 57156.14
858.5120, 57503.38
859.6440, 57703.98
860.7760, 58093.93
861.9070, 58407.70
863.0390, 58718.66
864.1700, 59134.96
865.3010, 59356.61
866.4320, 59771.23
867.5630, 60108.82
868.6940, 60779.80
869.8240, 61345.48
870.9540, 61874.45
872.0850, 62257.28
873.2150, 62828.96
874.3450, 63324.75
875.4740, 63817.01
876.6040, 64488.00
877.7330, 65400.00
878.8620, 66066.00
879.9910, 66852.00
881.1200, 68329.00
882.2490, 69382.00
883.3770, 70379.00
884.5060, 71656.00
885.6340, 72492.00
886.7620, 73832.00
887.8900, 74768.00
889.0180, 75900.00
890.1450, 76692.00
891.2730, 77569.00
892.4000, 77545.00
893.5270, 77982.00
894.6540, 77842.00
895.7810, 76553.00
896.9070, 75407.00
898.0340, 74645.00
899.1600, 72532.00
900.2860, 71376.00
901.4120, 69878.00
902.5380, 68098.00
903.6630, 66874.00
904.7890, 65479.00
905.9140, 64432.00
907.0390, 62749.00
908.1640, 62253.00
909.2890, 61337.00
910.4130, 60247.00
911.5380, 59909.00
912.6620, 59375.00
913.7860, 58588.38
914.9100, 58174.12
916.0340, 57375.00
917.1580, 57148.00
918.2810, 56829.00
919.4040, 56528.00
920.5280, 56133.00
921.6510, 55809.00
922.7730, 55425.00
923.8960, 55401.00
925.0180, 54682.00
926.1410, 54858.00
927.2630, 54732.00
928.3850, 54302.00
929.5070, 54201.00
930.6280, 53788.00
931.7500, 53684.00
932.8710, 53800.00
933.9920, 53446.00
935.1130, 53254.00
936.2340, 53088.00
937.3550, 53134.00
938.4760, 52853.00
939.5960, 53128.00
940.7160, 52905.00
941.8360, 52539.00
942.9560, 52690.00
944.0760, 52626.50
945.1950, 52372.34
946.3150, 52748.00
947.4340, 52445.00
948.5530, 52223.00
949.6720, 52264.36
950.7900, 52076.57
951.9090, 52026.00
953.0270, 52057.00
954.1460, 51916.00
955.2640, 52110.00
956.3820, 52043.00
957.4990, 51762.00
958.6170, 52141.00
959.7340, 51805.00
960.8520, 52007.00
961.9690, 51886.00
963.0860, 52396.00
964.2020, 51929.00
965.3190, 51789.00
966.4350, 52063.00
967.5520, 51630.00
968.6680, 51546.00
969.7840, 51459.00
970.8990, 51699.00
972.0150, 51671.00
973.1310, 51861.00
974.2460, 51673.00
975.3610, 51446.00
976.4760, 51862.00
977.5910, 51715.00
978.7050, 52168.00
979.8200, 51887.00
980.9340, 52124.00
982.0480, 52122.00
983.1620, 52055.00
984.2760, 52227.00
985.3900, 52101.00
986.5030, 52069.00
987.6160, 52135.00
988.7300, 51989.95
989.8430, 52270.00
990.9550, 51992.00
992.0680, 52015.00
993.1810, 52423.00
994.2930, 52248.00
995.4050, 51982.00
996.5170, 51768.00
997.6290, 51635.93
998.7410, 51623.82
999.8520, 51573.01
1000.964, 51485.41
1002.075, 51251.27
1003.186, 51206.48
1004.297, 51085.80
1005.407, 50962.11
1006.518, 50943.96
1007.628, 50731.25
1008.738, 50711.52
1009.848, 50681.00
1010.958, 50886.00
1012.068, 50572.00
1013.178, 51018.00
1014.287, 51001.00
1015.396, 51016.00
1016.505, 50623.00
1017.614, 51136.00
1018.723, 51342.00
1019.831, 50946.73
1020.940, 51092.37
1022.048, 51199.17
1023.156, 51269.27
1024.264, 51192.74
1025.372, 51305.55
1026.479, 51342.43
1027.587, 51376.26
1028.694, 51515.66
1029.801, 51460.41
1030.908, 51598.14
1032.015, 51658.84
1033.121, 51754.73
1034.228, 51967.00
1035.334, 51777.00
1036.440, 51931.00
1037.546, 52102.00
1038.652, 51964.00
1039.758, 52265.00
1040.863, 52363.00
1041.968, 52316.00
1043.074, 52189.00
1044.178, 52278.00
1045.283, 52321.00
1046.388, 52274.00
1047.492, 52011.00
1048.597, 51764.00
1049.701, 51819.00
1050.805, 51885.00
1051.909, 51452.00
1053.012, 51699.00
1054.116, 51052.20
1055.219, 51332.38
1056.322, 51472.91
1057.425, 51481.33
1058.528, 50961.89
1059.631, 51124.07
1060.733, 51013.11
1061.836, 50890.93
1062.938, 51149.07
1064.040, 50706.44
1065.142, 50958.56
1066.243, 50933.38
1067.345, 51035.09
1068.446, 50676.00
1069.547, 50981.00
1070.648, 50911.00
1071.749, 51016.00
1072.850, 50670.00
1073.951, 50632.00
1075.051, 50435.00
1076.151, 50312.68
1077.251, 50132.00
1078.351, 50290.00
1079.451, 50150.67
1080.550, 50468.35
1081.650, 50646.39
1082.749, 50692.31
1083.848, 50210.37
1084.947, 50410.05
1086.046, 50336.56
1087.144, 50251.88
1088.243, 50547.49
1089.341, 50142.33
1090.439, 50431.91
1091.537, 50444.16
1092.635, 50583.34
1093.732, 50447.67
1094.830, 50396.89
1095.927, 50621.05
1097.024, 50692.98
1098.121, 50525.67
1099.218, 50672.91
1100.314, 50258.15
1101.411, 50336.56
1102.507, 50627.75
1103.603, 50155.00
1104.699, 50532.00
1105.795, 50420.00
1106.890, 50343.00
1107.986, 50202.00
1109.081, 50422.00
1110.176, 50458.00
1111.271, 50378.00
1112.366, 50417.00
1113.461, 50260.00
1114.555, 50262.00
1115.649, 50170.00
1116.744, 50262.00
1117.838, 50106.00
1118.931, 50288.00
1120.025, 50323.00
1121.119, 50286.00
1122.212, 50227.00
1123.305, 50350.00
1124.398, 50388.00
1125.491, 50134.00
1126.584, 50377.00
1127.676, 50231.98
1128.768, 50470.00
1129.861, 50209.00
1130.953, 50089.00
1132.044, 50213.00
1133.136, 50090.00
1134.228, 50433.00
1135.319, 50348.00
1136.410, 50206.00
1137.501, 49927.00
1138.592, 50307.00
1139.683, 50324.00
1140.773, 50430.00
1141.864, 50555.00
1142.954, 50368.00
1144.044, 50636.00
1145.134, 50640.00
1146.224, 50225.00
1147.313, 50371.00
1148.402, 50547.00
1149.492, 50261.00
1150.581, 50610.00
1151.670, 50491.36
1152.758, 50591.00
1153.847, 50470.00
1154.935, 50631.00
1156.024, 50660.00
1157.112, 50450.00
1158.200, 51085.00
1159.287, 50759.21
1160.375, 50893.00
1161.462, 50652.00
1162.550, 50725.00
1163.637, 50917.00
1164.724, 50941.00
1165.810, 50945.07
1166.897, 51332.08
1167.983, 51579.40
1169.070, 51694.66
1170.156, 51282.00
1171.242, 51550.95
1172.327, 51546.68
1173.413, 51531.27
1174.499, 51896.16
1175.584, 51560.20
1176.669, 51918.99
1177.754, 52000.46
1178.839, 52208.84
1179.923, 52142.32
1181.008, 52160.75
1182.092, 51944.00
1183.176, 51999.00
1184.260, 52050.00
1185.344, 51820.00
1186.428, 52211.93
1187.511, 52194.63
1188.595, 52842.00
1189.678, 52403.00
1190.761, 52590.00
1191.843, 52518.00
1192.926, 52879.00
1194.009, 52737.00
1195.091, 53125.00
1196.173, 52748.00
1197.255, 52787.00
1198.337, 52872.00
1199.419, 52844.00
1200.500, 52879.38
1201.582, 52696.76
1202.663, 53046.86
1203.744, 53297.78
1204.825, 53453.64
1205.905, 53294.55
1206.986, 53492.59
1208.066, 53517.21
1209.146, 53514.00
1210.226, 53700.47
1211.306, 53476.04
1212.386, 53615.97
1213.466, 53580.25
1214.545, 53593.51
1215.624, 53432.53
1216.703, 53366.00
1217.782, 53611.00
1218.861, 53725.00
1219.939, 53871.00
1221.018, 53822.00
1222.096, 53953.00
1223.174, 53716.68
1224.252, 53873.50
1225.330, 53898.20
1226.407, 53395.06
1227.485, 53573.52
1228.562, 53478.84
1229.639, 53372.95
1230.716, 53647.36
1231.793, 53221.00
1232.869, 53489.40
1233.946, 53480.45
1235.022, 53598.45
1236.098, 53441.60
1237.174, 53264.00
1238.250, 53485.00
1239.325, 53359.00
1240.401, 53312.00
1241.476, 53278.00
1242.551, 53213.00
1243.626, 53263.23
1244.701, 53240.00
1245.776, 53346.00
1246.850, 53543.00
1247.924, 53543.37
1248.999, 53347.00
1250.073, 53537.00
1251.146, 53379.00
1252.220, 53404.00
1253.293, 53675.00
1254.367, 53593.24
1255.440, 53703.00
1256.513, 53723.00
1257.586, 53643.00
1258.658, 53731.00
1259.731, 54263.00
1260.803, 54171.00
1261.875, 54178.00
1262.947, 54052.00
1264.019, 54054.29
1265.091, 54368.00
1266.162, 54144.00
1267.234, 54449.00
1268.305, 54775.00
1269.376, 54848.00
1270.447, 55137.00
1271.517, 55420.00
1272.588, 55510.53
1273.658, 55674.00
1274.729, 55757.00
1275.799, 55920.00
1276.868, 55994.29
1277.938, 56148.00
1279.008, 56332.41
1280.077, 56402.00
1281.146, 56741.00
1282.215, 56898.00
1283.284, 57125.00
1284.353, 57054.00
1285.421, 57385.00
1286.490, 57671.00
1287.558, 57663.00
1288.626, 57923.00
1289.694, 58028.67
1290.762, 58288.46
1291.829, 58470.60
1292.897, 58579.41
1293.964, 58394.89
1295.031, 58589.05
1296.098, 58631.46
1297.165, 58667.64
1298.231, 58915.01
1299.298, 59030.00
1300.364, 58928.00
1301.430, 59102.13
1302.496, 58942.74
1303.562, 59104.48
1304.627, 59176.41
1305.693, 58938.80
1306.758, 59063.50
1307.823, 59020.12
1308.888, 58954.19
1309.953, 59083.21
1311.018, 58806.60
1312.082, 58899.69
1313.146, 58822.43
1314.210, 58799.39
1315.274, 58607.35
1316.338, 58446.19
1317.402, 58421.48
1318.465, 58178.91
1319.529, 58295.59
1320.592, 58334.76
1321.655, 58300.52
1322.718, 57973.03
1323.780, 58024.27
1324.843, 57923.70
1325.905, 57816.96
1326.967, 57921.50
1328.029, 57636.72
1329.091, 57737.91
1330.153, 57685.03
1331.214, 57702.72
1332.275, 57567.71
1333.337, 57479.81
1334.398, 57544.71
1335.458, 57525.09
1336.519, 57372.51
1337.580, 57394.68
1338.640, 57104.68
1339.700, 56779.87
1340.760, 56788.99
1341.820, 56646.37
1342.880, 56497.51
1343.939, 56560.04
1344.999, 56233.14
1346.058, 56292.31
1347.117, 56197.42
1348.176, 56173.03
1349.235, 55995.95
1350.293, 55866.13
1351.351, 55889.06
1352.410, 55827.30
1353.468, 55632.75
1354.526, 55612.94
1355.583, 55281.00
1356.641, 55323.00
1357.698, 54946.00
1358.756, 54917.00
1359.813, 54628.00
1360.869, 54687.00
1361.926, 54414.00
1362.983, 54179.00
1364.039, 54612.00
1365.095, 54068.00
1366.152, 54581.00
1367.207, 54099.00
1368.263, 53815.00
1369.319, 54161.00
1370.374, 54041.00
1371.430, 53750.00
1372.485, 53896.00
1373.540, 53551.00
1374.594, 53569.21
1375.649, 53669.78
1376.703, 53692.85
1377.758, 53642.44
1378.812, 53298.85
1379.866, 53333.94
1380.920, 53217.27
1381.973, 53094.45
1383.027, 53182.84
1384.080, 52881.97
1385.133, 52967.07
1386.186, 52898.11
1387.239, 52899.66
1388.291, 52748.59
1389.344, 52644.61
1390.396, 52693.44
1391.448, 52657.70
1392.500, 52489.04
1393.552, 52495.14
1394.604, 52189.02
1395.655, 52156.95
1396.707, 52243.02
1397.758, 52082.12
1398.809, 52091.09
1399.860, 52035.36
1400.910, 51685.69
1401.961, 51847.27
1403.011, 51787.79
1404.061, 51501.26
1405.111, 51645.39
1406.161, 51390.16
1407.211, 51440.09
1408.260, 51416.43
1409.310, 51603.00
1410.359, 51404.00
1411.408, 51670.00
1412.457, 51723.00
1413.506, 51712.00
1414.554, 51678.00
1415.603, 51347.00
1416.651, 51539.00
1417.699, 51427.41
1418.747, 51859.00
1419.794, 51563.00
1420.842, 51548.00
1421.889, 51858.00
1422.937, 51451.00
1423.984, 51464.00
1425.031, 51587.00
1426.077, 51590.00
1427.124, 51346.00
1428.170, 51223.00
1429.217, 51635.00
1430.263, 51298.00
1431.309, 51280.00
1432.354, 51294.00
1433.400, 51083.00
1434.445, 51130.00
1435.491, 51247.00
1436.536, 51090.00
1437.581, 51477.00
1438.625, 51310.00
1439.670, 51292.00
1440.714, 51121.00
1441.759, 51142.21
1442.803, 51407.00
1443.847, 51081.00
1444.890, 51421.00
1445.934, 51204.00
1446.978, 51402.00
1448.021, 51491.00
1449.064, 51558.00
1450.107, 51420.00
1451.150, 51503.00
1452.192, 51435.12
1453.235, 51424.29
1454.277, 51331.00
1455.319, 51463.00
1456.361, 51398.00
1457.403, 51516.00
1458.445, 51631.00
1459.486, 51061.00
1460.528, 51101.00
1461.569, 51605.00
1462.610, 51052.00
1463.651, 51494.00
1464.691, 51459.00
1465.732, 51369.00
1466.772, 51531.00
1467.812, 51411.00
1468.852, 51413.00
1469.892, 51542.00
1470.932, 51372.00
1471.971, 51970.00
1473.011, 51669.00
1474.050, 51900.00
1475.089, 51349.00
1476.128, 51589.00
1477.166, 51543.00
1478.205, 51551.00
1479.243, 51790.00
1480.282, 51795.00
1481.320, 51961.71
1482.357, 51863.46
1483.395, 52237.68
1484.433, 52472.27
1485.470, 52574.68
1486.507, 52149.23
1487.544, 52405.40
1488.581, 52388.42
1489.618, 52360.23
1490.655, 52712.34
1491.691, 52363.62
1492.727, 52709.64
1493.763, 52778.33
1494.799, 52973.96
1495.835, 52894.73
1496.871, 52900.39
1497.906, 53180.95
1498.941, 53309.27
1499.976, 53198.34
1501.011, 53401.98
1502.046, 53432.72
1503.081, 53178.41
1504.115, 53525.94
1505.149, 53428.79
1506.183, 53294.00
1507.217, 53051.00
1508.251, 53632.00
1509.285, 53422.00
1510.318, 53610.00
1511.352, 53690.00
1512.385, 53763.00
1513.418, 53863.00
1514.450, 53949.47
1515.483, 54008.82
1516.516, 54071.00
1517.548, 54090.00
1518.580, 53994.00
1519.612, 53946.00
1520.644, 54255.00
1521.675, 54095.00
1522.707, 54198.00
1523.738, 54528.00
1524.769, 54377.00
1525.800, 54735.00
1526.831, 54975.00
1527.862, 54921.00
1528.892, 54930.00
1529.923, 55137.00
1530.953, 55129.00
1531.983, 54996.00
1533.013, 55491.00
1534.042, 55600.00
1535.072, 55689.38
1536.101, 55224.00
1537.131, 55830.76
1538.160, 55743.52
1539.188, 55653.00
1540.217, 55817.00
1541.246, 55737.00
1542.274, 55932.00
1543.302, 55887.00
1544.330, 55703.61
1545.358, 56001.16
1546.386, 56156.18
1547.413, 56176.21
1548.441, 55665.45
1549.468, 55833.43
1550.495, 55725.37
1551.522, 55603.21
1552.549, 55858.45
1553.575, 55410.05
1554.602, 55653.47
1555.628, 55616.71
1556.654, 55703.99
1557.680, 55513.53
1558.706, 55405.08
1559.731, 55568.73
1560.757, 55577.20
1561.782, 55343.61
1562.807, 55421.70
1563.832, 55370.00
1564.857, 55097.00
1565.881, 54962.00
1566.906, 55145.00
1567.930, 55297.00
1568.954, 54814.00
1569.978, 54982.00
1571.002, 54947.00
1572.025, 54841.00
1573.049, 54787.00
1574.072, 54933.00
1575.095, 54718.00
1576.118, 54555.00
1577.141, 54779.00
1578.164, 54557.00
##END=



