##NAMES=Aenigmatite
##RRUFFID=R061088
##IDEAL CHEMISTRY=Na_4_(Fe^2+^_10_Ti^4+^_2_)O_4_[Si_12_O_36_]
##LOCALITY=Naujakasik, Greenland
##OWNER=RRUFF
##SOURCE=Michael Scott
##DESCRIPTION=Black prismatic crystals
##STATUS=The identification of this mineral has been confirmed by X-ray diffraction and chemical analysis
##URL=rruff.info/R061088
##MEASURED CHEMISTRY=(Na_1.72_Ca_0.28_)_Σ=2_(Fe^2+^_4.90_Mn_0.08_Mg_0.02_)_Σ=5_(Ti_0.85_Al_0.14_Fe^3+^_0.01_)_Σ=1_(Si_5.87_Al_0.13_)_Σ=6_O_20_
##PIN_ID=L01498
##ORIENTATION=Laser parallel to -c* (0 0 -1). Fiducial mark perpendicular to laser is parallel to a [1 0 0]
126.3640, 9939.000
127.5960, 10109.81
128.8270, 10152.00
130.0580, 10370.00
131.2880, 10581.00
132.5190, 10543.00
133.7500, 10610.00
134.9800, 10555.00
136.2100, 10631.00
137.4400, 10914.00
138.6700, 11157.00
139.9000, 11170.00
141.1290, 11199.00
142.3590, 11165.00
143.5880, 11161.00
144.8170, 11144.00
146.0460, 11399.00
147.2750, 11273.00
148.5030, 11375.00
149.7320, 11358.00
150.9600, 11638.00
152.1880, 11571.00
153.4160, 11580.00
154.6440, 11522.00
155.8720, 11387.00
157.0990, 11269.00
158.3270, 11216.00
159.5540, 11148.08
160.7810, 11094.00
162.0080, 11107.00
163.2350, 11064.00
164.4610, 11091.00
165.6880, 10933.00
166.9140, 10682.00
168.1400, 10540.00
169.3660, 10446.00
170.5920, 10198.50
171.8180, 10269.00
173.0430, 9851.000
174.2690, 9756.000
175.4940, 9733.000
176.7190, 9670.000
177.9440, 9486.000
179.1680, 9511.000
180.3930, 9414.000
181.6170, 9285.000
182.8420, 9313.000
184.0660, 9277.000
185.2900, 9338.000
186.5140, 9297.146
187.7370, 9331.775
188.9610, 9338.053
190.1840, 9317.551
191.4070, 9189.961
192.6300, 9200.651
193.8530, 9155.927
195.0760, 9108.929
196.2980, 9139.107
197.5210, 9027.093
198.7430, 9056.048
199.9650, 9028.740
201.1870, 9027.183
202.4090, 8969.866
203.6310, 8929.772
204.8520, 8945.479
206.0730, 8930.303
207.2950, 8866.567
208.5160, 8866.671
209.7360, 8752.783
210.9570, 8738.921
212.1780, 8768.228
213.3980, 8707.345
214.6180, 8708.493
215.8380, 8686.017
217.0580, 8556.176
218.2780, 8613.052
219.4980, 8589.180
220.7170, 8502.000
221.9360, 8419.000
223.1560, 8388.000
224.3750, 8378.000
225.5930, 8271.000
226.8120, 8242.321
228.0310, 8175.865
229.2490, 8119.000
230.4670, 8036.000
231.6850, 7965.000
232.9030, 7872.000
234.1210, 7958.000
235.3380, 7854.000
236.5560, 7851.000
237.7730, 7692.000
238.9900, 7807.000
240.2070, 7784.000
241.4240, 7704.000
242.6410, 7689.000
243.8570, 7644.000
245.0730, 7562.000
246.2900, 7633.000
247.5060, 7647.000
248.7210, 7545.000
249.9370, 7544.000
251.1530, 7375.431
252.3680, 7422.495
253.5830, 7441.232
254.7980, 7433.165
256.0130, 7318.010
257.2280, 7341.137
258.4430, 7308.847
259.6570, 7274.298
260.8720, 7316.887
262.0860, 7217.322
263.3000, 7258.703
264.5130, 7243.834
265.7270, 7254.702
266.9410, 7209.810
268.1540, 7182.155
269.3670, 7210.277
270.5800, 7170.000
271.7930, 7123.000
273.0060, 7201.000
274.2190, 7212.000
275.4310, 7199.927
276.6430, 7329.000
277.8550, 7190.000
279.0670, 7266.000
280.2790, 7275.000
281.4910, 7319.000
282.7020, 7362.000
283.9140, 7319.000
285.1250, 7315.000
286.3360, 7279.000
287.5470, 7312.000
288.7570, 7256.000
289.9680, 7341.000
291.1780, 7363.000
292.3880, 7352.375
293.5990, 7325.000
294.8080, 7344.000
296.0180, 7336.000
297.2280, 7309.000
298.4370, 7318.000
299.6470, 7345.000
300.8560, 7296.000
302.0650, 7390.000
303.2740, 7309.000
304.4820, 7269.000
305.6910, 7342.000
306.8990, 7371.000
308.1070, 7306.000
309.3150, 7274.000
310.5230, 7278.901
311.7310, 7291.000
312.9390, 7268.000
314.1460, 7248.020
315.3530, 7190.000
316.5600, 7175.000
317.7670, 7113.808
318.9740, 7067.000
320.1810, 7019.000
321.3870, 6954.000
322.5930, 6918.000
323.8000, 6947.000
325.0060, 6818.000
326.2110, 6721.000
327.4170, 6831.000
328.6230, 6737.000
329.8280, 6722.000
331.0330, 6620.000
332.2380, 6638.000
333.4430, 6622.320
334.6480, 6634.679
335.8530, 6639.957
337.0570, 6638.536
338.2610, 6610.344
339.4650, 6616.722
340.6690, 6609.246
341.8730, 6601.202
343.0770, 6612.446
344.2800, 6588.151
345.4840, 6599.089
346.6870, 6595.964
347.8900, 6577.000
349.0930, 6626.000
350.2950, 6579.000
351.4980, 6555.000
352.7000, 6637.000
353.9030, 6671.000
355.1050, 6574.000
356.3070, 6659.000
357.5080, 6679.000
358.7100, 6633.000
359.9110, 6669.000
361.1130, 6671.572
362.3140, 6742.000
363.5150, 6708.000
364.7160, 6688.000
365.9160, 6708.000
367.1170, 6698.000
368.3170, 6708.299
369.5170, 6682.000
370.7170, 6726.000
371.9170, 6686.000
373.1170, 6680.000
374.3170, 6627.000
375.5160, 6567.000
376.7150, 6635.000
377.9140, 6684.000
379.1130, 6577.000
380.3120, 6740.000
381.5110, 6610.000
382.7090, 6596.000
383.9070, 6668.000
385.1060, 6672.000
386.3040, 6721.000
387.5010, 6649.000
388.6990, 6550.000
389.8970, 6513.000
391.0940, 6626.000
392.2910, 6526.000
393.4880, 6543.000
394.6850, 6678.000
395.8820, 6665.000
397.0780, 6565.000
398.2750, 6580.000
399.4710, 6592.000
400.6670, 6499.000
401.8630, 6573.000
403.0590, 6651.000
404.2540, 6546.000
405.4500, 6714.000
406.6450, 6559.000
407.8400, 6561.000
409.0350, 6504.000
410.2300, 6518.000
411.4250, 6535.000
412.6190, 6411.000
413.8140, 6473.000
415.0080, 6419.000
416.2020, 6352.000
417.3960, 6465.000
418.5900, 6557.000
419.7830, 6535.000
420.9770, 6507.000
422.1700, 6597.000
423.3630, 6549.000
424.5560, 6559.000
425.7490, 6585.000
426.9410, 6563.000
428.1340, 6711.000
429.3260, 6573.000
430.5180, 6638.000
431.7100, 6681.000
432.9020, 6615.000
434.0940, 6669.000
435.2850, 6652.000
436.4770, 6564.000
437.6680, 6684.000
438.8590, 6565.000
440.0500, 6536.000
441.2410, 6648.000
442.4310, 6546.000
443.6220, 6572.000
444.8120, 6608.000
446.0020, 6549.000
447.1920, 6565.848
448.3820, 6586.000
449.5710, 6531.000
450.7610, 6532.000
451.9500, 6516.000
453.1390, 6488.000
454.3280, 6433.000
455.5170, 6423.000
456.7060, 6377.000
457.8940, 6350.000
459.0830, 6489.000
460.2710, 6488.000
461.4590, 6527.000
462.6470, 6492.000
463.8350, 6388.000
465.0220, 6501.000
466.2100, 6371.000
467.3970, 6448.000
468.5840, 6367.000
469.7710, 6368.000
470.9580, 6460.000
472.1440, 6369.000
473.3310, 6515.000
474.5170, 6395.000
475.7030, 6398.000
476.8890, 6282.000
478.0750, 6460.000
479.2610, 6400.000
480.4460, 6406.000
481.6320, 6571.000
482.8170, 6389.000
484.0020, 6534.000
485.1870, 6558.000
486.3710, 6572.000
487.5560, 6518.000
488.7400, 6608.000
489.9250, 6563.000
491.1090, 6584.000
492.2930, 6673.000
493.4760, 6724.000
494.6600, 6673.000
495.8440, 6632.000
497.0270, 6712.000
498.2100, 6604.000
499.3930, 6680.000
500.5760, 6782.000
501.7580, 6684.000
502.9410, 6649.000
504.1230, 6748.000
505.3060, 6737.000
506.4880, 6729.000
507.6690, 6675.000
508.8510, 6675.000
510.0330, 6645.000
511.2140, 6727.000
512.3950, 6837.000
513.5760, 6764.000
514.7570, 6884.000
515.9380, 6793.000
517.1190, 6756.000
518.2990, 6831.000
519.4800, 6804.000
520.6600, 6871.000
521.8400, 7029.000
523.0190, 7034.000
524.1990, 7052.000
525.3790, 7067.000
526.5580, 7165.000
527.7370, 7048.000
528.9160, 7078.000
530.0950, 7176.000
531.2740, 7131.000
532.4520, 7131.000
533.6310, 7100.000
534.8090, 7157.000
535.9870, 7059.000
537.1650, 7118.000
538.3430, 7086.000
539.5200, 7050.000
540.6980, 7147.000
541.8750, 7149.000
543.0520, 7123.446
544.2290, 7141.463
545.4060, 7066.000
546.5820, 7060.000
547.7590, 7047.000
548.9350, 7038.239
550.1110, 7033.699
551.2870, 7063.000
552.4630, 7035.000
553.6390, 7048.000
554.8140, 7071.000
555.9900, 7043.000
557.1650, 7000.000
558.3400, 6944.000
559.5150, 6965.000
560.6900, 6949.000
561.8640, 7016.000
563.0390, 6976.000
564.2130, 6848.000
565.3870, 6876.000
566.5610, 6912.000
567.7350, 6796.000
568.9080, 6847.000
570.0820, 6717.000
571.2550, 6737.000
572.4280, 6683.000
573.6010, 6560.000
574.7740, 6476.000
575.9470, 6490.000
577.1190, 6482.000
578.2920, 6564.000
579.4640, 6512.000
580.6360, 6454.000
581.8080, 6332.000
582.9790, 6324.000
584.1510, 6296.000
585.3220, 6353.000
586.4940, 6309.000
587.6650, 6241.000
588.8360, 6392.000
590.0060, 6262.000
591.1770, 6334.000
592.3470, 6246.000
593.5180, 6417.000
594.6880, 6364.000
595.8580, 6329.000
597.0280, 6351.000
598.1970, 6345.000
599.3670, 6415.000
600.5360, 6330.005
601.7050, 6417.217
602.8740, 6476.103
604.0430, 6508.184
605.2120, 6433.177
606.3800, 6496.433
607.5490, 6504.292
608.7170, 6509.857
609.8850, 6592.577
611.0530, 6533.127
612.2210, 6614.623
613.3880, 6707.000
614.5560, 6664.000
615.7230, 6582.000
616.8900, 6702.000
618.0570, 6757.000
619.2240, 6774.398
620.3900, 6859.000
621.5570, 6874.000
622.7230, 6829.000
623.8890, 6880.000
625.0550, 6997.000
626.2210, 7056.000
627.3870, 7180.000
628.5520, 7081.000
629.7180, 7279.000
630.8830, 7359.000
632.0480, 7379.000
633.2130, 7637.000
634.3770, 7648.000
635.5420, 7945.000
636.7060, 8188.000
637.8710, 8154.000
639.0350, 8310.000
640.1990, 8439.000
641.3620, 8647.000
642.5260, 8765.000
643.6890, 8770.000
644.8530, 8926.000
646.0160, 9034.000
647.1790, 9150.000
648.3410, 9252.000
649.5040, 9389.000
650.6670, 9421.042
651.8290, 9329.000
652.9910, 9441.000
654.1530, 9438.000
655.3150, 9353.000
656.4770, 9495.000
657.6380, 9535.000
658.7990, 9497.000
659.9610, 9611.000
661.1220, 9595.000
662.2830, 9604.000
663.4430, 9648.854
664.6040, 9722.000
665.7640, 9671.000
666.9240, 9780.000
668.0850, 9767.000
669.2440, 9782.000
670.4040, 9798.064
671.5640, 9806.272
672.7230, 9858.000
673.8830, 9782.000
675.0420, 9747.334
676.2010, 9689.373
677.3590, 9587.000
678.5180, 9496.000
679.6770, 9407.000
680.8350, 9251.000
681.9930, 9242.000
683.1510, 9155.000
684.3090, 8910.812
685.4670, 8883.804
686.6240, 8828.542
687.7810, 8746.480
688.9390, 8557.249
690.0960, 8506.381
691.2530, 8400.096
692.4090, 8291.615
693.5660, 8260.210
694.7220, 8086.713
695.8790, 8054.078
697.0350, 7965.268
698.1910, 7902.203
699.3460, 7783.456
700.5020, 7681.854
701.6570, 7636.110
702.8130, 7528.000
703.9680, 7447.000
705.1230, 7382.000
706.2780, 7328.000
707.4320, 7312.000
708.5870, 7378.000
709.7410, 7275.000
710.8950, 7399.000
712.0490, 7244.000
713.2030, 7172.000
714.3570, 7283.000
715.5100, 7205.000
716.6640, 7266.000
717.8170, 6972.000
718.9700, 7213.000
720.1230, 6891.000
721.2760, 6960.000
722.4280, 6866.000
723.5810, 6879.000
724.7330, 6779.000
725.8850, 6734.000
727.0370, 6708.000
728.1890, 6769.000
729.3400, 6702.000
730.4920, 6668.000
731.6430, 6716.000
732.7940, 6562.000
733.9450, 6573.000
735.0960, 6528.000
736.2460, 6485.000
737.3970, 6377.000
738.5470, 6396.000
739.6970, 6488.000
740.8470, 6358.000
741.9970, 6407.000
743.1470, 6397.000
744.2970, 6256.000
745.4460, 6224.000
746.5950, 6196.000
747.7440, 6170.426
748.8930, 6129.907
750.0420, 6202.000
751.1900, 6079.000
752.3390, 6095.000
753.4870, 6136.000
754.6350, 6052.000
755.7830, 6164.000
756.9310, 6057.000
758.0780, 6000.000
759.2260, 5980.000
760.3730, 5968.572
761.5200, 5995.000
762.6670, 6058.000
763.8140, 6054.000
764.9610, 6182.000
766.1070, 6120.000
767.2530, 6087.000
768.4000, 5954.000
769.5460, 6064.000
770.6910, 5977.000
771.8370, 6085.000
772.9830, 6017.000
774.1280, 6048.000
775.2730, 6067.000
776.4180, 6103.000
777.5630, 6047.000
778.7080, 6032.000
779.8520, 6115.000
780.9970, 6069.000
782.1410, 6156.000
783.2850, 6085.000
784.4290, 6111.000
785.5730, 6044.000
786.7160, 6078.000
787.8600, 6043.000
789.0030, 5989.000
790.1460, 6088.000
791.2890, 6079.000
792.4320, 6116.000
793.5750, 6157.000
794.7170, 6172.000
795.8590, 6129.000
797.0020, 6095.000
798.1440, 6114.000
799.2850, 6210.000
800.4270, 6220.000
801.5690, 6235.000
802.7100, 6172.000
803.8510, 6107.000
804.9920, 6105.000
806.1330, 6277.000
807.2740, 6168.000
808.4140, 6272.000
809.5550, 6263.000
810.6950, 6239.000
811.8350, 6348.000
812.9750, 6283.000
814.1150, 6256.000
815.2540, 6311.000
816.3940, 6357.000
817.5330, 6270.000
818.6720, 6385.000
819.8110, 6413.000
820.9500, 6513.000
822.0880, 6427.000
823.2270, 6416.000
824.3650, 6377.000
825.5030, 6480.000
826.6410, 6479.000
827.7790, 6542.000
828.9170, 6603.000
830.0540, 6596.000
831.1920, 6605.000
832.3290, 6654.000
833.4660, 6630.000
834.6030, 6696.000
835.7390, 6779.000
836.8760, 6749.000
838.0120, 6711.000
839.1480, 6696.000
840.2840, 6735.000
841.4200, 6769.000
842.5560, 6686.000
843.6920, 6821.000
844.8270, 6777.000
845.9620, 6723.000
847.0970, 6795.000
848.2320, 6852.000
849.3670, 6917.000
850.5020, 7003.000
851.6360, 6909.000
852.7700, 6993.000
853.9040, 6918.000
855.0380, 7013.000
856.1720, 7040.000
857.3060, 7094.000
858.4390, 7067.000
859.5730, 7055.000
860.7060, 7069.000
861.8390, 7085.000
862.9720, 7164.000
864.1040, 7056.000
865.2370, 7137.000
866.3690, 7113.000
867.5010, 7101.000
868.6330, 7164.000
869.7650, 7208.000
870.8970, 7200.885
872.0290, 7184.000
873.1600, 7216.000
874.2910, 7201.000
875.4220, 7231.000
876.5530, 7241.000
877.6840, 7367.000
878.8140, 7388.000
879.9450, 7418.000
881.0750, 7432.000
882.2050, 7432.000
883.3350, 7420.000
884.4650, 7540.000
885.5950, 7489.000
886.7240, 7509.000
887.8530, 7441.000
888.9820, 7527.000
890.1110, 7496.000
891.2400, 7510.000
892.3690, 7487.000
893.4970, 7439.000
894.6260, 7403.000
895.7540, 7375.000
896.8820, 7343.000
898.0100, 7326.974
899.1370, 7301.435
900.2650, 7293.000
901.3920, 7276.000
902.5200, 7243.000
903.6470, 7261.000
904.7730, 7199.000
905.9000, 7277.000
907.0270, 7225.000
908.1530, 7320.000
909.2790, 7327.000
910.4050, 7167.000
911.5310, 7160.000
912.6570, 7151.000
913.7830, 7198.000
914.9080, 7184.000
916.0330, 7185.559
917.1580, 7163.000
918.2830, 7139.466
919.4080, 7072.000
920.5330, 7081.000
921.6570, 7063.000
922.7820, 7040.000
923.9060, 7123.000
925.0300, 7215.000
926.1540, 7124.000
927.2770, 7183.000
928.4010, 7105.000
929.5240, 7088.000
930.6470, 7201.000
931.7700, 7146.000
932.8930, 7082.000
934.0160, 7041.000
935.1380, 7103.000
936.2610, 7131.000
937.3830, 7096.000
938.5050, 7154.815
939.6270, 7155.648
940.7490, 7164.000
941.8700, 7168.000
942.9910, 7141.420
944.1130, 7011.000
945.2340, 7089.000
946.3550, 7006.000
947.4750, 6992.000
948.5960, 7111.000
949.7160, 7045.000
950.8370, 7212.000
951.9570, 7087.000
953.0770, 7054.000
954.1970, 7128.000
955.3160, 7084.000
956.4360, 7248.000
957.5550, 7042.000
958.6740, 6991.000
959.7930, 7178.000
960.9120, 7207.000
962.0310, 7137.000
963.1490, 7149.000
964.2670, 7272.000
965.3860, 7269.000
966.5040, 7435.000
967.6210, 7429.000
968.7390, 7476.819
969.8570, 7395.000
970.9740, 7504.000
972.0910, 7537.000
973.2080, 7500.000
974.3250, 7583.000
975.4420, 7532.000
976.5580, 7623.000
977.6750, 7663.000
978.7910, 7814.000
979.9070, 7695.000
981.0230, 7660.000
982.1390, 7885.000
983.2540, 7933.000
984.3700, 7785.000
985.4850, 7808.000
986.6000, 7879.000
987.7150, 7847.000
988.8300, 7850.810
989.9450, 7766.000
991.0590, 7792.000
992.1730, 7736.000
993.2880, 7693.000
994.4010, 7699.000
995.5150, 7636.000
996.6290, 7587.000
997.7420, 7764.000
998.8560, 7716.000
999.9690, 7676.000
1001.082, 7662.000
1002.195, 7614.000
1003.307, 7606.000
1004.420, 7626.000
1005.532, 7731.000
1006.645, 7674.000
1007.757, 7707.000
1008.868, 7660.000
1009.980, 7640.000
1011.092, 7626.000
1012.203, 7636.547
1013.314, 7772.000
1014.425, 7711.000
1015.536, 7762.000
1016.647, 7851.000
1017.758, 7778.000
1018.868, 7842.000
1019.978, 7811.000
1021.088, 7822.000
1022.198, 7900.000
1023.308, 7943.000
1024.418, 7710.375
1025.527, 7748.197
1026.637, 7757.669
1027.746, 7740.359
1028.855, 7615.963
1029.963, 7629.871
1031.072, 7588.338
1032.181, 7544.533
1033.289, 7577.907
1034.397, 7469.109
1035.505, 7501.256
1036.613, 7477.141
1037.721, 7478.778
1038.828, 7438.000
1039.935, 7500.000
1041.043, 7316.000
1042.150, 7370.000
1043.257, 7314.000
1044.363, 7282.000
1045.470, 7278.000
1046.576, 7219.000
1047.682, 7257.000
1048.788, 7205.963
1049.894, 7263.000
1051.000, 7146.000
1052.106, 7094.000
1053.211, 7073.000
1054.316, 6945.000
1055.421, 6961.000
1056.526, 6895.984
1057.631, 7002.000
1058.736, 6835.000
1059.840, 6846.000
1060.944, 6858.000
1062.049, 6772.000
1063.153, 6859.000
1064.256, 6789.000
1065.360, 6872.000
1066.463, 6777.000
1067.567, 6801.000
1068.670, 6677.000
1069.773, 6688.000
1070.876, 6721.000
1071.978, 6664.000
1073.081, 6610.000
1074.183, 6608.000
1075.285, 6619.000
1076.387, 6616.000
1077.489, 6573.000
1078.591, 6568.000
1079.692, 6611.000
1080.794, 6414.000
1081.895, 6411.000
1082.996, 6461.000
1084.097, 6527.000
1085.198, 6458.000
1086.298, 6516.953
1087.399, 6396.000
1088.499, 6529.000
1089.599, 6492.000
1090.699, 6462.000
1091.799, 6414.000
1092.898, 6436.000
1093.998, 6410.154
1095.097, 6413.638
1096.196, 6406.000
1097.295, 6433.000
1098.394, 6438.000
1099.492, 6460.000
1100.591, 6393.000
1101.689, 6353.000
1102.787, 6432.000
1103.885, 6332.000
1104.983, 6492.000
1106.081, 6440.000
1107.178, 6479.000
1108.275, 6444.000
1109.373, 6451.000
1110.470, 6402.000
1111.566, 6443.000
1112.663, 6353.000
1113.760, 6456.000
1114.856, 6359.000
1115.952, 6336.000
1117.048, 6367.000
1118.144, 6396.000
1119.240, 6358.000
1120.335, 6330.000
1121.431, 6261.000
1122.526, 6422.000
1123.621, 6268.000
1124.716, 6308.000
1125.810, 6381.000
1126.905, 6291.000
1127.999, 6410.000
1129.094, 6341.000
1130.188, 6398.000
1131.282, 6342.000
1132.375, 6222.000
1133.469, 6387.000
1134.562, 6443.000
1135.656, 6386.416
1136.749, 6349.000
1137.842, 6311.000
1138.935, 6327.000
1140.027, 6260.000
1141.120, 6373.000
1142.212, 6355.000
1143.304, 6374.000
1144.396, 6354.000
1145.488, 6355.000
1146.579, 6330.000
1147.671, 6341.000
1148.762, 6371.000
1149.853, 6450.000
1150.944, 6379.000
1152.035, 6413.162
1153.126, 6405.770
1154.216, 6395.000
1155.307, 6375.000
1156.397, 6372.000
1157.487, 6336.000
1158.577, 6265.000
1159.667, 6332.000
1160.756, 6406.000
1161.846, 6254.000
1162.935, 6298.000
1164.024, 6352.000
1165.113, 6320.000
1166.201, 6308.000
1167.290, 6287.000
1168.378, 6243.000
1169.467, 6288.000
1170.555, 6263.000
1171.643, 6292.000
1172.730, 6256.000
1173.818, 6337.000
1174.905, 6351.000
1175.993, 6257.000
1177.080, 6303.000
1178.167, 6333.000
1179.254, 6339.000
1180.340, 6342.000
1181.427, 6313.000
1182.513, 6348.000
1183.599, 6332.000
1184.685, 6412.000
1185.771, 6427.000
1186.856, 6359.000
1187.942, 6441.000
1189.027, 6378.000
1190.112, 6340.000
1191.197, 6413.000
1192.282, 6362.000
1193.367, 6390.000
1194.451, 6400.000
1195.536, 6300.000
1196.620, 6367.000
1197.704, 6410.000
1198.788, 6369.000
1199.872, 6363.000
1200.955, 6454.000
1202.039, 6384.000
1203.122, 6387.000
1204.205, 6339.000
1205.288, 6372.000
1206.370, 6326.000
1207.453, 6400.000
1208.535, 6447.000
1209.618, 6450.000
1210.700, 6446.000
1211.782, 6449.433
1212.863, 6364.000
1213.945, 6409.000
1215.026, 6417.000
1216.108, 6371.000
1217.189, 6478.000
1218.270, 6410.000
1219.351, 6462.000
1220.431, 6456.000
1221.512, 6475.000
1222.592, 6433.000
1223.672, 6494.000
1224.752, 6473.502
1225.832, 6488.554
1226.911, 6495.118
1227.991, 6493.570
1229.070, 6463.848
1230.149, 6467.290
1231.228, 6455.471
1232.307, 6441.678
1233.386, 6445.768
1234.464, 6412.920
1235.543, 6413.893
1236.621, 6399.408
1237.699, 6412.000
1238.777, 6429.000
1239.855, 6385.000
1240.932, 6380.000
1242.009, 6363.000
1243.087, 6385.000
1244.164, 6346.000
1245.241, 6379.000
1246.317, 6304.000
1247.394, 6360.000
1248.470, 6403.000
1249.546, 6383.000
1250.623, 6431.000
1251.698, 6417.000
1252.774, 6458.000
1253.850, 6394.000
1254.925, 6426.000
1256.000, 6387.000
1257.076, 6424.000
1258.150, 6401.000
1259.225, 6392.000
1260.300, 6330.000
1261.374, 6437.000
1262.449, 6329.000
1263.523, 6479.000
1264.597, 6513.000
1265.670, 6401.000
1266.744, 6476.000
1267.818, 6378.000
1268.891, 6466.000
1269.964, 6423.000
1271.037, 6382.000
1272.110, 6473.000
1273.183, 6447.000
1274.255, 6433.000
1275.327, 6483.000
1276.400, 6537.000
1277.472, 6513.000
1278.543, 6505.000
1279.615, 6519.000
1280.687, 6517.000
1281.758, 6530.000
1282.829, 6538.000
1283.900, 6581.000
1284.971, 6623.000
1286.042, 6565.000
1287.112, 6614.000
1288.183, 6616.000
1289.253, 6607.494
1290.323, 6609.000
1291.393, 6637.000
1292.463, 6672.000
1293.532, 6742.000
1294.602, 6659.000
1295.671, 6695.000
1296.740, 6729.000
1297.809, 6695.000
1298.878, 6752.000
1299.946, 6685.000
1301.015, 6751.000
1302.083, 6756.000
1303.151, 6788.000
1304.219, 6757.000
1305.287, 6776.000
1306.354, 6822.000
1307.422, 6780.000
1308.489, 6657.000
1309.556, 6675.000
1310.623, 6695.000
1311.690, 6835.000
1312.757, 6729.000
1313.823, 6691.000
1314.890, 6782.000
1315.956, 6738.000
1317.022, 6775.000
1318.088, 6790.000
1319.153, 6760.000
1320.219, 6791.000
1321.284, 6758.000
1322.349, 6837.000
1323.414, 6734.000
1324.479, 6805.000
1325.544, 6778.000
1326.608, 6681.000
1327.673, 6847.000
1328.737, 6879.000
1329.801, 6853.000
1330.865, 6772.000
1331.929, 6735.000
1332.992, 6820.000
1334.056, 6758.000
1335.119, 6771.000
1336.182, 6855.000
1337.245, 6762.000
1338.308, 6760.000
1339.370, 6747.000
1340.433, 6898.000
1341.495, 6799.000
1342.557, 6850.000
1343.619, 6735.000
1344.681, 6813.000
1345.742, 6815.000
1346.804, 6798.000
1347.865, 6707.000
1348.926, 6787.000
1349.987, 6807.000
1351.048, 6702.000
1352.108, 6796.000
1353.169, 6815.000
1354.229, 6697.000
1355.289, 6758.000
1356.349, 6751.000
1357.409, 6838.000
1358.469, 6688.000
1359.528, 6792.000
1360.588, 6665.000
1361.647, 6726.000
1362.706, 6742.000
1363.765, 6657.000
1364.823, 6739.000
1365.882, 6767.000
1366.940, 6700.000
1367.998, 6654.000
1369.056, 6643.000
1370.114, 6661.000
1371.172, 6673.905
1372.229, 6679.000
1373.287, 6743.000
1374.344, 6564.000
1375.401, 6564.000
1376.458, 6726.000
1377.515, 6561.000
1378.571, 6755.000
1379.628, 6658.000
1380.684, 6666.000
1381.740, 6495.000
1382.796, 6657.000
1383.852, 6585.000
1384.907, 6613.000
1385.963, 6596.000
1387.018, 6680.000
1388.073, 6629.000
1389.128, 6551.000
1390.183, 6646.000
1391.237, 6599.000
1392.292, 6568.000
1393.346, 6619.000
1394.400, 6528.000
1395.454, 6569.000
1396.508, 6661.000
1397.562, 6494.000
1398.615, 6580.000
1399.668, 6528.000
1400.722, 6567.000
1401.775, 6532.000
1402.827, 6589.000
1403.880, 6495.000
1404.933, 6603.000
1405.985, 6502.000
1407.037, 6511.000
1408.089, 6543.000
1409.141, 6503.000
1410.193, 6542.000
1411.244, 6528.000
1412.295, 6537.090
1413.347, 6489.000
1414.398, 6547.000
1415.449, 6563.000
1416.499, 6538.000
1417.550, 6485.000
1418.600, 6515.000
1419.650, 6452.000
1420.700, 6529.000
1421.750, 6536.000
1422.800, 6563.000
1423.850, 6562.000
1424.899, 6564.000
1425.948, 6617.000
1426.997, 6632.000
1428.046, 6655.480
1429.095, 6679.459
1430.144, 6707.000
1431.192, 6695.000
1432.240, 6751.443
1433.288, 6777.042
1434.336, 6795.559
1435.384, 6807.375
1436.432, 6792.418
1437.479, 6812.024
1438.526, 6817.775
1439.574, 6822.968
1440.621, 6847.440
1441.667, 6836.361
1442.714, 6860.528
1443.760, 6834.967
1444.807, 6845.049
1445.853, 6848.055
1446.899, 6844.359
1447.945, 6813.893
1448.990, 6818.001
1450.036, 6808.250
1451.081, 6797.937
1452.126, 6806.912
1453.171, 6780.344
1454.216, 6789.013
1455.261, 6783.616
1456.305, 6784.662
1457.350, 6771.764
1458.394, 6763.175
1459.438, 6768.532
1460.482, 6766.167
1461.526, 6751.669
1462.569, 6753.131
1463.612, 6726.088
1464.656, 6724.053
1465.699, 6732.815
1466.742, 6719.024
1467.784, 6720.746
1468.827, 6716.556
1469.869, 6685.531
1470.912, 6701.180
1471.954, 6764.000
1472.996, 6678.000
1474.037, 6665.000
1475.079, 6710.000
1476.120, 6715.000
1477.162, 6694.000
1478.203, 6787.000
1479.244, 6661.000
1480.284, 6778.000
1481.325, 6777.000
1482.365, 6725.000
1483.406, 6742.000
1484.446, 6665.000
1485.486, 6649.000
1486.526, 6646.000
1487.565, 6701.000
1488.605, 6683.000
1489.644, 6660.000
1490.683, 6664.000
1491.722, 6612.000
1492.761, 6685.000
1493.800, 6627.000
1494.838, 6569.000
1495.876, 6633.013
1496.915, 6603.337
1497.953, 6693.000
1498.990, 6644.000
1500.028, 6642.000
1501.066, 6666.000
1502.103, 6632.000
1503.140, 6635.000
1504.177, 6691.000
1505.214, 6684.000
1506.251, 6628.000
1507.287, 6649.000
1508.324, 6679.000
1509.360, 6530.000
1510.396, 6644.000
1511.432, 6741.000
1512.468, 6609.000
1513.503, 6740.000
1514.538, 6605.000
1515.574, 6656.000
1516.609, 6661.000
1517.644, 6699.000
1518.678, 6743.000
1519.713, 6736.142
1520.747, 6663.000
1521.782, 6742.000
1522.816, 6689.000
1523.850, 6697.000
1524.883, 6803.000
1525.917, 6724.078
1526.951, 6696.000
1527.984, 6709.000
1529.017, 6677.000
1530.050, 6780.000
1531.083, 6656.000
1532.115, 6665.000
1533.148, 6801.000
1534.180, 6747.000
1535.212, 6744.000
1536.244, 6754.000
1537.276, 6718.000
1538.308, 6649.000
1539.339, 6746.000
1540.370, 6769.000
1541.402, 6677.000
1542.433, 6801.000
1543.463, 6812.000
1544.494, 6722.000
1545.525, 6793.000
##END=



