##NAMES=Aenigmatite
##RRUFFID=R061088
##IDEAL CHEMISTRY=Na_4_(Fe^2+^_10_Ti^4+^_2_)O_4_[Si_12_O_36_]
##LOCALITY=Naujakasik, Greenland
##OWNER=RRUFF
##SOURCE=Michael Scott
##DESCRIPTION=Black prismatic crystals
##STATUS=The identification of this mineral has been confirmed by X-ray diffraction and chemical analysis
##URL=rruff.info/R061088
##MEASURED CHEMISTRY=(Na_1.72_Ca_0.28_)_Σ=2_(Fe^2+^_4.90_Mn_0.08_Mg_0.02_)_Σ=5_(Ti_0.85_Al_0.14_Fe^3+^_0.01_)_Σ=1_(Si_5.87_Al_0.13_)_Σ=6_O_20_
##PIN_ID=L00777
##ORIENTATION=Laser parallel to b* (0 1 0). Fiducial mark perpendicular to laser is parallel to c [0 0 1]
133.7500, 6596.000
134.9800, 6471.000
136.2100, 6460.000
137.4400, 6555.000
138.6700, 6901.000
139.9000, 7004.000
141.1290, 6930.000
142.3590, 6821.000
143.5880, 6880.000
144.8170, 6936.000
146.0460, 6993.000
147.2750, 7164.000
148.5030, 7224.793
149.7320, 7346.715
150.9600, 7470.000
152.1880, 7572.000
153.4160, 7775.000
154.6440, 7894.000
155.8720, 8064.000
157.0990, 8144.000
158.3270, 8156.000
159.5540, 8351.000
160.7810, 8452.060
162.0080, 8686.000
163.2350, 8710.000
164.4610, 8722.000
165.6880, 8717.000
166.9140, 8525.000
168.1400, 8288.000
169.3660, 8170.000
170.5920, 7890.000
171.8180, 7483.000
173.0430, 7243.000
174.2690, 6976.000
175.4940, 6802.000
176.7190, 6624.000
177.9440, 6546.000
179.1680, 6394.000
180.3930, 6369.000
181.6170, 6386.000
182.8420, 6356.000
184.0660, 6412.000
185.2900, 6466.000
186.5140, 6558.000
187.7370, 6599.000
188.9610, 6616.000
190.1840, 6537.000
191.4070, 6459.000
192.6300, 6467.000
193.8530, 6456.367
195.0760, 6561.000
196.2980, 6539.000
197.5210, 6527.000
198.7430, 6613.000
199.9650, 6624.000
201.1870, 6689.000
202.4090, 6608.000
203.6310, 6408.000
204.8520, 6193.000
206.0730, 6085.000
207.2950, 6034.000
208.5160, 6063.000
209.7360, 6032.000
210.9570, 6119.000
212.1780, 6147.599
213.3980, 6161.675
214.6180, 6273.000
215.8380, 6166.000
217.0580, 6227.000
218.2780, 6145.000
219.4980, 6285.000
220.7170, 6331.000
221.9360, 6367.000
223.1560, 6397.000
224.3750, 6430.000
225.5930, 6446.000
226.8120, 6533.000
228.0310, 6479.000
229.2490, 6713.000
230.4670, 6482.000
231.6850, 6699.000
232.9030, 6624.000
234.1210, 6583.000
235.3380, 6487.000
236.5560, 6430.000
237.7730, 6465.000
238.9900, 6488.000
240.2070, 6555.000
241.4240, 6542.154
242.6410, 6506.000
243.8570, 6512.000
245.0730, 6481.000
246.2900, 6421.000
247.5060, 6414.000
248.7210, 6407.000
249.9370, 6351.214
251.1530, 6372.114
252.3680, 6379.922
253.5830, 6375.336
254.7980, 6321.231
256.0130, 6331.069
257.2280, 6315.281
258.4430, 6298.442
259.6570, 6317.287
260.8720, 6270.384
262.0860, 6288.663
263.3000, 6280.925
264.5130, 6285.102
265.7270, 6263.487
266.9410, 6256.000
268.1540, 6241.000
269.3670, 6247.000
270.5800, 6250.000
271.7930, 6223.000
273.0060, 6303.000
274.2190, 6340.000
275.4310, 6337.817
276.6430, 6298.000
277.8550, 6367.000
279.0670, 6358.000
280.2790, 6403.000
281.4910, 6348.000
282.7020, 6307.000
283.9140, 6348.000
285.1250, 6414.000
286.3360, 6598.000
287.5470, 6610.000
288.7570, 6596.000
289.9680, 6723.000
291.1780, 6743.000
292.3880, 6774.000
293.5990, 7010.000
294.8080, 7153.000
296.0180, 7161.000
297.2280, 7339.000
298.4370, 7423.000
299.6470, 7490.000
300.8560, 7676.000
302.0650, 7679.000
303.2740, 7915.000
304.4820, 7980.000
305.6910, 7946.000
306.8990, 8141.000
308.1070, 8027.000
309.3150, 8035.000
310.5230, 7918.000
311.7310, 7782.000
312.9390, 7642.000
314.1460, 7538.378
315.3530, 7468.000
316.5600, 7298.000
317.7670, 7241.000
318.9740, 7070.000
320.1810, 6928.000
321.3870, 6795.000
322.5930, 6821.000
323.8000, 6723.000
325.0060, 6514.000
326.2110, 6540.000
327.4170, 6393.000
328.6230, 6383.000
329.8280, 6256.000
331.0330, 6238.000
332.2380, 6277.000
333.4430, 6170.000
334.6480, 6216.000
335.8530, 6152.000
337.0570, 6132.000
338.2610, 6062.000
339.4650, 6074.000
340.6690, 6094.146
341.8730, 6107.000
343.0770, 6193.000
344.2800, 6293.000
345.4840, 6365.000
346.6870, 6399.000
347.8900, 6508.000
349.0930, 6575.000
350.2950, 6665.000
351.4980, 6842.000
352.7000, 7082.000
353.9030, 7144.000
355.1050, 7368.000
356.3070, 7700.000
357.5080, 7666.000
358.7100, 7857.000
359.9110, 7997.000
361.1130, 8040.000
362.3140, 8069.000
363.5150, 8169.000
364.7160, 8101.000
365.9160, 8064.000
367.1170, 7957.000
368.3170, 7810.000
369.5170, 7757.000
370.7170, 7702.000
371.9170, 7578.000
373.1170, 7578.000
374.3170, 7509.000
375.5160, 7439.000
376.7150, 7317.000
377.9140, 7243.000
379.1130, 7277.000
380.3120, 7129.000
381.5110, 7083.000
382.7090, 7217.000
383.9070, 7064.000
385.1060, 7087.000
386.3040, 7051.000
387.5010, 6965.000
388.6990, 6990.000
389.8970, 6905.000
391.0940, 6924.000
392.2910, 6780.000
393.4880, 6852.000
394.6850, 6779.000
395.8820, 6750.000
397.0780, 6698.000
398.2750, 6582.000
399.4710, 6530.000
400.6670, 6480.000
401.8630, 6436.165
403.0590, 6490.000
404.2540, 6399.000
405.4500, 6466.000
406.6450, 6464.000
407.8400, 6378.000
409.0350, 6421.765
410.2300, 6340.000
411.4250, 6417.000
412.6190, 6415.000
413.8140, 6422.000
415.0080, 6453.000
416.2020, 6445.000
417.3960, 6528.000
418.5900, 6501.000
419.7830, 6688.000
420.9770, 6819.000
422.1700, 6869.000
423.3630, 6982.000
424.5560, 7089.000
425.7490, 7079.000
426.9410, 7077.000
428.1340, 7222.000
429.3260, 7311.000
430.5180, 7353.000
431.7100, 7398.000
432.9020, 7465.000
434.0940, 7460.196
435.2850, 7434.000
436.4770, 7450.000
437.6680, 7395.000
438.8590, 7372.000
440.0500, 7330.000
441.2410, 7300.510
442.4310, 7258.000
443.6220, 7210.000
444.8120, 7134.000
446.0020, 7005.000
447.1920, 6945.000
448.3820, 6863.000
449.5710, 7027.000
450.7610, 6862.000
451.9500, 6820.000
453.1390, 6660.000
454.3280, 6688.000
455.5170, 6726.000
456.7060, 6671.000
457.8940, 6679.000
459.0830, 6699.000
460.2710, 6699.000
461.4590, 6696.000
462.6470, 6625.000
463.8350, 6709.000
465.0220, 6750.000
466.2100, 6665.000
467.3970, 6746.000
468.5840, 6842.000
469.7710, 6778.000
470.9580, 6764.000
472.1440, 6784.000
473.3310, 6861.000
474.5170, 6751.000
475.7030, 6891.000
476.8890, 6880.000
478.0750, 6951.000
479.2610, 7016.000
480.4460, 7019.000
481.6320, 7096.000
482.8170, 7067.000
484.0020, 7044.000
485.1870, 7068.056
486.3710, 7074.000
487.5560, 7057.000
488.7400, 7128.000
489.9250, 7115.000
491.1090, 7197.000
492.2930, 7063.000
493.4760, 7082.000
494.6600, 7057.000
495.8440, 6995.000
497.0270, 7139.000
498.2100, 7059.000
499.3930, 7156.000
500.5760, 7126.000
501.7580, 7121.000
502.9410, 7162.535
504.1230, 7280.000
505.3060, 7212.000
506.4880, 7352.000
507.6690, 7418.000
508.8510, 7421.646
510.0330, 7488.000
511.2140, 7487.000
512.3950, 7548.000
513.5760, 7602.000
514.7570, 7547.000
515.9380, 7677.000
517.1190, 7717.000
518.2990, 7710.000
519.4800, 7696.000
520.6600, 7845.000
521.8400, 7954.000
523.0190, 7902.698
524.1990, 7914.000
525.3790, 7924.000
526.5580, 7967.000
527.7370, 7980.990
528.9160, 8121.000
530.0950, 8060.000
531.2740, 8120.000
532.4520, 8219.000
533.6310, 8092.000
534.8090, 8125.000
535.9870, 8023.000
537.1650, 8140.000
538.3430, 8145.000
539.5200, 8110.000
540.6980, 8171.000
541.8750, 8155.000
543.0520, 8132.000
544.2290, 8140.000
545.4060, 8093.000
546.5820, 8098.000
547.7590, 8054.000
548.9350, 8080.000
550.1110, 8030.000
551.2870, 7954.000
552.4630, 8056.000
553.6390, 8055.000
554.8140, 8131.000
555.9900, 8083.000
557.1650, 8197.000
558.3400, 8126.983
559.5150, 8080.000
560.6900, 8037.000
561.8640, 7919.000
563.0390, 7908.000
564.2130, 7803.000
565.3870, 7764.000
566.5610, 7785.000
567.7350, 7758.000
568.9080, 7720.000
570.0820, 7611.000
571.2550, 7625.000
572.4280, 7626.000
573.6010, 7545.000
574.7740, 7544.000
575.9470, 7372.000
577.1190, 7300.000
578.2920, 7315.000
579.4640, 7289.000
580.6360, 7280.000
581.8080, 7184.000
582.9790, 7169.000
584.1510, 7200.000
585.3220, 7093.000
586.4940, 7127.000
587.6650, 7109.000
588.8360, 7182.000
590.0060, 7179.000
591.1770, 7322.000
592.3470, 7297.000
593.5180, 7411.000
594.6880, 7556.000
595.8580, 7483.000
597.0280, 7829.000
598.1970, 7797.000
599.3670, 7844.000
600.5360, 8050.000
601.7050, 7965.000
602.8740, 8112.000
604.0430, 8269.000
605.2120, 8439.000
606.3800, 8497.000
607.5490, 8611.000
608.7170, 8734.000
609.8850, 8842.000
611.0530, 8883.000
612.2210, 9035.000
613.3880, 9189.000
614.5560, 9096.000
615.7230, 9391.000
616.8900, 9508.000
618.0570, 9762.000
619.2240, 9996.150
620.3900, 10070.00
621.5570, 10456.00
622.7230, 10764.00
623.8890, 10955.00
625.0550, 11409.00
626.2210, 11846.00
627.3870, 12349.00
628.5520, 12958.00
629.7180, 13667.00
630.8830, 14530.00
632.0480, 15370.00
633.2130, 16480.00
634.3770, 17539.00
635.5420, 19044.00
636.7060, 20365.00
637.8710, 21900.00
639.0350, 23367.00
640.1990, 24935.00
641.3620, 26022.00
642.5260, 27190.00
643.6890, 27956.00
644.8530, 28315.00
646.0160, 28705.00
647.1790, 28391.00
648.3410, 27888.00
649.5040, 27322.00
650.6670, 26697.85
651.8290, 26026.00
652.9910, 25208.00
654.1530, 24327.00
655.3150, 23487.00
656.4770, 22697.00
657.6380, 21947.49
658.7990, 21301.00
659.9610, 20529.00
661.1220, 19867.00
662.2830, 19147.00
663.4430, 18674.00
664.6040, 18082.00
665.7640, 17653.00
666.9240, 17156.00
668.0850, 16596.00
669.2440, 16465.00
670.4040, 16438.00
671.5640, 16142.00
672.7230, 16209.00
673.8830, 16135.00
675.0420, 16219.00
676.2010, 16181.00
677.3590, 16035.00
678.5180, 16065.00
679.6770, 15963.00
680.8350, 15993.00
681.9930, 16119.00
683.1510, 16416.00
684.3090, 16463.00
685.4670, 16633.00
686.6240, 16491.00
687.7810, 16426.00
688.9390, 16136.00
690.0960, 15821.00
691.2530, 15296.00
692.4090, 14862.00
693.5660, 14230.00
694.7220, 13640.00
695.8790, 13207.00
697.0350, 12641.00
698.1910, 12183.00
699.3460, 11756.00
700.5020, 11243.00
701.6570, 10832.00
702.8130, 10645.00
703.9680, 10138.00
705.1230, 10189.00
706.2780, 9764.000
707.4320, 9585.000
708.5870, 9325.000
709.7410, 9307.000
710.8950, 8971.000
712.0490, 9011.000
713.2030, 8737.000
714.3570, 8698.000
715.5100, 8598.000
716.6640, 8311.000
717.8170, 8472.000
718.9700, 8237.000
720.1230, 8248.000
721.2760, 8242.000
722.4280, 8115.000
723.5810, 8040.000
724.7330, 7972.000
725.8850, 7892.000
727.0370, 7843.000
728.1890, 7784.000
729.3400, 7884.000
730.4920, 7906.000
731.6430, 7952.000
732.7940, 7902.000
733.9450, 7870.000
735.0960, 7727.000
736.2460, 7796.000
737.3970, 7675.000
738.5470, 7611.000
739.6970, 7705.000
740.8470, 7550.000
741.9970, 7541.000
743.1470, 7472.000
744.2970, 7412.459
745.4460, 7402.750
746.5950, 7356.000
747.7440, 7365.000
748.8930, 7389.000
750.0420, 7373.000
751.1900, 7369.000
752.3390, 7411.000
753.4870, 7356.000
754.6350, 7333.000
755.7830, 7216.000
756.9310, 7253.000
758.0780, 7289.000
759.2260, 7175.000
760.3730, 7140.000
761.5200, 7158.000
762.6670, 7144.000
763.8140, 7163.000
764.9610, 7169.000
766.1070, 7169.000
767.2530, 7176.000
768.4000, 7220.000
769.5460, 7288.000
770.6910, 7108.000
771.8370, 7165.000
772.9830, 7142.000
774.1280, 7229.000
775.2730, 7124.000
776.4180, 7253.000
777.5630, 7146.000
778.7080, 7184.000
779.8520, 7074.000
780.9970, 7200.000
782.1410, 7160.000
783.2850, 7208.000
784.4290, 7205.000
785.5730, 7246.000
786.7160, 7249.170
787.8600, 7161.000
789.0030, 7237.000
790.1460, 7264.000
791.2890, 7220.000
792.4320, 7298.000
793.5750, 7319.000
794.7170, 7306.000
795.8590, 7301.000
797.0020, 7207.000
798.1440, 7357.000
799.2850, 7275.000
800.4270, 7340.000
801.5690, 7370.000
802.7100, 7458.000
803.8510, 7523.000
804.9920, 7438.000
806.1330, 7281.000
807.2740, 7421.000
808.4140, 7494.000
809.5550, 7339.000
810.6950, 7492.000
811.8350, 7503.000
812.9750, 7530.000
814.1150, 7616.000
815.2540, 7571.000
816.3940, 7616.000
817.5330, 7568.000
818.6720, 7620.000
819.8110, 7607.000
820.9500, 7603.000
822.0880, 7647.000
823.2270, 7646.125
824.3650, 7690.000
825.5030, 7713.000
826.6410, 7665.000
827.7790, 7749.000
828.9170, 7858.000
830.0540, 7872.000
831.1920, 7852.000
832.3290, 7808.000
833.4660, 7964.000
834.6030, 8001.000
835.7390, 7953.000
836.8760, 7900.000
838.0120, 8112.000
839.1480, 8090.000
840.2840, 8046.000
841.4200, 8214.000
842.5560, 8252.000
843.6920, 8321.000
844.8270, 8241.000
845.9620, 8441.000
847.0970, 8445.000
848.2320, 8473.000
849.3670, 8595.000
850.5020, 8610.000
851.6360, 8684.000
852.7700, 8741.000
853.9040, 8927.000
855.0380, 8953.000
856.1720, 9079.000
857.3060, 9133.000
858.4390, 9294.000
859.5730, 9390.000
860.7060, 9343.000
861.8390, 9414.000
862.9720, 9409.000
864.1040, 9425.000
865.2370, 9526.000
866.3690, 9648.000
867.5010, 9719.000
868.6330, 9907.000
869.7650, 9869.000
870.8970, 10047.00
872.0290, 10043.00
873.1600, 10318.00
874.2910, 10460.00
875.4220, 10660.25
876.5530, 10869.36
877.6840, 11131.00
878.8140, 11261.00
879.9450, 11491.00
881.0750, 11694.00
882.2050, 11871.00
883.3350, 12148.00
884.4650, 12373.18
885.5950, 12617.24
886.7240, 12819.00
887.8530, 13118.00
888.9820, 13187.00
890.1110, 13406.00
891.2400, 13346.00
892.3690, 13234.00
893.4970, 12846.00
894.6260, 12887.00
895.7540, 12380.00
896.8820, 12013.00
898.0100, 11618.00
899.1370, 11237.35
900.2650, 10928.69
901.3920, 10575.00
902.5200, 10340.00
903.6470, 10082.00
904.7730, 9823.000
905.9000, 9743.000
907.0270, 9563.000
908.1530, 9411.000
909.2790, 9289.679
910.4050, 9182.513
911.5310, 9073.193
912.6570, 8962.415
913.7830, 8813.050
914.9080, 8738.646
916.0330, 8649.535
917.1580, 8570.290
918.2830, 8537.640
919.4080, 8450.167
920.5330, 8438.785
921.6570, 8412.326
922.7820, 8408.661
923.9060, 8390.131
925.0300, 8290.000
926.1540, 8216.000
927.2770, 8173.000
928.4010, 8096.000
929.5240, 8105.000
930.6470, 8170.000
931.7700, 7993.000
932.8930, 7978.000
934.0160, 7894.625
935.1380, 7969.000
936.2610, 7745.000
937.3830, 7797.000
938.5050, 7809.000
939.6270, 7759.000
940.7490, 7793.000
941.8700, 7756.839
942.9910, 7764.000
944.1130, 7743.000
945.2340, 7705.000
946.3550, 7738.468
947.4750, 7765.982
948.5960, 7780.396
949.7160, 7782.417
950.8370, 7734.917
951.9570, 7751.362
953.0770, 7742.182
954.1970, 7731.952
955.3160, 7757.399
956.4360, 7717.104
957.5550, 7741.985
958.6740, 7740.851
959.7930, 7751.623
960.9120, 7736.612
962.0310, 7729.564
963.1490, 7748.311
964.2670, 7742.000
965.3860, 7740.000
966.5040, 7659.000
967.6210, 7803.000
968.7390, 7818.000
969.8570, 7807.000
970.9740, 7679.000
972.0910, 7704.000
973.2080, 7717.000
974.3250, 7761.000
975.4420, 7751.000
976.5580, 7765.000
977.6750, 7834.000
978.7910, 7806.000
979.9070, 7912.000
981.0230, 7929.000
982.1390, 7961.000
983.2540, 7921.000
984.3700, 7996.000
985.4850, 8109.000
986.6000, 8099.000
987.7150, 7943.000
988.8300, 7845.000
989.9450, 8020.000
991.0590, 7796.000
992.1730, 7839.000
993.2880, 7647.000
994.4010, 7690.000
995.5150, 7573.000
996.6290, 7571.000
997.7420, 7445.000
998.8560, 7540.000
999.9690, 7423.000
1001.082, 7476.000
1002.195, 7449.000
1003.307, 7369.000
1004.420, 7367.000
1005.532, 7266.000
1006.645, 7275.189
1007.757, 7357.000
1008.868, 7324.000
1009.980, 7288.000
1011.092, 7414.000
1012.203, 7397.000
1013.314, 7282.000
1014.425, 7402.000
1015.536, 7370.000
1016.647, 7446.000
1017.758, 7455.000
1018.868, 7412.000
1019.978, 7422.000
1021.088, 7403.000
1022.198, 7419.000
1023.308, 7489.000
1024.418, 7389.000
1025.527, 7444.000
1026.637, 7515.000
1027.746, 7598.000
1028.855, 7595.143
1029.963, 7541.000
1031.072, 7575.000
1032.181, 7594.000
1033.289, 7553.000
1034.397, 7534.000
1035.505, 7451.000
1036.613, 7553.000
1037.721, 7579.000
1038.828, 7522.000
1039.935, 7484.000
1041.043, 7551.000
1042.150, 7488.000
1043.257, 7537.000
1044.363, 7527.000
1045.470, 7548.000
1046.576, 7494.000
1047.682, 7536.000
1048.788, 7474.000
1049.894, 7491.000
1051.000, 7553.000
1052.106, 7461.000
1053.211, 7415.000
1054.316, 7467.000
1055.421, 7346.000
1056.526, 7269.000
1057.631, 7318.000
1058.736, 7275.000
1059.840, 7304.000
1060.944, 7239.000
1062.049, 7301.000
1063.153, 7278.000
1064.256, 7317.000
1065.360, 7169.000
1066.463, 7233.000
1067.567, 7190.000
1068.670, 7224.000
1069.773, 7143.000
1070.876, 7075.068
1071.978, 7104.705
1073.081, 7121.243
1074.183, 7125.387
1075.285, 7080.012
1076.387, 7098.580
1077.489, 7091.522
1078.591, 7083.413
1079.692, 7110.981
1080.794, 7072.808
1081.895, 7099.809
1082.996, 7100.794
1084.097, 7113.686
1085.198, 7100.794
1086.298, 7058.000
1087.399, 7031.000
1088.499, 7053.000
1089.599, 7090.000
1090.699, 7116.000
1091.799, 7095.000
1092.898, 7031.000
1093.998, 7073.000
1095.097, 7054.000
1096.196, 7012.182
1097.295, 7114.000
1098.394, 7140.226
1099.492, 7153.356
1100.591, 7154.088
1101.689, 7105.305
1102.787, 7120.464
1103.885, 7109.999
1104.983, 7098.482
1106.081, 7122.642
1107.178, 7081.064
1108.275, 7104.661
1109.373, 7102.238
1110.470, 7111.726
1111.566, 7095.433
1112.663, 7087.101
1113.760, 7104.561
1114.856, 7107.743
1115.952, 7033.000
1117.048, 7021.000
1118.144, 7065.000
1119.240, 7054.000
1120.335, 7007.000
1121.431, 7092.000
1122.526, 7078.000
1123.621, 7083.000
1124.716, 7037.000
1125.810, 7026.000
1126.905, 7040.000
1127.999, 7038.000
1129.094, 7030.000
1130.188, 7047.000
1131.282, 7040.925
1132.375, 7072.000
1133.469, 7043.000
1134.562, 7028.000
1135.656, 7026.000
1136.749, 7042.000
1137.842, 6901.000
1138.935, 6877.000
1140.027, 7011.000
1141.120, 7104.000
1142.212, 7041.000
1143.304, 7122.000
1144.396, 6973.000
1145.488, 7063.000
1146.579, 7038.000
1147.671, 7104.000
1148.762, 7070.000
1149.853, 7109.000
1150.944, 7035.000
1152.035, 6983.000
1153.126, 7080.000
1154.216, 7045.546
1155.307, 7022.000
1156.397, 7078.000
1157.487, 7165.000
1158.577, 7126.000
1159.667, 7173.000
1160.756, 7081.000
1161.846, 7068.000
1162.935, 7102.000
1164.024, 7105.000
1165.113, 7096.000
1166.201, 7106.000
1167.290, 7164.000
1168.378, 7225.000
1169.467, 7200.324
1170.555, 7217.000
1171.643, 7161.000
1172.730, 7139.000
1173.818, 7112.000
1174.905, 7138.503
1175.993, 7243.000
1177.080, 7199.000
1178.167, 7296.000
1179.254, 7280.000
1180.340, 7348.000
1181.427, 7399.000
1182.513, 7430.000
1183.599, 7355.000
1184.685, 7406.000
1185.771, 7358.000
1186.856, 7439.000
1187.942, 7343.000
1189.027, 7367.000
1190.112, 7420.000
1191.197, 7446.000
1192.282, 7438.000
1193.367, 7459.895
1194.451, 7501.048
1195.536, 7529.112
1196.620, 7544.771
1197.704, 7510.911
1198.788, 7540.995
1199.872, 7545.453
1200.955, 7548.849
1202.039, 7587.932
1203.122, 7561.265
1204.205, 7599.772
1205.288, 7612.262
1206.370, 7636.650
1207.453, 7635.264
1208.535, 7655.000
1209.618, 7649.000
1210.700, 7635.000
1211.782, 7577.000
1212.863, 7553.000
1213.945, 7524.000
1215.026, 7518.182
1216.108, 7508.000
1217.189, 7534.000
1218.270, 7573.000
1219.351, 7592.000
1220.431, 7609.000
1221.512, 7651.000
1222.592, 7532.000
1223.672, 7493.000
1224.752, 7530.000
1225.832, 7580.000
1226.911, 7454.000
1227.991, 7486.000
1229.070, 7468.000
1230.149, 7543.000
1231.228, 7467.000
1232.307, 7456.000
1233.386, 7493.000
1234.464, 7543.000
1235.543, 7625.000
1236.621, 7482.000
1237.699, 7484.000
1238.777, 7533.000
1239.855, 7441.000
1240.932, 7465.000
1242.009, 7425.000
1243.087, 7445.000
1244.164, 7618.000
1245.241, 7495.000
1246.317, 7453.000
1247.394, 7435.000
1248.470, 7678.000
1249.546, 7440.000
1250.623, 7531.000
1251.698, 7603.000
1252.774, 7485.000
1253.850, 7680.000
1254.925, 7556.000
1256.000, 7617.000
1257.076, 7697.000
1258.150, 7651.000
1259.225, 7673.000
1260.300, 7666.000
1261.374, 7694.000
1262.449, 7644.000
1263.523, 7823.000
1264.597, 7778.000
1265.670, 7895.000
1266.744, 7848.000
1267.818, 7818.000
1268.891, 7870.000
1269.964, 7879.000
1271.037, 7969.000
1272.110, 7983.000
1273.183, 8001.000
1274.255, 8002.000
1275.327, 8100.000
1276.400, 8148.000
1277.472, 8183.390
1278.543, 8266.000
1279.615, 8266.000
1280.687, 8339.000
1281.758, 8383.000
1282.829, 8517.000
1283.900, 8495.000
1284.971, 8481.000
1286.042, 8569.000
1287.112, 8485.000
1288.183, 8611.000
1289.253, 8566.000
1290.323, 8678.000
1291.393, 8700.000
1292.463, 8782.000
1293.532, 8874.000
1294.602, 8853.000
1295.671, 8785.000
1296.740, 8887.000
1297.809, 8786.000
1298.878, 8926.000
1299.946, 8812.000
1301.015, 8941.000
1302.083, 8871.000
1303.151, 9007.000
1304.219, 8918.000
1305.287, 9001.000
1306.354, 8825.000
1307.422, 8874.000
1308.489, 8848.000
1309.556, 8825.000
1310.623, 8746.000
1311.690, 8886.000
1312.757, 8956.000
1313.823, 8859.000
1314.890, 8812.000
1315.956, 8811.000
1317.022, 8823.000
1318.088, 8762.000
1319.153, 8799.000
1320.219, 8698.000
1321.284, 8814.000
1322.349, 8765.000
1323.414, 8712.000
1324.479, 8834.000
1325.544, 8789.000
1326.608, 8719.000
1327.673, 8631.000
1328.737, 8622.594
1329.801, 8633.684
1330.865, 8614.000
1331.929, 8680.000
1332.992, 8731.000
1334.056, 8652.000
1335.119, 8758.000
1336.182, 8662.000
1337.245, 8548.000
1338.308, 8574.000
1339.370, 8570.000
1340.433, 8395.000
1341.495, 8514.000
1342.557, 8372.000
1343.619, 8486.000
1344.681, 8364.000
1345.742, 8415.000
1346.804, 8428.000
1347.865, 8300.000
1348.926, 8444.000
1349.987, 8287.000
1351.048, 8256.000
1352.108, 8241.000
1353.169, 8195.000
1354.229, 8140.000
1355.289, 8019.000
1356.349, 8027.000
1357.409, 7987.355
1358.469, 8034.000
1359.528, 8036.000
1360.588, 7962.000
1361.647, 8100.000
1362.706, 7964.000
1363.765, 7956.000
1364.823, 7999.000
1365.882, 7941.000
1366.940, 7972.000
1367.998, 7953.000
1369.056, 7829.000
1370.114, 7887.000
1371.172, 7857.000
1372.229, 7799.000
1373.287, 7827.000
1374.344, 7728.000
1375.401, 7697.000
1376.458, 7782.000
1377.515, 7668.000
1378.571, 7717.000
1379.628, 7579.000
1380.684, 7725.000
1381.740, 7597.000
1382.796, 7631.000
1383.852, 7694.000
1384.907, 7541.000
1385.963, 7585.000
1387.018, 7489.000
1388.073, 7472.000
1389.128, 7499.000
1390.183, 7447.000
1391.237, 7414.000
1392.292, 7322.000
1393.346, 7382.000
1394.400, 7364.000
1395.454, 7385.000
1396.508, 7388.332
1397.562, 7377.735
1398.615, 7394.000
1399.668, 7345.000
1400.722, 7380.000
1401.775, 7332.000
1402.827, 7269.000
1403.880, 7330.000
1404.933, 7205.000
1405.985, 7294.000
1407.037, 7289.000
1408.089, 7251.000
1409.141, 7265.000
1410.193, 7186.000
1411.244, 7268.000
1412.295, 7239.000
1413.347, 7310.000
1414.398, 7212.000
1415.449, 7265.000
1416.499, 7266.000
1417.550, 7225.000
1418.600, 7237.564
1419.650, 7213.962
1420.700, 7209.000
1421.750, 7199.000
1422.800, 7205.000
1423.850, 7234.000
1424.899, 7224.000
1425.948, 7223.000
1426.997, 7207.000
1428.046, 7117.000
1429.095, 7062.000
1430.144, 7318.000
1431.192, 7196.000
1432.240, 7229.000
1433.288, 7132.000
1434.336, 7152.000
1435.384, 7118.000
1436.432, 7121.000
1437.479, 7154.264
1438.526, 7145.000
1439.574, 7221.000
1440.621, 7178.000
1441.667, 7187.000
1442.714, 7197.000
1443.760, 7135.000
1444.807, 7200.000
1445.853, 7185.000
1446.899, 7172.650
1447.945, 7162.743
1448.990, 7145.809
1450.036, 7120.000
1451.081, 7088.000
1452.126, 7125.000
1453.171, 7199.000
1454.216, 7127.000
1455.261, 7191.000
1456.305, 7123.000
1457.350, 7127.934
1458.394, 7194.000
1459.438, 7149.000
1460.482, 7183.658
1461.526, 7153.000
1462.569, 7203.000
1463.612, 7208.000
1464.656, 7216.000
1465.699, 7226.000
1466.742, 7281.000
1467.784, 7228.000
1468.827, 7115.000
1469.869, 7193.000
1470.912, 7176.000
1471.954, 7222.000
1472.996, 7192.000
1474.037, 7244.000
1475.079, 7233.000
1476.120, 7204.000
1477.162, 7230.000
1478.203, 7345.000
1479.244, 7309.000
1480.284, 7428.000
1481.325, 7258.000
1482.365, 7387.000
1483.406, 7277.000
1484.446, 7372.000
1485.486, 7367.000
1486.526, 7276.000
1487.565, 7373.000
1488.605, 7267.000
1489.644, 7309.000
1490.683, 7404.000
1491.722, 7372.000
1492.761, 7351.000
1493.800, 7347.000
1494.838, 7542.000
1495.876, 7345.000
1496.915, 7474.000
1497.953, 7408.000
1498.990, 7435.000
1500.028, 7487.000
1501.066, 7448.000
1502.103, 7430.000
1503.140, 7477.000
1504.177, 7459.000
1505.214, 7541.000
1506.251, 7514.000
1507.287, 7560.000
1508.324, 7520.000
1509.360, 7558.213
1510.396, 7643.000
1511.432, 7636.000
1512.468, 7664.239
1513.503, 7627.000
1514.538, 7686.000
1515.574, 7687.000
1516.609, 7733.000
1517.644, 7609.000
1518.678, 7802.000
1519.713, 7776.000
1520.747, 7725.000
1521.782, 7865.000
1522.816, 7821.000
1523.850, 7794.000
1524.883, 7930.000
1525.917, 7848.000
1526.951, 7897.000
1527.984, 8014.000
1529.017, 7975.000
1530.050, 7941.000
1531.083, 7986.539
1532.115, 8102.000
1533.148, 8050.000
1534.180, 7955.000
1535.212, 8088.000
1536.244, 8090.000
1537.276, 8057.000
1538.308, 8069.000
1539.339, 8092.000
1540.370, 8087.000
1541.402, 8063.000
1542.433, 8110.000
1543.463, 8047.000
1544.494, 8125.000
1545.525, 8047.000
##END=



