##NAMES=Aenigmatite
##RRUFFID=R061088
##IDEAL CHEMISTRY=Na_4_(Fe^2+^_10_Ti^4+^_2_)O_4_[Si_12_O_36_]
##LOCALITY=Naujakasik, Greenland
##OWNER=RRUFF
##SOURCE=Michael Scott
##DESCRIPTION=Black prismatic crystals
##STATUS=The identification of this mineral has been confirmed by X-ray diffraction and chemical analysis
##URL=rruff.info/R061088
##MEASURED CHEMISTRY=(Na_1.72_Ca_0.28_)_Σ=2_(Fe^2+^_4.90_Mn_0.08_Mg_0.02_)_Σ=5_(Ti_0.85_Al_0.14_Fe^3+^_0.01_)_Σ=1_(Si_5.87_Al_0.13_)_Σ=6_O_20_
##PIN_ID=L01498
##ORIENTATION=Laser parallel to -c* (0 0 -1). Fiducial mark perpendicular to laser is parallel to a [1 0 0]
137.4400, 9078.000
138.6700, 9186.192
139.9000, 9219.986
141.1290, 9328.000
142.3590, 9290.000
143.5880, 9288.000
144.8170, 9312.000
146.0460, 9454.000
147.2750, 9627.000
148.5030, 9499.000
149.7320, 9713.000
150.9600, 9908.000
152.1880, 9898.000
153.4160, 9968.000
154.6440, 9854.000
155.8720, 9863.000
157.0990, 9791.000
158.3270, 9771.361
159.5540, 9777.000
160.7810, 9763.000
162.0080, 9842.000
163.2350, 9880.000
164.4610, 9741.000
165.6880, 9713.000
166.9140, 9505.000
168.1400, 9193.000
169.3660, 9153.000
170.5920, 8887.406
171.8180, 8770.000
173.0430, 8548.000
174.2690, 8352.000
175.4940, 8285.000
176.7190, 8144.000
177.9440, 8116.000
179.1680, 7953.000
180.3930, 7933.000
181.6170, 7849.000
182.8420, 7776.000
184.0660, 7948.000
185.2900, 7854.000
186.5140, 8152.000
187.7370, 8138.000
188.9610, 8203.000
190.1840, 8244.000
191.4070, 8404.000
192.6300, 8370.000
193.8530, 8446.000
195.0760, 8490.000
196.2980, 8345.000
197.5210, 8366.000
198.7430, 8465.000
199.9650, 8466.000
201.1870, 8484.000
202.4090, 8368.000
203.6310, 8200.000
204.8520, 7885.000
206.0730, 7818.000
207.2950, 7726.000
208.5160, 7797.000
209.7360, 7820.000
210.9570, 7791.000
212.1780, 7872.000
213.3980, 7885.000
214.6180, 7862.000
215.8380, 7806.000
217.0580, 7800.000
218.2780, 7781.272
219.4980, 7773.000
220.7170, 7736.000
221.9360, 7667.000
223.1560, 7570.000
224.3750, 7473.000
225.5930, 7413.890
226.8120, 7383.000
228.0310, 7310.000
229.2490, 7280.000
230.4670, 7281.000
231.6850, 7189.000
232.9030, 7170.985
234.1210, 7053.000
235.3380, 7078.000
236.5560, 7022.000
237.7730, 6966.000
238.9900, 6932.000
240.2070, 6957.000
241.4240, 6893.000
242.6410, 6917.000
243.8570, 6896.629
245.0730, 6876.000
246.2900, 6880.000
247.5060, 6885.000
248.7210, 6893.686
249.9370, 6878.915
251.1530, 6863.000
252.3680, 6845.000
253.5830, 6795.718
254.7980, 6800.811
256.0130, 6787.912
257.2280, 6757.987
258.4430, 6660.043
259.6570, 6649.961
260.8720, 6604.651
262.0860, 6557.927
263.3000, 6560.207
264.5130, 6472.216
265.7270, 6604.000
266.9410, 6487.000
268.1540, 6554.000
269.3670, 6541.000
270.5800, 6506.000
271.7930, 6412.000
273.0060, 6404.000
274.2190, 6481.000
275.4310, 6531.000
276.6430, 6582.000
277.8550, 6627.000
279.0670, 6552.000
280.2790, 6585.805
281.4910, 6497.000
282.7020, 6576.841
283.9140, 6547.000
285.1250, 6582.000
286.3360, 6574.000
287.5470, 6635.000
288.7570, 6696.000
289.9680, 6730.000
291.1780, 6676.000
292.3880, 6662.000
293.5990, 6627.000
294.8080, 6739.000
296.0180, 6815.000
297.2280, 6722.000
298.4370, 6772.000
299.6470, 6748.000
300.8560, 6725.000
302.0650, 6666.000
303.2740, 6763.000
304.4820, 6831.000
305.6910, 6780.000
306.8990, 6734.000
308.1070, 6721.000
309.3150, 6657.160
310.5230, 6621.406
311.7310, 6586.000
312.9390, 6514.000
314.1460, 6548.000
315.3530, 6470.000
316.5600, 6487.000
317.7670, 6397.000
318.9740, 6302.000
320.1810, 6304.000
321.3870, 6336.000
322.5930, 6341.000
323.8000, 6313.000
325.0060, 6210.000
326.2110, 6208.000
327.4170, 6162.704
328.6230, 6083.000
329.8280, 6146.000
331.0330, 6078.000
332.2380, 6140.000
333.4430, 6201.000
334.6480, 6112.000
335.8530, 6060.000
337.0570, 6098.000
338.2610, 6072.617
339.4650, 6072.000
340.6690, 6111.000
341.8730, 6156.000
343.0770, 6158.000
344.2800, 6275.000
345.4840, 6182.000
346.6870, 6392.000
347.8900, 6293.000
349.0930, 6479.000
350.2950, 6522.000
351.4980, 6511.000
352.7000, 6498.000
353.9030, 6560.000
355.1050, 6620.000
356.3070, 6630.000
357.5080, 6743.000
358.7100, 6849.000
359.9110, 6720.000
361.1130, 6833.000
362.3140, 6864.000
363.5150, 6751.000
364.7160, 6701.000
365.9160, 6753.000
367.1170, 6690.000
368.3170, 6700.000
369.5170, 6633.000
370.7170, 6703.000
371.9170, 6622.000
373.1170, 6668.000
374.3170, 6546.000
375.5160, 6658.000
376.7150, 6466.000
377.9140, 6523.000
379.1130, 6485.000
380.3120, 6474.000
381.5110, 6480.000
382.7090, 6500.000
383.9070, 6496.792
385.1060, 6513.000
386.3040, 6505.000
387.5010, 6468.000
388.6990, 6458.270
389.8970, 6448.738
391.0940, 6463.000
392.2910, 6451.000
393.4880, 6480.000
394.6850, 6513.000
395.8820, 6502.000
397.0780, 6421.000
398.2750, 6390.000
399.4710, 6395.000
400.6670, 6434.000
401.8630, 6366.000
403.0590, 6335.000
404.2540, 6369.000
405.4500, 6335.000
406.6450, 6344.000
407.8400, 6302.000
409.0350, 6289.000
410.2300, 6299.000
411.4250, 6310.405
412.6190, 6290.000
413.8140, 6377.000
415.0080, 6339.000
416.2020, 6369.000
417.3960, 6440.000
418.5900, 6317.000
419.7830, 6440.000
420.9770, 6470.000
422.1700, 6406.000
423.3630, 6553.000
424.5560, 6563.000
425.7490, 6613.000
426.9410, 6670.000
428.1340, 6717.000
429.3260, 6669.000
430.5180, 6743.547
431.7100, 6731.221
432.9020, 6804.000
434.0940, 6757.000
435.2850, 6740.000
436.4770, 6781.000
437.6680, 6866.000
438.8590, 6811.000
440.0500, 6719.000
441.2410, 6778.000
442.4310, 6667.000
443.6220, 6671.000
444.8120, 6566.000
446.0020, 6585.381
447.1920, 6620.000
448.3820, 6580.000
449.5710, 6623.000
450.7610, 6528.000
451.9500, 6498.000
453.1390, 6455.000
454.3280, 6402.000
455.5170, 6395.000
456.7060, 6420.000
457.8940, 6417.000
459.0830, 6423.000
460.2710, 6426.040
461.4590, 6446.000
462.6470, 6414.000
463.8350, 6422.000
465.0220, 6400.460
466.2100, 6369.000
467.3970, 6410.000
468.5840, 6412.000
469.7710, 6461.000
470.9580, 6453.000
472.1440, 6485.000
473.3310, 6586.000
474.5170, 6546.000
475.7030, 6625.000
476.8890, 6578.000
478.0750, 6741.000
479.2610, 6720.000
480.4460, 6853.000
481.6320, 6796.000
482.8170, 6772.000
484.0020, 6847.000
485.1870, 6860.000
486.3710, 6973.000
487.5560, 6912.000
488.7400, 6937.000
489.9250, 7043.000
491.1090, 7007.000
492.2930, 7074.000
493.4760, 7086.000
494.6600, 7168.000
495.8440, 7201.000
497.0270, 7090.000
498.2100, 7056.000
499.3930, 7093.000
500.5760, 7177.000
501.7580, 7130.000
502.9410, 7190.000
504.1230, 7112.000
505.3060, 7036.000
506.4880, 7198.000
507.6690, 7202.000
508.8510, 7115.000
510.0330, 7250.000
511.2140, 7157.000
512.3950, 7137.000
513.5760, 7157.000
514.7570, 7210.000
515.9380, 7254.000
517.1190, 7213.000
518.2990, 7313.000
519.4800, 7304.000
520.6600, 7381.000
521.8400, 7288.000
523.0190, 7553.000
524.1990, 7461.000
525.3790, 7512.000
526.5580, 7696.000
527.7370, 7612.000
528.9160, 7582.000
530.0950, 7668.000
531.2740, 7767.000
532.4520, 7723.000
533.6310, 7765.000
534.8090, 7827.000
535.9870, 7724.000
537.1650, 7825.000
538.3430, 7833.000
539.5200, 7778.000
540.6980, 7760.000
541.8750, 7826.000
543.0520, 7842.000
544.2290, 7765.000
545.4060, 7861.000
546.5820, 7833.000
547.7590, 7840.000
548.9350, 7733.000
550.1110, 7776.000
551.2870, 7673.000
552.4630, 7744.000
553.6390, 7775.000
554.8140, 7646.000
555.9900, 7748.000
557.1650, 7699.000
558.3400, 7527.000
559.5150, 7471.000
560.6900, 7578.000
561.8640, 7385.000
563.0390, 7352.000
564.2130, 7382.000
565.3870, 7221.000
566.5610, 7288.000
567.7350, 7216.000
568.9080, 7158.000
570.0820, 7157.000
571.2550, 7051.000
572.4280, 7083.000
573.6010, 6875.000
574.7740, 6923.000
575.9470, 6894.000
577.1190, 6842.000
578.2920, 6830.000
579.4640, 6771.000
580.6360, 6687.000
581.8080, 6726.000
582.9790, 6745.000
584.1510, 6698.000
585.3220, 6656.000
586.4940, 6678.000
587.6650, 6699.000
588.8360, 6801.000
590.0060, 6860.000
591.1770, 6915.000
592.3470, 6768.000
593.5180, 6897.000
594.6880, 6906.000
595.8580, 6958.000
597.0280, 7062.000
598.1970, 7075.000
599.3670, 7230.000
600.5360, 7203.000
601.7050, 7281.000
602.8740, 7318.000
604.0430, 7359.000
605.2120, 7432.000
606.3800, 7418.000
607.5490, 7491.000
608.7170, 7520.000
609.8850, 7605.000
611.0530, 7718.000
612.2210, 7741.000
613.3880, 7821.000
614.5560, 7835.000
615.7230, 8003.000
616.8900, 7978.000
618.0570, 8146.000
619.2240, 8156.000
620.3900, 8354.000
621.5570, 8375.000
622.7230, 8652.000
623.8890, 8803.000
625.0550, 8997.000
626.2210, 9267.000
627.3870, 9520.989
628.5520, 9843.312
629.7180, 10160.00
630.8830, 10574.00
632.0480, 10969.00
633.2130, 11411.00
634.3770, 11878.84
635.5420, 12286.00
636.7060, 12854.00
637.8710, 13422.00
639.0350, 13914.00
640.1990, 14521.00
641.3620, 14973.40
642.5260, 15341.00
643.6890, 15824.00
644.8530, 16301.00
646.0160, 16559.00
647.1790, 16783.00
648.3410, 17003.40
649.5040, 17074.00
650.6670, 17193.00
651.8290, 17184.00
652.9910, 17116.00
654.1530, 16957.00
655.3150, 16968.00
656.4770, 16809.00
657.6380, 16470.00
658.7990, 16150.00
659.9610, 16155.00
661.1220, 15805.00
662.2830, 15648.00
663.4430, 15146.00
664.6040, 15091.00
665.7640, 14712.00
666.9240, 14384.00
668.0850, 14153.00
669.2440, 14084.00
670.4040, 13860.00
671.5640, 13711.00
672.7230, 13533.00
673.8830, 13434.00
675.0420, 13213.00
676.2010, 13073.00
677.3590, 12982.00
678.5180, 13005.00
679.6770, 12940.00
680.8350, 12858.00
681.9930, 12781.00
683.1510, 12649.00
684.3090, 12737.00
685.4670, 12725.00
686.6240, 12591.00
687.7810, 12502.90
688.9390, 12354.88
690.0960, 12122.00
691.2530, 11987.00
692.4090, 11739.00
693.5660, 11504.00
694.7220, 11225.00
695.8790, 10992.00
697.0350, 10593.00
698.1910, 10398.00
699.3460, 9958.000
700.5020, 9670.000
701.6570, 9625.000
702.8130, 9268.000
703.9680, 9115.000
705.1230, 8908.000
706.2780, 8711.000
707.4320, 8674.000
708.5870, 8545.000
709.7410, 8440.000
710.8950, 8257.000
712.0490, 8156.000
713.2030, 8121.000
714.3570, 8083.000
715.5100, 7979.000
716.6640, 7838.000
717.8170, 7768.000
718.9700, 7669.000
720.1230, 7634.000
721.2760, 7565.000
722.4280, 7538.000
723.5810, 7396.000
724.7330, 7361.000
725.8850, 7203.000
727.0370, 7344.000
728.1890, 7364.000
729.3400, 7357.000
730.4920, 7270.000
731.6430, 7272.345
732.7940, 7256.000
733.9450, 7172.000
735.0960, 7135.000
736.2460, 7020.000
737.3970, 7050.000
738.5470, 7005.000
739.6970, 7013.000
740.8470, 6986.716
741.9970, 6854.000
743.1470, 6905.000
744.2970, 6880.000
745.4460, 6790.000
746.5950, 6795.000
747.7440, 6635.000
748.8930, 6788.000
750.0420, 6800.000
751.1900, 6684.000
752.3390, 6736.000
753.4870, 6656.000
754.6350, 6680.000
755.7830, 6767.000
756.9310, 6726.000
758.0780, 6681.000
759.2260, 6675.000
760.3730, 6693.000
761.5200, 6708.000
762.6670, 6698.377
763.8140, 6696.000
764.9610, 6681.000
766.1070, 6651.000
767.2530, 6629.759
768.4000, 6699.000
769.5460, 6655.000
770.6910, 6687.000
771.8370, 6772.000
772.9830, 6799.000
774.1280, 6823.055
775.2730, 6809.000
776.4180, 6851.000
777.5630, 6756.000
778.7080, 6767.000
779.8520, 6703.000
780.9970, 6779.000
782.1410, 6732.000
783.2850, 6763.000
784.4290, 6734.000
785.5730, 6835.000
786.7160, 6843.000
787.8600, 6705.000
789.0030, 6847.000
790.1460, 6841.000
791.2890, 6965.000
792.4320, 6915.000
793.5750, 7008.000
794.7170, 6938.000
795.8590, 6870.000
797.0020, 6964.000
798.1440, 6886.000
799.2850, 6902.000
800.4270, 7084.000
801.5690, 6979.000
802.7100, 6930.000
803.8510, 6973.000
804.9920, 7065.000
806.1330, 7162.000
807.2740, 7097.000
808.4140, 7146.000
809.5550, 7054.000
810.6950, 7137.000
811.8350, 7233.000
812.9750, 7122.000
814.1150, 7262.000
815.2540, 7230.000
816.3940, 7233.000
817.5330, 7318.000
818.6720, 7253.000
819.8110, 7378.000
820.9500, 7313.000
822.0880, 7477.000
823.2270, 7383.000
824.3650, 7436.000
825.5030, 7522.000
826.6410, 7576.000
827.7790, 7582.000
828.9170, 7517.000
830.0540, 7581.000
831.1920, 7636.000
832.3290, 7706.000
833.4660, 7741.475
834.6030, 7767.000
835.7390, 7796.000
836.8760, 7811.000
838.0120, 7842.589
839.1480, 7859.603
840.2840, 7906.009
841.4200, 7969.000
842.5560, 8020.000
843.6920, 8094.000
844.8270, 8093.000
845.9620, 8223.000
847.0970, 8362.000
848.2320, 8328.000
849.3670, 8383.000
850.5020, 8319.000
851.6360, 8432.000
852.7700, 8490.000
853.9040, 8598.000
855.0380, 8517.000
856.1720, 8659.000
857.3060, 8813.000
858.4390, 8757.000
859.5730, 8887.000
860.7060, 8796.000
861.8390, 8801.000
862.9720, 8860.000
864.1040, 8858.000
865.2370, 9047.000
866.3690, 9035.000
867.5010, 9096.000
868.6330, 9222.000
869.7650, 9242.000
870.8970, 9342.000
872.0290, 9388.000
873.1600, 9495.000
874.2910, 9624.000
875.4220, 9704.812
876.5530, 9760.000
877.6840, 9849.000
878.8140, 9940.624
879.9450, 9985.000
881.0750, 10124.00
882.2050, 10222.00
883.3350, 10277.00
884.4650, 10347.00
885.5950, 10409.00
886.7240, 10450.00
887.8530, 10436.00
888.9820, 10333.00
890.1110, 10254.00
891.2400, 10217.00
892.3690, 10155.00
893.4970, 9975.000
894.6260, 9906.000
895.7540, 9785.000
896.8820, 9508.000
898.0100, 9602.000
899.1370, 9314.000
900.2650, 9154.000
901.3920, 9051.000
902.5200, 8911.000
903.6470, 8711.000
904.7730, 8621.000
905.9000, 8411.000
907.0270, 8355.305
908.1530, 8268.000
909.2790, 8260.000
910.4050, 8280.000
911.5310, 8288.000
912.6570, 8169.447
913.7830, 8076.486
914.9080, 7919.000
916.0330, 7843.000
917.1580, 7748.000
918.2830, 7807.000
919.4080, 7900.000
920.5330, 7692.000
921.6570, 7695.000
922.7820, 7611.000
923.9060, 7641.000
925.0300, 7723.000
926.1540, 7590.000
927.2770, 7577.000
928.4010, 7474.000
929.5240, 7500.000
930.6470, 7496.000
931.7700, 7473.000
932.8930, 7623.000
934.0160, 7435.000
935.1380, 7475.000
936.2610, 7594.000
937.3830, 7408.000
938.5050, 7446.000
939.6270, 7558.000
940.7490, 7498.000
941.8700, 7513.156
942.9910, 7541.000
944.1130, 7442.000
945.2340, 7411.000
946.3550, 7378.000
947.4750, 7398.000
948.5960, 7399.000
949.7160, 7399.000
950.8370, 7414.837
951.9570, 7411.073
953.0770, 7431.000
954.1970, 7424.000
955.3160, 7418.000
956.4360, 7446.000
957.5550, 7424.000
958.6740, 7348.000
959.7930, 7458.000
960.9120, 7336.000
962.0310, 7443.000
963.1490, 7436.000
964.2670, 7488.000
965.3860, 7466.000
966.5040, 7372.000
967.6210, 7545.000
968.7390, 7615.000
969.8570, 7432.000
970.9740, 7640.000
972.0910, 7487.000
973.2080, 7610.396
974.3250, 7663.090
975.4420, 7697.672
976.5580, 7714.937
977.6750, 7672.412
978.7910, 7699.957
979.9070, 7695.056
981.0230, 7685.838
982.1390, 7714.344
983.2540, 7664.491
984.3700, 7686.124
985.4850, 7674.875
986.6000, 7674.149
987.7150, 7669.000
988.8300, 7658.686
989.9450, 7683.147
991.0590, 7639.000
992.1730, 7637.000
993.2880, 7627.000
994.4010, 7554.000
995.5150, 7506.000
996.6290, 7488.000
997.7420, 7586.000
998.8560, 7445.000
999.9690, 7513.000
1001.082, 7521.000
1002.195, 7477.000
1003.307, 7465.000
1004.420, 7519.000
1005.532, 7467.000
1006.645, 7445.170
1007.757, 7433.000
1008.868, 7349.000
1009.980, 7332.000
1011.092, 7289.000
1012.203, 7414.000
1013.314, 7370.000
1014.425, 7524.000
1015.536, 7456.000
1016.647, 7461.000
1017.758, 7428.000
1018.868, 7470.000
1019.978, 7454.856
1021.088, 7423.626
1022.198, 7488.000
1023.308, 7454.000
1024.418, 7529.036
1025.527, 7601.464
1026.637, 7567.197
1027.746, 7535.160
1028.855, 7475.000
1029.963, 7474.548
1031.072, 7514.000
1032.181, 7484.000
1033.289, 7488.000
1034.397, 7540.000
1035.505, 7402.000
1036.613, 7477.000
1037.721, 7362.000
1038.828, 7543.000
1039.935, 7435.000
1041.043, 7473.000
1042.150, 7303.000
1043.257, 7341.000
1044.363, 7279.000
1045.470, 7395.000
1046.576, 7213.000
1047.682, 7249.000
1048.788, 7310.000
1049.894, 7204.000
1051.000, 7280.000
1052.106, 7190.000
1053.211, 7214.000
1054.316, 7247.000
1055.421, 7212.000
1056.526, 7209.000
1057.631, 7097.000
1058.736, 7075.000
1059.840, 7098.000
1060.944, 7142.000
1062.049, 7140.000
1063.153, 7162.000
1064.256, 7138.981
1065.360, 7051.000
1066.463, 7069.000
1067.567, 7028.000
1068.670, 6980.000
1069.773, 7031.000
1070.876, 7016.000
1071.978, 7004.000
1073.081, 6952.000
1074.183, 6908.000
1075.285, 6897.000
1076.387, 6767.000
1077.489, 6902.000
1078.591, 6807.000
1079.692, 6979.000
1080.794, 6773.000
1081.895, 6861.000
1082.996, 6935.000
1084.097, 6839.000
1085.198, 6913.000
1086.298, 6859.000
1087.399, 6823.000
1088.499, 6822.000
1089.599, 6780.797
1090.699, 6866.000
1091.799, 6765.000
1092.898, 6785.000
1093.998, 6845.000
1095.097, 6928.000
1096.196, 6969.000
1097.295, 6923.000
1098.394, 6923.000
1099.492, 6931.000
1100.591, 6809.000
1101.689, 6916.000
1102.787, 6798.000
1103.885, 6831.000
1104.983, 6804.000
1106.081, 6842.000
1107.178, 6819.000
1108.275, 6907.000
1109.373, 6993.000
1110.470, 6826.000
1111.566, 6887.000
1112.663, 6917.000
1113.760, 6873.000
1114.856, 6849.000
1115.952, 6825.000
1117.048, 6815.538
1118.144, 6805.585
1119.240, 6814.000
1120.335, 6801.000
1121.431, 6800.000
1122.526, 6800.000
1123.621, 6776.000
1124.716, 6784.000
1125.810, 6876.000
1126.905, 6815.000
1127.999, 6900.000
1129.094, 6905.000
1130.188, 6903.000
1131.282, 6936.118
1132.375, 6966.000
1133.469, 6939.000
1134.562, 6913.000
1135.656, 6886.000
1136.749, 6831.000
1137.842, 6906.000
1138.935, 6871.000
1140.027, 6934.000
1141.120, 6947.000
1142.212, 6943.387
1143.304, 6875.000
1144.396, 6927.000
1145.488, 6898.000
1146.579, 6843.000
1147.671, 6875.000
1148.762, 6851.000
1149.853, 6881.000
1150.944, 6850.000
1152.035, 6842.000
1153.126, 6796.000
1154.216, 6821.000
1155.307, 6825.492
1156.397, 6896.000
1157.487, 6897.000
1158.577, 6898.000
1159.667, 6980.000
1160.756, 6885.000
1161.846, 6886.000
1162.935, 6934.000
1164.024, 6881.000
1165.113, 6919.000
1166.201, 6882.000
1167.290, 6817.000
1168.378, 6966.000
1169.467, 6918.000
1170.555, 6901.000
1171.643, 6992.000
1172.730, 7008.000
1173.818, 7053.000
1174.905, 7003.000
1175.993, 7023.000
1177.080, 7006.000
1178.167, 6994.000
1179.254, 6967.000
1180.340, 7062.000
1181.427, 7096.000
1182.513, 7038.000
1183.599, 7034.000
1184.685, 7003.000
1185.771, 7060.000
1186.856, 7062.606
1187.942, 7087.000
1189.027, 7122.000
1190.112, 7122.000
1191.197, 7146.000
1192.282, 7201.000
1193.367, 7106.000
1194.451, 7249.000
1195.536, 7115.000
1196.620, 7014.000
1197.704, 7159.000
1198.788, 7020.000
1199.872, 7232.000
1200.955, 7094.000
1202.039, 7198.000
1203.122, 7197.000
1204.205, 7146.886
1205.288, 7200.882
1206.370, 7239.867
1207.453, 7264.682
1208.535, 7232.797
1209.618, 7274.123
1210.700, 7286.097
1211.782, 7296.870
1212.863, 7348.462
1213.945, 7324.819
1215.026, 7375.764
1216.108, 7253.000
1217.189, 7233.000
1218.270, 7293.000
1219.351, 7305.000
1220.431, 7215.000
1221.512, 7219.000
1222.592, 7282.000
1223.672, 7162.000
1224.752, 7258.000
1225.832, 7315.000
1226.911, 7243.000
1227.991, 7259.000
1229.070, 7196.000
1230.149, 7246.000
1231.228, 7254.000
1232.307, 7157.000
1233.386, 7094.000
1234.464, 7178.000
1235.543, 7160.000
1236.621, 7221.000
1237.699, 7196.000
1238.777, 7241.000
1239.855, 7169.000
1240.932, 7208.000
1242.009, 7117.000
1243.087, 7071.000
1244.164, 7076.607
1245.241, 7050.708
1246.317, 7074.000
1247.394, 7089.000
1248.470, 7122.000
1249.546, 7179.000
1250.623, 7128.000
1251.698, 7212.000
1252.774, 7279.000
1253.850, 7133.000
1254.925, 7238.000
1256.000, 7253.000
1257.076, 7377.000
1258.150, 7282.000
1259.225, 7315.000
1260.300, 7367.000
1261.374, 7281.000
1262.449, 7220.000
1263.523, 7229.000
1264.597, 7232.000
1265.670, 7249.595
1266.744, 7258.943
1267.818, 7354.000
1268.891, 7307.000
1269.964, 7405.000
1271.037, 7481.000
1272.110, 7393.000
1273.183, 7626.000
1274.255, 7582.471
1275.327, 7419.000
1276.400, 7604.000
1277.472, 7588.000
1278.543, 7529.000
1279.615, 7506.000
1280.687, 7510.000
1281.758, 7686.000
1282.829, 7632.000
1283.900, 7694.000
1284.971, 7647.000
1286.042, 7804.000
1287.112, 7744.000
1288.183, 7745.000
1289.253, 7820.000
1290.323, 7676.000
1291.393, 7860.000
1292.463, 7955.000
1293.532, 7876.000
1294.602, 7936.000
1295.671, 7929.000
1296.740, 7981.000
1297.809, 7921.000
1298.878, 7984.000
1299.946, 7922.000
1301.015, 8052.000
1302.083, 7912.000
1303.151, 8004.000
1304.219, 8048.000
1305.287, 8014.000
1306.354, 8180.000
1307.422, 8092.000
1308.489, 8158.000
1309.556, 7989.000
1310.623, 8083.000
1311.690, 8136.000
1312.757, 8093.000
1313.823, 8094.000
1314.890, 8112.000
1315.956, 8088.000
1317.022, 8080.000
1318.088, 8094.271
1319.153, 8126.000
1320.219, 8117.000
1321.284, 8123.000
1322.349, 8135.329
1323.414, 8086.000
1324.479, 8085.000
1325.544, 8091.000
1326.608, 8039.000
1327.673, 8057.000
1328.737, 8052.000
1329.801, 7991.000
1330.865, 8047.000
1331.929, 8088.000
1332.992, 8116.000
1334.056, 8095.000
1335.119, 8054.000
1336.182, 8053.539
1337.245, 7977.000
1338.308, 7995.000
1339.370, 7987.000
1340.433, 7926.000
1341.495, 7928.000
1342.557, 7941.000
1343.619, 7910.000
1344.681, 7860.000
1345.742, 7924.000
1346.804, 7907.000
1347.865, 7855.000
1348.926, 7868.000
1349.987, 7936.000
1351.048, 7696.000
1352.108, 7911.000
1353.169, 7807.000
1354.229, 7739.000
1355.289, 7902.000
1356.349, 7773.000
1357.409, 7678.000
1358.469, 7791.000
1359.528, 7651.000
1360.588, 7681.000
1361.647, 7749.000
1362.706, 7638.000
1363.765, 7775.000
1364.823, 7585.000
1365.882, 7660.000
1366.940, 7663.000
1367.998, 7539.000
1369.056, 7615.000
1370.114, 7542.000
1371.172, 7497.000
1372.229, 7481.000
1373.287, 7514.000
1374.344, 7383.000
1375.401, 7596.000
1376.458, 7358.000
1377.515, 7562.000
1378.571, 7483.000
1379.628, 7458.000
1380.684, 7409.000
1381.740, 7365.000
1382.796, 7433.000
1383.852, 7366.000
1384.907, 7296.000
1385.963, 7499.000
1387.018, 7422.000
1388.073, 7345.000
1389.128, 7349.000
1390.183, 7312.000
1391.237, 7253.000
1392.292, 7245.000
1393.346, 7262.000
1394.400, 7251.000
1395.454, 7250.000
1396.508, 7181.000
1397.562, 7207.000
1398.615, 7145.000
1399.668, 7301.000
1400.722, 7184.000
1401.775, 7176.000
1402.827, 7241.000
1403.880, 7098.000
1404.933, 7144.000
1405.985, 7123.000
1407.037, 7084.000
1408.089, 7081.000
1409.141, 7076.137
1410.193, 7094.492
1411.244, 7103.000
1412.295, 7099.000
1413.347, 7140.000
1414.398, 7014.000
1415.449, 7138.000
1416.499, 7110.000
1417.550, 7148.000
1418.600, 7011.000
1419.650, 7045.000
1420.700, 7020.000
1421.750, 7101.000
1422.800, 7104.000
1423.850, 7106.000
1424.899, 7058.000
1425.948, 7052.000
1426.997, 7068.866
1428.046, 7043.000
1429.095, 7127.000
1430.144, 7104.000
1431.192, 7151.000
1432.240, 7199.000
1433.288, 7164.000
1434.336, 7176.000
1435.384, 7154.000
1436.432, 7284.000
1437.479, 7156.000
1438.526, 7358.000
1439.574, 7229.000
1440.621, 7231.000
1441.667, 7251.000
1442.714, 7291.000
1443.760, 7320.000
1444.807, 7324.000
1445.853, 7317.000
1446.899, 7352.000
1447.945, 7303.843
1448.990, 7300.409
1450.036, 7242.000
1451.081, 7244.000
1452.126, 7262.000
1453.171, 7224.000
1454.216, 7217.000
1455.261, 7203.512
1456.305, 7281.000
1457.350, 7199.000
1458.394, 7189.000
1459.438, 7253.000
1460.482, 7183.202
1461.526, 7206.166
1462.569, 7167.000
1463.612, 7171.000
1464.656, 7242.000
1465.699, 7186.000
1466.742, 7165.000
1467.784, 7226.000
1468.827, 7210.000
1469.869, 7197.000
1470.912, 7233.000
1471.954, 7227.000
1472.996, 7242.000
1474.037, 7203.000
1475.079, 7276.000
1476.120, 7192.000
1477.162, 7148.000
1478.203, 7164.000
1479.244, 7313.000
1480.284, 7205.000
1481.325, 7331.000
1482.365, 7269.000
1483.406, 7232.000
1484.446, 7193.000
1485.486, 7213.000
1486.526, 7201.000
1487.565, 7154.000
1488.605, 7177.000
1489.644, 7326.000
1490.683, 7285.000
1491.722, 7120.000
1492.761, 7332.000
1493.800, 7226.000
1494.838, 7284.000
1495.876, 7397.000
1496.915, 7349.000
1497.953, 7410.000
1498.990, 7354.000
1500.028, 7333.000
1501.066, 7322.000
1502.103, 7308.000
1503.140, 7355.000
1504.177, 7351.000
1505.214, 7283.000
1506.251, 7368.000
1507.287, 7269.000
1508.324, 7363.000
1509.360, 7344.000
1510.396, 7424.000
1511.432, 7437.000
1512.468, 7444.000
1513.503, 7409.000
1514.538, 7422.000
1515.574, 7288.000
1516.609, 7421.000
1517.644, 7367.000
1518.678, 7474.000
1519.713, 7543.000
1520.747, 7411.000
1521.782, 7462.000
1522.816, 7577.000
1523.850, 7447.000
1524.883, 7437.000
1525.917, 7503.000
1526.951, 7583.000
1527.984, 7523.000
1529.017, 7598.000
1530.050, 7597.000
1531.083, 7676.000
1532.115, 7611.000
1533.148, 7628.716
1534.180, 7558.000
1535.212, 7597.000
1536.244, 7621.000
1537.276, 7612.000
1538.308, 7668.000
1539.339, 7570.000
1540.370, 7610.000
1541.402, 7646.000
1542.433, 7679.000
1543.463, 7726.000
1544.494, 7603.000
1545.525, 7718.000
##END=



