##NAMES=Akermanite
##RRUFFID=R061085
##IDEAL CHEMISTRY=Ca_2_MgSi_2_O_7_
##LOCALITY=Kovdor, Kola Peninsula, Russia
##OWNER=Michael Scott
##SOURCE=Michael Scott
##DESCRIPTION=Dark blue coarsely crystalline massive associated with green diopside
##STATUS=The identification of this mineral has been confirmed by X-ray diffraction and chemical analysis
##URL=rruff.info/R061085
##MEASURED CHEMISTRY=(Ca_1.78_Na_0.22_)_Σ=2_(Mg_0.70_Al_0.22_Fe^2+^_0.08_)_Σ=1_Si_2.00_O_7_
##PIN_ID=M00490
##ORIENTATION=Laser parallel to -c* (0 0 -1). Fiducial mark perpendicular to laser is parallel to a [1 0 0]
153.8520, 5204.000
155.0760, 5118.000
156.3010, 5186.000
157.5250, 5049.000
158.7500, 5034.000
159.9740, 5019.000
161.1980, 5072.000
162.4220, 5061.000
163.6450, 5085.000
164.8690, 4972.000
166.0920, 5016.000
167.3160, 4923.000
168.5390, 5006.000
169.7620, 4988.000
170.9850, 5070.000
172.2080, 5000.000
173.4300, 4962.000
174.6530, 4975.000
175.8750, 5049.000
177.0970, 4974.000
178.3190, 5134.000
179.5410, 5183.000
180.7630, 5195.000
181.9850, 5223.000
183.2060, 5212.000
184.4270, 5345.000
185.6490, 5441.000
186.8700, 5576.000
188.0910, 5588.000
189.3110, 5534.000
190.5320, 5714.000
191.7530, 5611.000
192.9730, 5667.000
194.1930, 5792.000
195.4130, 5973.000
196.6330, 5869.000
197.8530, 5985.000
199.0730, 6100.000
200.2920, 6155.000
201.5120, 6221.000
202.7310, 6292.000
203.9500, 6352.000
205.1690, 6416.000
206.3880, 6430.000
207.6070, 6672.000
208.8250, 6698.000
210.0440, 6950.000
211.2620, 7061.000
212.4800, 7269.000
213.6980, 7455.000
214.9160, 7539.000
216.1340, 7684.000
217.3510, 7748.000
218.5690, 8043.000
219.7860, 8103.000
221.0030, 8162.000
222.2200, 8196.000
223.4370, 8266.977
224.6540, 8417.000
225.8700, 8325.000
227.0870, 8307.000
228.3030, 8184.000
229.5190, 8118.000
230.7350, 7957.000
231.9510, 7821.000
233.1670, 7694.013
234.3820, 7625.000
235.5980, 7422.000
236.8130, 7195.000
238.0280, 7091.000
239.2430, 6995.000
240.4580, 6846.000
241.6730, 6739.000
242.8880, 6616.000
244.1020, 6597.000
245.3160, 6505.000
246.5300, 6384.000
247.7450, 6401.000
248.9580, 6310.000
250.1720, 6335.000
251.3860, 6264.000
252.5990, 6230.000
253.8130, 6265.000
255.0260, 6223.000
256.2390, 6229.000
257.4520, 6218.000
258.6640, 6330.000
259.8770, 6265.075
261.0890, 6388.000
262.3020, 6203.000
263.5140, 6199.000
264.7260, 6174.000
265.9380, 6224.000
267.1500, 6237.000
268.3610, 6166.000
269.5730, 6250.000
270.7840, 6213.000
271.9950, 6092.000
273.2060, 6190.000
274.4170, 6311.000
275.6280, 6270.000
276.8390, 6279.000
278.0490, 6438.000
279.2590, 6361.000
280.4690, 6423.000
281.6800, 6565.000
282.8890, 6683.000
284.0990, 6767.000
285.3090, 6863.000
286.5180, 6992.058
287.7280, 6981.000
288.9370, 7240.000
290.1460, 7341.000
291.3550, 7446.000
292.5630, 7696.000
293.7720, 7948.000
294.9800, 8171.000
296.1890, 8383.000
297.3970, 8606.000
298.6050, 8820.000
299.8130, 9063.000
301.0200, 9474.000
302.2280, 9702.000
303.4360, 10069.00
304.6430, 10199.00
305.8500, 10320.00
307.0570, 10570.00
308.2640, 10624.00
309.4710, 10581.00
310.6770, 10648.00
311.8840, 10529.00
313.0900, 10366.00
314.2960, 10186.00
315.5020, 9962.524
316.7080, 9676.000
317.9140, 9399.000
319.1190, 9098.000
320.3250, 8822.782
321.5300, 8468.000
322.7350, 8244.000
323.9400, 7959.000
325.1450, 7632.000
326.3500, 7407.000
327.5540, 7174.000
328.7580, 6892.000
329.9630, 6545.000
331.1670, 6379.000
332.3710, 6233.000
333.5750, 6121.000
334.7780, 5987.000
335.9820, 5821.000
337.1850, 5686.000
338.3880, 5596.000
339.5920, 5488.666
340.7950, 5525.000
341.9970, 5368.000
343.2000, 5334.000
344.4030, 5348.000
345.6050, 5170.000
346.8070, 5146.000
348.0090, 5163.000
349.2110, 5116.000
350.4130, 5140.000
351.6150, 5276.000
352.8160, 5025.000
354.0170, 5148.000
355.2190, 5039.000
356.4200, 5029.000
357.6210, 5012.000
358.8210, 4962.686
360.0220, 5047.000
361.2220, 4941.000
362.4230, 4941.000
363.6230, 4988.000
364.8230, 4895.000
366.0230, 4883.000
367.2230, 4830.000
368.4220, 4847.000
369.6220, 4769.000
370.8210, 4721.000
372.0200, 4635.000
373.2190, 4606.000
374.4180, 4614.000
375.6170, 4606.000
376.8150, 4539.000
378.0140, 4437.000
379.2120, 4503.000
380.4100, 4522.000
381.6080, 4343.000
382.8060, 4444.000
384.0040, 4387.000
385.2010, 4427.000
386.3980, 4348.000
387.5960, 4353.000
388.7930, 4356.000
389.9900, 4370.000
391.1870, 4488.000
392.3830, 4433.773
393.5800, 4327.000
394.7760, 4342.000
395.9720, 4472.000
397.1680, 4331.000
398.3640, 4358.000
399.5600, 4311.000
400.7560, 4302.000
401.9510, 4302.000
403.1460, 4279.000
404.3420, 4386.000
405.5370, 4281.000
406.7320, 4350.000
407.9260, 4278.000
409.1210, 4218.000
410.3150, 4318.000
411.5100, 4249.000
412.7040, 4296.000
413.8980, 4311.000
415.0920, 4255.000
416.2850, 4293.000
417.4790, 4205.000
418.6720, 4282.000
419.8650, 4247.000
421.0590, 4200.000
422.2510, 4296.000
423.4440, 4194.000
424.6370, 4230.000
425.8290, 4314.000
427.0220, 4227.000
428.2140, 4224.000
429.4060, 4279.000
430.5980, 4227.000
431.7900, 4273.000
432.9810, 4289.000
434.1730, 4327.000
435.3640, 4381.000
436.5550, 4377.000
437.7460, 4463.000
438.9370, 4512.000
440.1280, 4484.000
441.3190, 4562.000
442.5090, 4701.000
443.6990, 4855.000
444.8890, 4871.000
446.0790, 4883.000
447.2690, 5035.000
448.4590, 5039.000
449.6480, 5122.000
450.8380, 5159.000
452.0270, 5196.000
453.2160, 5174.000
454.4050, 5285.000
455.5940, 5237.000
456.7820, 5228.000
457.9710, 5301.000
459.1590, 5339.000
460.3470, 5388.000
461.5350, 5371.000
462.7230, 5403.000
463.9110, 5476.000
465.0990, 5490.000
466.2860, 5636.000
467.4730, 5582.000
468.6600, 5756.000
469.8470, 5903.000
471.0340, 5950.000
472.2210, 5973.000
473.4070, 6066.000
474.5940, 6269.000
475.7800, 6213.000
476.9660, 6343.000
478.1520, 6256.000
479.3380, 6360.000
480.5230, 6440.000
481.7090, 6432.000
482.8940, 6381.000
484.0790, 6396.000
485.2650, 6335.328
486.4490, 6306.000
487.6340, 6217.000
488.8190, 6197.000
490.0030, 6109.000
491.1870, 5988.000
492.3720, 5933.000
493.5550, 5894.000
494.7390, 5805.000
495.9230, 5778.082
497.1060, 5736.423
498.2900, 5708.000
499.4730, 5693.000
500.6560, 5675.000
501.8390, 5687.000
503.0220, 5582.000
504.2040, 5572.000
505.3870, 5680.000
506.5690, 5615.000
507.7510, 5554.000
508.9330, 5656.000
510.1150, 5666.000
511.2970, 5570.000
512.4780, 5652.000
513.6600, 5746.000
514.8410, 5747.000
516.0220, 5722.000
517.2030, 5638.000
518.3840, 5672.000
519.5650, 5636.000
520.7450, 5491.000
521.9250, 5465.000
523.1060, 5551.000
524.2860, 5375.000
525.4660, 5376.000
526.6450, 5299.000
527.8250, 5282.000
529.0040, 5175.000
530.1840, 5147.000
531.3630, 5147.000
532.5420, 5142.000
533.7200, 5108.131
534.8990, 5093.976
536.0780, 5055.000
537.2560, 5036.000
538.4340, 5028.000
539.6120, 4995.000
540.7900, 5009.000
541.9680, 4991.810
543.1460, 4974.223
544.3230, 4962.000
545.5000, 4938.000
546.6770, 4928.828
547.8540, 4927.526
549.0310, 4914.000
550.2080, 4921.000
551.3840, 4932.000
552.5610, 4902.000
553.7370, 4939.000
554.9130, 4960.000
556.0890, 4978.000
557.2650, 4917.000
558.4400, 4969.000
559.6160, 4932.000
560.7910, 5057.000
561.9660, 5030.000
563.1410, 4930.000
564.3160, 5024.000
565.4910, 5036.000
566.6650, 5064.000
567.8400, 5041.000
569.0140, 5095.300
570.1880, 5111.000
571.3620, 5194.000
572.5360, 5216.000
573.7090, 5286.000
574.8830, 5388.000
576.0560, 5257.000
577.2290, 5361.000
578.4020, 5433.000
579.5750, 5413.000
580.7480, 5593.000
581.9200, 5611.000
583.0930, 5730.000
584.2650, 5688.000
585.4370, 5836.000
586.6090, 5932.000
587.7810, 6068.000
588.9520, 6129.000
590.1240, 6255.000
591.2950, 6430.357
592.4660, 6637.000
593.6370, 6849.000
594.8080, 7028.000
595.9790, 7324.000
597.1500, 7623.000
598.3200, 8108.000
599.4900, 8377.000
600.6600, 8814.000
601.8300, 9073.000
603.0000, 9687.000
604.1700, 9820.000
605.3390, 10236.00
606.5080, 10666.00
607.6770, 11273.00
608.8460, 11727.00
610.0150, 12221.00
611.1840, 12797.00
612.3520, 13661.00
613.5210, 14632.00
614.6890, 15271.00
615.8570, 16148.00
617.0250, 16829.00
618.1930, 17706.00
619.3600, 18303.00
620.5280, 18788.00
621.6950, 19053.00
622.8620, 19141.00
624.0290, 18921.00
625.1960, 18560.00
626.3630, 18451.00
627.5290, 18116.00
628.6960, 17214.00
629.8620, 16821.00
631.0280, 15892.00
632.1940, 15417.00
633.3600, 14553.00
634.5250, 13811.00
635.6910, 13365.00
636.8560, 12688.00
638.0210, 12156.00
639.1860, 11836.00
640.3510, 11605.00
641.5150, 11382.00
642.6800, 11532.00
643.8440, 11588.00
645.0080, 11907.00
646.1720, 12488.00
647.3360, 13175.00
648.5000, 14386.00
649.6640, 15622.00
650.8270, 17371.00
651.9900, 19628.00
653.1530, 21624.00
654.3160, 24520.00
655.4790, 27435.00
656.6420, 30775.00
657.8040, 33436.00
658.9660, 36240.00
660.1290, 38510.00
661.2910, 40676.00
662.4520, 41679.00
663.6140, 42089.00
664.7760, 41648.00
665.9370, 40216.00
667.0980, 38213.00
668.2590, 35875.00
669.4200, 33121.00
670.5810, 30167.00
671.7420, 27283.00
672.9020, 24759.00
674.0620, 22489.00
675.2220, 20242.00
676.3820, 18320.00
677.5420, 16815.00
678.7020, 15205.00
679.8610, 14014.00
681.0210, 12833.00
682.1800, 11957.00
683.3390, 11194.00
684.4980, 10444.00
685.6560, 9833.000
686.8150, 9297.000
687.9730, 8842.000
689.1320, 8459.000
690.2900, 8072.000
691.4480, 7677.000
692.6050, 7539.000
693.7630, 7202.000
694.9200, 7131.000
696.0780, 6808.000
697.2350, 6788.000
698.3920, 6589.000
699.5490, 6473.000
700.7050, 6412.000
701.8620, 6237.000
703.0180, 6210.000
704.1740, 6073.000
705.3300, 5967.000
706.4860, 5994.000
707.6420, 6015.000
708.7970, 5936.000
709.9530, 5822.000
711.1080, 5732.000
712.2630, 5733.000
713.4180, 5784.000
714.5730, 5656.000
715.7280, 5622.000
716.8820, 5562.000
718.0360, 5480.000
719.1900, 5431.000
720.3440, 5536.000
721.4980, 5397.000
722.6520, 5386.000
723.8050, 5443.000
724.9590, 5373.000
726.1120, 5356.000
727.2650, 5309.000
728.4180, 5282.000
729.5700, 5215.000
730.7230, 5270.000
731.8750, 5189.000
733.0280, 5212.000
734.1800, 5182.000
735.3320, 5127.000
736.4830, 5161.000
737.6350, 5058.000
738.7860, 5159.000
739.9380, 5102.000
741.0890, 5115.000
742.2400, 5049.000
743.3910, 5152.000
744.5410, 5101.000
745.6920, 5153.000
746.8420, 5039.000
747.9920, 5071.000
749.1420, 5061.000
750.2920, 5054.000
751.4420, 5051.000
752.5910, 5016.000
753.7410, 5122.000
754.8900, 5068.000
756.0390, 5069.000
757.1880, 5035.000
758.3370, 5002.000
759.4850, 5006.000
760.6340, 5020.000
761.7820, 5044.000
762.9300, 5054.000
764.0780, 5147.000
765.2260, 5072.000
766.3730, 5037.000
767.5210, 5107.000
768.6680, 5035.000
769.8150, 4976.000
770.9620, 5105.000
772.1090, 5049.000
773.2560, 5045.165
774.4020, 5077.276
775.5490, 5015.000
776.6950, 5065.000
777.8410, 5105.000
778.9870, 5072.000
780.1330, 5195.000
781.2780, 5163.000
782.4230, 5050.000
783.5690, 5121.000
784.7140, 5103.000
785.8590, 5156.000
787.0030, 5125.000
788.1480, 5159.595
789.2920, 5163.000
790.4370, 5183.000
791.5810, 5215.000
792.7250, 5171.000
793.8690, 5265.000
795.0120, 5197.000
796.1560, 5131.000
797.2990, 5239.000
798.4420, 5295.000
799.5850, 5205.000
800.7280, 5258.000
801.8710, 5334.000
803.0130, 5249.000
804.1550, 5357.000
805.2980, 5300.000
806.4400, 5313.000
807.5810, 5356.000
808.7230, 5466.000
809.8650, 5423.000
811.0060, 5457.000
812.1470, 5464.000
813.2880, 5497.000
814.4290, 5602.000
815.5700, 5646.000
816.7110, 5761.000
817.8510, 5762.000
818.9910, 5726.000
820.1310, 5824.000
821.2710, 5884.000
822.4110, 5948.000
823.5510, 5780.000
824.6900, 5848.000
825.8290, 5760.000
826.9680, 5814.000
828.1070, 5828.000
829.2460, 5797.000
830.3850, 5869.000
831.5230, 5880.000
832.6620, 5907.401
833.8000, 5916.000
834.9380, 5991.000
836.0760, 6057.000
837.2130, 6137.000
838.3510, 6209.000
839.4880, 6323.000
840.6250, 6328.000
841.7620, 6426.000
842.8990, 6520.000
844.0360, 6636.000
845.1720, 6808.000
846.3090, 6957.000
847.4450, 7128.000
848.5810, 7289.000
849.7170, 7463.000
850.8530, 7694.000
851.9880, 7997.000
853.1240, 8013.000
854.2590, 8227.000
855.3940, 8341.000
856.5290, 8441.000
857.6640, 8690.000
858.7980, 8977.000
859.9330, 9141.000
861.0670, 9391.000
862.2010, 9368.000
863.3350, 9306.000
864.4690, 9473.000
865.6030, 9333.000
866.7360, 9289.000
867.8690, 9021.000
869.0020, 8864.000
870.1350, 8494.000
871.2680, 8266.000
872.4010, 8046.000
873.5330, 7944.000
874.6660, 7947.000
875.7980, 7703.000
876.9300, 7733.000
878.0620, 7769.000
879.1930, 7698.000
880.3250, 7722.000
881.4560, 7862.492
882.5870, 8006.000
883.7180, 8275.000
884.8490, 8567.000
885.9800, 8953.000
887.1100, 9160.000
888.2410, 9583.000
889.3710, 9915.000
890.5010, 10350.00
891.6310, 10926.00
892.7610, 11513.00
893.8900, 12256.00
895.0200, 13172.00
896.1490, 14184.00
897.2780, 15573.00
898.4070, 17087.00
899.5360, 18790.00
900.6640, 21103.00
901.7920, 23571.00
902.9210, 26755.00
904.0490, 30334.00
905.1770, 33878.00
906.3040, 37902.00
907.4320, 42005.00
908.5600, 46096.00
909.6870, 49107.00
910.8140, 52341.00
911.9410, 53991.00
913.0680, 54888.00
914.1940, 55366.00
915.3210, 54975.00
916.4470, 53974.00
917.5730, 52695.00
918.6990, 50632.00
919.8250, 48307.00
920.9500, 45898.00
922.0760, 42785.00
923.2010, 39929.00
924.3260, 36513.00
925.4510, 33195.00
926.5760, 30184.00
927.7010, 27366.00
928.8250, 24960.00
929.9500, 22774.00
931.0740, 21281.00
932.1980, 19363.00
933.3220, 18069.00
934.4450, 16747.00
935.5690, 15875.00
936.6920, 15091.00
937.8150, 14307.00
938.9380, 13448.00
940.0610, 13011.00
941.1840, 12615.00
942.3060, 12048.00
943.4290, 11815.00
944.5510, 11537.00
945.6730, 11260.00
946.7950, 11200.00
947.9160, 10928.00
949.0380, 10739.00
950.1590, 10701.00
951.2800, 10671.00
952.4010, 10495.00
953.5220, 10577.00
954.6430, 10707.00
955.7630, 10593.00
956.8840, 10713.00
958.0040, 10641.00
959.1240, 10639.00
960.2440, 10766.00
961.3640, 10600.00
962.4830, 10753.00
963.6030, 10550.00
964.7220, 10700.00
965.8410, 10550.00
966.9600, 10480.00
968.0780, 10443.00
969.1970, 10405.00
970.3150, 10391.00
971.4340, 10205.00
972.5520, 10286.00
973.6700, 10166.00
974.7870, 10082.00
975.9050, 10167.00
977.0220, 10037.00
978.1390, 10092.00
979.2560, 10140.00
980.3730, 10153.00
981.4900, 10194.00
982.6070, 10303.00
983.7230, 10462.00
984.8390, 10625.00
985.9550, 10817.00
987.0710, 11203.00
988.1870, 11241.00
989.3030, 11709.00
990.4180, 11942.00
991.5330, 12214.00
992.6480, 12456.00
993.7630, 12809.00
994.8780, 13184.00
995.9930, 13327.00
997.1070, 13460.00
998.2210, 13529.00
999.3350, 13532.00
1000.449, 13418.00
1001.563, 13284.00
1002.677, 13183.00
1003.790, 12799.00
1004.903, 12525.00
1006.016, 12096.00
1007.129, 11601.00
1008.242, 11382.00
1009.355, 11139.00
1010.467, 10711.00
1011.579, 10567.00
1012.691, 10235.00
1013.803, 10022.00
1014.915, 9864.000
1016.027, 9550.000
1017.138, 9375.000
1018.249, 9303.000
1019.360, 9095.000
1020.471, 8947.000
1021.582, 8757.000
1022.693, 8633.000
1023.803, 8641.000
1024.913, 8525.000
1026.023, 8465.050
1027.133, 8367.000
1028.243, 8307.000
1029.353, 8116.000
1030.462, 7990.000
1031.571, 7945.000
1032.680, 7902.000
1033.789, 7816.000
1034.898, 7762.000
1036.007, 7731.000
1037.115, 7670.425
1038.223, 7656.000
1039.331, 7581.000
1040.439, 7472.000
1041.547, 7411.000
1042.655, 7404.000
1043.762, 7392.000
1044.869, 7298.000
1045.976, 7137.000
1047.083, 7173.000
1048.190, 7128.000
1049.297, 7133.000
1050.403, 7090.669
1051.509, 7010.000
1052.615, 7004.000
1053.721, 6950.000
1054.827, 6937.000
1055.933, 6895.000
1057.038, 6875.000
1058.143, 6746.000
1059.248, 6712.000
1060.353, 6865.000
1061.458, 6694.000
1062.563, 6762.000
1063.667, 6667.000
1064.771, 6622.000
1065.875, 6589.000
1066.979, 6636.000
1068.083, 6596.000
1069.186, 6711.000
1070.290, 6625.000
1071.393, 6556.000
1072.496, 6513.000
1073.599, 6581.000
1074.702, 6560.000
1075.804, 6664.000
1076.907, 6569.000
1078.009, 6514.000
1079.111, 6598.000
1080.213, 6568.000
1081.315, 6651.000
1082.416, 6629.000
1083.517, 6544.000
1084.619, 6584.000
1085.720, 6675.000
1086.821, 6592.000
1087.921, 6705.000
1089.022, 6554.000
1090.122, 6561.000
1091.222, 6504.000
1092.322, 6468.000
1093.422, 6466.000
1094.522, 6328.000
1095.622, 6290.000
1096.721, 6216.000
1097.820, 6208.000
1098.919, 6187.532
1100.018, 6202.000
1101.117, 6191.000
1102.215, 6171.000
1103.314, 6184.000
1104.412, 6184.000
1105.510, 6178.000
1106.608, 6164.000
1107.705, 6072.000
1108.803, 6200.000
1109.900, 6106.000
1110.997, 6167.000
1112.094, 6068.000
1113.191, 6238.000
1114.288, 6173.000
1115.384, 6191.000
1116.481, 6082.000
1117.577, 6106.000
1118.673, 6161.000
1119.769, 6075.000
1120.864, 6247.000
1121.960, 6150.378
1123.055, 6108.000
1124.150, 6081.000
1125.245, 6118.000
1126.340, 6154.000
1127.434, 6087.000
1128.529, 6140.000
1129.623, 6164.000
1130.717, 6085.000
1131.811, 6036.000
1132.905, 6114.000
1133.999, 6081.000
1135.092, 6091.000
1136.185, 6205.000
1137.279, 6135.000
1138.371, 6070.000
1139.464, 6187.000
1140.557, 6150.000
1141.649, 6145.000
1142.742, 6174.000
1143.834, 6152.000
1144.926, 6171.000
1146.017, 6153.000
1147.109, 6143.000
1148.200, 6201.000
1149.292, 6142.000
1150.383, 6172.000
1151.474, 6178.000
1152.564, 6167.000
1153.655, 6173.000
1154.745, 6114.000
1155.835, 6216.000
1156.925, 6023.000
1158.015, 6212.000
1159.105, 6249.000
1160.195, 6281.000
1161.284, 6170.000
1162.373, 6167.000
1163.462, 6198.000
1164.551, 6135.000
1165.640, 6232.000
1166.728, 6214.000
1167.817, 6288.000
1168.905, 6144.000
1169.993, 6219.000
1171.081, 6201.000
1172.168, 6153.000
1173.256, 6269.000
1174.343, 6250.000
1175.430, 6224.000
1176.517, 6236.000
1177.604, 6211.000
1178.691, 6217.147
1179.777, 6217.206
1180.864, 6235.000
1181.950, 6223.000
1183.036, 6250.000
1184.121, 6257.000
1185.207, 6342.000
1186.293, 6335.668
1187.378, 6235.000
1188.463, 6352.000
1189.548, 6314.000
1190.633, 6292.000
1191.717, 6368.000
1192.802, 6198.000
1193.886, 6282.000
1194.970, 6338.000
1196.054, 6317.000
1197.138, 6381.000
1198.221, 6292.000
1199.305, 6202.000
1200.388, 6261.000
1201.471, 6280.000
1202.554, 6261.000
1203.637, 6349.000
1204.719, 6345.629
1205.801, 6297.000
1206.884, 6361.000
1207.966, 6372.000
1209.048, 6302.000
1210.129, 6300.000
1211.211, 6299.000
1212.292, 6244.000
1213.373, 6325.000
1214.454, 6330.000
1215.535, 6354.000
1216.616, 6363.000
1217.696, 6478.000
1218.777, 6418.000
1219.857, 6345.000
1220.937, 6430.000
1222.017, 6338.000
1223.096, 6257.000
1224.176, 6381.000
1225.255, 6437.000
1226.334, 6418.000
1227.413, 6405.000
1228.492, 6389.000
1229.570, 6467.000
1230.649, 6399.000
1231.727, 6375.000
1232.805, 6443.000
1233.883, 6380.000
1234.961, 6393.000
1236.038, 6482.000
1237.116, 6386.000
1238.193, 6380.000
1239.270, 6411.000
1240.347, 6500.000
1241.424, 6534.000
1242.500, 6390.000
1243.577, 6411.000
1244.653, 6404.000
1245.729, 6435.000
1246.805, 6532.000
1247.880, 6519.000
1248.956, 6484.000
1250.031, 6558.000
1251.106, 6511.180
1252.181, 6498.000
1253.256, 6488.000
1254.331, 6483.089
1255.405, 6434.000
1256.480, 6522.000
1257.554, 6575.000
1258.628, 6645.000
1259.701, 6470.000
1260.775, 6429.000
1261.849, 6462.000
1262.922, 6592.000
1263.995, 6450.000
1265.068, 6469.000
1266.141, 6533.000
1267.213, 6541.000
1268.286, 6562.300
1269.358, 6567.139
1270.430, 6550.000
1271.502, 6561.000
1272.573, 6485.000
1273.645, 6503.000
1274.716, 6605.000
1275.788, 6465.000
1276.859, 6572.000
1277.929, 6541.000
1279.000, 6500.000
1280.071, 6568.000
1281.141, 6549.000
1282.211, 6518.000
1283.281, 6479.000
1284.351, 6495.000
1285.421, 6454.000
1286.490, 6531.000
1287.559, 6592.000
1288.628, 6599.000
1289.697, 6645.000
1290.766, 6589.000
1291.835, 6524.000
1292.903, 6493.000
1293.972, 6470.000
1295.040, 6498.637
1296.108, 6589.000
1297.175, 6574.000
1298.243, 6638.000
1299.310, 6622.000
1300.377, 6618.000
1301.444, 6553.000
1302.511, 6601.000
1303.578, 6575.000
1304.645, 6614.000
1305.711, 6621.826
1306.777, 6623.000
1307.843, 6631.000
1308.909, 6607.000
1309.975, 6579.000
1311.040, 6580.000
1312.105, 6696.000
1313.171, 6673.000
1314.235, 6691.000
1315.300, 6709.000
1316.365, 6686.000
1317.429, 6726.000
1318.494, 6713.000
1319.558, 6754.000
1320.622, 6785.000
1321.685, 6694.000
1322.749, 6807.000
1323.812, 6720.000
1324.876, 6730.000
1325.939, 6731.000
1327.001, 6699.816
1328.064, 6686.000
1329.127, 6713.000
1330.189, 6700.000
1331.251, 6766.000
1332.313, 6783.000
1333.375, 6734.000
1334.437, 6789.000
1335.498, 6654.000
1336.560, 6737.000
1337.621, 6683.000
1338.682, 6771.000
1339.742, 6824.000
1340.803, 6787.000
1341.863, 6804.000
1342.924, 6841.000
1343.984, 6881.000
1345.044, 6739.000
1346.104, 6749.000
1347.163, 6730.000
1348.222, 6808.000
1349.282, 6744.000
1350.341, 6811.000
1351.400, 6797.000
1352.458, 6767.000
1353.517, 6780.000
1354.575, 6828.000
1355.633, 6792.000
1356.691, 6756.000
1357.749, 6854.000
1358.807, 6769.000
1359.864, 6670.000
1360.922, 6817.000
1361.979, 6807.000
1363.036, 6706.000
1364.092, 6814.000
1365.149, 6783.000
1366.205, 6820.000
1367.262, 6822.000
1368.318, 6889.000
1369.374, 6777.000
1370.429, 6868.000
1371.485, 6785.000
1372.540, 6811.000
1373.596, 6785.000
1374.651, 6830.000
1375.705, 6873.000
1376.760, 6866.000
1377.815, 6844.000
1378.869, 6805.000
1379.923, 6845.000
1380.977, 6831.424
1382.031, 6884.000
1383.085, 6841.000
1384.138, 6834.000
1385.191, 6801.000
1386.244, 6816.000
1387.297, 6866.000
1388.350, 6850.000
1389.403, 6899.000
1390.455, 6851.000
1391.507, 6929.000
1392.559, 7005.000
1393.611, 6881.000
1394.663, 6828.000
1395.714, 6992.000
1396.766, 6850.000
1397.817, 6914.000
1398.868, 6950.000
1399.919, 6846.000
1400.969, 6872.000
1402.020, 6947.000
1403.070, 6984.000
1404.120, 6918.000
1405.170, 6903.000
1406.220, 6890.000
1407.270, 6854.000
1408.319, 6778.000
1409.368, 6973.000
1410.417, 6845.000
1411.466, 6982.000
1412.515, 6911.000
1413.563, 6979.000
1414.612, 6964.000
1415.660, 6981.000
1416.708, 6968.000
1417.756, 6932.000
1418.803, 7069.000
1419.851, 7071.000
1420.898, 6913.000
1421.945, 7052.000
1422.992, 6993.000
1424.039, 6955.000
1425.086, 7009.000
1426.132, 7028.000
1427.178, 6958.000
1428.225, 6989.000
1429.270, 6947.000
1430.316, 7076.000
1431.362, 7000.000
1432.407, 6997.000
1433.452, 7093.000
1434.497, 7021.000
1435.542, 7043.000
1436.587, 7063.000
1437.631, 7080.000
1438.676, 7107.000
1439.720, 7105.000
1440.764, 7191.000
1441.807, 7163.209
1442.851, 7102.000
1443.895, 7141.000
1444.938, 7189.000
1445.981, 7170.000
1447.024, 7214.110
1448.066, 7159.000
1449.109, 7244.000
1450.151, 7201.000
1451.194, 7181.000
1452.236, 7121.000
1453.277, 7212.000
1454.319, 7229.000
1455.361, 7196.000
1456.402, 7143.000
1457.443, 7234.000
1458.484, 7136.000
1459.525, 7305.000
1460.565, 7220.000
1461.606, 7213.000
1462.646, 7283.000
1463.686, 7178.000
1464.726, 7204.000
1465.766, 7177.000
1466.805, 7108.000
1467.845, 7204.000
1468.884, 7175.000
1469.923, 7131.000
1470.962, 7326.000
1472.000, 7123.000
1473.039, 7103.000
1474.077, 7162.000
1475.115, 7226.000
1476.153, 7164.000
1477.191, 7158.000
1478.229, 7251.000
1479.266, 7169.000
1480.303, 7138.000
1481.340, 7110.000
1482.377, 7140.000
1483.414, 7216.000
1484.451, 7089.000
1485.487, 7218.000
1486.523, 7165.000
1487.559, 7250.000
1488.595, 7158.000
1489.631, 7106.000
1490.666, 7195.000
1491.701, 7147.000
1492.736, 7114.000
1493.771, 7199.000
1494.806, 7189.000
1495.841, 7110.000
1496.875, 7300.000
1497.909, 7131.000
1498.943, 7220.000
1499.977, 7108.000
1501.011, 7049.000
1502.045, 7243.000
1503.078, 7159.000
1504.111, 7182.000
1505.144, 7233.000
1506.177, 7214.000
1507.209, 7229.000
1508.242, 7219.000
1509.274, 7184.000
1510.306, 7172.000
1511.338, 7177.000
1512.370, 7169.311
1513.402, 7200.000
1514.433, 7191.000
1515.464, 7173.000
1516.495, 7199.000
1517.526, 7167.000
1518.557, 7232.000
1519.587, 7186.000
1520.617, 7274.000
1521.648, 7212.000
1522.678, 7264.000
1523.707, 7259.000
1524.737, 7288.000
1525.766, 7288.966
1526.796, 7269.000
1527.825, 7285.000
1528.854, 7261.000
1529.882, 7269.000
1530.911, 7289.000
1531.939, 7188.000
1532.967, 7178.000
1533.995, 7254.000
1535.023, 7214.000
1536.051, 7318.000
1537.078, 7251.000
1538.106, 7353.000
1539.133, 7365.000
1540.160, 7334.000
1541.186, 7317.000
1542.213, 7299.714
1543.239, 7267.532
1544.266, 7277.000
1545.292, 7243.000
1546.318, 7288.000
1547.343, 7356.000
1548.369, 7335.000
1549.394, 7324.000
1550.419, 7314.000
1551.444, 7458.000
1552.469, 7384.000
1553.494, 7403.000
1554.518, 7522.000
1555.542, 7390.000
1556.566, 7376.000
1557.590, 7430.000
1558.614, 7277.000
1559.638, 7447.000
1560.661, 7484.000
1561.684, 7395.000
1562.707, 7360.000
##END=



