##NAMES=Albite
##RRUFFID=R040068
##IDEAL CHEMISTRY=NaAlSi_3_O_8_
##LOCALITY=Harding Pegmatite, Dixon, New Mexico, USA
##OWNER=RRUFF
##SOURCE=University of Arizona Mineral Museum
##DESCRIPTION=Tan colored crystal fragment
##STATUS=The identification of this mineral has been confirmed by X-ray diffraction and chemical analysis
##URL=rruff.info/R040068
##MEASURED CHEMISTRY=(Na_0.99_Ca_0.01_)Al_1.00_(Si_0.99_Al_0.01_)_3_O_8_
##PIN_ID=M00167
##ORIENTATION=Laser parallel to (-1 -1 0). Fiducial mark perpendicular to laser is parallel to -c [0 0 -1]
86.89200, 5737.000
88.28900, 5624.000
89.68500, 5545.000
91.08100, 5552.000
92.47700, 5667.000
93.87300, 5616.000
95.26800, 5671.000
96.66300, 5857.000
98.05800, 5868.000
99.45300, 5952.000
100.8480, 6019.000
102.2420, 6094.000
103.6360, 6245.000
105.0300, 6401.000
106.4230, 6613.000
107.8170, 6898.000
109.2100, 7148.000
110.6030, 7577.000
111.9960, 7835.000
113.3880, 8200.000
114.7800, 8222.000
116.1720, 8265.000
117.5640, 8104.000
118.9560, 7741.000
120.3470, 7719.000
121.7380, 7654.000
123.1290, 7598.000
124.5190, 7605.000
125.9100, 7503.000
127.3000, 7557.000
128.6900, 7496.000
130.0800, 7608.000
131.4690, 7714.000
132.8580, 7697.000
134.2480, 7737.000
135.6360, 7830.000
137.0250, 7949.000
138.4130, 8179.000
139.8010, 8485.000
141.1890, 8817.000
142.5770, 9249.000
143.9640, 9856.000
145.3520, 10630.00
146.7390, 11540.00
148.1250, 12390.00
149.5120, 12740.00
150.8980, 12740.00
152.2840, 12320.00
153.6700, 11900.00
155.0560, 11350.00
156.4410, 11380.00
157.8270, 11640.00
159.2120, 12140.00
160.5960, 12650.00
161.9810, 12910.00
163.3650, 12640.00
164.7490, 12260.00
166.1330, 11810.00
167.5170, 11310.00
168.9000, 11050.00
170.2830, 10810.00
171.6660, 10810.00
173.0490, 10750.00
174.4310, 11080.00
175.8130, 11590.00
177.1950, 12060.00
178.5770, 12830.00
179.9590, 13860.00
181.3400, 14940.00
182.7210, 15830.00
184.1020, 16720.00
185.4830, 17070.00
186.8630, 16730.00
188.2440, 16090.00
189.6240, 15020.00
191.0030, 13520.00
192.3830, 12700.00
193.7620, 11560.00
195.1410, 10730.00
196.5200, 10160.00
197.8990, 9785.000
199.2770, 9519.000
200.6560, 9339.000
202.0340, 9387.000
203.4110, 9614.000
204.7890, 10040.00
206.1660, 10380.00
207.5430, 10640.00
208.9200, 10680.00
210.2970, 10500.00
211.6730, 9992.000
213.0490, 9472.000
214.4250, 8985.000
215.8010, 8440.000
217.1760, 8213.000
218.5520, 7956.000
219.9270, 7842.000
221.3020, 7657.000
222.6760, 7485.000
224.0510, 7523.000
225.4250, 7531.000
226.7990, 7424.000
228.1730, 7427.000
229.5460, 7408.000
230.9190, 7471.000
232.2920, 7483.000
233.6650, 7462.000
235.0380, 7468.000
236.4100, 7460.000
237.7820, 7600.000
239.1540, 7614.000
240.5260, 7706.000
241.8980, 7917.000
243.2690, 8074.000
244.6400, 8538.000
246.0110, 8974.000
247.3810, 9725.000
248.7520, 10370.00
250.1220, 11090.00
251.4920, 11210.00
252.8610, 10980.00
254.2310, 10650.00
255.6000, 9953.000
256.9690, 9527.000
258.3380, 9115.000
259.7070, 9029.000
261.0750, 9006.000
262.4430, 9287.000
263.8110, 9746.000
265.1790, 10330.00
266.5460, 10970.00
267.9140, 11360.00
269.2810, 11640.00
270.6470, 11430.00
272.0140, 11050.00
273.3800, 10670.00
274.7470, 10070.00
276.1130, 9924.000
277.4780, 9644.000
278.8440, 9664.000
280.2090, 9889.000
281.5740, 10370.00
282.9390, 11040.00
284.3040, 12250.00
285.6680, 13870.00
287.0320, 15890.00
288.3960, 17610.00
289.7600, 18780.00
291.1230, 18940.00
292.4870, 18020.00
293.8500, 16470.00
295.2120, 14570.00
296.5750, 12950.00
297.9370, 11630.00
299.3000, 10530.00
300.6620, 9746.000
302.0230, 9361.000
303.3850, 9035.000
304.7460, 8838.000
306.1070, 8709.000
307.4680, 8570.000
308.8290, 8593.000
310.1890, 8529.000
311.5490, 8384.000
312.9090, 8295.000
314.2690, 8387.000
315.6290, 8180.000
316.9880, 8270.000
318.3470, 8201.000
319.7060, 8177.000
321.0650, 8444.000
322.4230, 8594.000
323.7810, 8840.000
325.1390, 9432.000
326.4970, 10030.00
327.8550, 10270.00
329.2120, 10290.00
330.5690, 9981.000
331.9260, 9649.000
333.2830, 9257.000
334.6390, 8864.000
335.9950, 8677.000
337.3510, 8470.000
338.7070, 8220.000
340.0630, 8220.000
341.4180, 8216.000
342.7730, 8217.000
344.1280, 8217.000
345.4830, 8339.000
346.8370, 8390.000
348.1920, 8410.000
349.5460, 8396.000
350.8990, 8328.000
352.2530, 8235.000
353.6060, 8131.000
354.9600, 8147.000
356.3130, 8131.000
357.6650, 8042.000
359.0180, 8065.000
360.3700, 8021.854
361.7220, 8002.000
363.0740, 7998.000
364.4260, 8006.000
365.7770, 8032.000
367.1280, 8102.000
368.4790, 8059.000
369.8300, 8050.000
371.1810, 8045.000
372.5310, 7968.000
373.8810, 8062.000
375.2310, 8087.000
376.5810, 8074.000
377.9300, 8169.000
379.2800, 8116.000
380.6290, 8161.000
381.9770, 8070.000
383.3260, 8171.000
384.6740, 8218.000
386.0230, 8240.000
387.3700, 8293.000
388.7180, 8370.000
390.0660, 8407.000
391.4130, 8451.000
392.7600, 8771.000
394.1070, 8940.000
395.4540, 9295.000
396.8000, 9623.000
398.1460, 9838.000
399.4920, 9864.000
400.8380, 9744.000
402.1840, 9755.000
403.5290, 9711.712
404.8740, 9633.000
406.2190, 9664.000
407.5640, 9576.000
408.9080, 9590.000
410.2520, 9664.969
411.5960, 9669.000
412.9400, 9908.000
414.2840, 10230.00
415.6270, 10490.00
416.9700, 10380.00
418.3130, 10090.00
419.6560, 9705.000
420.9990, 9333.000
422.3410, 9135.000
423.6830, 8876.000
425.0250, 8833.000
426.3670, 8814.000
427.7080, 8711.000
429.0490, 8848.000
430.3900, 8743.000
431.7310, 8722.000
433.0720, 8799.000
434.4120, 8743.000
435.7520, 8909.000
437.0920, 8928.000
438.4320, 8938.000
439.7720, 9119.000
441.1110, 9084.000
442.4500, 9190.000
443.7890, 9290.000
445.1270, 9297.000
446.4660, 9433.000
447.8040, 9801.000
449.1420, 10130.00
450.4800, 10640.00
451.8170, 11400.00
453.1550, 12190.00
454.4920, 12850.00
455.8290, 13320.00
457.1660, 13260.00
458.5020, 12880.00
459.8380, 12220.00
461.1750, 11740.00
462.5100, 11270.00
463.8460, 11090.00
465.1810, 10990.00
466.5170, 11180.00
467.8520, 11430.00
469.1860, 11890.00
470.5210, 12700.00
471.8550, 13890.00
473.1900, 15480.00
474.5230, 18420.00
475.8570, 21700.00
477.1910, 24950.00
478.5240, 26500.00
479.8570, 25980.00
481.1900, 23900.00
482.5230, 20890.00
483.8550, 17950.00
485.1870, 16210.00
486.5190, 14340.00
487.8510, 13370.00
489.1830, 12740.00
490.5140, 12350.00
491.8450, 12130.00
493.1760, 12260.00
494.5070, 12370.00
495.8370, 12750.00
497.1680, 13580.00
498.4980, 14670.00
499.8280, 16290.00
501.1570, 18970.00
502.4870, 22880.00
503.8160, 27820.00
505.1450, 33100.00
506.4740, 36110.00
507.8020, 36300.00
509.1310, 33500.00
510.4590, 28960.00
511.7870, 24530.00
513.1150, 20840.00
514.4420, 17850.00
515.7700, 15830.00
517.0970, 14470.00
518.4240, 13420.00
519.7500, 12750.00
521.0770, 12280.00
522.4030, 11720.00
523.7290, 11470.00
525.0550, 11330.00
526.3810, 11050.00
527.7060, 10860.00
529.0310, 10810.00
530.3560, 10630.00
531.6810, 10690.00
533.0060, 10510.00
534.3300, 10500.00
535.6540, 10450.00
536.9780, 10350.00
538.3020, 10390.00
539.6250, 10240.00
540.9490, 10170.00
542.2720, 10290.00
543.5950, 10340.00
544.9170, 10230.00
546.2400, 10130.00
547.5620, 10160.00
548.8840, 10110.00
550.2060, 10150.00
551.5270, 10080.00
552.8490, 9995.000
554.1700, 10150.00
555.4910, 10160.00
556.8120, 10040.00
558.1320, 10190.00
559.4530, 10040.00
560.7730, 10050.00
562.0930, 10180.00
563.4120, 10060.00
564.7320, 10140.00
566.0510, 10140.00
567.3700, 10200.00
568.6890, 10223.40
570.0080, 10140.00
571.3260, 10270.00
572.6440, 10300.00
573.9630, 10330.00
575.2800, 10500.00
576.5980, 10510.00
577.9150, 10620.00
579.2330, 10560.00
580.5500, 10550.00
581.8660, 10500.00
583.1830, 10560.00
584.4990, 10500.00
585.8150, 10440.00
587.1310, 10260.00
588.4470, 10320.00
589.7630, 10260.00
591.0780, 10320.00
592.3930, 10310.00
593.7080, 10290.00
595.0220, 10320.00
596.3370, 10280.00
597.6510, 10240.00
598.9650, 10330.00
600.2790, 10370.00
601.5930, 10340.00
602.9060, 10402.11
604.2190, 10320.00
605.5320, 10440.00
606.8450, 10410.00
608.1580, 10410.00
609.4700, 10370.00
610.7820, 10430.00
612.0940, 10470.00
613.4060, 10440.00
614.7180, 10520.00
616.0290, 10500.00
617.3400, 10500.00
618.6510, 10540.00
619.9620, 10560.00
621.2720, 10560.00
622.5820, 10630.00
623.8920, 10650.00
625.2020, 10690.00
626.5120, 10760.00
627.8210, 10910.00
629.1310, 11000.00
630.4400, 11120.00
631.7490, 11150.00
633.0570, 11240.00
634.3660, 11320.00
635.6740, 11240.00
636.9820, 11260.00
638.2900, 11110.00
639.5970, 11170.00
640.9050, 11040.00
642.2120, 11200.00
643.5190, 11230.00
644.8250, 11290.00
646.1320, 11230.00
647.4380, 11310.00
648.7440, 11260.00
650.0500, 11090.00
651.3560, 11200.00
652.6620, 11020.00
653.9670, 11070.00
655.2720, 10880.00
656.5770, 11010.00
657.8820, 11010.00
659.1860, 10920.00
660.4900, 10900.00
661.7940, 10970.00
663.0980, 10990.00
664.4020, 10920.00
665.7050, 10910.00
667.0090, 10990.00
668.3120, 10990.00
669.6140, 10940.00
670.9170, 11020.00
672.2190, 10860.00
673.5220, 11080.00
674.8240, 10990.00
676.1250, 11100.00
677.4270, 10990.00
678.7280, 11000.00
680.0300, 11090.00
681.3310, 11050.00
682.6310, 11080.00
683.9320, 11090.00
685.2320, 11000.00
686.5320, 11130.00
687.8320, 11160.00
689.1320, 11270.00
690.4320, 11120.00
691.7310, 11150.00
693.0300, 11140.00
694.3290, 11270.00
695.6280, 11280.00
696.9260, 11280.00
698.2240, 11240.00
699.5220, 11410.00
700.8200, 11250.00
702.1180, 11380.00
703.4150, 11520.00
704.7130, 11370.00
706.0100, 11440.00
707.3070, 11400.00
708.6030, 11510.00
709.9000, 11510.00
711.1960, 11560.00
712.4920, 11550.00
713.7880, 11550.00
715.0830, 11760.00
716.3790, 11700.00
717.6740, 11770.00
718.9690, 11710.00
720.2640, 11840.00
721.5580, 11780.00
722.8530, 11880.00
724.1470, 11850.00
725.4410, 11830.00
726.7350, 11930.00
728.0280, 11770.00
729.3220, 11840.00
730.6150, 11890.00
731.9080, 11730.00
733.2010, 11950.00
734.4930, 11960.00
735.7850, 11840.00
737.0780, 11970.00
738.3700, 11974.45
739.6610, 11950.00
740.9530, 12080.00
742.2440, 12130.00
743.5350, 12110.00
744.8260, 12280.00
746.1170, 12260.00
747.4070, 12380.00
748.6980, 12470.00
749.9880, 12440.00
751.2780, 12840.00
752.5670, 12820.00
753.8570, 13050.00
755.1460, 13400.00
756.4350, 13870.00
757.7240, 14530.00
759.0130, 15360.00
760.3010, 16380.00
761.5900, 17720.00
762.8780, 18100.00
764.1650, 18170.00
765.4530, 17530.00
766.7410, 16470.00
768.0280, 15500.00
769.3150, 14830.00
770.6020, 14360.00
771.8880, 13930.00
773.1750, 13750.00
774.4610, 13480.00
775.7470, 13400.00
777.0330, 13310.00
778.3190, 13200.00
779.6040, 12920.00
780.8890, 12780.00
782.1740, 12770.00
783.4590, 12860.00
784.7440, 12850.00
786.0280, 12840.00
787.3120, 12820.00
788.5960, 12580.00
789.8800, 12730.00
791.1640, 12780.00
792.4470, 12620.00
793.7300, 12850.00
795.0130, 12720.00
796.2960, 12920.00
797.5790, 12800.00
798.8610, 12850.00
800.1430, 13070.00
801.4250, 12910.00
802.7070, 13220.00
803.9890, 13220.00
805.2700, 13280.00
806.5510, 13560.00
807.8320, 13840.00
809.1130, 14270.00
810.3940, 14890.00
811.6740, 15380.00
812.9540, 16420.00
814.2340, 16650.00
815.5140, 16870.00
816.7940, 16590.00
818.0730, 15850.00
819.3520, 14990.00
820.6310, 14490.00
821.9100, 14070.00
823.1890, 13870.00
824.4670, 13500.00
825.7450, 13570.00
827.0230, 13370.00
828.3010, 13310.00
829.5780, 13330.00
830.8560, 13200.00
832.1330, 13180.00
833.4100, 13120.00
834.6870, 13200.00
835.9630, 13220.00
837.2400, 13160.00
838.5160, 13050.00
839.7920, 13250.00
841.0680, 13060.00
842.3430, 13150.00
843.6180, 13220.00
844.8940, 13270.00
846.1690, 13200.00
847.4430, 13220.00
848.7180, 13060.00
849.9920, 13090.00
851.2660, 13170.00
852.5400, 13180.00
853.8140, 13250.00
855.0880, 13220.00
856.3610, 13210.00
857.6340, 13160.00
858.9070, 13219.87
860.1800, 13300.00
861.4530, 13350.00
862.7250, 13360.00
863.9970, 13440.00
865.2690, 13240.00
866.5410, 13380.00
867.8120, 13490.00
869.0840, 13320.00
870.3550, 13450.00
871.6260, 13440.00
872.8970, 13540.00
874.1670, 13420.00
875.4380, 13500.00
876.7080, 13430.00
877.9780, 13520.00
879.2480, 13690.00
880.5170, 13420.00
881.7870, 13640.00
883.0560, 13480.00
884.3250, 13670.00
885.5940, 13620.00
886.8620, 13670.00
888.1300, 13650.00
889.3990, 13680.00
890.6670, 13770.00
891.9340, 13760.00
893.2020, 13680.00
894.4690, 13830.00
895.7370, 13710.00
897.0040, 13840.00
898.2700, 13890.00
899.5370, 13840.00
900.8030, 13960.00
902.0700, 13880.00
903.3360, 14060.00
904.6010, 13830.00
905.8670, 13920.00
907.1320, 13920.00
908.3980, 14000.00
909.6630, 14060.00
910.9280, 13990.00
912.1920, 14010.00
913.4570, 14040.00
914.7210, 14025.62
915.9850, 14080.00
917.2490, 14050.00
918.5120, 14180.00
919.7760, 14190.00
921.0390, 14220.00
922.3020, 14080.00
923.5650, 14360.00
924.8270, 14270.00
926.0900, 14340.00
927.3520, 14160.00
928.6140, 14310.00
929.8760, 14250.00
931.1380, 14400.00
932.3990, 14350.00
933.6600, 14430.00
934.9220, 14320.00
936.1820, 14470.00
937.4430, 14330.00
938.7040, 14520.00
939.9640, 14590.00
941.2240, 14480.00
942.4840, 14580.00
943.7440, 14500.00
945.0030, 14540.00
946.2620, 14740.00
947.5210, 14630.00
948.7800, 14750.00
950.0390, 14540.00
951.2980, 14720.00
952.5560, 14810.00
953.8140, 14780.00
955.0720, 14810.00
956.3300, 15050.00
957.5870, 14960.00
958.8450, 15090.00
960.1020, 15010.00
961.3590, 15070.00
962.6150, 15160.00
963.8720, 15430.00
965.1280, 15330.00
966.3840, 15500.00
967.6400, 15470.00
968.8960, 15450.00
970.1520, 16010.00
971.4070, 16130.00
972.6620, 16460.00
973.9170, 16660.00
975.1720, 17220.00
976.4270, 17680.00
977.6810, 17880.00
978.9350, 17960.00
980.1890, 17610.00
981.4430, 17280.00
982.6970, 16760.00
983.9500, 16390.00
985.2030, 16080.00
986.4560, 16000.00
987.7090, 15760.00
988.9620, 15630.00
990.2140, 15500.00
991.4670, 15630.00
992.7190, 15570.00
993.9710, 15570.00
995.2220, 15560.00
996.4740, 15650.00
997.7250, 15570.00
998.9760, 15730.00
1000.227, 15840.00
1001.478, 16090.00
1002.728, 15995.20
1003.978, 16290.94
1005.229, 16473.84
1006.479, 16546.11
1007.728, 16380.79
1008.978, 16366.36
1010.227, 16196.27
1011.476, 16420.00
1012.725, 16410.00
1013.974, 16390.00
1015.223, 16510.00
1016.471, 16190.00
1017.719, 16360.00
1018.967, 16250.00
1020.215, 16100.00
1021.462, 16230.00
1022.710, 16240.00
1023.957, 16220.00
1025.204, 16290.00
1026.451, 16349.77
1027.697, 16360.00
1028.944, 16570.00
1030.190, 16750.00
1031.436, 16940.00
1032.682, 16940.00
1033.928, 16920.00
1035.173, 16830.00
1036.418, 16670.00
1037.663, 16540.00
1038.908, 16370.00
1040.153, 16358.09
1041.398, 16380.00
1042.642, 16340.00
1043.886, 16460.00
1045.130, 16430.00
1046.374, 16500.00
1047.617, 16670.00
1048.860, 16400.00
1050.104, 16570.00
1051.347, 16570.00
1052.589, 16180.00
1053.832, 16420.00
1055.074, 16310.00
1056.316, 16360.00
1057.558, 16190.00
1058.800, 16270.00
1060.042, 16390.00
1061.283, 16230.00
1062.524, 16390.00
1063.765, 16470.00
1065.006, 16440.00
1066.247, 16350.00
1067.487, 16310.00
1068.728, 16380.00
1069.968, 16402.50
1071.208, 16350.00
1072.447, 16600.00
1073.687, 16620.00
1074.926, 16760.00
1076.165, 16770.00
1077.404, 16830.00
1078.643, 16870.00
1079.881, 16870.00
1081.120, 16860.00
1082.358, 17020.00
1083.596, 17080.00
1084.834, 17120.00
1086.071, 17530.00
1087.309, 17750.00
1088.546, 17660.00
1089.783, 18020.00
1091.020, 18260.00
1092.256, 18950.00
1093.493, 19280.00
1094.729, 19740.00
1095.965, 20560.00
1097.201, 20920.00
1098.436, 21250.00
1099.672, 21370.00
1100.907, 20890.00
1102.142, 20520.00
1103.377, 20010.00
1104.612, 19580.00
1105.846, 19236.68
1107.081, 18780.00
1108.315, 18620.00
1109.549, 18350.00
1110.782, 18180.00
1112.016, 18103.90
1113.249, 18050.00
1114.483, 17970.00
1115.716, 17970.00
1116.948, 17840.00
1118.181, 18010.00
1119.413, 17740.00
1120.646, 17400.00
1121.878, 17570.00
1123.110, 17380.00
1124.341, 17280.00
1125.573, 17360.00
1126.804, 17220.00
1128.035, 17220.00
1129.266, 17390.00
1130.497, 16980.00
1131.727, 17090.00
1132.957, 17020.00
1134.188, 17100.00
1135.418, 17130.00
1136.647, 17250.00
1137.877, 17200.00
1139.106, 17220.00
1140.335, 17100.00
1141.564, 17250.00
1142.793, 17300.00
1144.022, 17210.00
1145.250, 17540.00
1146.479, 17300.00
1147.707, 17420.00
1148.934, 17570.00
1150.162, 17610.00
1151.390, 17628.51
1152.617, 17680.00
1153.844, 17650.48
1155.071, 17620.00
1156.298, 17570.00
1157.524, 17560.00
1158.751, 17480.00
1159.977, 17460.00
1161.203, 17430.00
1162.428, 17360.00
1163.654, 17360.00
1164.879, 17400.00
1166.105, 17270.00
1167.330, 17490.00
1168.555, 17310.00
1169.779, 17430.00
1171.004, 17400.00
1172.228, 17410.00
1173.452, 17530.00
1174.676, 17540.00
1175.900, 17547.60
1177.123, 17660.00
1178.346, 17560.00
1179.570, 17450.00
1180.793, 17520.00
1182.015, 17460.00
1183.238, 17630.00
1184.460, 17740.00
1185.683, 17694.41
1186.905, 17770.00
1188.126, 17670.00
1189.348, 17600.00
1190.569, 17610.00
1191.791, 17580.00
1193.012, 17810.00
1194.233, 17690.00
1195.453, 17710.00
1196.674, 17830.00
1197.894, 17650.00
1199.114, 17630.00
1200.334, 17860.00
1201.554, 17710.00
1202.774, 17910.00
1203.993, 17790.00
1205.212, 17880.00
1206.431, 18080.00
1207.650, 17880.00
1208.869, 17930.00
1210.087, 18010.00
1211.305, 17870.00
1212.524, 18040.00
1213.741, 18000.00
1214.959, 18010.00
1216.177, 18300.00
1217.394, 18080.00
1218.611, 18030.00
1219.828, 18250.00
1221.045, 17930.00
1222.261, 18240.00
1223.478, 18430.00
1224.694, 18000.00
1225.910, 18290.00
1227.126, 18190.00
1228.342, 18060.00
1229.557, 18220.00
1230.772, 18200.00
1231.987, 18206.65
1233.202, 18360.00
1234.417, 18280.00
1235.631, 18420.00
1236.846, 18550.00
1238.060, 18290.00
1239.274, 18620.00
1240.488, 18360.00
1241.701, 18240.00
1242.915, 18500.00
1244.128, 18370.00
1245.341, 18490.00
1246.554, 18560.00
1247.767, 18470.00
1248.979, 18860.00
1250.191, 18460.00
1251.403, 18530.00
1252.615, 18730.00
1253.827, 18300.00
1255.039, 18900.00
1256.250, 18870.00
1257.461, 18460.00
1258.672, 18810.00
1259.883, 18650.00
1261.094, 18770.00
1262.304, 18580.00
1263.514, 18600.00
1264.724, 18790.00
1265.934, 18680.00
1267.144, 18740.81
1268.354, 18990.00
1269.563, 18780.00
1270.772, 18820.00
1271.981, 18970.00
1273.190, 18690.00
1274.398, 18740.00
1275.607, 19040.00
1276.815, 18560.00
1278.023, 18860.00
1279.231, 18970.00
1280.439, 18820.00
1281.646, 18950.00
1282.853, 18820.00
1284.060, 18940.00
1285.267, 19140.00
1286.474, 18720.00
1287.681, 19070.00
1288.887, 18850.00
1290.093, 18980.00
1291.299, 19220.00
1292.505, 18940.00
1293.711, 18770.00
1294.916, 19170.00
1296.121, 18930.00
1297.327, 19060.00
1298.531, 19180.00
1299.736, 18920.00
1300.941, 19370.00
1302.145, 19070.00
1303.349, 18980.00
1304.553, 19300.00
1305.757, 19030.00
1306.961, 19260.00
1308.164, 19200.00
1309.367, 19350.00
1310.570, 19360.00
1311.773, 19380.00
1312.976, 19350.00
1314.178, 19440.00
1315.381, 19300.00
1316.583, 19470.00
1317.785, 19370.00
1318.987, 19310.00
1320.188, 19510.00
1321.390, 19480.00
1322.591, 19430.00
1323.792, 19690.00
1324.993, 19450.00
1326.193, 19640.00
1327.394, 19780.00
1328.594, 19340.00
1329.794, 19870.00
1330.994, 19510.00
1332.194, 19560.00
1333.394, 19840.00
1334.593, 19850.00
1335.792, 19570.00
1336.991, 19880.00
1338.190, 19650.00
1339.389, 19540.00
1340.587, 20050.00
1341.786, 19650.00
1342.984, 19980.00
1344.182, 19970.00
1345.379, 19880.00
1346.577, 20170.00
1347.774, 19890.00
1348.972, 20010.00
1350.169, 20230.00
1351.365, 19780.00
1352.562, 20220.00
1353.759, 20300.00
1354.955, 19840.00
1356.151, 20470.00
1357.347, 20120.00
1358.543, 20130.00
1359.738, 20590.00
1360.934, 20130.00
1362.129, 20070.00
1363.324, 20281.85
1364.519, 20530.79
1365.713, 20680.83
1366.908, 20737.30
1368.102, 20419.88
1369.296, 20585.24
1370.490, 20557.12
1371.684, 20521.07
1372.877, 20754.35
1374.071, 20491.32
1375.264, 20720.33
1376.457, 20752.92
1377.650, 20875.40
1378.843, 20803.22
1380.035, 20791.15
1381.227, 20973.80
1382.419, 21048.63
1383.611, 20954.03
1384.803, 21082.21
1385.995, 20812.33
1387.186, 20891.74
1388.377, 21121.85
1389.568, 21037.01
1390.759, 21168.73
1391.950, 21217.97
1393.140, 20892.36
1394.331, 21218.64
1395.521, 21262.99
1396.711, 21017.88
1397.900, 21321.78
1399.090, 21116.57
1400.279, 21093.07
1401.469, 21206.36
1402.658, 21177.05
1403.847, 20760.00
1405.035, 21370.00
1406.224, 21050.00
1407.412, 20980.00
1408.600, 21250.00
1409.788, 21160.00
1410.976, 21170.00
1412.164, 21430.00
1413.351, 21220.00
1414.538, 21210.00
1415.725, 21490.00
1416.912, 21180.00
1418.099, 21630.00
1419.285, 21310.00
1420.472, 21260.00
1421.658, 21880.00
1422.844, 21240.00
1424.030, 21690.00
1425.215, 21522.94
1426.401, 21783.31
1427.586, 21944.76
1428.771, 22012.62
1429.956, 21706.62
1431.141, 21883.38
1432.325, 21866.65
1433.510, 21842.01
1434.694, 22086.70
1435.878, 21835.04
1437.062, 22075.46
1438.245, 22119.42
1439.429, 22253.31
1440.612, 22192.50
1441.795, 22191.82
1442.978, 22385.87
1444.161, 22472.09
1445.343, 22388.84
1446.526, 22528.42
1447.708, 22269.90
1448.890, 22360.69
1450.072, 22602.19
1451.253, 22528.70
1452.435, 22671.80
1453.616, 22732.40
1454.797, 22418.16
1455.978, 22755.79
1457.159, 22811.52
1458.340, 22380.00
1459.520, 22230.00
1460.700, 22610.00
1461.880, 22470.00
1463.060, 22280.00
1464.240, 22820.00
1465.420, 22200.00
1466.599, 22470.00
1467.778, 22940.00
1468.957, 22370.00
1470.136, 22820.00
1471.315, 22880.00
1472.493, 22510.00
1473.671, 23090.00
1474.849, 22760.00
1476.027, 22550.00
1477.205, 23090.00
1478.383, 22750.00
1479.560, 22860.00
1480.737, 23060.00
1481.914, 22650.00
1483.091, 22970.00
1484.268, 22880.00
1485.444, 22930.00
1486.621, 23070.00
1487.797, 23000.00
1488.973, 22720.00
1490.149, 23390.00
1491.324, 23170.00
1492.500, 22950.00
1493.675, 23170.00
1494.850, 22980.00
1496.025, 23290.00
1497.200, 23390.00
1498.374, 23050.00
1499.548, 23390.00
1500.723, 23160.00
1501.897, 23070.00
1503.071, 23460.00
1504.244, 23170.00
1505.418, 23300.00
1506.591, 23540.00
1507.764, 23110.00
1508.937, 23480.00
1510.110, 23510.00
1511.282, 23110.00
1512.455, 23630.00
1513.627, 23500.00
1514.799, 23350.00
1515.971, 23450.00
##END=



