##NAMES=Albite
##RRUFFID=R050402
##IDEAL CHEMISTRY=NaAlSi_3_O_8_
##LOCALITY=Urbano mine, Golconda District, Brazil
##OWNER=RRUFF
##SOURCE=Bob Downs
##DESCRIPTION=Colorless tabular single crystals associated with fluorapatite R050401
##STATUS=The identification of this mineral has been confirmed by X-ray diffraction and chemical analysis
##URL=rruff.info/R050402
##MEASURED CHEMISTRY=Na_1.00_Al_1.00_Si_3.00_O_8_
##PIN_ID=M00171
##ORIENTATION=Laser parallel to (1 1 0). Fiducial mark perpendicular to laser is parallel to c [0 0 1]
81.13100, 5343.000
82.36700, 5790.000
83.60200, 6429.000
84.83700, 7133.000
86.07200, 7667.000
87.30800, 8402.000
88.54200, 8962.000
89.77700, 9023.000
91.01200, 8346.000
92.24600, 7709.000
93.48000, 7010.000
94.71400, 6392.000
95.94800, 6177.000
97.18200, 5996.000
98.41600, 5945.000
99.64900, 6047.000
100.8830, 6259.000
102.1160, 6440.000
103.3490, 6727.000
104.5820, 7029.000
105.8150, 7507.000
107.0470, 7728.000
108.2800, 8102.000
109.5120, 8527.000
110.7440, 8862.000
111.9760, 8886.000
113.2080, 9190.000
114.4400, 9435.000
115.6710, 9435.000
116.9030, 9035.000
118.1340, 8268.000
119.3650, 7392.000
120.5960, 6759.000
121.8270, 6265.000
123.0580, 6091.000
124.2880, 5994.000
125.5190, 5838.000
126.7490, 5849.000
127.9790, 5823.000
129.2090, 5845.000
130.4390, 5994.000
131.6680, 6228.000
132.8980, 6409.000
134.1270, 6630.000
135.3560, 7070.000
136.5850, 7462.000
137.8140, 7976.000
139.0430, 8508.000
140.2710, 8819.000
141.5000, 9422.000
142.7280, 10158.00
143.9560, 10851.00
145.1840, 11671.00
146.4120, 12518.00
147.6390, 13246.00
148.8670, 13837.00
150.0940, 14446.00
151.3210, 14766.00
152.5490, 15275.00
153.7750, 15780.00
155.0020, 15968.00
156.2290, 16078.00
157.4550, 16019.00
158.6810, 16421.00
159.9080, 17015.00
161.1340, 17926.00
162.3590, 18514.00
163.5850, 18993.00
164.8110, 18898.00
166.0360, 18114.00
167.2610, 17227.00
168.4860, 16766.00
169.7110, 16508.00
170.9360, 16883.00
172.1610, 16915.00
173.3850, 17171.00
174.6100, 17229.00
175.8340, 17571.00
177.0580, 17722.00
178.2820, 17963.00
179.5050, 18463.00
180.7290, 18839.00
181.9520, 19197.00
183.1760, 19667.00
184.3990, 19951.00
185.6220, 20085.00
186.8450, 19822.25
188.0670, 19496.00
189.2900, 18667.00
190.5120, 17632.00
191.7340, 16456.00
192.9560, 15421.00
194.1780, 14489.00
195.4000, 13779.00
196.6220, 13622.00
197.8430, 13480.00
199.0640, 13676.00
200.2860, 14273.00
201.5070, 14413.00
202.7270, 14719.00
203.9480, 14678.00
205.1690, 14702.00
206.3890, 14830.00
207.6090, 15241.00
208.8290, 15460.00
210.0490, 15722.00
211.2690, 15086.00
212.4890, 14082.00
213.7080, 12554.00
214.9280, 11142.00
216.1470, 9870.000
217.3660, 8757.000
218.5850, 8094.000
219.8030, 7419.000
221.0220, 7012.000
222.2400, 6859.000
223.4590, 6669.000
224.6770, 6549.000
225.8950, 6493.000
227.1120, 6476.000
228.3300, 6382.000
229.5480, 6312.000
230.7650, 6326.000
231.9820, 6352.383
233.1990, 6457.000
234.4160, 6531.000
235.6330, 6595.000
236.8490, 6733.000
238.0660, 7102.000
239.2820, 7276.000
240.4980, 7787.000
241.7140, 8546.000
242.9300, 9381.000
244.1460, 10093.00
245.3610, 10875.00
246.5770, 11062.00
247.7920, 11871.00
249.0070, 12707.00
250.2220, 13516.00
251.4370, 14682.00
252.6510, 15340.00
253.8660, 15455.00
255.0800, 14528.00
256.2940, 13359.00
257.5080, 11824.00
258.7220, 10921.00
259.9360, 10547.00
261.1490, 10164.00
262.3630, 9941.000
263.5760, 10242.00
264.7890, 10458.00
266.0020, 10774.00
267.2150, 11341.00
268.4270, 11979.00
269.6400, 12453.00
270.8520, 12709.00
272.0640, 12970.00
273.2760, 12974.00
274.4880, 12802.00
275.7000, 12978.00
276.9120, 13245.00
278.1230, 14129.00
279.3340, 15625.00
280.5450, 17628.00
281.7560, 19749.00
282.9670, 22201.00
284.1780, 24653.00
285.3880, 26613.00
286.5980, 28765.00
287.8090, 31145.00
289.0190, 33640.00
290.2290, 36002.00
291.4380, 37090.00
292.6480, 36546.00
293.8570, 34339.00
295.0670, 29932.00
296.2760, 25268.00
297.4850, 20848.00
298.6930, 17377.00
299.9020, 14735.00
301.1110, 12800.00
302.3190, 11560.00
303.5270, 10644.00
304.7350, 9977.000
305.9430, 9362.000
307.1510, 9153.000
308.3580, 8901.000
309.5660, 8605.000
310.7730, 8467.000
311.9800, 8284.000
313.1870, 8215.000
314.3940, 8199.000
315.6010, 8304.000
316.8070, 8399.000
318.0130, 8752.000
319.2200, 9316.000
320.4260, 10179.00
321.6310, 10942.00
322.8370, 11436.00
324.0430, 11904.00
325.2480, 12608.00
326.4540, 14116.00
327.6590, 14332.00
328.8640, 15137.00
330.0680, 15628.00
331.2730, 15269.00
332.4780, 13966.00
333.6820, 12449.00
334.8860, 10868.00
336.0900, 9609.000
337.2940, 8678.000
338.4980, 8066.000
339.7010, 7697.000
340.9050, 7525.000
342.1080, 7292.000
343.3110, 7221.000
344.5140, 7055.000
345.7170, 7057.000
346.9200, 6949.000
348.1220, 6891.000
349.3240, 6891.000
350.5270, 6898.000
351.7290, 6828.000
352.9310, 6761.000
354.1320, 6713.461
355.3340, 6700.000
356.5350, 6560.000
357.7370, 6488.000
358.9380, 6379.000
360.1390, 6346.000
361.3400, 6303.465
362.5400, 6381.000
363.7410, 6289.000
364.9410, 6362.000
366.1410, 6410.000
367.3410, 6253.000
368.5410, 6283.000
369.7410, 6281.000
370.9400, 6326.000
372.1400, 6341.000
373.3390, 6342.000
374.5380, 6425.000
375.7370, 6298.000
376.9360, 6318.000
378.1350, 6403.000
379.3330, 6244.000
380.5310, 6347.000
381.7300, 6473.000
382.9280, 6424.000
384.1260, 6511.000
385.3230, 6606.000
386.5210, 6685.000
387.7180, 6754.000
388.9160, 6893.000
390.1130, 7065.000
391.3100, 7315.000
392.5060, 7452.000
393.7030, 7626.000
394.9000, 7771.000
396.0960, 8126.000
397.2920, 8511.000
398.4880, 8860.000
399.6840, 9393.000
400.8800, 9787.000
402.0750, 9918.000
403.2710, 9883.000
404.4660, 9893.000
405.6610, 10102.00
406.8560, 10474.00
408.0510, 11047.00
409.2450, 11119.00
410.4400, 10885.00
411.6340, 10487.00
412.8280, 9863.000
414.0220, 9564.000
415.2160, 9403.000
416.4100, 9417.000
417.6030, 9395.000
418.7970, 9171.000
419.9900, 8695.000
421.1830, 8179.000
422.3760, 7706.000
423.5690, 7336.000
424.7610, 7150.000
425.9540, 7096.000
427.1460, 6895.000
428.3380, 6853.000
429.5300, 6850.000
430.7220, 6841.000
431.9140, 6875.000
433.1050, 6850.000
434.2970, 6871.000
435.4880, 6832.000
436.6790, 6930.000
437.8700, 6872.000
439.0610, 6997.000
440.2510, 7002.000
441.4420, 7042.000
442.6320, 7188.000
443.8220, 7047.000
445.0120, 7181.000
446.2020, 7287.000
447.3910, 7229.000
448.5810, 7399.000
449.7700, 7636.000
450.9600, 7499.000
452.1490, 7793.000
453.3370, 7820.000
454.5260, 7945.000
455.7150, 8160.000
456.9030, 8420.000
458.0910, 8428.000
459.2800, 8426.000
460.4670, 8600.000
461.6550, 8846.000
462.8430, 8943.000
464.0300, 9192.000
465.2180, 9679.000
466.4050, 10363.00
467.5920, 11239.00
468.7790, 12439.00
469.9650, 14165.00
471.1520, 15996.00
472.3380, 17771.00
473.5250, 19302.00
474.7110, 20782.00
475.8970, 22519.00
477.0820, 24264.00
478.2680, 25818.00
479.4540, 26753.00
480.6390, 26335.00
481.8240, 24695.00
483.0090, 22306.00
484.1940, 19457.00
485.3780, 17154.00
486.5630, 15302.00
487.7470, 14137.00
488.9320, 13423.00
490.1160, 13033.00
491.3000, 12913.00
492.4830, 13370.00
493.6670, 14142.00
494.8500, 15559.00
496.0340, 17360.00
497.2170, 19904.00
498.4000, 23547.00
499.5820, 27922.00
500.7650, 31844.00
501.9480, 36061.00
503.1300, 39617.00
504.3120, 43661.00
505.4940, 47496.00
506.6760, 51116.00
507.8580, 53606.00
509.0390, 52622.00
510.2210, 48803.00
511.4020, 42934.00
512.5830, 35813.00
513.7640, 29221.00
514.9450, 24381.00
516.1250, 20331.00
517.3060, 17735.00
518.4860, 15467.00
519.6660, 13936.00
520.8460, 12921.00
522.0260, 12076.00
523.2060, 11588.00
524.3850, 10928.00
525.5650, 10411.00
526.7440, 10183.00
527.9230, 9930.000
529.1020, 9649.000
530.2810, 9488.000
531.4590, 9343.000
532.6380, 9134.000
533.8160, 9092.000
534.9940, 8890.000
536.1720, 8880.000
537.3500, 8712.000
538.5270, 8737.000
539.7050, 8559.000
540.8820, 8453.000
542.0590, 8455.000
543.2360, 8485.000
544.4130, 8427.000
545.5900, 8448.000
546.7660, 8251.000
547.9430, 8163.000
549.1190, 8194.000
550.2950, 8282.000
551.4710, 8265.000
552.6470, 8283.000
553.8220, 8198.000
554.9980, 8121.000
556.1730, 8224.000
557.3480, 8210.000
558.5230, 8272.000
559.6980, 8257.134
560.8730, 8154.000
562.0470, 8196.000
563.2220, 8203.000
564.3960, 8155.000
565.5700, 8351.000
566.7440, 8474.000
567.9170, 8464.000
569.0910, 8491.000
570.2640, 8771.000
571.4380, 8656.000
572.6110, 8821.000
573.7840, 9022.000
574.9570, 9112.000
576.1290, 9234.000
577.3020, 9323.945
578.4740, 9424.000
579.6460, 9381.000
580.8180, 9348.000
581.9900, 9213.000
583.1620, 9091.000
584.3330, 8833.000
585.5040, 8678.000
586.6760, 8473.000
587.8470, 8462.000
589.0180, 8460.000
590.1880, 8259.000
591.3590, 8341.000
592.5290, 8143.000
593.7000, 8232.000
594.8700, 8225.000
596.0400, 8125.000
597.2090, 8231.000
598.3790, 8131.000
599.5490, 8150.000
600.7180, 8224.000
601.8870, 8239.000
603.0560, 8153.000
604.2250, 8234.000
605.3940, 8222.000
606.5620, 8308.000
607.7300, 8332.000
608.8990, 8355.000
610.0670, 8236.000
611.2350, 8310.000
612.4020, 8338.000
613.5700, 8334.000
614.7370, 8448.000
615.9050, 8496.000
617.0720, 8551.000
618.2390, 8643.933
619.4060, 8614.000
620.5720, 8796.000
621.7390, 8894.000
622.9050, 8958.000
624.0710, 9170.000
625.2370, 9341.000
626.4030, 9363.000
627.5690, 9705.000
628.7340, 9643.000
629.9000, 9951.000
631.0650, 9957.000
632.2300, 10178.00
633.3950, 10035.00
634.5600, 10146.00
635.7240, 10254.00
636.8890, 10154.00
638.0530, 10131.00
639.2170, 10028.00
640.3810, 10151.00
641.5450, 10205.00
642.7080, 10343.00
643.8720, 10387.00
645.0350, 10720.00
646.1980, 10417.00
647.3610, 10518.00
648.5240, 10520.00
649.6870, 10259.00
650.8490, 9984.000
652.0120, 9865.000
653.1740, 9648.000
654.3360, 9430.000
655.4980, 9293.000
656.6600, 9100.000
657.8210, 8906.000
658.9830, 8736.000
660.1440, 8750.000
661.3050, 8712.000
662.4660, 8769.000
663.6270, 8625.000
664.7870, 8647.000
665.9480, 8607.000
667.1080, 8581.000
668.2680, 8431.000
669.4280, 8590.000
670.5880, 8541.000
671.7480, 8648.000
672.9070, 8614.000
674.0670, 8606.000
675.2260, 8649.000
676.3850, 8545.000
677.5440, 8650.000
678.7030, 8551.000
679.8610, 8625.000
681.0200, 8477.000
682.1780, 8480.000
683.3360, 8493.000
684.4940, 8580.000
685.6520, 8535.000
686.8090, 8502.000
687.9670, 8601.000
689.1240, 8594.000
690.2810, 8660.000
691.4380, 8544.000
692.5950, 8570.000
693.7520, 8619.000
694.9080, 8574.000
696.0650, 8663.000
697.2210, 8616.000
698.3770, 8632.000
699.5330, 8632.000
700.6880, 8619.000
701.8440, 8594.000
702.9990, 8686.000
704.1550, 8730.000
705.3100, 8694.000
706.4650, 8585.000
707.6190, 8702.000
708.7740, 8754.000
709.9290, 8731.000
711.0830, 8828.000
712.2370, 8860.000
713.3910, 8847.000
714.5450, 8924.000
715.6980, 8896.000
716.8520, 8939.000
718.0050, 9001.000
719.1580, 9065.000
720.3110, 9054.000
721.4640, 9045.000
722.6170, 9094.000
723.7700, 9044.000
724.9220, 9054.000
726.0740, 9084.000
727.2260, 8961.000
728.3780, 8913.000
729.5300, 9111.000
730.6810, 8994.000
731.8330, 9001.000
732.9840, 9020.000
734.1350, 9006.000
735.2860, 9085.000
736.4370, 9255.000
737.5880, 9252.000
738.7380, 9283.000
739.8880, 9132.000
741.0390, 9265.000
742.1890, 9300.000
743.3380, 9223.000
744.4880, 9328.000
745.6380, 9324.000
746.7870, 9307.000
747.9360, 9467.000
749.0850, 9571.000
750.2340, 9709.000
751.3830, 9837.000
752.5310, 10090.00
753.6800, 10193.00
754.8280, 10448.00
755.9760, 10895.00
757.1240, 11181.00
758.2720, 11649.00
759.4190, 11966.00
760.5670, 12375.00
761.7140, 12873.00
762.8610, 13259.00
764.0080, 13354.00
765.1550, 13267.00
766.3020, 12837.00
767.4480, 12416.00
768.5950, 11722.00
769.7410, 11254.00
770.8870, 11024.00
772.0330, 10704.00
773.1780, 10459.00
774.3240, 10362.00
775.4690, 10208.00
776.6140, 10354.00
777.7590, 10076.00
778.9040, 9961.000
780.0490, 10099.00
781.1940, 9903.000
782.3380, 9785.000
783.4820, 9679.000
784.6260, 9829.000
785.7700, 9884.000
786.9140, 9627.000
788.0580, 9818.000
789.2010, 9689.000
790.3450, 9703.000
791.4880, 9751.000
792.6310, 9810.000
793.7730, 9718.000
794.9160, 9844.000
796.0590, 9819.000
797.2010, 9950.000
798.3430, 10011.00
799.4850, 10026.00
800.6270, 9978.000
801.7690, 10289.00
802.9100, 10267.00
804.0520, 10240.00
805.1930, 10575.00
806.3340, 10831.00
807.4750, 11213.00
808.6160, 11574.00
809.7560, 12075.00
810.8970, 12389.00
812.0370, 12914.00
813.1770, 13202.00
814.3170, 13410.00
815.4570, 13522.00
816.5960, 13432.00
817.7360, 13225.00
818.8750, 12936.00
820.0140, 12219.00
821.1530, 11539.00
822.2920, 11398.00
823.4310, 10961.00
824.5690, 10725.00
825.7070, 10523.00
826.8460, 10414.00
827.9840, 10304.00
829.1220, 10264.03
830.2590, 10316.00
831.3970, 10279.00
832.5340, 10289.00
833.6710, 10332.00
834.8080, 10294.42
835.9450, 10273.04
837.0820, 10280.00
838.2190, 10196.00
839.3550, 10219.49
840.4910, 10229.09
841.6270, 10160.00
842.7630, 10198.00
843.8990, 10143.00
845.0350, 10179.00
846.1700, 10093.00
847.3060, 10231.00
848.4410, 10102.00
849.5760, 10113.00
850.7100, 10058.00
851.8450, 10124.00
852.9800, 10227.00
854.1140, 10178.00
855.2480, 10128.00
856.3820, 10169.00
857.5160, 10326.00
858.6500, 10271.00
859.7830, 10398.00
860.9170, 10280.00
862.0500, 10396.00
863.1830, 10225.00
864.3160, 10290.00
865.4480, 10451.00
866.5810, 10303.00
867.7130, 10369.00
868.8460, 10312.00
869.9780, 10218.00
871.1100, 10214.00
872.2410, 10334.00
873.3730, 10290.00
874.5050, 10331.00
875.6360, 10268.00
876.7670, 10310.08
877.8980, 10314.43
879.0290, 10368.00
880.1590, 10345.00
881.2900, 10356.00
882.4200, 10363.00
883.5500, 10529.00
884.6800, 10344.00
885.8100, 10423.00
886.9400, 10525.00
888.0690, 10361.00
889.1990, 10381.00
890.3280, 10431.00
891.4570, 10428.00
892.5860, 10484.00
893.7140, 10389.00
894.8430, 10525.00
895.9710, 10528.00
897.1000, 10468.00
898.2280, 10674.00
899.3560, 10637.00
900.4830, 10625.00
901.6110, 10477.00
902.7380, 10578.00
903.8660, 10667.00
904.9930, 10655.00
906.1200, 10564.00
907.2460, 10641.00
908.3730, 10596.00
909.5000, 10768.00
910.6260, 10769.00
911.7520, 10659.00
912.8780, 10740.00
914.0040, 10722.00
915.1290, 10629.00
916.2550, 10758.00
917.3800, 10736.00
918.5050, 10806.00
919.6300, 10767.00
920.7550, 10727.00
921.8800, 10695.00
923.0040, 10873.00
924.1290, 10752.00
925.2530, 10862.00
926.3770, 10881.00
927.5010, 10831.00
928.6250, 10966.00
929.7480, 10743.00
930.8720, 10827.00
931.9950, 10711.00
933.1180, 10928.00
934.2410, 10885.00
935.3640, 10890.00
936.4860, 10948.00
937.6090, 10889.92
938.7310, 11066.00
939.8530, 10858.00
940.9750, 10957.00
942.0970, 11014.00
943.2180, 10953.00
944.3400, 11100.00
945.4610, 10978.00
946.5820, 11097.00
947.7030, 11069.00
948.8240, 11140.00
949.9450, 11099.00
951.0650, 11192.00
952.1860, 11206.00
953.3060, 11284.00
954.4260, 11314.51
955.5460, 11347.00
956.6650, 11382.00
957.7850, 11341.00
958.9040, 11385.00
960.0230, 11511.00
961.1420, 11472.00
962.2610, 11494.00
963.3800, 11390.00
964.4990, 11566.00
965.6170, 11637.00
966.7350, 11706.00
967.8530, 11875.00
968.9710, 11948.00
970.0890, 12209.00
971.2070, 12238.00
972.3240, 12430.00
973.4410, 12686.00
974.5580, 12860.00
975.6750, 12986.00
976.7920, 13229.00
977.9090, 13287.00
979.0250, 13436.00
980.1410, 13570.00
981.2580, 13304.00
982.3740, 12921.00
983.4890, 12771.00
984.6050, 12593.00
985.7200, 12359.00
986.8360, 12305.00
987.9510, 12123.00
989.0660, 12219.00
990.1810, 12075.00
991.2950, 11994.00
992.4100, 11835.00
993.5240, 11863.00
994.6390, 11871.49
995.7530, 12124.00
996.8660, 12029.00
997.9800, 12210.00
999.0940, 12323.00
1000.207, 12375.00
1001.320, 12527.00
1002.433, 12665.00
1003.546, 12866.00
1004.659, 12924.00
1005.772, 13058.00
1006.884, 13330.00
1007.996, 13452.00
1009.108, 13421.00
1010.220, 13623.00
1011.332, 13554.00
1012.444, 13646.00
1013.555, 13615.00
1014.666, 13908.00
1015.777, 13657.00
1016.888, 13681.00
1017.999, 13594.00
1019.110, 13419.00
1020.220, 13188.00
1021.331, 13111.00
1022.441, 13191.00
1023.551, 13172.00
1024.661, 13324.00
1025.770, 13562.00
1026.880, 13672.00
1027.989, 13802.00
1029.098, 13984.00
1030.207, 14333.00
1031.316, 14433.00
1032.425, 14483.00
1033.533, 14542.00
1034.642, 14329.00
1035.750, 14093.00
1036.858, 13922.00
1037.966, 13728.00
1039.073, 13379.00
1040.181, 13103.00
1041.288, 12944.00
1042.396, 12822.00
1043.503, 12754.00
1044.610, 12557.00
1045.716, 12583.00
1046.823, 12499.00
1047.929, 12523.00
1049.036, 12557.00
1050.142, 12469.00
1051.248, 12496.00
1052.353, 12311.00
1053.459, 12378.00
1054.564, 12352.00
1055.670, 12290.00
1056.775, 12392.00
1057.880, 12357.00
1058.985, 12206.00
1060.089, 12283.00
1061.194, 12329.00
1062.298, 12258.00
1063.402, 12317.00
1064.506, 12384.00
1065.610, 12448.00
1066.713, 12466.00
1067.817, 12348.00
1068.920, 12477.00
1070.023, 12457.00
1071.126, 12573.00
1072.229, 12369.00
1073.332, 12550.00
1074.435, 12377.00
1075.537, 12606.00
1076.639, 12567.00
1077.741, 12627.00
1078.843, 12592.00
1079.945, 12768.00
1081.046, 12758.00
1082.148, 12964.00
1083.249, 12974.00
1084.350, 13100.00
1085.451, 13289.00
1086.551, 13188.00
1087.652, 13424.00
1088.752, 13618.00
1089.853, 13895.00
1090.953, 14143.00
1092.053, 14533.00
1093.152, 14863.00
1094.252, 15006.00
1095.351, 15523.00
1096.451, 15942.00
1097.550, 16477.00
1098.649, 16690.00
1099.748, 16868.00
1100.846, 16846.00
1101.945, 16813.00
1103.043, 16379.00
1104.141, 16043.00
1105.239, 15789.00
1106.337, 15513.42
1107.434, 15421.00
1108.532, 15133.00
1109.629, 15073.00
1110.726, 14958.00
1111.823, 14854.00
1112.920, 14735.00
1114.017, 14817.00
1115.113, 14840.00
1116.210, 14797.00
1117.306, 14738.00
1118.402, 14570.00
1119.498, 14358.00
1120.593, 14422.00
1121.689, 14222.00
1122.784, 13843.00
1123.879, 13619.00
1124.974, 13792.00
1126.069, 13601.00
1127.164, 13518.00
1128.259, 13540.00
1129.353, 13238.00
1130.447, 13243.00
1131.541, 13163.00
1132.635, 13025.00
1133.729, 13004.00
1134.822, 12995.00
1135.916, 12951.00
1137.009, 12933.00
1138.102, 12956.00
1139.195, 12940.71
1140.288, 12955.00
1141.380, 12935.00
1142.473, 12970.00
1143.565, 12919.00
1144.657, 13060.00
1145.749, 12983.00
1146.841, 13026.00
1147.932, 13143.00
1149.024, 13030.00
1150.115, 13262.00
1151.206, 13113.00
1152.297, 13115.00
1153.388, 13267.00
1154.479, 13023.00
1155.569, 13130.00
1156.659, 13073.00
1157.750, 12938.00
1158.839, 13061.00
1159.929, 13101.00
1161.019, 12991.00
1162.108, 12941.00
1163.198, 12957.00
1164.287, 12954.00
1165.376, 13023.00
1166.465, 12985.00
1167.553, 13041.00
1168.642, 13070.00
1169.730, 13034.00
1170.818, 12853.00
1171.906, 13155.00
1172.994, 13051.00
1174.082, 13245.00
1175.170, 13140.00
1176.257, 13149.00
1177.344, 13099.00
1178.431, 13143.00
1179.518, 13027.00
1180.605, 13062.00
1181.691, 13172.00
1182.778, 13127.00
1183.864, 13191.00
1184.950, 12965.00
1186.036, 13046.00
1187.122, 12983.00
1188.207, 13177.00
1189.292, 12970.00
1190.378, 13255.00
1191.463, 13160.00
1192.548, 13137.00
1193.632, 13195.00
1194.717, 13168.00
1195.801, 13109.00
1196.886, 13144.00
1197.970, 13256.00
1199.054, 13171.00
1200.137, 13025.00
1201.221, 13210.00
1202.305, 13183.00
1203.388, 13202.00
1204.471, 13419.00
1205.554, 13254.00
1206.637, 13321.00
1207.719, 13197.00
1208.802, 13248.00
1209.884, 13327.00
1210.966, 13296.00
1212.048, 13408.00
1213.130, 13350.00
1214.212, 13278.00
1215.293, 13407.00
1216.374, 13234.00
1217.456, 13347.00
1218.536, 13359.00
1219.617, 13528.00
1220.698, 13301.00
1221.778, 13484.00
1222.859, 13406.00
1223.939, 13370.00
1225.019, 13362.00
1226.099, 13452.00
1227.178, 13429.00
1228.258, 13353.00
1229.337, 13559.00
1230.417, 13566.00
1231.496, 13512.00
1232.574, 13412.00
1233.653, 13524.00
1234.732, 13487.00
1235.810, 13366.00
1236.888, 13410.00
1237.966, 13600.00
1239.044, 13582.00
1240.122, 13706.00
1241.199, 13650.00
1242.277, 13587.00
1243.354, 13690.00
1244.431, 13679.00
1245.508, 13549.00
1246.585, 13669.00
1247.661, 13639.00
1248.738, 13644.00
1249.814, 13716.00
1250.890, 13783.00
1251.966, 13761.00
1253.042, 13787.00
1254.117, 13781.42
1255.193, 13882.00
1256.268, 13748.00
1257.343, 13642.00
1258.418, 13612.00
1259.493, 13768.00
1260.567, 13783.00
1261.642, 13890.00
1262.716, 13887.00
1263.790, 13831.00
1264.864, 13982.00
1265.938, 13823.00
1267.011, 13952.00
1268.085, 14048.00
1269.158, 13875.00
1270.231, 13867.00
1271.304, 13865.00
1272.377, 13917.00
1273.450, 13911.00
1274.522, 13874.00
1275.594, 14035.00
1276.666, 13930.00
1277.738, 13981.00
1278.810, 13901.00
1279.882, 13777.00
1280.953, 13987.00
1282.025, 13855.00
1283.096, 13995.00
1284.167, 14080.00
1285.238, 13990.00
1286.308, 14012.00
1287.379, 14004.00
1288.449, 14080.00
1289.519, 13907.00
1290.589, 14092.00
1291.659, 14047.00
1292.729, 14142.00
1293.798, 14056.00
1294.868, 14007.00
1295.937, 14063.00
1297.006, 14249.00
1298.075, 14225.00
1299.143, 14250.00
1300.212, 14154.00
1301.280, 14180.00
1302.348, 14164.00
1303.416, 14169.00
1304.484, 14169.22
1305.552, 14175.36
1306.620, 14152.00
1307.687, 14202.00
1308.754, 14178.00
1309.821, 14196.00
1310.888, 14232.00
1311.955, 14354.00
1313.021, 14169.00
1314.088, 14379.00
1315.154, 14162.00
1316.220, 14220.00
1317.286, 14331.00
1318.352, 14380.00
1319.417, 14369.00
1320.483, 14270.00
1321.548, 14342.00
1322.613, 14318.00
1323.678, 14309.00
1324.743, 14347.00
1325.807, 14276.00
1326.872, 14307.00
1327.936, 14222.00
1329.000, 14310.00
1330.064, 14433.00
1331.128, 14304.00
1332.191, 14408.00
1333.255, 14301.00
1334.318, 14361.00
1335.381, 14417.00
1336.444, 14336.00
1337.507, 14238.00
1338.569, 14419.00
1339.632, 14362.00
1340.694, 14479.00
1341.756, 14309.00
1342.818, 14495.00
1343.880, 14335.00
1344.941, 14373.00
1346.003, 14284.00
1347.064, 14415.00
1348.125, 14391.00
1349.186, 14504.00
1350.247, 14330.00
1351.308, 14391.00
1352.368, 14437.00
1353.428, 14556.00
1354.489, 14450.00
1355.549, 14451.00
1356.608, 14446.00
1357.668, 14400.00
1358.727, 14510.00
1359.787, 14502.91
1360.846, 14458.00
1361.905, 14551.00
1362.964, 14622.00
1364.022, 14572.00
1365.081, 14540.00
1366.139, 14626.00
1367.197, 15115.50
1368.255, 14900.50
1369.313, 14917.72
1370.371, 14810.00
1371.428, 14628.00
1372.486, 14655.00
1373.543, 14629.00
1374.600, 14598.00
1375.657, 14742.00
1376.713, 14716.00
1377.770, 14587.00
1378.826, 14518.00
1379.882, 14374.00
1380.938, 14657.00
1381.994, 14652.00
1383.050, 14796.00
1384.106, 14703.00
1385.161, 14733.00
1386.216, 14834.00
1387.271, 14702.00
1388.326, 14736.00
1389.381, 14760.00
1390.435, 14622.00
1391.490, 14800.00
1392.544, 14832.00
1393.598, 14816.00
1394.652, 14805.00
1395.705, 14808.44
1396.759, 14793.52
1397.812, 14764.00
1398.866, 14792.00
1399.919, 14713.00
1400.972, 14739.00
1402.024, 14730.74
1403.077, 14809.00
1404.129, 14751.00
1405.181, 14792.00
1406.233, 14832.00
1407.285, 14882.00
1408.337, 14772.00
1409.389, 14766.00
1410.440, 14843.00
1411.491, 14971.00
1412.542, 14815.00
1413.593, 14906.00
1414.644, 14727.00
1415.695, 14904.00
1416.745, 14981.00
1417.795, 14937.00
1418.845, 14908.00
1419.895, 14817.00
1420.945, 14827.14
1421.995, 14966.00
1423.044, 14828.00
1424.093, 14998.00
1425.142, 15027.00
1426.191, 14982.00
1427.240, 15038.00
1428.289, 14996.00
1429.337, 15009.00
1430.385, 14962.00
1431.433, 14965.52
1432.481, 15110.00
1433.529, 15018.00
1434.577, 15085.00
1435.624, 15236.00
1436.672, 15188.00
1437.719, 15243.00
1438.766, 15338.00
1439.812, 15240.00
1440.859, 15410.00
1441.905, 15372.73
1442.952, 15485.00
1443.998, 15370.00
1445.044, 15432.00
1446.090, 15407.00
1447.135, 15345.00
1448.181, 15453.00
1449.226, 15417.00
1450.271, 15461.00
1451.316, 15515.00
1452.361, 15570.00
1453.405, 15484.00
1454.450, 15743.00
1455.494, 15543.00
1456.538, 15616.00
1457.582, 15552.00
1458.626, 15678.00
1459.670, 15532.00
1460.713, 15511.00
1461.757, 15470.00
1462.800, 15450.00
1463.843, 15500.00
1464.886, 15604.00
1465.928, 15520.00
1466.971, 15562.97
1468.013, 15617.00
1469.055, 15468.00
1470.097, 15463.00
1471.139, 15283.00
1472.181, 15367.00
1473.222, 15434.00
1474.263, 15501.00
1475.305, 15577.56
1476.346, 15580.61
1477.386, 15660.00
1478.427, 15555.00
1479.468, 15449.00
1480.508, 15379.00
1481.548, 15409.00
1482.588, 15448.00
1483.628, 15385.00
1484.668, 15516.00
1485.707, 15486.00
1486.747, 15420.00
1487.786, 15485.00
1488.825, 15640.00
1489.864, 15517.00
1490.902, 15581.00
1491.941, 15607.00
1492.979, 15439.00
1494.017, 15467.00
1495.055, 15505.00
1496.093, 15354.00
1497.131, 15386.00
1498.168, 15516.00
1499.206, 15564.00
1500.243, 15580.00
1501.280, 15399.00
1502.317, 15562.00
1503.354, 15651.00
1504.390, 15475.00
1505.426, 15682.00
1506.463, 15632.00
1507.499, 15674.00
1508.535, 15556.00
1509.570, 15654.00
1510.606, 15583.00
1511.641, 15545.00
1512.676, 15798.00
1513.711, 15572.00
1514.746, 15737.00
1515.781, 15658.00
1516.816, 15649.00
1517.850, 15653.00
1518.884, 15706.00
1519.918, 15626.00
1520.952, 15692.00
1521.986, 15840.00
1523.019, 15841.00
1524.053, 15665.00
1525.086, 15783.00
1526.119, 15714.00
1527.152, 15773.00
1528.185, 15772.00
1529.217, 15841.00
1530.250, 15885.00
1531.282, 15757.00
1532.314, 15823.00
1533.346, 15923.00
1534.377, 15754.00
1535.409, 15757.00
1536.440, 15818.00
1537.472, 15832.00
1538.503, 15801.00
1539.534, 15797.00
1540.564, 15830.85
1541.595, 15843.11
1542.625, 15929.00
1543.656, 15912.00
1544.686, 16008.00
1545.716, 16035.00
1546.745, 15871.00
1547.775, 15962.00
1548.804, 15903.00
1549.834, 15863.00
1550.863, 15982.00
1551.892, 16041.00
1552.920, 16142.00
1553.949, 16221.00
1554.977, 16078.00
1556.006, 16120.00
1557.034, 16122.00
1558.062, 16009.00
1559.089, 16032.00
1560.117, 16082.00
1561.144, 16014.00
1562.172, 16075.00
1563.199, 16190.00
1564.226, 15947.00
1565.252, 15958.00
1566.279, 16158.00
1567.305, 16334.00
1568.332, 16288.00
1569.358, 16130.00
1570.384, 16464.00
##END=



