##NAMES=Albite
##RRUFFID=R050402
##IDEAL CHEMISTRY=NaAlSi_3_O_8_
##LOCALITY=Urbano mine, Golconda District, Brazil
##OWNER=RRUFF
##SOURCE=Bob Downs
##DESCRIPTION=Colorless tabular single crystals associated with fluorapatite R050401
##STATUS=The identification of this mineral has been confirmed by X-ray diffraction and chemical analysis
##URL=rruff.info/R050402
##MEASURED CHEMISTRY=Na_1.00_Al_1.00_Si_3.00_O_8_
##PIN_ID=M00171
##ORIENTATION=Laser parallel to (1 1 0). Fiducial mark perpendicular to laser is parallel to c [0 0 1]
81.13100, 4157.000
82.36700, 4589.000
83.60200, 5346.000
84.83700, 5877.000
86.07200, 6234.000
87.30800, 6337.000
88.54200, 6189.000
89.77700, 5899.000
91.01200, 5609.000
92.24600, 5236.000
93.48000, 4982.000
94.71400, 4774.000
95.94800, 4676.404
97.18200, 4676.000
98.41600, 4754.000
99.64900, 4859.000
100.8830, 5165.000
102.1160, 5427.000
103.3490, 5947.000
104.5820, 6349.000
105.8150, 6815.000
107.0470, 7274.000
108.2800, 7842.000
109.5120, 8706.000
110.7440, 9152.000
111.9760, 9319.000
113.2080, 9275.000
114.4400, 9047.000
115.6710, 8686.000
116.9030, 7929.000
118.1340, 7240.000
119.3650, 6509.000
120.5960, 5960.000
121.8270, 5576.000
123.0580, 5301.000
124.2880, 5205.000
125.5190, 5029.000
126.7490, 4987.000
127.9790, 5005.000
129.2090, 5068.000
130.4390, 5150.698
131.6680, 5235.000
132.8980, 5432.000
134.1270, 5562.000
135.3560, 5759.000
136.5850, 6058.000
137.8140, 6467.000
139.0430, 6852.000
140.2710, 7342.000
141.5000, 7822.000
142.7280, 8252.894
143.9560, 8909.000
145.1840, 9144.000
146.4120, 9595.000
147.6390, 10001.00
148.8670, 10218.00
150.0940, 10226.00
151.3210, 10506.00
152.5490, 10533.00
153.7750, 10719.00
155.0020, 11065.00
156.2290, 11299.00
157.4550, 11973.00
158.6810, 12634.00
159.9080, 13276.00
161.1340, 13570.51
162.3590, 13769.32
163.5850, 13866.00
164.8110, 13587.00
166.0360, 13310.00
167.2610, 12771.00
168.4860, 12525.00
169.7110, 12487.00
170.9360, 12615.00
172.1610, 12709.00
173.3850, 12636.00
174.6100, 12853.00
175.8340, 13127.00
177.0580, 13426.00
178.2820, 13910.00
179.5050, 14437.00
180.7290, 15058.00
181.9520, 15450.00
183.1760, 15815.00
184.3990, 16002.00
185.6220, 15816.00
186.8450, 15540.00
188.0670, 14837.00
189.2900, 14016.00
190.5120, 13207.00
191.7340, 12337.00
192.9560, 11584.00
194.1780, 11160.00
195.4000, 10623.00
196.6220, 10616.00
197.8430, 10474.00
199.0640, 10646.00
200.2860, 11127.00
201.5070, 11467.00
202.7270, 12109.00
203.9480, 12587.00
205.1690, 13288.00
206.3890, 13804.00
207.6090, 14022.00
208.8290, 13918.00
210.0490, 13403.00
211.2690, 12632.00
212.4890, 11541.00
213.7080, 10202.00
214.9280, 9083.000
216.1470, 7983.000
217.3660, 7082.000
218.5850, 6601.000
219.8030, 6088.000
221.0220, 5847.000
222.2400, 5682.000
223.4590, 5472.000
224.6770, 5408.000
225.8950, 5313.000
227.1120, 5230.000
228.3300, 5153.000
229.5480, 5192.000
230.7650, 5171.000
231.9820, 5100.000
233.1990, 5163.000
234.4160, 5315.000
235.6330, 5286.000
236.8490, 5294.000
238.0660, 5503.000
239.2820, 5745.000
240.4980, 6091.000
241.7140, 6344.000
242.9300, 6981.000
244.1460, 7607.000
245.3610, 7963.000
246.5770, 8648.000
247.7920, 9283.000
249.0070, 10051.00
250.2220, 10590.00
251.4370, 10666.00
252.6510, 10529.00
253.8660, 10089.00
255.0800, 9334.000
256.2940, 8619.000
257.5080, 8056.000
258.7220, 7730.000
259.9360, 7664.000
261.1490, 7805.000
262.3630, 7981.000
263.5760, 8047.000
264.7890, 8527.000
266.0020, 9079.000
267.2150, 9605.000
268.4270, 9866.000
269.6400, 10061.00
270.8520, 10098.00
272.0640, 10051.00
273.2760, 9964.000
274.4880, 9766.000
275.7000, 9784.000
276.9120, 10246.00
278.1230, 10946.00
279.3340, 12042.00
280.5450, 13701.00
281.7560, 15629.00
282.9670, 17739.00
284.1780, 20315.00
285.3880, 22788.00
286.5980, 25310.00
287.8090, 27766.00
289.0190, 29385.00
290.2290, 30424.00
291.4380, 29336.00
292.6480, 27467.00
293.8570, 24566.00
295.0670, 21040.00
296.2760, 17805.00
297.4850, 14944.00
298.6930, 12387.00
299.9020, 10793.00
301.1110, 9573.000
302.3190, 8782.000
303.5270, 8022.000
304.7350, 7618.000
305.9430, 7310.000
307.1510, 7141.000
308.3580, 6959.000
309.5660, 6835.000
310.7730, 6683.000
311.9800, 6541.000
313.1870, 6424.000
314.3940, 6383.000
315.6010, 6322.000
316.8070, 6290.000
318.0130, 6585.000
319.2200, 6931.000
320.4260, 7467.000
321.6310, 8009.000
322.8370, 8517.000
324.0430, 9104.000
325.2480, 9881.000
326.4540, 10485.00
327.6590, 10907.00
328.8640, 10902.00
330.0680, 10593.00
331.2730, 9823.000
332.4780, 9031.000
333.6820, 8103.000
334.8860, 7368.000
336.0900, 6806.000
337.2940, 6337.000
338.4980, 6094.000
339.7010, 5850.000
340.9050, 5647.000
342.1080, 5582.000
343.3110, 5524.000
344.5140, 5483.000
345.7170, 5434.000
346.9200, 5340.000
348.1220, 5454.000
349.3240, 5431.000
350.5270, 5392.000
351.7290, 5343.000
352.9310, 5312.000
354.1320, 5249.000
355.3340, 5205.000
356.5350, 5235.000
357.7370, 5154.000
358.9380, 5157.000
360.1390, 5098.000
361.3400, 5069.198
362.5400, 5041.000
363.7410, 5038.000
364.9410, 5016.000
366.1410, 5053.000
367.3410, 5051.000
368.5410, 5004.000
369.7410, 5045.000
370.9400, 5075.000
372.1400, 5073.000
373.3390, 5042.000
374.5380, 5063.000
375.7370, 5108.000
376.9360, 5024.000
378.1350, 5019.000
379.3330, 4945.000
380.5310, 5160.000
381.7300, 5162.000
382.9280, 5170.000
384.1260, 5172.000
385.3230, 5234.000
386.5210, 5241.000
387.7180, 5404.000
388.9160, 5458.000
390.1130, 5525.000
391.3100, 5746.000
392.5060, 5799.000
393.7030, 5973.000
394.9000, 6178.000
396.0960, 6285.000
397.2920, 6467.000
398.4880, 6753.000
399.6840, 6869.000
400.8800, 7023.000
402.0750, 7081.000
403.2710, 7317.000
404.4660, 7636.000
405.6610, 7919.000
406.8560, 8105.000
408.0510, 8210.000
409.2450, 8189.000
410.4400, 8014.000
411.6340, 7802.000
412.8280, 7790.000
414.0220, 7711.000
415.2160, 7687.000
416.4100, 7534.000
417.6030, 7329.000
418.7970, 7038.000
419.9900, 6669.000
421.1830, 6246.000
422.3760, 6072.000
423.5690, 5841.000
424.7610, 5663.000
425.9540, 5645.000
427.1460, 5597.000
428.3380, 5542.000
429.5300, 5596.000
430.7220, 5513.000
431.9140, 5536.000
433.1050, 5547.000
434.2970, 5508.000
435.4880, 5575.000
436.6790, 5677.000
437.8700, 5597.000
439.0610, 5700.000
440.2510, 5611.000
441.4420, 5672.000
442.6320, 5795.000
443.8220, 5873.000
445.0120, 5988.422
446.2020, 6016.000
447.3910, 6219.000
448.5810, 6259.000
449.7700, 6354.000
450.9600, 6529.000
452.1490, 6776.000
453.3370, 6897.000
454.5260, 7112.000
455.7150, 7208.000
456.9030, 7426.000
458.0910, 7629.000
459.2800, 7686.000
460.4670, 7704.000
461.6550, 8036.000
462.8430, 8306.000
464.0300, 8906.000
465.2180, 9519.000
466.4050, 10373.00
467.5920, 11759.00
468.7790, 13527.00
469.9650, 15913.00
471.1520, 18684.00
472.3380, 21583.00
473.5250, 25036.00
474.7110, 28270.00
475.8970, 31788.00
477.0820, 34200.00
478.2680, 35309.00
479.4540, 34531.00
480.6390, 32302.00
481.8240, 28736.00
483.0090, 24819.00
484.1940, 20987.00
485.3780, 17643.00
486.5630, 15470.00
487.7470, 13882.00
488.9320, 12725.00
490.1160, 12315.00
491.3000, 12141.00
492.4830, 12794.00
493.6670, 13411.00
494.8500, 14623.00
496.0340, 16284.00
497.2170, 19001.00
498.4000, 22685.00
499.5820, 27084.00
500.7650, 32056.00
501.9480, 37594.00
503.1300, 43095.00
504.3120, 48335.00
505.4940, 53155.00
506.6760, 54899.00
507.8580, 54206.00
509.0390, 50404.00
510.2210, 44675.00
511.4020, 37926.00
512.5830, 31434.00
513.7640, 25609.00
514.9450, 21239.00
516.1250, 18006.00
517.3060, 15430.00
518.4860, 13646.00
519.6660, 12247.00
520.8460, 11376.00
522.0260, 10616.00
523.2060, 10001.00
524.3850, 9487.000
525.5650, 9053.000
526.7440, 8763.000
527.9230, 8388.000
529.1020, 8358.000
530.2810, 8024.000
531.4590, 7971.000
532.6380, 7742.000
533.8160, 7573.000
534.9940, 7463.000
536.1720, 7392.000
537.3500, 7180.000
538.5270, 7256.000
539.7050, 7128.000
540.8820, 7086.000
542.0590, 6947.000
543.2360, 6906.000
544.4130, 6914.000
545.5900, 6742.000
546.7660, 6812.000
547.9430, 6785.000
549.1190, 6737.000
550.2950, 6753.000
551.4710, 6700.356
552.6470, 6703.504
553.8220, 6623.000
554.9980, 6679.000
556.1730, 6639.000
557.3480, 6582.000
558.5230, 6614.000
559.6980, 6532.000
560.8730, 6615.000
562.0470, 6632.000
563.2220, 6652.000
564.3960, 6580.000
565.5700, 6627.000
566.7440, 6681.000
567.9170, 6849.000
569.0910, 6808.000
570.2640, 6876.000
571.4380, 7062.000
572.6110, 7114.000
573.7840, 7273.000
574.9570, 7352.000
576.1290, 7525.000
577.3020, 7690.000
578.4740, 7676.000
579.6460, 7621.000
580.8180, 7359.000
581.9900, 7388.000
583.1620, 7133.000
584.3330, 7027.000
585.5040, 6871.000
586.6760, 6743.000
587.8470, 6686.000
589.0180, 6642.000
590.1880, 6584.000
591.3590, 6538.000
592.5290, 6387.000
593.7000, 6397.000
594.8700, 6377.000
596.0400, 6436.000
597.2090, 6428.000
598.3790, 6440.896
599.5490, 6396.000
600.7180, 6477.000
601.8870, 6444.000
603.0560, 6499.000
604.2250, 6528.000
605.3940, 6576.000
606.5620, 6544.771
607.7300, 6497.000
608.8990, 6454.000
610.0670, 6572.000
611.2350, 6519.000
612.4020, 6525.000
613.5700, 6663.000
614.7370, 6716.000
615.9050, 6617.000
617.0720, 6707.000
618.2390, 6785.000
619.4060, 6839.000
620.5720, 6867.000
621.7390, 6904.000
622.9050, 7031.000
624.0710, 7109.000
625.2370, 7179.000
626.4030, 7322.000
627.5690, 7423.000
628.7340, 7545.000
629.9000, 7665.000
631.0650, 7737.000
632.2300, 7727.000
633.3950, 7809.000
634.5600, 7758.000
635.7240, 7697.000
636.8890, 7680.000
638.0530, 7763.000
639.2170, 7721.000
640.3810, 7787.000
641.5450, 7938.000
642.7080, 8083.000
643.8720, 8120.000
645.0350, 8246.000
646.1980, 8160.000
647.3610, 8131.000
648.5240, 7929.000
649.6870, 7961.000
650.8490, 7750.000
652.0120, 7564.000
653.1740, 7427.000
654.3360, 7188.000
655.4980, 7163.000
656.6600, 6971.000
657.8210, 6813.000
658.9830, 6869.000
660.1440, 6870.000
661.3050, 6755.000
662.4660, 6761.000
663.6270, 6750.000
664.7870, 6713.000
665.9480, 6668.000
667.1080, 6678.000
668.2680, 6686.000
669.4280, 6603.000
670.5880, 6725.000
671.7480, 6658.000
672.9070, 6714.000
674.0670, 6688.000
675.2260, 6699.000
676.3850, 6648.000
677.5440, 6647.928
678.7030, 6665.000
679.8610, 6628.000
681.0200, 6674.000
682.1780, 6678.000
683.3360, 6621.000
684.4940, 6650.000
685.6520, 6722.000
686.8090, 6679.000
687.9670, 6664.000
689.1240, 6560.000
690.2810, 6654.000
691.4380, 6660.000
692.5950, 6673.000
693.7520, 6798.000
694.9080, 6718.000
696.0650, 6783.000
697.2210, 6729.000
698.3770, 6767.000
699.5330, 6687.000
700.6880, 6755.000
701.8440, 6659.000
702.9990, 6711.000
704.1550, 6801.000
705.3100, 6724.000
706.4650, 6830.000
707.6190, 6767.000
708.7740, 6798.000
709.9290, 6883.000
711.0830, 6908.000
712.2370, 6973.000
713.3910, 6844.000
714.5450, 6878.000
715.6980, 6856.000
716.8520, 7027.000
718.0050, 7000.000
719.1580, 7010.000
720.3110, 7067.000
721.4640, 6992.000
722.6170, 7168.000
723.7700, 7086.000
724.9220, 6974.000
726.0740, 6995.000
727.2260, 7073.000
728.3780, 7051.000
729.5300, 7082.942
730.6810, 7114.000
731.8330, 7083.000
732.9840, 7098.000
734.1350, 7064.000
735.2860, 7141.000
736.4370, 7133.000
737.5880, 7122.000
738.7380, 7182.000
739.8880, 7144.000
741.0390, 7303.000
742.1890, 7276.000
743.3380, 7310.000
744.4880, 7399.000
745.6380, 7260.000
746.7870, 7437.000
747.9360, 7436.000
749.0850, 7567.000
750.2340, 7756.000
751.3830, 7760.000
752.5310, 8106.000
753.6800, 8331.000
754.8280, 8624.000
755.9760, 9071.000
757.1240, 9552.000
758.2720, 10292.00
759.4190, 10856.00
760.5670, 11337.00
761.7140, 11833.00
762.8610, 11978.00
764.0080, 12040.00
765.1550, 11725.00
766.3020, 11004.00
767.4480, 10529.00
768.5950, 9867.000
769.7410, 9385.000
770.8870, 9066.000
772.0330, 8744.000
773.1780, 8681.000
774.3240, 8499.000
775.4690, 8512.000
776.6140, 8315.000
777.7590, 8245.000
778.9040, 7980.000
780.0490, 7824.000
781.1940, 7705.000
782.3380, 7734.000
783.4820, 7823.000
784.6260, 7728.000
785.7700, 7654.000
786.9140, 7601.000
788.0580, 7631.000
789.2010, 7586.000
790.3450, 7451.000
791.4880, 7626.000
792.6310, 7523.000
793.7730, 7638.000
794.9160, 7701.000
796.0590, 7654.000
797.2010, 7695.000
798.3430, 7780.000
799.4850, 7705.000
800.6270, 7905.000
801.7690, 7844.000
802.9100, 7996.000
804.0520, 7982.000
805.1930, 8220.000
806.3340, 8413.000
807.4750, 8706.000
808.6160, 9009.000
809.7560, 9424.000
810.8970, 9683.000
812.0370, 10055.00
813.1770, 10375.00
814.3170, 10565.00
815.4570, 10657.00
816.5960, 10426.00
817.7360, 9997.000
818.8750, 9608.000
820.0140, 9261.000
821.1530, 8863.000
822.2920, 8480.000
823.4310, 8381.000
824.5690, 8216.000
825.7070, 8091.000
826.8460, 8088.000
827.9840, 8034.000
829.1220, 8031.000
830.2590, 8008.000
831.3970, 7924.000
832.5340, 7872.000
833.6710, 7803.000
834.8080, 7796.418
835.9450, 7854.000
837.0820, 7805.000
838.2190, 7874.000
839.3550, 7887.000
840.4910, 7820.000
841.6270, 7909.000
842.7630, 7914.000
843.8990, 7942.000
845.0350, 7744.000
846.1700, 7815.000
847.3060, 7796.000
848.4410, 7768.000
849.5760, 7824.000
850.7100, 7784.277
851.8450, 7777.000
852.9800, 7741.000
854.1140, 7836.000
855.2480, 7787.000
856.3820, 7849.000
857.5160, 7727.000
858.6500, 7895.000
859.7830, 8020.000
860.9170, 7960.000
862.0500, 7786.000
863.1830, 7931.000
864.3160, 7922.000
865.4480, 7890.000
866.5810, 7850.000
867.7130, 7948.000
868.8460, 7846.000
869.9780, 7732.000
871.1100, 7800.000
872.2410, 7840.000
873.3730, 7987.000
874.5050, 7902.000
875.6360, 7910.000
876.7670, 7876.000
877.8980, 7849.000
879.0290, 7895.000
880.1590, 7905.000
881.2900, 7935.000
882.4200, 7952.000
883.5500, 7902.000
884.6800, 7938.000
885.8100, 7948.169
886.9400, 7981.000
888.0690, 7996.000
889.1990, 7958.000
890.3280, 7962.000
891.4570, 7863.000
892.5860, 7919.000
893.7140, 7918.000
894.8430, 8102.000
895.9710, 8046.000
897.1000, 8078.000
898.2280, 8024.000
899.3560, 7940.000
900.4830, 8076.000
901.6110, 8136.000
902.7380, 8051.000
903.8660, 8110.000
904.9930, 8125.000
906.1200, 8138.000
907.2460, 8189.000
908.3730, 8178.000
909.5000, 8147.000
910.6260, 8117.000
911.7520, 8172.000
912.8780, 8230.000
914.0040, 8080.000
915.1290, 8175.000
916.2550, 8247.000
917.3800, 8214.000
918.5050, 8305.000
919.6300, 8188.000
920.7550, 8202.000
921.8800, 8301.000
923.0040, 8078.000
924.1290, 8256.000
925.2530, 8187.000
926.3770, 8183.000
927.5010, 8271.000
928.6250, 8197.000
929.7480, 8175.000
930.8720, 8285.000
931.9950, 8257.000
933.1180, 8292.000
934.2410, 8317.000
935.3640, 8301.000
936.4860, 8297.000
937.6090, 8375.000
938.7310, 8313.000
939.8530, 8299.000
940.9750, 8450.000
942.0970, 8333.000
943.2180, 8412.000
944.3400, 8454.000
945.4610, 8423.000
946.5820, 8422.000
947.7030, 8447.000
948.8240, 8446.000
949.9450, 8473.000
951.0650, 8479.000
952.1860, 8498.000
953.3060, 8388.000
954.4260, 8611.000
955.5460, 8519.000
956.6650, 8714.000
957.7850, 8671.000
958.9040, 8799.000
960.0230, 8831.000
961.1420, 8825.000
962.2610, 8720.000
963.3800, 8843.000
964.4990, 8851.000
965.6170, 8850.000
966.7350, 8930.000
967.8530, 9005.000
968.9710, 9148.000
970.0890, 9373.000
971.2070, 9418.000
972.3240, 9546.000
973.4410, 9866.000
974.5580, 9830.000
975.6750, 10031.00
976.7920, 10186.00
977.9090, 10319.00
979.0250, 10362.00
980.1410, 10013.00
981.2580, 9997.000
982.3740, 9813.000
983.4890, 9632.000
984.6050, 9397.000
985.7200, 9437.000
986.8360, 9322.000
987.9510, 9187.000
989.0660, 9069.000
990.1810, 9144.000
991.2950, 9127.000
992.4100, 9187.000
993.5240, 9177.000
994.6390, 9057.000
995.7530, 9187.000
996.8660, 9162.000
997.9800, 9261.000
999.0940, 9250.000
1000.207, 9510.000
1001.320, 9699.000
1002.433, 9879.000
1003.546, 9853.000
1004.659, 9956.000
1005.772, 10089.00
1006.884, 10032.00
1007.996, 10278.00
1009.108, 10189.00
1010.220, 10215.00
1011.332, 10160.00
1012.444, 10333.00
1013.555, 10439.00
1014.666, 10413.00
1015.777, 10441.00
1016.888, 10344.00
1017.999, 10094.00
1019.110, 10109.00
1020.220, 9968.000
1021.331, 9935.000
1022.441, 9995.000
1023.551, 10048.00
1024.661, 10200.00
1025.770, 10209.00
1026.880, 10326.00
1027.989, 10478.00
1029.098, 10816.00
1030.207, 10946.00
1031.316, 11082.00
1032.425, 11097.00
1033.533, 10931.00
1034.642, 10882.00
1035.750, 10773.00
1036.858, 10476.00
1037.966, 10334.00
1039.073, 10237.00
1040.181, 10075.00
1041.288, 9931.000
1042.396, 9944.000
1043.503, 9794.000
1044.610, 9770.000
1045.716, 9826.000
1046.823, 9762.000
1047.929, 9604.000
1049.036, 9720.000
1050.142, 9642.000
1051.248, 9459.000
1052.353, 9559.000
1053.459, 9495.000
1054.564, 9428.000
1055.670, 9482.000
1056.775, 9571.000
1057.880, 9343.000
1058.985, 9456.000
1060.089, 9362.000
1061.194, 9417.000
1062.298, 9452.000
1063.402, 9295.000
1064.506, 9455.000
1065.610, 9542.000
1066.713, 9402.000
1067.817, 9326.000
1068.920, 9623.000
1070.023, 9535.000
1071.126, 9654.000
1072.229, 9580.000
1073.332, 9635.000
1074.435, 9735.000
1075.537, 9727.000
1076.639, 9706.000
1077.741, 9898.000
1078.843, 9991.000
1079.945, 10107.00
1081.046, 10077.00
1082.148, 10215.00
1083.249, 10346.00
1084.350, 10607.00
1085.451, 10770.00
1086.551, 10975.00
1087.652, 11082.00
1088.752, 11424.00
1089.853, 11845.00
1090.953, 12365.00
1092.053, 12942.00
1093.152, 13430.00
1094.252, 14162.00
1095.351, 14911.00
1096.451, 15515.00
1097.550, 16262.00
1098.649, 16562.00
1099.748, 16696.00
1100.846, 16707.00
1101.945, 15972.00
1103.043, 15765.00
1104.141, 15089.00
1105.239, 14675.00
1106.337, 14196.00
1107.434, 13836.00
1108.532, 13572.00
1109.629, 13268.00
1110.726, 13269.00
1111.823, 13107.00
1112.920, 12998.00
1114.017, 13072.00
1115.113, 12896.00
1116.210, 12795.00
1117.306, 12724.00
1118.402, 12406.00
1119.498, 12249.31
1120.593, 12209.00
1121.689, 11722.00
1122.784, 11422.00
1123.879, 11091.00
1124.974, 10924.00
1126.069, 10889.00
1127.164, 10633.00
1128.259, 10534.00
1129.353, 10364.00
1130.447, 10282.00
1131.541, 10117.00
1132.635, 10082.00
1133.729, 10134.00
1134.822, 10046.57
1135.916, 10029.53
1137.009, 10006.00
1138.102, 9926.000
1139.195, 9893.000
1140.288, 9828.000
1141.380, 9809.073
1142.473, 9807.325
1143.565, 9806.000
1144.657, 9853.000
1145.749, 9907.000
1146.841, 9977.000
1147.932, 9987.762
1149.024, 9889.000
1150.115, 10007.00
1151.206, 10023.00
1152.297, 10016.00
1153.388, 10157.00
1154.479, 9994.000
1155.569, 9866.000
1156.659, 9928.000
1157.750, 9887.000
1158.839, 9906.000
1159.929, 9798.000
1161.019, 9801.000
1162.108, 9761.000
1163.198, 9955.000
1164.287, 9752.000
1165.376, 9840.000
1166.465, 9703.000
1167.553, 9828.000
1168.642, 9750.000
1169.730, 9863.000
1170.818, 9785.000
1171.906, 9833.000
1172.994, 9771.000
1174.082, 9868.000
1175.170, 9835.000
1176.257, 9730.000
1177.344, 9857.000
1178.431, 9727.000
1179.518, 9738.000
1180.605, 9876.000
1181.691, 9953.000
1182.778, 9732.000
1183.864, 9741.000
1184.950, 9713.000
1186.036, 9931.000
1187.122, 9830.000
1188.207, 9832.000
1189.292, 9647.000
1190.378, 9783.000
1191.463, 9933.000
1192.548, 9885.000
1193.632, 9906.000
1194.717, 9948.000
1195.801, 9910.000
1196.886, 9995.000
1197.970, 9966.000
1199.054, 9922.000
1200.137, 9847.000
1201.221, 9893.000
1202.305, 9793.000
1203.388, 9865.000
1204.471, 9972.000
1205.554, 9888.000
1206.637, 9893.000
1207.719, 9876.000
1208.802, 9864.000
1209.884, 9980.000
1210.966, 9970.000
1212.048, 9991.000
1213.130, 10120.00
1214.212, 10022.00
1215.293, 9936.000
1216.374, 10071.00
1217.456, 10081.00
1218.536, 9957.000
1219.617, 10033.00
1220.698, 10051.00
1221.778, 10021.00
1222.859, 10178.00
1223.939, 10129.00
1225.019, 10106.00
1226.099, 10090.00
1227.178, 10000.00
1228.258, 10194.00
1229.337, 10043.00
1230.417, 10018.00
1231.496, 10164.00
1232.574, 10174.00
1233.653, 10175.00
1234.732, 10144.00
1235.810, 10238.00
1236.888, 10101.00
1237.966, 10104.00
1239.044, 10229.00
1240.122, 10151.00
1241.199, 10205.00
1242.277, 10210.00
1243.354, 10288.00
1244.431, 10204.00
1245.508, 10150.00
1246.585, 10224.00
1247.661, 10239.00
1248.738, 10230.00
1249.814, 10281.00
1250.890, 10196.00
1251.966, 10358.00
1253.042, 10238.00
1254.117, 10293.00
1255.193, 10209.00
1256.268, 10297.00
1257.343, 10325.00
1258.418, 10289.00
1259.493, 10433.00
1260.567, 10422.00
1261.642, 10297.00
1262.716, 10363.00
1263.790, 10344.85
1264.864, 10371.00
1265.938, 10392.00
1267.011, 10374.75
1268.085, 10387.17
1269.158, 10349.00
1270.231, 10379.00
1271.304, 10356.64
1272.377, 10353.00
1273.450, 10371.00
1274.522, 10382.00
1275.594, 10407.00
1276.666, 10475.00
1277.738, 10454.00
1278.810, 10446.00
1279.882, 10530.00
1280.953, 10525.00
1282.025, 10501.00
1283.096, 10375.00
1284.167, 10482.00
1285.238, 10420.00
1286.308, 10407.00
1287.379, 10535.00
1288.449, 10593.00
1289.519, 10502.00
1290.589, 10455.00
1291.659, 10402.00
1292.729, 10490.00
1293.798, 10501.00
1294.868, 10521.96
1295.937, 10459.00
1297.006, 10563.00
1298.075, 10609.00
1299.143, 10586.00
1300.212, 10649.68
1301.280, 10706.00
1302.348, 10696.00
1303.416, 10751.00
1304.484, 10786.03
1305.552, 10537.00
1306.620, 10734.00
1307.687, 10665.00
1308.754, 10578.00
1309.821, 10711.00
1310.888, 10729.00
1311.955, 10772.00
1313.021, 10857.00
1314.088, 10837.21
1315.154, 10681.00
1316.220, 10818.00
1317.286, 10769.00
1318.352, 10731.00
1319.417, 10830.00
1320.483, 10681.00
1321.548, 10842.00
1322.613, 10809.00
1323.678, 10726.00
1324.743, 10759.00
1325.807, 10654.00
1326.872, 10727.00
1327.936, 10609.00
1329.000, 10850.00
1330.064, 10810.00
1331.128, 10667.00
1332.191, 10642.00
1333.255, 10825.00
1334.318, 10579.00
1335.381, 10753.00
1336.444, 10684.00
1337.507, 10713.00
1338.569, 10723.00
1339.632, 10689.00
1340.694, 10719.00
1341.756, 10675.00
1342.818, 10705.00
1343.880, 10729.00
1344.941, 10816.00
1346.003, 10802.00
1347.064, 10775.00
1348.125, 10810.93
1349.186, 10810.00
1350.247, 10835.00
1351.308, 10751.00
1352.368, 10791.00
1353.428, 10771.00
1354.489, 10820.00
1355.549, 10853.00
1356.608, 10837.00
1357.668, 10740.00
1358.727, 10908.00
1359.787, 10801.00
1360.846, 10857.00
1361.905, 10989.00
1362.964, 10909.00
1364.022, 10984.00
1365.081, 10930.00
1366.139, 10914.00
1367.197, 10915.00
1368.255, 10865.00
1369.313, 10811.00
1370.371, 10871.00
1371.428, 10898.00
1372.486, 10826.00
1373.543, 11064.00
1374.600, 10821.00
1375.657, 10853.00
1376.713, 11030.00
1377.770, 10857.00
1378.826, 11012.00
1379.882, 10912.00
1380.938, 10962.00
1381.994, 10955.00
1383.050, 10960.00
1384.106, 10885.00
1385.161, 10964.00
1386.216, 10964.00
1387.271, 11009.00
1388.326, 10947.00
1389.381, 11011.00
1390.435, 11000.00
1391.490, 10953.00
1392.544, 11002.00
1393.598, 10974.00
1394.652, 11127.00
1395.705, 10973.00
1396.759, 10966.00
1397.812, 10969.00
1398.866, 11116.00
1399.919, 11010.00
1400.972, 11040.00
1402.024, 10984.00
1403.077, 11071.00
1404.129, 11094.00
1405.181, 11028.00
1406.233, 11109.00
1407.285, 11224.00
1408.337, 11085.00
1409.389, 11213.00
1410.440, 11099.00
1411.491, 11157.00
1412.542, 11025.00
1413.593, 11083.00
1414.644, 11049.00
1415.695, 11109.00
1416.745, 11194.00
1417.795, 11274.00
1418.845, 11298.00
1419.895, 11241.00
1420.945, 11142.00
1421.995, 11206.00
1423.044, 11291.00
1424.093, 11172.00
1425.142, 11094.00
1426.191, 11284.00
1427.240, 11245.00
1428.289, 11172.00
1429.337, 11229.00
1430.385, 11274.00
1431.433, 11287.00
1432.481, 11235.00
1433.529, 11332.00
1434.577, 11364.00
1435.624, 11245.00
1436.672, 11315.00
1437.719, 11338.00
1438.766, 11405.00
1439.812, 11419.00
1440.859, 11411.00
1441.905, 11470.00
1442.952, 11520.00
1443.998, 11568.00
1445.044, 11553.00
1446.090, 11528.00
1447.135, 11506.00
1448.181, 11606.00
1449.226, 11571.00
1450.271, 11606.14
1451.316, 11646.00
1452.361, 11601.00
1453.405, 11656.00
1454.450, 11570.00
1455.494, 11596.00
1456.538, 11595.00
1457.582, 11705.00
1458.626, 11547.00
1459.670, 11688.00
1460.713, 11630.00
1461.757, 11659.00
1462.800, 11530.00
1463.843, 11566.00
1464.886, 11593.00
1465.928, 11565.00
1466.971, 11517.00
1468.013, 11618.00
1469.055, 11629.00
1470.097, 11624.00
1471.139, 11501.00
1472.181, 11508.00
1473.222, 11533.00
1474.263, 11479.00
1475.305, 11556.00
1476.346, 11704.00
1477.386, 11516.00
1478.427, 11503.00
1479.468, 11668.00
1480.508, 11577.00
1481.548, 11517.00
1482.588, 11537.00
1483.628, 11612.00
1484.668, 11571.00
1485.707, 11672.00
1486.747, 11661.00
1487.786, 11591.00
1488.825, 11621.00
1489.864, 11627.00
1490.902, 11541.00
1491.941, 11531.00
1492.979, 11667.00
1494.017, 11443.00
1495.055, 11637.00
1496.093, 11521.00
1497.131, 11473.00
1498.168, 11568.00
1499.206, 11642.00
1500.243, 11497.00
1501.280, 11769.00
1502.317, 11600.00
1503.354, 11719.00
1504.390, 11605.00
1505.426, 11747.00
1506.463, 11599.00
1507.499, 11723.00
1508.535, 11726.00
1509.570, 11594.00
1510.606, 11627.00
1511.641, 11732.00
1512.676, 11839.00
1513.711, 11682.00
1514.746, 11699.00
1515.781, 11675.00
1516.816, 11734.00
1517.850, 11815.00
1518.884, 11697.00
1519.918, 11856.00
1520.952, 11764.00
1521.986, 11805.00
1523.019, 11736.00
1524.053, 11811.00
1525.086, 11808.00
1526.119, 11727.00
1527.152, 11796.00
1528.185, 11833.00
1529.217, 11942.00
1530.250, 11794.00
1531.282, 11820.00
1532.314, 11911.00
1533.346, 11892.00
1534.377, 11932.00
1535.409, 11906.00
1536.440, 11937.00
1537.472, 12034.00
1538.503, 12025.00
1539.534, 11895.00
1540.564, 11982.00
1541.595, 11915.00
1542.625, 11941.96
1543.656, 11900.00
1544.686, 12021.00
1545.716, 12054.00
1546.745, 12114.00
1547.775, 11911.00
1548.804, 11878.00
1549.834, 12060.00
1550.863, 11902.00
1551.892, 12002.00
1552.920, 12059.00
1553.949, 12067.00
1554.977, 12221.00
1556.006, 12093.00
1557.034, 11954.00
1558.062, 11887.00
1559.089, 11986.00
1560.117, 11945.00
1561.144, 12044.00
1562.172, 12058.00
1563.199, 12037.00
1564.226, 12007.00
1565.252, 12075.00
1566.279, 12132.00
1567.305, 12089.00
1568.332, 12105.00
1569.358, 12240.00
1570.384, 12222.00
##END=



