##NAMES=Albite
##RRUFFID=R050253
##IDEAL CHEMISTRY=NaAlSi_3_O_8_
##LOCALITY=Madawaska/Faraday mine, Bancroft, Ontario, Canada
##OWNER=RRUFF
##SOURCE=Marcus Origlieri
##DESCRIPTION=Colorless to brown prismatic single crystals
##STATUS=The identification of this mineral has been confirmed by X-ray diffraction and chemical analysis
##URL=rruff.info/R050253
##MEASURED CHEMISTRY=(Na_0.99_Ca_0.01_)Al_1.00_(Si_0.99_Al_0.01_)_3_O_8_
##PIN_ID=L01944
##ORIENTATION=Laser parallel to (0 -1 -1). Fiducial mark perpendicular to laser is parallel to a [1 0 0]
94.71400, 13411.00
95.94800, 13772.00
97.18200, 13869.00
98.41600, 13798.00
99.64900, 14083.00
100.8830, 14151.00
102.1160, 14230.00
103.3490, 14266.00
104.5820, 14800.00
105.8150, 15169.00
107.0470, 15942.00
108.2800, 16590.00
109.5120, 16808.54
110.7440, 17925.00
111.9760, 17263.00
113.2080, 17413.00
114.4400, 17592.00
115.6710, 18555.00
116.9030, 18225.00
118.1340, 17411.00
119.3650, 16862.00
120.5960, 16427.00
121.8270, 16063.00
123.0580, 15873.00
124.2880, 15750.00
125.5190, 15420.00
126.7490, 15419.00
127.9790, 15350.00
129.2090, 15550.00
130.4390, 15497.00
131.6680, 15606.00
132.8980, 15516.00
134.1270, 15632.00
135.3560, 15593.00
136.5850, 15516.00
137.8140, 15866.00
139.0430, 16072.00
140.2710, 16238.00
141.5000, 16208.00
142.7280, 16271.00
143.9560, 16537.00
145.1840, 16632.00
146.4120, 16780.00
147.6390, 17121.00
148.8670, 17489.00
150.0940, 17914.00
151.3210, 18289.00
152.5490, 18565.15
153.7750, 19094.00
155.0020, 18970.00
156.2290, 18977.00
157.4550, 18921.00
158.6810, 19381.00
159.9080, 19722.00
161.1340, 20315.00
162.3590, 20755.00
163.5850, 21503.00
164.8110, 21702.00
166.0360, 21746.00
167.2610, 21228.00
168.4860, 20424.00
169.7110, 20069.00
170.9360, 19575.00
172.1610, 19494.00
173.3850, 19139.00
174.6100, 18857.00
175.8340, 18672.00
177.0580, 18268.00
178.2820, 18433.00
179.5050, 18354.00
180.7290, 18384.00
181.9520, 18692.00
183.1760, 18821.00
184.3990, 19130.00
185.6220, 19386.00
186.8450, 19485.00
188.0670, 19626.00
189.2900, 19865.00
190.5120, 19756.00
191.7340, 19883.00
192.9560, 20021.00
194.1780, 19779.00
195.4000, 19453.00
196.6220, 19726.00
197.8430, 19415.00
199.0640, 19300.00
200.2860, 19164.00
201.5070, 19453.00
202.7270, 19322.85
203.9480, 19840.00
205.1690, 19379.00
206.3890, 19235.00
207.6090, 19280.00
208.8290, 19721.00
210.0490, 20045.00
211.2690, 20021.00
212.4890, 19982.00
213.7080, 19479.00
214.9280, 18998.00
216.1470, 18243.00
217.3660, 17990.00
218.5850, 17726.00
219.8030, 17525.00
221.0220, 17373.00
222.2400, 17530.00
223.4590, 17408.00
224.6770, 17197.00
225.8950, 17400.00
227.1120, 17242.00
228.3300, 17107.00
229.5480, 17239.00
230.7650, 17117.00
231.9820, 17314.00
233.1990, 17244.00
234.4160, 17214.00
235.6330, 17288.00
236.8490, 17334.00
238.0660, 17336.00
239.2820, 17424.00
240.4980, 17465.00
241.7140, 17563.68
242.9300, 17549.00
244.1460, 17823.00
245.3610, 17908.00
246.5770, 18114.00
247.7920, 18405.00
249.0070, 18517.00
250.2220, 18872.00
251.4370, 19022.00
252.6510, 19409.00
253.8660, 19555.00
255.0800, 19627.00
256.2940, 19178.00
257.5080, 19075.00
258.7220, 19000.00
259.9360, 18949.00
261.1490, 19005.98
262.3630, 19301.00
263.5760, 19268.00
264.7890, 19840.00
266.0020, 20179.00
267.2150, 20665.00
268.4270, 21409.00
269.6400, 21753.00
270.8520, 22290.00
272.0640, 22527.00
273.2760, 22278.00
274.4880, 21911.00
275.7000, 21146.00
276.9120, 20965.00
278.1230, 20845.00
279.3340, 20647.00
280.5450, 20830.11
281.7560, 21029.00
282.9670, 21431.00
284.1780, 22045.00
285.3880, 22754.00
286.5980, 23989.00
287.8090, 25198.00
289.0190, 26440.00
290.2290, 28288.00
291.4380, 29255.00
292.6480, 29793.00
293.8570, 29358.00
295.0670, 27641.00
296.2760, 26213.00
297.4850, 24310.00
298.6930, 23189.00
299.9020, 21925.00
301.1110, 21203.00
302.3190, 20726.00
303.5270, 20349.00
304.7350, 19977.95
305.9430, 19778.00
307.1510, 19620.00
308.3580, 19631.00
309.5660, 19730.00
310.7730, 19499.00
311.9800, 19716.00
313.1870, 19573.00
314.3940, 19491.00
315.6010, 19247.00
316.8070, 19493.00
318.0130, 19124.00
319.2200, 19349.00
320.4260, 19444.00
321.6310, 19283.00
322.8370, 19343.00
324.0430, 19158.00
325.2480, 19455.00
326.4540, 19566.00
327.6590, 19692.00
328.8640, 19895.00
330.0680, 19832.00
331.2730, 19918.00
332.4780, 19799.00
333.6820, 19516.00
334.8860, 19397.00
336.0900, 19198.00
337.2940, 19179.52
338.4980, 19259.00
339.7010, 19256.00
340.9050, 19307.00
342.1080, 19429.00
343.3110, 19494.00
344.5140, 19385.00
345.7170, 19147.00
346.9200, 19302.00
348.1220, 19330.00
349.3240, 19288.00
350.5270, 19503.00
351.7290, 19517.00
352.9310, 19448.00
354.1320, 19463.00
355.3340, 19482.16
356.5350, 19565.00
357.7370, 19551.00
358.9380, 19688.00
360.1390, 19734.00
361.3400, 19553.00
362.5400, 19622.00
363.7410, 19661.00
364.9410, 19861.00
366.1410, 19670.00
367.3410, 19739.00
368.5410, 19718.00
369.7410, 19596.00
370.9400, 19982.00
372.1400, 20003.00
373.3390, 20021.00
374.5380, 19806.00
375.7370, 19888.00
376.9360, 19842.00
378.1350, 19930.00
379.3330, 19895.00
380.5310, 20062.00
381.7300, 19964.00
382.9280, 20017.00
384.1260, 19944.00
385.3230, 20017.00
386.5210, 20109.00
387.7180, 20113.00
388.9160, 20226.00
390.1130, 20225.00
391.3100, 20408.00
392.5060, 20310.00
393.7030, 20324.00
394.9000, 20325.00
396.0960, 20575.00
397.2920, 20832.00
398.4880, 20760.00
399.6840, 20645.00
400.8800, 21070.00
402.0750, 21120.00
403.2710, 21175.00
404.4660, 21386.00
405.6610, 22124.00
406.8560, 22480.00
408.0510, 23123.00
409.2450, 23282.00
410.4400, 23526.00
411.6340, 22973.00
412.8280, 22699.00
414.0220, 22352.00
415.2160, 22480.00
416.4100, 22701.00
417.6030, 22799.00
418.7970, 22797.00
419.9900, 22714.00
421.1830, 22141.00
422.3760, 21812.00
423.5690, 21670.00
424.7610, 21103.00
425.9540, 21242.00
427.1460, 21249.00
428.3380, 21090.00
429.5300, 21270.00
430.7220, 21389.00
431.9140, 21330.00
433.1050, 21338.00
434.2970, 21141.00
435.4880, 21439.00
436.6790, 21225.00
437.8700, 21211.00
439.0610, 21408.00
440.2510, 21503.00
441.4420, 21426.00
442.6320, 21444.00
443.8220, 21487.70
445.0120, 21443.00
446.2020, 21588.00
447.3910, 21645.00
448.5810, 21754.00
449.7700, 21856.00
450.9600, 21895.00
452.1490, 21947.00
453.3370, 22092.00
454.5260, 22064.00
455.7150, 22456.00
456.9030, 22466.00
458.0910, 22515.00
459.2800, 22773.00
460.4670, 22730.00
461.6550, 22936.00
462.8430, 23053.00
464.0300, 23319.00
465.2180, 23744.00
466.4050, 24327.00
467.5920, 24748.00
468.7790, 25370.00
469.9650, 26166.00
471.1520, 27577.00
472.3380, 29081.00
473.5250, 31236.00
474.7110, 34036.00
475.8970, 36677.00
477.0820, 40429.00
478.2680, 44309.00
479.4540, 46959.00
480.6390, 48241.00
481.8240, 46571.00
483.0090, 43338.00
484.1940, 38653.00
485.3780, 34923.00
486.5630, 31874.00
487.7470, 29618.00
488.9320, 28149.00
490.1160, 27330.00
491.3000, 26883.00
492.4830, 26391.00
493.6670, 26129.00
494.8500, 26427.00
496.0340, 26898.00
497.2170, 27761.00
498.4000, 28368.00
499.5820, 29760.00
500.7650, 31489.00
501.9480, 33897.00
503.1300, 36822.00
504.3120, 40230.00
505.4940, 44564.00
506.6760, 49037.00
507.8580, 52579.00
509.0390, 53734.00
510.2210, 51788.00
511.4020, 47825.00
512.5830, 42617.00
513.7640, 37963.00
514.9450, 34402.00
516.1250, 31932.00
517.3060, 29808.00
518.4860, 28716.00
519.6660, 27472.00
520.8460, 26832.00
522.0260, 26098.00
523.2060, 25790.00
524.3850, 25653.00
525.5650, 25130.00
526.7440, 25019.00
527.9230, 25073.00
529.1020, 24698.00
530.2810, 24703.00
531.4590, 24675.00
532.6380, 24397.00
533.8160, 24265.00
534.9940, 24467.00
536.1720, 24232.00
537.3500, 24187.00
538.5270, 24237.00
539.7050, 24105.00
540.8820, 24317.00
542.0590, 24209.00
543.2360, 24072.00
544.4130, 23857.00
545.5900, 24032.00
546.7660, 24056.00
547.9430, 24220.00
549.1190, 24073.00
550.2950, 23887.00
551.4710, 24088.00
552.6470, 24091.00
553.8220, 24080.00
554.9980, 24111.32
556.1730, 24259.00
557.3480, 24041.00
558.5230, 24211.00
559.6980, 24198.00
560.8730, 24056.00
562.0470, 24111.00
563.2220, 24235.00
564.3960, 24297.00
565.5700, 24358.00
566.7440, 24198.00
567.9170, 24285.00
569.0910, 24095.00
570.2640, 24302.00
571.4380, 24283.00
572.6110, 24361.00
573.7840, 24370.00
574.9570, 24428.00
576.1290, 24600.00
577.3020, 24571.00
578.4740, 24705.00
579.6460, 24735.00
580.8180, 24864.00
581.9900, 24683.00
583.1620, 24739.00
584.3330, 24496.00
585.5040, 24534.00
586.6760, 24345.00
587.8470, 24295.00
589.0180, 24423.00
590.1880, 24421.00
591.3590, 24435.00
592.5290, 24232.00
593.7000, 24338.00
594.8700, 24346.88
596.0400, 24270.00
597.2090, 24449.00
598.3790, 24552.00
599.5490, 24491.00
600.7180, 24575.00
601.8870, 24579.00
603.0560, 24543.00
604.2250, 24642.00
605.3940, 24613.00
606.5620, 24656.92
607.7300, 24624.00
608.8990, 24712.00
610.0670, 24660.00
611.2350, 24650.00
612.4020, 24681.00
613.5700, 24784.00
614.7370, 24805.00
615.9050, 24744.00
617.0720, 25129.00
618.2390, 24927.00
619.4060, 25096.00
620.5720, 24988.00
621.7390, 24950.00
622.9050, 25178.00
624.0710, 25022.00
625.2370, 25057.00
626.4030, 25171.00
627.5690, 25225.00
628.7340, 25095.00
629.9000, 25372.00
631.0650, 25213.00
632.2300, 25304.00
633.3950, 25473.00
634.5600, 25468.00
635.7240, 25416.00
636.8890, 25489.00
638.0530, 25431.00
639.2170, 25528.00
640.3810, 25464.00
641.5450, 25575.00
642.7080, 25572.00
643.8720, 25688.00
645.0350, 25827.00
646.1980, 25921.00
647.3610, 26121.00
648.5240, 25933.00
649.6870, 26073.00
650.8490, 25914.00
652.0120, 26061.00
653.1740, 26080.00
654.3360, 25862.00
655.4980, 25954.00
656.6600, 25723.00
657.8210, 25814.00
658.9830, 25784.00
660.1440, 25734.00
661.3050, 25872.00
662.4660, 25877.00
663.6270, 25953.00
664.7870, 25877.00
665.9480, 25906.00
667.1080, 25941.00
668.2680, 26100.00
669.4280, 26066.00
670.5880, 26072.00
671.7480, 25996.00
672.9070, 26231.00
674.0670, 26231.00
675.2260, 26055.00
676.3850, 25878.00
677.5440, 26103.00
678.7030, 26011.00
679.8610, 26239.00
681.0200, 26233.00
682.1780, 26151.00
683.3360, 26143.00
684.4940, 26178.00
685.6520, 26163.00
686.8090, 26408.00
687.9670, 26303.00
689.1240, 26503.00
690.2810, 26323.00
691.4380, 26368.00
692.5950, 26247.00
693.7520, 26316.00
694.9080, 26354.00
696.0650, 26482.00
697.2210, 26353.00
698.3770, 26366.00
699.5330, 26263.00
700.6880, 26244.00
701.8440, 26441.00
702.9990, 26557.00
704.1550, 26447.00
705.3100, 26412.00
706.4650, 26475.00
707.6190, 26479.00
708.7740, 26473.00
709.9290, 26634.00
711.0830, 26520.00
712.2370, 26723.00
713.3910, 26572.00
714.5450, 26850.00
715.6980, 26821.00
716.8520, 26865.00
718.0050, 26907.00
719.1580, 26976.00
720.3110, 26959.00
721.4640, 27084.00
722.6170, 27339.00
723.7700, 27207.00
724.9220, 27299.00
726.0740, 27048.00
727.2260, 27121.00
728.3780, 27113.00
729.5300, 27205.00
730.6810, 27185.40
731.8330, 27113.00
732.9840, 27157.00
734.1350, 27166.00
735.2860, 27140.00
736.4370, 27177.00
737.5880, 27281.00
738.7380, 27109.00
739.8880, 27138.00
741.0390, 27312.00
742.1890, 27482.00
743.3380, 27429.00
744.4880, 27379.00
745.6380, 27444.00
746.7870, 27811.00
747.9360, 27488.00
749.0850, 27839.00
750.2340, 27670.00
751.3830, 27837.00
752.5310, 28042.00
753.6800, 28184.00
754.8280, 28242.00
755.9760, 28379.00
757.1240, 28788.00
758.2720, 28977.00
759.4190, 29383.00
760.5670, 29972.00
761.7140, 30639.00
762.8610, 30902.00
764.0080, 31583.00
765.1550, 31634.00
766.3020, 31591.00
767.4480, 31059.00
768.5950, 30477.00
769.7410, 29779.00
770.8870, 29677.00
772.0330, 29145.00
773.1780, 29094.00
774.3240, 29200.00
775.4690, 29155.00
776.6140, 29096.00
777.7590, 28947.00
778.9040, 28596.00
780.0490, 28684.00
781.1940, 28523.00
782.3380, 28582.00
783.4820, 28436.00
784.6260, 28565.00
785.7700, 28402.00
786.9140, 28497.00
788.0580, 28265.00
789.2010, 28374.00
790.3450, 28553.00
791.4880, 28417.00
792.6310, 28340.00
793.7730, 28340.00
794.9160, 28389.00
796.0590, 28278.00
797.2010, 28324.00
798.3430, 28368.00
799.4850, 28556.00
800.6270, 28608.00
801.7690, 28467.00
802.9100, 28675.00
804.0520, 28562.00
805.1930, 28655.00
806.3340, 28909.00
807.4750, 28858.00
808.6160, 28923.00
809.7560, 29116.00
810.8970, 29258.00
812.0370, 29233.00
813.1770, 29444.00
814.3170, 29540.00
815.4570, 29513.00
816.5960, 29490.00
817.7360, 29464.18
818.8750, 29443.00
820.0140, 29348.00
821.1530, 29327.00
822.2920, 29303.00
823.4310, 29121.00
824.5690, 29150.00
825.7070, 29149.00
826.8460, 29154.00
827.9840, 29433.00
829.1220, 29269.00
830.2590, 29352.00
831.3970, 29256.00
832.5340, 29174.00
833.6710, 29426.00
834.8080, 29362.00
835.9450, 29162.00
837.0820, 29633.00
838.2190, 29538.00
839.3550, 29343.00
840.4910, 29536.00
841.6270, 29316.00
842.7630, 29383.00
843.8990, 29735.00
845.0350, 29707.00
846.1700, 29555.00
847.3060, 29526.00
848.4410, 29720.00
849.5760, 29541.00
850.7100, 29699.00
851.8450, 29981.00
852.9800, 29604.00
854.1140, 29963.00
855.2480, 29685.00
856.3820, 29842.00
857.5160, 29717.00
858.6500, 29810.00
859.7830, 29878.00
860.9170, 30054.00
862.0500, 29851.00
863.1830, 29751.00
864.3160, 29733.00
865.4480, 29790.00
866.5810, 29993.00
867.7130, 30122.00
868.8460, 30091.00
869.9780, 30206.00
871.1100, 30033.00
872.2410, 30128.00
873.3730, 30132.00
874.5050, 30339.00
875.6360, 30302.00
876.7670, 30267.00
877.8980, 30146.00
879.0290, 30333.00
880.1590, 30343.00
881.2900, 30213.00
882.4200, 30364.00
883.5500, 30251.00
884.6800, 30298.00
885.8100, 30415.00
886.9400, 30497.00
888.0690, 30461.00
889.1990, 30399.00
890.3280, 30382.00
891.4570, 30222.00
892.5860, 30591.00
893.7140, 30552.00
894.8430, 30390.00
895.9710, 30865.00
897.1000, 30512.00
898.2280, 30699.00
899.3560, 30665.00
900.4830, 30778.00
901.6110, 30868.00
902.7380, 30950.00
903.8660, 30841.00
904.9930, 30873.00
906.1200, 30905.00
907.2460, 31018.00
908.3730, 31031.00
909.5000, 30931.00
910.6260, 31183.00
911.7520, 31228.00
912.8780, 31116.00
914.0040, 31079.00
915.1290, 31330.00
916.2550, 31438.00
917.3800, 31358.00
918.5050, 31376.00
919.6300, 31424.00
920.7550, 31277.00
921.8800, 31495.00
923.0040, 31530.00
924.1290, 31233.00
925.2530, 31445.00
926.3770, 31465.00
927.5010, 31497.00
928.6250, 31707.00
929.7480, 31695.00
930.8720, 31543.00
931.9950, 31693.00
933.1180, 31676.00
934.2410, 31937.00
935.3640, 31809.00
936.4860, 31874.00
937.6090, 31871.00
938.7310, 31945.00
939.8530, 31871.00
940.9750, 31995.00
942.0970, 31939.00
943.2180, 32062.00
944.3400, 32031.00
945.4610, 32254.00
946.5820, 32243.25
947.7030, 32367.00
948.8240, 32341.00
949.9450, 32310.00
951.0650, 32415.00
952.1860, 32353.00
953.3060, 32283.00
954.4260, 32588.00
955.5460, 32338.00
956.6650, 32760.00
957.7850, 32564.00
958.9040, 32780.00
960.0230, 32544.00
961.1420, 32702.00
962.2610, 32613.00
963.3800, 32798.00
964.4990, 32765.00
965.6170, 32851.00
966.7350, 32730.00
967.8530, 33148.00
968.9710, 32894.00
970.0890, 33191.00
971.2070, 33236.00
972.3240, 33487.00
973.4410, 33410.00
974.5580, 33439.00
975.6750, 33597.00
976.7920, 33883.00
977.9090, 33892.00
979.0250, 34048.00
980.1410, 34025.00
981.2580, 34014.00
982.3740, 33744.00
983.4890, 33847.00
984.6050, 33701.00
985.7200, 33731.00
986.8360, 33679.00
987.9510, 33652.00
989.0660, 33785.00
990.1810, 33814.00
991.2950, 33664.00
992.4100, 33611.00
993.5240, 33834.00
994.6390, 33713.00
995.7530, 33955.00
996.8660, 34047.00
997.9800, 34143.00
999.0940, 33829.00
1000.207, 34196.00
1001.320, 34199.00
1002.433, 34224.00
1003.546, 34551.00
1004.659, 34537.00
1005.772, 34501.00
1006.884, 34743.00
1007.996, 34820.00
1009.108, 35021.00
1010.220, 34971.00
1011.332, 35052.00
1012.444, 35026.00
1013.555, 35141.00
1014.666, 35219.00
1015.777, 35236.00
1016.888, 35200.00
1017.999, 35180.00
1019.110, 34923.00
1020.220, 35093.00
1021.331, 34873.00
1022.441, 35160.00
1023.551, 34890.00
1024.661, 34878.00
1025.770, 35104.00
1026.880, 34988.30
1027.989, 35424.00
1029.098, 35144.00
1030.207, 35493.00
1031.316, 35736.00
1032.425, 35878.00
1033.533, 35952.21
1034.642, 36019.00
1035.750, 35862.00
1036.858, 35644.00
1037.966, 35474.00
1039.073, 35367.00
1040.181, 35510.00
1041.288, 35338.00
1042.396, 35432.00
1043.503, 35285.00
1044.610, 35296.00
1045.716, 35476.00
1046.823, 35346.00
1047.929, 35481.00
1049.036, 35472.00
1050.142, 35708.00
1051.248, 35385.00
1052.353, 35816.00
1053.459, 35427.00
1054.564, 35471.00
1055.670, 35540.00
1056.775, 35403.00
1057.880, 35405.00
1058.985, 35666.00
1060.089, 35590.00
1061.194, 35558.00
1062.298, 35567.00
1063.402, 35506.00
1064.506, 35534.00
1065.610, 35814.00
1066.713, 35776.00
1067.817, 35787.00
1068.920, 35636.00
1070.023, 35663.00
1071.126, 35841.00
1072.229, 36046.00
1073.332, 36014.00
1074.435, 35950.00
1075.537, 36121.00
1076.639, 35991.00
1077.741, 36307.00
1078.843, 36384.00
1079.945, 36328.00
1081.046, 36650.00
1082.148, 36779.00
1083.249, 36902.00
1084.350, 36982.00
1085.451, 37316.00
1086.551, 37322.00
1087.652, 37742.00
1088.752, 37972.00
1089.853, 38148.00
1090.953, 38646.00
1092.053, 38746.00
1093.152, 39372.00
1094.252, 39730.00
1095.351, 40723.00
1096.451, 41452.00
1097.550, 42499.00
1098.649, 43522.00
1099.748, 43452.00
1100.846, 44039.00
1101.945, 43719.00
1103.043, 43275.00
1104.141, 42706.00
1105.239, 42052.00
1106.337, 41551.00
1107.434, 41120.00
1108.532, 40709.00
1109.629, 40547.00
1110.726, 40327.00
1111.823, 40336.00
1112.920, 40293.00
1114.017, 40227.67
1115.113, 40303.00
1116.210, 40255.00
1117.306, 40170.00
1118.402, 40312.00
1119.498, 40432.00
1120.593, 40068.00
1121.689, 40028.00
1122.784, 39670.00
1123.879, 39478.00
1124.974, 39176.00
1126.069, 38897.62
1127.164, 38605.00
1128.259, 38341.00
1129.353, 38113.00
1130.447, 37823.00
1131.541, 37825.00
1132.635, 37629.00
1133.729, 37405.00
1134.822, 37719.00
1135.916, 37542.00
1137.009, 37598.00
1138.102, 37399.00
1139.195, 37571.00
1140.288, 37760.00
1141.380, 37580.00
1142.473, 37643.00
1143.565, 37596.00
1144.657, 37674.00
1145.749, 37646.55
1146.841, 37820.00
1147.932, 37642.00
1149.024, 37641.00
1150.115, 37696.00
1151.206, 37947.00
1152.297, 37808.00
1153.388, 37890.00
1154.479, 38111.00
1155.569, 38175.00
1156.659, 38033.00
1157.750, 37956.00
1158.839, 37913.00
1159.929, 38039.00
1161.019, 38309.00
1162.108, 38123.00
1163.198, 38367.00
1164.287, 38226.00
1165.376, 38168.00
1166.465, 38306.00
1167.553, 38417.00
1168.642, 38420.00
1169.730, 38537.00
1170.818, 38518.00
1171.906, 38440.00
1172.994, 38392.00
1174.082, 38369.00
1175.170, 38338.00
1176.257, 38235.00
1177.344, 38517.00
1178.431, 38134.00
1179.518, 38368.00
1180.605, 38275.00
1181.691, 38515.00
1182.778, 38261.00
1183.864, 38430.00
1184.950, 38492.00
1186.036, 38421.00
1187.122, 38544.00
1188.207, 38407.00
1189.292, 38487.00
1190.378, 38637.00
1191.463, 38533.00
1192.548, 38676.00
1193.632, 38839.00
1194.717, 38542.00
1195.801, 38660.00
1196.886, 38799.00
1197.970, 38823.00
1199.054, 38910.00
1200.137, 38964.00
1201.221, 39170.00
1202.305, 38927.00
1203.388, 38924.00
1204.471, 38735.00
1205.554, 39134.00
1206.637, 39066.00
1207.719, 38863.00
1208.802, 39084.00
1209.884, 38984.00
1210.966, 39314.00
1212.048, 39077.00
1213.130, 39177.00
1214.212, 39410.00
1215.293, 39308.00
1216.374, 39266.00
1217.456, 39429.00
1218.536, 39365.00
1219.617, 39479.00
1220.698, 39542.00
1221.778, 39458.00
1222.859, 39533.24
1223.939, 39522.14
1225.019, 39519.00
1226.099, 39534.00
1227.178, 39474.00
1228.258, 39465.00
1229.337, 39529.00
1230.417, 39608.00
1231.496, 39604.00
1232.574, 39721.00
1233.653, 39763.00
1234.732, 39741.00
1235.810, 39863.98
1236.888, 39795.00
1237.966, 40040.00
1239.044, 39879.00
1240.122, 39961.00
1241.199, 39990.00
1242.277, 40207.00
1243.354, 40188.00
1244.431, 40264.00
1245.508, 40126.00
1246.585, 40191.00
1247.661, 40018.00
1248.738, 40139.00
1249.814, 40338.00
1250.890, 40366.00
1251.966, 40252.00
1253.042, 40477.00
1254.117, 40243.00
1255.193, 40449.00
1256.268, 40238.00
1257.343, 40577.00
1258.418, 40515.00
1259.493, 40181.00
1260.567, 40542.00
1261.642, 40544.00
1262.716, 40375.00
1263.790, 40484.00
1264.864, 40645.00
1265.938, 40711.00
1267.011, 40702.00
1268.085, 40736.00
1269.158, 40782.00
1270.231, 40982.00
1271.304, 41130.00
1272.377, 41050.00
1273.450, 41184.52
1274.522, 41228.00
1275.594, 41294.00
1276.666, 41125.00
1277.738, 41264.00
1278.810, 41256.00
1279.882, 41014.00
1280.953, 41315.00
1282.025, 41419.00
1283.096, 41146.00
1284.167, 41192.00
1285.238, 41620.00
1286.308, 41611.85
1287.379, 41679.61
1288.449, 41448.00
1289.519, 41617.80
1290.589, 41503.00
1291.659, 41382.00
1292.729, 41584.00
1293.798, 41691.00
1294.868, 41807.00
1295.937, 41855.71
1297.006, 41831.79
1298.075, 41855.00
1299.143, 41769.00
1300.212, 41703.00
1301.280, 41809.00
1302.348, 41660.00
1303.416, 41712.00
1304.484, 42006.00
1305.552, 41784.00
1306.620, 41967.00
1307.687, 42146.00
1308.754, 42092.00
1309.821, 42103.00
1310.888, 42215.00
1311.955, 41970.00
1313.021, 42291.00
1314.088, 42044.00
1315.154, 41871.00
1316.220, 42151.00
1317.286, 42249.00
1318.352, 42278.00
1319.417, 42501.00
1320.483, 42302.00
1321.548, 42326.00
1322.613, 42421.00
1323.678, 42553.00
1324.743, 42551.00
1325.807, 42633.00
1326.872, 42570.00
1327.936, 42598.00
1329.000, 42736.00
1330.064, 42659.00
1331.128, 42742.14
1332.191, 42892.00
1333.255, 42759.00
1334.318, 42794.00
1335.381, 42696.00
1336.444, 42985.00
1337.507, 42648.00
1338.569, 42646.00
1339.632, 43177.00
1340.694, 42786.00
1341.756, 42953.00
1342.818, 43147.00
1343.880, 42947.00
1344.941, 43041.00
1346.003, 42929.00
1347.064, 43096.00
1348.125, 43066.88
1349.186, 43121.89
1350.247, 43082.00
1351.308, 43234.00
1352.368, 43217.00
1353.428, 43244.00
1354.489, 43569.00
1355.549, 43077.00
1356.608, 43546.00
1357.668, 43284.00
1358.727, 43280.00
1359.787, 43238.00
1360.846, 43476.00
1361.905, 43131.00
1362.964, 43379.00
1364.022, 43361.00
1365.081, 43519.00
1366.139, 43574.70
1367.197, 43534.00
1368.255, 43584.00
1369.313, 43509.00
1370.371, 43346.00
1371.428, 43571.00
1372.486, 43781.00
1373.543, 43565.00
1374.600, 43672.64
1375.657, 43477.00
1376.713, 43600.00
1377.770, 43567.00
1378.826, 43669.00
1379.882, 43690.00
1380.938, 43556.00
1381.994, 43571.00
1383.050, 43731.00
1384.106, 43791.00
1385.161, 43909.00
1386.216, 43945.02
1387.271, 43904.00
1388.326, 43962.00
1389.381, 43789.00
1390.435, 43727.00
1391.490, 43943.00
1392.544, 44179.00
1393.598, 44182.00
1394.652, 43849.00
1395.705, 44174.00
1396.759, 44043.00
1397.812, 44327.00
1398.866, 44130.00
1399.919, 44290.00
1400.972, 44199.00
1402.024, 44475.00
1403.077, 44278.00
1404.129, 44558.00
1405.181, 44546.00
1406.233, 44152.00
1407.285, 44613.00
1408.337, 44570.00
1409.389, 44503.00
1410.440, 44448.00
1411.491, 44720.00
1412.542, 44485.00
1413.593, 44549.00
1414.644, 44849.00
1415.695, 44782.00
1416.745, 44736.00
1417.795, 44371.00
1418.845, 44581.00
1419.895, 44563.00
1420.945, 44884.00
1421.995, 44487.00
1423.044, 44835.00
1424.093, 45021.00
1425.142, 44698.00
1426.191, 44969.00
1427.240, 44866.00
1428.289, 44896.00
1429.337, 45261.00
1430.385, 45103.00
1431.433, 45242.23
1432.481, 45150.00
1433.529, 45271.00
1434.577, 45304.00
1435.624, 45257.00
1436.672, 45268.00
1437.719, 45436.00
1438.766, 45384.00
1439.812, 45500.00
1440.859, 45396.00
1441.905, 45419.00
1442.952, 45423.03
1443.998, 45429.57
1445.044, 45447.00
1446.090, 45566.00
1447.135, 45677.00
1448.181, 45873.00
1449.226, 45748.00
1450.271, 45746.00
1451.316, 45689.00
1452.361, 45547.00
1453.405, 45984.00
1454.450, 45731.00
1455.494, 46043.00
1456.538, 46043.00
1457.582, 46375.00
1458.626, 46384.92
1459.670, 46129.00
1460.713, 46380.00
1461.757, 46276.00
1462.800, 46123.00
1463.843, 46129.00
1464.886, 46472.00
1465.928, 46441.00
1466.971, 46543.00
1468.013, 46267.00
1469.055, 46271.00
1470.097, 46486.00
1471.139, 46674.00
1472.181, 46508.00
1473.222, 46541.00
1474.263, 46821.00
1475.305, 46872.00
1476.346, 47123.00
1477.386, 46787.00
1478.427, 46775.00
1479.468, 47299.00
1480.508, 47115.00
1481.548, 47454.00
1482.588, 47634.00
1483.628, 47616.00
1484.668, 47792.00
1485.707, 47626.00
1486.747, 47622.00
1487.786, 47518.00
1488.825, 47617.00
1489.864, 47597.00
1490.902, 47646.00
1491.941, 47488.00
1492.979, 47694.00
1494.017, 47526.00
1495.055, 47806.00
1496.093, 48066.00
1497.131, 47799.00
1498.168, 47682.00
1499.206, 47601.00
1500.243, 47537.00
1501.280, 47818.00
1502.317, 48081.00
1503.354, 48019.00
1504.390, 48010.00
1505.426, 48087.00
1506.463, 48094.29
1507.499, 48018.00
1508.535, 48223.00
1509.570, 48346.00
1510.606, 48439.25
1511.641, 48280.00
1512.676, 48465.00
1513.711, 48504.00
1514.746, 48240.00
1515.781, 48421.00
1516.816, 48427.00
1517.850, 48750.00
1518.884, 48435.00
1519.918, 48669.00
1520.952, 48617.00
1521.986, 48626.00
1523.019, 48759.00
1524.053, 48615.00
1525.086, 48564.00
1526.119, 49017.00
1527.152, 48622.00
1528.185, 49034.00
1529.217, 48743.00
1530.250, 48943.00
1531.282, 48686.00
1532.314, 48782.00
1533.346, 48963.00
1534.377, 48906.00
1535.409, 48870.00
1536.440, 48931.00
1537.472, 48998.00
1538.503, 49135.00
1539.534, 49001.00
1540.564, 48937.00
1541.595, 49092.00
1542.625, 49481.00
1543.656, 49189.00
1544.686, 49249.00
1545.716, 49104.00
1546.745, 49120.00
1547.775, 49390.00
1548.804, 49000.00
1549.834, 49464.00
1550.863, 49548.00
1551.892, 49459.00
1552.920, 49588.00
1553.949, 49570.00
1554.977, 49937.00
1556.006, 49693.00
1557.034, 49890.00
1558.062, 49649.00
1559.089, 49607.00
1560.117, 49656.00
1561.144, 49489.00
1562.172, 49495.00
1563.199, 49837.00
1564.226, 49990.00
1565.252, 49635.00
1566.279, 49898.00
1567.305, 49720.00
1568.332, 50056.00
1569.358, 50122.00
1570.384, 50585.00
##END=



