##NAMES=Albite
##RRUFFID=R050253
##IDEAL CHEMISTRY=NaAlSi_3_O_8_
##LOCALITY=Madawaska/Faraday mine, Bancroft, Ontario, Canada
##OWNER=RRUFF
##SOURCE=Marcus Origlieri
##DESCRIPTION=Colorless to brown prismatic single crystals
##STATUS=The identification of this mineral has been confirmed by X-ray diffraction and chemical analysis
##URL=rruff.info/R050253
##MEASURED CHEMISTRY=(Na_0.99_Ca_0.01_)Al_1.00_(Si_0.99_Al_0.01_)_3_O_8_
##PIN_ID=L01266
##ORIENTATION=Laser parallel to (-1 -1 0). Fiducial mark perpendicular to laser is parallel to c [0 0 1]
109.5120, 8189.000
110.7440, 8344.000
111.9760, 8061.000
113.2080, 7792.000
114.4400, 7797.000
115.6710, 8074.000
116.9030, 8133.000
118.1340, 8085.000
119.3650, 7837.000
120.5960, 7828.000
121.8270, 7804.000
123.0580, 7891.000
124.2880, 7974.000
125.5190, 7906.000
126.7490, 7882.000
127.9790, 8026.000
129.2090, 8048.000
130.4390, 8257.000
131.6680, 8477.000
132.8980, 8592.000
134.1270, 8947.000
135.3560, 9174.000
136.5850, 9725.000
137.8140, 10197.00
139.0430, 10817.00
140.2710, 11249.00
141.5000, 11784.00
142.7280, 12332.00
143.9560, 13011.00
145.1840, 13609.00
146.4120, 14305.00
147.6390, 15276.00
148.8670, 16259.00
150.0940, 17590.00
151.3210, 19231.00
152.5490, 21197.00
153.7750, 23065.00
155.0020, 24658.00
156.2290, 25594.00
157.4550, 26654.00
158.6810, 27883.00
159.9080, 29318.00
161.1340, 31313.00
162.3590, 32948.00
163.5850, 33731.00
164.8110, 33435.00
166.0360, 31995.00
167.2610, 29840.00
168.4860, 27425.00
169.7110, 25046.00
170.9360, 23739.00
172.1610, 23105.00
173.3850, 23025.00
174.6100, 23024.00
175.8340, 23207.00
177.0580, 23671.00
178.2820, 24245.00
179.5050, 24610.00
180.7290, 25301.00
181.9520, 25722.00
183.1760, 26426.00
184.3990, 26746.00
185.6220, 27143.00
186.8450, 26901.00
188.0670, 26575.00
189.2900, 25736.00
190.5120, 24259.00
191.7340, 22564.00
192.9560, 21213.00
194.1780, 19695.00
195.4000, 18376.00
196.6220, 17813.00
197.8430, 17574.00
199.0640, 17551.00
200.2860, 18022.00
201.5070, 18672.00
202.7270, 19165.00
203.9480, 19326.00
205.1690, 19551.00
206.3890, 19601.00
207.6090, 20507.00
208.8290, 21196.00
210.0490, 21526.00
211.2690, 21439.00
212.4890, 20621.00
213.7080, 19849.00
214.9280, 17173.00
216.1470, 15171.00
217.3660, 13581.00
218.5850, 12498.00
219.8030, 11459.00
221.0220, 10854.00
222.2400, 10378.00
223.4590, 10067.00
224.6770, 9731.000
225.8950, 9628.000
227.1120, 9513.000
228.3300, 9320.000
229.5480, 9150.000
230.7650, 9077.000
231.9820, 8965.000
233.1990, 9045.000
234.4160, 9006.000
235.6330, 8970.000
236.8490, 8907.000
238.0660, 8842.000
239.2820, 8834.514
240.4980, 8794.000
241.7140, 8836.000
242.9300, 8878.000
244.1460, 8930.000
245.3610, 8953.000
246.5770, 9016.000
247.7920, 9136.000
249.0070, 9172.000
250.2220, 9389.000
251.4370, 9409.000
252.6510, 9600.000
253.8660, 9656.000
255.0800, 9581.000
256.2940, 9510.000
257.5080, 9787.000
258.7220, 9629.000
259.9360, 9899.000
261.1490, 10131.00
262.3630, 10130.00
263.5760, 10130.00
264.7890, 10355.00
266.0020, 10539.00
267.2150, 10884.00
268.4270, 11096.00
269.6400, 11400.00
270.8520, 11717.00
272.0640, 11966.00
273.2760, 12232.00
274.4880, 12627.00
275.7000, 12895.00
276.9120, 13720.00
278.1230, 14836.00
279.3340, 16383.00
280.5450, 18404.00
281.7560, 20642.00
282.9670, 23103.00
284.1780, 25244.00
285.3880, 27026.00
286.5980, 28876.00
287.8090, 30731.00
289.0190, 33439.00
290.2290, 35328.00
291.4380, 36422.00
292.6480, 36402.00
293.8570, 34631.00
295.0670, 31609.00
296.2760, 27451.00
297.4850, 23656.00
298.6930, 20226.00
299.9020, 17684.00
301.1110, 15586.00
302.3190, 14316.00
303.5270, 13524.00
304.7350, 13463.00
305.9430, 13036.00
307.1510, 12112.00
308.3580, 11881.00
309.5660, 11777.00
310.7730, 11553.00
311.9800, 11631.00
313.1870, 11388.00
314.3940, 11238.00
315.6010, 11121.00
316.8070, 10949.00
318.0130, 10783.00
319.2200, 10834.00
320.4260, 10776.00
321.6310, 11060.00
322.8370, 11147.00
324.0430, 11138.00
325.2480, 11229.00
326.4540, 11364.00
327.6590, 11543.00
328.8640, 11762.00
330.0680, 11819.00
331.2730, 11855.00
332.4780, 11552.00
333.6820, 11266.00
334.8860, 10861.00
336.0900, 10448.00
337.2940, 10223.00
338.4980, 9999.755
339.7010, 9904.000
340.9050, 9816.000
342.1080, 9739.000
343.3110, 9825.000
344.5140, 9598.000
345.7170, 9825.000
346.9200, 9814.000
348.1220, 9755.000
349.3240, 9800.000
350.5270, 9807.000
351.7290, 9848.000
352.9310, 9800.692
354.1320, 9625.000
355.3340, 9657.000
356.5350, 9569.000
357.7370, 9419.000
358.9380, 9533.000
360.1390, 9511.000
361.3400, 9344.000
362.5400, 9488.000
363.7410, 9424.000
364.9410, 9513.000
366.1410, 9470.000
367.3410, 9461.000
368.5410, 9439.000
369.7410, 9400.000
370.9400, 9381.000
372.1400, 9411.000
373.3390, 9512.000
374.5380, 9568.000
375.7370, 9420.000
376.9360, 9542.000
378.1350, 9439.000
379.3330, 9388.000
380.5310, 9635.000
381.7300, 9482.000
382.9280, 9539.000
384.1260, 9597.000
385.3230, 9548.000
386.5210, 9586.000
387.7180, 9625.000
388.9160, 9647.000
390.1130, 9799.000
391.3100, 9799.000
392.5060, 9871.000
393.7030, 10038.00
394.9000, 10238.00
396.0960, 10315.00
397.2920, 10651.00
398.4880, 10830.00
399.6840, 11166.00
400.8800, 11634.00
402.0750, 11820.00
403.2710, 11962.00
404.4660, 12001.00
405.6610, 12136.00
406.8560, 12751.00
408.0510, 13014.00
409.2450, 13184.00
410.4400, 13045.00
411.6340, 12367.00
412.8280, 11873.00
414.0220, 11336.00
415.2160, 11023.00
416.4100, 10768.00
417.6030, 10707.00
418.7970, 10695.00
419.9900, 10451.00
421.1830, 10223.00
422.3760, 10167.00
423.5690, 10011.00
424.7610, 10038.00
425.9540, 9962.000
427.1460, 9960.000
428.3380, 9847.000
429.5300, 9889.000
430.7220, 9919.000
431.9140, 10088.00
433.1050, 9984.000
434.2970, 9855.000
435.4880, 10023.00
436.6790, 10074.00
437.8700, 10241.00
439.0610, 10223.00
440.2510, 10295.00
441.4420, 10306.00
442.6320, 10516.00
443.8220, 10476.00
445.0120, 10661.00
446.2020, 10902.00
447.3910, 10925.00
448.5810, 11471.00
449.7700, 11486.00
450.9600, 11882.00
452.1490, 12038.00
453.3370, 12432.00
454.5260, 12720.00
455.7150, 13117.00
456.9030, 13471.00
458.0910, 13780.00
459.2800, 13860.00
460.4670, 14011.00
461.6550, 14129.00
462.8430, 14324.00
464.0300, 14700.00
465.2180, 15361.00
466.4050, 16670.00
467.5920, 18111.00
468.7790, 20370.00
469.9650, 23247.00
471.1520, 26671.00
472.3380, 29821.00
473.5250, 32548.94
474.7110, 35221.00
475.8970, 37802.00
477.0820, 40738.00
478.2680, 42979.00
479.4540, 44563.00
480.6390, 44520.00
481.8240, 42233.00
483.0090, 38030.00
484.1940, 33044.00
485.3780, 28242.00
486.5630, 24461.00
487.7470, 21804.00
488.9320, 19855.00
490.1160, 18900.00
491.3000, 18480.00
492.4830, 18373.00
493.6670, 18849.00
494.8500, 20065.00
496.0340, 21850.00
497.2170, 24723.00
498.4000, 28468.00
499.5820, 32915.00
500.7650, 37550.00
501.9480, 41574.00
503.1300, 45055.00
504.3120, 49184.00
505.4940, 52732.00
506.6760, 56777.00
507.8580, 59028.00
509.0390, 59017.00
510.2210, 55891.00
511.4020, 50631.00
512.5830, 43815.00
513.7640, 36973.00
514.9450, 30789.00
516.1250, 26218.00
517.3060, 23009.00
518.4860, 20444.00
519.6660, 18873.00
520.8460, 17420.00
522.0260, 16318.00
523.2060, 15622.00
524.3850, 15121.00
525.5650, 14576.00
526.7440, 14061.00
527.9230, 13719.00
529.1020, 13534.00
530.2810, 13352.00
531.4590, 13133.00
532.6380, 12974.00
533.8160, 13365.00
534.9940, 12980.14
536.1720, 12873.05
537.3500, 12618.00
538.5270, 12347.00
539.7050, 12197.00
540.8820, 11991.00
542.0590, 11982.00
543.2360, 12050.00
544.4130, 11746.00
545.5900, 11932.00
546.7660, 11926.00
547.9430, 11844.00
549.1190, 11792.00
550.2950, 11730.00
551.4710, 11731.00
552.6470, 11701.00
553.8220, 11741.00
554.9980, 11897.00
556.1730, 11613.00
557.3480, 11767.00
558.5230, 11546.00
559.6980, 11606.00
560.8730, 11558.00
562.0470, 11547.00
563.2220, 11702.00
564.3960, 11760.00
565.5700, 11784.00
566.7440, 11885.00
567.9170, 11808.00
569.0910, 11936.00
570.2640, 11987.00
571.4380, 12219.00
572.6110, 12277.00
573.7840, 12355.00
574.9570, 12483.00
576.1290, 12665.00
577.3020, 12840.00
578.4740, 12796.00
579.6460, 12754.00
580.8180, 12747.00
581.9900, 12734.00
583.1620, 12448.00
584.3330, 12211.00
585.5040, 12070.00
586.6760, 11966.00
587.8470, 11821.00
589.0180, 11680.00
590.1880, 11574.00
591.3590, 11371.00
592.5290, 11494.00
593.7000, 11511.00
594.8700, 11522.00
596.0400, 11377.00
597.2090, 11432.00
598.3790, 11513.00
599.5490, 11347.00
600.7180, 11565.00
601.8870, 11485.00
603.0560, 11596.00
604.2250, 11496.00
605.3940, 11403.00
606.5620, 11382.00
607.7300, 11389.00
608.8990, 11533.00
610.0670, 11571.00
611.2350, 11554.00
612.4020, 11593.00
613.5700, 11605.00
614.7370, 11573.00
615.9050, 11649.00
617.0720, 11689.00
618.2390, 11615.00
619.4060, 11664.00
620.5720, 11786.00
621.7390, 11848.00
622.9050, 11901.00
624.0710, 11899.00
625.2370, 11959.00
626.4030, 12031.00
627.5690, 12133.00
628.7340, 12190.00
629.9000, 12258.00
631.0650, 12335.00
632.2300, 12480.00
633.3950, 12411.00
634.5600, 12576.00
635.7240, 12577.00
636.8890, 12593.00
638.0530, 12546.00
639.2170, 12681.00
640.3810, 12498.00
641.5450, 12804.00
642.7080, 12560.00
643.8720, 12705.00
645.0350, 12815.00
646.1980, 12828.00
647.3610, 12831.00
648.5240, 12765.00
649.6870, 12739.00
650.8490, 12624.00
652.0120, 12529.00
653.1740, 12470.00
654.3360, 12293.00
655.4980, 12254.00
656.6600, 12070.00
657.8210, 12145.00
658.9830, 12174.00
660.1440, 11996.00
661.3050, 11935.00
662.4660, 12017.00
663.6270, 12011.00
664.7870, 12111.00
665.9480, 12017.00
667.1080, 11880.00
668.2680, 11862.00
669.4280, 11864.00
670.5880, 11828.01
671.7480, 11907.00
672.9070, 11832.00
674.0670, 11961.00
675.2260, 11944.00
676.3850, 11958.00
677.5440, 11902.00
678.7030, 11878.00
679.8610, 11863.00
681.0200, 11853.16
682.1780, 11954.00
683.3360, 11919.00
684.4940, 11885.00
685.6520, 12030.00
686.8090, 11972.00
687.9670, 11965.00
689.1240, 11945.00
690.2810, 11915.66
691.4380, 11873.00
692.5950, 11883.00
693.7520, 11978.00
694.9080, 11987.00
696.0650, 12065.00
697.2210, 12039.00
698.3770, 11973.00
699.5330, 12047.00
700.6880, 12020.00
701.8440, 12160.00
702.9990, 12021.00
704.1550, 12075.00
705.3100, 11999.00
706.4650, 12034.00
707.6190, 12078.00
708.7740, 12081.00
709.9290, 12151.00
711.0830, 12176.00
712.2370, 12133.00
713.3910, 12169.00
714.5450, 12201.00
715.6980, 12097.00
716.8520, 12348.00
718.0050, 12252.00
719.1580, 12407.00
720.3110, 12462.00
721.4640, 12378.00
722.6170, 12587.00
723.7700, 12482.00
724.9220, 12361.00
726.0740, 12373.00
727.2260, 12340.00
728.3780, 12481.00
729.5300, 12431.00
730.6810, 12336.00
731.8330, 12524.00
732.9840, 12505.00
734.1350, 12453.00
735.2860, 12631.00
736.4370, 12540.00
737.5880, 12493.00
738.7380, 12553.00
739.8880, 12534.89
741.0390, 12609.00
742.1890, 12636.00
743.3380, 12764.00
744.4880, 12868.00
745.6380, 12880.00
746.7870, 12899.00
747.9360, 12877.00
749.0850, 13079.00
750.2340, 13189.00
751.3830, 13163.00
752.5310, 13410.00
753.6800, 13590.00
754.8280, 14041.00
755.9760, 14161.00
757.1240, 14677.00
758.2720, 14966.00
759.4190, 15482.00
760.5670, 15697.00
761.7140, 16113.00
762.8610, 16497.00
764.0080, 16754.00
765.1550, 16835.00
766.3020, 16734.00
767.4480, 16388.00
768.5950, 16154.00
769.7410, 15679.00
770.8870, 15555.00
772.0330, 15292.00
773.1780, 15251.00
774.3240, 15301.00
775.4690, 15259.00
776.6140, 14920.00
777.7590, 14994.00
778.9040, 14892.00
780.0490, 14460.00
781.1940, 14244.00
782.3380, 13988.00
783.4820, 13823.00
784.6260, 13581.00
785.7700, 13507.00
786.9140, 13399.00
788.0580, 13461.00
789.2010, 13450.00
790.3450, 13406.00
791.4880, 13464.00
792.6310, 13349.00
793.7730, 13414.00
794.9160, 13358.00
796.0590, 13448.00
797.2010, 13487.00
798.3430, 13582.00
799.4850, 13502.00
800.6270, 13706.00
801.7690, 13864.00
802.9100, 13876.00
804.0520, 14149.00
805.1930, 14283.00
806.3340, 14565.00
807.4750, 14953.00
808.6160, 15308.00
809.7560, 15932.00
810.8970, 16483.00
812.0370, 16864.00
813.1770, 17372.00
814.3170, 17810.00
815.4570, 17974.00
816.5960, 17946.95
817.7360, 17925.00
818.8750, 17335.00
820.0140, 16737.00
821.1530, 15990.00
822.2920, 15327.00
823.4310, 14863.00
824.5690, 14672.00
825.7070, 14306.00
826.8460, 14188.00
827.9840, 13968.00
829.1220, 14053.00
830.2590, 13940.00
831.3970, 13825.00
832.5340, 13948.00
833.6710, 13884.00
834.8080, 13820.00
835.9450, 13889.00
837.0820, 13713.00
838.2190, 13668.00
839.3550, 13798.00
840.4910, 13717.00
841.6270, 13813.00
842.7630, 13752.00
843.8990, 13680.00
845.0350, 13611.00
846.1700, 13604.00
847.3060, 13828.00
848.4410, 13857.00
849.5760, 13718.00
850.7100, 13720.00
851.8450, 13683.00
852.9800, 13751.00
854.1140, 13595.00
855.2480, 13757.00
856.3820, 13826.00
857.5160, 13746.00
858.6500, 13756.00
859.7830, 13705.00
860.9170, 13779.00
862.0500, 13654.00
863.1830, 13677.00
864.3160, 13737.56
865.4480, 13937.00
866.5810, 13887.00
867.7130, 13861.00
868.8460, 13937.00
869.9780, 13818.00
871.1100, 13787.00
872.2410, 13939.00
873.3730, 13988.00
874.5050, 13931.00
875.6360, 13947.00
876.7670, 13891.00
877.8980, 13886.00
879.0290, 13974.00
880.1590, 13914.00
881.2900, 13938.00
882.4200, 13981.00
883.5500, 13974.00
884.6800, 13960.00
885.8100, 13921.00
886.9400, 14055.00
888.0690, 13953.00
889.1990, 13984.00
890.3280, 14111.00
891.4570, 14024.00
892.5860, 14151.00
893.7140, 14055.00
894.8430, 14160.00
895.9710, 14077.00
897.1000, 14261.00
898.2280, 14297.00
899.3560, 14281.00
900.4830, 14331.00
901.6110, 14155.00
902.7380, 14331.00
903.8660, 14292.00
904.9930, 14205.00
906.1200, 14403.00
907.2460, 14328.00
908.3730, 14305.00
909.5000, 14527.00
910.6260, 14473.00
911.7520, 14492.00
912.8780, 14529.00
914.0040, 14376.00
915.1290, 14534.00
916.2550, 14380.00
917.3800, 14385.00
918.5050, 14362.00
919.6300, 14551.00
920.7550, 14591.00
921.8800, 14564.00
923.0040, 14499.00
924.1290, 14522.13
925.2530, 14576.00
926.3770, 14521.00
927.5010, 14613.00
928.6250, 14648.00
929.7480, 14683.00
930.8720, 14641.00
931.9950, 14560.00
933.1180, 14592.00
934.2410, 14723.00
935.3640, 14586.00
936.4860, 14604.00
937.6090, 14834.00
938.7310, 14788.00
939.8530, 14907.00
940.9750, 14868.00
942.0970, 14925.78
943.2180, 14940.00
944.3400, 15019.00
945.4610, 14950.00
946.5820, 14987.00
947.7030, 15049.00
948.8240, 15127.00
949.9450, 15190.96
951.0650, 15223.00
952.1860, 15355.00
953.3060, 15395.00
954.4260, 15489.00
955.5460, 15612.00
956.6650, 15555.00
957.7850, 15517.00
958.9040, 15524.00
960.0230, 15562.00
961.1420, 15630.00
962.2610, 15604.66
963.3800, 15526.00
964.4990, 15580.00
965.6170, 15498.00
966.7350, 15478.00
967.8530, 15582.95
968.9710, 15839.00
970.0890, 15784.00
971.2070, 15960.00
972.3240, 16042.00
973.4410, 16094.00
974.5580, 16205.00
975.6750, 16287.00
976.7920, 16495.00
977.9090, 16636.00
979.0250, 16594.00
980.1410, 16416.00
981.2580, 16682.00
982.3740, 16446.00
983.4890, 16146.00
984.6050, 16061.00
985.7200, 16155.00
986.8360, 16078.00
987.9510, 16033.00
989.0660, 16081.00
990.1810, 16017.00
991.2950, 15957.00
992.4100, 16031.00
993.5240, 15858.00
994.6390, 15758.00
995.7530, 16015.00
996.8660, 16045.00
997.9800, 16034.00
999.0940, 16258.00
1000.207, 16291.29
1001.320, 16430.00
1002.433, 16465.00
1003.546, 16569.62
1004.659, 16706.00
1005.772, 16767.00
1006.884, 16833.00
1007.996, 16936.00
1009.108, 17046.00
1010.220, 17127.00
1011.332, 17203.00
1012.444, 17151.00
1013.555, 17304.00
1014.666, 17178.00
1015.777, 17159.00
1016.888, 17240.00
1017.999, 17076.00
1019.110, 16975.00
1020.220, 16851.00
1021.331, 16802.00
1022.441, 16674.00
1023.551, 16746.00
1024.661, 16513.00
1025.770, 16703.00
1026.880, 16663.00
1027.989, 16856.00
1029.098, 16777.00
1030.207, 16898.00
1031.316, 17028.00
1032.425, 17127.00
1033.533, 17035.00
1034.642, 17032.00
1035.750, 17139.00
1036.858, 16825.00
1037.966, 16858.00
1039.073, 16723.00
1040.181, 16682.00
1041.288, 16497.00
1042.396, 16706.00
1043.503, 16535.00
1044.610, 16459.00
1045.716, 16531.00
1046.823, 16470.00
1047.929, 16447.00
1049.036, 16514.00
1050.142, 16379.00
1051.248, 16362.00
1052.353, 16380.00
1053.459, 16398.00
1054.564, 16386.32
1055.670, 16327.00
1056.775, 16355.00
1057.880, 16370.00
1058.985, 16305.00
1060.089, 16401.00
1061.194, 16468.00
1062.298, 16630.00
1063.402, 16599.00
1064.506, 16483.00
1065.610, 16429.00
1066.713, 16580.00
1067.817, 16678.00
1068.920, 16839.00
1070.023, 16818.00
1071.126, 16847.00
1072.229, 17012.00
1073.332, 16917.00
1074.435, 16890.00
1075.537, 17138.00
1076.639, 17227.00
1077.741, 17401.00
1078.843, 17493.00
1079.945, 17544.00
1081.046, 17784.00
1082.148, 17939.00
1083.249, 18240.00
1084.350, 18336.00
1085.451, 18819.00
1086.551, 19089.00
1087.652, 19368.00
1088.752, 19928.00
1089.853, 20696.00
1090.953, 21244.00
1092.053, 22007.00
1093.152, 23024.00
1094.252, 24336.00
1095.351, 25189.00
1096.451, 26401.00
1097.550, 27052.00
1098.649, 28184.00
1099.748, 28350.00
1100.846, 28575.00
1101.945, 27917.00
1103.043, 27093.00
1104.141, 26529.00
1105.239, 25658.00
1106.337, 25016.00
1107.434, 24383.00
1108.532, 23977.00
1109.629, 23582.00
1110.726, 23392.00
1111.823, 23394.00
1112.920, 23186.00
1114.017, 23071.00
1115.113, 22935.80
1116.210, 22892.00
1117.306, 22575.00
1118.402, 22355.00
1119.498, 22089.00
1120.593, 21540.00
1121.689, 21072.00
1122.784, 20510.00
1123.879, 20253.00
1124.974, 19804.81
1126.069, 19262.00
1127.164, 19111.00
1128.259, 18688.00
1129.353, 18358.00
1130.447, 18268.00
1131.541, 17804.00
1132.635, 17691.00
1133.729, 17726.00
1134.822, 17515.00
1135.916, 17736.00
1137.009, 17432.00
1138.102, 17418.00
1139.195, 17455.00
1140.288, 17505.00
1141.380, 17295.00
1142.473, 17231.00
1143.565, 17176.00
1144.657, 17317.00
1145.749, 17153.00
1146.841, 17327.00
1147.932, 17229.00
1149.024, 17189.00
1150.115, 17195.00
1151.206, 17139.47
1152.297, 17392.00
1153.388, 17079.00
1154.479, 17392.00
1155.569, 17351.00
1156.659, 17188.00
1157.750, 17294.00
1158.839, 17049.00
1159.929, 17164.00
1161.019, 17098.00
1162.108, 17137.00
1163.198, 17146.00
1164.287, 17242.00
1165.376, 17146.00
1166.465, 17229.00
1167.553, 17170.00
1168.642, 17216.00
1169.730, 17217.00
1170.818, 17286.00
1171.906, 17250.28
1172.994, 17182.00
1174.082, 17163.00
1175.170, 17064.00
1176.257, 16957.00
1177.344, 16982.23
1178.431, 16969.87
1179.518, 17037.00
1180.605, 17071.00
1181.691, 17169.00
1182.778, 17244.00
1183.864, 17254.22
1184.950, 17191.00
1186.036, 17253.00
1187.122, 17198.00
1188.207, 17138.00
1189.292, 17230.00
1190.378, 17114.00
1191.463, 16942.00
1192.548, 17248.00
1193.632, 17217.00
1194.717, 17025.00
1195.801, 17183.00
1196.886, 17143.00
1197.970, 17306.00
1199.054, 17189.00
1200.137, 17079.00
1201.221, 17260.00
1202.305, 17134.00
1203.388, 17350.00
1204.471, 17255.00
1205.554, 17343.00
1206.637, 17251.00
1207.719, 17345.00
1208.802, 17338.00
1209.884, 17204.00
1210.966, 17328.00
1212.048, 17383.00
1213.130, 17420.00
1214.212, 17182.00
1215.293, 17213.00
1216.374, 17126.00
1217.456, 17510.00
1218.536, 17318.00
1219.617, 17606.00
1220.698, 17318.00
1221.778, 17399.00
1222.859, 17470.00
1223.939, 17597.00
1225.019, 17418.00
1226.099, 17488.00
1227.178, 17373.00
1228.258, 17596.00
1229.337, 17356.00
1230.417, 17541.00
1231.496, 17525.00
1232.574, 17356.00
1233.653, 17475.00
1234.732, 17602.00
1235.810, 17427.00
1236.888, 17500.00
1237.966, 17598.00
1239.044, 17524.00
1240.122, 17495.00
1241.199, 17573.00
1242.277, 17506.00
1243.354, 17504.00
1244.431, 17518.00
1245.508, 17693.00
1246.585, 17734.00
1247.661, 17822.00
1248.738, 17609.00
1249.814, 17570.00
1250.890, 17590.00
1251.966, 17760.00
1253.042, 17758.00
1254.117, 17681.00
1255.193, 17737.00
1256.268, 17648.00
1257.343, 17736.00
1258.418, 17681.00
1259.493, 17640.00
1260.567, 17807.00
1261.642, 17740.00
1262.716, 17676.00
1263.790, 17782.00
1264.864, 17817.00
1265.938, 17972.00
1267.011, 17889.00
1268.085, 17818.00
1269.158, 17717.00
1270.231, 17738.68
1271.304, 17854.00
1272.377, 17787.00
1273.450, 17980.00
1274.522, 18009.00
1275.594, 17934.00
1276.666, 18016.00
1277.738, 17757.00
1278.810, 17854.00
1279.882, 17798.00
1280.953, 17921.00
1282.025, 17959.00
1283.096, 17832.00
1284.167, 17986.00
1285.238, 17888.00
1286.308, 17881.00
1287.379, 18145.00
1288.449, 17888.00
1289.519, 17980.00
1290.589, 17893.00
1291.659, 17933.00
1292.729, 18048.00
1293.798, 18120.00
1294.868, 18060.00
1295.937, 18089.00
1297.006, 18077.00
1298.075, 18092.00
1299.143, 17987.00
1300.212, 17996.00
1301.280, 18053.00
1302.348, 18127.00
1303.416, 18152.00
1304.484, 18133.00
1305.552, 18014.00
1306.620, 18137.00
1307.687, 17990.00
1308.754, 18102.00
1309.821, 18321.00
1310.888, 18135.00
1311.955, 18124.00
1313.021, 18116.00
1314.088, 18096.00
1315.154, 18250.00
1316.220, 18224.00
1317.286, 18402.00
1318.352, 18173.00
1319.417, 18068.00
1320.483, 18047.00
1321.548, 18172.00
1322.613, 18247.00
1323.678, 18217.00
1324.743, 18215.00
1325.807, 18384.00
1326.872, 18210.00
1327.936, 18056.00
1329.000, 18203.00
1330.064, 18270.00
1331.128, 18459.00
1332.191, 18311.00
1333.255, 18273.00
1334.318, 18199.00
1335.381, 18479.00
1336.444, 18203.00
1337.507, 18389.00
1338.569, 18288.00
1339.632, 18351.00
1340.694, 18405.00
1341.756, 18274.00
1342.818, 18294.00
1343.880, 18363.00
1344.941, 18350.00
1346.003, 18329.00
1347.064, 18406.00
1348.125, 18532.00
1349.186, 18339.00
1350.247, 18600.00
1351.308, 18561.00
1352.368, 18326.00
1353.428, 18270.00
1354.489, 18369.00
1355.549, 18447.00
1356.608, 18263.00
1357.668, 18413.00
1358.727, 18382.00
1359.787, 18518.00
1360.846, 18530.00
1361.905, 18590.00
1362.964, 18700.00
1364.022, 18573.00
1365.081, 18486.00
1366.139, 18554.00
1367.197, 18564.00
1368.255, 18542.00
1369.313, 18480.00
1370.371, 18697.00
1371.428, 18610.00
1372.486, 18632.00
1373.543, 18563.00
1374.600, 18506.00
1375.657, 18536.00
1376.713, 18708.00
1377.770, 18641.00
1378.826, 18672.00
1379.882, 18550.00
1380.938, 18683.00
1381.994, 18771.00
1383.050, 18782.00
1384.106, 18655.00
1385.161, 18707.00
1386.216, 18581.00
1387.271, 18512.00
1388.326, 18729.00
1389.381, 18644.00
1390.435, 18677.00
1391.490, 18742.00
1392.544, 18635.00
1393.598, 18722.00
1394.652, 18609.00
1395.705, 18745.00
1396.759, 18772.00
1397.812, 18928.00
1398.866, 18881.00
1399.919, 18751.00
1400.972, 18875.00
1402.024, 18805.77
1403.077, 18828.84
1404.129, 18825.00
1405.181, 18839.00
1406.233, 18870.00
1407.285, 18797.00
1408.337, 18732.00
1409.389, 18909.00
1410.440, 18990.00
1411.491, 18800.00
1412.542, 19074.00
1413.593, 19017.00
1414.644, 19006.00
1415.695, 18692.00
1416.745, 18906.00
1417.795, 18917.00
1418.845, 18935.00
1419.895, 18998.00
1420.945, 19093.00
1421.995, 19111.42
1423.044, 19042.00
1424.093, 19148.00
1425.142, 19035.00
1426.191, 18949.00
1427.240, 19166.00
1428.289, 19058.02
1429.337, 19206.00
1430.385, 19091.00
1431.433, 18998.00
1432.481, 19032.00
1433.529, 19268.00
1434.577, 19102.00
1435.624, 19172.00
1436.672, 19137.00
1437.719, 19029.00
1438.766, 19193.00
1439.812, 19355.00
1440.859, 19243.00
1441.905, 19174.00
1442.952, 19538.00
1443.998, 19312.00
1445.044, 19156.00
1446.090, 19399.00
1447.135, 19247.00
1448.181, 19332.00
1449.226, 19225.00
1450.271, 19380.00
1451.316, 19183.00
1452.361, 19482.00
1453.405, 19314.00
1454.450, 19371.00
1455.494, 19572.00
1456.538, 19457.00
1457.582, 19518.21
1458.626, 19414.00
1459.670, 19432.00
1460.713, 19595.00
1461.757, 19492.00
1462.800, 19550.00
1463.843, 19362.00
1464.886, 19558.00
1465.928, 19383.00
1466.971, 19431.00
1468.013, 19400.00
1469.055, 19520.00
1470.097, 19553.00
1471.139, 19515.00
1472.181, 19530.01
1473.222, 19380.00
1474.263, 19441.00
1475.305, 19445.00
1476.346, 19396.00
1477.386, 19591.00
1478.427, 19403.00
1479.468, 19586.00
1480.508, 19650.00
1481.548, 19644.00
1482.588, 19615.00
1483.628, 19495.00
1484.668, 19675.00
1485.707, 19751.00
1486.747, 19591.00
1487.786, 19656.00
1488.825, 19778.00
1489.864, 19945.00
1490.902, 19705.00
1491.941, 19578.00
1492.979, 19656.00
1494.017, 19650.00
1495.055, 19527.00
1496.093, 19845.00
1497.131, 19813.00
1498.168, 19658.00
1499.206, 19721.00
1500.243, 19858.00
1501.280, 19663.00
1502.317, 19745.00
1503.354, 19857.00
1504.390, 19891.00
1505.426, 19932.18
1506.463, 19898.00
1507.499, 19897.00
1508.535, 19853.00
1509.570, 19863.73
1510.606, 19781.00
1511.641, 19881.00
1512.676, 19793.00
1513.711, 19799.00
1514.746, 20007.00
1515.781, 19768.00
1516.816, 20003.00
1517.850, 19954.00
1518.884, 20068.00
1519.918, 20021.00
1520.952, 20170.00
1521.986, 19849.00
1523.019, 20163.00
1524.053, 19984.00
1525.086, 19994.00
1526.119, 20154.00
1527.152, 19905.00
1528.185, 19945.00
1529.217, 19965.00
1530.250, 19958.00
1531.282, 20018.10
1532.314, 20160.00
1533.346, 20127.00
1534.377, 20154.00
1535.409, 20232.00
1536.440, 20183.00
1537.472, 20072.00
1538.503, 20176.00
1539.534, 20133.00
1540.564, 20279.00
1541.595, 20251.00
1542.625, 20398.00
1543.656, 20205.00
1544.686, 20170.00
1545.716, 20147.00
1546.745, 20254.00
1547.775, 20157.00
1548.804, 20381.00
1549.834, 20267.00
1550.863, 20278.00
1551.892, 20403.00
1552.920, 20444.00
1553.949, 20561.00
1554.977, 20554.26
1556.006, 20441.00
1557.034, 20520.00
1558.062, 20511.00
1559.089, 20475.00
1560.117, 20256.00
1561.144, 20340.00
1562.172, 20355.00
1563.199, 20287.00
1564.226, 20492.00
1565.252, 20397.00
1566.279, 20407.00
1567.305, 20520.00
1568.332, 20584.00
1569.358, 20548.00
1570.384, 20551.00
##END=



