##NAMES=Albite
##RRUFFID=R050253
##IDEAL CHEMISTRY=NaAlSi_3_O_8_
##LOCALITY=Madawaska/Faraday mine, Bancroft, Ontario, Canada
##OWNER=RRUFF
##SOURCE=Marcus Origlieri
##DESCRIPTION=Colorless to brown prismatic single crystals
##STATUS=The identification of this mineral has been confirmed by X-ray diffraction and chemical analysis
##URL=rruff.info/R050253
##MEASURED CHEMISTRY=(Na_0.99_Ca_0.01_)Al_1.00_(Si_0.99_Al_0.01_)_3_O_8_
##PIN_ID=L01398
##ORIENTATION=Laser parallel to a* (1 0 0). Fiducial mark perpendicular to laser is parallel to b [0 1 0]
87.30800, 12511.00
88.54200, 12360.00
89.77700, 12402.00
91.01200, 12673.00
92.24600, 13004.00
93.48000, 13001.00
94.71400, 13050.00
95.94800, 13376.00
97.18200, 13317.00
98.41600, 13561.00
99.64900, 14005.00
100.8830, 14480.00
102.1160, 14985.19
103.3490, 15390.00
104.5820, 16250.00
105.8150, 16955.00
107.0470, 17774.00
108.2800, 18399.00
109.5120, 18559.26
110.7440, 19535.00
111.9760, 18410.00
113.2080, 17740.00
114.4400, 17101.00
115.6710, 16997.00
116.9030, 16927.00
118.1340, 16426.00
119.3650, 16117.00
120.5960, 15629.00
121.8270, 15539.00
123.0580, 15530.00
124.2880, 15406.02
125.5190, 15610.00
126.7490, 15499.00
127.9790, 15659.00
129.2090, 15768.00
130.4390, 16166.00
131.6680, 16133.00
132.8980, 16534.00
134.1270, 16871.00
135.3560, 17227.00
136.5850, 17819.00
137.8140, 18285.00
139.0430, 18865.00
140.2710, 19518.00
141.5000, 19959.00
142.7280, 20305.00
143.9560, 20598.00
145.1840, 20772.00
146.4120, 21074.00
147.6390, 21211.00
148.8670, 21633.00
150.0940, 22201.00
151.3210, 23449.00
152.5490, 24735.00
153.7750, 26053.00
155.0020, 27305.00
156.2290, 28738.00
157.4550, 30289.00
158.6810, 31510.00
159.9080, 32723.00
161.1340, 33003.00
162.3590, 32834.00
163.5850, 31693.00
164.8110, 30867.00
166.0360, 30333.00
167.2610, 30018.00
168.4860, 29842.00
169.7110, 29604.00
170.9360, 29704.00
172.1610, 29566.00
173.3850, 30062.00
174.6100, 30580.00
175.8340, 31068.00
177.0580, 32021.00
178.2820, 33105.00
179.5050, 33746.00
180.7290, 34590.00
181.9520, 34920.00
183.1760, 35207.00
184.3990, 34873.00
185.6220, 33861.00
186.8450, 32781.00
188.0670, 31091.00
189.2900, 29703.00
190.5120, 28505.00
191.7340, 27560.00
192.9560, 26569.00
194.1780, 26015.00
195.4000, 25416.00
196.6220, 25527.00
197.8430, 25863.00
199.0640, 26408.00
200.2860, 27342.00
201.5070, 28421.00
202.7270, 29700.00
203.9480, 30440.00
205.1690, 30633.00
206.3890, 30738.00
207.6090, 30177.00
208.8290, 29265.00
210.0490, 27856.00
211.2690, 26230.00
212.4890, 24533.00
213.7080, 22979.00
214.9280, 21944.00
216.1470, 20938.00
217.3660, 20192.00
218.5850, 19667.00
219.8030, 19186.00
221.0220, 19194.00
222.2400, 18451.00
223.4590, 18469.00
224.6770, 18433.00
225.8950, 18235.00
227.1120, 18027.00
228.3300, 18048.00
229.5480, 17975.00
230.7650, 18072.00
231.9820, 17870.00
233.1990, 17879.00
234.4160, 17789.00
235.6330, 17902.00
236.8490, 18064.00
238.0660, 18183.00
239.2820, 18426.00
240.4980, 18639.00
241.7140, 19188.00
242.9300, 19591.00
244.1460, 20086.00
245.3610, 20318.00
246.5770, 20366.00
247.7920, 20741.00
249.0070, 20658.00
250.2220, 20571.00
251.4370, 20501.00
252.6510, 20223.00
253.8660, 19858.00
255.0800, 19740.00
256.2940, 19630.00
257.5080, 19416.00
258.7220, 19473.00
259.9360, 19782.00
261.1490, 19643.63
262.3630, 19900.00
263.5760, 19701.00
264.7890, 19926.00
266.0020, 20007.00
267.2150, 20041.00
268.4270, 20457.00
269.6400, 20457.00
270.8520, 20799.00
272.0640, 20993.00
273.2760, 21417.00
274.4880, 22154.00
275.7000, 22978.00
276.9120, 24284.00
278.1230, 25779.00
279.3340, 27805.00
280.5450, 30926.00
281.7560, 33927.00
282.9670, 37862.00
284.1780, 41271.00
285.3880, 44229.00
286.5980, 46855.00
287.8090, 48937.00
289.0190, 49007.00
290.2290, 47643.00
291.4380, 45029.00
292.6480, 41153.00
293.8570, 37216.00
295.0670, 33524.00
296.2760, 30522.00
297.4850, 28073.00
298.6930, 25932.00
299.9020, 24276.00
301.1110, 23095.00
302.3190, 22349.00
303.5270, 21845.00
304.7350, 21239.00
305.9430, 21141.00
307.1510, 20944.00
308.3580, 20640.00
309.5660, 20633.00
310.7730, 20487.00
311.9800, 20511.00
313.1870, 20580.00
314.3940, 20426.00
315.6010, 20513.00
316.8070, 20888.00
318.0130, 21080.00
319.2200, 22210.00
320.4260, 23200.00
321.6310, 23987.00
322.8370, 24822.00
324.0430, 25633.00
325.2480, 25975.00
326.4540, 26487.00
327.6590, 26209.00
328.8640, 25783.00
330.0680, 24804.00
331.2730, 23694.00
332.4780, 22890.00
333.6820, 22059.00
334.8860, 21314.00
336.0900, 21018.00
337.2940, 20327.00
338.4980, 20107.00
339.7010, 20165.00
340.9050, 19856.00
342.1080, 19974.00
343.3110, 20019.00
344.5140, 19952.00
345.7170, 20022.00
346.9200, 20089.00
348.1220, 19939.00
349.3240, 19836.00
350.5270, 19987.00
351.7290, 19763.00
352.9310, 19930.00
354.1320, 19820.00
355.3340, 19882.00
356.5350, 19517.00
357.7370, 19572.00
358.9380, 19649.00
360.1390, 19626.00
361.3400, 19729.00
362.5400, 19591.00
363.7410, 19579.00
364.9410, 19688.00
366.1410, 19649.00
367.3410, 19661.00
368.5410, 19790.00
369.7410, 19791.00
370.9400, 19653.00
372.1400, 19683.00
373.3390, 19676.31
374.5380, 19810.00
375.7370, 19764.00
376.9360, 19858.00
378.1350, 19985.00
379.3330, 20183.00
380.5310, 19973.00
381.7300, 20096.00
382.9280, 19920.00
384.1260, 19952.00
385.3230, 20134.00
386.5210, 20173.00
387.7180, 20289.64
388.9160, 20428.25
390.1130, 20509.00
391.3100, 20724.00
392.5060, 20861.00
393.7030, 21076.00
394.9000, 21013.00
396.0960, 21388.00
397.2920, 21514.00
398.4880, 21907.00
399.6840, 21999.00
400.8800, 22499.00
402.0750, 22760.00
403.2710, 22836.00
404.4660, 23286.00
405.6610, 23212.00
406.8560, 23316.00
408.0510, 23058.00
409.2450, 23084.00
410.4400, 23057.00
411.6340, 22634.00
412.8280, 22583.00
414.0220, 22347.00
415.2160, 22046.00
416.4100, 21895.00
417.6030, 21527.00
418.7970, 21484.00
419.9900, 21421.00
421.1830, 21467.00
422.3760, 21368.91
423.5690, 20981.00
424.7610, 21227.00
425.9540, 21004.00
427.1460, 20911.00
428.3380, 21105.00
429.5300, 20947.00
430.7220, 20847.00
431.9140, 20867.00
433.1050, 20845.92
434.2970, 20876.81
435.4880, 20985.00
436.6790, 20968.00
437.8700, 21104.00
439.0610, 21107.00
440.2510, 21179.00
441.4420, 21289.00
442.6320, 21402.00
443.8220, 21602.00
445.0120, 21599.00
446.2020, 21680.00
447.3910, 21619.00
448.5810, 21823.00
449.7700, 22024.00
450.9600, 22212.00
452.1490, 22529.00
453.3370, 22874.00
454.5260, 23140.00
455.7150, 23064.00
456.9030, 23132.00
458.0910, 23196.00
459.2800, 23249.00
460.4670, 23377.00
461.6550, 23515.00
462.8430, 23647.00
464.0300, 24007.00
465.2180, 24816.00
466.4050, 25375.00
467.5920, 26583.00
468.7790, 27971.00
469.9650, 30006.00
471.1520, 32600.00
472.3380, 34965.00
473.5250, 37480.00
474.7110, 39582.00
475.8970, 41607.00
477.0820, 42351.00
478.2680, 41859.00
479.4540, 39946.00
480.6390, 37296.00
481.8240, 34937.00
483.0090, 32700.00
484.1940, 30728.00
485.3780, 29412.00
486.5630, 28411.00
487.7470, 27823.00
488.9320, 27766.00
490.1160, 27790.00
491.3000, 27997.00
492.4830, 28878.00
493.6670, 29648.00
494.8500, 30827.00
496.0340, 33030.00
497.2170, 36125.00
498.4000, 39970.00
499.5820, 44438.00
500.7650, 49453.00
501.9480, 54634.00
503.1300, 58723.00
504.3120, 62080.00
505.4940, 63471.00
506.6760, 62325.00
507.8580, 59081.00
509.0390, 54050.00
510.2210, 48773.00
511.4020, 43596.00
512.5830, 39376.00
513.7640, 35616.00
514.9450, 32971.00
516.1250, 31071.00
517.3060, 29332.00
518.4860, 28463.00
519.6660, 27522.00
520.8460, 26760.00
522.0260, 26186.00
523.2060, 25908.00
524.3850, 25622.00
525.5650, 25199.00
526.7440, 25227.00
527.9230, 24896.00
529.1020, 24760.00
530.2810, 24561.00
531.4590, 24494.00
532.6380, 24294.00
533.8160, 24282.00
534.9940, 24080.00
536.1720, 24131.00
537.3500, 24178.00
538.5270, 24089.00
539.7050, 24055.00
540.8820, 23813.00
542.0590, 24036.00
543.2360, 23954.00
544.4130, 24210.00
545.5900, 23899.00
546.7660, 23599.00
547.9430, 24011.00
549.1190, 24018.00
550.2950, 24007.00
551.4710, 23930.00
552.6470, 23996.00
553.8220, 24109.00
554.9980, 23831.00
556.1730, 23961.00
557.3480, 24116.00
558.5230, 23925.00
559.6980, 23968.00
560.8730, 24115.00
562.0470, 23976.00
563.2220, 24138.00
564.3960, 24180.00
565.5700, 24342.00
566.7440, 24281.00
567.9170, 24354.00
569.0910, 24718.00
570.2640, 24659.00
571.4380, 24770.00
572.6110, 25201.00
573.7840, 25490.00
574.9570, 25519.00
576.1290, 25432.00
577.3020, 25666.00
578.4740, 25605.00
579.6460, 25512.00
580.8180, 25259.00
581.9900, 25176.00
583.1620, 24945.00
584.3330, 24752.00
585.5040, 24740.00
586.6760, 24583.00
587.8470, 24417.00
589.0180, 24399.00
590.1880, 24339.82
591.3590, 24235.00
592.5290, 24375.00
593.7000, 24479.00
594.8700, 24554.00
596.0400, 24491.00
597.2090, 24550.00
598.3790, 24499.00
599.5490, 24442.00
600.7180, 24599.00
601.8870, 24800.00
603.0560, 24711.00
604.2250, 24876.00
605.3940, 24842.00
606.5620, 24860.00
607.7300, 25066.00
608.8990, 24991.00
610.0670, 25094.00
611.2350, 25020.00
612.4020, 25180.00
613.5700, 25147.00
614.7370, 25113.00
615.9050, 25437.00
617.0720, 25384.00
618.2390, 25437.00
619.4060, 25307.00
620.5720, 25449.00
621.7390, 25324.00
622.9050, 25565.00
624.0710, 25702.00
625.2370, 25922.00
626.4030, 26074.00
627.5690, 26282.00
628.7340, 26218.00
629.9000, 26595.00
631.0650, 26532.00
632.2300, 26453.00
633.3950, 26330.00
634.5600, 26471.00
635.7240, 26378.00
636.8890, 26350.00
638.0530, 26660.00
639.2170, 26538.00
640.3810, 26642.00
641.5450, 26738.00
642.7080, 26663.00
643.8720, 26997.00
645.0350, 27005.00
646.1980, 26936.00
647.3610, 26807.00
648.5240, 26779.00
649.6870, 26351.00
650.8490, 26298.00
652.0120, 26119.00
653.1740, 26044.00
654.3360, 26081.00
655.4980, 25996.00
656.6600, 25881.00
657.8210, 25846.00
658.9830, 25798.00
660.1440, 25796.00
661.3050, 25773.00
662.4660, 25809.00
663.6270, 25794.90
664.7870, 25875.00
665.9480, 25829.00
667.1080, 25878.00
668.2680, 25964.00
669.4280, 26015.00
670.5880, 26148.00
671.7480, 26098.00
672.9070, 26140.00
674.0670, 26145.00
675.2260, 25920.00
676.3850, 25994.00
677.5440, 25865.00
678.7030, 26005.00
679.8610, 25965.00
681.0200, 25903.00
682.1780, 26034.00
683.3360, 25753.00
684.4940, 25632.00
685.6520, 25835.00
686.8090, 25877.00
687.9670, 25767.00
689.1240, 25894.00
690.2810, 25829.00
691.4380, 25866.00
692.5950, 25704.00
693.7520, 25790.00
694.9080, 25642.00
696.0650, 25809.00
697.2210, 25729.00
698.3770, 26058.00
699.5330, 26056.00
700.6880, 25984.00
701.8440, 25933.00
702.9990, 25876.00
704.1550, 26117.00
705.3100, 26105.00
706.4650, 26133.00
707.6190, 26142.00
708.7740, 26109.00
709.9290, 26228.00
711.0830, 26201.42
712.2370, 26459.00
713.3910, 26263.00
714.5450, 26398.00
715.6980, 26500.00
716.8520, 26390.00
718.0050, 26268.00
719.1580, 26309.00
720.3110, 26479.00
721.4640, 26339.00
722.6170, 26511.00
723.7700, 26483.00
724.9220, 26564.00
726.0740, 26359.00
727.2260, 26665.00
728.3780, 26504.00
729.5300, 26565.00
730.6810, 26602.00
731.8330, 26702.00
732.9840, 26640.00
734.1350, 26525.00
735.2860, 26570.00
736.4370, 26697.00
737.5880, 26817.00
738.7380, 26799.00
739.8880, 26802.00
741.0390, 26790.00
742.1890, 26891.29
743.3380, 26573.00
744.4880, 27029.00
745.6380, 26997.00
746.7870, 26855.00
747.9360, 27217.00
749.0850, 27267.00
750.2340, 27302.00
751.3830, 27583.00
752.5310, 27356.00
753.6800, 27600.00
754.8280, 28041.00
755.9760, 28176.00
757.1240, 28658.00
758.2720, 28670.00
759.4190, 29191.00
760.5670, 29401.00
761.7140, 29537.00
762.8610, 29646.00
764.0080, 29595.00
765.1550, 29102.00
766.3020, 28706.00
767.4480, 28592.00
768.5950, 28508.00
769.7410, 28583.00
770.8870, 28314.00
772.0330, 28341.00
773.1780, 28375.00
774.3240, 28532.00
775.4690, 28458.27
776.6140, 28234.00
777.7590, 28335.00
778.9040, 28182.00
780.0490, 28016.00
781.1940, 27936.00
782.3380, 27859.00
783.4820, 27773.00
784.6260, 27821.00
785.7700, 27977.00
786.9140, 27843.00
788.0580, 28002.00
789.2010, 28063.00
790.3450, 28068.00
791.4880, 27955.00
792.6310, 27966.00
793.7730, 28075.00
794.9160, 28155.00
796.0590, 28072.00
797.2010, 28285.00
798.3430, 28302.00
799.4850, 28536.00
800.6270, 28458.00
801.7690, 28610.00
802.9100, 28887.00
804.0520, 29192.00
805.1930, 29558.00
806.3340, 29713.00
807.4750, 30409.00
808.6160, 30787.00
809.7560, 31501.00
810.8970, 32434.00
812.0370, 32864.00
813.1770, 33017.00
814.3170, 33168.00
815.4570, 32856.00
816.5960, 32508.00
817.7360, 31975.00
818.8750, 31194.00
820.0140, 30692.00
821.1530, 29938.00
822.2920, 29544.00
823.4310, 29512.00
824.5690, 29414.00
825.7070, 29354.00
826.8460, 29137.00
827.9840, 29086.00
829.1220, 29073.00
830.2590, 29017.00
831.3970, 29016.00
832.5340, 29027.00
833.6710, 28973.00
834.8080, 29066.00
835.9450, 29071.00
837.0820, 28937.00
838.2190, 29170.00
839.3550, 28931.00
840.4910, 29007.00
841.6270, 28931.00
842.7630, 29112.00
843.8990, 29169.00
845.0350, 29006.00
846.1700, 28924.00
847.3060, 29252.00
848.4410, 28987.00
849.5760, 29014.00
850.7100, 29293.00
851.8450, 28987.00
852.9800, 29126.00
854.1140, 29189.00
855.2480, 29259.00
856.3820, 29422.00
857.5160, 29384.00
858.6500, 29314.00
859.7830, 29411.00
860.9170, 29205.00
862.0500, 29260.00
863.1830, 29460.00
864.3160, 29365.00
865.4480, 29139.00
866.5810, 29392.00
867.7130, 29377.00
868.8460, 29538.00
869.9780, 29569.00
871.1100, 29667.00
872.2410, 29543.00
873.3730, 29447.00
874.5050, 29374.00
875.6360, 29319.00
876.7670, 29378.00
877.8980, 29653.00
879.0290, 29594.00
880.1590, 29608.00
881.2900, 29844.00
882.4200, 29720.00
883.5500, 29662.00
884.6800, 29822.00
885.8100, 29802.00
886.9400, 29759.00
888.0690, 29791.00
889.1990, 29906.00
890.3280, 29945.00
891.4570, 29932.00
892.5860, 29990.00
893.7140, 30187.00
894.8430, 29913.00
895.9710, 29957.00
897.1000, 29750.00
898.2280, 30079.00
899.3560, 30076.00
900.4830, 30182.00
901.6110, 30100.00
902.7380, 30418.00
903.8660, 30408.00
904.9930, 30292.00
906.1200, 30394.00
907.2460, 30304.00
908.3730, 30327.49
909.5000, 30533.00
910.6260, 30413.00
911.7520, 30525.00
912.8780, 30694.00
914.0040, 30623.00
915.1290, 30741.00
916.2550, 30513.00
917.3800, 30508.00
918.5050, 30499.00
919.6300, 30715.00
920.7550, 30755.00
921.8800, 30808.00
923.0040, 30903.61
924.1290, 30726.00
925.2530, 31015.00
926.3770, 30848.00
927.5010, 30915.00
928.6250, 31026.00
929.7480, 31078.00
930.8720, 30821.00
931.9950, 31064.00
933.1180, 31197.00
934.2410, 31086.00
935.3640, 31482.00
936.4860, 31254.00
937.6090, 31285.00
938.7310, 31315.00
939.8530, 31377.00
940.9750, 31402.00
942.0970, 31382.00
943.2180, 31481.00
944.3400, 31405.00
945.4610, 31714.00
946.5820, 31591.00
947.7030, 31599.00
948.8240, 31940.00
949.9450, 31726.00
951.0650, 31869.00
952.1860, 32027.00
953.3060, 31835.00
954.4260, 31807.00
955.5460, 32061.00
956.6650, 32088.00
957.7850, 31877.00
958.9040, 31916.00
960.0230, 32079.00
961.1420, 32017.00
962.2610, 31790.00
963.3800, 32098.00
964.4990, 32042.00
965.6170, 32094.00
966.7350, 32185.00
967.8530, 32599.00
968.9710, 32247.00
970.0890, 32597.00
971.2070, 32560.00
972.3240, 32378.00
973.4410, 32929.00
974.5580, 33078.00
975.6750, 33061.00
976.7920, 33155.00
977.9090, 33257.00
979.0250, 33276.00
980.1410, 33402.00
981.2580, 33068.00
982.3740, 32874.00
983.4890, 33016.00
984.6050, 33139.00
985.7200, 33186.00
986.8360, 33032.00
987.9510, 33324.00
989.0660, 33166.00
990.1810, 33431.00
991.2950, 33287.00
992.4100, 33270.00
993.5240, 33447.00
994.6390, 33349.00
995.7530, 33582.00
996.8660, 33617.00
997.9800, 33783.00
999.0940, 34118.12
1000.207, 34377.00
1001.320, 34843.00
1002.433, 35688.00
1003.546, 36121.00
1004.659, 36942.00
1005.772, 38485.00
1006.884, 40157.00
1007.996, 40400.00
1009.108, 39487.00
1010.220, 38547.00
1011.332, 37711.00
1012.444, 36756.00
1013.555, 36114.00
1014.666, 35397.00
1015.777, 35285.00
1016.888, 35073.00
1017.999, 35030.00
1019.110, 34845.00
1020.220, 34886.00
1021.331, 35005.00
1022.441, 35202.00
1023.551, 35513.00
1024.661, 35490.00
1025.770, 36056.00
1026.880, 36413.00
1027.989, 36944.00
1029.098, 36954.98
1030.207, 36976.50
1031.316, 36726.00
1032.425, 36720.00
1033.533, 36281.00
1034.642, 36341.00
1035.750, 35658.00
1036.858, 35460.00
1037.966, 35426.00
1039.073, 35437.00
1040.181, 35037.00
1041.288, 34770.00
1042.396, 34873.00
1043.503, 35009.00
1044.610, 34563.00
1045.716, 34913.00
1046.823, 34861.00
1047.929, 34734.00
1049.036, 34640.00
1050.142, 34652.52
1051.248, 34790.00
1052.353, 34778.00
1053.459, 34631.00
1054.564, 34874.00
1055.670, 35008.00
1056.775, 34518.00
1057.880, 34770.00
1058.985, 34668.00
1060.089, 34917.00
1061.194, 34998.00
1062.298, 35017.00
1063.402, 34853.00
1064.506, 35187.00
1065.610, 35125.00
1066.713, 35079.00
1067.817, 35162.00
1068.920, 35198.00
1070.023, 35136.00
1071.126, 35258.00
1072.229, 35363.00
1073.332, 35329.00
1074.435, 35676.00
1075.537, 35525.00
1076.639, 35401.00
1077.741, 35233.00
1078.843, 35640.00
1079.945, 35854.00
1081.046, 35943.00
1082.148, 36152.00
1083.249, 36173.00
1084.350, 36039.00
1085.451, 36421.00
1086.551, 36417.00
1087.652, 36658.00
1088.752, 36876.00
1089.853, 37264.00
1090.953, 37612.00
1092.053, 37988.00
1093.152, 38626.00
1094.252, 38997.00
1095.351, 39531.00
1096.451, 39859.00
1097.550, 40157.00
1098.649, 40524.00
1099.748, 40460.00
1100.846, 40486.00
1101.945, 39967.00
1103.043, 39890.00
1104.141, 39484.00
1105.239, 38998.00
1106.337, 39169.00
1107.434, 38857.00
1108.532, 38870.00
1109.629, 38940.00
1110.726, 38898.00
1111.823, 38867.00
1112.920, 38925.00
1114.017, 38645.00
1115.113, 38886.00
1116.210, 38822.00
1117.306, 38779.00
1118.402, 38539.00
1119.498, 38677.00
1120.593, 38719.00
1121.689, 38411.00
1122.784, 38358.00
1123.879, 38258.00
1124.974, 38052.00
1126.069, 37787.00
1127.164, 37979.00
1128.259, 37560.00
1129.353, 37617.00
1130.447, 37356.00
1131.541, 37322.00
1132.635, 37275.00
1133.729, 37365.00
1134.822, 37634.00
1135.916, 37347.00
1137.009, 37804.00
1138.102, 37234.00
1139.195, 37325.00
1140.288, 37499.00
1141.380, 37329.00
1142.473, 37360.00
1143.565, 37214.00
1144.657, 37254.00
1145.749, 36909.00
1146.841, 37404.00
1147.932, 37384.00
1149.024, 37181.00
1150.115, 37573.00
1151.206, 37337.00
1152.297, 37266.00
1153.388, 37423.00
1154.479, 37526.00
1155.569, 37298.00
1156.659, 37456.00
1157.750, 37501.00
1158.839, 37324.00
1159.929, 37353.00
1161.019, 37333.00
1162.108, 37488.00
1163.198, 37668.00
1164.287, 37789.00
1165.376, 37450.00
1166.465, 37762.00
1167.553, 37648.00
1168.642, 37768.00
1169.730, 37807.00
1170.818, 37816.00
1171.906, 37874.00
1172.994, 37932.00
1174.082, 37758.00
1175.170, 37814.00
1176.257, 38079.00
1177.344, 37860.00
1178.431, 37996.00
1179.518, 37758.00
1180.605, 38054.00
1181.691, 38178.00
1182.778, 37909.00
1183.864, 38238.00
1184.950, 37819.00
1186.036, 38089.00
1187.122, 37962.00
1188.207, 38283.00
1189.292, 38331.00
1190.378, 38255.00
1191.463, 38307.00
1192.548, 38249.34
1193.632, 38157.00
1194.717, 38208.00
1195.801, 38231.00
1196.886, 38339.00
1197.970, 38329.00
1199.054, 38337.00
1200.137, 38679.00
1201.221, 38528.00
1202.305, 38687.00
1203.388, 38574.00
1204.471, 38588.00
1205.554, 38594.00
1206.637, 38799.00
1207.719, 38568.00
1208.802, 39003.00
1209.884, 38653.00
1210.966, 38870.00
1212.048, 38710.00
1213.130, 38807.00
1214.212, 38866.00
1215.293, 39025.00
1216.374, 39113.00
1217.456, 39061.75
1218.536, 39131.00
1219.617, 38998.00
1220.698, 38978.00
1221.778, 39117.00
1222.859, 39164.00
1223.939, 39271.00
1225.019, 39125.00
1226.099, 39362.00
1227.178, 39193.00
1228.258, 39256.00
1229.337, 39379.00
1230.417, 39237.00
1231.496, 39438.00
1232.574, 39613.00
1233.653, 39774.00
1234.732, 39481.00
1235.810, 39585.00
1236.888, 39569.00
1237.966, 39633.00
1239.044, 39682.00
1240.122, 39750.00
1241.199, 39725.00
1242.277, 39856.00
1243.354, 39776.00
1244.431, 39634.00
1245.508, 39944.00
1246.585, 39723.00
1247.661, 39771.00
1248.738, 39934.00
1249.814, 40321.00
1250.890, 40045.00
1251.966, 40495.00
1253.042, 40219.00
1254.117, 40320.00
1255.193, 40361.00
1256.268, 40457.00
1257.343, 40301.00
1258.418, 40391.00
1259.493, 40406.00
1260.567, 40356.00
1261.642, 40823.00
1262.716, 40514.00
1263.790, 40577.00
1264.864, 40798.00
1265.938, 40549.00
1267.011, 40401.00
1268.085, 40778.00
1269.158, 40726.00
1270.231, 41029.00
1271.304, 41456.00
1272.377, 41221.00
1273.450, 40903.00
1274.522, 41219.00
1275.594, 41209.00
1276.666, 41227.00
1277.738, 41381.00
1278.810, 41389.00
1279.882, 41397.00
1280.953, 41621.00
1282.025, 41619.00
1283.096, 41499.00
1284.167, 41585.00
1285.238, 41693.00
1286.308, 41522.00
1287.379, 41725.00
1288.449, 41839.00
1289.519, 41875.00
1290.589, 41875.00
1291.659, 42085.00
1292.729, 42030.00
1293.798, 42111.00
1294.868, 42046.00
1295.937, 42234.00
1297.006, 42354.00
1298.075, 42315.00
1299.143, 42703.00
1300.212, 42384.00
1301.280, 42574.00
1302.348, 42593.00
1303.416, 42446.00
1304.484, 42674.00
1305.552, 42788.00
1306.620, 42829.00
1307.687, 43058.00
1308.754, 42997.00
1309.821, 43053.84
1310.888, 43274.00
1311.955, 43089.00
1313.021, 43259.00
1314.088, 43408.00
1315.154, 43104.00
1316.220, 43236.00
1317.286, 43278.00
1318.352, 43264.00
1319.417, 43330.49
1320.483, 43196.00
1321.548, 43308.00
1322.613, 43449.00
1323.678, 43319.00
1324.743, 43594.00
1325.807, 43535.00
1326.872, 43243.00
1327.936, 43193.00
1329.000, 43351.00
1330.064, 43396.00
1331.128, 43318.00
1332.191, 43201.00
1333.255, 43571.00
1334.318, 43169.00
1335.381, 43173.00
1336.444, 43544.00
1337.507, 43540.00
1338.569, 43374.00
1339.632, 43373.00
1340.694, 43478.00
1341.756, 43385.00
1342.818, 43652.00
1343.880, 43323.00
1344.941, 43522.00
1346.003, 43558.00
1347.064, 43378.00
1348.125, 43443.00
1349.186, 43489.00
1350.247, 43292.00
1351.308, 43627.00
1352.368, 43587.00
1353.428, 43473.00
1354.489, 43807.00
1355.549, 43543.00
1356.608, 43703.00
1357.668, 43488.00
1358.727, 43537.00
1359.787, 43522.00
1360.846, 43778.00
1361.905, 43587.00
1362.964, 43634.00
1364.022, 43472.00
1365.081, 43737.00
1366.139, 43860.00
1367.197, 43633.00
1368.255, 43806.00
1369.313, 43839.00
1370.371, 43774.00
1371.428, 43961.00
1372.486, 43590.00
1373.543, 43943.00
1374.600, 43693.00
1375.657, 43824.00
1376.713, 43972.00
1377.770, 43654.00
1378.826, 44028.00
1379.882, 44178.00
1380.938, 43772.00
1381.994, 43818.00
1383.050, 44099.00
1384.106, 43687.00
1385.161, 44124.00
1386.216, 43934.00
1387.271, 43880.00
1388.326, 43930.00
1389.381, 43810.00
1390.435, 44106.00
1391.490, 44131.00
1392.544, 44320.00
1393.598, 44305.00
1394.652, 44232.00
1395.705, 43994.00
1396.759, 44043.00
1397.812, 44282.00
1398.866, 44112.00
1399.919, 44207.00
1400.972, 44105.00
1402.024, 44365.00
1403.077, 44131.00
1404.129, 44599.00
1405.181, 44820.00
1406.233, 44380.00
1407.285, 44556.00
1408.337, 44417.00
1409.389, 44297.00
1410.440, 44303.00
1411.491, 44685.00
1412.542, 44501.00
1413.593, 44713.00
1414.644, 44592.00
1415.695, 44804.00
1416.745, 44636.00
1417.795, 44544.00
1418.845, 44868.00
1419.895, 44623.00
1420.945, 44725.00
1421.995, 44739.00
1423.044, 44851.00
1424.093, 44832.00
1425.142, 44978.00
1426.191, 44982.00
1427.240, 45358.00
1428.289, 44923.00
1429.337, 44817.00
1430.385, 45045.00
1431.433, 45267.00
1432.481, 45463.00
1433.529, 45283.00
1434.577, 45385.00
1435.624, 45216.00
1436.672, 45201.00
1437.719, 45455.00
1438.766, 45198.00
1439.812, 45484.00
1440.859, 45554.00
1441.905, 45416.00
1442.952, 45506.00
1443.998, 45709.00
1445.044, 45687.00
1446.090, 45786.00
1447.135, 45869.00
1448.181, 45586.00
1449.226, 45427.00
1450.271, 45548.00
1451.316, 45571.00
1452.361, 45672.00
1453.405, 45722.90
1454.450, 45677.00
1455.494, 45809.00
1456.538, 45821.48
1457.582, 45992.00
1458.626, 45941.00
1459.670, 45997.00
1460.713, 46084.00
1461.757, 46047.00
1462.800, 46203.00
1463.843, 46193.00
1464.886, 46234.00
1465.928, 46124.00
1466.971, 46355.00
1468.013, 46065.00
1469.055, 46441.00
1470.097, 46563.00
1471.139, 46390.00
1472.181, 46363.00
1473.222, 46594.00
1474.263, 46487.00
1475.305, 46799.00
1476.346, 46356.00
1477.386, 46533.00
1478.427, 46485.00
1479.468, 46626.00
1480.508, 46781.00
1481.548, 46680.00
1482.588, 47022.00
1483.628, 46920.00
1484.668, 46656.00
1485.707, 46937.00
1486.747, 46933.00
1487.786, 47346.00
1488.825, 47049.00
1489.864, 46964.00
1490.902, 46994.00
1491.941, 46898.42
1492.979, 46977.00
1494.017, 46991.00
1495.055, 47059.00
1496.093, 47238.00
1497.131, 47244.00
1498.168, 47417.00
1499.206, 47390.00
1500.243, 47385.00
1501.280, 47229.00
1502.317, 47490.00
1503.354, 47679.00
1504.390, 47703.00
1505.426, 47573.00
1506.463, 47742.00
1507.499, 47583.00
1508.535, 47882.00
1509.570, 47685.00
1510.606, 47856.00
1511.641, 47807.00
1512.676, 47921.00
1513.711, 48019.00
1514.746, 48220.00
1515.781, 47966.00
1516.816, 48210.00
1517.850, 48202.00
1518.884, 48076.00
1519.918, 48098.00
1520.952, 48190.02
1521.986, 48254.87
1523.019, 48391.00
1524.053, 48533.00
1525.086, 48486.00
1526.119, 48581.00
1527.152, 48470.00
1528.185, 48770.00
1529.217, 48601.00
1530.250, 48764.00
1531.282, 48926.00
1532.314, 48535.00
1533.346, 48736.00
1534.377, 48938.00
1535.409, 49119.00
1536.440, 48981.00
1537.472, 49000.00
1538.503, 49387.00
1539.534, 49084.00
1540.564, 49605.00
1541.595, 49210.00
1542.625, 49160.00
1543.656, 49289.00
1544.686, 49356.00
1545.716, 49585.00
1546.745, 49531.00
1547.775, 49462.00
1548.804, 49944.00
1549.834, 49826.00
1550.863, 49828.00
1551.892, 49889.00
1552.920, 49866.42
1553.949, 49852.00
1554.977, 50064.00
1556.006, 49958.00
1557.034, 50313.00
1558.062, 50142.00
1559.089, 50014.00
1560.117, 50312.00
1561.144, 50193.00
1562.172, 50096.00
1563.199, 50239.00
1564.226, 50336.00
1565.252, 50284.00
1566.279, 50716.00
1567.305, 50310.00
1568.332, 50545.00
1569.358, 50795.00
1570.384, 50935.00
##END=



