##NAMES=Albite
##RRUFFID=R040068
##IDEAL CHEMISTRY=NaAlSi_3_O_8_
##LOCALITY=Harding Pegmatite, Dixon, New Mexico, USA
##OWNER=RRUFF
##SOURCE=University of Arizona Mineral Museum
##DESCRIPTION=Tan colored crystal fragment
##STATUS=The identification of this mineral has been confirmed by X-ray diffraction and chemical analysis
##URL=rruff.info/R040068
##MEASURED CHEMISTRY=(Na_0.99_Ca_0.01_)Al_1.00_(Si_0.99_Al_0.01_)_3_O_8_
##PIN_ID=M00167
##ORIENTATION=Laser parallel to (-1 -1 0). Fiducial mark perpendicular to laser is parallel to -c [0 0 -1]
99.45300, 4418.000
100.8480, 4619.000
102.2420, 4807.000
103.6360, 5084.000
105.0300, 5485.000
106.4230, 5918.000
107.8170, 6648.000
109.2100, 7578.000
110.6030, 8734.000
111.9960, 9491.000
113.3880, 9990.000
114.7800, 9885.000
116.1720, 9544.000
117.5640, 8843.000
118.9560, 8053.000
120.3470, 7603.000
121.7380, 7226.000
123.1290, 6978.000
124.5190, 6886.000
125.9100, 6677.000
127.3000, 6640.000
128.6900, 6696.000
130.0800, 6617.000
131.4690, 6660.000
132.8580, 6642.000
134.2480, 6640.000
135.6360, 6669.000
137.0250, 6727.000
138.4130, 6781.000
139.8010, 6907.000
141.1890, 6921.000
142.5770, 7138.000
143.9640, 7350.000
145.3520, 7800.000
146.7390, 8281.000
148.1250, 8678.000
149.5120, 8962.000
150.8980, 9109.000
152.2840, 9030.000
153.6700, 8876.000
155.0560, 8517.000
156.4410, 8382.000
157.8270, 8174.143
159.2120, 8191.175
160.5960, 8181.363
161.9810, 8146.085
163.3650, 8009.230
164.7490, 8003.583
166.1330, 7945.353
167.5170, 7777.000
168.9000, 7752.000
170.2830, 7616.000
171.6660, 7683.000
173.0490, 7506.000
174.4310, 7648.000
175.8130, 7806.000
177.1950, 7944.000
178.5770, 8202.000
179.9590, 8441.000
181.3400, 8802.000
182.7210, 9074.000
184.1020, 9326.000
185.4830, 9374.000
186.8630, 9351.000
188.2440, 9280.000
189.6240, 9037.000
191.0030, 8713.000
192.3830, 8637.000
193.7620, 8412.000
195.1410, 8239.000
196.5200, 8069.000
197.8990, 8102.000
199.2770, 8072.000
200.6560, 8222.000
202.0340, 8475.000
203.4110, 8877.000
204.7890, 9477.000
206.1660, 10110.00
207.5430, 10540.00
208.9200, 10750.00
210.2970, 10520.00
211.6730, 9792.000
213.0490, 9098.000
214.4250, 8536.000
215.8010, 7922.000
217.1760, 7548.000
218.5520, 7174.000
219.9270, 6964.000
221.3020, 6859.000
222.6760, 6814.000
224.0510, 6683.000
225.4250, 6739.000
226.7990, 6682.000
228.1730, 6698.000
229.5460, 6644.000
230.9190, 6639.000
232.2920, 6654.000
233.6650, 6538.000
235.0380, 6580.000
236.4100, 6573.000
237.7820, 6645.000
239.1540, 6633.000
240.5260, 6728.000
241.8980, 6819.000
243.2690, 6859.000
244.6400, 7009.000
246.0110, 7160.000
247.3810, 7434.000
248.7520, 7716.000
250.1220, 7982.000
251.4920, 8012.000
252.8610, 8045.000
254.2310, 7874.000
255.6000, 7599.000
256.9690, 7539.000
258.3380, 7369.000
259.7070, 7365.000
261.0750, 7405.000
262.4430, 7676.000
263.8110, 7901.000
265.1790, 8224.000
266.5460, 8614.000
267.9140, 8968.000
269.2810, 9235.000
270.6470, 9142.000
272.0140, 9008.000
273.3800, 8920.000
274.7470, 8600.000
276.1130, 8522.000
277.4780, 8470.000
278.8440, 8666.000
280.2090, 8836.000
281.5740, 9451.000
282.9390, 10140.00
284.3040, 11340.00
285.6680, 12940.00
287.0320, 14820.00
288.3960, 16570.00
289.7600, 17550.00
291.1230, 17640.00
292.4870, 16700.00
293.8500, 15140.00
295.2120, 13310.00
296.5750, 11690.00
297.9370, 10550.00
299.3000, 9679.000
300.6620, 8955.000
302.0230, 8491.000
303.3850, 8262.000
304.7460, 8142.000
306.1070, 7944.000
307.4680, 7880.000
308.8290, 7854.000
310.1890, 7642.000
311.5490, 7594.000
312.9090, 7527.000
314.2690, 7553.000
315.6290, 7505.000
316.9880, 7486.567
318.3470, 7401.000
319.7060, 7437.000
321.0650, 7445.000
322.4230, 7404.000
323.7810, 7584.000
325.1390, 7653.000
326.4970, 7769.000
327.8550, 7837.000
329.2120, 7809.000
330.5690, 7778.000
331.9260, 7699.000
333.2830, 7579.000
334.6390, 7545.000
335.9950, 7374.000
337.3510, 7466.000
338.7070, 7384.000
340.0630, 7292.000
341.4180, 7289.000
342.7730, 7329.000
344.1280, 7348.000
345.4830, 7316.000
346.8370, 7350.856
348.1920, 7345.330
349.5460, 7378.000
350.8990, 7358.000
352.2530, 7380.000
353.6060, 7391.000
354.9600, 7321.000
356.3130, 7355.000
357.6650, 7387.000
359.0180, 7341.000
360.3700, 7470.000
361.7220, 7337.000
363.0740, 7333.000
364.4260, 7393.000
365.7770, 7389.000
367.1280, 7479.000
368.4790, 7403.000
369.8300, 7396.000
371.1810, 7434.000
372.5310, 7484.000
373.8810, 7425.000
375.2310, 7401.000
376.5810, 7420.366
377.9300, 7475.000
379.2800, 7438.000
380.6290, 7488.000
381.9770, 7513.000
383.3260, 7526.000
384.6740, 7522.000
386.0230, 7513.000
387.3700, 7628.000
388.7180, 7620.000
390.0660, 7646.000
391.4130, 7702.000
392.7600, 7662.000
394.1070, 7754.000
395.4540, 7768.000
396.8000, 7898.000
398.1460, 7970.000
399.4920, 8010.000
400.8380, 7941.000
402.1840, 8102.000
403.5290, 8186.000
404.8740, 8509.000
406.2190, 8812.000
407.5640, 8894.000
408.9080, 8883.000
410.2520, 8859.000
411.5960, 9031.000
412.9400, 9249.000
414.2840, 9472.000
415.6270, 9604.000
416.9700, 9630.000
418.3130, 9318.000
419.6560, 9002.000
420.9990, 8721.000
422.3410, 8504.000
423.6830, 8313.000
425.0250, 8217.000
426.3670, 8183.000
427.7080, 8026.000
429.0490, 8201.000
430.3900, 8174.000
431.7310, 8169.000
433.0720, 8154.000
434.4120, 8185.000
435.7520, 8232.000
437.0920, 8224.000
438.4320, 8272.000
439.7720, 8360.000
441.1110, 8214.000
442.4500, 8378.000
443.7890, 8368.000
445.1270, 8445.000
446.4660, 8494.000
447.8040, 8660.000
449.1420, 8572.000
450.4800, 8736.000
451.8170, 8758.000
453.1550, 8928.000
454.4920, 8966.000
455.8290, 9105.000
457.1660, 9232.000
458.5020, 9382.000
459.8380, 9498.000
461.1750, 9751.000
462.5100, 9958.000
463.8460, 10330.00
465.1810, 10670.00
466.5170, 11270.00
467.8520, 11990.00
469.1860, 13090.00
470.5210, 14820.00
471.8550, 17040.00
473.1900, 20350.00
474.5230, 25530.00
475.8570, 31180.00
477.1910, 36720.00
478.5240, 39130.00
479.8570, 38220.00
481.1900, 34070.00
482.5230, 28670.00
483.8550, 23320.00
485.1870, 20060.00
486.5190, 16960.00
487.8510, 15090.00
489.1830, 14100.00
490.5140, 13240.00
491.8450, 13020.00
493.1760, 13040.00
494.5070, 13130.00
495.8370, 13650.00
497.1680, 14710.00
498.4980, 16200.00
499.8280, 18540.00
501.1570, 22310.00
502.4870, 27660.00
503.8160, 34610.00
505.1450, 41950.00
506.4740, 46310.00
507.8020, 46210.00
509.1310, 42370.00
510.4590, 35890.00
511.7870, 29670.00
513.1150, 24540.00
514.4420, 20570.00
515.7700, 17660.00
517.0970, 15700.00
518.4240, 14360.00
519.7500, 13350.00
521.0770, 12720.00
522.4030, 11910.00
523.7290, 11660.00
525.0550, 11320.00
526.3810, 10960.00
527.7060, 10740.00
529.0310, 10570.00
530.3560, 10420.00
531.6810, 10240.00
533.0060, 10270.00
534.3300, 10010.00
535.6540, 10030.00
536.9780, 9792.000
538.3020, 9874.000
539.6250, 9757.000
540.9490, 9754.000
542.2720, 9679.000
543.5950, 9699.000
544.9170, 9635.000
546.2400, 9564.000
547.5620, 9638.000
548.8840, 9578.000
550.2060, 9525.000
551.5270, 9461.000
552.8490, 9333.000
554.1700, 9481.000
555.4910, 9480.000
556.8120, 9372.000
558.1320, 9468.000
559.4530, 9403.000
560.7730, 9415.000
562.0930, 9449.000
563.4120, 9339.000
564.7320, 9427.000
566.0510, 9419.000
567.3700, 9440.000
568.6890, 9514.000
570.0080, 9430.000
571.3260, 9582.000
572.6440, 9626.000
573.9630, 9720.000
575.2800, 9869.000
576.5980, 9833.000
577.9150, 10070.00
579.2330, 9987.000
580.5500, 10040.00
581.8660, 9984.000
583.1830, 9816.000
584.4990, 9691.000
585.8150, 9619.000
587.1310, 9509.000
588.4470, 9489.612
589.7630, 9454.000
591.0780, 9496.000
592.3930, 9547.000
593.7080, 9608.000
595.0220, 9561.000
596.3370, 9519.000
597.6510, 9538.000
598.9650, 9553.000
600.2790, 9548.000
601.5930, 9539.038
602.9060, 9523.000
604.2190, 9528.000
605.5320, 9512.000
606.8450, 9572.000
608.1580, 9543.000
609.4700, 9592.000
610.7820, 9647.000
612.0940, 9618.000
613.4060, 9645.000
614.7180, 9589.000
616.0290, 9630.000
617.3400, 9528.000
618.6510, 9666.000
619.9620, 9699.000
621.2720, 9702.000
622.5820, 9665.000
623.8920, 9609.000
625.2020, 9769.000
626.5120, 9728.000
627.8210, 9782.000
629.1310, 9826.000
630.4400, 9845.000
631.7490, 9793.000
633.0570, 9812.000
634.3660, 9880.000
635.6740, 9838.000
636.9820, 9877.000
638.2900, 9864.000
639.5970, 9941.000
640.9050, 10030.00
642.2120, 10120.00
643.5190, 10140.00
644.8250, 10160.00
646.1320, 10230.00
647.4380, 10260.00
648.7440, 10260.00
650.0500, 10120.00
651.3560, 10180.00
652.6620, 10080.00
653.9670, 10250.00
655.2720, 10020.00
656.5770, 10070.00
657.8820, 10060.00
659.1860, 10020.00
660.4900, 9984.000
661.7940, 10090.00
663.0980, 9942.000
664.4020, 10090.00
665.7050, 10090.00
667.0090, 10090.00
668.3120, 10190.00
669.6140, 10040.00
670.9170, 10030.00
672.2190, 10030.00
673.5220, 10180.00
674.8240, 10090.00
676.1250, 10070.00
677.4270, 10190.00
678.7280, 10140.00
680.0300, 10160.00
681.3310, 10230.00
682.6310, 10200.00
683.9320, 10190.00
685.2320, 10240.00
686.5320, 10120.00
687.8320, 10200.00
689.1320, 10290.00
690.4320, 10170.00
691.7310, 10420.00
693.0300, 10300.00
694.3290, 10190.00
695.6280, 10280.00
696.9260, 10310.00
698.2240, 10310.00
699.5220, 10410.00
700.8200, 10310.00
702.1180, 10440.00
703.4150, 10400.00
704.7130, 10370.00
706.0100, 10320.00
707.3070, 10360.00
708.6030, 10362.29
709.9000, 10410.00
711.1960, 10440.00
712.4920, 10440.00
713.7880, 10490.00
715.0830, 10590.00
716.3790, 10550.00
717.6740, 10720.00
718.9690, 10680.00
720.2640, 10790.00
721.5580, 10630.00
722.8530, 10730.00
724.1470, 10660.00
725.4410, 10680.00
726.7350, 10760.00
728.0280, 10640.00
729.3220, 10730.00
730.6150, 10720.00
731.9080, 10640.00
733.2010, 10790.00
734.4930, 10800.00
735.7850, 10730.00
737.0780, 10850.00
738.3700, 10900.00
739.6610, 10780.00
740.9530, 10890.00
742.2440, 10940.00
743.5350, 11020.00
744.8260, 11050.00
746.1170, 11010.00
747.4070, 11160.00
748.6980, 11190.00
749.9880, 11220.00
751.2780, 11430.00
752.5670, 11470.00
753.8570, 11520.00
755.1460, 11760.00
756.4350, 12080.00
757.7240, 12700.00
759.0130, 13220.00
760.3010, 13780.00
761.5900, 14780.00
762.8780, 15060.00
764.1650, 15090.00
765.4530, 14760.00
766.7410, 14030.00
768.0280, 13440.00
769.3150, 13010.00
770.6020, 12670.00
771.8880, 12390.00
773.1750, 12530.00
774.4610, 12430.00
775.7470, 12310.00
777.0330, 12130.00
778.3190, 12030.00
779.6040, 11840.00
780.8890, 11690.00
782.1740, 11640.00
783.4590, 11560.00
784.7440, 11570.00
786.0280, 11500.00
787.3120, 11620.00
788.5960, 11430.00
789.8800, 11380.00
791.1640, 11490.00
792.4470, 11570.00
793.7300, 11510.00
795.0130, 11400.00
796.2960, 11610.00
797.5790, 11410.00
798.8610, 11410.00
800.1430, 11550.00
801.4250, 11440.00
802.7070, 11600.00
803.9890, 11510.00
805.2700, 11550.00
806.5510, 11560.00
807.8320, 11690.00
809.1130, 11910.00
810.3940, 11870.00
811.6740, 12010.00
812.9540, 12250.00
814.2340, 12160.00
815.5140, 12360.00
816.7940, 12330.00
818.0730, 12190.00
819.3520, 12010.00
820.6310, 11980.00
821.9100, 11940.00
823.1890, 11870.00
824.4670, 11890.00
825.7450, 11760.00
827.0230, 11820.00
828.3010, 11900.00
829.5780, 11850.00
830.8560, 11750.00
832.1330, 11790.00
833.4100, 11870.00
834.6870, 11900.00
835.9630, 11920.00
837.2400, 11910.00
838.5160, 11820.00
839.7920, 11855.06
841.0680, 11820.00
842.3430, 11850.00
843.6180, 11854.46
844.8940, 11940.00
846.1690, 11870.00
847.4430, 11910.00
848.7180, 11910.00
849.9920, 11850.00
851.2660, 11850.00
852.5400, 11940.00
853.8140, 11910.00
855.0880, 11810.00
856.3610, 12000.00
857.6340, 11910.00
858.9070, 12100.00
860.1800, 12050.00
861.4530, 12020.00
862.7250, 11960.00
863.9970, 12140.00
865.2690, 12070.00
866.5410, 12170.00
867.8120, 12160.00
869.0840, 12160.00
870.3550, 12140.00
871.6260, 12040.00
872.8970, 12220.00
874.1670, 12110.00
875.4380, 12240.00
876.7080, 12160.00
877.9780, 12170.00
879.2480, 12370.00
880.5170, 12230.00
881.7870, 12280.00
883.0560, 12250.00
884.3250, 12340.00
885.5940, 12270.00
886.8620, 12280.00
888.1300, 12290.00
889.3990, 12320.00
890.6670, 12440.00
891.9340, 12420.00
893.2020, 12330.00
894.4690, 12500.00
895.7370, 12460.00
897.0040, 12510.00
898.2700, 12560.00
899.5370, 12610.00
900.8030, 12540.00
902.0700, 12579.38
903.3360, 12571.70
904.6010, 12560.00
905.8670, 12600.00
907.1320, 12580.00
908.3980, 12650.00
909.6630, 12690.00
910.9280, 12780.00
912.1920, 12810.00
913.4570, 12710.00
914.7210, 12790.00
915.9850, 12700.00
917.2490, 12710.00
918.5120, 12750.00
919.7760, 12740.00
921.0390, 12890.00
922.3020, 12810.00
923.5650, 12860.00
924.8270, 12780.00
926.0900, 12800.00
927.3520, 12860.00
928.6140, 12830.00
929.8760, 12910.00
931.1380, 12930.00
932.3990, 12890.00
933.6600, 13040.00
934.9220, 12850.00
936.1820, 13010.00
937.4430, 12930.00
938.7040, 13020.00
939.9640, 13090.00
941.2240, 13020.00
942.4840, 12990.00
943.7440, 13110.00
945.0030, 12990.00
946.2620, 13210.00
947.5210, 13050.00
948.7800, 13290.00
950.0390, 13150.00
951.2980, 13290.00
952.5560, 13380.00
953.8140, 13290.00
955.0720, 13290.00
956.3300, 13440.00
957.5870, 13280.00
958.8450, 13400.00
960.1020, 13520.00
961.3590, 13650.00
962.6150, 13530.00
963.8720, 13810.00
965.1280, 13690.00
966.3840, 13760.00
967.6400, 13870.00
968.8960, 13630.00
970.1520, 13910.00
971.4070, 13890.00
972.6620, 14130.00
973.9170, 14270.00
975.1720, 14500.00
976.4270, 14710.00
977.6810, 14780.06
978.9350, 14819.40
980.1890, 14831.84
981.4430, 14670.00
982.6970, 14250.00
983.9500, 14290.00
985.2030, 13980.00
986.4560, 13960.00
987.7090, 13900.00
988.9620, 13860.00
990.2140, 13790.00
991.4670, 13900.00
992.7190, 13860.00
993.9710, 13900.00
995.2220, 13850.00
996.4740, 13920.00
997.7250, 13890.00
998.9760, 14000.00
1000.227, 14100.00
1001.478, 14240.00
1002.728, 14290.00
1003.978, 14400.00
1005.229, 14490.00
1006.479, 14590.00
1007.728, 14550.00
1008.978, 14610.00
1010.227, 14560.64
1011.476, 14450.00
1012.725, 14470.00
1013.974, 14310.00
1015.223, 14320.00
1016.471, 14300.00
1017.719, 14330.00
1018.967, 14310.00
1020.215, 14300.00
1021.462, 14500.00
1022.710, 14420.00
1023.957, 14580.00
1025.204, 14600.00
1026.451, 14765.00
1027.697, 14744.14
1028.944, 14907.60
1030.190, 15256.63
1031.436, 15380.00
1032.682, 15380.00
1033.928, 15280.00
1035.173, 15230.00
1036.418, 14940.00
1037.663, 14910.00
1038.908, 14860.00
1040.153, 14820.00
1041.398, 14830.00
1042.642, 14880.00
1043.886, 14930.00
1045.130, 14980.00
1046.374, 15040.00
1047.617, 15023.27
1048.860, 15030.00
1050.104, 14990.00
1051.347, 14920.00
1052.589, 14920.00
1053.832, 14863.84
1055.074, 14840.00
1056.316, 14810.00
1057.558, 14740.00
1058.800, 14760.00
1060.042, 14748.27
1061.283, 14800.00
1062.524, 14770.00
1063.765, 14715.24
1065.006, 14829.63
1066.247, 14917.15
1067.487, 14979.19
1068.728, 14939.66
1069.968, 15031.30
1071.208, 15070.36
1072.447, 15107.22
1073.687, 15217.32
1074.926, 15192.50
1076.165, 15301.40
1077.404, 15290.00
1078.643, 15420.00
1079.881, 15510.00
1081.120, 15640.00
1082.358, 15690.00
1083.596, 15910.00
1084.834, 15910.00
1086.071, 16360.00
1087.309, 16720.00
1088.546, 16780.00
1089.783, 17490.00
1091.020, 17900.00
1092.256, 18740.00
1093.493, 19570.00
1094.729, 20350.00
1095.965, 21560.00
1097.201, 22600.00
1098.436, 22830.00
1099.672, 23010.00
1100.907, 22580.00
1102.142, 22050.00
1103.377, 21280.00
1104.612, 20760.00
1105.846, 20370.00
1107.081, 19640.00
1108.315, 19290.00
1109.549, 19100.00
1110.782, 18804.38
1112.016, 18913.08
1113.249, 18958.68
1114.483, 18942.64
1115.716, 18788.84
1116.948, 18730.15
1118.181, 18582.64
1119.413, 17980.00
1120.646, 17470.00
1121.878, 17450.00
1123.110, 17000.00
1124.341, 16680.00
1125.573, 16500.00
1126.804, 16300.00
1128.035, 16170.00
1129.266, 16060.00
1130.497, 15909.88
1131.727, 15800.00
1132.957, 15690.00
1134.188, 15670.00
1135.418, 15620.00
1136.647, 15684.75
1137.877, 15742.53
1139.106, 15773.43
1140.335, 15778.89
1141.564, 15682.75
1142.793, 15717.81
1144.022, 15700.30
1145.250, 15680.63
1146.479, 15734.16
1147.707, 15652.79
1148.934, 15705.17
1150.162, 15704.16
1151.390, 15727.58
1152.617, 15698.10
1153.844, 15684.96
1155.071, 15724.74
1156.298, 15735.22
1157.524, 15699.65
1158.751, 15724.63
1159.977, 15641.42
1161.203, 15653.15
1162.428, 15705.85
1163.654, 15672.94
1164.879, 15710.00
1166.105, 15520.00
1167.330, 15690.00
1168.555, 15550.00
1169.779, 15710.00
1171.004, 15650.00
1172.228, 15690.00
1173.452, 15740.00
1174.676, 15640.00
1175.900, 15530.00
1177.123, 15720.00
1178.346, 15660.00
1179.570, 15740.00
1180.793, 15800.00
1182.015, 15780.00
1183.238, 15840.00
1184.460, 15821.06
1185.683, 15700.00
1186.905, 15780.00
1188.126, 15770.00
1189.348, 15730.00
1190.569, 15750.00
1191.791, 15760.00
1193.012, 15900.00
1194.233, 15930.00
1195.453, 15740.00
1196.674, 16060.00
1197.894, 15840.00
1199.114, 15830.00
1200.334, 15970.00
1201.554, 15960.00
1202.774, 16040.00
1203.993, 15970.00
1205.212, 15960.00
1206.431, 16060.00
1207.650, 15880.00
1208.869, 15960.00
1210.087, 16060.00
1211.305, 16130.00
1212.524, 16250.00
1213.741, 16130.00
1214.959, 16040.00
1216.177, 16370.00
1217.394, 16230.00
1218.611, 16140.00
1219.828, 16250.00
1221.045, 16200.00
1222.261, 16370.00
1223.478, 16440.00
1224.694, 16120.00
1225.910, 16320.00
1227.126, 16290.00
1228.342, 16290.00
1229.557, 16290.00
1230.772, 16430.00
1231.987, 16390.00
1233.202, 16390.00
1234.417, 16280.00
1235.631, 16350.00
1236.846, 16630.00
1238.060, 16400.00
1239.274, 16630.00
1240.488, 16420.00
1241.701, 16330.00
1242.915, 16630.00
1244.128, 16400.00
1245.341, 16640.00
1246.554, 16590.00
1247.767, 16440.00
1248.979, 16840.00
1250.191, 16400.00
1251.403, 16640.00
1252.615, 16790.00
1253.827, 16390.00
1255.039, 16680.00
1256.250, 16810.00
1257.461, 16550.00
1258.672, 16780.00
1259.883, 16680.00
1261.094, 16660.00
1262.304, 16530.00
1263.514, 16620.00
1264.724, 16594.98
1265.934, 16720.00
1267.144, 16670.00
1268.354, 16860.00
1269.563, 16930.00
1270.772, 16690.00
1271.981, 16960.00
1273.190, 16700.00
1274.398, 16690.00
1275.607, 17080.00
1276.815, 16650.00
1278.023, 16800.00
1279.231, 16950.00
1280.439, 16850.00
1281.646, 16990.00
1282.853, 16840.00
1284.060, 16940.00
1285.267, 17030.00
1286.474, 16860.00
1287.681, 16880.00
1288.887, 16940.00
1290.093, 16750.00
1291.299, 16833.30
1292.505, 16940.00
1293.711, 16820.00
1294.916, 17010.00
1296.121, 16960.00
1297.327, 17080.00
1298.531, 17030.00
1299.736, 16850.00
1300.941, 17350.00
1302.145, 17150.00
1303.349, 17020.00
1304.553, 17270.00
1305.757, 17040.00
1306.961, 17230.00
1308.164, 17010.00
1309.367, 17150.00
1310.570, 17360.00
1311.773, 17130.00
1312.976, 17290.00
1314.178, 17300.00
1315.381, 17090.00
1316.583, 17410.00
1317.785, 17360.00
1318.987, 17290.00
1320.188, 17420.00
1321.390, 17370.00
1322.591, 17360.00
1323.792, 17540.00
1324.993, 17390.00
1326.193, 17630.00
1327.394, 17590.00
1328.594, 17270.00
1329.794, 17630.00
1330.994, 17560.00
1332.194, 17460.00
1333.394, 17590.00
1334.593, 17590.00
1335.792, 17480.00
1336.991, 17730.00
1338.190, 17590.00
1339.389, 17620.00
1340.587, 17800.00
1341.786, 17630.00
1342.984, 17790.00
1344.182, 17850.00
1345.379, 17830.00
1346.577, 17940.00
1347.774, 17910.00
1348.972, 17830.00
1350.169, 18070.00
1351.365, 17770.00
1352.562, 18120.00
1353.759, 18260.00
1354.955, 17690.00
1356.151, 18220.00
1357.347, 18020.00
1358.543, 17920.00
1359.738, 18140.00
1360.934, 17970.00
1362.129, 17970.00
1363.324, 18270.00
1364.519, 18040.00
1365.713, 18240.00
1366.908, 18260.00
1368.102, 17950.00
1369.296, 18220.00
1370.490, 18000.00
1371.684, 18030.00
1372.877, 18310.00
1374.071, 18190.00
1375.264, 18160.00
1376.457, 18530.00
1377.650, 18000.00
1378.843, 18430.00
1380.035, 18410.00
1381.227, 18320.00
1382.419, 18690.00
1383.611, 18500.00
1384.803, 18460.00
1385.995, 18700.00
1387.186, 18560.00
1388.377, 18640.00
1389.568, 18580.00
1390.759, 18330.00
1391.950, 18830.00
1393.140, 18850.00
1394.331, 18460.00
1395.521, 18850.00
1396.711, 18700.00
1397.900, 18480.00
1399.090, 18830.00
1400.279, 18790.00
1401.469, 18640.00
1402.658, 18890.00
1403.847, 18590.00
1405.035, 19060.00
1406.224, 18750.00
1407.412, 18680.00
1408.600, 19020.00
1409.788, 18840.00
1410.976, 18760.00
1412.164, 19060.00
1413.351, 18980.00
1414.538, 18920.00
1415.725, 18980.00
1416.912, 18800.00
1418.099, 19170.00
1419.285, 19140.00
1420.472, 18920.00
1421.658, 19330.00
1422.844, 19030.00
1424.030, 19310.00
1425.215, 19430.00
1426.401, 19130.00
1427.586, 19130.00
1428.771, 19250.00
1429.956, 19140.00
1431.141, 19510.00
1432.325, 19310.00
1433.510, 19200.00
1434.694, 19520.00
1435.878, 19290.00
1437.062, 19380.00
1438.245, 19570.00
1439.429, 19370.00
1440.612, 19620.00
1441.795, 19690.00
1442.978, 19360.00
1444.161, 19820.00
1445.343, 19650.00
1446.526, 19360.00
1447.708, 19960.00
1448.890, 19480.00
1450.072, 19620.00
1451.253, 19910.00
1452.435, 19550.00
1453.616, 19710.00
1454.797, 20010.00
1455.978, 19610.00
1457.159, 20160.00
1458.340, 19940.00
1459.520, 19840.00
1460.700, 20210.00
1461.880, 20100.00
1463.060, 19850.00
1464.240, 20190.00
1465.420, 19910.00
1466.599, 20000.00
1467.778, 20320.00
1468.957, 19980.00
1470.136, 20360.00
1471.315, 20280.00
1472.493, 19990.00
1473.671, 20570.00
1474.849, 20310.00
1476.027, 20000.00
1477.205, 20600.00
1478.383, 20070.00
1479.560, 20340.00
1480.737, 20460.00
1481.914, 20240.00
1483.091, 20390.00
1484.268, 20350.00
1485.444, 20370.00
1486.621, 20580.00
1487.797, 20530.00
1488.973, 20270.00
1490.149, 20730.00
1491.324, 20390.00
1492.500, 20450.00
1493.675, 20600.00
1494.850, 20480.00
1496.025, 20620.00
1497.200, 20790.00
1498.374, 20580.00
1499.548, 20850.00
1500.723, 20710.00
1501.897, 20570.00
1503.071, 20960.00
1504.244, 20680.00
1505.418, 20570.00
1506.591, 20860.00
1507.764, 20600.00
1508.937, 20960.00
1510.110, 20890.00
1511.282, 20630.00
1512.455, 21100.00
1513.627, 20890.00
1514.799, 20870.00
1515.971, 20870.00
1517.143, 20920.00
1518.314, 20880.00
1519.486, 21100.00
1520.657, 20850.00
##END=



