##NAMES=Albite
##RRUFFID=R050253
##IDEAL CHEMISTRY=NaAlSi_3_O_8_
##LOCALITY=Madawaska/Faraday mine, Bancroft, Ontario, Canada
##OWNER=RRUFF
##SOURCE=Marcus Origlieri
##DESCRIPTION=Colorless to brown prismatic single crystals
##STATUS=The identification of this mineral has been confirmed by X-ray diffraction and chemical analysis
##URL=rruff.info/R050253
##MEASURED CHEMISTRY=(Na_0.99_Ca_0.01_)Al_1.00_(Si_0.99_Al_0.01_)_3_O_8_
##PIN_ID=L01266
##ORIENTATION=Laser parallel to (-1 -1 0). Fiducial mark perpendicular to laser is parallel to c [0 0 1]
109.5120, 10097.00
110.7440, 10268.00
111.9760, 9926.000
113.2080, 9810.000
114.4400, 10035.00
115.6710, 10199.00
116.9030, 10352.00
118.1340, 10336.00
119.3650, 10308.00
120.5960, 10335.00
121.8270, 10364.32
123.0580, 10474.00
124.2880, 10482.00
125.5190, 10616.00
126.7490, 10707.00
127.9790, 10859.00
129.2090, 11181.00
130.4390, 11321.00
131.6680, 11660.00
132.8980, 12092.00
134.1270, 12625.00
135.3560, 13329.44
136.5850, 14154.99
137.8140, 15093.00
139.0430, 16271.00
140.2710, 17503.00
141.5000, 19005.00
142.7280, 20490.00
143.9560, 21589.00
145.1840, 22409.00
146.4120, 23134.00
147.6390, 24002.00
148.8670, 25155.00
150.0940, 26111.00
151.3210, 26945.00
152.5490, 27274.00
153.7750, 26531.00
155.0020, 24803.00
156.2290, 21973.00
157.4550, 19396.00
158.6810, 17083.00
159.9080, 15422.00
161.1340, 14755.00
162.3590, 14441.00
163.5850, 14603.00
164.8110, 14617.00
166.0360, 14936.00
167.2610, 15164.00
168.4860, 15409.00
169.7110, 15794.00
170.9360, 16451.00
172.1610, 16987.00
173.3850, 17885.00
174.6100, 18582.00
175.8340, 19836.00
177.0580, 20679.00
178.2820, 21537.00
179.5050, 22659.00
180.7290, 23451.00
181.9520, 24153.00
183.1760, 24913.00
184.3990, 25662.00
185.6220, 26044.00
186.8450, 26262.00
188.0670, 26043.00
189.2900, 25577.00
190.5120, 24297.00
191.7340, 23107.00
192.9560, 21907.00
194.1780, 20742.00
195.4000, 19747.00
196.6220, 19119.00
197.8430, 18704.00
199.0640, 18771.00
200.2860, 19109.00
201.5070, 19347.00
202.7270, 19446.53
203.9480, 19773.00
205.1690, 19717.00
206.3890, 20041.00
207.6090, 20247.00
208.8290, 20890.00
210.0490, 21130.00
211.2690, 21131.00
212.4890, 20764.00
213.7080, 19523.00
214.9280, 17880.00
216.1470, 16410.00
217.3660, 15140.00
218.5850, 14001.00
219.8030, 13329.00
221.0220, 13038.00
222.2400, 12470.00
223.4590, 12235.00
224.6770, 11970.00
225.8950, 11863.00
227.1120, 11730.00
228.3300, 11666.00
229.5480, 11567.00
230.7650, 11531.00
231.9820, 11415.00
233.1990, 11480.00
234.4160, 11458.00
235.6330, 11481.00
236.8490, 11609.00
238.0660, 11785.00
239.2820, 11985.00
240.4980, 12137.00
241.7140, 12414.00
242.9300, 12652.00
244.1460, 13153.00
245.3610, 13494.00
246.5770, 13640.00
247.7920, 13925.00
249.0070, 14163.00
250.2220, 14685.00
251.4370, 15014.00
252.6510, 15601.00
253.8660, 15756.00
255.0800, 15778.00
256.2940, 15441.00
257.5080, 15175.00
258.7220, 15067.00
259.9360, 15205.00
261.1490, 15205.33
262.3630, 15460.00
263.5760, 15612.00
264.7890, 15870.00
266.0020, 16277.00
267.2150, 16772.00
268.4270, 17070.00
269.6400, 17539.00
270.8520, 17844.00
272.0640, 17774.00
273.2760, 17464.00
274.4880, 17173.00
275.7000, 16545.00
276.9120, 16083.00
278.1230, 16074.00
279.3340, 16283.00
280.5450, 16860.00
281.7560, 17562.00
282.9670, 18528.00
284.1780, 19304.00
285.3880, 19932.00
286.5980, 20666.00
287.8090, 21422.00
289.0190, 22390.00
290.2290, 23139.00
291.4380, 24044.00
292.6480, 24047.00
293.8570, 23740.00
295.0670, 22406.00
296.2760, 20641.00
297.4850, 18898.00
298.6930, 17462.00
299.9020, 16219.57
301.1110, 15163.00
302.3190, 14329.00
303.5270, 13768.00
304.7350, 13347.92
305.9430, 13057.00
307.1510, 12901.00
308.3580, 12797.00
309.5660, 12864.00
310.7730, 12558.00
311.9800, 12651.00
313.1870, 12562.00
314.3940, 12528.00
315.6010, 12591.00
316.8070, 12778.00
318.0130, 12908.00
319.2200, 13279.00
320.4260, 13424.00
321.6310, 13990.00
322.8370, 14145.00
324.0430, 14396.00
325.2480, 14723.00
326.4540, 14938.00
327.6590, 15348.00
328.8640, 15817.00
330.0680, 16142.00
331.2730, 16003.00
332.4780, 15699.00
333.6820, 15024.00
334.8860, 14567.00
336.0900, 13992.00
337.2940, 13555.83
338.4980, 13052.00
339.7010, 12860.00
340.9050, 12651.00
342.1080, 12562.00
343.3110, 12587.00
344.5140, 12580.00
345.7170, 12452.00
346.9200, 12411.00
348.1220, 12539.00
349.3240, 12506.00
350.5270, 12515.00
351.7290, 12438.00
352.9310, 12460.00
354.1320, 12551.00
355.3340, 12234.00
356.5350, 12381.00
357.7370, 12384.00
358.9380, 12282.00
360.1390, 12293.00
361.3400, 12386.00
362.5400, 12336.00
363.7410, 12328.00
364.9410, 12341.00
366.1410, 12174.00
367.3410, 12295.00
368.5410, 12279.00
369.7410, 12264.00
370.9400, 12345.00
372.1400, 12283.00
373.3390, 12350.00
374.5380, 12346.00
375.7370, 12386.00
376.9360, 12363.00
378.1350, 12296.00
379.3330, 12373.00
380.5310, 12449.00
381.7300, 12644.00
382.9280, 12461.00
384.1260, 12617.00
385.3230, 12508.00
386.5210, 12889.00
387.7180, 12919.00
388.9160, 12984.00
390.1130, 13185.00
391.3100, 13449.00
392.5060, 13737.00
393.7030, 13804.00
394.9000, 13997.00
396.0960, 14135.00
397.2920, 14639.00
398.4880, 14963.00
399.6840, 15273.00
400.8800, 15643.00
402.0750, 15560.00
403.2710, 15577.00
404.4660, 15638.00
405.6610, 15844.00
406.8560, 16163.00
408.0510, 16825.00
409.2450, 17396.00
410.4400, 17864.00
411.6340, 17804.00
412.8280, 17663.00
414.0220, 17748.00
415.2160, 18098.00
416.4100, 18551.00
417.6030, 18581.00
418.7970, 18484.00
419.9900, 17740.00
421.1830, 16643.00
422.3760, 15595.00
423.5690, 14905.00
424.7610, 14354.00
425.9540, 13984.00
427.1460, 13901.00
428.3380, 13792.00
429.5300, 13683.00
430.7220, 13605.00
431.9140, 13721.00
433.1050, 13683.00
434.2970, 13794.00
435.4880, 13902.00
436.6790, 13999.00
437.8700, 14158.00
439.0610, 14306.00
440.2510, 14548.00
441.4420, 14725.00
442.6320, 14988.00
443.8220, 15446.00
445.0120, 16070.38
446.2020, 16677.00
447.3910, 17770.00
448.5810, 18843.00
449.7700, 20056.00
450.9600, 20929.00
452.1490, 21533.00
453.3370, 22478.00
454.5260, 23273.00
455.7150, 24259.00
456.9030, 25343.00
458.0910, 25452.00
459.2800, 25069.00
460.4670, 23963.00
461.6550, 22904.00
462.8430, 21970.00
464.0300, 21247.00
465.2180, 21140.00
466.4050, 21480.00
467.5920, 22799.00
468.7790, 24866.00
469.9650, 27451.00
471.1520, 30357.00
472.3380, 33443.00
473.5250, 35825.00
474.7110, 38045.00
475.8970, 40605.00
477.0820, 43080.00
478.2680, 45614.00
479.4540, 47687.00
480.6390, 48057.00
481.8240, 46176.00
483.0090, 42335.00
484.1940, 37457.00
485.3780, 32655.00
486.5630, 28465.00
487.7470, 25658.00
488.9320, 23992.00
490.1160, 22692.00
491.3000, 22446.00
492.4830, 22387.00
493.6670, 23016.00
494.8500, 24463.00
496.0340, 26152.00
497.2170, 29000.00
498.4000, 33042.00
499.5820, 37798.00
500.7650, 42075.00
501.9480, 46412.00
503.1300, 50348.29
504.3120, 53360.00
505.4940, 57486.00
506.6760, 60773.00
507.8580, 63502.00
509.0390, 64103.00
510.2210, 61882.00
511.4020, 56396.00
512.5830, 49281.00
513.7640, 42074.00
514.9450, 35804.00
516.1250, 31053.00
517.3060, 27429.00
518.4860, 24784.00
519.6660, 22884.00
520.8460, 21678.00
522.0260, 20444.00
523.2060, 19684.00
524.3850, 19026.00
525.5650, 18443.00
526.7440, 18013.00
527.9230, 17642.02
529.1020, 17368.00
530.2810, 17131.00
531.4590, 17028.00
532.6380, 16816.00
533.8160, 16657.26
534.9940, 16519.00
536.1720, 16329.00
537.3500, 16198.00
538.5270, 16025.00
539.7050, 15866.00
540.8820, 15906.00
542.0590, 15901.00
543.2360, 15764.00
544.4130, 15787.00
545.5900, 15764.00
546.7660, 15696.00
547.9430, 15548.00
549.1190, 15605.00
550.2950, 15645.00
551.4710, 15510.00
552.6470, 15551.00
553.8220, 15556.00
554.9980, 15502.00
556.1730, 15720.00
557.3480, 15634.00
558.5230, 15646.00
559.6980, 15374.00
560.8730, 15545.00
562.0470, 15552.00
563.2220, 15468.00
564.3960, 15595.00
565.5700, 15621.00
566.7440, 15661.00
567.9170, 15755.00
569.0910, 15830.00
570.2640, 16131.00
571.4380, 16820.00
572.6110, 16798.00
573.7840, 16777.00
574.9570, 16632.00
576.1290, 16788.00
577.3020, 16910.00
578.4740, 17006.00
579.6460, 16965.00
580.8180, 16946.00
581.9900, 16816.00
583.1620, 16645.00
584.3330, 16455.00
585.5040, 16174.00
586.6760, 15967.00
587.8470, 15866.00
589.0180, 15737.00
590.1880, 15628.00
591.3590, 15528.62
592.5290, 15453.21
593.7000, 15360.00
594.8700, 15352.00
596.0400, 15332.00
597.2090, 15329.00
598.3790, 15200.00
599.5490, 15337.00
600.7180, 15197.00
601.8870, 15401.00
603.0560, 15278.00
604.2250, 15381.00
605.3940, 15383.00
606.5620, 15341.00
607.7300, 15332.00
608.8990, 15485.00
610.0670, 15459.00
611.2350, 15511.00
612.4020, 15451.00
613.5700, 15558.00
614.7370, 15529.00
615.9050, 15578.00
617.0720, 15614.08
618.2390, 15543.00
619.4060, 15651.00
620.5720, 15629.00
621.7390, 15603.00
622.9050, 15669.00
624.0710, 15740.00
625.2370, 15871.00
626.4030, 15891.00
627.5690, 15967.00
628.7340, 15864.00
629.9000, 16138.00
631.0650, 15972.00
632.2300, 16094.00
633.3950, 16165.00
634.5600, 16203.00
635.7240, 16443.00
636.8890, 16316.00
638.0530, 16687.00
639.2170, 16442.00
640.3810, 16384.00
641.5450, 16552.00
642.7080, 16715.00
643.8720, 16657.00
645.0350, 16745.00
646.1980, 16833.00
647.3610, 16808.00
648.5240, 16833.95
649.6870, 16733.00
650.8490, 16710.00
652.0120, 16566.00
653.1740, 16330.00
654.3360, 16456.00
655.4980, 16269.00
656.6600, 16139.00
657.8210, 16110.00
658.9830, 16175.00
660.1440, 16154.00
661.3050, 16044.00
662.4660, 15853.00
663.6270, 15986.00
664.7870, 16157.00
665.9480, 16234.00
667.1080, 16012.00
668.2680, 16085.00
669.4280, 16000.00
670.5880, 16233.00
671.7480, 16028.00
672.9070, 16140.00
674.0670, 16034.00
675.2260, 16316.00
676.3850, 16154.00
677.5440, 16173.00
678.7030, 16105.00
679.8610, 16152.00
681.0200, 16172.00
682.1780, 16123.00
683.3360, 16176.00
684.4940, 16204.00
685.6520, 16122.00
686.8090, 16096.00
687.9670, 16131.82
689.1240, 16162.00
690.2810, 16207.00
691.4380, 16176.00
692.5950, 16220.00
693.7520, 16203.00
694.9080, 16287.00
696.0650, 16322.00
697.2210, 16267.00
698.3770, 16266.00
699.5330, 16304.44
700.6880, 16393.00
701.8440, 16380.00
702.9990, 16383.00
704.1550, 16407.00
705.3100, 16410.00
706.4650, 16497.00
707.6190, 16543.00
708.7740, 16577.00
709.9290, 16560.00
711.0830, 16692.00
712.2370, 16545.00
713.3910, 16766.00
714.5450, 16669.00
715.6980, 16661.00
716.8520, 16811.00
718.0050, 16836.00
719.1580, 16768.00
720.3110, 16938.00
721.4640, 16961.00
722.6170, 17051.00
723.7700, 17053.00
724.9220, 17089.19
726.0740, 17064.00
727.2260, 17085.00
728.3780, 17117.00
729.5300, 17152.64
730.6810, 17088.00
731.8330, 17281.00
732.9840, 17254.00
734.1350, 17342.00
735.2860, 17261.00
736.4370, 17413.00
737.5880, 17452.00
738.7380, 17442.00
739.8880, 17568.00
741.0390, 17670.00
742.1890, 17773.00
743.3380, 17840.00
744.4880, 18127.00
745.6380, 18266.00
746.7870, 18438.00
747.9360, 18532.00
749.0850, 18919.00
750.2340, 19382.00
751.3830, 19780.00
752.5310, 20703.00
753.6800, 21515.00
754.8280, 22829.00
755.9760, 24434.00
757.1240, 25986.00
758.2720, 27829.00
759.4190, 29308.00
760.5670, 30826.00
761.7140, 32089.00
762.8610, 33100.00
764.0080, 34059.00
765.1550, 33918.00
766.3020, 32677.00
767.4480, 30882.00
768.5950, 28484.00
769.7410, 26173.00
770.8870, 24278.00
772.0330, 22685.00
773.1780, 21497.00
774.3240, 20837.00
775.4690, 20372.00
776.6140, 20103.00
777.7590, 19714.00
778.9040, 19511.00
780.0490, 19258.00
781.1940, 19126.00
782.3380, 18966.02
783.4820, 18857.69
784.6260, 18758.00
785.7700, 18723.00
786.9140, 18695.00
788.0580, 18666.00
789.2010, 18613.00
790.3450, 18661.00
791.4880, 18624.00
792.6310, 18815.00
793.7730, 18694.00
794.9160, 18873.00
796.0590, 18775.00
797.2010, 19011.00
798.3430, 19219.00
799.4850, 19383.00
800.6270, 19674.00
801.7690, 19899.00
802.9100, 20215.00
804.0520, 20695.00
805.1930, 21731.00
806.3340, 22496.00
807.4750, 23841.00
808.6160, 25270.00
809.7560, 26739.00
810.8970, 28359.00
812.0370, 29816.00
813.1770, 30836.00
814.3170, 32068.00
815.4570, 32675.00
816.5960, 32627.00
817.7360, 31673.00
818.8750, 30313.00
820.0140, 28212.00
821.1530, 26129.00
822.2920, 24157.00
823.4310, 22759.00
824.5690, 21594.00
825.7070, 20934.00
826.8460, 20576.00
827.9840, 20219.00
829.1220, 19683.00
830.2590, 19403.00
831.3970, 19466.00
832.5340, 19193.00
833.6710, 19319.00
834.8080, 19095.00
835.9450, 18940.00
837.0820, 18970.00
838.2190, 19139.00
839.3550, 18926.00
840.4910, 19013.00
841.6270, 18743.00
842.7630, 18656.00
843.8990, 18728.00
845.0350, 18650.00
846.1700, 18657.00
847.3060, 18823.00
848.4410, 18652.00
849.5760, 18562.00
850.7100, 18640.00
851.8450, 18699.00
852.9800, 18746.00
854.1140, 18667.00
855.2480, 18672.00
856.3820, 18559.00
857.5160, 18653.00
858.6500, 18579.00
859.7830, 18562.00
860.9170, 18588.00
862.0500, 18651.00
863.1830, 18700.00
864.3160, 18805.00
865.4480, 18606.00
866.5810, 18826.00
867.7130, 18765.00
868.8460, 18676.00
869.9780, 18804.00
871.1100, 18625.00
872.2410, 18768.00
873.3730, 18815.00
874.5050, 18817.00
875.6360, 18756.00
876.7670, 18909.00
877.8980, 18953.00
879.0290, 18759.00
880.1590, 18893.00
881.2900, 18870.00
882.4200, 18912.00
883.5500, 18884.00
884.6800, 18772.00
885.8100, 19033.00
886.9400, 18970.00
888.0690, 19063.00
889.1990, 18984.00
890.3280, 18995.00
891.4570, 19115.00
892.5860, 19023.00
893.7140, 19203.00
894.8430, 18985.00
895.9710, 19171.00
897.1000, 19037.00
898.2280, 19214.00
899.3560, 19090.00
900.4830, 19058.00
901.6110, 19151.00
902.7380, 19217.00
903.8660, 19165.00
904.9930, 19250.00
906.1200, 19224.00
907.2460, 19308.00
908.3730, 19352.56
909.5000, 19400.56
910.6260, 19464.00
911.7520, 19529.00
912.8780, 19579.00
914.0040, 19636.29
915.1290, 19624.21
916.2550, 19557.00
917.3800, 19580.00
918.5050, 19423.00
919.6300, 19390.00
920.7550, 19272.00
921.8800, 19537.00
923.0040, 19573.00
924.1290, 19556.00
925.2530, 19600.00
926.3770, 19472.00
927.5010, 19529.00
928.6250, 19725.00
929.7480, 19390.00
930.8720, 19631.00
931.9950, 19685.00
933.1180, 19709.00
934.2410, 19670.00
935.3640, 19829.00
936.4860, 19854.00
937.6090, 19837.00
938.7310, 19870.00
939.8530, 19904.00
940.9750, 20007.00
942.0970, 19959.00
943.2180, 20104.00
944.3400, 20094.00
945.4610, 20289.00
946.5820, 20415.00
947.7030, 20409.00
948.8240, 20636.00
949.9450, 20625.00
951.0650, 20599.00
952.1860, 20616.00
953.3060, 20627.36
954.4260, 20549.00
955.5460, 20711.00
956.6650, 20806.00
957.7850, 20917.00
958.9040, 20894.00
960.0230, 20696.00
961.1420, 20759.00
962.2610, 20791.00
963.3800, 20825.00
964.4990, 20883.87
965.6170, 20919.33
966.7350, 21011.00
967.8530, 21097.00
968.9710, 21210.00
970.0890, 21362.75
971.2070, 21763.00
972.3240, 21714.00
973.4410, 21863.00
974.5580, 22064.00
975.6750, 22609.00
976.7920, 22822.00
977.9090, 23014.00
979.0250, 23008.00
980.1410, 22787.00
981.2580, 22889.00
982.3740, 22408.00
983.4890, 22478.00
984.6050, 22148.00
985.7200, 21884.00
986.8360, 21543.00
987.9510, 21688.00
989.0660, 21313.00
990.1810, 21563.00
991.2950, 21551.00
992.4100, 21363.00
993.5240, 21745.00
994.6390, 21569.00
995.7530, 21626.00
996.8660, 21446.00
997.9800, 21774.00
999.0940, 21799.00
1000.207, 21952.00
1001.320, 22286.00
1002.433, 22412.00
1003.546, 22517.00
1004.659, 22704.00
1005.772, 22732.00
1006.884, 23024.00
1007.996, 22821.00
1009.108, 22887.00
1010.220, 22881.00
1011.332, 22711.00
1012.444, 22728.00
1013.555, 22562.00
1014.666, 22552.00
1015.777, 22751.00
1016.888, 22604.00
1017.999, 22447.00
1019.110, 22343.00
1020.220, 22164.00
1021.331, 22009.00
1022.441, 21905.00
1023.551, 21826.00
1024.661, 21730.00
1025.770, 21788.00
1026.880, 21856.00
1027.989, 21971.00
1029.098, 21788.00
1030.207, 22023.00
1031.316, 21771.00
1032.425, 21860.00
1033.533, 21828.00
1034.642, 21921.00
1035.750, 21902.18
1036.858, 22050.00
1037.966, 21932.00
1039.073, 21887.00
1040.181, 22011.00
1041.288, 22192.00
1042.396, 22113.00
1043.503, 22268.00
1044.610, 22283.00
1045.716, 22394.00
1046.823, 22176.00
1047.929, 22489.00
1049.036, 22194.00
1050.142, 22123.00
1051.248, 22463.00
1052.353, 22164.00
1053.459, 22134.00
1054.564, 22129.00
1055.670, 21861.00
1056.775, 21710.00
1057.880, 22020.00
1058.985, 22202.00
1060.089, 21861.00
1061.194, 21836.00
1062.298, 21896.00
1063.402, 21855.00
1064.506, 21942.00
1065.610, 21954.75
1066.713, 21891.00
1067.817, 22028.00
1068.920, 21954.00
1070.023, 21996.00
1071.126, 22000.75
1072.229, 21922.00
1073.332, 21979.00
1074.435, 22075.00
1075.537, 22081.00
1076.639, 22222.00
1077.741, 22215.00
1078.843, 22220.00
1079.945, 22545.00
1081.046, 22664.00
1082.148, 22510.00
1083.249, 22664.00
1084.350, 22942.00
1085.451, 22886.00
1086.551, 23202.00
1087.652, 23437.00
1088.752, 23503.00
1089.853, 24220.00
1090.953, 24529.00
1092.053, 24840.00
1093.152, 25496.00
1094.252, 26004.00
1095.351, 26571.00
1096.451, 26954.00
1097.550, 27447.00
1098.649, 27715.00
1099.748, 27754.00
1100.846, 27450.00
1101.945, 27417.00
1103.043, 26787.00
1104.141, 26323.00
1105.239, 25949.00
1106.337, 25176.00
1107.434, 24738.00
1108.532, 24609.00
1109.629, 24034.00
1110.726, 23932.00
1111.823, 23561.00
1112.920, 23395.00
1114.017, 23524.00
1115.113, 23441.00
1116.210, 23222.00
1117.306, 23047.00
1118.402, 23270.00
1119.498, 23385.00
1120.593, 23111.00
1121.689, 23221.00
1122.784, 22943.00
1123.879, 22898.00
1124.974, 23016.00
1126.069, 23066.00
1127.164, 22895.00
1128.259, 22746.00
1129.353, 22743.00
1130.447, 22681.00
1131.541, 22637.00
1132.635, 22617.24
1133.729, 22541.00
1134.822, 22585.00
1135.916, 22602.00
1137.009, 22638.00
1138.102, 22594.00
1139.195, 22642.35
1140.288, 22547.00
1141.380, 22680.00
1142.473, 22620.00
1143.565, 22598.00
1144.657, 22804.00
1145.749, 22764.00
1146.841, 22854.00
1147.932, 23127.00
1149.024, 23027.00
1150.115, 23137.00
1151.206, 23195.00
1152.297, 23382.00
1153.388, 23317.00
1154.479, 23299.00
1155.569, 23407.00
1156.659, 23268.00
1157.750, 22915.00
1158.839, 23092.00
1159.929, 22942.00
1161.019, 22733.00
1162.108, 22879.00
1163.198, 22749.00
1164.287, 22983.00
1165.376, 22896.00
1166.465, 22828.00
1167.553, 22670.00
1168.642, 22735.81
1169.730, 22924.00
1170.818, 22810.00
1171.906, 22853.00
1172.994, 22809.00
1174.082, 22811.98
1175.170, 22839.00
1176.257, 22859.00
1177.344, 22915.00
1178.431, 22965.07
1179.518, 22821.00
1180.605, 22993.00
1181.691, 22889.00
1182.778, 22857.00
1183.864, 23058.00
1184.950, 22943.00
1186.036, 23058.00
1187.122, 22983.00
1188.207, 22837.00
1189.292, 23018.00
1190.378, 23119.00
1191.463, 22981.00
1192.548, 23166.00
1193.632, 23109.00
1194.717, 23028.00
1195.801, 23050.00
1196.886, 23184.00
1197.970, 22981.00
1199.054, 23154.00
1200.137, 23077.00
1201.221, 22875.00
1202.305, 23070.00
1203.388, 22985.00
1204.471, 23046.00
1205.554, 23171.00
1206.637, 23249.00
1207.719, 23087.00
1208.802, 23317.00
1209.884, 22954.00
1210.966, 23251.00
1212.048, 23477.00
1213.130, 23272.00
1214.212, 23089.00
1215.293, 23193.00
1216.374, 23373.00
1217.456, 23146.00
1218.536, 23242.00
1219.617, 23331.00
1220.698, 23321.00
1221.778, 23287.00
1222.859, 23399.00
1223.939, 23255.00
1225.019, 23258.00
1226.099, 23422.00
1227.178, 23325.00
1228.258, 23394.00
1229.337, 23412.00
1230.417, 23356.00
1231.496, 23471.00
1232.574, 23525.00
1233.653, 23422.00
1234.732, 23495.00
1235.810, 23449.00
1236.888, 23486.00
1237.966, 23516.00
1239.044, 23465.00
1240.122, 23509.00
1241.199, 23605.00
1242.277, 23563.00
1243.354, 23607.18
1244.431, 23542.00
1245.508, 23595.00
1246.585, 23514.00
1247.661, 23458.00
1248.738, 23734.00
1249.814, 23552.00
1250.890, 23749.00
1251.966, 23841.00
1253.042, 23653.00
1254.117, 23623.00
1255.193, 23791.00
1256.268, 23871.00
1257.343, 23876.00
1258.418, 23904.00
1259.493, 23898.00
1260.567, 23782.00
1261.642, 23905.00
1262.716, 23953.00
1263.790, 23719.00
1264.864, 23787.00
1265.938, 23799.00
1267.011, 23827.00
1268.085, 23819.00
1269.158, 23792.00
1270.231, 24063.00
1271.304, 23814.00
1272.377, 23831.00
1273.450, 24102.00
1274.522, 24137.00
1275.594, 24238.00
1276.666, 24012.00
1277.738, 24213.00
1278.810, 23988.00
1279.882, 24023.00
1280.953, 23898.00
1282.025, 24024.00
1283.096, 24045.00
1284.167, 24106.00
1285.238, 24068.00
1286.308, 24274.00
1287.379, 24078.00
1288.449, 24082.00
1289.519, 24135.00
1290.589, 23975.00
1291.659, 24197.00
1292.729, 24196.00
1293.798, 24129.00
1294.868, 24335.00
1295.937, 24200.00
1297.006, 24063.00
1298.075, 24230.00
1299.143, 24317.00
1300.212, 24194.00
1301.280, 24329.00
1302.348, 24185.00
1303.416, 24135.00
1304.484, 24167.00
1305.552, 24423.00
1306.620, 24384.00
1307.687, 24382.00
1308.754, 24504.00
1309.821, 24373.00
1310.888, 24275.00
1311.955, 24419.00
1313.021, 24404.00
1314.088, 24299.00
1315.154, 24533.00
1316.220, 24495.00
1317.286, 24607.00
1318.352, 24566.00
1319.417, 24532.00
1320.483, 24539.00
1321.548, 24467.00
1322.613, 24593.00
1323.678, 24479.00
1324.743, 24153.00
1325.807, 24455.00
1326.872, 24719.00
1327.936, 24522.00
1329.000, 24366.00
1330.064, 24553.00
1331.128, 24518.00
1332.191, 24696.00
1333.255, 24540.00
1334.318, 24553.00
1335.381, 24576.00
1336.444, 24762.00
1337.507, 24681.49
1338.569, 24693.54
1339.632, 24686.00
1340.694, 24595.00
1341.756, 24730.00
1342.818, 24718.00
1343.880, 24826.00
1344.941, 24817.00
1346.003, 24714.00
1347.064, 24628.00
1348.125, 24809.00
1349.186, 24608.00
1350.247, 24640.00
1351.308, 24594.00
1352.368, 24813.00
1353.428, 24901.00
1354.489, 24989.00
1355.549, 24751.00
1356.608, 24610.00
1357.668, 24852.00
1358.727, 25089.00
1359.787, 24742.00
1360.846, 24627.00
1361.905, 24995.00
1362.964, 24801.00
1364.022, 24982.00
1365.081, 25018.00
1366.139, 25013.00
1367.197, 25017.00
1368.255, 24801.00
1369.313, 24969.00
1370.371, 24917.00
1371.428, 24807.00
1372.486, 25218.00
1373.543, 24942.00
1374.600, 25222.00
1375.657, 25156.00
1376.713, 25061.00
1377.770, 24962.00
1378.826, 25119.00
1379.882, 24966.00
1380.938, 24923.00
1381.994, 25302.00
1383.050, 25073.00
1384.106, 25070.00
1385.161, 25034.00
1386.216, 25044.00
1387.271, 25197.00
1388.326, 25060.00
1389.381, 25173.00
1390.435, 24987.00
1391.490, 25131.00
1392.544, 25126.00
1393.598, 25142.00
1394.652, 25258.00
1395.705, 25236.00
1396.759, 25334.00
1397.812, 25122.00
1398.866, 25176.00
1399.919, 25498.00
1400.972, 25247.00
1402.024, 25379.00
1403.077, 25259.00
1404.129, 25484.00
1405.181, 25125.00
1406.233, 25354.00
1407.285, 25145.00
1408.337, 25276.00
1409.389, 25381.00
1410.440, 25128.00
1411.491, 25590.00
1412.542, 25442.60
1413.593, 25439.00
1414.644, 25475.00
1415.695, 25386.00
1416.745, 25415.00
1417.795, 25464.00
1418.845, 25587.00
1419.895, 25471.00
1420.945, 25625.00
1421.995, 25721.00
1423.044, 25564.00
1424.093, 25587.00
1425.142, 25585.00
1426.191, 25604.00
1427.240, 25640.00
1428.289, 25697.00
1429.337, 25602.00
1430.385, 25607.00
1431.433, 25855.00
1432.481, 25654.00
1433.529, 25684.00
1434.577, 25922.00
1435.624, 25708.00
1436.672, 25699.00
1437.719, 25883.00
1438.766, 25784.00
1439.812, 25612.00
1440.859, 25963.00
1441.905, 25752.00
1442.952, 25810.00
1443.998, 25876.27
1445.044, 25835.00
1446.090, 25875.00
1447.135, 25919.00
1448.181, 25860.00
1449.226, 25925.00
1450.271, 26125.00
1451.316, 26009.00
1452.361, 26194.00
1453.405, 25813.00
1454.450, 25820.00
1455.494, 25986.00
1456.538, 26071.00
1457.582, 25987.00
1458.626, 25865.00
1459.670, 26127.00
1460.713, 26011.00
1461.757, 26155.00
1462.800, 26131.00
1463.843, 25928.00
1464.886, 25890.00
1465.928, 26159.00
1466.971, 26088.00
1468.013, 26364.00
1469.055, 26062.00
1470.097, 26253.00
1471.139, 26066.00
1472.181, 26425.00
1473.222, 26139.00
1474.263, 26063.00
1475.305, 26160.00
1476.346, 26277.00
1477.386, 26272.00
1478.427, 26382.00
1479.468, 26166.00
1480.508, 26381.00
1481.548, 26241.30
1482.588, 26330.00
1483.628, 26240.00
1484.668, 26116.00
1485.707, 26448.00
1486.747, 26304.00
1487.786, 26503.00
1488.825, 26321.00
1489.864, 26410.00
1490.902, 26356.00
1491.941, 26310.72
1492.979, 26341.88
1494.017, 26298.00
1495.055, 26370.00
1496.093, 26451.00
1497.131, 26543.00
1498.168, 26654.00
1499.206, 26476.00
1500.243, 26671.00
1501.280, 26501.00
1502.317, 26524.00
1503.354, 26460.00
1504.390, 26616.00
1505.426, 26657.00
1506.463, 26694.00
1507.499, 26944.00
1508.535, 26740.00
1509.570, 26615.00
1510.606, 26795.00
1511.641, 26706.00
1512.676, 26688.00
1513.711, 26834.00
1514.746, 26742.00
1515.781, 26824.00
1516.816, 26719.00
1517.850, 26785.00
1518.884, 26681.00
1519.918, 26883.00
1520.952, 26818.00
1521.986, 26817.00
1523.019, 26869.00
1524.053, 26766.00
1525.086, 26829.00
1526.119, 26865.00
1527.152, 26969.00
1528.185, 27063.00
1529.217, 26852.00
1530.250, 27125.00
1531.282, 26931.00
1532.314, 27049.00
1533.346, 27061.00
1534.377, 27075.00
1535.409, 26925.00
1536.440, 27040.00
1537.472, 26939.00
1538.503, 26921.00
1539.534, 27187.00
1540.564, 26946.00
1541.595, 27181.00
1542.625, 27139.00
1543.656, 27072.00
1544.686, 27146.00
1545.716, 27316.00
1546.745, 27213.00
1547.775, 27279.00
1548.804, 27294.00
1549.834, 27313.00
1550.863, 27347.00
1551.892, 27400.00
1552.920, 27469.00
1553.949, 27262.00
1554.977, 27553.00
1556.006, 27283.00
1557.034, 27462.00
1558.062, 27380.00
1559.089, 27661.00
1560.117, 27468.00
1561.144, 27326.00
1562.172, 27544.00
1563.199, 27425.00
1564.226, 27440.00
1565.252, 27497.00
1566.279, 27555.00
1567.305, 27501.00
1568.332, 27662.00
1569.358, 27511.00
1570.384, 27807.00
##END=



