##NAMES=Albite
##RRUFFID=R050402
##IDEAL CHEMISTRY=NaAlSi_3_O_8_
##LOCALITY=Urbano mine, Golconda District, Brazil
##OWNER=RRUFF
##SOURCE=Bob Downs
##DESCRIPTION=Colorless tabular single crystals associated with fluorapatite R050401
##STATUS=The identification of this mineral has been confirmed by X-ray diffraction and chemical analysis
##URL=rruff.info/R050402
##MEASURED CHEMISTRY=Na_1.00_Al_1.00_Si_3.00_O_8_
##PIN_ID=M00107
##ORIENTATION=Laser parallel to b* (0 1 0). Fiducial mark perpendicular to laser is parallel to c [0 0 1]
86.07200, 5454.000
87.30800, 5824.000
88.54200, 5946.000
89.77700, 5976.000
91.01200, 5861.000
92.24600, 5495.000
93.48000, 5250.000
94.71400, 5149.000
95.94800, 5274.000
97.18200, 5222.000
98.41600, 5377.000
99.64900, 5506.000
100.8830, 5850.000
102.1160, 6107.000
103.3490, 6410.000
104.5820, 6913.000
105.8150, 7315.000
107.0470, 7566.000
108.2800, 7986.000
109.5120, 8194.269
110.7440, 8608.000
111.9760, 8561.000
113.2080, 8852.000
114.4400, 8906.000
115.6710, 8744.000
116.9030, 7955.000
118.1340, 7051.000
119.3650, 6341.000
120.5960, 5870.000
121.8270, 5676.000
123.0580, 5640.000
124.2880, 5542.000
125.5190, 5514.000
126.7490, 5622.000
127.9790, 5827.000
129.2090, 6052.000
130.4390, 6279.000
131.6680, 6477.000
132.8980, 6951.000
134.1270, 7415.000
135.3560, 8086.000
136.5850, 8992.000
137.8140, 9694.000
139.0430, 10940.00
140.2710, 12041.00
141.5000, 13461.00
142.7280, 14656.00
143.9560, 15468.00
145.1840, 16392.00
146.4120, 16941.00
147.6390, 17932.00
148.8670, 18327.00
150.0940, 18546.00
151.3210, 18658.00
152.5490, 18001.00
153.7750, 16343.00
155.0020, 14058.00
156.2290, 11549.00
157.4550, 9628.000
158.6810, 8755.000
159.9080, 8354.000
161.1340, 8568.000
162.3590, 9039.000
163.5850, 9418.000
164.8110, 9841.000
166.0360, 10326.00
167.2610, 10918.00
168.4860, 11393.00
169.7110, 12246.00
170.9360, 13197.00
172.1610, 13922.00
173.3850, 14829.00
174.6100, 15108.00
175.8340, 15352.00
177.0580, 15777.00
178.2820, 16397.00
179.5050, 16932.00
180.7290, 17655.00
181.9520, 18293.00
183.1760, 18956.00
184.3990, 19458.00
185.6220, 19339.00
186.8450, 19610.00
188.0670, 19079.00
189.2900, 18178.00
190.5120, 16905.00
191.7340, 15395.00
192.9560, 14252.00
194.1780, 13358.00
195.4000, 12601.00
196.6220, 12441.00
197.8430, 12587.00
199.0640, 12957.00
200.2860, 13830.00
201.5070, 14420.00
202.7270, 15021.00
203.9480, 15353.00
205.1690, 15682.00
206.3890, 16256.00
207.6090, 16845.00
208.8290, 17631.00
210.0490, 17911.00
211.2690, 17244.00
212.4890, 15990.00
213.7080, 13947.00
214.9280, 11837.00
216.1470, 10065.00
217.3660, 8842.000
218.5850, 7948.000
219.8030, 7366.000
221.0220, 6805.000
222.2400, 6282.000
223.4590, 6216.000
224.6770, 5951.000
225.8950, 5840.000
227.1120, 5730.000
228.3300, 5622.000
229.5480, 5574.000
230.7650, 5529.000
231.9820, 5408.000
233.1990, 5460.000
234.4160, 5480.000
235.6330, 5433.000
236.8490, 5541.000
238.0660, 5457.000
239.2820, 5649.000
240.4980, 5750.000
241.7140, 5921.000
242.9300, 6193.000
244.1460, 6383.000
245.3610, 6577.000
246.5770, 6777.000
247.7920, 6995.599
249.0070, 7166.000
250.2220, 7470.000
251.4370, 7751.000
252.6510, 8044.000
253.8660, 8180.000
255.0800, 7974.000
256.2940, 7862.000
257.5080, 7800.000
258.7220, 7985.000
259.9360, 8585.000
261.1490, 8995.000
262.3630, 9227.000
263.5760, 9498.000
264.7890, 9909.000
266.0020, 10433.00
267.2150, 10892.00
268.4270, 11329.00
269.6400, 11609.00
270.8520, 11665.00
272.0640, 11367.00
273.2760, 10682.00
274.4880, 9945.000
275.7000, 9612.000
276.9120, 9240.000
278.1230, 9368.000
279.3340, 9681.000
280.5450, 10581.00
281.7560, 11440.00
282.9670, 12663.00
284.1780, 13676.00
285.3880, 14663.00
286.5980, 15579.00
287.8090, 16701.00
289.0190, 17883.00
290.2290, 18763.00
291.4380, 19460.00
292.6480, 19105.00
293.8570, 17561.00
295.0670, 15567.00
296.2760, 13502.00
297.4850, 11609.00
298.6930, 10142.00
299.9020, 8923.000
301.1110, 8215.000
302.3190, 7540.000
303.5270, 7080.000
304.7350, 6831.000
305.9430, 6544.000
307.1510, 6391.000
308.3580, 6079.000
309.5660, 6005.000
310.7730, 5879.000
311.9800, 5929.000
313.1870, 5842.000
314.3940, 5688.000
315.6010, 5719.000
316.8070, 5815.000
318.0130, 5865.000
319.2200, 6052.000
320.4260, 6382.000
321.6310, 6465.000
322.8370, 6646.000
324.0430, 6773.000
325.2480, 6951.000
326.4540, 7102.000
327.6590, 7385.000
328.8640, 7619.000
330.0680, 7766.000
331.2730, 7611.000
332.4780, 7162.000
333.6820, 6751.000
334.8860, 6283.000
336.0900, 5970.000
337.2940, 5896.000
338.4980, 5606.000
339.7010, 5612.000
340.9050, 5502.000
342.1080, 5424.000
343.3110, 5522.000
344.5140, 5481.000
345.7170, 5422.000
346.9200, 5542.000
348.1220, 5412.000
349.3240, 5474.000
350.5270, 5487.000
351.7290, 5316.000
352.9310, 5285.000
354.1320, 5285.000
355.3340, 5265.000
356.5350, 5254.846
357.7370, 5203.000
358.9380, 5238.000
360.1390, 5183.000
361.3400, 5171.000
362.5400, 5185.000
363.7410, 5241.000
364.9410, 5136.000
366.1410, 5157.000
367.3410, 5104.000
368.5410, 5233.000
369.7410, 5163.000
370.9400, 5186.000
372.1400, 5192.000
373.3390, 5168.000
374.5380, 5229.000
375.7370, 5218.000
376.9360, 5149.000
378.1350, 5212.000
379.3330, 5220.000
380.5310, 5205.000
381.7300, 5338.000
382.9280, 5352.733
384.1260, 5374.775
385.3230, 5498.000
386.5210, 5448.000
387.7180, 5541.000
388.9160, 5683.000
390.1130, 5762.000
391.3100, 5964.000
392.5060, 6107.000
393.7030, 6224.000
394.9000, 6354.000
396.0960, 6603.000
397.2920, 6861.000
398.4880, 7149.000
399.6840, 7512.000
400.8800, 7653.000
402.0750, 7783.000
403.2710, 7804.000
404.4660, 7915.000
405.6610, 8455.000
406.8560, 8953.000
408.0510, 9684.000
409.2450, 10183.00
410.4400, 10132.00
411.6340, 10217.00
412.8280, 9911.000
414.0220, 10247.00
415.2160, 10401.00
416.4100, 10763.00
417.6030, 10852.00
418.7970, 10290.00
419.9900, 9193.000
421.1830, 8187.000
422.3760, 7433.000
423.5690, 6890.000
424.7610, 6529.000
425.9540, 6239.000
427.1460, 6309.000
428.3380, 6198.000
429.5300, 6125.000
430.7220, 6170.000
431.9140, 6187.000
433.1050, 6205.000
434.2970, 6315.000
435.4880, 6449.000
436.6790, 6528.000
437.8700, 6696.000
439.0610, 6833.000
440.2510, 7101.000
441.4420, 7357.000
442.6320, 7743.000
443.8220, 8295.000
445.0120, 9077.000
446.2020, 10167.00
447.3910, 11323.00
448.5810, 12804.00
449.7700, 13945.00
450.9600, 15280.00
452.1490, 16359.00
453.3370, 17661.00
454.5260, 18779.00
455.7150, 19768.00
456.9030, 20441.00
458.0910, 20197.00
459.2800, 18661.00
460.4670, 16918.00
461.6550, 15376.00
462.8430, 14256.00
464.0300, 13834.00
465.2180, 13891.00
466.4050, 14762.00
467.5920, 16372.00
468.7790, 18952.00
469.9650, 22409.00
471.1520, 26489.00
472.3380, 30305.00
473.5250, 33385.00
474.7110, 36475.00
475.8970, 39952.00
477.0820, 43285.00
478.2680, 45847.00
479.4540, 47247.00
480.6390, 45287.00
481.8240, 40348.00
483.0090, 34316.00
484.1940, 27703.00
485.3780, 22414.00
486.5630, 18984.00
487.7470, 16592.00
488.9320, 15112.00
490.1160, 14455.00
491.3000, 14062.00
492.4830, 14295.00
493.6670, 15081.00
494.8500, 16715.00
496.0340, 18894.00
497.2170, 22424.00
498.4000, 26869.00
499.5820, 31577.00
500.7650, 36628.00
501.9480, 40796.00
503.1300, 44690.00
504.3120, 48901.00
505.4940, 53351.00
506.6760, 56394.00
507.8580, 57781.00
509.0390, 55727.00
510.2210, 49612.00
511.4020, 42077.00
512.5830, 34116.00
513.7640, 27458.00
514.9450, 22564.00
516.1250, 19110.00
517.3060, 16419.00
518.4860, 14704.00
519.6660, 13163.00
520.8460, 12170.00
522.0260, 11407.00
523.2060, 10746.00
524.3850, 10160.00
525.5650, 9796.000
526.7440, 9464.000
527.9230, 9093.000
529.1020, 8989.000
530.2810, 8705.000
531.4590, 8444.000
532.6380, 8227.000
533.8160, 8056.000
534.9940, 7907.000
536.1720, 7917.000
537.3500, 7752.000
538.5270, 7631.000
539.7050, 7333.000
540.8820, 7377.000
542.0590, 7544.000
543.2360, 7328.000
544.4130, 7329.000
545.5900, 7212.000
546.7660, 7226.000
547.9430, 7186.000
549.1190, 7031.000
550.2950, 7150.000
551.4710, 6990.000
552.6470, 6931.000
553.8220, 6941.000
554.9980, 7021.000
556.1730, 7095.813
557.3480, 6860.000
558.5230, 7382.000
559.6980, 7574.000
560.8730, 7770.000
562.0470, 6895.000
563.2220, 6928.000
564.3960, 6951.000
565.5700, 6987.000
566.7440, 7011.000
567.9170, 7206.000
569.0910, 7166.000
570.2640, 7283.000
571.4380, 7657.000
572.6110, 7783.000
573.7840, 7812.000
574.9570, 8092.000
576.1290, 8344.000
577.3020, 8394.000
578.4740, 8669.000
579.6460, 8644.000
580.8180, 8465.000
581.9900, 8248.000
583.1620, 7922.000
584.3330, 7620.000
585.5040, 7458.000
586.6760, 7129.000
587.8470, 7094.000
589.0180, 6806.000
590.1880, 6781.000
591.3590, 6673.000
592.5290, 6614.000
593.7000, 6653.000
594.8700, 6577.000
596.0400, 6499.000
597.2090, 6569.000
598.3790, 6518.000
599.5490, 6609.000
600.7180, 6472.000
601.8870, 6434.000
603.0560, 6473.000
604.2250, 6533.000
605.3940, 6471.000
606.5620, 6526.000
607.7300, 6511.000
608.8990, 6479.000
610.0670, 6482.000
611.2350, 6543.000
612.4020, 6511.000
613.5700, 6558.000
614.7370, 6550.000
615.9050, 6541.000
617.0720, 6605.000
618.2390, 6551.000
619.4060, 6624.386
620.5720, 6764.000
621.7390, 6749.000
622.9050, 6774.000
624.0710, 6864.000
625.2370, 6916.000
626.4030, 7071.000
627.5690, 7055.000
628.7340, 7108.000
629.9000, 7129.000
631.0650, 7041.000
632.2300, 7157.000
633.3950, 7087.000
634.5600, 7127.000
635.7240, 7316.000
636.8890, 7151.000
638.0530, 7332.000
639.2170, 7539.000
640.3810, 7529.000
641.5450, 7718.000
642.7080, 7957.000
643.8720, 7832.000
645.0350, 8028.000
646.1980, 8194.000
647.3610, 8112.000
648.5240, 7939.000
649.6870, 7838.000
650.8490, 7669.000
652.0120, 7498.000
653.1740, 7411.000
654.3360, 7241.000
655.4980, 7034.000
656.6600, 7001.000
657.8210, 6874.000
658.9830, 6898.000
660.1440, 6689.000
661.3050, 6734.000
662.4660, 6817.000
663.6270, 6706.000
664.7870, 6742.000
665.9480, 6641.000
667.1080, 6547.000
668.2680, 6643.000
669.4280, 6657.000
670.5880, 6463.000
671.7480, 6674.000
672.9070, 6579.000
674.0670, 6698.000
675.2260, 6630.000
676.3850, 6638.000
677.5440, 6526.000
678.7030, 6655.000
679.8610, 6470.000
681.0200, 6543.000
682.1780, 6595.000
683.3360, 6478.000
684.4940, 6579.000
685.6520, 6672.000
686.8090, 6488.000
687.9670, 6576.000
689.1240, 6619.000
690.2810, 6543.000
691.4380, 6582.000
692.5950, 6485.000
693.7520, 6534.000
694.9080, 6590.000
696.0650, 6658.000
697.2210, 6672.467
698.3770, 6651.000
699.5330, 6673.000
700.6880, 6666.000
701.8440, 6597.000
702.9990, 6597.000
704.1550, 6593.946
705.3100, 6629.000
706.4650, 6601.000
707.6190, 6681.000
708.7740, 6662.000
709.9290, 6584.000
711.0830, 6676.000
712.2370, 6689.000
713.3910, 6701.000
714.5450, 6861.000
715.6980, 6688.000
716.8520, 6849.000
718.0050, 6918.000
719.1580, 6802.000
720.3110, 6917.000
721.4640, 6963.000
722.6170, 6920.000
723.7700, 6976.000
724.9220, 7056.000
726.0740, 6962.000
727.2260, 7132.000
728.3780, 7054.000
729.5300, 7088.000
730.6810, 7230.000
731.8330, 7085.000
732.9840, 7219.000
734.1350, 7263.000
735.2860, 7284.000
736.4370, 7367.000
737.5880, 7361.000
738.7380, 7496.000
739.8880, 7630.000
741.0390, 7718.000
742.1890, 7701.000
743.3380, 7934.000
744.4880, 7987.000
745.6380, 8314.000
746.7870, 8488.000
747.9360, 8737.000
749.0850, 9157.000
750.2340, 9606.000
751.3830, 10091.00
752.5310, 11108.00
753.6800, 12198.00
754.8280, 13577.00
755.9760, 15595.00
757.1240, 17501.00
758.2720, 19615.00
759.4190, 21538.00
760.5670, 23337.00
761.7140, 24971.00
762.8610, 25887.00
764.0080, 26067.00
765.1550, 24849.00
766.3020, 22656.00
767.4480, 19758.00
768.5950, 16663.00
769.7410, 14647.00
770.8870, 12844.00
772.0330, 11834.00
773.1780, 11083.00
774.3240, 10193.00
775.4690, 9807.000
776.6140, 9403.000
777.7590, 9033.000
778.9040, 8909.000
780.0490, 8727.000
781.1940, 8464.000
782.3380, 8515.000
783.4820, 8368.000
784.6260, 8296.000
785.7700, 8278.000
786.9140, 8198.000
788.0580, 8189.000
789.2010, 8218.000
790.3450, 8175.000
791.4880, 8242.000
792.6310, 8232.000
793.7730, 8381.000
794.9160, 8438.000
796.0590, 8532.000
797.2010, 8676.000
798.3430, 8787.000
799.4850, 9082.000
800.6270, 9338.000
801.7690, 9872.000
802.9100, 10465.00
804.0520, 11095.00
805.1930, 12283.00
806.3340, 13563.00
807.4750, 15220.00
808.6160, 17319.00
809.7560, 19522.00
810.8970, 21327.00
812.0370, 23325.00
813.1770, 24729.00
814.3170, 25909.00
815.4570, 26106.00
816.5960, 25276.00
817.7360, 23356.00
818.8750, 20488.00
820.0140, 17766.00
821.1530, 15125.00
822.2920, 13530.00
823.4310, 11887.00
824.5690, 11118.00
825.7070, 10303.00
826.8460, 9778.000
827.9840, 9454.000
829.1220, 9164.000
830.2590, 8984.000
831.3970, 8839.000
832.5340, 8749.000
833.6710, 8600.000
834.8080, 8541.000
835.9450, 8372.000
837.0820, 8193.000
838.2190, 8241.000
839.3550, 8158.000
840.4910, 8135.000
841.6270, 8153.000
842.7630, 7973.000
843.8990, 7912.000
845.0350, 7967.000
846.1700, 7732.000
847.3060, 7924.000
848.4410, 7899.000
849.5760, 7698.000
850.7100, 7720.000
851.8450, 7772.000
852.9800, 7648.000
854.1140, 7738.000
855.2480, 7635.000
856.3820, 7718.000
857.5160, 7857.000
858.6500, 7738.000
859.7830, 7726.000
860.9170, 7887.000
862.0500, 7838.000
863.1830, 7686.000
864.3160, 7691.000
865.4480, 7724.000
866.5810, 7679.000
867.7130, 7682.196
868.8460, 7590.000
869.9780, 7663.000
871.1100, 7579.000
872.2410, 7609.000
873.3730, 7651.000
874.5050, 7664.000
875.6360, 7556.000
876.7670, 7655.000
877.8980, 7589.000
879.0290, 7502.000
880.1590, 7632.000
881.2900, 7533.000
882.4200, 7528.000
883.5500, 7658.000
884.6800, 7615.000
885.8100, 7622.000
886.9400, 7663.000
888.0690, 7646.000
889.1990, 7623.000
890.3280, 7682.000
891.4570, 7705.000
892.5860, 7605.000
893.7140, 7700.000
894.8430, 7687.000
895.9710, 7693.000
897.1000, 7746.000
898.2280, 7709.000
899.3560, 7702.000
900.4830, 7686.000
901.6110, 7647.000
902.7380, 7641.595
903.8660, 7725.000
904.9930, 7663.000
906.1200, 7704.000
907.2460, 7832.000
908.3730, 7702.000
909.5000, 7775.000
910.6260, 7844.000
911.7520, 7746.000
912.8780, 7814.000
914.0040, 7695.000
915.1290, 7782.000
916.2550, 7834.000
917.3800, 7730.000
918.5050, 7720.000
919.6300, 7857.000
920.7550, 7690.000
921.8800, 7867.000
923.0040, 7749.000
924.1290, 7622.000
925.2530, 7698.000
926.3770, 7811.000
927.5010, 7781.000
928.6250, 7801.000
929.7480, 7863.000
930.8720, 7751.000
931.9950, 7720.000
933.1180, 7958.000
934.2410, 7859.000
935.3640, 7949.000
936.4860, 7824.000
937.6090, 7843.000
938.7310, 7946.000
939.8530, 7819.000
940.9750, 7871.000
942.0970, 7946.000
943.2180, 8001.000
944.3400, 7899.000
945.4610, 8056.000
946.5820, 8057.000
947.7030, 7928.000
948.8240, 8094.000
949.9450, 7892.000
951.0650, 7914.000
952.1860, 8000.000
953.3060, 7921.000
954.4260, 7986.000
955.5460, 8142.000
956.6650, 8162.000
957.7850, 8219.000
958.9040, 8170.000
960.0230, 8155.000
961.1420, 8122.000
962.2610, 8276.000
963.3800, 8093.000
964.4990, 8320.000
965.6170, 8280.000
966.7350, 8293.000
967.8530, 8454.000
968.9710, 8491.000
970.0890, 8608.000
971.2070, 8589.000
972.3240, 8811.000
973.4410, 8869.000
974.5580, 8942.000
975.6750, 9249.000
976.7920, 9212.000
977.9090, 9285.000
979.0250, 9426.000
980.1410, 9271.000
981.2580, 9262.000
982.3740, 9077.000
983.4890, 8883.000
984.6050, 8863.000
985.7200, 8726.000
986.8360, 8560.000
987.9510, 8659.000
989.0660, 8603.000
990.1810, 8552.000
991.2950, 8720.000
992.4100, 8451.000
993.5240, 8656.000
994.6390, 8706.000
995.7530, 8741.000
996.8660, 8899.000
997.9800, 9000.000
999.0940, 9236.000
1000.207, 9322.000
1001.320, 9664.000
1002.433, 9781.000
1003.546, 10105.00
1004.659, 10234.00
1005.772, 10181.00
1006.884, 10194.00
1007.996, 10101.00
1009.108, 10140.00
1010.220, 10087.00
1011.332, 10147.00
1012.444, 9899.000
1013.555, 10035.00
1014.666, 9892.000
1015.777, 9705.000
1016.888, 9739.000
1017.999, 9578.000
1019.110, 9265.000
1020.220, 9275.000
1021.331, 9069.000
1022.441, 8833.000
1023.551, 8998.000
1024.661, 8898.000
1025.770, 8801.000
1026.880, 8890.000
1027.989, 8819.000
1029.098, 8738.000
1030.207, 8992.000
1031.316, 8743.000
1032.425, 8815.000
1033.533, 8907.000
1034.642, 8871.000
1035.750, 8873.000
1036.858, 8978.000
1037.966, 8961.000
1039.073, 8903.000
1040.181, 9031.000
1041.288, 9162.000
1042.396, 9106.000
1043.503, 9307.000
1044.610, 9369.000
1045.716, 9479.000
1046.823, 9536.000
1047.929, 9350.000
1049.036, 9283.000
1050.142, 9317.000
1051.248, 9139.000
1052.353, 9097.000
1053.459, 8941.000
1054.564, 8915.000
1055.670, 8789.000
1056.775, 8766.000
1057.880, 8660.000
1058.985, 8804.000
1060.089, 8795.000
1061.194, 8640.000
1062.298, 8684.000
1063.402, 8884.000
1064.506, 8682.000
1065.610, 8757.000
1066.713, 8940.000
1067.817, 8558.000
1068.920, 8673.000
1070.023, 8756.000
1071.126, 8730.000
1072.229, 8829.000
1073.332, 8890.000
1074.435, 8903.000
1075.537, 9142.000
1076.639, 9105.000
1077.741, 9083.000
1078.843, 9168.000
1079.945, 9384.000
1081.046, 9296.000
1082.148, 9545.000
1083.249, 9678.000
1084.350, 9826.000
1085.451, 10012.00
1086.551, 10262.00
1087.652, 10559.00
1088.752, 11000.00
1089.853, 11337.00
1090.953, 11867.00
1092.053, 12543.00
1093.152, 13291.00
1094.252, 13658.00
1095.351, 14718.00
1096.451, 15137.00
1097.550, 15427.00
1098.649, 15851.00
1099.748, 15685.00
1100.846, 15318.00
1101.945, 14577.00
1103.043, 13944.00
1104.141, 13163.00
1105.239, 12655.00
1106.337, 11937.00
1107.434, 11471.00
1108.532, 11130.00
1109.629, 10565.00
1110.726, 10262.00
1111.823, 10223.00
1112.920, 9902.000
1114.017, 9746.000
1115.113, 9627.000
1116.210, 9721.000
1117.306, 9530.000
1118.402, 9694.000
1119.498, 9381.000
1120.593, 9378.000
1121.689, 9517.000
1122.784, 9228.000
1123.879, 9256.000
1124.974, 9265.000
1126.069, 9137.000
1127.164, 9164.000
1128.259, 9148.000
1129.353, 8878.000
1130.447, 8923.000
1131.541, 8912.000
1132.635, 8914.000
1133.729, 8748.000
1134.822, 8847.000
1135.916, 8802.000
1137.009, 8786.000
1138.102, 8825.000
1139.195, 8765.000
1140.288, 8797.000
1141.380, 8827.000
1142.473, 8848.000
1143.565, 8885.000
1144.657, 8994.000
1145.749, 8844.000
1146.841, 9028.000
1147.932, 9021.000
1149.024, 9097.000
1150.115, 9165.000
1151.206, 9205.000
1152.297, 9208.000
1153.388, 9256.000
1154.479, 9280.000
1155.569, 9190.000
1156.659, 9014.000
1157.750, 9100.000
1158.839, 8931.000
1159.929, 8901.000
1161.019, 8919.000
1162.108, 8811.000
1163.198, 8940.000
1164.287, 8850.000
1165.376, 8672.000
1166.465, 8865.000
1167.553, 8901.000
1168.642, 8755.000
1169.730, 8919.000
1170.818, 8825.000
1171.906, 8840.000
1172.994, 8793.000
1174.082, 8849.000
1175.170, 8838.000
1176.257, 8794.000
1177.344, 8840.000
1178.431, 8802.000
1179.518, 8895.000
1180.605, 8830.000
1181.691, 8747.000
1182.778, 8721.000
1183.864, 8893.000
1184.950, 8764.000
1186.036, 8817.000
1187.122, 9019.000
1188.207, 8789.000
1189.292, 8674.000
1190.378, 8803.000
1191.463, 8786.000
1192.548, 8867.000
1193.632, 8888.000
1194.717, 8849.000
1195.801, 8780.000
1196.886, 8818.000
1197.970, 8704.000
1199.054, 8858.000
1200.137, 8862.000
1201.221, 8806.000
1202.305, 8879.000
1203.388, 8992.000
1204.471, 8779.000
1205.554, 8973.000
1206.637, 8974.000
1207.719, 8942.000
1208.802, 8924.000
1209.884, 8933.248
1210.966, 8886.000
1212.048, 8959.000
1213.130, 8897.000
1214.212, 8922.000
1215.293, 8912.000
1216.374, 8971.000
1217.456, 8820.000
1218.536, 9026.000
1219.617, 8979.000
1220.698, 8838.000
1221.778, 8839.000
1222.859, 8872.000
1223.939, 8879.000
1225.019, 8910.000
1226.099, 8993.000
1227.178, 9001.000
1228.258, 8972.000
1229.337, 9026.000
1230.417, 8904.000
1231.496, 9002.000
1232.574, 9010.000
1233.653, 8937.000
1234.732, 8968.000
1235.810, 9050.000
1236.888, 9032.000
1237.966, 9033.000
1239.044, 9099.000
1240.122, 9108.000
1241.199, 9054.000
1242.277, 9155.000
1243.354, 9065.000
1244.431, 9132.000
1245.508, 9230.000
1246.585, 9009.000
1247.661, 9127.000
1248.738, 9224.000
1249.814, 9050.000
1250.890, 9122.000
1251.966, 9147.000
1253.042, 9239.000
1254.117, 9089.000
1255.193, 9164.000
1256.268, 9143.000
1257.343, 9152.000
1258.418, 9254.000
1259.493, 9214.000
1260.567, 9193.000
1261.642, 9231.000
1262.716, 9172.000
1263.790, 9220.000
1264.864, 9313.000
1265.938, 9278.000
1267.011, 9106.000
1268.085, 9255.000
1269.158, 9185.000
1270.231, 9172.000
1271.304, 9354.000
1272.377, 9287.000
1273.450, 9192.000
1274.522, 9411.000
1275.594, 9282.000
1276.666, 9347.000
1277.738, 9378.000
1278.810, 9237.000
1279.882, 9197.000
1280.953, 9285.000
1282.025, 9192.000
1283.096, 9167.000
1284.167, 9365.000
1285.238, 9186.000
1286.308, 9308.000
1287.379, 9415.000
1288.449, 9270.000
1289.519, 9190.000
1290.589, 9411.000
1291.659, 9322.000
1292.729, 9318.000
1293.798, 9473.000
1294.868, 9514.000
1295.937, 9279.000
1297.006, 9422.000
1298.075, 9415.000
1299.143, 9436.000
1300.212, 9487.000
1301.280, 9397.000
1302.348, 9494.000
1303.416, 9338.000
1304.484, 9309.000
1305.552, 9394.000
1306.620, 9335.000
1307.687, 9511.000
1308.754, 9400.000
1309.821, 9436.000
1310.888, 9525.000
1311.955, 9370.000
1313.021, 9632.000
1314.088, 9625.000
1315.154, 9490.000
1316.220, 9440.000
1317.286, 9526.000
1318.352, 9546.000
1319.417, 9493.000
1320.483, 9587.000
1321.548, 9585.000
1322.613, 9426.000
1323.678, 9572.000
1324.743, 9405.000
1325.807, 9408.000
1326.872, 9502.000
1327.936, 9243.000
1329.000, 9440.000
1330.064, 9506.000
1331.128, 9486.000
1332.191, 9482.000
1333.255, 9492.000
1334.318, 9437.000
1335.381, 9509.000
1336.444, 9508.000
1337.507, 9461.000
1338.569, 9450.000
1339.632, 9564.000
1340.694, 9525.000
1341.756, 9506.000
1342.818, 9580.000
1343.880, 9536.010
1344.941, 9612.000
1346.003, 9536.000
1347.064, 9483.000
1348.125, 9505.000
1349.186, 9598.000
1350.247, 9541.000
1351.308, 9462.000
1352.368, 9659.000
1353.428, 9476.000
1354.489, 9430.000
1355.549, 9583.000
1356.608, 9475.000
1357.668, 9405.000
1358.727, 9579.000
1359.787, 9608.000
1360.846, 9485.000
1361.905, 9471.000
1362.964, 9609.000
1364.022, 9346.000
1365.081, 9501.000
1366.139, 9628.000
1367.197, 9530.000
1368.255, 9512.000
1369.313, 9531.000
1370.371, 9532.000
1371.428, 9481.000
1372.486, 9643.000
1373.543, 9495.000
1374.600, 9602.000
1375.657, 9663.000
1376.713, 9558.000
1377.770, 9534.000
1378.826, 9723.000
1379.882, 9478.000
1380.938, 9655.000
1381.994, 9817.000
1383.050, 9450.000
1384.106, 9608.000
1385.161, 9516.000
1386.216, 9567.000
1387.271, 9405.000
1388.326, 9725.000
1389.381, 9612.000
1390.435, 9521.000
1391.490, 9718.000
1392.544, 9685.000
1393.598, 9533.000
1394.652, 9690.000
1395.705, 9545.000
1396.759, 9600.000
1397.812, 9620.000
1398.866, 9564.000
1399.919, 9620.000
1400.972, 9725.000
1402.024, 9695.000
1403.077, 9707.000
1404.129, 9661.000
1405.181, 9713.000
1406.233, 9575.000
1407.285, 9648.000
1408.337, 9611.000
1409.389, 9698.000
1410.440, 9675.000
1411.491, 9611.000
1412.542, 9686.000
1413.593, 9725.000
1414.644, 9775.000
1415.695, 9675.000
1416.745, 9735.000
1417.795, 9816.000
1418.845, 9911.000
1419.895, 9715.000
1420.945, 9784.000
1421.995, 9697.000
1423.044, 9814.000
1424.093, 9842.000
1425.142, 9696.000
1426.191, 9769.000
1427.240, 9781.000
1428.289, 9803.000
1429.337, 9819.000
1430.385, 10013.00
1431.433, 9993.824
1432.481, 9857.000
1433.529, 10030.00
1434.577, 9985.000
1435.624, 9901.000
1436.672, 9988.000
1437.719, 9996.000
1438.766, 10004.01
1439.812, 9931.000
1440.859, 10055.00
1441.905, 10054.00
1442.952, 10076.00
1443.998, 10130.00
1445.044, 10086.00
1446.090, 10247.00
1447.135, 10280.00
1448.181, 10125.00
1449.226, 10220.00
1450.271, 10371.00
1451.316, 10117.00
1452.361, 10157.00
1453.405, 10285.00
1454.450, 10149.00
1455.494, 10073.00
1456.538, 10244.00
1457.582, 10158.00
1458.626, 10243.00
1459.670, 10171.00
1460.713, 10171.00
1461.757, 10181.00
1462.800, 10172.00
1463.843, 10196.00
1464.886, 10110.00
1465.928, 10195.00
1466.971, 10281.00
1468.013, 10065.00
1469.055, 10075.00
1470.097, 10238.00
1471.139, 10092.00
1472.181, 10123.00
1473.222, 10191.00
1474.263, 9983.000
1475.305, 10097.00
1476.346, 10259.00
1477.386, 9991.000
1478.427, 10103.00
1479.468, 10161.00
1480.508, 10091.00
1481.548, 10202.00
1482.588, 10186.00
1483.628, 10033.00
1484.668, 10121.00
1485.707, 10141.00
1486.747, 10103.00
1487.786, 10073.00
1488.825, 10086.00
1489.864, 10111.00
1490.902, 10238.00
1491.941, 10115.00
1492.979, 10150.00
1494.017, 10133.00
1495.055, 10064.00
1496.093, 10207.00
1497.131, 10078.00
1498.168, 10163.00
1499.206, 10185.00
1500.243, 10061.00
1501.280, 10316.00
1502.317, 10372.00
1503.354, 10141.00
1504.390, 10281.00
1505.426, 10361.00
1506.463, 10216.00
1507.499, 10245.00
1508.535, 10354.00
1509.570, 10303.00
1510.606, 10214.00
1511.641, 10323.00
1512.676, 10288.00
1513.711, 10184.00
1514.746, 10284.00
1515.781, 10271.00
1516.816, 10162.00
1517.850, 10396.00
1518.884, 10221.00
1519.918, 10207.00
1520.952, 10290.00
1521.986, 10408.00
1523.019, 10304.00
1524.053, 10323.00
1525.086, 10281.00
1526.119, 10387.00
1527.152, 10258.00
1528.185, 10333.00
1529.217, 10349.00
1530.250, 10354.00
1531.282, 10480.00
1532.314, 10305.00
1533.346, 10321.00
1534.377, 10486.00
1535.409, 10489.00
1536.440, 10357.00
1537.472, 10458.00
1538.503, 10424.00
1539.534, 10309.00
1540.564, 10607.00
1541.595, 10438.00
1542.625, 10397.00
1543.656, 10313.00
1544.686, 10308.00
1545.716, 10338.00
1546.745, 10361.00
1547.775, 10543.00
1548.804, 10513.00
1549.834, 10460.00
1550.863, 10622.00
1551.892, 10557.00
1552.920, 10571.00
1553.949, 10706.00
1554.977, 10574.00
1556.006, 10576.00
1557.034, 10589.00
1558.062, 10628.00
1559.089, 10419.00
1560.117, 10459.00
1561.144, 10636.00
1562.172, 10438.00
1563.199, 10654.00
1564.226, 10545.00
1565.252, 10454.00
1566.279, 10656.00
1567.305, 10702.00
1568.332, 10547.00
1569.358, 10650.00
1570.384, 10686.00
##END=



