##NAMES=Albite
##RRUFFID=R050402
##IDEAL CHEMISTRY=NaAlSi_3_O_8_
##LOCALITY=Urbano mine, Golconda District, Brazil
##OWNER=RRUFF
##SOURCE=Bob Downs
##DESCRIPTION=Colorless tabular single crystals associated with fluorapatite R050401
##STATUS=The identification of this mineral has been confirmed by X-ray diffraction and chemical analysis
##URL=rruff.info/R050402
##MEASURED CHEMISTRY=Na_1.00_Al_1.00_Si_3.00_O_8_
##PIN_ID=M00068
##ORIENTATION=Laser parallel to a* (1 0 0). Fiducial mark perpendicular to laser is parallel to b [0 1 0]
86.07200, 4131.000
87.30800, 4231.000
88.54200, 4267.000
89.77700, 4278.000
91.01200, 4249.000
92.24600, 4252.000
93.48000, 4254.000
94.71400, 4379.000
95.94800, 4472.000
97.18200, 4455.000
98.41600, 4672.000
99.64900, 4718.000
100.8830, 4894.000
102.1160, 5051.000
103.3490, 5220.000
104.5820, 5539.000
105.8150, 5766.000
107.0470, 6193.000
108.2800, 6713.000
109.5120, 7218.000
110.7440, 7592.000
111.9760, 7631.000
113.2080, 7642.000
114.4400, 7342.000
115.6710, 7049.000
116.9030, 6633.000
118.1340, 6359.000
119.3650, 6128.796
120.5960, 5918.622
121.8270, 5776.000
123.0580, 5701.000
124.2880, 5615.000
125.5190, 5638.000
126.7490, 5715.000
127.9790, 5658.000
129.2090, 5895.000
130.4390, 5946.000
131.6680, 6011.000
132.8980, 6204.000
134.1270, 6419.000
135.3560, 6634.000
136.5850, 7044.000
137.8140, 7525.000
139.0430, 8160.000
140.2710, 9061.000
141.5000, 9725.000
142.7280, 9981.000
143.9560, 9650.000
145.1840, 9229.000
146.4120, 8799.000
147.6390, 8671.000
148.8670, 8442.000
150.0940, 8399.000
151.3210, 8393.000
152.5490, 8211.000
153.7750, 8118.000
155.0020, 8150.000
156.2290, 8275.000
157.4550, 8478.000
158.6810, 8754.000
159.9080, 8986.000
161.1340, 9277.000
162.3590, 9246.000
163.5850, 9055.000
164.8110, 8753.000
166.0360, 8547.000
167.2610, 8515.000
168.4860, 8239.000
169.7110, 8147.000
170.9360, 8208.000
172.1610, 7976.000
173.3850, 7997.000
174.6100, 7879.000
175.8340, 7991.000
177.0580, 7978.000
178.2820, 8194.000
179.5050, 8257.000
180.7290, 8507.000
181.9520, 8689.000
183.1760, 8698.000
184.3990, 8708.000
185.6220, 8802.000
186.8450, 8673.000
188.0670, 8484.000
189.2900, 8413.000
190.5120, 8180.000
191.7340, 7996.000
192.9560, 7981.000
194.1780, 7937.000
195.4000, 7908.000
196.6220, 7904.000
197.8430, 7974.958
199.0640, 7993.000
200.2860, 8192.000
201.5070, 8356.000
202.7270, 8515.733
203.9480, 8994.000
205.1690, 8821.000
206.3890, 8984.000
207.6090, 9045.000
208.8290, 8762.000
210.0490, 8706.000
211.2690, 8313.000
212.4890, 7910.000
213.7080, 7653.000
214.9280, 7339.000
216.1470, 7113.000
217.3660, 6988.000
218.5850, 6953.000
219.8030, 6872.000
221.0220, 6872.000
222.2400, 6742.000
223.4590, 6734.000
224.6770, 6815.000
225.8950, 6773.000
227.1120, 6681.000
228.3300, 6819.000
229.5480, 6769.000
230.7650, 6882.000
231.9820, 6868.000
233.1990, 6775.000
234.4160, 6857.000
235.6330, 6975.000
236.8490, 6862.000
238.0660, 7033.000
239.2820, 7014.000
240.4980, 7177.000
241.7140, 7381.000
242.9300, 7306.000
244.1460, 7507.000
245.3610, 7600.000
246.5770, 7708.000
247.7920, 7928.000
249.0070, 8228.000
250.2220, 8344.000
251.4370, 8533.000
252.6510, 8206.000
253.8660, 8283.000
255.0800, 8052.000
256.2940, 7809.000
257.5080, 7818.000
258.7220, 7890.000
259.9360, 8199.000
261.1490, 8289.000
262.3630, 8464.000
263.5760, 8664.000
264.7890, 8862.000
266.0020, 9170.000
267.2150, 9399.000
268.4270, 9538.000
269.6400, 9586.000
270.8520, 9614.000
272.0640, 9342.000
273.2760, 9047.000
274.4880, 9114.000
275.7000, 9004.000
276.9120, 8944.000
278.1230, 9093.000
279.3340, 9451.000
280.5450, 9822.000
281.7560, 10264.00
282.9670, 10718.00
284.1780, 11540.00
285.3880, 12155.00
286.5980, 13088.00
287.8090, 13979.00
289.0190, 14378.00
290.2290, 14418.00
291.4380, 14053.00
292.6480, 13024.00
293.8570, 12150.00
295.0670, 11029.00
296.2760, 10351.00
297.4850, 9727.000
298.6930, 9279.000
299.9020, 9154.000
301.1110, 8897.000
302.3190, 8683.000
303.5270, 8613.000
304.7350, 8579.000
305.9430, 8579.000
307.1510, 8563.000
308.3580, 8522.000
309.5660, 8591.000
310.7730, 8424.000
311.9800, 8508.000
313.1870, 8376.000
314.3940, 8418.000
315.6010, 8319.000
316.8070, 8485.000
318.0130, 8335.000
319.2200, 8450.000
320.4260, 8595.000
321.6310, 8751.000
322.8370, 8792.000
324.0430, 8940.000
325.2480, 8923.000
326.4540, 9161.000
327.6590, 9201.000
328.8640, 9106.000
330.0680, 9044.000
331.2730, 8973.000
332.4780, 8785.000
333.6820, 8706.000
334.8860, 8635.109
336.0900, 8621.000
337.2940, 8553.000
338.4980, 8516.000
339.7010, 8535.000
340.9050, 8515.507
342.1080, 8612.000
343.3110, 8597.000
344.5140, 8537.000
345.7170, 8687.000
346.9200, 8686.000
348.1220, 8738.000
349.3240, 8740.000
350.5270, 8648.000
351.7290, 8688.000
352.9310, 8687.000
354.1320, 8794.000
355.3340, 8700.000
356.5350, 8720.000
357.7370, 8715.000
358.9380, 8751.163
360.1390, 8796.102
361.3400, 8867.000
362.5400, 8908.000
363.7410, 8925.000
364.9410, 8968.000
366.1410, 8967.000
367.3410, 9016.000
368.5410, 9034.000
369.7410, 9193.000
370.9400, 9087.000
372.1400, 9092.000
373.3390, 9189.000
374.5380, 9086.000
375.7370, 9186.000
376.9360, 9134.000
378.1350, 9262.000
379.3330, 9230.000
380.5310, 9347.000
381.7300, 9406.000
382.9280, 9455.000
384.1260, 9276.000
385.3230, 9416.000
386.5210, 9489.000
387.7180, 9454.000
388.9160, 9635.000
390.1130, 9745.000
391.3100, 9817.000
392.5060, 9906.661
393.7030, 9856.000
394.9000, 10021.00
396.0960, 10004.00
397.2920, 10089.00
398.4880, 10286.00
399.6840, 10210.00
400.8800, 10470.00
402.0750, 10575.83
403.2710, 10500.00
404.4660, 10882.00
405.6610, 11007.00
406.8560, 11118.01
408.0510, 11214.00
409.2450, 11127.00
410.4400, 11033.00
411.6340, 10953.00
412.8280, 10872.00
414.0220, 11128.00
415.2160, 11247.00
416.4100, 11235.00
417.6030, 11043.00
418.7970, 10777.00
419.9900, 10526.00
421.1830, 10547.00
422.3760, 10418.00
423.5690, 10419.00
424.7610, 10295.00
425.9540, 10361.00
427.1460, 10405.00
428.3380, 10418.00
429.5300, 10375.00
430.7220, 10506.00
431.9140, 10589.00
433.1050, 10607.00
434.2970, 10490.00
435.4880, 10577.00
436.6790, 10613.00
437.8700, 10660.00
439.0610, 10745.00
440.2510, 10751.73
441.4420, 10875.00
442.6320, 10811.00
443.8220, 10847.00
445.0120, 10922.00
446.2020, 10982.00
447.3910, 11039.00
448.5810, 11183.00
449.7700, 11298.00
450.9600, 11446.00
452.1490, 11537.00
453.3370, 11475.00
454.5260, 11636.00
455.7150, 11680.00
456.9030, 11914.00
458.0910, 11857.00
459.2800, 11941.00
460.4670, 12069.00
461.6550, 12118.00
462.8430, 12178.00
464.0300, 12409.00
465.2180, 12973.00
466.4050, 13264.00
467.5920, 13843.00
468.7790, 14812.00
469.9650, 15835.00
471.1520, 16999.00
472.3380, 18660.00
473.5250, 20059.00
474.7110, 21990.00
475.8970, 24245.00
477.0820, 25780.00
478.2680, 26301.00
479.4540, 25087.00
480.6390, 22866.00
481.8240, 20438.00
483.0090, 18633.00
484.1940, 16847.00
485.3780, 15818.00
486.5630, 15061.00
487.7470, 14663.00
488.9320, 14139.00
490.1160, 14147.00
491.3000, 14094.00
492.4830, 14266.00
493.6670, 14528.00
494.8500, 15099.00
496.0340, 15616.00
497.2170, 16827.00
498.4000, 17902.00
499.5820, 19510.00
500.7650, 21355.00
501.9480, 23648.00
503.1300, 26077.00
504.3120, 28536.00
505.4940, 30624.00
506.6760, 31029.00
507.8580, 30158.00
509.0390, 27312.00
510.2210, 24496.00
511.4020, 21838.00
512.5830, 19559.00
513.7640, 17981.00
514.9450, 16817.00
516.1250, 16023.00
517.3060, 15439.00
518.4860, 14991.00
519.6660, 14478.00
520.8460, 14341.00
522.0260, 14120.00
523.2060, 13936.00
524.3850, 13872.00
525.5650, 13752.13
526.7440, 13703.00
527.9230, 13683.00
529.1020, 13652.00
530.2810, 13609.47
531.4590, 13626.00
532.6380, 13557.00
533.8160, 13475.00
534.9940, 13503.00
536.1720, 13417.00
537.3500, 13534.00
538.5270, 13512.00
539.7050, 13488.00
540.8820, 13577.00
542.0590, 13386.00
543.2360, 13491.00
544.4130, 13461.00
545.5900, 13436.00
546.7660, 13416.00
547.9430, 13647.00
549.1190, 13520.00
550.2950, 13655.00
551.4710, 13615.00
552.6470, 13778.00
553.8220, 13792.69
554.9980, 13769.00
556.1730, 13827.00
557.3480, 13816.00
558.5230, 13738.00
559.6980, 13800.00
560.8730, 13830.00
562.0470, 13856.00
563.2220, 13906.00
564.3960, 13878.00
565.5700, 14006.00
566.7440, 13942.00
567.9170, 14078.00
569.0910, 14135.00
570.2640, 14301.00
571.4380, 14230.00
572.6110, 14443.00
573.7840, 14517.00
574.9570, 14382.00
576.1290, 14591.00
577.3020, 14654.00
578.4740, 14613.00
579.6460, 14670.00
580.8180, 14727.00
581.9900, 14754.00
583.1620, 14627.00
584.3330, 14645.00
585.5040, 14679.00
586.6760, 14564.00
587.8470, 14593.00
589.0180, 14770.00
590.1880, 14740.00
591.3590, 14663.00
592.5290, 14711.00
593.7000, 14654.00
594.8700, 14746.00
596.0400, 14824.00
597.2090, 14640.00
598.3790, 14869.00
599.5490, 14867.00
600.7180, 15002.00
601.8870, 14919.00
603.0560, 14939.00
604.2250, 15041.00
605.3940, 15162.00
606.5620, 15163.00
607.7300, 15143.00
608.8990, 15107.00
610.0670, 15252.00
611.2350, 15196.00
612.4020, 15252.00
613.5700, 15426.00
614.7370, 15310.00
615.9050, 15280.00
617.0720, 15609.00
618.2390, 15569.00
619.4060, 15566.00
620.5720, 15565.00
621.7390, 15598.00
622.9050, 15636.59
624.0710, 15727.00
625.2370, 15769.00
626.4030, 15870.00
627.5690, 15980.00
628.7340, 16017.00
629.9000, 16142.00
631.0650, 16180.00
632.2300, 16231.00
633.3950, 16391.00
634.5600, 16481.00
635.7240, 16455.00
636.8890, 16464.00
638.0530, 16547.00
639.2170, 16663.00
640.3810, 16767.00
641.5450, 16616.00
642.7080, 16745.00
643.8720, 16741.00
645.0350, 16841.00
646.1980, 16851.00
647.3610, 16818.00
648.5240, 16979.00
649.6870, 16799.00
650.8490, 16989.00
652.0120, 16572.00
653.1740, 16926.00
654.3360, 16627.00
655.4980, 16926.00
656.6600, 16655.00
657.8210, 16907.00
658.9830, 16737.00
660.1440, 16732.00
661.3050, 16789.00
662.4660, 16827.00
663.6270, 16965.00
664.7870, 17018.00
665.9480, 17103.00
667.1080, 17166.58
668.2680, 16991.00
669.4280, 17244.00
670.5880, 17209.00
671.7480, 17199.00
672.9070, 17323.00
674.0670, 17337.00
675.2260, 17368.00
676.3850, 17389.87
677.5440, 17410.00
678.7030, 17442.19
679.8610, 17428.00
681.0200, 17495.00
682.1780, 17527.00
683.3360, 17539.00
684.4940, 17704.00
685.6520, 17719.00
686.8090, 17697.00
687.9670, 17776.00
689.1240, 17642.00
690.2810, 17675.00
691.4380, 17946.00
692.5950, 17847.00
693.7520, 17904.00
694.9080, 17901.00
696.0650, 17770.00
697.2210, 17873.00
698.3770, 17962.00
699.5330, 18009.00
700.6880, 18141.00
701.8440, 18153.26
702.9990, 18297.00
704.1550, 18244.00
705.3100, 18267.00
706.4650, 18398.00
707.6190, 18372.00
708.7740, 18436.00
709.9290, 18535.00
711.0830, 18568.00
712.2370, 18631.00
713.3910, 18674.35
714.5450, 18700.00
715.6980, 18736.00
716.8520, 18767.00
718.0050, 18785.00
719.1580, 18857.00
720.3110, 19120.00
721.4640, 18930.00
722.6170, 19167.00
723.7700, 19115.00
724.9220, 19055.00
726.0740, 19116.00
727.2260, 18973.00
728.3780, 19311.00
729.5300, 19392.00
730.6810, 19229.00
731.8330, 19255.00
732.9840, 19324.00
734.1350, 19450.00
735.2860, 19496.00
736.4370, 19521.00
737.5880, 19447.00
738.7380, 19572.00
739.8880, 19443.00
741.0390, 19657.00
742.1890, 19723.00
743.3380, 19850.00
744.4880, 19937.00
745.6380, 19832.00
746.7870, 19997.00
747.9360, 20230.00
749.0850, 20088.00
750.2340, 20323.00
751.3830, 20393.00
752.5310, 20475.00
753.6800, 20550.00
754.8280, 20813.00
755.9760, 21001.00
757.1240, 21319.00
758.2720, 21701.00
759.4190, 22176.00
760.5670, 22280.00
761.7140, 22551.21
762.8610, 22824.00
764.0080, 22740.00
765.1550, 22621.00
766.3020, 22502.00
767.4480, 22012.00
768.5950, 21733.00
769.7410, 21582.00
770.8870, 21383.00
772.0330, 21346.00
773.1780, 21293.17
774.3240, 21543.00
775.4690, 21376.00
776.6140, 21403.00
777.7590, 21582.00
778.9040, 21369.00
780.0490, 21256.00
781.1940, 21449.00
782.3380, 21309.00
783.4820, 21412.00
784.6260, 21439.00
785.7700, 21426.00
786.9140, 21596.00
788.0580, 21607.00
789.2010, 21682.00
790.3450, 21624.00
791.4880, 21679.00
792.6310, 21569.00
793.7730, 21696.00
794.9160, 21847.00
796.0590, 21797.00
797.2010, 21710.00
798.3430, 22028.00
799.4850, 22125.00
800.6270, 22061.00
801.7690, 22054.00
802.9100, 22205.00
804.0520, 22265.00
805.1930, 22454.00
806.3340, 22593.00
807.4750, 22706.00
808.6160, 22962.00
809.7560, 23120.00
810.8970, 23348.00
812.0370, 23275.00
813.1770, 23475.00
814.3170, 23766.00
815.4570, 23639.00
816.5960, 23367.00
817.7360, 23472.00
818.8750, 23499.00
820.0140, 23285.00
821.1530, 23163.00
822.2920, 23246.00
823.4310, 23108.00
824.5690, 23029.00
825.7070, 23115.00
826.8460, 23152.00
827.9840, 23104.00
829.1220, 23274.00
830.2590, 23445.00
831.3970, 23335.00
832.5340, 23440.00
833.6710, 23387.00
834.8080, 23578.00
835.9450, 23556.00
837.0820, 23494.00
838.2190, 23573.00
839.3550, 23449.00
840.4910, 23598.00
841.6270, 23653.00
842.7630, 23688.00
843.8990, 23860.00
845.0350, 23744.00
846.1700, 23797.00
847.3060, 23937.00
848.4410, 24034.00
849.5760, 23985.00
850.7100, 23988.00
851.8450, 24083.00
852.9800, 24187.00
854.1140, 24221.00
855.2480, 24081.00
856.3820, 24324.00
857.5160, 24353.00
858.6500, 24390.00
859.7830, 24694.00
860.9170, 24434.00
862.0500, 24516.00
863.1830, 24688.00
864.3160, 24490.00
865.4480, 24734.00
866.5810, 24755.00
867.7130, 24703.00
868.8460, 24867.00
869.9780, 24937.00
871.1100, 25147.00
872.2410, 24909.00
873.3730, 25144.00
874.5050, 24871.00
875.6360, 24971.00
876.7670, 25133.00
877.8980, 25348.00
879.0290, 25414.00
880.1590, 25107.00
881.2900, 25401.00
882.4200, 25446.00
883.5500, 25483.00
884.6800, 25706.00
885.8100, 25628.00
886.9400, 25600.00
888.0690, 25624.00
889.1990, 25793.00
890.3280, 25660.00
891.4570, 25794.00
892.5860, 25721.00
893.7140, 25836.00
894.8430, 25877.00
895.9710, 26079.00
897.1000, 26306.00
898.2280, 26147.00
899.3560, 26056.00
900.4830, 26419.00
901.6110, 26081.00
902.7380, 26225.00
903.8660, 26367.00
904.9930, 26558.00
906.1200, 26490.00
907.2460, 26598.00
908.3730, 26742.00
909.5000, 26626.00
910.6260, 26679.00
911.7520, 26777.00
912.8780, 26914.00
914.0040, 26932.22
915.1290, 26790.00
916.2550, 26946.00
917.3800, 26966.00
918.5050, 26840.00
919.6300, 27125.00
920.7550, 27020.00
921.8800, 27205.00
923.0040, 27169.00
924.1290, 27561.00
925.2530, 27378.00
926.3770, 27561.00
927.5010, 27499.00
928.6250, 27372.00
929.7480, 27567.00
930.8720, 27708.00
931.9950, 27792.00
933.1180, 27815.00
934.2410, 27851.14
935.3640, 27918.53
936.4860, 27940.72
937.6090, 28019.00
938.7310, 28042.00
939.8530, 28058.00
940.9750, 28168.00
942.0970, 28262.00
943.2180, 28183.00
944.3400, 28279.00
945.4610, 28459.00
946.5820, 28338.00
947.7030, 28476.00
948.8240, 28664.00
949.9450, 28653.00
951.0650, 28630.00
952.1860, 28849.00
953.3060, 28792.00
954.4260, 28808.00
955.5460, 28744.00
956.6650, 29030.00
957.7850, 29136.00
958.9040, 29239.00
960.0230, 29415.00
961.1420, 29718.00
962.2610, 29825.00
963.3800, 29838.00
964.4990, 30037.00
965.6170, 30008.00
966.7350, 29969.00
967.8530, 30154.00
968.9710, 30192.00
970.0890, 30077.00
971.2070, 30321.00
972.3240, 30048.00
973.4410, 30355.00
974.5580, 30221.00
975.6750, 30510.00
976.7920, 30675.00
977.9090, 30791.00
979.0250, 30883.00
980.1410, 30991.00
981.2580, 30760.00
982.3740, 30716.00
983.4890, 30651.00
984.6050, 30566.00
985.7200, 30653.00
986.8360, 30494.00
987.9510, 30385.00
989.0660, 30797.00
990.1810, 30811.00
991.2950, 30721.00
992.4100, 30660.00
993.5240, 30855.00
994.6390, 30849.00
995.7530, 30991.00
996.8660, 31069.00
997.9800, 31144.00
999.0940, 31237.00
1000.207, 31260.00
1001.320, 31436.00
1002.433, 31640.00
1003.546, 31636.00
1004.659, 31968.00
1005.772, 31690.00
1006.884, 31913.00
1007.996, 32083.00
1009.108, 32136.00
1010.220, 32437.00
1011.332, 32172.00
1012.444, 32189.00
1013.555, 32402.00
1014.666, 32280.00
1015.777, 32180.00
1016.888, 32268.00
1017.999, 32149.00
1019.110, 32430.00
1020.220, 32721.00
1021.331, 32372.00
1022.441, 32523.00
1023.551, 32344.00
1024.661, 32477.00
1025.770, 32635.00
1026.880, 32846.00
1027.989, 32926.00
1029.098, 32990.00
1030.207, 33189.00
1031.316, 33205.00
1032.425, 33210.00
1033.533, 33433.00
1034.642, 33312.00
1035.750, 33246.00
1036.858, 33168.00
1037.966, 32965.00
1039.073, 33292.00
1040.181, 33583.00
1041.288, 33412.00
1042.396, 33643.00
1043.503, 33802.00
1044.610, 33602.00
1045.716, 33577.00
1046.823, 33471.00
1047.929, 33500.98
1049.036, 33526.04
1050.142, 33692.00
1051.248, 33641.00
1052.353, 33856.00
1053.459, 33894.00
1054.564, 33638.00
1055.670, 33914.00
1056.775, 34098.00
1057.880, 33818.00
1058.985, 33828.00
1060.089, 34080.00
1061.194, 34150.00
1062.298, 34119.00
1063.402, 34384.00
1064.506, 34248.00
1065.610, 34518.00
1066.713, 34578.00
1067.817, 34676.00
1068.920, 34538.00
1070.023, 34612.00
1071.126, 34592.00
1072.229, 34651.00
1073.332, 35038.00
1074.435, 34950.00
1075.537, 35232.00
1076.639, 35076.00
1077.741, 35428.00
1078.843, 35335.00
1079.945, 35378.00
1081.046, 35284.00
1082.148, 35651.00
1083.249, 35838.00
1084.350, 36087.00
1085.451, 36859.00
1086.551, 37610.00
1087.652, 37758.00
1088.752, 37379.00
1089.853, 37139.00
1090.953, 37191.00
1092.053, 37417.00
1093.152, 37794.00
1094.252, 38284.00
1095.351, 38605.00
1096.451, 39321.00
1097.550, 39631.00
1098.649, 39798.00
1099.748, 39786.00
1100.846, 39864.00
1101.945, 39595.00
1103.043, 39175.00
1104.141, 39095.00
1105.239, 38922.00
1106.337, 38686.00
1107.434, 38466.00
1108.532, 38349.00
1109.629, 38308.62
1110.726, 38226.00
1111.823, 38357.00
1112.920, 38487.00
1114.017, 38513.00
1115.113, 38650.00
1116.210, 38468.00
1117.306, 38245.00
1118.402, 38453.00
1119.498, 38495.00
1120.593, 38374.00
1121.689, 38045.00
1122.784, 38053.00
1123.879, 38020.00
1124.974, 37876.02
1126.069, 37966.00
1127.164, 37768.00
1128.259, 37874.00
1129.353, 37886.00
1130.447, 37698.00
1131.541, 37585.00
1132.635, 37903.00
1133.729, 37768.00
1134.822, 37735.00
1135.916, 38032.00
1137.009, 37907.00
1138.102, 38204.00
1139.195, 38276.00
1140.288, 38131.00
1141.380, 38056.00
1142.473, 37965.00
1143.565, 38282.00
1144.657, 37935.00
1145.749, 38439.00
1146.841, 38332.00
1147.932, 38238.00
1149.024, 38600.00
1150.115, 38418.00
1151.206, 38680.00
1152.297, 38715.00
1153.388, 38786.00
1154.479, 38709.00
1155.569, 38746.00
1156.659, 38576.00
1157.750, 38865.00
1158.839, 39072.00
1159.929, 39004.00
1161.019, 39033.00
1162.108, 39047.00
1163.198, 39013.00
1164.287, 38926.00
1165.376, 39047.00
1166.465, 39490.00
1167.553, 39336.00
1168.642, 39529.00
1169.730, 39262.00
1170.818, 39333.00
1171.906, 39512.00
1172.994, 39901.00
1174.082, 39535.00
1175.170, 39561.00
1176.257, 39813.00
1177.344, 39659.00
1178.431, 40105.00
1179.518, 39767.00
1180.605, 39797.00
1181.691, 39980.00
1182.778, 39819.00
1183.864, 39860.00
1184.950, 39993.00
1186.036, 40015.64
1187.122, 40135.14
1188.207, 40297.00
1189.292, 40278.00
1190.378, 40488.00
1191.463, 40413.00
1192.548, 40574.00
1193.632, 40589.00
1194.717, 40570.00
1195.801, 40487.00
1196.886, 40562.33
1197.970, 40828.00
1199.054, 40707.00
1200.137, 40910.00
1201.221, 41081.00
1202.305, 41096.00
1203.388, 41121.00
1204.471, 41122.00
1205.554, 41107.00
1206.637, 41180.00
1207.719, 41240.87
1208.802, 41296.64
1209.884, 41392.00
1210.966, 41517.00
1212.048, 41500.00
1213.130, 41574.18
1214.212, 41698.00
1215.293, 41571.00
1216.374, 41560.00
1217.456, 41441.00
1218.536, 41960.00
1219.617, 41631.00
1220.698, 42102.00
1221.778, 41635.00
1222.859, 42219.00
1223.939, 41963.00
1225.019, 42313.00
1226.099, 42312.00
1227.178, 42198.00
1228.258, 42180.00
1229.337, 42204.16
1230.417, 42607.00
1231.496, 42329.00
1232.574, 42434.00
1233.653, 42600.00
1234.732, 42308.00
1235.810, 42656.00
1236.888, 42773.00
1237.966, 42679.00
1239.044, 42909.00
1240.122, 43149.00
1241.199, 42733.00
1242.277, 42920.00
1243.354, 42822.00
1244.431, 43192.00
1245.508, 43200.00
1246.585, 43210.00
1247.661, 43367.00
1248.738, 43313.00
1249.814, 43388.00
1250.890, 43552.00
1251.966, 43630.00
1253.042, 43472.00
1254.117, 43478.00
1255.193, 43569.00
1256.268, 43902.00
1257.343, 43574.00
1258.418, 43661.00
1259.493, 43623.00
1260.567, 44176.00
1261.642, 43916.00
1262.716, 44125.00
1263.790, 43999.00
1264.864, 44105.00
1265.938, 44331.00
1267.011, 43955.00
1268.085, 44220.00
1269.158, 44575.00
1270.231, 44449.00
1271.304, 44470.00
1272.377, 44257.00
1273.450, 44459.00
1274.522, 44764.00
1275.594, 44573.00
1276.666, 44679.00
1277.738, 44958.00
1278.810, 44485.00
1279.882, 44720.00
1280.953, 44911.00
1282.025, 45130.00
1283.096, 44678.00
1284.167, 45020.00
1285.238, 45103.00
1286.308, 45398.00
1287.379, 45509.00
1288.449, 45263.00
1289.519, 45819.00
1290.589, 45381.00
1291.659, 45428.00
1292.729, 45482.00
1293.798, 45741.00
1294.868, 45610.00
1295.937, 45558.00
1297.006, 45717.00
1298.075, 45722.00
1299.143, 45846.00
1300.212, 45773.00
1301.280, 45961.00
1302.348, 45820.00
1303.416, 46216.00
1304.484, 46121.00
1305.552, 46106.00
1306.620, 46219.00
1307.687, 46435.00
1308.754, 46221.00
1309.821, 46219.00
1310.888, 46428.00
1311.955, 46426.00
1313.021, 46497.60
1314.088, 46540.46
1315.154, 46581.00
1316.220, 46542.00
1317.286, 46556.00
1318.352, 46537.39
1319.417, 46641.00
1320.483, 46703.00
1321.548, 46853.00
1322.613, 46954.00
1323.678, 47024.08
1324.743, 46975.00
1325.807, 47148.00
1326.872, 47202.00
1327.936, 47223.00
1329.000, 47055.00
1330.064, 47604.00
1331.128, 47123.00
1332.191, 47715.00
1333.255, 47333.00
1334.318, 47436.00
1335.381, 47579.00
1336.444, 47669.00
1337.507, 47638.00
1338.569, 47751.39
1339.632, 47796.25
1340.694, 47863.00
1341.756, 47943.00
1342.818, 48009.00
1343.880, 48107.00
1344.941, 47951.00
1346.003, 48092.00
1347.064, 47995.00
1348.125, 48010.00
1349.186, 48132.00
1350.247, 48022.00
1351.308, 48402.00
1352.368, 48190.00
1353.428, 48377.00
1354.489, 48498.00
1355.549, 48588.00
1356.608, 48567.00
1357.668, 48624.29
1358.727, 48645.13
1359.787, 48629.00
1360.846, 48668.00
1361.905, 48676.00
1362.964, 48658.00
1364.022, 48825.00
1365.081, 49063.00
1366.139, 48801.65
1367.197, 49337.41
1368.255, 49668.67
1369.313, 49806.43
1370.371, 49171.09
1371.428, 49533.98
1372.486, 49496.86
1373.543, 49443.27
1374.600, 49946.66
1375.657, 49423.71
1376.713, 49340.00
1377.770, 49377.00
1378.826, 49368.00
1379.882, 49705.00
1380.938, 49647.00
1381.994, 49689.00
1383.050, 49580.00
1384.106, 49898.00
1385.161, 50025.00
1386.216, 50036.00
1387.271, 49842.00
1388.326, 49791.00
1389.381, 50049.00
1390.435, 50129.00
1391.490, 49961.00
1392.544, 50397.00
1393.598, 50277.00
1394.652, 50346.00
1395.705, 50189.00
1396.759, 50299.00
1397.812, 50516.00
1398.866, 50183.00
1399.919, 50379.00
1400.972, 50332.00
1402.024, 50840.00
1403.077, 50669.00
1404.129, 50800.00
1405.181, 50683.00
1406.233, 50810.00
1407.285, 51044.00
1408.337, 50869.00
1409.389, 50825.00
1410.440, 50811.00
1411.491, 50953.00
1412.542, 51035.00
1413.593, 51038.98
1414.644, 51051.00
1415.695, 51026.00
1416.745, 51282.00
1417.795, 51198.00
1418.845, 51318.00
1419.895, 51404.00
1420.945, 51181.00
1421.995, 51544.00
1423.044, 51540.00
1424.093, 51836.00
1425.142, 51869.00
1426.191, 51668.00
1427.240, 51774.00
1428.289, 51694.00
1429.337, 52104.00
1430.385, 52025.00
1431.433, 51856.00
1432.481, 52114.00
1433.529, 51996.00
1434.577, 52084.00
1435.624, 52381.00
1436.672, 52064.00
1437.719, 52446.00
1438.766, 52188.00
1439.812, 52292.00
1440.859, 52434.00
1441.905, 52637.00
1442.952, 52663.00
1443.998, 52775.00
1445.044, 52530.00
1446.090, 52608.00
1447.135, 52799.00
1448.181, 53017.00
1449.226, 52738.00
1450.271, 52970.00
1451.316, 52751.00
1452.361, 53056.00
1453.405, 52933.00
1454.450, 53000.00
1455.494, 53096.00
1456.538, 53250.00
1457.582, 53275.28
1458.626, 53075.00
1459.670, 53298.00
1460.713, 53385.00
1461.757, 53245.00
1462.800, 53468.00
1463.843, 53580.00
1464.886, 53343.00
1465.928, 53704.00
1466.971, 53569.00
1468.013, 53656.00
1469.055, 53817.00
1470.097, 53904.00
1471.139, 53613.00
1472.181, 53796.00
1473.222, 53701.00
1474.263, 53951.00
1475.305, 54210.00
1476.346, 54298.00
1477.386, 53833.00
1478.427, 53986.00
1479.468, 53957.00
1480.508, 54219.00
1481.548, 54305.00
1482.588, 54140.00
1483.628, 54383.00
1484.668, 54362.00
1485.707, 54584.00
1486.747, 54504.00
1487.786, 54726.00
1488.825, 54754.00
1489.864, 54758.00
1490.902, 54887.33
1491.941, 54923.74
1492.979, 54971.00
1494.017, 55015.00
1495.055, 54940.00
1496.093, 54830.00
1497.131, 54758.00
1498.168, 55120.00
1499.206, 55252.00
1500.243, 55024.00
1501.280, 55280.00
1502.317, 55094.00
1503.354, 55214.00
1504.390, 55411.00
1505.426, 55366.00
1506.463, 55426.00
1507.499, 55358.00
1508.535, 55635.00
1509.570, 55317.00
1510.606, 55749.00
1511.641, 55642.00
1512.676, 55737.00
1513.711, 55821.00
1514.746, 55806.53
1515.781, 55862.00
1516.816, 55929.00
1517.850, 56038.00
1518.884, 56218.00
1519.918, 56030.00
1520.952, 56126.00
1521.986, 56151.00
1523.019, 56031.00
1524.053, 56058.00
1525.086, 56194.00
1526.119, 56060.00
1527.152, 56170.00
1528.185, 56674.00
1529.217, 56463.00
1530.250, 56619.00
1531.282, 56547.00
1532.314, 56822.00
1533.346, 56810.10
1534.377, 56975.00
1535.409, 56862.00
1536.440, 56852.00
1537.472, 56778.00
1538.503, 56800.00
1539.534, 56868.49
1540.564, 57456.00
1541.595, 57072.00
1542.625, 57361.00
1543.656, 57483.00
1544.686, 57402.00
1545.716, 57218.00
1546.745, 57184.00
1547.775, 57371.00
1548.804, 57381.00
1549.834, 57427.00
1550.863, 57591.00
1551.892, 57463.00
1552.920, 57785.00
1553.949, 57657.00
1554.977, 58047.00
1556.006, 57746.00
1557.034, 58172.00
1558.062, 57816.00
1559.089, 57722.00
1560.117, 58070.00
1561.144, 58195.00
1562.172, 58080.00
1563.199, 58124.00
1564.226, 58235.00
1565.252, 58565.00
1566.279, 58267.00
1567.305, 58713.00
1568.332, 58350.00
1569.358, 58530.00
1570.384, 59025.00
##END=



