##NAMES=Albite
##RRUFFID=R050402
##IDEAL CHEMISTRY=NaAlSi_3_O_8_
##LOCALITY=Urbano mine, Golconda District, Brazil
##OWNER=RRUFF
##SOURCE=Bob Downs
##DESCRIPTION=Colorless tabular single crystals associated with fluorapatite R050401
##STATUS=The identification of this mineral has been confirmed by X-ray diffraction and chemical analysis
##URL=rruff.info/R050402
##MEASURED CHEMISTRY=Na_1.00_Al_1.00_Si_3.00_O_8_
##PIN_ID=M00145
##ORIENTATION=Laser parallel to (0 1 1). Fiducial mark perpendicular to laser is parallel to -a [-1 0 0]
93.48000, 7236.000
94.71400, 7271.000
95.94800, 7390.000
97.18200, 7425.000
98.41600, 7528.000
99.64900, 7746.000
100.8830, 7893.000
102.1160, 8197.000
103.3490, 8396.000
104.5820, 8665.000
105.8150, 9126.000
107.0470, 9894.000
108.2800, 10875.00
109.5120, 10842.00
110.7440, 10563.00
111.9760, 10408.00
113.2080, 10086.00
114.4400, 9915.000
115.6710, 9552.000
116.9030, 9191.000
118.1340, 8878.000
119.3650, 8597.000
120.5960, 8457.000
121.8270, 8528.000
123.0580, 8530.000
124.2880, 8513.000
125.5190, 8608.000
126.7490, 8773.000
127.9790, 8930.000
129.2090, 8982.000
130.4390, 9174.000
131.6680, 9290.000
132.8980, 9647.000
134.1270, 9990.000
135.3560, 10295.00
136.5850, 10817.00
137.8140, 11328.00
139.0430, 12014.00
140.2710, 13019.00
141.5000, 13823.00
142.7280, 14717.00
143.9560, 15111.00
145.1840, 15263.00
146.4120, 15081.00
147.6390, 15086.00
148.8670, 15352.00
150.0940, 16272.00
151.3210, 17367.00
152.5490, 18740.00
153.7750, 20455.00
155.0020, 22322.00
156.2290, 24733.00
157.4550, 26903.00
158.6810, 28985.00
159.9080, 30153.00
161.1340, 30220.00
162.3590, 29178.00
163.5850, 27693.00
164.8110, 25780.00
166.0360, 24619.00
167.2610, 24319.00
168.4860, 24045.00
169.7110, 24254.00
170.9360, 24343.00
172.1610, 24365.00
173.3850, 24786.00
174.6100, 25328.00
175.8340, 26802.00
177.0580, 27894.00
178.2820, 29245.00
179.5050, 30115.00
180.7290, 31624.00
181.9520, 32265.00
183.1760, 32303.00
184.3990, 31501.00
185.6220, 29932.00
186.8450, 28026.00
188.0670, 25699.00
189.2900, 23357.00
190.5120, 21159.00
191.7340, 19836.00
192.9560, 18575.00
194.1780, 17764.00
195.4000, 17214.00
196.6220, 17139.00
197.8430, 17316.00
199.0640, 17962.00
200.2860, 18538.00
201.5070, 19642.00
202.7270, 20707.00
203.9480, 22008.00
205.1690, 23441.00
206.3890, 24192.00
207.6090, 24152.00
208.8290, 22820.00
210.0490, 20768.00
211.2690, 18560.00
212.4890, 16487.00
213.7080, 14517.00
214.9280, 13339.00
216.1470, 12340.00
217.3660, 11678.00
218.5850, 11173.00
219.8030, 10708.00
221.0220, 10421.00
222.2400, 10130.00
223.4590, 10124.00
224.6770, 9946.000
225.8950, 9901.000
227.1120, 9861.000
228.3300, 9693.000
229.5480, 9756.000
230.7650, 9573.000
231.9820, 9645.000
233.1990, 9653.000
234.4160, 9679.828
235.6330, 9746.000
236.8490, 9846.000
238.0660, 9903.794
239.2820, 10013.75
240.4980, 10118.00
241.7140, 10283.00
242.9300, 10503.00
244.1460, 10766.00
245.3610, 11044.00
246.5770, 11662.00
247.7920, 11896.00
249.0070, 12641.00
250.2220, 12599.00
251.4370, 12554.00
252.6510, 12149.00
253.8660, 11574.00
255.0800, 11102.00
256.2940, 10979.00
257.5080, 10886.00
258.7220, 11092.00
259.9360, 10995.00
261.1490, 10843.00
262.3630, 10872.00
263.5760, 10873.00
264.7890, 11110.00
266.0020, 11327.00
267.2150, 11556.00
268.4270, 11841.00
269.6400, 11989.00
270.8520, 12445.00
272.0640, 12767.00
273.2760, 13363.00
274.4880, 14108.00
275.7000, 14992.00
276.9120, 16352.00
278.1230, 18011.00
279.3340, 20258.00
280.5450, 23055.00
281.7560, 26460.00
282.9670, 30447.00
284.1780, 34709.00
285.3880, 40029.00
286.5980, 44324.00
287.8090, 47863.00
289.0190, 49178.00
290.2290, 47008.00
291.4380, 42358.00
292.6480, 36696.00
293.8570, 30857.00
295.0670, 25795.00
296.2760, 21990.00
297.4850, 19141.00
298.6930, 17073.00
299.9020, 15529.00
301.1110, 14265.00
302.3190, 13560.00
303.5270, 13039.00
304.7350, 12628.00
305.9430, 12371.00
307.1510, 12037.00
308.3580, 11823.00
309.5660, 11686.15
310.7730, 11609.00
311.9800, 11536.00
313.1870, 11545.00
314.3940, 11556.00
315.6010, 11495.00
316.8070, 11838.00
318.0130, 12095.00
319.2200, 12622.00
320.4260, 13181.00
321.6310, 13804.00
322.8370, 14812.00
324.0430, 15913.00
325.2480, 17467.00
326.4540, 18451.00
327.6590, 18745.00
328.8640, 17774.00
330.0680, 16136.00
331.2730, 14998.00
332.4780, 13656.00
333.6820, 12738.00
334.8860, 12211.00
336.0900, 11542.00
337.2940, 11324.00
338.4980, 11199.00
339.7010, 11135.00
340.9050, 10919.00
342.1080, 11005.00
343.3110, 10859.00
344.5140, 10965.00
345.7170, 10807.00
346.9200, 10901.00
348.1220, 10845.00
349.3240, 10819.00
350.5270, 10696.00
351.7290, 10579.00
352.9310, 10566.00
354.1320, 10551.00
355.3340, 10374.00
356.5350, 10497.00
357.7370, 10429.00
358.9380, 10312.00
360.1390, 10231.00
361.3400, 10357.00
362.5400, 10284.00
363.7410, 10244.00
364.9410, 10222.00
366.1410, 10219.00
367.3410, 10122.00
368.5410, 10160.00
369.7410, 10150.19
370.9400, 10216.00
372.1400, 10204.00
373.3390, 10187.00
374.5380, 10241.00
375.7370, 10243.00
376.9360, 10198.00
378.1350, 10213.00
379.3330, 10203.00
380.5310, 10222.00
381.7300, 10165.00
382.9280, 10131.00
384.1260, 10332.00
385.3230, 10310.00
386.5210, 10420.00
387.7180, 10406.00
388.9160, 10617.00
390.1130, 10536.00
391.3100, 10809.00
392.5060, 10707.00
393.7030, 10932.00
394.9000, 11105.00
396.0960, 11264.00
397.2920, 11413.00
398.4880, 11667.00
399.6840, 11731.00
400.8800, 11692.00
402.0750, 11651.00
403.2710, 11932.00
404.4660, 12256.00
405.6610, 12369.00
406.8560, 12172.00
408.0510, 12027.00
409.2450, 11614.00
410.4400, 11208.00
411.6340, 11017.00
412.8280, 10936.00
414.0220, 10893.00
415.2160, 10775.00
416.4100, 10820.00
417.6030, 10684.00
418.7970, 10663.00
419.9900, 10623.00
421.1830, 10597.56
422.3760, 10585.00
423.5690, 10612.00
424.7610, 10636.00
425.9540, 10653.00
427.1460, 10733.00
428.3380, 10776.00
429.5300, 10742.00
430.7220, 10758.00
431.9140, 10721.00
433.1050, 10887.00
434.2970, 10727.00
435.4880, 10949.00
436.6790, 10982.00
437.8700, 10935.00
439.0610, 11000.00
440.2510, 11015.39
441.4420, 11134.00
442.6320, 11133.00
443.8220, 11211.00
445.0120, 11362.00
446.2020, 11377.00
447.3910, 11675.00
448.5810, 11728.00
449.7700, 11922.00
450.9600, 12221.00
452.1490, 12320.00
453.3370, 12611.00
454.5260, 12762.00
455.7150, 13010.00
456.9030, 13040.00
458.0910, 12901.00
459.2800, 12955.00
460.4670, 13101.00
461.6550, 13313.00
462.8430, 13715.00
464.0300, 13961.00
465.2180, 14817.00
466.4050, 15646.00
467.5920, 16822.00
468.7790, 18421.00
469.9650, 20221.00
471.1520, 22598.00
472.3380, 25388.00
473.5250, 28473.00
474.7110, 32050.00
475.8970, 34653.00
477.0820, 35780.00
478.2680, 34667.00
479.4540, 31525.00
480.6390, 27797.00
481.8240, 24529.00
483.0090, 21820.00
484.1940, 19793.00
485.3780, 18487.00
486.5630, 17721.00
487.7470, 17043.00
488.9320, 17022.00
490.1160, 17140.00
491.3000, 17362.00
492.4830, 18227.00
493.6670, 19211.00
494.8500, 20739.00
496.0340, 23128.00
497.2170, 25801.00
498.4000, 29638.00
499.5820, 34048.00
500.7650, 39319.00
501.9480, 45931.00
503.1300, 52763.00
504.3120, 58189.00
505.4940, 61236.00
506.6760, 59897.00
507.8580, 54653.00
509.0390, 47402.00
510.2210, 40285.00
511.4020, 33609.00
512.5830, 28551.00
513.7640, 25076.00
514.9450, 22227.00
516.1250, 20171.00
517.3060, 18724.00
518.4860, 17649.00
519.6660, 16845.00
520.8460, 16136.00
522.0260, 15594.00
523.2060, 15128.00
524.3850, 14639.00
525.5650, 14353.00
526.7440, 14062.58
527.9230, 14087.00
529.1020, 13733.00
530.2810, 13610.00
531.4590, 13593.00
532.6380, 13392.00
533.8160, 13312.00
534.9940, 13118.00
536.1720, 13074.00
537.3500, 12979.48
538.5270, 12906.00
539.7050, 12856.00
540.8820, 12807.00
542.0590, 12758.00
543.2360, 12803.00
544.4130, 12631.00
545.5900, 12655.00
546.7660, 12687.00
547.9430, 12613.00
549.1190, 12643.00
550.2950, 12774.00
551.4710, 12697.51
552.6470, 12904.00
553.8220, 12529.00
554.9980, 13048.00
556.1730, 12725.00
557.3480, 12538.00
558.5230, 12706.00
559.6980, 12555.00
560.8730, 12742.00
562.0470, 12705.12
563.2220, 12699.57
564.3960, 12751.00
565.5700, 12688.00
566.7440, 12820.00
567.9170, 12801.00
569.0910, 13071.00
570.2640, 13114.00
571.4380, 13248.00
572.6110, 13422.00
573.7840, 13500.00
574.9570, 13758.00
576.1290, 13994.00
577.3020, 14089.00
578.4740, 13982.00
579.6460, 13854.00
580.8180, 13642.00
581.9900, 13582.00
583.1620, 13251.00
584.3330, 12967.00
585.5040, 12973.00
586.6760, 12885.00
587.8470, 12825.00
589.0180, 12741.00
590.1880, 12656.00
591.3590, 12631.00
592.5290, 12756.00
593.7000, 12541.00
594.8700, 12963.00
596.0400, 12612.00
597.2090, 12962.00
598.3790, 13451.00
599.5490, 12703.00
600.7180, 12896.00
601.8870, 12888.00
603.0560, 12881.00
604.2250, 12802.00
605.3940, 12653.00
606.5620, 12870.00
607.7300, 12767.00
608.8990, 12844.00
610.0670, 12962.00
611.2350, 12870.00
612.4020, 12994.00
613.5700, 12921.00
614.7370, 13090.00
615.9050, 13261.00
617.0720, 13160.00
618.2390, 13177.00
619.4060, 13362.00
620.5720, 13510.00
621.7390, 13585.00
622.9050, 13877.00
624.0710, 13978.00
625.2370, 14187.00
626.4030, 14300.00
627.5690, 14479.00
628.7340, 14498.00
629.9000, 14558.00
631.0650, 14475.00
632.2300, 14661.00
633.3950, 14485.00
634.5600, 14430.00
635.7240, 14411.00
636.8890, 14519.00
638.0530, 14247.00
639.2170, 14476.00
640.3810, 14442.00
641.5450, 14761.00
642.7080, 14930.00
643.8720, 15065.00
645.0350, 14958.00
646.1980, 14822.00
647.3610, 14719.00
648.5240, 14516.00
649.6870, 14372.00
650.8490, 14116.00
652.0120, 13993.00
653.1740, 13807.00
654.3360, 13736.00
655.4980, 13583.00
656.6600, 13341.00
657.8210, 13403.00
658.9830, 13093.00
660.1440, 13283.00
661.3050, 13262.00
662.4660, 13245.00
663.6270, 13209.00
664.7870, 13156.00
665.9480, 13175.00
667.1080, 13180.00
668.2680, 13103.00
669.4280, 13157.00
670.5880, 13227.00
671.7480, 13186.00
672.9070, 13133.00
674.0670, 13168.00
675.2260, 13171.00
676.3850, 13138.24
677.5440, 13213.00
678.7030, 13132.00
679.8610, 13042.00
681.0200, 13122.00
682.1780, 13230.00
683.3360, 13195.00
684.4940, 13100.00
685.6520, 13057.00
686.8090, 13288.00
687.9670, 13078.00
689.1240, 13215.00
690.2810, 13107.00
691.4380, 13180.00
692.5950, 13231.00
693.7520, 13242.00
694.9080, 13304.00
696.0650, 13178.00
697.2210, 13105.00
698.3770, 13135.00
699.5330, 13293.00
700.6880, 13323.00
701.8440, 13322.00
702.9990, 13352.16
704.1550, 13356.00
705.3100, 13362.79
706.4650, 13386.00
707.6190, 13399.05
708.7740, 13417.74
709.9290, 13441.69
711.0830, 13474.00
712.2370, 13498.00
713.3910, 13451.00
714.5450, 13523.00
715.6980, 13535.00
716.8520, 13611.00
718.0050, 13539.00
719.1580, 13661.00
720.3110, 13540.00
721.4640, 13732.00
722.6170, 13601.00
723.7700, 13587.00
724.9220, 13592.00
726.0740, 13569.00
727.2260, 13650.00
728.3780, 13678.00
729.5300, 13603.00
730.6810, 13787.00
731.8330, 13742.00
732.9840, 13722.00
734.1350, 13944.00
735.2860, 13836.00
736.4370, 13995.00
737.5880, 13822.00
738.7380, 13968.00
739.8880, 13909.00
741.0390, 13929.00
742.1890, 13998.00
743.3380, 14048.00
744.4880, 13972.00
745.6380, 13945.00
746.7870, 14081.00
747.9360, 14010.00
749.0850, 14121.34
750.2340, 14420.00
751.3830, 14320.00
752.5310, 14470.00
753.6800, 14632.00
754.8280, 14987.00
755.9760, 15177.00
757.1240, 15492.00
758.2720, 15541.00
759.4190, 15968.00
760.5670, 16102.00
761.7140, 16396.00
762.8610, 16196.00
764.0080, 16115.00
765.1550, 15844.00
766.3020, 15702.00
767.4480, 15337.00
768.5950, 15374.00
769.7410, 15344.00
770.8870, 15236.00
772.0330, 15336.00
773.1780, 15429.00
774.3240, 15376.00
775.4690, 15165.00
776.6140, 15211.00
777.7590, 14949.00
778.9040, 14850.00
780.0490, 14858.00
781.1940, 14691.00
782.3380, 14594.00
783.4820, 14563.00
784.6260, 14637.00
785.7700, 14530.00
786.9140, 14661.00
788.0580, 14712.00
789.2010, 14705.00
790.3450, 14634.00
791.4880, 14626.00
792.6310, 14647.31
793.7730, 14620.00
794.9160, 14751.00
796.0590, 14868.00
797.2010, 14999.00
798.3430, 14972.00
799.4850, 15169.00
800.6270, 15054.00
801.7690, 15229.00
802.9100, 15431.00
804.0520, 15620.00
805.1930, 16017.00
806.3340, 16374.29
807.4750, 16508.00
808.6160, 17327.00
809.7560, 17874.00
810.8970, 18466.00
812.0370, 18806.00
813.1770, 19191.00
814.3170, 19198.00
815.4570, 19053.00
816.5960, 18070.00
817.7360, 17532.00
818.8750, 16899.00
820.0140, 16490.00
821.1530, 16131.00
822.2920, 15753.00
823.4310, 15727.00
824.5690, 15609.00
825.7070, 15286.00
826.8460, 15476.00
827.9840, 15391.00
829.1220, 15360.00
830.2590, 15380.00
831.3970, 15249.00
832.5340, 15266.00
833.6710, 15211.00
834.8080, 15221.00
835.9450, 15171.00
837.0820, 15238.00
838.2190, 15179.00
839.3550, 15139.00
840.4910, 15290.00
841.6270, 15384.00
842.7630, 15250.00
843.8990, 15298.00
845.0350, 15255.00
846.1700, 15242.68
847.3060, 15331.00
848.4410, 15283.00
849.5760, 15286.00
850.7100, 15362.00
851.8450, 15225.00
852.9800, 15363.00
854.1140, 15393.00
855.2480, 15252.00
856.3820, 15380.00
857.5160, 15478.00
858.6500, 15431.00
859.7830, 15557.00
860.9170, 15525.00
862.0500, 15320.00
863.1830, 15494.00
864.3160, 15162.00
865.4480, 15241.00
866.5810, 15376.00
867.7130, 15456.00
868.8460, 15503.00
869.9780, 15465.00
871.1100, 15462.00
872.2410, 15378.00
873.3730, 15379.00
874.5050, 15409.20
875.6360, 15401.00
876.7670, 15499.00
877.8980, 15479.00
879.0290, 15500.00
880.1590, 15541.00
881.2900, 15425.00
882.4200, 15410.00
883.5500, 15471.00
884.6800, 15411.00
885.8100, 15528.00
886.9400, 15583.00
888.0690, 15445.00
889.1990, 15679.00
890.3280, 15684.00
891.4570, 15682.00
892.5860, 15591.00
893.7140, 15585.00
894.8430, 15685.00
895.9710, 15638.00
897.1000, 15643.00
898.2280, 15771.00
899.3560, 15852.00
900.4830, 15889.00
901.6110, 15683.00
902.7380, 15776.00
903.8660, 15795.00
904.9930, 15669.00
906.1200, 15774.00
907.2460, 15926.00
908.3730, 15738.00
909.5000, 15767.00
910.6260, 15689.00
911.7520, 15928.00
912.8780, 15941.00
914.0040, 15902.00
915.1290, 15730.00
916.2550, 15849.00
917.3800, 15812.00
918.5050, 16108.00
919.6300, 15995.00
920.7550, 15834.00
921.8800, 16028.00
923.0040, 15818.00
924.1290, 15852.00
925.2530, 15851.00
926.3770, 15957.00
927.5010, 15778.00
928.6250, 15885.00
929.7480, 16084.00
930.8720, 16076.00
931.9950, 15847.00
933.1180, 15989.00
934.2410, 15949.00
935.3640, 16048.00
936.4860, 16075.00
937.6090, 15943.00
938.7310, 16108.00
939.8530, 16111.00
940.9750, 16219.00
942.0970, 16110.00
943.2180, 16163.00
944.3400, 16154.00
945.4610, 16155.00
946.5820, 16230.48
947.7030, 16243.03
948.8240, 16345.00
949.9450, 16354.00
951.0650, 16355.00
952.1860, 16452.00
953.3060, 16306.00
954.4260, 16328.00
955.5460, 16372.00
956.6650, 16367.00
957.7850, 16250.00
958.9040, 16443.00
960.0230, 16389.00
961.1420, 16538.00
962.2610, 16389.00
963.3800, 16549.00
964.4990, 16547.00
965.6170, 16787.00
966.7350, 16526.00
967.8530, 16637.00
968.9710, 16472.00
970.0890, 16695.00
971.2070, 16886.00
972.3240, 16977.00
973.4410, 17099.00
974.5580, 17205.00
975.6750, 17218.00
976.7920, 17289.00
977.9090, 17326.00
979.0250, 17297.00
980.1410, 17234.00
981.2580, 17194.26
982.3740, 17142.11
983.4890, 17024.00
984.6050, 17003.00
985.7200, 16882.00
986.8360, 16852.43
987.9510, 16785.00
989.0660, 16802.00
990.1810, 16827.00
991.2950, 16850.01
992.4100, 16823.00
993.5240, 16860.00
994.6390, 16928.00
995.7530, 16887.00
996.8660, 16843.00
997.9800, 17071.00
999.0940, 17188.00
1000.207, 17490.00
1001.320, 17493.00
1002.433, 17423.00
1003.546, 17399.00
1004.659, 17312.00
1005.772, 17318.00
1006.884, 17254.00
1007.996, 17204.00
1009.108, 17544.00
1010.220, 17516.00
1011.332, 17538.00
1012.444, 17474.00
1013.555, 17539.00
1014.666, 17369.00
1015.777, 17484.00
1016.888, 17441.00
1017.999, 17633.00
1019.110, 17803.00
1020.220, 17839.00
1021.331, 18058.61
1022.441, 18191.00
1023.551, 18444.00
1024.661, 18645.00
1025.770, 18942.00
1026.880, 18911.00
1027.989, 19564.00
1029.098, 19779.00
1030.207, 20028.00
1031.316, 19972.00
1032.425, 19853.00
1033.533, 19681.00
1034.642, 19250.00
1035.750, 19068.00
1036.858, 18851.00
1037.966, 18419.00
1039.073, 18197.00
1040.181, 18231.00
1041.288, 18160.00
1042.396, 17949.75
1043.503, 17822.00
1044.610, 17649.00
1045.716, 17663.00
1046.823, 17720.00
1047.929, 17588.00
1049.036, 17604.00
1050.142, 17621.00
1051.248, 17554.00
1052.353, 17456.00
1053.459, 17588.00
1054.564, 17622.00
1055.670, 17636.00
1056.775, 17546.00
1057.880, 17501.00
1058.985, 17657.00
1060.089, 17392.00
1061.194, 17761.00
1062.298, 17746.00
1063.402, 17808.00
1064.506, 17588.00
1065.610, 17605.00
1066.713, 17601.00
1067.817, 17757.00
1068.920, 17860.00
1070.023, 17845.00
1071.126, 17845.00
1072.229, 17872.00
1073.332, 17915.00
1074.435, 18105.00
1075.537, 18267.00
1076.639, 18147.00
1077.741, 18294.00
1078.843, 18263.00
1079.945, 18376.00
1081.046, 18486.00
1082.148, 18706.00
1083.249, 18831.00
1084.350, 18998.84
1085.451, 19209.15
1086.551, 19336.00
1087.652, 19611.00
1088.752, 19814.00
1089.853, 19996.00
1090.953, 20549.00
1092.053, 21085.00
1093.152, 21510.00
1094.252, 22188.00
1095.351, 22748.00
1096.451, 23014.00
1097.550, 23446.00
1098.649, 23338.00
1099.748, 23050.00
1100.846, 22973.00
1101.945, 22676.00
1103.043, 22127.00
1104.141, 21887.00
1105.239, 21525.00
1106.337, 21271.00
1107.434, 21137.00
1108.532, 21246.00
1109.629, 21124.00
1110.726, 21081.00
1111.823, 21336.00
1112.920, 21010.00
1114.017, 21125.00
1115.113, 20963.00
1116.210, 20631.00
1117.306, 20554.00
1118.402, 20320.00
1119.498, 19993.00
1120.593, 19851.00
1121.689, 19583.00
1122.784, 19266.00
1123.879, 19316.00
1124.974, 18798.00
1126.069, 18947.00
1127.164, 18871.00
1128.259, 18708.00
1129.353, 18759.00
1130.447, 18621.00
1131.541, 18694.00
1132.635, 18633.00
1133.729, 18483.00
1134.822, 18613.00
1135.916, 18651.00
1137.009, 18497.00
1138.102, 18558.00
1139.195, 18382.00
1140.288, 18324.00
1141.380, 18381.00
1142.473, 18379.00
1143.565, 18418.00
1144.657, 18489.00
1145.749, 18512.00
1146.841, 18546.00
1147.932, 18646.00
1149.024, 18561.00
1150.115, 18552.00
1151.206, 18586.00
1152.297, 18496.00
1153.388, 18490.00
1154.479, 18406.00
1155.569, 18602.00
1156.659, 18417.00
1157.750, 18504.00
1158.839, 18501.00
1159.929, 18460.00
1161.019, 18453.00
1162.108, 18385.00
1163.198, 18321.00
1164.287, 18507.00
1165.376, 18408.00
1166.465, 18674.00
1167.553, 18491.00
1168.642, 18370.00
1169.730, 18580.00
1170.818, 18596.00
1171.906, 18679.00
1172.994, 18665.00
1174.082, 18596.00
1175.170, 18580.00
1176.257, 18510.00
1177.344, 18777.00
1178.431, 18523.00
1179.518, 18753.00
1180.605, 18489.00
1181.691, 18568.00
1182.778, 18740.00
1183.864, 18602.00
1184.950, 18769.00
1186.036, 18664.00
1187.122, 18719.00
1188.207, 18728.00
1189.292, 18680.00
1190.378, 18798.00
1191.463, 18717.09
1192.548, 18701.00
1193.632, 18658.00
1194.717, 18609.00
1195.801, 18635.00
1196.886, 18847.00
1197.970, 18738.00
1199.054, 18853.00
1200.137, 18820.00
1201.221, 18856.00
1202.305, 18804.00
1203.388, 18948.00
1204.471, 18874.40
1205.554, 18892.00
1206.637, 18819.00
1207.719, 18898.00
1208.802, 18903.00
1209.884, 18760.00
1210.966, 18887.00
1212.048, 18888.00
1213.130, 18987.00
1214.212, 19057.44
1215.293, 19072.00
1216.374, 19137.00
1217.456, 19040.00
1218.536, 18921.00
1219.617, 19060.00
1220.698, 18899.00
1221.778, 19064.00
1222.859, 19150.00
1223.939, 19120.00
1225.019, 19012.00
1226.099, 19019.00
1227.178, 19013.00
1228.258, 19011.00
1229.337, 19077.00
1230.417, 19072.00
1231.496, 19109.00
1232.574, 19057.00
1233.653, 19081.00
1234.732, 19118.35
1235.810, 19242.00
1236.888, 19192.00
1237.966, 19195.00
1239.044, 19184.00
1240.122, 19175.00
1241.199, 19224.00
1242.277, 19268.00
1243.354, 19198.00
1244.431, 19355.00
1245.508, 19318.00
1246.585, 19274.00
1247.661, 19339.00
1248.738, 19451.00
1249.814, 19400.00
1250.890, 19476.98
1251.966, 19396.00
1253.042, 19503.00
1254.117, 19493.00
1255.193, 19439.00
1256.268, 19373.00
1257.343, 19457.00
1258.418, 19440.00
1259.493, 19620.00
1260.567, 19509.00
1261.642, 19482.00
1262.716, 19495.00
1263.790, 19645.00
1264.864, 19684.00
1265.938, 19670.00
1267.011, 19583.00
1268.085, 19567.00
1269.158, 19610.96
1270.231, 19516.00
1271.304, 19714.00
1272.377, 19722.00
1273.450, 19722.00
1274.522, 19891.00
1275.594, 19767.00
1276.666, 19611.00
1277.738, 19592.00
1278.810, 19822.00
1279.882, 19639.00
1280.953, 19781.00
1282.025, 19765.00
1283.096, 19633.00
1284.167, 19747.00
1285.238, 19663.00
1286.308, 19689.00
1287.379, 19760.00
1288.449, 19871.00
1289.519, 19733.00
1290.589, 19810.00
1291.659, 19887.00
1292.729, 19933.00
1293.798, 20038.00
1294.868, 19906.00
1295.937, 19872.00
1297.006, 19914.00
1298.075, 20006.00
1299.143, 19975.00
1300.212, 19841.00
1301.280, 20032.00
1302.348, 19934.00
1303.416, 20063.00
1304.484, 20024.00
1305.552, 20039.00
1306.620, 20231.00
1307.687, 20027.00
1308.754, 20079.00
1309.821, 20073.00
1310.888, 20253.00
1311.955, 20208.00
1313.021, 20322.00
1314.088, 20222.00
1315.154, 20256.00
1316.220, 20295.00
1317.286, 20137.00
1318.352, 20265.00
1319.417, 20514.00
1320.483, 20171.00
1321.548, 19979.00
1322.613, 20277.00
1323.678, 20318.00
1324.743, 20358.00
1325.807, 20214.00
1326.872, 20275.00
1327.936, 20106.00
1329.000, 20158.00
1330.064, 20252.00
1331.128, 20179.00
1332.191, 20285.00
1333.255, 20185.00
1334.318, 20191.00
1335.381, 20128.00
1336.444, 20401.00
1337.507, 19991.00
1338.569, 20352.00
1339.632, 20333.00
1340.694, 20265.00
1341.756, 20220.00
1342.818, 20276.00
1343.880, 20358.00
1344.941, 20286.00
1346.003, 20334.00
1347.064, 20225.00
1348.125, 20430.00
1349.186, 20320.00
1350.247, 20208.00
1351.308, 20155.00
1352.368, 20389.00
1353.428, 20245.00
1354.489, 20402.00
1355.549, 20283.00
1356.608, 20161.00
1357.668, 20461.00
1358.727, 20401.00
1359.787, 20370.00
1360.846, 20478.00
1361.905, 20257.00
1362.964, 20450.00
1364.022, 20252.00
1365.081, 20389.00
1366.139, 20229.00
1367.197, 20321.00
1368.255, 20505.00
1369.313, 20586.00
1370.371, 20496.00
1371.428, 20531.00
1372.486, 20489.00
1373.543, 20490.00
1374.600, 20587.00
1375.657, 20566.00
1376.713, 20613.00
1377.770, 20700.00
1378.826, 20843.00
1379.882, 20837.80
1380.938, 20803.00
1381.994, 20735.00
1383.050, 20731.00
1384.106, 20384.00
1385.161, 20611.00
1386.216, 20716.00
1387.271, 20691.00
1388.326, 20386.00
1389.381, 20602.00
1390.435, 20591.00
1391.490, 20748.00
1392.544, 20535.00
1393.598, 20687.00
1394.652, 20783.00
1395.705, 20880.00
1396.759, 20679.00
1397.812, 20894.00
1398.866, 20600.00
1399.919, 20709.00
1400.972, 20973.00
1402.024, 20668.00
1403.077, 20793.00
1404.129, 20740.00
1405.181, 20924.00
1406.233, 20885.00
1407.285, 20702.00
1408.337, 20823.00
1409.389, 20738.00
1410.440, 20897.00
1411.491, 21008.00
1412.542, 20741.00
1413.593, 20645.00
1414.644, 20766.00
1415.695, 20912.00
1416.745, 20804.00
1417.795, 20928.00
1418.845, 20776.00
1419.895, 21058.00
1420.945, 21116.00
1421.995, 21131.00
1423.044, 20860.00
1424.093, 21005.00
1425.142, 21005.00
1426.191, 21106.00
1427.240, 20918.00
1428.289, 21077.00
1429.337, 21066.00
1430.385, 20869.00
1431.433, 21056.00
1432.481, 21160.00
1433.529, 21020.00
1434.577, 21266.00
1435.624, 21276.00
1436.672, 21240.00
1437.719, 21386.00
1438.766, 21521.00
1439.812, 21435.00
1440.859, 21553.00
1441.905, 21772.00
1442.952, 21534.00
1443.998, 21610.00
1445.044, 21643.00
1446.090, 21845.00
1447.135, 21703.00
1448.181, 21500.00
1449.226, 21655.00
1450.271, 21795.00
1451.316, 21689.00
1452.361, 21871.00
1453.405, 21805.00
1454.450, 21905.00
1455.494, 21677.00
1456.538, 21786.00
1457.582, 21592.00
1458.626, 21813.00
1459.670, 21852.00
1460.713, 21618.00
1461.757, 21759.00
1462.800, 21775.00
1463.843, 21961.00
1464.886, 21728.00
1465.928, 21708.00
1466.971, 21609.00
1468.013, 21652.00
1469.055, 21666.00
1470.097, 21653.35
1471.139, 21657.00
1472.181, 21686.00
1473.222, 21563.00
1474.263, 21565.00
1475.305, 21614.00
1476.346, 21789.00
1477.386, 21693.00
1478.427, 21666.00
1479.468, 21857.00
1480.508, 21678.00
1481.548, 21704.00
1482.588, 21709.00
1483.628, 21625.00
1484.668, 21505.00
1485.707, 21577.10
1486.747, 21559.00
1487.786, 21616.00
1488.825, 21624.00
1489.864, 21647.20
1490.902, 21697.00
1491.941, 21675.00
1492.979, 21644.00
1494.017, 21602.00
1495.055, 21595.87
1496.093, 21661.00
1497.131, 21613.00
1498.168, 21529.00
1499.206, 21611.00
1500.243, 21579.00
1501.280, 21568.00
1502.317, 21623.25
1503.354, 21689.00
1504.390, 21684.00
1505.426, 21673.00
1506.463, 21675.00
1507.499, 21624.00
1508.535, 21790.00
1509.570, 21741.00
1510.606, 21884.00
1511.641, 21842.00
1512.676, 21833.00
1513.711, 21922.00
1514.746, 21693.00
1515.781, 21603.00
1516.816, 21852.00
1517.850, 21725.00
1518.884, 21758.00
1519.918, 21799.00
1520.952, 21934.00
1521.986, 21957.00
1523.019, 21973.00
1524.053, 21984.19
1525.086, 22061.00
1526.119, 21943.00
1527.152, 21953.00
1528.185, 21977.00
1529.217, 22098.00
1530.250, 22049.00
1531.282, 22070.00
1532.314, 21958.00
1533.346, 22084.00
1534.377, 22239.00
1535.409, 22051.00
1536.440, 21813.00
1537.472, 22000.00
1538.503, 22168.00
1539.534, 22330.00
1540.564, 22366.68
1541.595, 22270.00
1542.625, 22295.00
1543.656, 22314.00
1544.686, 22076.00
1545.716, 22228.00
1546.745, 22037.00
1547.775, 22114.00
1548.804, 22047.00
1549.834, 22310.00
1550.863, 22383.00
1551.892, 22231.00
1552.920, 22368.00
1553.949, 22138.00
1554.977, 22205.00
1556.006, 22282.00
1557.034, 22352.00
1558.062, 22568.00
1559.089, 22239.00
1560.117, 22353.00
1561.144, 22165.00
1562.172, 22305.00
1563.199, 22301.00
1564.226, 22382.00
1565.252, 22432.96
1566.279, 22290.00
1567.305, 22464.00
1568.332, 22425.00
1569.358, 22323.00
1570.384, 22491.00
1571.409, 22292.00
1572.435, 22435.00
##END=



