##NAMES=Albite
##RRUFFID=R050253
##IDEAL CHEMISTRY=NaAlSi_3_O_8_
##LOCALITY=Madawaska/Faraday mine, Bancroft, Ontario, Canada
##OWNER=RRUFF
##SOURCE=Marcus Origlieri
##DESCRIPTION=Colorless to brown prismatic single crystals
##STATUS=The identification of this mineral has been confirmed by X-ray diffraction and chemical analysis
##URL=rruff.info/R050253
##MEASURED CHEMISTRY=(Na_0.99_Ca_0.01_)Al_1.00_(Si_0.99_Al_0.01_)_3_O_8_
##PIN_ID=L00649
##ORIENTATION=Laser parallel to c* (0 0 1). Fiducial mark perpendicular to laser is parallel to a [1 0 0]
87.30800, 7315.000
88.54200, 7173.000
89.77700, 7181.000
91.01200, 7232.000
92.24600, 7216.000
93.48000, 7138.000
94.71400, 7102.000
95.94800, 7133.000
97.18200, 7129.109
98.41600, 7082.000
99.64900, 7279.000
100.8830, 7460.000
102.1160, 7701.000
103.3490, 8223.000
104.5820, 8534.000
105.8150, 9159.000
107.0470, 9578.000
108.2800, 10183.00
109.5120, 10909.00
110.7440, 11239.00
111.9760, 11115.00
113.2080, 11239.00
114.4400, 10910.00
115.6710, 10837.00
116.9030, 10442.00
118.1340, 9762.000
119.3650, 9283.000
120.5960, 8863.000
121.8270, 8425.000
123.0580, 8362.000
124.2880, 8466.000
125.5190, 8150.000
126.7490, 8071.000
127.9790, 8256.000
129.2090, 8223.000
130.4390, 8323.000
131.6680, 8620.000
132.8980, 8658.000
134.1270, 8956.000
135.3560, 9336.000
136.5850, 9828.000
137.8140, 10714.00
139.0430, 11447.00
140.2710, 12702.00
141.5000, 14083.00
142.7280, 15375.00
143.9560, 16477.00
145.1840, 17370.00
146.4120, 18229.00
147.6390, 19650.00
148.8670, 21228.00
150.0940, 22249.00
151.3210, 22506.00
152.5490, 22318.00
153.7750, 21012.00
155.0020, 19879.00
156.2290, 18558.00
157.4550, 17524.00
158.6810, 17068.00
159.9080, 17301.00
161.1340, 17455.00
162.3590, 17735.00
163.5850, 17593.00
164.8110, 17355.00
166.0360, 17016.00
167.2610, 16566.00
168.4860, 16166.00
169.7110, 16033.00
170.9360, 15988.00
172.1610, 16163.00
173.3850, 16718.00
174.6100, 17273.00
175.8340, 18077.00
177.0580, 18973.00
178.2820, 20012.00
179.5050, 20927.00
180.7290, 22051.00
181.9520, 23024.00
183.1760, 23746.00
184.3990, 24411.00
185.6220, 24398.00
186.8450, 24379.00
188.0670, 23550.00
189.2900, 22394.00
190.5120, 21061.00
191.7340, 19289.00
192.9560, 17799.00
194.1780, 16446.00
195.4000, 15316.00
196.6220, 14586.00
197.8430, 14110.00
199.0640, 13966.00
200.2860, 13868.00
201.5070, 14047.00
202.7270, 14360.00
203.9480, 14386.00
205.1690, 14441.00
206.3890, 14534.00
207.6090, 14886.00
208.8290, 14767.00
210.0490, 14636.00
211.2690, 13789.00
212.4890, 13103.00
213.7080, 12271.00
214.9280, 11354.00
216.1470, 10584.00
217.3660, 9907.000
218.5850, 9246.000
219.8030, 8834.000
221.0220, 8716.000
222.2400, 8373.000
223.4590, 8301.000
224.6770, 8157.000
225.8950, 8112.000
227.1120, 8193.000
228.3300, 7974.000
229.5480, 8053.000
230.7650, 8092.000
231.9820, 7997.000
233.1990, 8118.000
234.4160, 8176.000
235.6330, 8122.000
236.8490, 8192.000
238.0660, 8437.000
239.2820, 8547.000
240.4980, 9028.000
241.7140, 9592.000
242.9300, 10135.00
244.1460, 10556.00
245.3610, 10986.00
246.5770, 11396.00
247.7920, 11975.00
249.0070, 12432.00
250.2220, 13076.00
251.4370, 13225.00
252.6510, 13240.00
253.8660, 13016.00
255.0800, 12689.00
256.2940, 12079.00
257.5080, 11863.00
258.7220, 11637.00
259.9360, 12017.00
261.1490, 12328.00
262.3630, 12532.00
263.5760, 13030.00
264.7890, 13536.00
266.0020, 14152.00
267.2150, 14867.00
268.4270, 15288.00
269.6400, 15355.00
270.8520, 15331.00
272.0640, 14874.00
273.2760, 14315.00
274.4880, 13811.00
275.7000, 13441.00
276.9120, 13106.00
278.1230, 13252.00
279.3340, 13643.00
280.5450, 14785.00
281.7560, 16204.00
282.9670, 17680.00
284.1780, 19144.00
285.3880, 20792.00
286.5980, 22285.00
287.8090, 24127.00
289.0190, 25504.00
290.2290, 26261.00
291.4380, 26279.00
292.6480, 25386.00
293.8570, 23674.00
295.0670, 21373.00
296.2760, 19135.00
297.4850, 16716.00
298.6930, 14864.00
299.9020, 13471.00
301.1110, 12236.00
302.3190, 11559.00
303.5270, 11068.00
304.7350, 10751.00
305.9430, 10333.00
307.1510, 10181.00
308.3580, 9969.000
309.5660, 9973.000
310.7730, 9844.000
311.9800, 9817.000
313.1870, 9609.000
314.3940, 9514.000
315.6010, 9550.000
316.8070, 9760.000
318.0130, 9751.000
319.2200, 10059.00
320.4260, 10502.00
321.6310, 10803.00
322.8370, 11176.00
324.0430, 11552.00
325.2480, 12022.00
326.4540, 12175.00
327.6590, 12617.00
328.8640, 12672.00
330.0680, 12238.00
331.2730, 11870.00
332.4780, 11109.00
333.6820, 10385.00
334.8860, 10017.00
336.0900, 9420.000
337.2940, 9168.000
338.4980, 8919.000
339.7010, 8784.000
340.9050, 8774.000
342.1080, 8593.000
343.3110, 8609.000
344.5140, 8646.000
345.7170, 8655.000
346.9200, 8664.000
348.1220, 8619.000
349.3240, 8556.000
350.5270, 8631.000
351.7290, 8387.000
352.9310, 8353.000
354.1320, 8407.000
355.3340, 8327.000
356.5350, 8154.000
357.7370, 8243.000
358.9380, 8101.000
360.1390, 8203.000
361.3400, 8259.000
362.5400, 8106.000
363.7410, 8161.000
364.9410, 8110.000
366.1410, 8144.000
367.3410, 8202.000
368.5410, 8132.000
369.7410, 8243.000
370.9400, 8134.000
372.1400, 8273.000
373.3390, 8088.000
374.5380, 8202.000
375.7370, 8165.000
376.9360, 8140.000
378.1350, 8263.000
379.3330, 8200.000
380.5310, 8133.000
381.7300, 8290.000
382.9280, 8315.000
384.1260, 8297.000
385.3230, 8484.000
386.5210, 8544.000
387.7180, 8642.000
388.9160, 8889.000
390.1130, 9045.000
391.3100, 9370.000
392.5060, 9674.000
393.7030, 9869.000
394.9000, 10142.00
396.0960, 10293.00
397.2920, 10681.00
398.4880, 10999.00
399.6840, 11200.00
400.8800, 11371.00
402.0750, 11360.00
403.2710, 11178.00
404.4660, 11225.00
405.6610, 11343.00
406.8560, 11728.00
408.0510, 12120.00
409.2450, 12241.00
410.4400, 12331.00
411.6340, 12268.00
412.8280, 12410.00
414.0220, 12727.00
415.2160, 12702.00
416.4100, 12728.00
417.6030, 12400.00
418.7970, 12306.00
419.9900, 11255.00
421.1830, 10771.00
422.3760, 9901.000
423.5690, 9680.000
424.7610, 9199.000
425.9540, 9054.000
427.1460, 9042.000
428.3380, 9092.000
429.5300, 9176.000
430.7220, 9046.000
431.9140, 9146.000
433.1050, 9135.000
434.2970, 9154.000
435.4880, 9200.000
436.6790, 9292.684
437.8700, 9472.000
439.0610, 9586.000
440.2510, 9717.000
441.4420, 9970.000
442.6320, 10308.00
443.8220, 10589.00
445.0120, 11169.00
446.2020, 11770.00
447.3910, 12570.00
448.5810, 13357.00
449.7700, 14304.15
450.9600, 15359.00
452.1490, 16379.00
453.3370, 17397.00
454.5260, 18477.00
455.7150, 18999.00
456.9030, 19021.00
458.0910, 18848.00
459.2800, 18252.00
460.4670, 17338.00
461.6550, 16557.00
462.8430, 16059.00
464.0300, 15939.00
465.2180, 16315.00
466.4050, 17296.00
467.5920, 18777.00
468.7790, 21266.00
469.9650, 24664.00
471.1520, 28490.00
472.3380, 32676.00
473.5250, 36332.00
474.7110, 40708.00
475.8970, 44377.00
477.0820, 47763.00
478.2680, 49351.00
479.4540, 48562.00
480.6390, 46227.00
481.8240, 41799.00
483.0090, 36680.00
484.1940, 31259.00
485.3780, 26490.00
486.5630, 23034.00
487.7470, 20444.00
488.9320, 18748.00
490.1160, 17937.00
491.3000, 17455.00
492.4830, 17605.00
493.6670, 18359.00
494.8500, 19479.00
496.0340, 21784.00
497.2170, 24805.00
498.4000, 29159.00
499.5820, 34110.00
500.7650, 39437.00
501.9480, 44281.00
503.1300, 49254.00
504.3120, 54373.00
505.4940, 58297.00
506.6760, 60327.00
507.8580, 59931.00
509.0390, 56853.00
510.2210, 51326.00
511.4020, 45045.00
512.5830, 37807.00
513.7640, 31807.00
514.9450, 26648.00
516.1250, 22905.00
517.3060, 20263.00
518.4860, 18194.00
519.6660, 16581.00
520.8460, 15410.00
522.0260, 14746.00
523.2060, 13839.00
524.3850, 13376.00
525.5650, 12981.00
526.7440, 12752.00
527.9230, 12398.00
529.1020, 12053.00
530.2810, 11765.00
531.4590, 11760.00
532.6380, 11419.00
533.8160, 11526.00
534.9940, 11091.00
536.1720, 11084.00
537.3500, 10913.00
538.5270, 10884.00
539.7050, 10809.00
540.8820, 10707.00
542.0590, 10723.00
543.2360, 10637.00
544.4130, 10561.00
545.5900, 10421.00
546.7660, 10475.00
547.9430, 10312.00
549.1190, 10277.00
550.2950, 10302.00
551.4710, 10234.00
552.6470, 10228.00
553.8220, 10230.00
554.9980, 10174.00
556.1730, 10133.00
557.3480, 10145.24
558.5230, 10143.00
559.6980, 10141.00
560.8730, 10167.00
562.0470, 10127.00
563.2220, 10129.00
564.3960, 10150.00
565.5700, 10195.00
566.7440, 10208.00
567.9170, 10222.00
569.0910, 10276.00
570.2640, 10514.00
571.4380, 10563.00
572.6110, 10629.00
573.7840, 10766.00
574.9570, 10835.00
576.1290, 10817.00
577.3020, 10969.00
578.4740, 10887.00
579.6460, 10999.00
580.8180, 10807.00
581.9900, 10631.00
583.1620, 10534.00
584.3330, 10474.00
585.5040, 10232.00
586.6760, 10194.00
587.8470, 10090.00
589.0180, 9999.000
590.1880, 10036.00
591.3590, 9956.048
592.5290, 9939.000
593.7000, 9918.000
594.8700, 9909.000
596.0400, 9925.000
597.2090, 9915.334
598.3790, 9859.000
599.5490, 9916.000
600.7180, 9887.000
601.8870, 9871.000
603.0560, 9943.000
604.2250, 9956.000
605.3940, 9805.000
606.5620, 9891.000
607.7300, 9863.000
608.8990, 9825.000
610.0670, 9960.000
611.2350, 9880.000
612.4020, 9920.000
613.5700, 9959.000
614.7370, 10017.00
615.9050, 9950.000
617.0720, 10093.00
618.2390, 10042.00
619.4060, 10127.00
620.5720, 10146.00
621.7390, 10046.00
622.9050, 10327.00
624.0710, 10312.00
625.2370, 10284.00
626.4030, 10449.00
627.5690, 10393.00
628.7340, 10585.00
629.9000, 10577.00
631.0650, 10722.00
632.2300, 10650.00
633.3950, 10704.00
634.5600, 10832.00
635.7240, 10734.00
636.8890, 10748.00
638.0530, 10820.00
639.2170, 10697.00
640.3810, 10815.00
641.5450, 10921.00
642.7080, 10912.00
643.8720, 10983.00
645.0350, 11038.00
646.1980, 10897.00
647.3610, 10911.00
648.5240, 10981.00
649.6870, 10679.00
650.8490, 10771.00
652.0120, 10717.00
653.1740, 10485.00
654.3360, 10483.00
655.4980, 10334.00
656.6600, 10239.00
657.8210, 10271.00
658.9830, 10229.00
660.1440, 10219.00
661.3050, 10288.00
662.4660, 10271.00
663.6270, 10263.00
664.7870, 10244.00
665.9480, 10260.25
667.1080, 10257.00
668.2680, 10276.00
669.4280, 10289.00
670.5880, 10252.00
671.7480, 10260.72
672.9070, 10247.52
674.0670, 10220.00
675.2260, 10229.00
676.3850, 10176.00
677.5440, 10166.00
678.7030, 10088.00
679.8610, 10213.00
681.0200, 10180.00
682.1780, 10166.00
683.3360, 10090.00
684.4940, 10260.00
685.6520, 10071.00
686.8090, 10189.00
687.9670, 10250.00
689.1240, 10247.00
690.2810, 10152.00
691.4380, 10098.00
692.5950, 10173.00
693.7520, 10217.00
694.9080, 10352.00
696.0650, 10262.00
697.2210, 10234.00
698.3770, 10186.00
699.5330, 10213.00
700.6880, 10213.00
701.8440, 10206.00
702.9990, 10281.00
704.1550, 10261.00
705.3100, 10437.00
706.4650, 10330.00
707.6190, 10374.00
708.7740, 10328.00
709.9290, 10439.00
711.0830, 10551.00
712.2370, 10494.00
713.3910, 10710.00
714.5450, 10663.00
715.6980, 10514.00
716.8520, 10795.00
718.0050, 10874.00
719.1580, 10751.00
720.3110, 10992.00
721.4640, 10832.00
722.6170, 10813.00
723.7700, 10918.00
724.9220, 11002.00
726.0740, 10833.00
727.2260, 10829.00
728.3780, 10798.00
729.5300, 10923.00
730.6810, 10806.00
731.8330, 10838.00
732.9840, 10808.00
734.1350, 10838.00
735.2860, 10887.38
736.4370, 11011.00
737.5880, 11035.00
738.7380, 11193.00
739.8880, 11330.00
741.0390, 11334.00
742.1890, 11191.00
743.3380, 11390.00
744.4880, 11507.00
745.6380, 11641.00
746.7870, 11906.00
747.9360, 12013.00
749.0850, 12279.00
750.2340, 12677.00
751.3830, 13009.00
752.5310, 13794.00
753.6800, 14325.00
754.8280, 15385.00
755.9760, 16545.00
757.1240, 18193.00
758.2720, 19696.00
759.4190, 21627.00
760.5670, 22965.00
761.7140, 24151.00
762.8610, 24710.00
764.0080, 24885.00
765.1550, 23946.00
766.3020, 22502.00
767.4480, 20646.00
768.5950, 18911.00
769.7410, 17384.00
770.8870, 16275.00
772.0330, 15608.00
773.1780, 14876.00
774.3240, 14521.00
775.4690, 14169.00
776.6140, 13782.00
777.7590, 13417.00
778.9040, 13014.00
780.0490, 12918.00
781.1940, 12402.00
782.3380, 12343.00
783.4820, 12165.00
784.6260, 11885.00
785.7700, 11885.00
786.9140, 11800.00
788.0580, 11871.00
789.2010, 11846.00
790.3450, 11740.00
791.4880, 11706.00
792.6310, 11760.00
793.7730, 11856.00
794.9160, 11821.00
796.0590, 11757.00
797.2010, 11907.00
798.3430, 12007.00
799.4850, 12041.00
800.6270, 12250.00
801.7690, 12429.00
802.9100, 12514.00
804.0520, 12926.00
805.1930, 13468.00
806.3340, 14049.00
807.4750, 14884.00
808.6160, 15968.00
809.7560, 16732.00
810.8970, 17953.00
812.0370, 18835.00
813.1770, 19881.00
814.3170, 20167.00
815.4570, 20398.00
816.5960, 19878.00
817.7360, 18937.00
818.8750, 17822.00
820.0140, 16542.00
821.1530, 15316.00
822.2920, 14360.00
823.4310, 13953.00
824.5690, 13141.00
825.7070, 13031.00
826.8460, 12526.00
827.9840, 12462.00
829.1220, 12339.00
830.2590, 12239.00
831.3970, 12158.00
832.5340, 11967.00
833.6710, 12081.00
834.8080, 12097.00
835.9450, 11904.00
837.0820, 11894.00
838.2190, 11785.00
839.3550, 11767.00
840.4910, 11633.00
841.6270, 11701.00
842.7630, 11608.00
843.8990, 11747.00
845.0350, 11630.00
846.1700, 11699.00
847.3060, 11637.00
848.4410, 11569.00
849.5760, 11513.00
850.7100, 11524.00
851.8450, 11551.00
852.9800, 11608.00
854.1140, 11585.00
855.2480, 11633.00
856.3820, 11631.00
857.5160, 11695.00
858.6500, 11551.00
859.7830, 11701.00
860.9170, 11668.00
862.0500, 11736.00
863.1830, 11762.52
864.3160, 11612.00
865.4480, 11802.00
866.5810, 11628.00
867.7130, 11672.00
868.8460, 11822.00
869.9780, 11662.00
871.1100, 11697.00
872.2410, 11642.00
873.3730, 11614.00
874.5050, 11674.00
875.6360, 11710.00
876.7670, 11711.27
877.8980, 11631.00
879.0290, 11702.00
880.1590, 11725.00
881.2900, 11640.00
882.4200, 11761.00
883.5500, 11704.00
884.6800, 11765.00
885.8100, 11724.00
886.9400, 11758.00
888.0690, 11814.00
889.1990, 11641.00
890.3280, 11891.00
891.4570, 11769.00
892.5860, 11718.00
893.7140, 11837.00
894.8430, 11913.00
895.9710, 11946.00
897.1000, 11764.00
898.2280, 11860.00
899.3560, 11925.00
900.4830, 12063.00
901.6110, 11929.00
902.7380, 11836.00
903.8660, 11986.00
904.9930, 12067.00
906.1200, 12134.00
907.2460, 12066.00
908.3730, 12197.00
909.5000, 12061.00
910.6260, 11970.00
911.7520, 11901.00
912.8780, 12212.00
914.0040, 12068.00
915.1290, 12155.00
916.2550, 12122.00
917.3800, 12224.00
918.5050, 12218.00
919.6300, 12007.00
920.7550, 12079.00
921.8800, 12041.00
923.0040, 12228.00
924.1290, 12143.00
925.2530, 12210.00
926.3770, 12100.00
927.5010, 12099.00
928.6250, 12192.00
929.7480, 12191.00
930.8720, 12188.00
931.9950, 12178.00
933.1180, 12379.00
934.2410, 12338.00
935.3640, 12239.00
936.4860, 12372.00
937.6090, 12133.00
938.7310, 12465.00
939.8530, 12482.00
940.9750, 12496.00
942.0970, 12647.00
943.2180, 12656.00
944.3400, 12589.00
945.4610, 12822.00
946.5820, 12824.00
947.7030, 12901.00
948.8240, 12802.00
949.9450, 13069.00
951.0650, 13220.00
952.1860, 13282.00
953.3060, 13141.00
954.4260, 13061.00
955.5460, 13301.00
956.6650, 13378.00
957.7850, 13321.00
958.9040, 13199.00
960.0230, 13389.00
961.1420, 13267.00
962.2610, 13448.00
963.3800, 13560.00
964.4990, 13736.00
965.6170, 13704.00
966.7350, 13680.00
967.8530, 14056.00
968.9710, 14154.00
970.0890, 14690.00
971.2070, 15105.00
972.3240, 15348.00
973.4410, 16034.00
974.5580, 16158.00
975.6750, 16687.00
976.7920, 17036.00
977.9090, 17259.00
979.0250, 17226.00
980.1410, 16951.00
981.2580, 16405.00
982.3740, 15882.00
983.4890, 15490.00
984.6050, 14984.00
985.7200, 14627.00
986.8360, 14229.00
987.9510, 13990.00
989.0660, 13925.00
990.1810, 13705.00
991.2950, 13793.00
992.4100, 13680.00
993.5240, 13813.00
994.6390, 13805.00
995.7530, 13913.00
996.8660, 13963.00
997.9800, 14095.00
999.0940, 14277.00
1000.207, 14574.00
1001.320, 14947.00
1002.433, 15048.00
1003.546, 15337.00
1004.659, 15508.00
1005.772, 15786.00
1006.884, 15657.00
1007.996, 15716.00
1009.108, 15522.00
1010.220, 15384.00
1011.332, 15164.00
1012.444, 15031.00
1013.555, 15006.00
1014.666, 14871.00
1015.777, 14930.00
1016.888, 14645.00
1017.999, 14580.00
1019.110, 14497.00
1020.220, 14284.00
1021.331, 14141.00
1022.441, 13947.00
1023.551, 13954.00
1024.661, 14095.00
1025.770, 14082.00
1026.880, 14207.00
1027.989, 14258.00
1029.098, 14277.00
1030.207, 14403.00
1031.316, 14422.00
1032.425, 14450.45
1033.533, 14508.00
1034.642, 14467.00
1035.750, 14451.54
1036.858, 14361.00
1037.966, 14304.00
1039.073, 14185.00
1040.181, 14223.42
1041.288, 14271.00
1042.396, 14310.00
1043.503, 14387.00
1044.610, 14453.00
1045.716, 14293.00
1046.823, 14319.00
1047.929, 14433.00
1049.036, 14218.00
1050.142, 14304.00
1051.248, 14072.00
1052.353, 14114.00
1053.459, 13946.00
1054.564, 13835.00
1055.670, 13728.00
1056.775, 13758.00
1057.880, 13806.00
1058.985, 13717.00
1060.089, 13847.00
1061.194, 13781.00
1062.298, 13619.00
1063.402, 13786.00
1064.506, 13642.00
1065.610, 13817.00
1066.713, 13879.00
1067.817, 13878.00
1068.920, 13998.00
1070.023, 14003.00
1071.126, 14124.00
1072.229, 14032.00
1073.332, 14159.00
1074.435, 14356.00
1075.537, 14334.00
1076.639, 14504.00
1077.741, 14640.00
1078.843, 14638.00
1079.945, 14832.00
1081.046, 14918.00
1082.148, 15310.00
1083.249, 15440.00
1084.350, 15828.00
1085.451, 16288.00
1086.551, 16560.00
1087.652, 17080.00
1088.752, 17768.00
1089.853, 18465.00
1090.953, 19439.00
1092.053, 20588.00
1093.152, 21869.00
1094.252, 23496.00
1095.351, 24976.00
1096.451, 26363.00
1097.550, 27456.00
1098.649, 27819.00
1099.748, 27937.00
1100.846, 27397.00
1101.945, 26511.00
1103.043, 25520.00
1104.141, 24054.00
1105.239, 22888.00
1106.337, 22141.00
1107.434, 20971.00
1108.532, 20606.00
1109.629, 19966.00
1110.726, 19733.00
1111.823, 19494.00
1112.920, 19183.00
1114.017, 18936.00
1115.113, 18861.00
1116.210, 18589.00
1117.306, 18424.00
1118.402, 18042.00
1119.498, 17626.00
1120.593, 17226.00
1121.689, 16776.00
1122.784, 16392.00
1123.879, 16195.00
1124.974, 16030.00
1126.069, 15715.00
1127.164, 15498.00
1128.259, 15152.00
1129.353, 14983.00
1130.447, 14769.00
1131.541, 14661.00
1132.635, 14492.00
1133.729, 14522.00
1134.822, 14439.00
1135.916, 14310.00
1137.009, 14424.00
1138.102, 14353.00
1139.195, 14272.00
1140.288, 14487.00
1141.380, 14373.00
1142.473, 14388.00
1143.565, 14245.00
1144.657, 14326.00
1145.749, 14624.00
1146.841, 14593.00
1147.932, 14769.00
1149.024, 14810.00
1150.115, 14824.00
1151.206, 15019.00
1152.297, 14989.00
1153.388, 14965.20
1154.479, 14950.00
1155.569, 14806.00
1156.659, 14670.00
1157.750, 14563.00
1158.839, 14445.00
1159.929, 14382.00
1161.019, 14178.00
1162.108, 14261.00
1163.198, 14313.00
1164.287, 14325.00
1165.376, 14133.00
1166.465, 14213.00
1167.553, 14011.00
1168.642, 14148.00
1169.730, 14128.00
1170.818, 14021.00
1171.906, 13989.00
1172.994, 14044.00
1174.082, 14067.00
1175.170, 14143.00
1176.257, 14149.00
1177.344, 14043.00
1178.431, 14073.00
1179.518, 14196.00
1180.605, 14027.00
1181.691, 14088.00
1182.778, 14141.00
1183.864, 14008.00
1184.950, 14029.00
1186.036, 14169.00
1187.122, 14159.00
1188.207, 14054.00
1189.292, 14103.00
1190.378, 14153.00
1191.463, 14103.00
1192.548, 14108.00
1193.632, 14108.59
1194.717, 14079.00
1195.801, 14067.00
1196.886, 14028.00
1197.970, 13941.00
1199.054, 14139.00
1200.137, 14124.00
1201.221, 14076.00
1202.305, 14066.00
1203.388, 14041.00
1204.471, 14051.28
1205.554, 14057.37
1206.637, 14075.00
1207.719, 14105.00
1208.802, 14083.00
1209.884, 14128.00
1210.966, 14113.00
1212.048, 14230.00
1213.130, 14135.00
1214.212, 14105.00
1215.293, 14219.00
1216.374, 14209.00
1217.456, 14254.00
1218.536, 14258.57
1219.617, 14225.40
1220.698, 14226.00
1221.778, 14172.00
1222.859, 14145.00
1223.939, 14175.00
1225.019, 14421.00
1226.099, 14352.00
1227.178, 14424.00
1228.258, 14326.00
1229.337, 14382.00
1230.417, 14254.00
1231.496, 14307.00
1232.574, 14316.00
1233.653, 14348.00
1234.732, 14350.45
1235.810, 14355.05
1236.888, 14370.00
1237.966, 14374.74
1239.044, 14410.00
1240.122, 14388.00
1241.199, 14419.00
1242.277, 14416.00
1243.354, 14333.00
1244.431, 14322.00
1245.508, 14440.00
1246.585, 14521.00
1247.661, 14461.00
1248.738, 14272.00
1249.814, 14488.00
1250.890, 14448.00
1251.966, 14553.00
1253.042, 14683.00
1254.117, 14421.00
1255.193, 14605.00
1256.268, 14596.00
1257.343, 14521.00
1258.418, 14685.00
1259.493, 14655.00
1260.567, 14583.00
1261.642, 14638.00
1262.716, 14712.00
1263.790, 14639.00
1264.864, 14683.00
1265.938, 14708.00
1267.011, 14797.00
1268.085, 14790.00
1269.158, 14705.00
1270.231, 14748.00
1271.304, 14747.00
1272.377, 14733.00
1273.450, 14767.00
1274.522, 14774.00
1275.594, 14744.00
1276.666, 14795.00
1277.738, 14806.00
1278.810, 14752.00
1279.882, 14857.00
1280.953, 15007.00
1282.025, 14721.00
1283.096, 14864.00
1284.167, 14745.00
1285.238, 14824.00
1286.308, 14854.00
1287.379, 15066.00
1288.449, 14796.00
1289.519, 14817.00
1290.589, 14829.00
1291.659, 15012.00
1292.729, 14896.00
1293.798, 15008.00
1294.868, 14872.00
1295.937, 14916.13
1297.006, 15025.00
1298.075, 14939.00
1299.143, 15069.00
1300.212, 15054.00
1301.280, 15039.00
1302.348, 14849.00
1303.416, 15048.00
1304.484, 15088.00
1305.552, 14987.00
1306.620, 15151.00
1307.687, 15104.00
1308.754, 15132.00
1309.821, 15161.00
1310.888, 15125.00
1311.955, 15282.00
1313.021, 15306.00
1314.088, 15170.00
1315.154, 15036.00
1316.220, 15322.00
1317.286, 15122.00
1318.352, 15400.00
1319.417, 15115.00
1320.483, 15281.00
1321.548, 15128.00
1322.613, 15379.00
1323.678, 15205.00
1324.743, 15390.00
1325.807, 15256.00
1326.872, 15204.00
1327.936, 15305.00
1329.000, 15408.00
1330.064, 15355.00
1331.128, 15240.00
1332.191, 15246.00
1333.255, 15230.00
1334.318, 15335.00
1335.381, 15258.00
1336.444, 15381.00
1337.507, 15346.00
1338.569, 15238.00
1339.632, 15478.00
1340.694, 15211.00
1341.756, 15251.00
1342.818, 15322.00
1343.880, 15214.00
1344.941, 15301.00
1346.003, 15336.00
1347.064, 15386.00
1348.125, 15247.00
1349.186, 15474.00
1350.247, 15326.00
1351.308, 15410.00
1352.368, 15493.00
1353.428, 15400.00
1354.489, 15412.00
1355.549, 15364.00
1356.608, 15332.00
1357.668, 15395.00
1358.727, 15451.00
1359.787, 15365.00
1360.846, 15347.00
1361.905, 15524.00
1362.964, 15631.00
1364.022, 15310.00
1365.081, 15453.00
1366.139, 15375.00
1367.197, 15528.00
1368.255, 15463.00
1369.313, 15389.00
1370.371, 15394.00
1371.428, 15363.00
1372.486, 15368.42
1373.543, 15430.00
1374.600, 15415.00
1375.657, 15471.00
1376.713, 15518.00
1377.770, 15573.00
1378.826, 15584.00
1379.882, 15554.00
1380.938, 15670.00
1381.994, 15501.00
1383.050, 15459.00
1384.106, 15500.00
1385.161, 15649.00
1386.216, 15482.00
1387.271, 15519.00
1388.326, 15607.00
1389.381, 15528.00
1390.435, 15478.00
1391.490, 15386.00
1392.544, 15583.00
1393.598, 15562.00
1394.652, 15582.00
1395.705, 15353.00
1396.759, 15699.00
1397.812, 15463.00
1398.866, 15636.00
1399.919, 15585.00
1400.972, 15649.00
1402.024, 15699.00
1403.077, 15699.28
1404.129, 15754.00
1405.181, 15720.00
1406.233, 15638.00
1407.285, 15575.00
1408.337, 15587.00
1409.389, 15536.00
1410.440, 15606.00
1411.491, 15559.00
1412.542, 15619.00
1413.593, 15588.00
1414.644, 15469.00
1415.695, 15570.00
1416.745, 15637.00
1417.795, 15504.00
1418.845, 15705.00
1419.895, 15694.00
1420.945, 15759.00
1421.995, 15703.00
1423.044, 15658.00
1424.093, 15754.00
1425.142, 15639.00
1426.191, 15774.00
1427.240, 15702.00
1428.289, 15857.00
1429.337, 15860.00
1430.385, 15772.00
1431.433, 15814.00
1432.481, 15764.00
1433.529, 15787.00
1434.577, 15943.00
1435.624, 15774.00
1436.672, 15846.00
1437.719, 16039.00
1438.766, 15980.00
1439.812, 16030.48
1440.859, 15888.00
1441.905, 16022.00
1442.952, 15939.00
1443.998, 15999.00
1445.044, 16039.00
1446.090, 15941.00
1447.135, 16064.00
1448.181, 15952.00
1449.226, 15939.00
1450.271, 16281.00
1451.316, 16063.00
1452.361, 16125.00
1453.405, 16013.00
1454.450, 16196.00
1455.494, 15940.00
1456.538, 16194.00
1457.582, 16139.00
1458.626, 16046.00
1459.670, 16187.00
1460.713, 16238.00
1461.757, 16202.00
1462.800, 16138.00
1463.843, 16016.00
1464.886, 16077.00
1465.928, 16138.00
1466.971, 15974.00
1468.013, 16040.00
1469.055, 16181.00
1470.097, 16108.00
1471.139, 16210.00
1472.181, 16309.00
1473.222, 16156.00
1474.263, 16097.00
1475.305, 16101.00
1476.346, 16153.00
1477.386, 16079.00
1478.427, 16059.00
1479.468, 16264.00
1480.508, 16144.00
1481.548, 16130.00
1482.588, 16346.00
1483.628, 16116.00
1484.668, 16254.00
1485.707, 16123.00
1486.747, 16216.00
1487.786, 16252.00
1488.825, 16227.00
1489.864, 16093.00
1490.902, 16166.00
1491.941, 16206.00
1492.979, 16015.00
1494.017, 16294.00
1495.055, 16370.00
1496.093, 16366.00
1497.131, 16227.00
1498.168, 16231.00
1499.206, 16278.00
1500.243, 16275.00
1501.280, 16312.00
1502.317, 16370.00
1503.354, 16352.00
1504.390, 16325.00
1505.426, 16475.00
1506.463, 16202.00
1507.499, 16209.00
1508.535, 16441.00
1509.570, 16375.00
1510.606, 16456.00
1511.641, 16370.00
1512.676, 16389.00
1513.711, 16385.00
1514.746, 16330.00
1515.781, 16444.00
1516.816, 16422.00
1517.850, 16600.00
1518.884, 16274.00
1519.918, 16481.00
1520.952, 16324.00
1521.986, 16507.00
1523.019, 16659.00
1524.053, 16687.00
1525.086, 16568.00
1526.119, 16462.00
1527.152, 16511.00
1528.185, 16449.00
1529.217, 16673.00
1530.250, 16536.00
1531.282, 16463.00
1532.314, 16725.00
1533.346, 16600.00
1534.377, 16633.00
1535.409, 16603.00
1536.440, 16662.00
1537.472, 16714.00
1538.503, 16722.00
1539.534, 16596.00
1540.564, 16665.00
1541.595, 16578.00
1542.625, 16805.00
1543.656, 16817.00
1544.686, 16604.00
1545.716, 16496.00
1546.745, 16759.00
1547.775, 16658.00
1548.804, 16888.00
1549.834, 16749.00
1550.863, 16878.00
1551.892, 16918.00
1552.920, 16834.00
1553.949, 16921.00
1554.977, 16961.00
1556.006, 17121.00
1557.034, 16917.00
1558.062, 16891.00
1559.089, 16767.00
1560.117, 17047.00
1561.144, 17053.00
1562.172, 17009.00
1563.199, 17108.00
1564.226, 17098.00
1565.252, 17110.00
1566.279, 16956.00
1567.305, 17031.00
1568.332, 17130.00
1569.358, 17021.00
1570.384, 17127.00
##END=



