##NAMES=Albite
##RRUFFID=R040129
##IDEAL CHEMISTRY=NaAlSi_3_O_8_
##LOCALITY=LaChance Quarry, Brunswick, Cumberland County, Maine, USA
##OWNER=RRUFF
##SOURCE=Bob Downs
##DESCRIPTION=Colorless fragment of a tabular single crystal
##STATUS=The identification of this mineral has been confirmed by X-ray diffraction and chemical analysis
##URL=rruff.info/R040129
##MEASURED CHEMISTRY=(Na_0.99_K_0.01_)Al_1.00_Si_3.00_O_8_
##PIN_ID=L00382
##ORIENTATION=Laser parallel to b* (0 1 0). Fiducial mark perpendicular to laser is parallel to c [0 0 1]
124.519, 6925.000
125.910, 6834.000
127.300, 6914.000
128.690, 6848.000
130.080, 6924.000
131.469, 6782.000
132.858, 7003.000
134.248, 6991.000
135.636, 7016.000
137.025, 7274.000
138.413, 7377.000
139.801, 7686.000
141.189, 7875.000
142.577, 8466.000
143.964, 9057.000
145.352, 9406.000
146.739, 9644.000
148.125, 9149.000
149.512, 9198.000
150.898, 9109.000
152.284, 9257.000
153.670, 9351.000
155.056, 9656.000
156.441, 10460.000
157.827, 11280.000
159.212, 13130.000
160.596, 13910.000
161.981, 14650.000
163.365, 14130.000
164.749, 12490.000
166.133, 11650.000
167.517, 10760.000
168.900, 10890.000
170.283, 10700.000
171.666, 10530.000
173.049, 10420.000
174.431, 10090.000
175.813, 10510.000
177.195, 10520.000
178.577, 11180.000
179.959, 11580.000
181.340, 12390.000
182.721, 13180.000
184.102, 13240.000
185.483, 13900.000
186.863, 13090.000
188.244, 12710.000
189.624, 11580.000
191.003, 10710.000
192.383, 10110.000
193.762, 9466.000
195.141, 9328.000
196.520, 8960.000
197.899, 8875.000
199.277, 8749.000
200.656, 8771.000
202.034, 9004.000
203.411, 9159.000
204.789, 10140.000
206.166, 10730.000
207.543, 11690.000
208.920, 11930.000
210.297, 11320.000
211.673, 10480.000
213.049, 9220.000
214.425, 8594.000
215.801, 8056.000
217.176, 7740.000
218.552, 7531.000
219.927, 7309.000
221.302, 7371.000
222.676, 7060.000
224.051, 7173.000
225.425, 7119.000
226.799, 7026.000
228.173, 7035.000
229.546, 7091.000
230.919, 7127.000
232.292, 6944.000
233.665, 7106.000
235.038, 7007.000
236.410, 7062.000
237.782, 7221.000
239.154, 7161.000
240.526, 7321.000
241.898, 7323.000
243.269, 7569.000
244.640, 7664.000
246.011, 8030.000
247.381, 8614.000
248.752, 9226.000
250.122, 10500.000
251.492, 10770.000
252.861, 10680.000
254.231, 9660.000
255.600, 8800.000
256.969, 8432.000
258.338, 7976.000
259.707, 8002.000
261.075, 7896.000
262.443, 8107.000
263.811, 8432.000
265.179, 8758.000
266.546, 9397.000
267.914, 9739.000
269.281, 10280.000
270.647, 10160.000
272.014, 9843.000
273.380, 9550.000
274.747, 9174.000
276.113, 9171.000
277.478, 9083.000
278.844, 9483.000
280.209, 9736.000
281.574, 10330.000
282.939, 11560.000
284.304, 12610.000
285.668, 15350.000
287.032, 18000.000
288.396, 21980.000
289.760, 25070.000
291.123, 24510.000
292.487, 23300.000
293.850, 18280.000
295.212, 15760.000
296.575, 13100.000
297.937, 11450.000
299.300, 10560.000
300.662, 9596.000
302.023, 9472.000
303.385, 8893.000
304.746, 8835.000
306.107, 8713.000
307.468, 8494.000
308.829, 8663.000
310.189, 8488.000
311.549, 8566.000
312.909, 8358.000
314.269, 8192.000
315.629, 8286.000
316.988, 8138.000
318.347, 8246.000
319.706, 8159.000
321.065, 8428.000
322.423, 8606.000
323.781, 8958.000
325.139, 9829.000
326.497, 10720.000
327.855, 12260.000
329.212, 12020.000
330.569, 11190.000
331.926, 10200.000
333.283, 9161.000
334.639, 8887.000
335.995, 8422.000
337.351, 8344.000
338.707, 8212.000
340.063, 8112.000
341.418, 8173.000
342.773, 7974.000
344.128, 8100.000
345.483, 8104.000
346.837, 8135.000
348.192, 8170.000
349.546, 8025.000
350.899, 8222.000
352.253, 8005.000
353.606, 8064.000
354.960, 8035.000
356.313, 8021.000
357.665, 8077.000
359.018, 8032.204
360.370, 8009.000
361.722, 8015.000
363.074, 8000.000
364.426, 8031.000
365.777, 7924.000
367.128, 8055.000
368.479, 8014.000
369.830, 8089.000
371.181, 7954.000
372.531, 7885.000
373.881, 8121.000
375.231, 7964.000
376.581, 8149.000
377.930, 8051.000
379.280, 8039.000
380.629, 8102.000
381.977, 7988.000
383.326, 8129.000
384.674, 8089.000
386.023, 8256.000
387.370, 8184.000
388.718, 8235.000
390.066, 8368.000
391.413, 8271.000
392.760, 8469.000
394.107, 8448.000
395.454, 8675.000
396.800, 8920.000
398.146, 8926.000
399.492, 9254.000
400.838, 8927.000
402.184, 9000.000
403.529, 9181.000
404.874, 9463.000
406.219, 10420.000
407.564, 10540.000
408.908, 10580.000
410.252, 9757.000
411.596, 9385.000
412.940, 9384.000
414.284, 9368.000
415.627, 9940.000
416.970, 9707.000
418.313, 9433.000
419.656, 9100.000
420.999, 8782.000
422.341, 8812.000
423.683, 8617.000
425.025, 8674.000
426.367, 8568.000
427.708, 8572.000
429.049, 8674.000
430.390, 8618.000
431.731, 8770.000
433.072, 8600.000
434.412, 8633.000
435.752, 8740.000
437.092, 8661.000
438.432, 8893.000
439.772, 8644.000
441.111, 8953.000
442.450, 8885.000
443.789, 8818.000
445.127, 8992.000
446.466, 8819.000
447.804, 9039.000
449.142, 9011.000
450.480, 9003.000
451.817, 9285.000
453.155, 9232.000
454.492, 9554.000
455.829, 9592.000
457.166, 9645.000
458.502, 9896.000
459.838, 9708.000
461.175, 9933.000
462.510, 9804.000
463.846, 10080.000
465.181, 10330.000
466.517, 10460.000
467.852, 11200.000
469.186, 11350.000
470.521, 12550.000
471.855, 13410.000
473.190, 15270.000
474.523, 18300.000
475.857, 21590.000
477.191, 27080.000
478.524, 28840.000
479.857, 27910.000
481.190, 24470.000
482.523, 19590.000
483.855, 17290.000
485.187, 14600.000
486.519, 13850.000
487.851, 12790.000
489.183, 12110.000
490.514, 12210.000
491.845, 11720.000
493.176, 12130.000
494.507, 12100.000
495.837, 12350.000
497.168, 13500.000
498.498, 13850.000
499.828, 15830.000
501.157, 17600.000
502.487, 21340.000
503.816, 27100.000
505.145, 32410.000
506.474, 40340.000
507.802, 38650.000
509.131, 35300.000
510.459, 29880.000
511.787, 22760.000
513.115, 20100.000
514.442, 16700.000
515.770, 15170.000
517.097, 14120.000
518.424, 12840.000
519.750, 12720.000
521.077, 11890.000
522.403, 11800.000
523.729, 11500.000
525.055, 11020.000
526.381, 11220.000
527.706, 10850.000
529.031, 10920.000
530.356, 10590.000
531.681, 10580.000
533.006, 10590.000
534.330, 10440.000
535.654, 10480.000
536.978, 10380.000
538.302, 10370.000
539.625, 10550.000
540.949, 10180.000
542.272, 10400.000
543.595, 10140.000
544.917, 10320.000
546.240, 10300.000
547.562, 10090.000
548.884, 10440.000
550.206, 10200.000
551.527, 10270.000
552.849, 10170.000
554.170, 9993.000
555.491, 10280.000
556.812, 10200.000
558.132, 10180.000
559.453, 10300.000
560.773, 10100.000
562.093, 10440.000
563.412, 10230.000
564.732, 10300.000
566.051, 10250.000
567.370, 10270.000
568.689, 10420.000
570.008, 10340.000
571.326, 10460.000
572.644, 10490.000
573.963, 10560.000
575.280, 10800.000
576.598, 10760.000
577.915, 10890.000
579.233, 10950.000
580.550, 10840.000
581.866, 10880.000
583.183, 10620.000
584.499, 10710.000
585.815, 10540.000
587.131, 10520.000
588.447, 10510.000
589.763, 10380.000
591.078, 10520.000
592.393, 10300.000
593.708, 10460.000
595.022, 10680.000
596.337, 10420.000
597.651, 10630.000
598.965, 10410.000
600.279, 10510.000
601.593, 10670.000
602.906, 10500.000
604.219, 10670.000
605.532, 10450.000
606.845, 10720.000
608.158, 10670.000
609.470, 10470.000
610.782, 10820.000
612.094, 10600.000
613.406, 10740.000
614.718, 10760.000
616.029, 10760.000
617.340, 10910.000
618.651, 10660.000
619.962, 10930.000
621.272, 10870.000
622.582, 10740.000
623.892, 11070.000
625.202, 10860.000
626.512, 11230.000
627.821, 11170.000
629.131, 11290.000
630.440, 11580.000
631.749, 11330.000
633.057, 11720.000
634.366, 11490.000
635.674, 11570.000
636.982, 11590.000
638.290, 11260.000
639.597, 11520.000
640.905, 11560.000
642.212, 11460.000
643.519, 11880.000
644.825, 11700.000
646.132, 12000.000
647.438, 11860.000
648.744, 11790.000
650.050, 11760.000
651.356, 11320.000
652.662, 11660.000
653.967, 11250.000
655.272, 11360.000
656.577, 11400.000
657.882, 11160.000
659.186, 11370.000
660.490, 11300.000
661.794, 11110.000
663.098, 11360.000
664.402, 11160.000
665.705, 11470.000
667.009, 11160.000
668.312, 11280.000
669.614, 11470.000
670.917, 11200.000
672.219, 11390.000
673.522, 11250.000
674.824, 11430.000
676.125, 11420.000
677.427, 11220.000
678.728, 11550.000
680.030, 11460.000
681.331, 11410.000
682.631, 11510.000
683.932, 11380.000
685.232, 11560.000
686.532, 11490.000
687.832, 11480.000
689.132, 11490.000
690.432, 11420.000
691.731, 11630.000
693.030, 11510.000
694.329, 11500.000
695.628, 11680.000
696.926, 11400.000
698.224, 11800.000
699.522, 11520.000
700.820, 11650.000
702.118, 11720.000
703.415, 11600.000
704.713, 11840.000
706.010, 11700.000
707.307, 11630.000
708.603, 11820.000
709.900, 11690.000
711.196, 11920.000
712.492, 11830.000
713.788, 11750.000
715.083, 12100.000
716.379, 11850.000
717.674, 12100.000
718.969, 12090.000
720.264, 12000.000
721.558, 12310.000
722.853, 11960.000
724.147, 12200.000
725.441, 11940.000
726.735, 11980.000
728.028, 12250.000
729.322, 11970.000
730.615, 12250.000
731.908, 12170.000
733.201, 11980.000
734.493, 12510.000
735.785, 12060.000
737.078, 12280.000
738.370, 12270.000
739.661, 12240.000
740.953, 12430.000
742.244, 12160.000
743.535, 12520.000
744.826, 12410.000
746.117, 12350.000
747.407, 12560.000
748.698, 12440.000
749.988, 12650.000
751.278, 12580.000
752.567, 12710.000
753.857, 12960.000
755.146, 12870.000
756.435, 13320.000
757.724, 13620.000
759.013, 13720.000
760.301, 14560.000
761.590, 14600.000
762.878, 15380.000
764.165, 15130.000
765.453, 14460.000
766.741, 14420.000
768.028, 13800.000
769.315, 13580.000
770.602, 13610.000
771.888, 13550.000
773.175, 13540.577
774.461, 13500.194
775.747, 13430.000
777.033, 13520.000
778.319, 13080.000
779.604, 13310.000
780.889, 13030.000
782.174, 13020.000
783.459, 13180.000
784.744, 12840.000
786.028, 13180.000
787.312, 12990.000
788.596, 13020.000
789.880, 13110.000
791.164, 12800.000
792.447, 13190.000
793.730, 13060.000
795.013, 12990.000
796.296, 13240.000
797.579, 13070.000
798.861, 13250.000
800.143, 13070.000
801.425, 13150.000
802.707, 13300.000
803.989, 13240.000
805.270, 13290.000
806.551, 13390.000
807.832, 13390.000
809.113, 13840.000
810.394, 13770.000
811.674, 14220.000
812.954, 14370.000
814.234, 14590.000
815.514, 14800.000
816.794, 14410.000
818.073, 14400.000
819.352, 14180.000
820.631, 13570.000
821.910, 13860.000
823.189, 13540.000
824.467, 13560.000
825.745, 13770.000
827.023, 13380.000
828.301, 13640.000
829.578, 13550.000
830.856, 13620.000
832.133, 13700.000
833.410, 13450.000
834.687, 13730.000
835.963, 13650.000
837.240, 13550.000
838.516, 13870.000
839.792, 13510.000
841.068, 13760.000
842.343, 13590.000
843.618, 13560.000
844.894, 13870.000
846.169, 13580.000
847.443, 13730.000
848.718, 13730.000
849.992, 13510.000
851.266, 13950.000
852.540, 13650.000
853.814, 13820.000
855.088, 13800.000
856.361, 13460.000
857.634, 13930.000
858.907, 13710.000
860.180, 14010.000
861.453, 14110.000
862.725, 13490.000
863.997, 13990.000
865.269, 13970.000
866.541, 13790.000
867.812, 14110.000
869.084, 13840.000
870.355, 14110.000
871.626, 14080.000
872.897, 13910.000
874.167, 14300.000
875.438, 13950.000
876.708, 14170.000
877.978, 14180.000
879.248, 13910.000
880.517, 14340.000
881.787, 13940.000
883.056, 14170.000
884.325, 14280.000
885.594, 14100.000
886.862, 14320.000
888.130, 14210.000
889.399, 14250.000
890.667, 14440.000
891.934, 14170.000
893.202, 14470.000
894.469, 14360.000
895.737, 14220.000
897.004, 14560.000
898.270, 14230.000
899.537, 14490.000
900.803, 14580.000
902.070, 14420.000
903.336, 14720.000
904.601, 14600.000
905.867, 14400.000
907.132, 14660.000
908.398, 14370.000
909.663, 14850.000
910.928, 14640.000
912.192, 14600.000
913.457, 14830.000
914.721, 14530.000
915.985, 14920.000
917.249, 14650.000
918.512, 14530.000
919.776, 14860.000
921.039, 14570.000
922.302, 14990.000
923.565, 14760.000
924.827, 14740.000
926.090, 15070.000
927.352, 14770.000
928.614, 14850.000
929.876, 15140.000
931.138, 14680.000
932.399, 15120.000
933.660, 14850.000
934.922, 14980.000
936.182, 15080.000
937.443, 14780.000
938.704, 15060.000
939.964, 15000.000
941.224, 15000.000
942.484, 15240.000
943.744, 14920.000
945.003, 15240.000
946.262, 15230.000
947.521, 15070.000
948.780, 15570.000
950.039, 15360.000
951.298, 15130.000
952.556, 15520.000
953.814, 15140.000
955.072, 15540.000
956.330, 15250.000
957.587, 15290.000
958.845, 15640.000
960.102, 15200.000
961.359, 15560.000
962.615, 15620.000
963.872, 15230.000
965.128, 15730.000
966.384, 15190.000
967.640, 15580.000
968.896, 15780.000
970.152, 15170.000
971.407, 16030.000
972.662, 15690.000
973.917, 16010.000
975.172, 16020.000
976.427, 15790.000
977.681, 16270.000
978.935, 16070.000
980.189, 15810.000
981.443, 16230.000
982.697, 15810.000
983.950, 15680.000
985.203, 16150.000
986.456, 15560.000
987.709, 16010.000
988.962, 15710.000
990.214, 15720.000
991.467, 16000.000
992.719, 15560.000
993.971, 15930.000
995.222, 15920.000
996.474, 15700.000
997.725, 16160.000
998.976, 15790.000
1000.227, 16070.000
1001.478, 16280.000
1002.728, 16050.000
1003.978, 16720.000
1005.229, 16320.000
1006.479, 16500.000
1007.728, 16750.000
1008.978, 16220.000
1010.227, 16760.000
1011.476, 16730.000
1012.725, 16510.000
1013.974, 17080.000
1015.223, 16580.000
1016.471, 16840.000
1017.719, 16740.000
1018.967, 16550.000
1020.215, 16960.000
1021.462, 16610.000
1022.710, 16770.000
1023.957, 17260.000
1025.204, 16800.000
1026.451, 17440.000
1027.697, 17350.000
1028.944, 17470.000
1030.190, 18180.000
1031.436, 17780.000
1032.682, 18070.000
1033.928, 18170.000
1035.173, 17420.000
1036.418, 17750.000
1037.663, 17110.000
1038.908, 17070.000
1040.153, 17310.000
1041.398, 16920.000
1042.642, 17180.000
1043.886, 17070.000
1045.130, 16740.000
1046.374, 17330.000
1047.617, 16820.000
1048.860, 17070.000
1050.104, 17160.000
1051.347, 16680.000
1052.589, 17090.000
1053.832, 16760.000
1055.074, 16650.000
1056.316, 17250.000
1057.558, 16680.000
1058.800, 16710.000
1060.042, 17100.000
1061.283, 16650.000
1062.524, 17160.000
1063.765, 16970.000
1065.006, 16940.000
1066.247, 17450.000
1067.487, 16670.000
1068.728, 17280.000
1069.968, 17200.000
1071.208, 17120.000
1072.447, 17490.000
1073.687, 17040.000
1074.926, 17340.000
1076.165, 17680.000
1077.404, 17140.000
1078.643, 17690.000
1079.881, 17570.000
1081.120, 17460.000
1082.358, 18000.000
1083.596, 17550.000
1084.834, 18000.000
1086.071, 18260.000
1087.309, 17970.000
1088.546, 18870.000
1089.783, 18510.000
1091.020, 19030.000
1092.256, 19760.000
1093.493, 19740.000
1094.729, 21100.000
1095.965, 21480.000
1097.201, 21620.000
1098.436, 22650.000
1099.672, 21860.000
1100.907, 22000.000
1102.142, 22020.000
1103.377, 20630.000
1104.612, 21060.000
1105.846, 20410.000
1107.081, 19930.000
1108.315, 20320.000
1109.549, 19570.000
1110.782, 19740.000
1112.016, 19850.000
1113.249, 19440.000
1114.483, 19940.000
1115.716, 19610.000
1116.948, 19250.000
1118.181, 19690.000
1119.413, 18960.000
1120.646, 19070.000
1121.878, 18770.000
1123.110, 18250.000
1124.341, 18930.000
1125.573, 18170.000
1126.804, 17860.000
1128.035, 18490.000
1129.266, 17740.000
1130.497, 18240.000
1131.727, 18020.000
1132.957, 17590.000
1134.188, 18130.000
1135.418, 17820.000
1136.647, 17790.000
1137.877, 18230.000
1139.106, 17560.000
1140.335, 18110.000
1141.564, 17990.000
1142.793, 17520.000
1144.022, 18460.000
1145.250, 17600.000
1146.479, 18010.000
1147.707, 18240.000
1148.934, 17520.000
1150.162, 18260.000
1151.390, 18150.000
1152.617, 17890.000
1153.844, 18330.000
1155.071, 17900.000
1156.298, 18170.000
1157.524, 18450.000
1158.751, 17560.000
1159.977, 18090.000
1161.203, 18310.000
1162.428, 17740.000
1163.654, 18310.000
1164.879, 17740.000
1166.105, 18020.000
1167.330, 18220.000
1168.555, 17690.000
1169.779, 18270.000
1171.004, 18110.000
1172.228, 17660.000
1173.452, 18470.000
1174.676, 17900.000
1175.900, 18170.000
1177.123, 18330.000
1178.346, 17870.000
1179.570, 18430.000
1180.793, 18230.000
1182.015, 18030.000
1183.238, 18510.000
1184.460, 17910.000
1185.683, 18220.000
1186.905, 18330.000
1188.126, 18030.000
1189.348, 18580.000
1190.569, 18130.000
1191.791, 18010.000
1193.012, 18530.000
1194.233, 18060.000
1195.453, 18270.000
1196.674, 18370.000
1197.894, 18200.000
1199.114, 18670.000
1200.334, 18290.000
1201.554, 18190.000
1202.774, 18900.000
##END=



