##NAMES=Albite
##RRUFFID=R050253
##IDEAL CHEMISTRY=NaAlSi_3_O_8_
##LOCALITY=Madawaska/Faraday mine, Bancroft, Ontario, Canada
##OWNER=RRUFF
##SOURCE=Marcus Origlieri
##DESCRIPTION=Colorless to brown prismatic single crystals
##STATUS=The identification of this mineral has been confirmed by X-ray diffraction and chemical analysis
##URL=rruff.info/R050253
##MEASURED CHEMISTRY=(Na_0.99_Ca_0.01_)Al_1.00_(Si_0.99_Al_0.01_)_3_O_8_
##PIN_ID=L01416
##ORIENTATION=Laser parallel to b* (0 1 0). Fiducial mark perpendicular to laser is parallel to c [0 0 1]
77.42300, 3726.000
78.65900, 4038.000
79.89500, 4409.000
81.13100, 4845.000
82.36700, 5072.000
83.60200, 5767.000
84.83700, 6406.000
86.07200, 6604.000
87.30800, 7045.000
88.54200, 7487.000
89.77700, 7597.000
91.01200, 7221.000
92.24600, 6590.000
93.48000, 5667.000
94.71400, 5105.000
95.94800, 4961.000
97.18200, 4630.000
98.41600, 4525.000
99.64900, 4565.000
100.8830, 4607.000
102.1160, 4566.000
103.3490, 4727.000
104.5820, 4903.000
105.8150, 5148.000
107.0470, 5441.000
108.2800, 5766.000
109.5120, 6151.000
110.7440, 6177.000
111.9760, 5655.000
113.2080, 5473.000
114.4400, 5522.000
115.6710, 5642.000
116.9030, 5742.000
118.1340, 5533.000
119.3650, 5499.000
120.5960, 5261.000
121.8270, 5433.000
123.0580, 5449.000
124.2880, 5640.000
125.5190, 5497.000
126.7490, 5574.000
127.9790, 5844.000
129.2090, 6040.000
130.4390, 6359.000
131.6680, 6798.000
132.8980, 7119.000
134.1270, 7578.000
135.3560, 8277.000
136.5850, 8844.000
137.8140, 9630.000
139.0430, 10338.00
140.2710, 11287.00
141.5000, 12105.00
142.7280, 12899.00
143.9560, 13757.00
145.1840, 14263.00
146.4120, 14762.00
147.6390, 15570.00
148.8670, 16607.00
150.0940, 17601.00
151.3210, 18833.00
152.5490, 19412.00
153.7750, 20006.00
155.0020, 19155.00
156.2290, 17842.00
157.4550, 16314.00
158.6810, 15610.00
159.9080, 15312.00
161.1340, 15442.00
162.3590, 15823.00
163.5850, 16028.00
164.8110, 16156.00
166.0360, 15720.00
167.2610, 15033.00
168.4860, 14304.00
169.7110, 13727.00
170.9360, 13388.00
172.1610, 13628.00
173.3850, 13826.00
174.6100, 14303.00
175.8340, 15026.00
177.0580, 15520.00
178.2820, 16165.00
179.5050, 16892.00
180.7290, 17527.00
181.9520, 18411.00
183.1760, 19047.00
184.3990, 19848.00
185.6220, 20152.00
186.8450, 20360.00
188.0670, 20184.00
189.2900, 19710.00
190.5120, 18460.00
191.7340, 17327.00
192.9560, 16070.00
194.1780, 14776.00
195.4000, 13742.00
196.6220, 13025.00
197.8430, 12684.00
199.0640, 12785.00
200.2860, 12901.00
201.5070, 13256.00
202.7270, 13309.71
203.9480, 13703.00
205.1690, 13667.00
206.3890, 14218.00
207.6090, 14600.00
208.8290, 15167.00
210.0490, 15737.00
211.2690, 15763.00
212.4890, 15069.00
213.7080, 13758.00
214.9280, 12195.00
216.1470, 10428.00
217.3660, 9281.000
218.5850, 8140.000
219.8030, 7452.000
221.0220, 6871.000
222.2400, 6575.000
223.4590, 6261.000
224.6770, 6122.000
225.8950, 5917.000
227.1120, 5851.000
228.3300, 5701.000
229.5480, 5527.000
230.7650, 5498.000
231.9820, 5537.000
233.1990, 5497.000
234.4160, 5526.719
235.6330, 5556.917
236.8490, 5594.000
238.0660, 5621.000
239.2820, 5705.000
240.4980, 5713.000
241.7140, 5996.000
242.9300, 6195.000
244.1460, 6545.000
245.3610, 6579.000
246.5770, 6809.000
247.7920, 6916.000
249.0070, 7159.000
250.2220, 7451.000
251.4370, 7714.000
252.6510, 7949.000
253.8660, 8160.000
255.0800, 8148.000
256.2940, 8024.000
257.5080, 7747.000
258.7220, 7778.000
259.9360, 8123.000
261.1490, 8322.000
262.3630, 8428.000
263.5760, 8470.000
264.7890, 8847.000
266.0020, 9039.000
267.2150, 9541.000
268.4270, 10009.00
269.6400, 10379.00
270.8520, 10636.00
272.0640, 10670.00
273.2760, 10480.00
274.4880, 10150.00
275.7000, 9892.000
276.9120, 9711.000
278.1230, 9780.000
279.3340, 10307.00
280.5450, 11007.00
281.7560, 12024.00
282.9670, 13313.00
284.1780, 14399.00
285.3880, 15456.00
286.5980, 16395.00
287.8090, 17587.00
289.0190, 18983.00
290.2290, 20180.00
291.4380, 21077.00
292.6480, 21042.00
293.8570, 20103.00
295.0670, 18361.00
296.2760, 16302.00
297.4850, 13821.00
298.6930, 11902.00
299.9020, 10460.00
301.1110, 9288.000
302.3190, 8515.000
303.5270, 7933.000
304.7350, 7500.000
305.9430, 7300.000
307.1510, 7145.000
308.3580, 6913.000
309.5660, 6765.000
310.7730, 6681.000
311.9800, 6632.000
313.1870, 6586.000
314.3940, 6525.000
315.6010, 6429.000
316.8070, 6443.000
318.0130, 6485.000
319.2200, 6656.000
320.4260, 6845.000
321.6310, 7091.000
322.8370, 7287.000
324.0430, 7383.000
325.2480, 7592.000
326.4540, 7900.000
327.6590, 8354.000
328.8640, 8699.000
330.0680, 8886.000
331.2730, 8849.000
332.4780, 8428.000
333.6820, 7834.000
334.8860, 7366.000
336.0900, 6821.000
337.2940, 6443.000
338.4980, 6230.000
339.7010, 6117.000
340.9050, 5972.000
342.1080, 5899.000
343.3110, 5867.000
344.5140, 5805.000
345.7170, 5812.000
346.9200, 5826.000
348.1220, 5860.000
349.3240, 5889.000
350.5270, 5790.000
351.7290, 5745.000
352.9310, 5638.000
354.1320, 5598.000
355.3340, 5465.000
356.5350, 5532.000
357.7370, 5466.000
358.9380, 5504.000
360.1390, 5436.000
361.3400, 5452.000
362.5400, 5379.000
363.7410, 5359.000
364.9410, 5359.000
366.1410, 5412.000
367.3410, 5420.000
368.5410, 5438.000
369.7410, 5440.401
370.9400, 5464.000
372.1400, 5434.000
373.3390, 5398.000
374.5380, 5420.000
375.7370, 5405.295
376.9360, 5411.214
378.1350, 5428.000
379.3330, 5435.000
380.5310, 5463.000
381.7300, 5486.106
382.9280, 5519.000
384.1260, 5593.000
385.3230, 5660.000
386.5210, 5730.000
387.7180, 5906.000
388.9160, 5974.000
390.1130, 6124.000
391.3100, 6278.000
392.5060, 6401.000
393.7030, 6526.000
394.9000, 6691.000
396.0960, 6933.000
397.2920, 7335.000
398.4880, 7541.000
399.6840, 7888.000
400.8800, 8129.000
402.0750, 8221.000
403.2710, 8216.000
404.4660, 8401.000
405.6610, 8633.000
406.8560, 9058.000
408.0510, 9543.000
409.2450, 9907.000
410.4400, 10163.00
411.6340, 9856.000
412.8280, 9399.000
414.0220, 9304.000
415.2160, 9247.000
416.4100, 9389.000
417.6030, 9533.000
418.7970, 9549.000
419.9900, 8877.000
421.1830, 8200.000
422.3760, 7461.000
423.5690, 6926.000
424.7610, 6610.000
425.9540, 6359.000
427.1460, 6231.000
428.3380, 6269.000
429.5300, 6145.000
430.7220, 6153.000
431.9140, 6131.000
433.1050, 6189.000
434.2970, 6196.000
435.4880, 6222.000
436.6790, 6229.000
437.8700, 6305.000
439.0610, 6452.000
440.2510, 6625.000
441.4420, 6718.000
442.6320, 6939.000
443.8220, 7149.000
445.0120, 7514.000
446.2020, 8026.000
447.3910, 8632.000
448.5810, 9279.000
449.7700, 9944.000
450.9600, 10656.00
452.1490, 11367.96
453.3370, 12120.00
454.5260, 12843.00
455.7150, 13640.00
456.9030, 14366.00
458.0910, 14590.00
459.2800, 14530.00
460.4670, 13819.00
461.6550, 13021.00
462.8430, 12342.00
464.0300, 11941.00
465.2180, 12065.00
466.4050, 12407.00
467.5920, 13586.00
468.7790, 15221.00
469.9650, 17427.00
471.1520, 20165.00
472.3380, 23062.00
473.5250, 25286.00
474.7110, 27721.00
475.8970, 30392.00
477.0820, 33326.00
478.2680, 36005.00
479.4540, 38090.00
480.6390, 38122.00
481.8240, 36238.00
483.0090, 32420.00
484.1940, 27737.00
485.3780, 23067.00
486.5630, 19499.00
487.7470, 16787.00
488.9320, 15249.00
490.1160, 14000.00
491.3000, 13594.00
492.4830, 13327.00
493.6670, 13923.00
494.8500, 14843.00
496.0340, 16659.00
497.2170, 18727.00
498.4000, 22046.00
499.5820, 26146.00
500.7650, 29932.00
501.9480, 33827.00
503.1300, 37219.00
504.3120, 40854.00
505.4940, 45196.00
506.6760, 48717.00
507.8580, 51673.00
509.0390, 52197.00
510.2210, 49232.00
511.4020, 44007.00
512.5830, 37091.00
513.7640, 30605.00
514.9450, 25112.00
516.1250, 20757.00
517.3060, 17687.00
518.4860, 15579.00
519.6660, 13679.00
520.8460, 12807.00
522.0260, 11629.00
523.2060, 10972.00
524.3850, 10413.00
525.5650, 9870.000
526.7440, 9472.000
527.9230, 9093.444
529.1020, 8981.000
530.2810, 8587.000
531.4590, 8469.000
532.6380, 8426.000
533.8160, 8223.000
534.9940, 8002.000
536.1720, 7907.000
537.3500, 7885.000
538.5270, 7663.000
539.7050, 7641.000
540.8820, 7691.000
542.0590, 7648.000
543.2360, 7574.000
544.4130, 7421.000
545.5900, 7436.000
546.7660, 7395.000
547.9430, 7344.000
549.1190, 7345.000
550.2950, 7321.000
551.4710, 7270.000
552.6470, 7256.000
553.8220, 7095.000
554.9980, 7074.000
556.1730, 7115.000
557.3480, 7002.000
558.5230, 7004.000
559.6980, 7170.000
560.8730, 7084.000
562.0470, 7073.000
563.2220, 7052.000
564.3960, 7123.000
565.5700, 7230.000
566.7440, 7249.000
567.9170, 7290.000
569.0910, 7321.000
570.2640, 7530.000
571.4380, 7466.000
572.6110, 7620.000
573.7840, 7897.000
574.9570, 8047.000
576.1290, 8070.000
577.3020, 8129.000
578.4740, 8248.000
579.6460, 8110.000
580.8180, 8209.000
581.9900, 8125.000
583.1620, 8070.000
584.3330, 7759.000
585.5040, 7308.000
586.6760, 7281.000
587.8470, 7033.000
589.0180, 7022.000
590.1880, 7065.000
591.3590, 6791.000
592.5290, 6933.000
593.7000, 6836.000
594.8700, 6775.000
596.0400, 6779.000
597.2090, 6776.000
598.3790, 6694.000
599.5490, 6684.000
600.7180, 6725.000
601.8870, 6778.000
603.0560, 6650.000
604.2250, 6652.000
605.3940, 6681.000
606.5620, 6691.000
607.7300, 6738.000
608.8990, 6833.000
610.0670, 6774.000
611.2350, 6936.000
612.4020, 6804.000
613.5700, 6728.000
614.7370, 6766.000
615.9050, 6847.000
617.0720, 6865.000
618.2390, 6882.000
619.4060, 6923.192
620.5720, 6924.000
621.7390, 6993.000
622.9050, 7005.000
624.0710, 7091.000
625.2370, 7080.000
626.4030, 7325.000
627.5690, 7262.000
628.7340, 7504.000
629.9000, 7409.000
631.0650, 7462.000
632.2300, 7510.000
633.3950, 7698.000
634.5600, 7676.000
635.7240, 7707.000
636.8890, 7657.000
638.0530, 7706.000
639.2170, 7627.000
640.3810, 7686.000
641.5450, 7601.000
642.7080, 7731.000
643.8720, 7735.000
645.0350, 7783.000
646.1980, 7832.000
647.3610, 7722.000
648.5240, 7717.000
649.6870, 7615.000
650.8490, 7642.000
652.0120, 7573.000
653.1740, 7392.000
654.3360, 7314.000
655.4980, 7277.000
656.6600, 7078.000
657.8210, 7173.000
658.9830, 7178.000
660.1440, 7051.000
661.3050, 7123.000
662.4660, 7098.000
663.6270, 7039.000
664.7870, 6950.000
665.9480, 7043.000
667.1080, 6915.000
668.2680, 7019.000
669.4280, 6993.000
670.5880, 6809.000
671.7480, 7034.000
672.9070, 6896.000
674.0670, 7046.000
675.2260, 7056.000
676.3850, 6991.000
677.5440, 6943.000
678.7030, 6879.000
679.8610, 6934.000
681.0200, 6922.000
682.1780, 6934.000
683.3360, 6927.000
684.4940, 7025.000
685.6520, 6972.000
686.8090, 6899.000
687.9670, 6986.000
689.1240, 6929.000
690.2810, 6877.000
691.4380, 6901.000
692.5950, 6894.000
693.7520, 6908.301
694.9080, 6944.000
696.0650, 6972.000
697.2210, 7024.000
698.3770, 7079.000
699.5330, 7038.000
700.6880, 6990.000
701.8440, 6904.000
702.9990, 7085.000
704.1550, 7098.000
705.3100, 6966.000
706.4650, 7093.000
707.6190, 7067.000
708.7740, 7049.000
709.9290, 7056.000
711.0830, 7026.000
712.2370, 7158.000
713.3910, 7240.000
714.5450, 7212.000
715.6980, 7296.000
716.8520, 7324.000
718.0050, 7260.000
719.1580, 7383.000
720.3110, 8013.000
721.4640, 7336.000
722.6170, 7362.000
723.7700, 8089.000
724.9220, 7577.000
726.0740, 7356.000
727.2260, 7300.000
728.3780, 7362.000
729.5300, 7352.000
730.6810, 7511.000
731.8330, 7372.000
732.9840, 7433.000
734.1350, 7524.000
735.2860, 7475.000
736.4370, 7582.000
737.5880, 7609.000
738.7380, 7549.000
739.8880, 7644.000
741.0390, 7768.000
742.1890, 7679.000
743.3380, 7830.000
744.4880, 8018.000
745.6380, 8151.000
746.7870, 8262.000
747.9360, 8399.000
749.0850, 8504.000
750.2340, 8933.000
751.3830, 9191.000
752.5310, 9682.000
753.6800, 10361.09
754.8280, 10899.00
755.9760, 11997.00
757.1240, 13028.00
758.2720, 14110.00
759.4190, 15163.00
760.5670, 16406.00
761.7140, 17525.00
762.8610, 18312.00
764.0080, 19025.00
765.1550, 18924.00
766.3020, 18303.00
767.4480, 16925.00
768.5950, 15312.00
769.7410, 13766.00
770.8870, 12602.00
772.0330, 11650.00
773.1780, 10996.00
774.3240, 10526.00
775.4690, 10115.00
776.6140, 9940.000
777.7590, 9536.000
778.9040, 9353.000
780.0490, 9195.000
781.1940, 8830.000
782.3380, 8849.000
783.4820, 8644.000
784.6260, 8490.000
785.7700, 8340.000
786.9140, 8318.000
788.0580, 8323.000
789.2010, 8302.000
790.3450, 8273.000
791.4880, 8144.000
792.6310, 8233.000
793.7730, 8386.000
794.9160, 8246.000
796.0590, 8421.000
797.2010, 8512.000
798.3430, 8539.000
799.4850, 8721.000
800.6270, 8842.000
801.7690, 9058.000
802.9100, 9286.000
804.0520, 9705.000
805.1930, 10089.00
806.3340, 10615.00
807.4750, 11479.00
808.6160, 12410.00
809.7560, 13437.00
810.8970, 14527.00
812.0370, 15663.00
813.1770, 16607.00
814.3170, 17475.00
815.4570, 18213.00
816.5960, 18296.00
817.7360, 17735.00
818.8750, 16646.00
820.0140, 15132.00
821.1530, 13417.00
822.2920, 12158.00
823.4310, 11162.00
824.5690, 10311.00
825.7070, 9849.000
826.8460, 9364.000
827.9840, 9115.000
829.1220, 8843.000
830.2590, 8843.000
831.3970, 8747.000
832.5340, 8598.000
833.6710, 8473.000
834.8080, 8455.000
835.9450, 8344.000
837.0820, 8257.000
838.2190, 8287.000
839.3550, 8309.000
840.4910, 8225.000
841.6270, 8187.000
842.7630, 8113.000
843.8990, 8053.380
845.0350, 8034.000
846.1700, 7955.000
847.3060, 7922.000
848.4410, 7922.876
849.5760, 7942.000
850.7100, 7996.000
851.8450, 7976.000
852.9800, 8000.000
854.1140, 8004.000
855.2480, 8026.000
856.3820, 7863.000
857.5160, 7811.000
858.6500, 7871.000
859.7830, 7876.000
860.9170, 8022.000
862.0500, 7813.000
863.1830, 7974.000
864.3160, 7900.000
865.4480, 7907.000
866.5810, 7961.000
867.7130, 8011.000
868.8460, 7899.000
869.9780, 7903.000
871.1100, 7869.000
872.2410, 8013.000
873.3730, 7929.000
874.5050, 7969.000
875.6360, 7923.000
876.7670, 7943.000
877.8980, 7929.000
879.0290, 8026.000
880.1590, 8011.000
881.2900, 8013.000
882.4200, 7971.000
883.5500, 7992.000
884.6800, 7953.000
885.8100, 7975.707
886.9400, 8055.000
888.0690, 7996.000
889.1990, 8094.000
890.3280, 8061.000
891.4570, 8036.000
892.5860, 8050.000
893.7140, 8002.000
894.8430, 8094.000
895.9710, 8208.000
897.1000, 8131.000
898.2280, 8136.000
899.3560, 8066.000
900.4830, 8166.000
901.6110, 8115.000
902.7380, 8163.000
903.8660, 8189.000
904.9930, 8157.000
906.1200, 8197.000
907.2460, 8204.000
908.3730, 8190.886
909.5000, 8316.000
910.6260, 8212.000
911.7520, 8225.000
912.8780, 8317.000
914.0040, 8375.000
915.1290, 8307.000
916.2550, 8368.000
917.3800, 8463.000
918.5050, 8386.000
919.6300, 8310.000
920.7550, 8365.000
921.8800, 8314.000
923.0040, 8302.000
924.1290, 8439.000
925.2530, 8463.000
926.3770, 8332.000
927.5010, 8499.000
928.6250, 8463.000
929.7480, 8353.000
930.8720, 8454.000
931.9950, 8445.000
933.1180, 8455.000
934.2410, 8553.000
935.3640, 8527.000
936.4860, 8484.000
937.6090, 8601.000
938.7310, 8632.000
939.8530, 8553.000
940.9750, 8639.000
942.0970, 8677.000
943.2180, 8769.000
944.3400, 8801.000
945.4610, 8800.000
946.5820, 8809.000
947.7030, 8910.000
948.8240, 8873.000
949.9450, 9019.000
951.0650, 9012.000
952.1860, 9128.000
953.3060, 9236.000
954.4260, 9217.000
955.5460, 9324.000
956.6650, 9327.000
957.7850, 9313.000
958.9040, 9322.000
960.0230, 9334.000
961.1420, 9378.000
962.2610, 9395.000
963.3800, 9260.000
964.4990, 9266.000
965.6170, 9442.000
966.7350, 9597.000
967.8530, 9475.000
968.9710, 9798.000
970.0890, 9810.000
971.2070, 10054.00
972.3240, 10171.00
973.4410, 10413.00
974.5580, 10673.00
975.6750, 10792.00
976.7920, 11031.00
977.9090, 11129.00
979.0250, 11014.00
980.1410, 10943.00
981.2580, 10983.00
982.3740, 10740.00
983.4890, 10480.00
984.6050, 10260.00
985.7200, 10034.00
986.8360, 10000.00
987.9510, 9769.000
989.0660, 9807.000
990.1810, 9689.000
991.2950, 9642.000
992.4100, 9718.000
993.5240, 9818.000
994.6390, 9707.000
995.7530, 9851.000
996.8660, 9832.000
997.9800, 10093.00
999.0940, 10258.00
1000.207, 10291.00
1001.320, 10534.00
1002.433, 10614.00
1003.546, 10931.00
1004.659, 11105.00
1005.772, 11226.00
1006.884, 11257.00
1007.996, 11311.00
1009.108, 11356.00
1010.220, 11219.00
1011.332, 11284.00
1012.444, 11258.00
1013.555, 11395.00
1014.666, 11332.00
1015.777, 11119.00
1016.888, 11110.00
1017.999, 10848.00
1019.110, 10609.00
1020.220, 10553.00
1021.331, 10408.00
1022.441, 10319.00
1023.551, 10099.00
1024.661, 10173.00
1025.770, 10047.00
1026.880, 10129.00
1027.989, 10164.00
1029.098, 10083.00
1030.207, 10332.00
1031.316, 10059.00
1032.425, 10237.00
1033.533, 10313.00
1034.642, 10306.00
1035.750, 10196.00
1036.858, 10168.00
1037.966, 10075.00
1039.073, 10084.00
1040.181, 10002.00
1041.288, 10102.00
1042.396, 10017.00
1043.503, 10064.00
1044.610, 10112.00
1045.716, 10152.00
1046.823, 10153.00
1047.929, 10156.00
1049.036, 10168.07
1050.142, 10087.00
1051.248, 10150.00
1052.353, 10032.00
1053.459, 9969.000
1054.564, 9963.000
1055.670, 9793.000
1056.775, 9822.000
1057.880, 9731.000
1058.985, 9762.000
1060.089, 9673.000
1061.194, 9802.000
1062.298, 9791.000
1063.402, 9767.000
1064.506, 9758.000
1065.610, 9799.000
1066.713, 9766.000
1067.817, 9746.000
1068.920, 9910.000
1070.023, 9996.000
1071.126, 9952.000
1072.229, 9966.000
1073.332, 9974.000
1074.435, 10042.00
1075.537, 10070.00
1076.639, 10162.00
1077.741, 10258.00
1078.843, 10303.00
1079.945, 10461.00
1081.046, 10635.00
1082.148, 10767.00
1083.249, 10957.00
1084.350, 11057.00
1085.451, 11264.00
1086.551, 11387.00
1087.652, 11887.00
1088.752, 12239.00
1089.853, 12684.00
1090.953, 13250.00
1092.053, 13794.00
1093.152, 14650.00
1094.252, 15363.00
1095.351, 16227.00
1096.451, 17088.00
1097.550, 17782.00
1098.649, 18476.00
1099.748, 18482.00
1100.846, 18564.00
1101.945, 18170.00
1103.043, 17536.00
1104.141, 16706.00
1105.239, 16077.00
1106.337, 15539.00
1107.434, 14837.00
1108.532, 14560.00
1109.629, 14197.00
1110.726, 13754.00
1111.823, 13554.00
1112.920, 13296.00
1114.017, 13246.00
1115.113, 13184.00
1116.210, 13112.00
1117.306, 12922.00
1118.402, 12864.00
1119.498, 12712.00
1120.593, 12448.00
1121.689, 12384.00
1122.784, 12044.00
1123.879, 11790.00
1124.974, 11586.00
1126.069, 11338.34
1127.164, 11071.00
1128.259, 10916.00
1129.353, 10827.00
1130.447, 10576.00
1131.541, 10434.00
1132.635, 10327.00
1133.729, 10392.00
1134.822, 10196.00
1135.916, 10103.00
1137.009, 10317.00
1138.102, 10166.00
1139.195, 10292.00
1140.288, 10199.00
1141.380, 10160.00
1142.473, 10077.00
1143.565, 10090.00
1144.657, 10112.40
1145.749, 10230.00
1146.841, 10262.00
1147.932, 10428.00
1149.024, 10590.00
1150.115, 10441.00
1151.206, 10507.00
1152.297, 10447.00
1153.388, 10583.00
1154.479, 10554.00
1155.569, 10370.00
1156.659, 10333.00
1157.750, 10284.00
1158.839, 10233.00
1159.929, 10194.13
1161.019, 10180.00
1162.108, 10095.00
1163.198, 10095.00
1164.287, 10018.00
1165.376, 9994.918
1166.465, 10048.00
1167.553, 9961.000
1168.642, 9977.000
1169.730, 10003.00
1170.818, 10057.00
1171.906, 10049.00
1172.994, 9954.000
1174.082, 10104.00
1175.170, 9908.000
1176.257, 10001.00
1177.344, 10070.00
1178.431, 10080.00
1179.518, 10030.00
1180.605, 10035.00
1181.691, 10001.00
1182.778, 10024.13
1183.864, 9981.000
1184.950, 10072.00
1186.036, 10147.00
1187.122, 10151.69
1188.207, 10151.00
1189.292, 10121.00
1190.378, 10146.00
1191.463, 10075.00
1192.548, 10070.00
1193.632, 10011.00
1194.717, 10054.00
1195.801, 10016.00
1196.886, 9954.000
1197.970, 10031.00
1199.054, 9975.000
1200.137, 10280.00
1201.221, 10187.00
1202.305, 10209.00
1203.388, 10108.00
1204.471, 10182.00
1205.554, 10274.00
1206.637, 9946.000
1207.719, 10192.00
1208.802, 10200.00
1209.884, 10073.00
1210.966, 10132.00
1212.048, 10145.00
1213.130, 10129.00
1214.212, 10192.00
1215.293, 10068.00
1216.374, 10250.00
1217.456, 10108.00
1218.536, 10186.00
1219.617, 10238.00
1220.698, 10224.00
1221.778, 10205.00
1222.859, 10237.00
1223.939, 10197.00
1225.019, 10224.71
1226.099, 10223.84
1227.178, 10261.00
1228.258, 10222.00
1229.337, 10238.00
1230.417, 10212.00
1231.496, 10335.00
1232.574, 10320.00
1233.653, 10289.00
1234.732, 10334.00
1235.810, 10302.00
1236.888, 10418.00
1237.966, 10233.00
1239.044, 10280.00
1240.122, 10282.00
1241.199, 10375.00
1242.277, 10369.00
1243.354, 10329.00
1244.431, 10440.00
1245.508, 10529.00
1246.585, 10391.00
1247.661, 10430.00
1248.738, 10310.00
1249.814, 10429.00
1250.890, 10541.00
1251.966, 10322.00
1253.042, 10514.00
1254.117, 10467.00
1255.193, 10442.00
1256.268, 10344.00
1257.343, 10453.00
1258.418, 10388.00
1259.493, 10550.00
1260.567, 10442.00
1261.642, 10473.00
1262.716, 10447.00
1263.790, 10445.61
1264.864, 10549.00
1265.938, 10508.00
1267.011, 10514.00
1268.085, 10593.00
1269.158, 10542.00
1270.231, 10575.00
1271.304, 10538.00
1272.377, 10560.00
1273.450, 10524.00
1274.522, 10540.02
1275.594, 10604.00
1276.666, 10592.00
1277.738, 10539.00
1278.810, 10613.00
1279.882, 10609.00
1280.953, 10493.00
1282.025, 10706.00
1283.096, 10639.00
1284.167, 10589.00
1285.238, 10676.00
1286.308, 10774.00
1287.379, 10687.00
1288.449, 10736.00
1289.519, 10807.00
1290.589, 10641.00
1291.659, 10729.00
1292.729, 10827.00
1293.798, 10724.00
1294.868, 10823.00
1295.937, 10652.00
1297.006, 10816.00
1298.075, 10696.00
1299.143, 10886.00
1300.212, 10792.00
1301.280, 10867.00
1302.348, 10782.00
1303.416, 10880.00
1304.484, 10945.00
1305.552, 10802.00
1306.620, 10936.00
1307.687, 10773.00
1308.754, 10992.00
1309.821, 10838.00
1310.888, 10875.00
1311.955, 10892.00
1313.021, 10912.00
1314.088, 10954.00
1315.154, 11037.00
1316.220, 10805.00
1317.286, 10830.00
1318.352, 10916.00
1319.417, 10902.00
1320.483, 10937.00
1321.548, 10879.00
1322.613, 10931.70
1323.678, 11065.00
1324.743, 11007.00
1325.807, 11020.00
1326.872, 11059.00
1327.936, 10945.00
1329.000, 11056.00
1330.064, 11080.00
1331.128, 11117.00
1332.191, 11036.00
1333.255, 11013.00
1334.318, 10976.00
1335.381, 10971.06
1336.444, 11116.00
1337.507, 11013.00
1338.569, 11054.00
1339.632, 11118.00
1340.694, 11041.00
1341.756, 11012.00
1342.818, 11137.00
1343.880, 11152.00
1344.941, 11189.00
1346.003, 11072.00
1347.064, 11142.00
1348.125, 11095.00
1349.186, 11276.00
1350.247, 11250.00
1351.308, 11210.00
1352.368, 11346.00
1353.428, 11133.00
1354.489, 11003.00
1355.549, 11289.00
1356.608, 11236.00
1357.668, 11141.00
1358.727, 11262.00
1359.787, 11161.00
1360.846, 11242.00
1361.905, 11194.00
1362.964, 11294.00
1364.022, 11225.00
1365.081, 11304.00
1366.139, 11366.00
1367.197, 11392.00
1368.255, 11345.00
1369.313, 11369.00
1370.371, 11279.00
1371.428, 11251.00
1372.486, 11346.00
1373.543, 11328.00
1374.600, 11393.00
1375.657, 11383.00
1376.713, 11327.00
1377.770, 11254.00
1378.826, 11398.00
1379.882, 11180.00
1380.938, 11292.00
1381.994, 11163.00
1383.050, 11402.00
1384.106, 11318.00
1385.161, 11297.00
1386.216, 11477.00
1387.271, 11423.00
1388.326, 11464.00
1389.381, 11456.00
1390.435, 11393.00
1391.490, 11402.00
1392.544, 11510.00
1393.598, 11353.00
1394.652, 11329.00
1395.705, 11428.00
1396.759, 11559.00
1397.812, 11378.00
1398.866, 11313.00
1399.919, 11455.00
1400.972, 11346.00
1402.024, 11503.00
1403.077, 11607.00
1404.129, 11461.00
1405.181, 11467.00
1406.233, 11565.00
1407.285, 11503.00
1408.337, 11448.00
1409.389, 11636.00
1410.440, 11623.00
1411.491, 11567.00
1412.542, 11483.00
1413.593, 11514.00
1414.644, 11626.00
1415.695, 11596.00
1416.745, 11496.00
1417.795, 11581.00
1418.845, 11551.00
1419.895, 11650.00
1420.945, 11668.00
1421.995, 11684.00
1423.044, 11641.00
1424.093, 11748.00
1425.142, 11661.00
1426.191, 11728.00
1427.240, 11688.00
1428.289, 11678.00
1429.337, 11753.00
1430.385, 11640.00
1431.433, 11895.00
1432.481, 11794.00
1433.529, 11939.00
1434.577, 11912.00
1435.624, 11825.00
1436.672, 11804.00
1437.719, 11706.00
1438.766, 11960.00
1439.812, 11866.00
1440.859, 11805.00
1441.905, 11958.00
1442.952, 11920.00
1443.998, 11937.00
1445.044, 11928.00
1446.090, 11943.00
1447.135, 11910.00
1448.181, 11887.00
1449.226, 11864.00
1450.271, 11870.32
1451.316, 11887.88
1452.361, 11901.00
1453.405, 11941.00
1454.450, 11967.00
1455.494, 11963.00
1456.538, 12037.00
1457.582, 12056.00
1458.626, 11951.00
1459.670, 12060.00
1460.713, 11963.00
1461.757, 11936.00
1462.800, 11972.00
1463.843, 11931.00
1464.886, 11933.00
1465.928, 12027.00
1466.971, 11969.60
1468.013, 12083.00
1469.055, 11999.00
1470.097, 12001.00
1471.139, 12151.00
1472.181, 12065.00
1473.222, 12069.00
1474.263, 12056.00
1475.305, 12007.00
1476.346, 12116.00
1477.386, 12152.00
1478.427, 12281.00
1479.468, 12178.00
1480.508, 12055.00
1481.548, 12205.00
1482.588, 12045.00
1483.628, 12267.00
1484.668, 12181.00
1485.707, 12075.00
1486.747, 12191.00
1487.786, 12111.00
1488.825, 12266.00
1489.864, 12317.00
1490.902, 12269.00
1491.941, 12229.00
1492.979, 12128.00
1494.017, 12272.00
1495.055, 12444.00
1496.093, 12376.00
1497.131, 12485.00
1498.168, 12747.00
1499.206, 12358.00
1500.243, 12190.00
1501.280, 12417.00
1502.317, 12339.00
1503.354, 12394.00
1504.390, 12429.00
1505.426, 12419.00
1506.463, 12488.05
1507.499, 12474.00
1508.535, 12519.00
1509.570, 12517.00
1510.606, 12380.00
1511.641, 12361.00
1512.676, 12499.00
1513.711, 12413.00
1514.746, 12489.00
1515.781, 12562.00
1516.816, 12534.00
1517.850, 12588.00
1518.884, 12543.00
1519.918, 12575.88
1520.952, 12591.66
1521.986, 12603.00
1523.019, 12623.00
1524.053, 12605.00
1525.086, 12602.00
1526.119, 12672.00
1527.152, 12624.00
1528.185, 12615.00
1529.217, 12634.00
1530.250, 12700.00
1531.282, 12574.00
1532.314, 12701.00
1533.346, 12714.00
1534.377, 12817.00
1535.409, 12679.00
1536.440, 12733.00
1537.472, 12746.00
1538.503, 12792.00
1539.534, 12787.00
1540.564, 12729.00
1541.595, 12749.00
1542.625, 12740.00
1543.656, 12826.00
1544.686, 12788.00
1545.716, 12875.00
1546.745, 12862.00
1547.775, 12900.00
1548.804, 12905.00
1549.834, 12822.00
1550.863, 12984.00
1551.892, 12795.00
1552.920, 12978.00
1553.949, 13028.00
1554.977, 13155.00
1556.006, 12986.00
1557.034, 12940.00
1558.062, 12856.00
1559.089, 13048.00
1560.117, 13034.00
1561.144, 13161.00
1562.172, 12998.00
1563.199, 13177.00
1564.226, 13135.00
1565.252, 13141.00
1566.279, 13088.00
1567.305, 13230.00
1568.332, 13199.00
1569.358, 13314.00
1570.384, 13266.00
##END=



