##NAMES=Albite
##RRUFFID=R040068
##IDEAL CHEMISTRY=NaAlSi_3_O_8_
##LOCALITY=Harding Pegmatite, Dixon, New Mexico, USA
##OWNER=RRUFF
##SOURCE=University of Arizona Mineral Museum
##DESCRIPTION=Tan colored crystal fragment
##STATUS=The identification of this mineral has been confirmed by X-ray diffraction and chemical analysis
##URL=rruff.info/R040068
##MEASURED CHEMISTRY=(Na_0.99_Ca_0.01_)Al_1.00_(Si_0.99_Al_0.01_)_3_O_8_
##PIN_ID=M00167
##ORIENTATION=Laser parallel to (-1 -1 0). Fiducial mark perpendicular to laser is parallel to -c [0 0 -1]
85.49600, 4288.000
86.89200, 4313.000
88.28900, 4325.000
89.68500, 4356.000
91.08100, 4414.000
92.47700, 4562.000
93.87300, 4666.000
95.26800, 4794.000
96.66300, 4902.000
98.05800, 5053.834
99.45300, 5228.000
100.8480, 5397.000
102.2420, 5592.000
103.6360, 5836.000
105.0300, 6201.000
106.4230, 6581.000
107.8170, 7370.000
109.2100, 8175.000
110.6030, 9203.000
111.9960, 10000.00
113.3880, 10450.00
114.7800, 10340.00
116.1720, 10160.00
117.5640, 9460.000
118.9560, 8708.000
120.3470, 8276.000
121.7380, 7975.000
123.1290, 7794.000
124.5190, 7575.000
125.9100, 7451.000
127.3000, 7467.000
128.6900, 7416.000
130.0800, 7413.000
131.4690, 7420.690
132.8580, 7418.941
134.2480, 7467.000
135.6360, 7476.000
137.0250, 7553.000
138.4130, 7630.000
139.8010, 7835.000
141.1890, 7982.000
142.5770, 8321.000
143.9640, 8830.000
145.3520, 9516.000
146.7390, 10460.00
148.1250, 11330.00
149.5120, 12050.00
150.8980, 12350.00
152.2840, 12180.00
153.6700, 11860.00
155.0560, 11260.00
156.4410, 10790.00
157.8270, 10700.00
159.2120, 10670.00
160.5960, 10880.00
161.9810, 10950.00
163.3650, 10670.00
164.7490, 10290.00
166.1330, 10000.00
167.5170, 9574.000
168.9000, 9381.000
170.2830, 9091.000
171.6660, 9074.000
173.0490, 8930.000
174.4310, 8814.000
175.8130, 8934.000
177.1950, 8965.000
178.5770, 9210.000
179.9590, 9559.000
181.3400, 9861.000
182.7210, 10120.00
184.1020, 10400.00
185.4830, 10670.00
186.8630, 10540.00
188.2440, 10330.00
189.6240, 10210.00
191.0030, 9714.000
192.3830, 9643.000
193.7620, 9197.000
195.1410, 9000.000
196.5200, 8758.000
197.8990, 8649.000
199.2770, 8604.000
200.6560, 8620.000
202.0340, 8857.000
203.4110, 9155.000
204.7890, 9656.000
206.1660, 9913.000
207.5430, 10430.00
208.9200, 10480.00
210.2970, 10250.00
211.6730, 9867.000
213.0490, 9250.000
214.4250, 8840.000
215.8010, 8310.000
217.1760, 8056.000
218.5520, 7748.000
219.9270, 7634.000
221.3020, 7428.000
222.6760, 7345.076
224.0510, 7282.914
225.4250, 7281.000
226.7990, 7234.000
228.1730, 7272.000
229.5460, 7273.000
230.9190, 7221.000
232.2920, 7274.000
233.6650, 7238.000
235.0380, 7216.000
236.4100, 7234.000
237.7820, 7371.000
239.1540, 7288.000
240.5260, 7443.000
241.8980, 7627.000
243.2690, 7673.000
244.6400, 8045.000
246.0110, 8308.000
247.3810, 8811.000
248.7520, 9365.000
250.1220, 9831.000
251.4920, 9799.000
252.8610, 9797.000
254.2310, 9364.000
255.6000, 8930.000
256.9690, 8598.000
258.3380, 8278.000
259.7070, 8179.000
261.0750, 8147.000
262.4430, 8422.000
263.8110, 8728.000
265.1790, 9019.000
266.5460, 9404.000
267.9140, 9706.000
269.2810, 9856.000
270.6470, 9892.000
272.0140, 9801.000
273.3800, 9496.000
274.7470, 9186.000
276.1130, 8988.000
277.4780, 8946.000
278.8440, 9008.000
280.2090, 9220.000
281.5740, 9612.000
282.9390, 10220.00
284.3040, 11290.00
285.6680, 12400.00
287.0320, 14030.00
288.3960, 15390.00
289.7600, 16340.00
291.1230, 16470.00
292.4870, 15720.00
293.8500, 14580.00
295.2120, 13040.00
296.5750, 11780.00
297.9370, 10850.00
299.3000, 10020.00
300.6620, 9408.000
302.0230, 9124.000
303.3850, 8843.000
304.7460, 8764.000
306.1070, 8534.000
307.4680, 8587.000
308.8290, 8622.000
310.1890, 8486.000
311.5490, 8408.000
312.9090, 8288.000
314.2690, 8296.000
315.6290, 8251.000
316.9880, 8196.000
318.3470, 8156.000
319.7060, 8147.000
321.0650, 8402.000
322.4230, 8456.000
323.7810, 8694.000
325.1390, 9131.000
326.4970, 9481.000
327.8550, 9675.000
329.2120, 9672.000
330.5690, 9526.000
331.9260, 9041.000
333.2830, 8843.000
334.6390, 8506.000
335.9950, 8290.000
337.3510, 8192.000
338.7070, 8116.000
340.0630, 8052.000
341.4180, 7938.000
342.7730, 8027.000
344.1280, 8011.000
345.4830, 7964.000
346.8370, 8039.000
348.1920, 8019.000
349.5460, 7994.000
350.8990, 8056.000
352.2530, 7938.000
353.6060, 7978.000
354.9600, 7973.000
356.3130, 8022.000
357.6650, 7937.000
359.0180, 7974.000
360.3700, 8043.000
361.7220, 7948.000
363.0740, 7904.000
364.4260, 8044.000
365.7770, 7928.000
367.1280, 8050.000
368.4790, 8052.000
369.8300, 7989.000
371.1810, 8037.000
372.5310, 7998.000
373.8810, 8046.000
375.2310, 8060.000
376.5810, 8065.746
377.9300, 8115.000
379.2800, 8091.000
380.6290, 8171.000
381.9770, 8171.000
383.3260, 8150.000
384.6740, 8207.000
386.0230, 8209.000
387.3700, 8306.000
388.7180, 8209.000
390.0660, 8371.000
391.4130, 8353.000
392.7600, 8419.000
394.1070, 8500.000
395.4540, 8718.000
396.8000, 8907.000
398.1460, 8929.000
399.4920, 9000.000
400.8380, 9019.000
402.1840, 9129.000
403.5290, 9301.000
404.8740, 9722.000
406.2190, 10070.00
407.5640, 10180.00
408.9080, 10250.00
410.2520, 10210.00
411.5960, 10160.00
412.9400, 10360.00
414.2840, 10800.00
415.6270, 10950.00
416.9700, 10890.00
418.3130, 10450.00
419.6560, 9971.000
420.9990, 9378.000
422.3410, 9187.000
423.6830, 8963.000
425.0250, 8788.000
426.3670, 8871.000
427.7080, 8640.000
429.0490, 8729.000
430.3900, 8732.000
431.7310, 8713.000
433.0720, 8706.000
434.4120, 8726.000
435.7520, 8737.440
437.0920, 8770.000
438.4320, 8783.000
439.7720, 8817.807
441.1110, 8974.000
442.4500, 8904.000
443.7890, 8960.000
445.1270, 9040.000
446.4660, 9011.000
447.8040, 9237.000
449.1420, 9228.000
450.4800, 9417.000
451.8170, 9563.000
453.1550, 9780.000
454.4920, 9920.000
455.8290, 10140.00
457.1660, 10320.00
458.5020, 10300.00
459.8380, 10220.00
461.1750, 10310.00
462.5100, 10360.00
463.8460, 10500.00
465.1810, 10740.00
466.5170, 11170.00
467.8520, 11810.00
469.1860, 12660.00
470.5210, 13760.00
471.8550, 15490.00
473.1900, 17970.00
474.5230, 21730.00
475.8570, 25820.00
477.1910, 30190.00
478.5240, 32270.00
479.8570, 31720.00
481.1900, 28930.00
482.5230, 25010.00
483.8550, 21100.00
485.1870, 18470.00
486.5190, 16040.00
487.8510, 14540.00
489.1830, 13590.00
490.5140, 13280.00
491.8450, 12710.00
493.1760, 12730.00
494.5070, 12750.00
495.8370, 13290.00
497.1680, 14120.00
498.4980, 15320.00
499.8280, 17140.00
501.1570, 20170.00
502.4870, 24500.00
503.8160, 30070.00
505.1450, 35960.00
506.4740, 39350.00
507.8020, 39680.00
509.1310, 36700.00
510.4590, 31700.00
511.7870, 26650.00
513.1150, 22470.00
514.4420, 19190.00
515.7700, 16790.00
517.0970, 15250.00
518.4240, 13950.00
519.7500, 13200.00
521.0770, 12640.00
522.4030, 12060.00
523.7290, 11620.00
525.0550, 11470.00
526.3810, 11080.00
527.7060, 10980.00
529.0310, 10850.00
530.3560, 10690.00
531.6810, 10650.00
533.0060, 10580.00
534.3300, 10450.00
535.6540, 10450.00
536.9780, 10370.00
538.3020, 10340.00
539.6250, 10200.00
540.9490, 10310.00
542.2720, 10060.00
543.5950, 10220.00
544.9170, 10170.00
546.2400, 10030.00
547.5620, 10150.00
548.8840, 10070.00
550.2060, 10160.00
551.5270, 9992.000
552.8490, 9976.000
554.1700, 9985.000
555.4910, 9995.000
556.8120, 9985.300
558.1320, 9986.617
559.4530, 9982.000
560.7730, 9962.000
562.0930, 9966.266
563.4120, 9931.000
564.7320, 9992.000
566.0510, 10020.00
567.3700, 10060.00
568.6890, 10010.00
570.0080, 10030.00
571.3260, 10110.00
572.6440, 10220.00
573.9630, 10340.00
575.2800, 10410.00
576.5980, 10460.00
577.9150, 10490.00
579.2330, 10450.00
580.5500, 10510.00
581.8660, 10440.00
583.1830, 10340.00
584.4990, 10330.00
585.8150, 10270.00
587.1310, 10260.00
588.4470, 10120.00
589.7630, 10170.00
591.0780, 10090.00
592.3930, 10090.00
593.7080, 10130.00
595.0220, 10100.00
596.3370, 10140.00
597.6510, 10170.00
598.9650, 10100.00
600.2790, 10200.00
601.5930, 10270.00
602.9060, 10150.00
604.2190, 10130.00
605.5320, 10300.00
606.8450, 10180.00
608.1580, 10290.00
609.4700, 10280.00
610.7820, 10310.00
612.0940, 10240.00
613.4060, 10250.00
614.7180, 10340.00
616.0290, 10230.00
617.3400, 10240.00
618.6510, 10340.00
619.9620, 10300.00
621.2720, 10360.00
622.5820, 10320.00
623.8920, 10410.00
625.2020, 10390.00
626.5120, 10390.00
627.8210, 10520.00
629.1310, 10580.00
630.4400, 10560.00
631.7490, 10570.00
633.0570, 10500.00
634.3660, 10630.00
635.6740, 10520.00
636.9820, 10670.00
638.2900, 10710.00
639.5970, 10570.00
640.9050, 10740.00
642.2120, 10770.00
643.5190, 10740.00
644.8250, 10830.00
646.1320, 10850.00
647.4380, 11010.00
648.7440, 10880.00
650.0500, 10720.00
651.3560, 10920.00
652.6620, 10660.00
653.9670, 10830.00
655.2720, 10650.00
656.5770, 10780.00
657.8820, 10710.00
659.1860, 10770.00
660.4900, 10680.00
661.7940, 10760.00
663.0980, 10700.00
664.4020, 10860.00
665.7050, 10680.00
667.0090, 10760.00
668.3120, 10800.00
669.6140, 10700.00
670.9170, 10790.00
672.2190, 10730.00
673.5220, 10890.00
674.8240, 10850.00
676.1250, 10880.00
677.4270, 10850.00
678.7280, 10790.00
680.0300, 10760.00
681.3310, 10870.00
682.6310, 10910.00
683.9320, 10870.00
685.2320, 10870.00
686.5320, 10910.00
687.8320, 10970.00
689.1320, 10990.00
690.4320, 10830.00
691.7310, 10880.00
693.0300, 10920.00
694.3290, 10930.00
695.6280, 11050.00
696.9260, 11070.00
698.2240, 10850.00
699.5220, 11030.00
700.8200, 10990.00
702.1180, 11040.00
703.4150, 11110.00
704.7130, 11130.00
706.0100, 11175.49
707.3070, 11201.78
708.6030, 11250.00
709.9000, 11210.00
711.1960, 11270.00
712.4920, 11210.00
713.7880, 11220.00
715.0830, 11270.00
716.3790, 11260.00
717.6740, 11360.00
718.9690, 11320.00
720.2640, 11420.00
721.5580, 11320.00
722.8530, 11367.85
724.1470, 11340.00
725.4410, 11370.00
726.7350, 11430.00
728.0280, 11380.00
729.3220, 11350.00
730.6150, 11430.00
731.9080, 11340.00
733.2010, 11470.00
734.4930, 11510.00
735.7850, 11450.00
737.0780, 11620.00
738.3700, 11610.00
739.6610, 11550.00
740.9530, 11570.00
742.2440, 11710.00
743.5350, 11790.00
744.8260, 11830.00
746.1170, 11800.00
747.4070, 11900.00
748.6980, 11950.00
749.9880, 11900.00
751.2780, 12180.00
752.5670, 12170.00
753.8570, 12410.00
755.1460, 12620.00
756.4350, 12840.00
757.7240, 13400.00
759.0130, 13990.00
760.3010, 14590.00
761.5900, 15510.00
762.8780, 15860.00
764.1650, 15890.00
765.4530, 15520.00
766.7410, 14870.00
768.0280, 14230.00
769.3150, 13790.00
770.6020, 13390.00
771.8880, 13220.00
773.1750, 13200.00
774.4610, 13030.00
775.7470, 13000.00
777.0330, 12810.00
778.3190, 12880.00
779.6040, 12580.00
780.8890, 12530.00
782.1740, 12380.00
783.4590, 12330.00
784.7440, 12360.00
786.0280, 12190.00
787.3120, 12360.00
788.5960, 12180.00
789.8800, 12180.00
791.1640, 12200.00
792.4470, 12270.00
793.7300, 12220.00
795.0130, 12090.00
796.2960, 12320.00
797.5790, 12300.00
798.8610, 12210.00
800.1430, 12400.00
801.4250, 12290.00
802.7070, 12440.00
803.9890, 12480.00
805.2700, 12530.00
806.5510, 12570.00
807.8320, 12630.00
809.1130, 12820.00
810.3940, 12920.00
811.6740, 13090.00
812.9540, 13490.00
814.2340, 13350.00
815.5140, 13710.00
816.7940, 13610.00
818.0730, 13290.00
819.3520, 13120.00
820.6310, 12870.00
821.9100, 12760.00
823.1890, 12720.00
824.4670, 12550.00
825.7450, 12600.00
827.0230, 12640.00
828.3010, 12720.00
829.5780, 12790.00
830.8560, 12550.00
832.1330, 12630.00
833.4100, 12590.00
834.6870, 12640.00
835.9630, 12690.00
837.2400, 12590.00
838.5160, 12630.00
839.7920, 12638.86
841.0680, 12570.00
842.3430, 12690.00
843.6180, 12710.00
844.8940, 12740.00
846.1690, 12640.00
847.4430, 12640.00
848.7180, 12740.00
849.9920, 12707.42
851.2660, 12740.00
852.5400, 12740.00
853.8140, 12750.00
855.0880, 12690.00
856.3610, 12710.00
857.6340, 12710.00
858.9070, 12890.00
860.1800, 12860.00
861.4530, 12830.00
862.7250, 12820.00
863.9970, 12780.00
865.2690, 12860.00
866.5410, 12910.00
867.8120, 12860.00
869.0840, 12970.00
870.3550, 12940.00
871.6260, 12970.00
872.8970, 12910.00
874.1670, 12820.00
875.4380, 13070.00
876.7080, 12880.00
877.9780, 13020.00
879.2480, 13170.00
880.5170, 13010.00
881.7870, 13150.00
883.0560, 12960.00
884.3250, 13220.00
885.5940, 13110.00
886.8620, 13180.00
888.1300, 13070.00
889.3990, 13140.00
890.6670, 13250.00
891.9340, 13230.00
893.2020, 13160.00
894.4690, 13220.00
895.7370, 13220.00
897.0040, 13320.00
898.2700, 13300.00
899.5370, 13310.00
900.8030, 13410.00
902.0700, 13300.00
903.3360, 13400.00
904.6010, 13390.00
905.8670, 13300.00
907.1320, 13430.00
908.3980, 13450.00
909.6630, 13440.00
910.9280, 13440.00
912.1920, 13410.00
913.4570, 13510.00
914.7210, 13490.00
915.9850, 13510.00
917.2490, 13460.00
918.5120, 13580.00
919.7760, 13580.00
921.0390, 13620.00
922.3020, 13520.00
923.5650, 13730.00
924.8270, 13630.00
926.0900, 13700.00
927.3520, 13600.00
928.6140, 13640.00
929.8760, 13790.00
931.1380, 13790.00
932.3990, 13680.00
933.6600, 13900.00
934.9220, 13690.00
936.1820, 13920.00
937.4430, 13830.00
938.7040, 13810.00
939.9640, 13980.00
941.2240, 13770.00
942.4840, 13820.00
943.7440, 13990.00
945.0030, 13860.00
946.2620, 14000.00
947.5210, 14060.00
948.7800, 14030.00
950.0390, 13920.00
951.2980, 13990.00
952.5560, 14100.00
953.8140, 14180.00
955.0720, 14120.00
956.3300, 14350.00
957.5870, 14190.00
958.8450, 14250.00
960.1020, 14290.00
961.3590, 14340.00
962.6150, 14440.00
963.8720, 14450.00
965.1280, 14390.00
966.3840, 14680.00
967.6400, 14690.00
968.8960, 14550.00
970.1520, 14890.00
971.4070, 15010.00
972.6620, 15180.00
973.9170, 15490.00
975.1720, 15830.00
976.4270, 16060.00
977.6810, 16250.00
978.9350, 16180.00
980.1890, 15920.00
981.4430, 15820.00
982.6970, 15450.00
983.9500, 15380.00
985.2030, 15130.00
986.4560, 14910.00
987.7090, 14820.00
988.9620, 14820.00
990.2140, 14770.00
991.4670, 14750.00
992.7190, 14680.00
993.9710, 14790.00
995.2220, 14640.00
996.4740, 14830.00
997.7250, 14820.00
998.9760, 14850.00
1000.227, 14970.00
1001.478, 15160.00
1002.728, 15230.00
1003.978, 15130.00
1005.229, 15540.00
1006.479, 15400.00
1007.728, 15570.00
1008.978, 15460.00
1010.227, 15290.00
1011.476, 15210.00
1012.725, 15260.00
1013.974, 15330.00
1015.223, 15370.00
1016.471, 15160.00
1017.719, 15240.00
1018.967, 15210.00
1020.215, 15170.00
1021.462, 15360.00
1022.710, 15190.00
1023.957, 15370.00
1025.204, 15400.00
1026.451, 15260.00
1027.697, 15650.00
1028.944, 15780.00
1030.190, 15890.00
1031.436, 16020.00
1032.682, 16040.00
1033.928, 16020.00
1035.173, 15930.00
1036.418, 15700.00
1037.663, 15820.00
1038.908, 15550.00
1040.153, 15740.00
1041.398, 15670.00
1042.642, 15610.00
1043.886, 15850.00
1045.130, 15630.00
1046.374, 15790.00
1047.617, 15950.00
1048.860, 15710.00
1050.104, 15860.00
1051.347, 15740.00
1052.589, 15550.00
1053.832, 15750.00
1055.074, 15550.00
1056.316, 15780.00
1057.558, 15510.00
1058.800, 15550.00
1060.042, 15670.00
1061.283, 15500.00
1062.524, 15620.00
1063.765, 15730.00
1065.006, 15680.00
1066.247, 15490.00
1067.487, 15730.00
1068.728, 15730.00
1069.968, 15960.00
1071.208, 15700.00
1072.447, 15990.00
1073.687, 15950.00
1074.926, 15890.00
1076.165, 16040.00
1077.404, 16160.00
1078.643, 16210.00
1079.881, 16360.00
1081.120, 16350.00
1082.358, 16610.00
1083.596, 16790.00
1084.834, 16770.00
1086.071, 17200.00
1087.309, 17390.00
1088.546, 17340.00
1089.783, 17830.00
1091.020, 18170.00
1092.256, 19080.00
1093.493, 19650.00
1094.729, 20260.00
1095.965, 21570.00
1097.201, 22280.00
1098.436, 22550.00
1099.672, 22810.00
1100.907, 22440.00
1102.142, 21780.00
1103.377, 21240.00
1104.612, 20870.00
1105.846, 20450.00
1107.081, 19680.00
1108.315, 19480.00
1109.549, 19223.84
1110.782, 19374.29
1112.016, 19432.05
1113.249, 19400.06
1114.483, 19123.68
1115.716, 19075.45
1116.948, 18882.52
1118.181, 18646.96
1119.413, 18522.03
1120.646, 18060.00
1121.878, 17814.51
1123.110, 17650.00
1124.341, 17290.00
1125.573, 17200.00
1126.804, 17030.00
1128.035, 16870.00
1129.266, 16781.51
1130.497, 16681.94
1131.727, 16620.00
1132.957, 16560.00
1134.188, 16570.00
1135.418, 16520.00
1136.647, 16490.00
1137.877, 16480.00
1139.106, 16630.00
1140.335, 16460.00
1141.564, 16590.00
1142.793, 16710.00
1144.022, 16330.00
1145.250, 16800.00
1146.479, 16570.00
1147.707, 16430.00
1148.934, 16640.00
1150.162, 16580.00
1151.390, 16760.00
1152.617, 16650.00
1153.844, 16640.00
1155.071, 16920.00
1156.298, 16580.00
1157.524, 16690.00
1158.751, 16540.00
1159.977, 16630.00
1161.203, 16600.00
1162.428, 16440.00
1163.654, 16410.00
1164.879, 16600.00
1166.105, 16430.00
1167.330, 16620.00
1168.555, 16470.00
1169.779, 16560.00
1171.004, 16480.00
1172.228, 16520.00
1173.452, 16530.00
1174.676, 16670.00
1175.900, 16570.00
1177.123, 16720.00
1178.346, 16660.00
1179.570, 16540.00
1180.793, 16870.00
1182.015, 16620.00
1183.238, 16640.00
1184.460, 16760.00
1185.683, 16580.00
1186.905, 16890.00
1188.126, 16780.00
1189.348, 16810.00
1190.569, 16770.00
1191.791, 16680.00
1193.012, 16850.00
1194.233, 16770.00
1195.453, 16660.00
1196.674, 17000.00
1197.894, 16820.00
1199.114, 16760.00
1200.334, 16910.00
1201.554, 16820.00
1202.774, 16990.00
1203.993, 16780.00
1205.212, 16870.00
1206.431, 16857.23
1207.650, 16830.00
1208.869, 16860.00
1210.087, 16950.00
1211.305, 16980.00
1212.524, 17040.00
1213.741, 17170.00
1214.959, 17070.00
1216.177, 17390.00
1217.394, 17020.00
1218.611, 16890.00
1219.828, 17350.00
1221.045, 17010.00
1222.261, 17130.00
1223.478, 17360.00
1224.694, 16950.00
1225.910, 17400.00
1227.126, 17310.00
1228.342, 17240.00
1229.557, 17340.00
1230.772, 17140.00
1231.987, 17330.00
1233.202, 17330.00
1234.417, 17360.00
1235.631, 17320.00
1236.846, 17490.00
1238.060, 17330.00
1239.274, 17630.00
1240.488, 17390.00
1241.701, 17390.00
1242.915, 17520.00
1244.128, 17410.00
1245.341, 17590.00
1246.554, 17610.00
1247.767, 17360.00
1248.979, 17690.00
1250.191, 17430.00
1251.403, 17600.00
1252.615, 17740.00
1253.827, 17310.00
1255.039, 17580.00
1256.250, 17720.00
1257.461, 17470.00
1258.672, 17800.00
1259.883, 17810.00
1261.094, 17640.00
1262.304, 17630.00
1263.514, 17560.00
1264.724, 17780.00
1265.934, 17680.00
1267.144, 17580.00
1268.354, 17950.00
1269.563, 17950.00
1270.772, 17750.00
1271.981, 17900.00
1273.190, 17660.00
1274.398, 17800.00
1275.607, 18100.00
1276.815, 17530.00
1278.023, 17890.00
1279.231, 18000.00
1280.439, 17820.00
1281.646, 17930.00
1282.853, 17630.00
1284.060, 17770.00
1285.267, 18080.00
1286.474, 17650.00
1287.681, 18010.00
1288.887, 17960.00
1290.093, 17740.00
1291.299, 18240.00
1292.505, 17910.00
1293.711, 17830.00
1294.916, 18150.00
1296.121, 17940.00
1297.327, 18080.00
1298.531, 18090.00
1299.736, 17830.00
1300.941, 18230.00
1302.145, 18120.00
1303.349, 17810.00
1304.553, 18270.00
1305.757, 17910.00
1306.961, 18190.00
1308.164, 18010.00
1309.367, 18180.00
1310.570, 18370.00
1311.773, 18210.00
1312.976, 18250.00
1314.178, 18370.00
1315.381, 18150.00
1316.583, 18480.00
1317.785, 18620.00
1318.987, 18190.00
1320.188, 18500.00
1321.390, 18410.00
1322.591, 18240.00
1323.792, 18590.00
1324.993, 18440.00
1326.193, 18410.00
1327.394, 18650.00
1328.594, 18320.00
1329.794, 18610.00
1330.994, 18680.00
1332.194, 18400.00
1333.394, 18760.00
1334.593, 18450.00
1335.792, 18540.00
1336.991, 18950.00
1338.190, 18750.00
1339.389, 18550.00
1340.587, 18970.00
1341.786, 18610.00
1342.984, 18910.00
1344.182, 18880.00
1345.379, 18690.00
1346.577, 18970.00
1347.774, 18760.00
1348.972, 18700.00
1350.169, 19230.00
1351.365, 19170.00
1352.562, 19030.00
1353.759, 19220.00
1354.955, 19048.09
1356.151, 19260.00
1357.347, 18950.00
1358.543, 19040.00
1359.738, 19140.00
1360.934, 18980.00
1362.129, 19040.00
1363.324, 19190.00
1364.519, 18980.00
1365.713, 19390.00
1366.908, 19420.00
1368.102, 18830.00
1369.296, 19210.00
1370.490, 19070.00
1371.684, 18980.00
1372.877, 19280.00
1374.071, 19220.00
1375.264, 19190.00
1376.457, 19500.00
1377.650, 19080.00
1378.843, 19490.00
1380.035, 19310.00
1381.227, 19350.00
1382.419, 19790.00
1383.611, 19530.00
1384.803, 19610.00
1385.995, 19780.00
1387.186, 19520.00
1388.377, 19650.00
1389.568, 19900.00
1390.759, 19460.00
1391.950, 19890.00
1393.140, 19810.00
1394.331, 19530.00
1395.521, 20040.00
1396.711, 19650.00
1397.900, 19580.00
1399.090, 20100.00
1400.279, 19740.00
1401.469, 19820.00
1402.658, 19990.00
1403.847, 19730.00
1405.035, 20160.00
1406.224, 19790.00
1407.412, 19860.00
1408.600, 20000.00
1409.788, 19780.00
1410.976, 19870.00
1412.164, 20180.00
1413.351, 20020.00
1414.538, 20160.00
1415.725, 20290.00
1416.912, 20030.00
1418.099, 20290.00
1419.285, 20380.00
1420.472, 19806.56
1421.658, 20129.83
1422.844, 20330.06
1424.030, 20413.87
1425.215, 20032.52
1426.401, 20251.81
1427.586, 20230.38
1428.771, 20199.07
1429.956, 20502.87
1431.141, 20189.16
1432.325, 20487.61
1433.510, 20541.72
1434.694, 20707.63
1435.878, 20631.37
1437.062, 20629.90
1438.245, 20870.66
1439.429, 20977.31
1440.612, 20873.13
1441.795, 21046.12
1442.978, 20723.89
1444.161, 20836.22
1445.343, 21136.02
1446.526, 21044.01
1447.708, 21221.39
1448.890, 20810.00
1450.072, 20760.00
1451.253, 20970.00
1452.435, 20770.00
1453.616, 20890.00
1454.797, 21130.00
1455.978, 20600.00
1457.159, 21270.00
1458.340, 21140.00
1459.520, 20870.00
1460.700, 21310.00
1461.880, 21120.00
1463.060, 21170.00
1464.240, 21500.00
1465.420, 20990.00
1466.599, 21220.00
1467.778, 21590.00
1468.957, 20990.00
1470.136, 21560.00
1471.315, 21490.00
1472.493, 21100.00
1473.671, 21630.00
1474.849, 21450.00
1476.027, 21070.00
1477.205, 21860.00
1478.383, 21100.00
1479.560, 21580.00
1480.737, 21710.00
1481.914, 21270.00
1483.091, 21810.00
1484.268, 21560.00
1485.444, 21510.00
1486.621, 21820.00
1487.797, 21520.00
1488.973, 21410.00
1490.149, 22020.00
1491.324, 21600.00
1492.500, 21610.00
1493.675, 22070.00
1494.850, 21580.00
1496.025, 21990.00
1497.200, 22000.00
1498.374, 21580.00
1499.548, 21960.00
1500.723, 21840.00
1501.897, 21490.00
1503.071, 22170.00
1504.244, 21930.00
1505.418, 21720.00
1506.591, 22080.00
1507.764, 21760.00
1508.937, 22180.00
1510.110, 22260.00
1511.282, 21850.00
1512.455, 22320.00
1513.627, 22050.00
1514.799, 21960.00
1515.971, 22270.00
##END=



