##NAMES=Albite
##RRUFFID=R050402
##IDEAL CHEMISTRY=NaAlSi_3_O_8_
##LOCALITY=Urbano mine, Golconda District, Brazil
##OWNER=RRUFF
##SOURCE=Bob Downs
##DESCRIPTION=Colorless tabular single crystals associated with fluorapatite R050401
##STATUS=The identification of this mineral has been confirmed by X-ray diffraction and chemical analysis
##URL=rruff.info/R050402
##MEASURED CHEMISTRY=Na_1.00_Al_1.00_Si_3.00_O_8_
##PIN_ID=M00163
##ORIENTATION=Laser parallel to (1 0 1). Fiducial mark perpendicular to laser is parallel to b [0 1 0]
126.7490, 20133.00
127.9790, 19717.00
129.2090, 19951.00
130.4390, 19799.00
131.6680, 19679.00
132.8980, 19845.00
134.1270, 19939.00
135.3560, 19808.00
136.5850, 20102.00
137.8140, 20216.00
139.0430, 20651.00
140.2710, 21013.00
141.5000, 21437.00
142.7280, 21740.00
143.9560, 21856.00
145.1840, 22260.00
146.4120, 22559.00
147.6390, 23305.00
148.8670, 23981.00
150.0940, 24954.00
151.3210, 25705.00
152.5490, 26644.00
153.7750, 27049.00
155.0020, 26748.00
156.2290, 26039.00
157.4550, 25195.00
158.6810, 24848.00
159.9080, 24895.00
161.1340, 25356.00
162.3590, 25674.00
163.5850, 26295.00
164.8110, 26542.00
166.0360, 26245.00
167.2610, 25695.00
168.4860, 24695.00
169.7110, 24027.00
170.9360, 23606.00
172.1610, 23493.00
173.3850, 23738.00
174.6100, 23937.00
175.8340, 24275.00
177.0580, 24625.00
178.2820, 24785.00
179.5050, 25433.00
180.7290, 25786.00
181.9520, 26028.00
183.1760, 26712.00
184.3990, 26791.00
185.6220, 26971.00
186.8450, 27035.00
188.0670, 26973.00
189.2900, 26370.00
190.5120, 25782.00
191.7340, 24822.00
192.9560, 23828.00
194.1780, 22746.00
195.4000, 22366.00
196.6220, 21976.00
197.8430, 21608.00
199.0640, 21645.00
200.2860, 21745.00
201.5070, 21984.00
202.7270, 22136.11
203.9480, 22436.00
205.1690, 22553.00
206.3890, 22841.00
207.6090, 22957.00
208.8290, 23164.00
210.0490, 23476.00
211.2690, 23845.00
212.4890, 23511.00
213.7080, 22712.00
214.9280, 21749.00
216.1470, 20541.00
217.3660, 19723.00
218.5850, 18786.00
219.8030, 18172.00
221.0220, 18019.00
222.2400, 17565.00
223.4590, 17443.00
224.6770, 17244.00
225.8950, 17022.00
227.1120, 16943.71
228.3300, 16941.00
229.5480, 16852.00
230.7650, 16813.73
231.9820, 16826.00
233.1990, 16732.00
234.4160, 16622.00
235.6330, 16613.00
236.8490, 16905.00
238.0660, 16673.00
239.2820, 16794.00
240.4980, 16889.00
241.7140, 16802.00
242.9300, 16877.00
244.1460, 16961.00
245.3610, 16985.00
246.5770, 17118.49
247.7920, 17220.34
249.0070, 17409.00
250.2220, 17529.00
251.4370, 17780.00
252.6510, 18039.00
253.8660, 18022.00
255.0800, 18042.00
256.2940, 18235.00
257.5080, 18041.00
258.7220, 17779.00
259.9360, 18104.00
261.1490, 18454.00
262.3630, 18031.00
263.5760, 17977.00
264.7890, 18238.00
266.0020, 18309.00
267.2150, 18575.00
268.4270, 18829.00
269.6400, 19084.00
270.8520, 19353.00
272.0640, 19279.00
273.2760, 19248.00
274.4880, 19375.00
275.7000, 19413.00
276.9120, 19399.00
278.1230, 19808.00
279.3340, 20083.00
280.5450, 20928.00
281.7560, 21681.00
282.9670, 22755.00
284.1780, 23682.00
285.3880, 24285.00
286.5980, 25370.00
287.8090, 26243.00
289.0190, 27492.00
290.2290, 28525.00
291.4380, 29757.00
292.6480, 30203.00
293.8570, 30171.00
295.0670, 29206.00
296.2760, 27445.00
297.4850, 25229.00
298.6930, 23571.00
299.9020, 21962.00
301.1110, 20773.00
302.3190, 20065.00
303.5270, 19395.00
304.7350, 19012.00
305.9430, 18737.00
307.1510, 18398.00
308.3580, 18183.00
309.5660, 18238.00
310.7730, 17988.00
311.9800, 17958.00
313.1870, 17741.00
314.3940, 17740.00
315.6010, 17746.00
316.8070, 17630.00
318.0130, 17631.00
319.2200, 17687.00
320.4260, 17721.00
321.6310, 17747.00
322.8370, 17740.00
324.0430, 17796.00
325.2480, 17921.00
326.4540, 18043.00
327.6590, 18366.00
328.8640, 18427.00
330.0680, 18717.00
331.2730, 18754.00
332.4780, 18740.00
333.6820, 18529.00
334.8860, 18427.00
336.0900, 18208.00
337.2940, 17966.00
338.4980, 18038.00
339.7010, 17869.00
340.9050, 18016.00
342.1080, 18009.00
343.3110, 18101.00
344.5140, 18249.00
345.7170, 18202.00
346.9200, 18516.00
348.1220, 18605.00
349.3240, 18925.00
350.5270, 18744.00
351.7290, 18760.00
352.9310, 18736.00
354.1320, 18698.00
355.3340, 18788.00
356.5350, 18748.00
357.7370, 18649.00
358.9380, 18782.00
360.1390, 18581.00
361.3400, 18516.00
362.5400, 18538.00
363.7410, 18301.00
364.9410, 18352.00
366.1410, 18364.00
367.3410, 18384.00
368.5410, 18253.00
369.7410, 18068.00
370.9400, 18130.00
372.1400, 18032.00
373.3390, 18051.00
374.5380, 18041.00
375.7370, 17843.00
376.9360, 17859.00
378.1350, 17925.00
379.3330, 17634.00
380.5310, 17826.00
381.7300, 17779.00
382.9280, 17680.00
384.1260, 17901.00
385.3230, 17722.00
386.5210, 17813.00
387.7180, 18000.00
388.9160, 18070.00
390.1130, 18063.00
391.3100, 18427.00
392.5060, 18641.00
393.7030, 18567.91
394.9000, 19108.00
396.0960, 18511.00
397.2920, 18739.00
398.4880, 18871.00
399.6840, 18944.00
400.8800, 19025.00
402.0750, 19060.00
403.2710, 18974.00
404.4660, 19098.00
405.6610, 19140.96
406.8560, 19090.00
408.0510, 19411.00
409.2450, 19540.00
410.4400, 19842.00
411.6340, 19622.00
412.8280, 19610.00
414.0220, 19532.00
415.2160, 19344.00
416.4100, 19516.00
417.6030, 19512.00
418.7970, 19509.00
419.9900, 19532.00
421.1830, 19094.00
422.3760, 18883.00
423.5690, 18574.00
424.7610, 18295.00
425.9540, 18234.00
427.1460, 18328.00
428.3380, 18100.00
429.5300, 18293.00
430.7220, 17931.00
431.9140, 18321.00
433.1050, 18221.00
434.2970, 18322.00
435.4880, 18238.00
436.6790, 18404.00
437.8700, 18424.00
439.0610, 18468.00
440.2510, 18447.00
441.4420, 18622.00
442.6320, 18609.00
443.8220, 18730.00
445.0120, 18872.00
446.2020, 19019.00
447.3910, 19406.00
448.5810, 19966.00
449.7700, 20089.00
450.9600, 20567.00
452.1490, 20873.00
453.3370, 21395.00
454.5260, 21854.00
455.7150, 22439.00
456.9030, 22915.00
458.0910, 22910.00
459.2800, 23205.00
460.4670, 23048.00
461.6550, 23064.00
462.8430, 22519.00
464.0300, 23026.00
465.2180, 23184.00
466.4050, 23768.00
467.5920, 24734.00
468.7790, 26142.00
469.9650, 27964.00
471.1520, 30141.00
472.3380, 31943.27
473.5250, 34435.00
474.7110, 36169.00
475.8970, 38380.00
477.0820, 40692.00
478.2680, 43154.00
479.4540, 45330.00
480.6390, 46331.00
481.8240, 45507.00
483.0090, 42874.00
484.1940, 38841.00
485.3780, 35050.00
486.5630, 31751.00
487.7470, 29497.00
488.9320, 27743.00
490.1160, 26785.00
491.3000, 26411.00
492.4830, 26201.00
493.6670, 26274.00
494.8500, 26782.00
496.0340, 27874.00
497.2170, 29595.00
498.4000, 31556.00
499.5820, 34286.00
500.7650, 36927.00
501.9480, 39369.00
503.1300, 42083.00
504.3120, 44290.00
505.4940, 47380.00
506.6760, 50042.00
507.8580, 52913.00
509.0390, 54344.00
510.2210, 53507.00
511.4020, 50807.00
512.5830, 45797.00
513.7640, 40768.00
514.9450, 36016.00
516.1250, 32096.00
517.3060, 29420.00
518.4860, 27594.00
519.6660, 25971.00
520.8460, 24870.00
522.0260, 23951.00
523.2060, 23590.00
524.3850, 22885.00
525.5650, 22332.00
526.7440, 22181.00
527.9230, 21885.00
529.1020, 21565.00
530.2810, 21415.00
531.4590, 21225.00
532.6380, 21039.00
533.8160, 21044.00
534.9940, 20837.00
536.1720, 20754.00
537.3500, 20834.00
538.5270, 20764.00
539.7050, 20598.00
540.8820, 20378.00
542.0590, 20382.00
543.2360, 20307.79
544.4130, 20387.00
545.5900, 20344.00
546.7660, 20383.00
547.9430, 20442.00
549.1190, 20339.00
550.2950, 20257.00
551.4710, 20381.00
552.6470, 20432.00
553.8220, 20332.00
554.9980, 20342.00
556.1730, 20366.00
557.3480, 20342.00
558.5230, 20200.00
559.6980, 20271.00
560.8730, 20277.00
562.0470, 20287.00
563.2220, 20350.00
564.3960, 20333.00
565.5700, 20355.00
566.7440, 20284.00
567.9170, 20545.00
569.0910, 20428.00
570.2640, 20482.00
571.4380, 20399.00
572.6110, 20694.00
573.7840, 20749.00
574.9570, 21031.00
576.1290, 21049.00
577.3020, 21353.00
578.4740, 21176.00
579.6460, 21365.00
580.8180, 21709.00
581.9900, 21565.00
583.1620, 21675.00
584.3330, 21622.00
585.5040, 21634.00
586.6760, 21641.00
587.8470, 21606.00
589.0180, 21727.00
590.1880, 22021.00
591.3590, 21800.00
592.5290, 21894.00
593.7000, 22171.00
594.8700, 22145.00
596.0400, 22301.00
597.2090, 22333.00
598.3790, 22132.00
599.5490, 21981.00
600.7180, 22086.00
601.8870, 22017.00
603.0560, 21968.00
604.2250, 21942.00
605.3940, 21735.00
606.5620, 21790.00
607.7300, 21527.00
608.8990, 21650.00
610.0670, 21613.00
611.2350, 21455.00
612.4020, 21701.00
613.5700, 21329.00
614.7370, 21531.00
615.9050, 21475.00
617.0720, 21806.00
618.2390, 21555.00
619.4060, 21898.00
620.5720, 21642.00
621.7390, 21981.00
622.9050, 22326.00
624.0710, 22311.00
625.2370, 22611.00
626.4030, 22874.00
627.5690, 22644.00
628.7340, 22594.00
629.9000, 22251.00
631.0650, 22225.00
632.2300, 22196.00
633.3950, 22068.00
634.5600, 21944.00
635.7240, 21937.00
636.8890, 21918.29
638.0530, 22038.00
639.2170, 22031.00
640.3810, 22229.00
641.5450, 22372.00
642.7080, 22455.08
643.8720, 22407.00
645.0350, 22607.00
646.1980, 22792.00
647.3610, 22700.00
648.5240, 22813.00
649.6870, 22882.00
650.8490, 22737.00
652.0120, 22733.95
653.1740, 22530.00
654.3360, 22450.00
655.4980, 22403.00
656.6600, 22112.00
657.8210, 22119.00
658.9830, 21930.00
660.1440, 21968.00
661.3050, 21739.00
662.4660, 21651.00
663.6270, 21528.00
664.7870, 21677.00
665.9480, 21523.63
667.1080, 21517.00
668.2680, 21394.00
669.4280, 21376.00
670.5880, 21330.00
671.7480, 21425.00
672.9070, 21213.00
674.0670, 21423.00
675.2260, 21155.00
676.3850, 21342.00
677.5440, 21245.00
678.7030, 21192.00
679.8610, 21426.00
681.0200, 21379.00
682.1780, 21252.00
683.3360, 21241.00
684.4940, 21279.00
685.6520, 21345.00
686.8090, 21345.00
687.9670, 21200.00
689.1240, 21147.00
690.2810, 21274.00
691.4380, 21222.00
692.5950, 21372.00
693.7520, 21297.00
694.9080, 21502.00
696.0650, 21224.00
697.2210, 21401.00
698.3770, 21436.00
699.5330, 21525.00
700.6880, 21406.00
701.8440, 21609.00
702.9990, 21567.00
704.1550, 21710.00
705.3100, 21556.00
706.4650, 21590.00
707.6190, 21598.00
708.7740, 21615.00
709.9290, 21566.00
711.0830, 21742.00
712.2370, 21583.00
713.3910, 21406.00
714.5450, 21461.00
715.6980, 21695.00
716.8520, 21708.00
718.0050, 21665.00
719.1580, 21766.00
720.3110, 21889.00
721.4640, 22027.00
722.6170, 22018.00
723.7700, 21876.00
724.9220, 22128.00
726.0740, 22132.00
727.2260, 22241.00
728.3780, 22336.00
729.5300, 22234.00
730.6810, 22368.38
731.8330, 22789.00
732.9840, 22522.00
734.1350, 22476.00
735.2860, 22608.00
736.4370, 22330.00
737.5880, 22514.00
738.7380, 22625.00
739.8880, 22375.00
741.0390, 22593.00
742.1890, 22779.00
743.3380, 22731.00
744.4880, 22956.00
745.6380, 23007.00
746.7870, 22926.00
747.9360, 23188.00
749.0850, 23345.00
750.2340, 23474.00
751.3830, 23525.00
752.5310, 23840.00
753.6800, 24115.80
754.8280, 24453.00
755.9760, 25005.00
757.1240, 25611.00
758.2720, 26369.00
759.4190, 26824.00
760.5670, 27677.00
761.7140, 28237.00
762.8610, 29186.00
764.0080, 29069.00
765.1550, 29269.00
766.3020, 28964.00
767.4480, 28415.00
768.5950, 27514.00
769.7410, 26456.00
770.8870, 26413.00
772.0330, 25772.00
773.1780, 25492.00
774.3240, 25270.00
775.4690, 25212.00
776.6140, 25166.00
777.7590, 25089.00
778.9040, 24867.00
780.0490, 24592.00
781.1940, 24601.00
782.3380, 24528.00
783.4820, 24435.00
784.6260, 24441.00
785.7700, 24334.00
786.9140, 24206.00
788.0580, 24349.00
789.2010, 24470.00
790.3450, 24388.00
791.4880, 24413.00
792.6310, 24382.00
793.7730, 24536.00
794.9160, 24666.00
796.0590, 24970.00
797.2010, 25011.00
798.3430, 25335.00
799.4850, 25380.00
800.6270, 25584.00
801.7690, 26137.00
802.9100, 26725.00
804.0520, 27345.00
805.1930, 28266.00
806.3340, 28880.00
807.4750, 29643.00
808.6160, 30194.00
809.7560, 30507.00
810.8970, 30437.00
812.0370, 30846.00
813.1770, 30513.00
814.3170, 30878.00
815.4570, 30633.00
816.5960, 30530.00
817.7360, 30063.00
818.8750, 29526.00
820.0140, 28634.00
821.1530, 27767.00
822.2920, 26883.00
823.4310, 26619.00
824.5690, 26193.00
825.7070, 26046.00
826.8460, 25801.00
827.9840, 25593.00
829.1220, 25555.00
830.2590, 25638.00
831.3970, 25448.00
832.5340, 25488.00
833.6710, 25438.00
834.8080, 25522.00
835.9450, 25373.00
837.0820, 25570.00
838.2190, 25513.00
839.3550, 25512.00
840.4910, 25794.00
841.6270, 25907.00
842.7630, 25970.00
843.8990, 26046.00
845.0350, 26185.94
846.1700, 26316.27
847.3060, 26477.00
848.4410, 26739.00
849.5760, 26928.00
850.7100, 27339.00
851.8450, 27449.00
852.9800, 27774.00
854.1140, 27953.00
855.2480, 28113.00
856.3820, 28195.00
857.5160, 28117.00
858.6500, 28055.00
859.7830, 28104.00
860.9170, 28109.00
862.0500, 27908.00
863.1830, 27604.00
864.3160, 27442.00
865.4480, 27239.00
866.5810, 27102.00
867.7130, 26868.00
868.8460, 26477.00
869.9780, 26367.00
871.1100, 26153.00
872.2410, 26266.00
873.3730, 26086.00
874.5050, 25984.00
875.6360, 26077.00
876.7670, 25853.00
877.8980, 25888.00
879.0290, 25796.00
880.1590, 25891.00
881.2900, 25937.00
882.4200, 25690.00
883.5500, 25605.00
884.6800, 25726.00
885.8100, 25739.00
886.9400, 25817.00
888.0690, 25838.67
889.1990, 25912.00
890.3280, 25829.00
891.4570, 25839.00
892.5860, 25767.00
893.7140, 26056.00
894.8430, 25817.00
895.9710, 25959.00
897.1000, 26219.00
898.2280, 25934.00
899.3560, 26135.00
900.4830, 26141.00
901.6110, 25996.00
902.7380, 26201.00
903.8660, 26156.00
904.9930, 26355.00
906.1200, 26175.00
907.2460, 26212.00
908.3730, 26079.00
909.5000, 26403.00
910.6260, 26424.00
911.7520, 26441.00
912.8780, 26274.00
914.0040, 26331.00
915.1290, 26370.00
916.2550, 26125.00
917.3800, 26119.00
918.5050, 26210.00
919.6300, 26173.00
920.7550, 26275.00
921.8800, 26077.00
923.0040, 26281.00
924.1290, 26258.00
925.2530, 26207.00
926.3770, 26277.00
927.5010, 26076.00
928.6250, 26249.00
929.7480, 26360.00
930.8720, 26299.00
931.9950, 26472.00
933.1180, 26344.00
934.2410, 26482.00
935.3640, 26387.00
936.4860, 26427.00
937.6090, 26482.00
938.7310, 26558.00
939.8530, 26605.00
940.9750, 26490.00
942.0970, 26687.00
943.2180, 26529.00
944.3400, 26668.00
945.4610, 26746.00
946.5820, 26805.00
947.7030, 26688.00
948.8240, 26996.00
949.9450, 26792.00
951.0650, 27182.00
952.1860, 27071.00
953.3060, 27298.00
954.4260, 27276.00
955.5460, 27334.00
956.6650, 27630.00
957.7850, 27463.00
958.9040, 27659.00
960.0230, 27949.00
961.1420, 27875.00
962.2610, 27958.00
963.3800, 27861.00
964.4990, 27795.00
965.6170, 27989.00
966.7350, 28038.00
967.8530, 28027.00
968.9710, 28175.00
970.0890, 28191.00
971.2070, 28261.20
972.3240, 28541.00
973.4410, 28444.00
974.5580, 28538.00
975.6750, 28747.00
976.7920, 28928.00
977.9090, 29111.00
979.0250, 28952.00
980.1410, 28983.00
981.2580, 28861.00
982.3740, 28932.00
983.4890, 29010.00
984.6050, 29107.00
985.7200, 29144.00
986.8360, 28974.00
987.9510, 28819.00
989.0660, 28896.00
990.1810, 28738.00
991.2950, 28882.00
992.4100, 28898.00
993.5240, 29037.00
994.6390, 28928.00
995.7530, 28983.00
996.8660, 29172.00
997.9800, 29314.00
999.0940, 29491.00
1000.207, 29770.00
1001.320, 30087.00
1002.433, 30068.00
1003.546, 30353.00
1004.659, 30382.00
1005.772, 30161.00
1006.884, 29828.00
1007.996, 29539.00
1009.108, 29400.00
1010.220, 29451.00
1011.332, 29280.00
1012.444, 29341.00
1013.555, 29590.00
1014.666, 29577.00
1015.777, 29534.00
1016.888, 29632.00
1017.999, 29396.00
1019.110, 29341.00
1020.220, 29288.00
1021.331, 29242.00
1022.441, 29475.00
1023.551, 29372.00
1024.661, 29300.00
1025.770, 29428.00
1026.880, 29325.00
1027.989, 29025.00
1029.098, 29212.00
1030.207, 29397.00
1031.316, 29633.00
1032.425, 29345.00
1033.533, 29325.00
1034.642, 29309.00
1035.750, 29356.00
1036.858, 29129.00
1037.966, 29277.00
1039.073, 29148.00
1040.181, 29358.00
1041.288, 29333.00
1042.396, 29304.17
1043.503, 29171.00
1044.610, 29280.00
1045.716, 29241.00
1046.823, 29318.00
1047.929, 29194.00
1049.036, 29171.00
1050.142, 29025.00
1051.248, 29188.00
1052.353, 29213.00
1053.459, 29252.00
1054.564, 29041.00
1055.670, 29211.00
1056.775, 29007.00
1057.880, 28866.00
1058.985, 28868.00
1060.089, 29189.00
1061.194, 29145.00
1062.298, 29089.00
1063.402, 29194.00
1064.506, 29098.00
1065.610, 29395.00
1066.713, 29304.00
1067.817, 29232.00
1068.920, 29218.00
1070.023, 29518.00
1071.126, 29358.00
1072.229, 29613.00
1073.332, 29673.00
1074.435, 29607.00
1075.537, 29721.00
1076.639, 29907.00
1077.741, 29975.00
1078.843, 30194.00
1079.945, 30485.00
1081.046, 30668.00
1082.148, 30733.00
1083.249, 30875.00
1084.350, 31250.00
1085.451, 31716.00
1086.551, 31673.00
1087.652, 31984.00
1088.752, 32250.00
1089.853, 32867.00
1090.953, 33234.00
1092.053, 33836.00
1093.152, 34307.00
1094.252, 35159.00
1095.351, 35867.00
1096.451, 36881.00
1097.550, 37323.00
1098.649, 37929.00
1099.748, 38028.00
1100.846, 38378.00
1101.945, 38075.00
1103.043, 37675.00
1104.141, 37378.00
1105.239, 37002.00
1106.337, 36749.88
1107.434, 36277.00
1108.532, 36210.00
1109.629, 36140.00
1110.726, 35762.00
1111.823, 35744.00
1112.920, 35576.00
1114.017, 35526.00
1115.113, 35478.00
1116.210, 34970.00
1117.306, 34942.00
1118.402, 34458.00
1119.498, 34199.00
1120.593, 33969.00
1121.689, 33471.00
1122.784, 33187.00
1123.879, 32855.00
1124.974, 32693.00
1126.069, 32227.00
1127.164, 32013.00
1128.259, 32000.00
1129.353, 31668.00
1130.447, 31465.00
1131.541, 31546.00
1132.635, 31594.00
1133.729, 31247.00
1134.822, 31283.00
1135.916, 31311.00
1137.009, 31277.00
1138.102, 31073.00
1139.195, 31104.00
1140.288, 31286.00
1141.380, 30911.00
1142.473, 31484.00
1143.565, 31138.00
1144.657, 31189.00
1145.749, 31383.00
1146.841, 31508.00
1147.932, 31534.00
1149.024, 31618.00
1150.115, 31403.00
1151.206, 31498.86
1152.297, 31542.30
1153.388, 31585.00
1154.479, 31679.00
1155.569, 31888.00
1156.659, 31867.00
1157.750, 31740.00
1158.839, 31827.00
1159.929, 31591.00
1161.019, 31672.00
1162.108, 31640.00
1163.198, 31708.00
1164.287, 31581.00
1165.376, 31578.72
1166.465, 31749.00
1167.553, 31532.00
1168.642, 31581.00
1169.730, 31680.00
1170.818, 31589.00
1171.906, 31697.00
1172.994, 31612.00
1174.082, 31649.00
1175.170, 31864.00
1176.257, 31783.00
1177.344, 31636.00
1178.431, 31795.00
1179.518, 31711.00
1180.605, 31665.00
1181.691, 31556.00
1182.778, 31600.82
1183.864, 31855.00
1184.950, 31631.00
1186.036, 31877.00
1187.122, 31778.00
1188.207, 31623.00
1189.292, 31684.00
1190.378, 31688.00
1191.463, 31685.00
1192.548, 31705.24
1193.632, 31666.00
1194.717, 31696.00
1195.801, 31631.00
1196.886, 31598.00
1197.970, 31775.00
1199.054, 31572.00
1200.137, 31698.00
1201.221, 31778.00
1202.305, 31651.00
1203.388, 31674.00
1204.471, 31822.00
1205.554, 31718.00
1206.637, 31717.00
1207.719, 31664.00
1208.802, 31969.00
1209.884, 32062.00
1210.966, 31868.00
1212.048, 32190.00
1213.130, 32021.00
1214.212, 32105.00
1215.293, 32199.00
1216.374, 32113.74
1217.456, 32162.00
1218.536, 32112.00
1219.617, 32115.00
1220.698, 32192.00
1221.778, 32435.00
1222.859, 32591.00
1223.939, 32669.00
1225.019, 32553.00
1226.099, 32512.00
1227.178, 32497.00
1228.258, 32656.00
1229.337, 32832.00
1230.417, 32754.00
1231.496, 32673.00
1232.574, 32635.00
1233.653, 32845.00
1234.732, 32939.00
1235.810, 33002.00
1236.888, 33070.00
1237.966, 33375.00
1239.044, 33199.00
1240.122, 33098.00
1241.199, 33332.00
1242.277, 33143.00
1243.354, 33455.00
1244.431, 33295.00
1245.508, 33062.00
1246.585, 33285.00
1247.661, 33550.00
1248.738, 33611.00
1249.814, 33546.00
1250.890, 33511.00
1251.966, 33496.00
1253.042, 33467.00
1254.117, 33569.00
1255.193, 33549.00
1256.268, 33668.00
1257.343, 33791.00
1258.418, 33748.00
1259.493, 33697.00
1260.567, 33955.00
1261.642, 33748.00
1262.716, 33784.00
1263.790, 34197.00
1264.864, 34634.00
1265.938, 34034.00
1267.011, 34085.00
1268.085, 34243.00
1269.158, 34209.00
1270.231, 34240.00
1271.304, 34086.00
1272.377, 34252.00
1273.450, 34269.00
1274.522, 34384.00
1275.594, 34366.00
1276.666, 34547.00
1277.738, 34519.67
1278.810, 34511.70
1279.882, 34484.00
1280.953, 34398.00
1282.025, 34293.00
1283.096, 34170.00
1284.167, 34259.00
1285.238, 33920.00
1286.308, 34062.00
1287.379, 34041.00
1288.449, 34236.00
1289.519, 34204.00
1290.589, 34379.00
1291.659, 34291.00
1292.729, 34582.00
1293.798, 34626.00
1294.868, 34579.00
1295.937, 34558.00
1297.006, 34712.00
1298.075, 34737.00
1299.143, 34831.00
1300.212, 34760.00
1301.280, 34482.00
1302.348, 34569.00
1303.416, 34494.00
1304.484, 34825.00
1305.552, 34480.00
1306.620, 34492.00
1307.687, 34728.00
1308.754, 34715.00
1309.821, 34790.00
1310.888, 34848.00
1311.955, 34889.00
1313.021, 35149.00
1314.088, 34982.00
1315.154, 35176.00
1316.220, 35049.00
1317.286, 35071.00
1318.352, 35119.00
1319.417, 35172.00
1320.483, 35291.00
1321.548, 35043.00
1322.613, 35060.00
1323.678, 34857.00
1324.743, 35033.00
1325.807, 34775.00
1326.872, 34905.00
1327.936, 34886.00
1329.000, 35023.00
1330.064, 34829.00
1331.128, 34747.00
1332.191, 34915.00
1333.255, 34617.00
1334.318, 34718.00
1335.381, 34668.00
1336.444, 34824.00
1337.507, 34751.00
1338.569, 34804.44
1339.632, 34728.00
1340.694, 34856.00
1341.756, 34724.87
1342.818, 34743.46
1343.880, 34703.00
1344.941, 34555.00
1346.003, 34663.00
1347.064, 34830.00
1348.125, 34613.00
1349.186, 34837.00
1350.247, 34908.00
1351.308, 34888.00
1352.368, 34848.00
1353.428, 34899.00
1354.489, 34698.00
1355.549, 34810.00
1356.608, 34713.00
1357.668, 34769.00
1358.727, 34941.00
1359.787, 34909.00
1360.846, 35059.00
1361.905, 35021.00
1362.964, 35060.12
1364.022, 35102.00
1365.081, 35072.00
1366.139, 35041.00
1367.197, 34999.00
1368.255, 35007.00
1369.313, 34996.00
1370.371, 35218.00
1371.428, 35378.00
1372.486, 35418.00
1373.543, 35098.00
1374.600, 35364.00
1375.657, 35440.00
1376.713, 35338.00
1377.770, 35505.00
1378.826, 35516.00
1379.882, 35581.00
1380.938, 35425.00
1381.994, 35593.00
1383.050, 35665.00
1384.106, 35569.00
1385.161, 35667.00
1386.216, 35718.00
1387.271, 35980.00
1388.326, 36002.00
1389.381, 35888.00
1390.435, 35932.00
1391.490, 35744.00
1392.544, 35880.00
1393.598, 35617.00
1394.652, 35892.00
1395.705, 35931.00
1396.759, 35812.00
1397.812, 35861.00
1398.866, 36015.00
1399.919, 35791.00
1400.972, 35967.00
1402.024, 35873.00
1403.077, 36045.00
1404.129, 36036.88
1405.181, 36155.00
1406.233, 36085.00
1407.285, 36094.00
1408.337, 36173.00
1409.389, 35943.00
1410.440, 35942.00
1411.491, 36069.00
1412.542, 36025.00
1413.593, 35786.00
1414.644, 36088.00
1415.695, 36296.00
1416.745, 36213.00
1417.795, 36719.00
1418.845, 36227.00
1419.895, 36542.00
1420.945, 36222.00
1421.995, 36448.00
1423.044, 36691.00
1424.093, 36593.00
1425.142, 36861.00
1426.191, 37084.00
1427.240, 36951.00
1428.289, 37341.00
1429.337, 37439.00
1430.385, 37544.00
1431.433, 37766.00
1432.481, 37898.00
1433.529, 38327.00
1434.577, 38327.00
1435.624, 38660.00
1436.672, 38811.00
1437.719, 39042.00
1438.766, 39118.00
1439.812, 39690.00
1440.859, 40156.00
1441.905, 40592.00
1442.952, 40602.00
1443.998, 41026.00
1445.044, 41137.00
1446.090, 41546.00
1447.135, 41210.00
1448.181, 41435.00
1449.226, 41422.00
1450.271, 41580.00
1451.316, 41535.00
1452.361, 41743.00
1453.405, 41907.00
1454.450, 41758.00
1455.494, 41419.00
1456.538, 41480.00
1457.582, 41386.00
1458.626, 41257.00
1459.670, 41021.00
1460.713, 40904.69
1461.757, 40651.00
1462.800, 40578.00
1463.843, 40308.00
1464.886, 40147.00
1465.928, 39689.00
1466.971, 39509.00
1468.013, 39424.00
1469.055, 39256.00
1470.097, 39255.00
1471.139, 38851.00
1472.181, 39121.00
1473.222, 38961.00
1474.263, 38773.00
1475.305, 38450.00
1476.346, 38673.00
1477.386, 38399.00
1478.427, 38766.00
1479.468, 38473.00
1480.508, 38783.00
1481.548, 38447.00
1482.588, 38621.00
1483.628, 38508.00
1484.668, 38256.00
1485.707, 38264.00
1486.747, 38295.00
1487.786, 38170.00
1488.825, 38172.00
1489.864, 38023.00
1490.902, 38089.00
1491.941, 38095.00
1492.979, 38020.00
1494.017, 38019.00
1495.055, 37828.00
1496.093, 37810.00
1497.131, 37834.00
1498.168, 37881.00
1499.206, 37765.00
1500.243, 37708.00
1501.280, 37638.00
1502.317, 37575.00
1503.354, 37645.00
1504.390, 37812.00
1505.426, 37852.00
1506.463, 37921.49
1507.499, 37828.00
1508.535, 38001.00
1509.570, 37925.00
1510.606, 37943.00
1511.641, 37967.00
1512.676, 37755.00
1513.711, 38001.00
1514.746, 38121.00
1515.781, 37630.00
1516.816, 37802.00
1517.850, 38005.00
1518.884, 38045.00
1519.918, 38124.09
1520.952, 38039.00
1521.986, 38183.00
1523.019, 38089.00
1524.053, 38178.00
1525.086, 38360.00
1526.119, 38301.00
1527.152, 38293.00
1528.185, 38371.00
1529.217, 38440.00
1530.250, 38334.00
1531.282, 38588.00
1532.314, 38416.00
1533.346, 38415.00
1534.377, 38518.00
1535.409, 38253.00
1536.440, 38442.00
1537.472, 38356.00
1538.503, 38599.00
1539.534, 38156.00
1540.564, 38518.00
1541.595, 38495.00
1542.625, 38594.00
1543.656, 38942.00
1544.686, 38806.00
1545.716, 38538.00
1546.745, 38594.00
1547.775, 38435.00
1548.804, 38630.00
1549.834, 38899.00
1550.863, 38856.00
1551.892, 39069.29
1552.920, 39107.34
1553.949, 39195.00
1554.977, 39138.00
1556.006, 38961.00
1557.034, 38856.00
1558.062, 38884.00
1559.089, 38855.00
1560.117, 38828.00
1561.144, 38881.00
1562.172, 38985.00
1563.199, 39066.00
1564.226, 38950.00
1565.252, 39065.00
1566.279, 38909.00
1567.305, 38945.00
1568.332, 39037.00
1569.358, 39019.00
1570.384, 38950.00
1571.409, 39243.00
##END=



