##NAMES=Albite
##RRUFFID=R050402
##IDEAL CHEMISTRY=NaAlSi_3_O_8_
##LOCALITY=Urbano mine, Golconda District, Brazil
##OWNER=RRUFF
##SOURCE=Bob Downs
##DESCRIPTION=Colorless tabular single crystals associated with fluorapatite R050401
##STATUS=The identification of this mineral has been confirmed by X-ray diffraction and chemical analysis
##URL=rruff.info/R050402
##MEASURED CHEMISTRY=Na_1.00_Al_1.00_Si_3.00_O_8_
##PIN_ID=M00139
##ORIENTATION=Laser parallel to c* (0 0 1). Fiducial mark perpendicular to laser is parallel to a [1 0 0]
81.13100, 4126.000
82.36700, 4485.000
83.60200, 5155.000
84.83700, 5686.000
86.07200, 6312.000
87.30800, 7376.000
88.54200, 8587.000
89.77700, 9687.000
91.01200, 8317.000
92.24600, 7417.000
93.48000, 6535.000
94.71400, 6110.000
95.94800, 5943.000
97.18200, 5690.000
98.41600, 5760.000
99.64900, 5736.000
100.8830, 5899.000
102.1160, 5892.000
103.3490, 6137.000
104.5820, 6453.000
105.8150, 6724.000
107.0470, 7340.000
108.2800, 8004.000
109.5120, 8888.000
110.7440, 9879.000
111.9760, 10820.00
113.2080, 12454.00
114.4400, 13985.00
115.6710, 14832.00
116.9030, 14256.00
118.1340, 12546.00
119.3650, 10737.00
120.5960, 9267.000
121.8270, 8338.000
123.0580, 7731.000
124.2880, 7273.000
125.5190, 7007.000
126.7490, 6739.000
127.9790, 6697.000
129.2090, 6652.000
130.4390, 6705.000
131.6680, 6782.000
132.8980, 6845.666
134.1270, 6829.000
135.3560, 7090.000
136.5850, 7185.000
137.8140, 7373.000
139.0430, 7788.000
140.2710, 8184.000
141.5000, 8369.000
142.7280, 9070.000
143.9560, 9726.000
145.1840, 10808.00
146.4120, 11949.00
147.6390, 13460.00
148.8670, 14897.00
150.0940, 16612.00
151.3210, 18329.00
152.5490, 19814.00
153.7750, 19258.00
155.0020, 16909.00
156.2290, 14023.00
157.4550, 11742.00
158.6810, 10062.00
159.9080, 9260.000
161.1340, 8936.000
162.3590, 9052.000
163.5850, 9247.000
164.8110, 9423.000
166.0360, 9691.000
167.2610, 10069.00
168.4860, 10489.00
169.7110, 11615.00
170.9360, 12726.00
172.1610, 13875.00
173.3850, 14171.00
174.6100, 13659.00
175.8340, 13314.00
177.0580, 12785.00
178.2820, 12714.00
179.5050, 13074.00
180.7290, 13461.00
181.9520, 14315.00
183.1760, 15101.00
184.3990, 16065.00
185.6220, 16998.00
186.8450, 17457.00
188.0670, 17593.00
189.2900, 17214.00
190.5120, 16483.00
191.7340, 15359.00
192.9560, 14213.00
194.1780, 13145.00
195.4000, 12559.00
196.6220, 11945.00
197.8430, 11520.00
199.0640, 11530.00
200.2860, 11444.00
201.5070, 11656.00
202.7270, 12224.00
203.9480, 12547.00
205.1690, 13125.00
206.3890, 14442.00
207.6090, 16272.00
208.8290, 18314.00
210.0490, 20197.00
211.2690, 20903.00
212.4890, 20263.00
213.7080, 18163.00
214.9280, 15425.00
216.1470, 13088.00
217.3660, 11126.00
218.5850, 9785.000
219.8030, 8886.000
221.0220, 8341.000
222.2400, 7763.000
223.4590, 7482.000
224.6770, 7201.000
225.8950, 7003.000
227.1120, 6910.000
228.3300, 6773.000
229.5480, 6607.000
230.7650, 6589.000
231.9820, 6497.000
233.1990, 6338.000
234.4160, 6407.000
235.6330, 6475.000
236.8490, 6323.000
238.0660, 6379.000
239.2820, 6394.000
240.4980, 6444.000
241.7140, 6481.000
242.9300, 6571.000
244.1460, 6578.000
245.3610, 6846.000
246.5770, 6902.000
247.7920, 7339.000
249.0070, 7658.000
250.2220, 8194.000
251.4370, 8813.000
252.6510, 9397.000
253.8660, 9765.000
255.0800, 9366.000
256.2940, 8780.000
257.5080, 8164.000
258.7220, 7666.000
259.9360, 7609.000
261.1490, 7504.000
262.3630, 7211.000
263.5760, 7299.000
264.7890, 7360.000
266.0020, 7733.000
267.2150, 7960.000
268.4270, 8391.000
269.6400, 9016.000
270.8520, 9241.000
272.0640, 9193.000
273.2760, 9154.000
274.4880, 8716.000
275.7000, 8303.000
276.9120, 8066.000
278.1230, 7902.000
279.3340, 7886.000
280.5450, 8011.397
281.7560, 8205.000
282.9670, 8654.000
284.1780, 9243.000
285.3880, 9937.000
286.5980, 11062.00
287.8090, 12464.00
289.0190, 14255.00
290.2290, 16343.00
291.4380, 18296.00
292.6480, 19054.00
293.8570, 18646.00
295.0670, 16869.00
296.2760, 14898.00
297.4850, 12783.00
298.6930, 11198.00
299.9020, 9946.000
301.1110, 9071.000
302.3190, 8400.000
303.5270, 8007.000
304.7350, 7722.000
305.9430, 7414.000
307.1510, 7242.000
308.3580, 7063.000
309.5660, 7071.000
310.7730, 7002.000
311.9800, 6962.000
313.1870, 6816.000
314.3940, 6839.000
315.6010, 6742.000
316.8070, 6825.000
318.0130, 6806.000
319.2200, 6860.000
320.4260, 6888.000
321.6310, 7041.000
322.8370, 7269.000
324.0430, 7583.000
325.2480, 7948.000
326.4540, 8682.000
327.6590, 9692.000
328.8640, 10793.00
330.0680, 11792.00
331.2730, 11861.00
332.4780, 11193.00
333.6820, 10198.00
334.8860, 8998.000
336.0900, 8234.000
337.2940, 7701.000
338.4980, 7353.000
339.7010, 7142.000
340.9050, 7020.000
342.1080, 6862.000
343.3110, 6780.000
344.5140, 6650.000
345.7170, 6619.945
346.9200, 6649.000
348.1220, 6590.000
349.3240, 6633.000
350.5270, 6627.000
351.7290, 6516.000
352.9310, 6493.000
354.1320, 6540.000
355.3340, 6585.000
356.5350, 6470.000
357.7370, 6605.000
358.9380, 6442.000
360.1390, 6491.000
361.3400, 6411.000
362.5400, 6508.000
363.7410, 6431.000
364.9410, 6421.000
366.1410, 6448.000
367.3410, 6321.000
368.5410, 6382.000
369.7410, 6435.000
370.9400, 6382.000
372.1400, 6337.000
373.3390, 6415.000
374.5380, 6443.000
375.7370, 6396.000
376.9360, 6400.000
378.1350, 6467.000
379.3330, 6506.000
380.5310, 6495.000
381.7300, 6440.000
382.9280, 6576.000
384.1260, 6507.000
385.3230, 6555.000
386.5210, 6592.000
387.7180, 6540.000
388.9160, 6613.000
390.1130, 6611.000
391.3100, 6704.000
392.5060, 6769.000
393.7030, 6770.000
394.9000, 6864.000
396.0960, 7138.000
397.2920, 7177.000
398.4880, 7390.000
399.6840, 7507.000
400.8800, 7751.000
402.0750, 7813.000
403.2710, 7668.000
404.4660, 7813.000
405.6610, 7910.000
406.8560, 8391.000
408.0510, 8964.000
409.2450, 9383.000
410.4400, 9415.000
411.6340, 9240.000
412.8280, 9045.000
414.0220, 9226.000
415.2160, 9827.000
416.4100, 10895.00
417.6030, 11666.00
418.7970, 11501.00
419.9900, 10585.00
421.1830, 9415.000
422.3760, 8537.000
423.5690, 7972.000
424.7610, 7606.000
425.9540, 7483.000
427.1460, 7235.000
428.3380, 7190.000
429.5300, 7150.000
430.7220, 7156.000
431.9140, 7115.852
433.1050, 7100.000
434.2970, 7083.000
435.4880, 7071.000
436.6790, 7077.000
437.8700, 7207.000
439.0610, 7153.000
440.2510, 7299.000
441.4420, 7304.000
442.6320, 7388.000
443.8220, 7536.000
445.0120, 7641.000
446.2020, 7779.000
447.3910, 8010.000
448.5810, 8238.000
449.7700, 8549.000
450.9600, 8982.000
452.1490, 9581.000
453.3370, 10436.00
454.5260, 11263.00
455.7150, 12432.00
456.9030, 13142.00
458.0910, 13617.00
459.2800, 13333.00
460.4670, 12494.00
461.6550, 11647.00
462.8430, 10971.00
464.0300, 10556.00
465.2180, 10335.00
466.4050, 10233.00
467.5920, 10518.00
468.7790, 10983.00
469.9650, 11815.00
471.1520, 12785.00
472.3380, 14143.00
473.5250, 15947.00
474.7110, 18455.00
475.8970, 22185.00
477.0820, 26618.00
478.2680, 32010.00
479.4540, 36455.00
480.6390, 38093.00
481.8240, 36161.00
483.0090, 31586.00
484.1940, 25884.00
485.3780, 21364.00
486.5630, 17911.00
487.7470, 15461.00
488.9320, 14081.00
490.1160, 13162.00
491.3000, 12398.00
492.4830, 12149.00
493.6670, 12133.00
494.8500, 12453.00
496.0340, 12714.00
497.2170, 13561.00
498.4000, 14800.00
499.5820, 16301.00
500.7650, 18418.00
501.9480, 21383.00
503.1300, 25312.00
504.3120, 30991.00
505.4940, 38116.00
506.6760, 45911.00
507.8580, 52954.00
509.0390, 55313.00
510.2210, 52995.00
511.4020, 46106.00
512.5830, 38023.00
513.7640, 30652.00
514.9450, 24711.00
516.1250, 20719.00
517.3060, 17981.00
518.4860, 15773.00
519.6660, 14322.00
520.8460, 13267.00
522.0260, 12421.00
523.2060, 11676.00
524.3850, 11215.00
525.5650, 10772.00
526.7440, 10436.00
527.9230, 10128.00
529.1020, 9876.000
530.2810, 9643.000
531.4590, 9421.000
532.6380, 9314.030
533.8160, 9176.000
534.9940, 9131.000
536.1720, 9053.000
537.3500, 8915.000
538.5270, 8819.000
539.7050, 8820.000
540.8820, 8750.000
542.0590, 8741.000
543.2360, 8597.000
544.4130, 8651.000
545.5900, 8578.000
546.7660, 8574.000
547.9430, 8471.000
549.1190, 8445.000
550.2950, 8379.000
551.4710, 8332.000
552.6470, 8235.000
553.8220, 8352.000
554.9980, 8368.000
556.1730, 8399.000
557.3480, 8186.000
558.5230, 8240.000
559.6980, 8303.000
560.8730, 8257.000
562.0470, 8301.000
563.2220, 8186.000
564.3960, 8329.000
565.5700, 8240.000
566.7440, 8210.000
567.9170, 8232.000
569.0910, 8265.378
570.2640, 8337.386
571.4380, 8455.000
572.6110, 8572.000
573.7840, 8732.000
574.9570, 8929.000
576.1290, 9216.000
577.3020, 9339.000
578.4740, 9708.000
579.6460, 9985.000
580.8180, 10135.00
581.9900, 9969.000
583.1620, 9634.000
584.3330, 9393.000
585.5040, 9113.000
586.6760, 8967.000
587.8470, 8683.000
589.0180, 8551.000
590.1880, 8387.000
591.3590, 8296.000
592.5290, 8295.000
593.7000, 8228.000
594.8700, 8185.000
596.0400, 8248.000
597.2090, 8073.000
598.3790, 8204.000
599.5490, 8133.000
600.7180, 8235.000
601.8870, 8215.000
603.0560, 8133.000
604.2250, 8134.000
605.3940, 8056.000
606.5620, 8135.000
607.7300, 8188.000
608.8990, 8134.000
610.0670, 8272.000
611.2350, 8193.000
612.4020, 8331.000
613.5700, 8148.000
614.7370, 8235.000
615.9050, 8203.000
617.0720, 8257.000
618.2390, 8218.000
619.4060, 8206.000
620.5720, 8236.000
621.7390, 8271.000
622.9050, 8309.000
624.0710, 8405.000
625.2370, 8474.000
626.4030, 8513.000
627.5690, 8496.000
628.7340, 8590.000
629.9000, 8607.000
631.0650, 8581.000
632.2300, 8611.000
633.3950, 8660.000
634.5600, 8618.000
635.7240, 8675.000
636.8890, 8728.000
638.0530, 8583.000
639.2170, 8727.000
640.3810, 8840.000
641.5450, 8936.000
642.7080, 9044.278
643.8720, 9073.000
645.0350, 9206.000
646.1980, 9375.000
647.3610, 9418.755
648.5240, 9414.000
649.6870, 9442.000
650.8490, 9327.000
652.0120, 9269.000
653.1740, 9106.000
654.3360, 8951.000
655.4980, 8868.000
656.6600, 8710.000
657.8210, 8636.000
658.9830, 8555.000
660.1440, 8541.000
661.3050, 8659.000
662.4660, 8593.000
663.6270, 8591.000
664.7870, 8610.000
665.9480, 8582.000
667.1080, 8633.000
668.2680, 8481.000
669.4280, 8540.000
670.5880, 8472.000
671.7480, 8494.000
672.9070, 8566.000
674.0670, 8546.000
675.2260, 8533.000
676.3850, 8571.000
677.5440, 8593.000
678.7030, 8518.000
679.8610, 8528.000
681.0200, 8485.000
682.1780, 8506.000
683.3360, 8503.000
684.4940, 8612.000
685.6520, 8591.000
686.8090, 8565.000
687.9670, 8586.000
689.1240, 8562.244
690.2810, 8552.000
691.4380, 8557.000
692.5950, 8593.000
693.7520, 8616.000
694.9080, 8600.000
696.0650, 8657.000
697.2210, 8662.000
698.3770, 8690.000
699.5330, 8721.000
700.6880, 8692.000
701.8440, 8717.000
702.9990, 8658.000
704.1550, 8718.000
705.3100, 8740.000
706.4650, 8660.000
707.6190, 8718.000
708.7740, 8826.000
709.9290, 8678.000
711.0830, 8843.000
712.2370, 8777.000
713.3910, 8844.000
714.5450, 8889.000
715.6980, 8920.000
716.8520, 8985.179
718.0050, 9024.391
719.1580, 9086.000
720.3110, 9106.000
721.4640, 9132.829
722.6170, 9140.000
723.7700, 9127.000
724.9220, 9143.000
726.0740, 9128.000
727.2260, 9134.000
728.3780, 9106.951
729.5300, 9051.000
730.6810, 9059.000
731.8330, 9091.000
732.9840, 9103.000
734.1350, 9180.000
735.2860, 9151.000
736.4370, 9264.000
737.5880, 9193.000
738.7380, 9287.000
739.8880, 9300.000
741.0390, 9326.000
742.1890, 9450.000
743.3380, 9343.000
744.4880, 9663.000
745.6380, 9550.000
746.7870, 9767.000
747.9360, 9784.000
749.0850, 9902.000
750.2340, 9942.000
751.3830, 10213.00
752.5310, 10344.00
753.6800, 10657.00
754.8280, 11131.00
755.9760, 11457.00
757.1240, 12091.00
758.2720, 12920.00
759.4190, 13867.00
760.5670, 15229.00
761.7140, 16790.00
762.8610, 18603.00
764.0080, 19888.00
765.1550, 20136.00
766.3020, 19395.00
767.4480, 17833.00
768.5950, 16049.00
769.7410, 14338.00
770.8870, 13282.00
772.0330, 12391.00
773.1780, 11761.00
774.3240, 11418.00
775.4690, 10946.00
776.6140, 10695.00
777.7590, 10646.00
778.9040, 10377.00
780.0490, 10283.00
781.1940, 10300.00
782.3380, 10121.00
783.4820, 9987.000
784.6260, 10081.00
785.7700, 10002.00
786.9140, 10009.00
788.0580, 10080.00
789.2010, 9946.000
790.3450, 9910.000
791.4880, 10041.00
792.6310, 10038.00
793.7730, 10025.00
794.9160, 10051.00
796.0590, 10075.00
797.2010, 10278.00
798.3430, 10265.00
799.4850, 10424.00
800.6270, 10514.00
801.7690, 10658.00
802.9100, 10761.00
804.0520, 11017.00
805.1930, 11231.00
806.3340, 11641.00
807.4750, 12286.00
808.6160, 12810.00
809.7560, 13626.00
810.8970, 14765.00
812.0370, 16248.00
813.1770, 17922.00
814.3170, 19591.00
815.4570, 21309.00
816.5960, 21949.00
817.7360, 21376.00
818.8750, 20095.00
820.0140, 17984.00
821.1530, 16001.00
822.2920, 14507.00
823.4310, 13379.00
824.5690, 12691.00
825.7070, 11898.00
826.8460, 11608.00
827.9840, 11338.00
829.1220, 11122.00
830.2590, 10882.00
831.3970, 10867.00
832.5340, 10758.00
833.6710, 10668.00
834.8080, 10568.00
835.9450, 10522.66
837.0820, 10399.00
838.2190, 10450.00
839.3550, 10475.00
840.4910, 10447.00
841.6270, 10404.00
842.7630, 10310.00
843.8990, 10282.00
845.0350, 10252.86
846.1700, 10259.00
847.3060, 10235.00
848.4410, 10261.00
849.5760, 10275.00
850.7100, 10378.00
851.8450, 10192.00
852.9800, 10129.00
854.1140, 10303.00
855.2480, 10271.00
856.3820, 10107.00
857.5160, 10255.00
858.6500, 10221.00
859.7830, 10243.00
860.9170, 10126.00
862.0500, 10185.00
863.1830, 10293.00
864.3160, 10144.00
865.4480, 10199.00
866.5810, 10235.00
867.7130, 10252.00
868.8460, 10267.00
869.9780, 10277.48
871.1100, 10254.00
872.2410, 10274.00
873.3730, 10256.00
874.5050, 10234.00
875.6360, 10244.00
876.7670, 10193.00
877.8980, 10199.00
879.0290, 10199.00
880.1590, 10216.00
881.2900, 10250.00
882.4200, 10245.00
883.5500, 10323.00
884.6800, 10278.00
885.8100, 10328.96
886.9400, 10324.00
888.0690, 10363.00
889.1990, 10325.00
890.3280, 10282.00
891.4570, 10255.00
892.5860, 10260.16
893.7140, 10359.00
894.8430, 10315.00
895.9710, 10397.00
897.1000, 10481.00
898.2280, 10363.00
899.3560, 10468.00
900.4830, 10413.00
901.6110, 10391.00
902.7380, 10509.00
903.8660, 10592.00
904.9930, 10369.00
906.1200, 10340.00
907.2460, 10597.00
908.3730, 10435.00
909.5000, 10494.00
910.6260, 10503.00
911.7520, 10522.00
912.8780, 10508.00
914.0040, 10646.00
915.1290, 10470.00
916.2550, 10501.00
917.3800, 10627.00
918.5050, 10468.00
919.6300, 10543.00
920.7550, 10660.00
921.8800, 10466.00
923.0040, 10680.00
924.1290, 10694.00
925.2530, 10524.00
926.3770, 10697.00
927.5010, 10639.00
928.6250, 10655.00
929.7480, 10521.00
930.8720, 10674.00
931.9950, 10746.00
933.1180, 10735.00
934.2410, 10745.00
935.3640, 10741.00
936.4860, 10711.00
937.6090, 10760.00
938.7310, 10832.00
939.8530, 10779.00
940.9750, 10831.00
942.0970, 10772.00
943.2180, 10890.00
944.3400, 10778.00
945.4610, 10898.00
946.5820, 10873.00
947.7030, 10873.00
948.8240, 10792.00
949.9450, 10860.00
951.0650, 10862.16
952.1860, 10896.00
953.3060, 10955.00
954.4260, 11027.00
955.5460, 11100.00
956.6650, 11060.00
957.7850, 11183.00
958.9040, 11026.00
960.0230, 11119.00
961.1420, 11192.00
962.2610, 11166.00
963.3800, 11320.00
964.4990, 11436.00
965.6170, 11278.00
966.7350, 11473.00
967.8530, 11592.00
968.9710, 11615.00
970.0890, 11793.00
971.2070, 11943.00
972.3240, 12036.00
973.4410, 12380.00
974.5580, 12673.00
975.6750, 12849.00
976.7920, 13297.00
977.9090, 13521.00
979.0250, 13610.00
980.1410, 13673.41
981.2580, 13646.00
982.3740, 13434.00
983.4890, 13058.00
984.6050, 12750.00
985.7200, 12395.00
986.8360, 12203.00
987.9510, 11916.00
989.0660, 11908.00
990.1810, 11691.00
991.2950, 11783.00
992.4100, 11574.00
993.5240, 11714.00
994.6390, 11581.00
995.7530, 11574.00
996.8660, 11564.00
997.9800, 11500.00
999.0940, 11701.00
1000.207, 11660.00
1001.320, 11734.00
1002.433, 11787.00
1003.546, 12005.00
1004.659, 11767.00
1005.772, 11897.00
1006.884, 11828.00
1007.996, 11791.00
1009.108, 11958.00
1010.220, 12032.00
1011.332, 11740.00
1012.444, 11977.00
1013.555, 11979.00
1014.666, 12210.00
1015.777, 11827.00
1016.888, 11871.00
1017.999, 11859.00
1019.110, 11864.00
1020.220, 11823.00
1021.331, 11845.00
1022.441, 11698.00
1023.551, 11569.00
1024.661, 11659.00
1025.770, 11846.00
1026.880, 11593.00
1027.989, 11739.00
1029.098, 11745.00
1030.207, 11850.00
1031.316, 11829.00
1032.425, 11802.00
1033.533, 11792.00
1034.642, 11761.00
1035.750, 11782.85
1036.858, 11825.00
1037.966, 11797.00
1039.073, 11957.00
1040.181, 11904.00
1041.288, 11944.00
1042.396, 12058.00
1043.503, 12034.00
1044.610, 11979.00
1045.716, 11931.00
1046.823, 11955.90
1047.929, 12130.00
1049.036, 12012.00
1050.142, 12035.00
1051.248, 12066.00
1052.353, 11935.00
1053.459, 11881.00
1054.564, 11983.00
1055.670, 11910.00
1056.775, 11798.00
1057.880, 11767.00
1058.985, 11859.00
1060.089, 11844.00
1061.194, 11890.00
1062.298, 11894.00
1063.402, 11840.00
1064.506, 11807.00
1065.610, 11713.00
1066.713, 11778.00
1067.817, 11743.00
1068.920, 11805.00
1070.023, 11760.00
1071.126, 11840.00
1072.229, 11811.00
1073.332, 11766.00
1074.435, 11845.00
1075.537, 12067.00
1076.639, 12019.00
1077.741, 11938.00
1078.843, 12133.00
1079.945, 11994.00
1081.046, 12141.00
1082.148, 12184.00
1083.249, 12321.00
1084.350, 12326.00
1085.451, 12278.00
1086.551, 12352.00
1087.652, 12420.00
1088.752, 12705.00
1089.853, 12700.00
1090.953, 12891.00
1092.053, 12940.00
1093.152, 13154.00
1094.252, 13536.00
1095.351, 13760.00
1096.451, 14216.00
1097.550, 14589.00
1098.649, 14863.00
1099.748, 14962.63
1100.846, 15132.00
1101.945, 14843.00
1103.043, 14525.00
1104.141, 14179.00
1105.239, 14004.00
1106.337, 13762.00
1107.434, 13495.00
1108.532, 13354.40
1109.629, 13109.00
1110.726, 13080.00
1111.823, 12901.00
1112.920, 12857.00
1114.017, 12711.00
1115.113, 12619.00
1116.210, 12727.00
1117.306, 12606.00
1118.402, 12580.00
1119.498, 12613.00
1120.593, 12608.00
1121.689, 12638.00
1122.784, 12726.00
1123.879, 12597.00
1124.974, 12460.00
1126.069, 12509.00
1127.164, 12495.00
1128.259, 12521.00
1129.353, 12382.00
1130.447, 12361.00
1131.541, 12251.00
1132.635, 12101.00
1133.729, 12160.00
1134.822, 12145.00
1135.916, 12166.00
1137.009, 12228.00
1138.102, 12093.00
1139.195, 12139.00
1140.288, 12106.00
1141.380, 12164.00
1142.473, 12125.00
1143.565, 12096.00
1144.657, 12134.00
1145.749, 12168.00
1146.841, 12240.00
1147.932, 12133.00
1149.024, 12069.00
1150.115, 12359.00
1151.206, 12292.00
1152.297, 12241.00
1153.388, 12246.00
1154.479, 12197.00
1155.569, 12188.42
1156.659, 12187.51
1157.750, 12168.00
1158.839, 12159.00
1159.929, 12155.00
1161.019, 12166.06
1162.108, 12174.00
1163.198, 12208.00
1164.287, 12196.00
1165.376, 12223.00
1166.465, 12154.00
1167.553, 12243.00
1168.642, 12211.00
1169.730, 12237.00
1170.818, 12380.00
1171.906, 12268.00
1172.994, 12361.00
1174.082, 12257.00
1175.170, 12458.00
1176.257, 12242.00
1177.344, 12363.00
1178.431, 12233.00
1179.518, 12199.00
1180.605, 12372.00
1181.691, 12305.00
1182.778, 12207.00
1183.864, 12294.00
1184.950, 12402.00
1186.036, 12251.00
1187.122, 12443.00
1188.207, 12424.00
1189.292, 12393.00
1190.378, 12356.00
1191.463, 12232.00
1192.548, 12338.00
1193.632, 12109.00
1194.717, 12478.00
1195.801, 12300.00
1196.886, 12458.00
1197.970, 12453.00
1199.054, 12419.00
1200.137, 12392.00
1201.221, 12478.00
1202.305, 12479.00
1203.388, 12334.00
1204.471, 12418.00
1205.554, 12417.00
1206.637, 12498.00
1207.719, 12496.00
1208.802, 12527.00
1209.884, 12537.00
1210.966, 12491.00
1212.048, 12416.00
1213.130, 12504.00
1214.212, 12454.00
1215.293, 12433.00
1216.374, 12597.00
1217.456, 12497.00
1218.536, 12371.00
1219.617, 12523.00
1220.698, 12692.00
1221.778, 12570.00
1222.859, 12506.00
1223.939, 12645.00
1225.019, 12511.00
1226.099, 12457.00
1227.178, 12483.00
1228.258, 12397.00
1229.337, 12548.00
1230.417, 12440.00
1231.496, 12698.00
1232.574, 12522.00
1233.653, 12555.00
1234.732, 12592.00
1235.810, 12702.00
1236.888, 12578.00
1237.966, 12642.00
1239.044, 12553.00
1240.122, 12645.00
1241.199, 12662.00
1242.277, 12696.00
1243.354, 12742.00
1244.431, 12754.00
1245.508, 12749.00
1246.585, 12779.00
1247.661, 12765.24
1248.738, 12770.45
1249.814, 12760.00
1250.890, 12745.00
1251.966, 12763.00
1253.042, 12708.00
1254.117, 12749.00
1255.193, 12718.00
1256.268, 12705.00
1257.343, 12757.00
1258.418, 12739.00
1259.493, 12805.00
1260.567, 12766.00
1261.642, 12879.00
1262.716, 12814.00
1263.790, 12780.00
1264.864, 12798.00
1265.938, 12907.00
1267.011, 12856.00
1268.085, 12847.00
1269.158, 12818.00
1270.231, 13017.00
1271.304, 12911.00
1272.377, 12907.00
1273.450, 12971.00
1274.522, 12867.00
1275.594, 12905.00
1276.666, 13005.00
1277.738, 12891.00
1278.810, 12936.00
1279.882, 12969.00
1280.953, 12856.00
1282.025, 12852.00
1283.096, 12988.00
1284.167, 12946.00
1285.238, 12943.00
1286.308, 12887.00
1287.379, 12880.00
1288.449, 12848.00
1289.519, 12872.16
1290.589, 13003.00
1291.659, 12941.00
1292.729, 13022.00
1293.798, 13057.00
1294.868, 13066.00
1295.937, 13151.00
1297.006, 13016.00
1298.075, 12886.00
1299.143, 12917.00
1300.212, 12965.00
1301.280, 13091.00
1302.348, 13148.00
1303.416, 12979.00
1304.484, 13112.00
1305.552, 12965.00
1306.620, 13123.00
1307.687, 13148.00
1308.754, 13105.00
1309.821, 13165.00
1310.888, 13028.00
1311.955, 13092.00
1313.021, 13092.00
1314.088, 13061.00
1315.154, 13177.00
1316.220, 13217.00
1317.286, 13173.00
1318.352, 13085.00
1319.417, 13153.00
1320.483, 13063.00
1321.548, 13159.00
1322.613, 13115.00
1323.678, 13151.00
1324.743, 13083.00
1325.807, 13191.00
1326.872, 13214.00
1327.936, 13198.00
1329.000, 13170.00
1330.064, 13234.00
1331.128, 13075.00
1332.191, 13207.00
1333.255, 13264.00
1334.318, 13172.00
1335.381, 13162.00
1336.444, 13234.00
1337.507, 13233.00
1338.569, 13245.00
1339.632, 13432.00
1340.694, 13253.00
1341.756, 13171.00
1342.818, 13160.00
1343.880, 13351.00
1344.941, 13282.00
1346.003, 13368.00
1347.064, 13376.00
1348.125, 13373.00
1349.186, 13289.00
1350.247, 13293.00
1351.308, 13311.00
1352.368, 13358.00
1353.428, 13359.00
1354.489, 13354.00
1355.549, 13366.00
1356.608, 13379.36
1357.668, 13379.72
1358.727, 13421.00
1359.787, 13365.00
1360.846, 13383.00
1361.905, 13323.51
1362.964, 13337.46
1364.022, 13257.00
1365.081, 13397.00
1366.139, 13384.00
1367.197, 13499.00
1368.255, 13419.00
1369.313, 13340.00
1370.371, 13403.00
1371.428, 13384.00
1372.486, 13613.00
1373.543, 13438.00
1374.600, 13535.00
1375.657, 13508.00
1376.713, 13333.00
1377.770, 13381.00
1378.826, 13435.00
1379.882, 13499.00
1380.938, 13629.00
1381.994, 13590.00
1383.050, 13573.00
1384.106, 13401.00
1385.161, 13446.00
1386.216, 13581.00
1387.271, 13673.00
1388.326, 13521.00
1389.381, 13424.00
1390.435, 13528.00
1391.490, 13565.00
1392.544, 13375.00
1393.598, 13522.00
1394.652, 13434.00
1395.705, 13616.00
1396.759, 13626.00
1397.812, 13508.00
1398.866, 13470.00
1399.919, 13501.00
1400.972, 13628.00
1402.024, 13682.00
1403.077, 13667.00
1404.129, 13645.00
1405.181, 13660.00
1406.233, 13538.00
1407.285, 13569.90
1408.337, 13658.00
1409.389, 13566.00
1410.440, 13564.00
1411.491, 13572.37
1412.542, 13704.00
1413.593, 13685.00
1414.644, 13785.00
1415.695, 13852.00
1416.745, 13752.00
1417.795, 13761.00
1418.845, 13722.00
1419.895, 13710.00
1420.945, 13871.00
1421.995, 13931.00
1423.044, 13735.00
1424.093, 13792.00
1425.142, 13694.00
1426.191, 13809.00
1427.240, 13941.00
1428.289, 13848.00
1429.337, 13734.00
1430.385, 13744.00
1431.433, 13892.00
1432.481, 13882.00
1433.529, 13942.00
1434.577, 13773.00
1435.624, 13821.00
1436.672, 13965.00
1437.719, 14050.00
1438.766, 13880.00
1439.812, 14082.00
1440.859, 14090.00
1441.905, 13988.00
1442.952, 14094.00
1443.998, 14116.00
1445.044, 14127.00
1446.090, 14091.00
1447.135, 14027.00
1448.181, 14135.00
1449.226, 14121.00
1450.271, 14262.00
1451.316, 14180.00
1452.361, 14047.00
1453.405, 14217.00
1454.450, 14208.00
1455.494, 14312.00
1456.538, 14210.00
1457.582, 14299.00
1458.626, 14193.00
1459.670, 14200.00
1460.713, 14371.00
1461.757, 14242.00
1462.800, 14175.00
1463.843, 14209.00
1464.886, 14168.07
1465.928, 14249.00
1466.971, 14195.00
1468.013, 14231.00
1469.055, 14216.00
1470.097, 14179.00
1471.139, 14204.00
1472.181, 14258.00
1473.222, 14304.00
1474.263, 14340.00
1475.305, 14220.00
1476.346, 14244.00
1477.386, 14315.00
1478.427, 14188.00
1479.468, 14418.00
1480.508, 14307.00
1481.548, 14371.00
1482.588, 14230.00
1483.628, 14348.00
1484.668, 14448.00
1485.707, 14407.00
1486.747, 14393.00
1487.786, 14375.00
1488.825, 14354.00
1489.864, 14329.00
1490.902, 14494.00
1491.941, 14363.00
1492.979, 14404.00
1494.017, 14278.00
1495.055, 14454.00
1496.093, 14439.00
1497.131, 14432.00
1498.168, 14373.00
1499.206, 14340.00
1500.243, 14392.00
1501.280, 14291.00
1502.317, 14388.00
1503.354, 14375.00
1504.390, 14464.00
1505.426, 14351.00
1506.463, 14283.00
1507.499, 14483.00
1508.535, 14708.00
1509.570, 14553.00
1510.606, 14477.00
1511.641, 14645.00
1512.676, 14473.00
1513.711, 14651.00
1514.746, 14591.00
1515.781, 14525.00
1516.816, 14411.00
1517.850, 14483.00
1518.884, 14529.00
1519.918, 14580.00
1520.952, 14632.33
1521.986, 14664.06
1523.019, 14730.00
1524.053, 14686.00
1525.086, 14738.00
1526.119, 14663.00
1527.152, 14712.00
1528.185, 14661.00
1529.217, 14714.00
1530.250, 14702.57
1531.282, 14598.00
1532.314, 14750.00
1533.346, 14705.00
1534.377, 14832.00
1535.409, 14814.00
1536.440, 14668.00
1537.472, 14616.00
1538.503, 14819.00
1539.534, 14943.00
1540.564, 14830.00
1541.595, 14827.00
1542.625, 14780.00
1543.656, 14895.00
1544.686, 14815.00
1545.716, 14919.00
1546.745, 14942.00
1547.775, 14902.57
1548.804, 14869.00
1549.834, 14862.00
1550.863, 14888.50
1551.892, 15006.00
1552.920, 14978.00
1553.949, 15058.25
1554.977, 15101.00
1556.006, 15086.00
1557.034, 14944.00
1558.062, 14852.00
1559.089, 14907.00
1560.117, 15067.00
1561.144, 14966.00
1562.172, 15098.00
1563.199, 15060.00
1564.226, 15043.00
1565.252, 14930.00
1566.279, 14986.00
1567.305, 15044.00
1568.332, 15110.00
1569.358, 15070.00
1570.384, 15067.00
##END=



