##NAMES=Albite
##RRUFFID=R050402
##IDEAL CHEMISTRY=NaAlSi_3_O_8_
##LOCALITY=Urbano mine, Golconda District, Brazil
##OWNER=RRUFF
##SOURCE=Bob Downs
##DESCRIPTION=Colorless tabular single crystals associated with fluorapatite R050401
##STATUS=The identification of this mineral has been confirmed by X-ray diffraction and chemical analysis
##URL=rruff.info/R050402
##MEASURED CHEMISTRY=Na_1.00_Al_1.00_Si_3.00_O_8_
##PIN_ID=M00068
##ORIENTATION=Laser parallel to a* (1 0 0). Fiducial mark perpendicular to laser is parallel to b [0 1 0]
86.07200, 4139.000
87.30800, 4188.000
88.54200, 4189.000
89.77700, 4195.000
91.01200, 4197.000
92.24600, 4263.396
93.48000, 4333.000
94.71400, 4419.000
95.94800, 4492.000
97.18200, 4585.000
98.41600, 4719.000
99.64900, 4875.000
100.8830, 5033.000
102.1160, 5134.000
103.3490, 5401.000
104.5820, 5665.000
105.8150, 6078.000
107.0470, 6651.000
108.2800, 7324.000
109.5120, 8237.000
110.7440, 8994.000
111.9760, 9493.000
113.2080, 9562.613
114.4400, 9548.000
115.6710, 8960.000
116.9030, 8258.000
118.1340, 7327.000
119.3650, 6694.000
120.5960, 6272.000
121.8270, 5883.000
123.0580, 5737.000
124.2880, 5820.000
125.5190, 5545.000
126.7490, 5645.000
127.9790, 5736.000
129.2090, 5712.000
130.4390, 5644.000
131.6680, 5859.000
132.8980, 5818.000
134.1270, 5993.000
135.3560, 6095.000
136.5850, 6238.000
137.8140, 6471.396
139.0430, 6700.000
140.2710, 6962.000
141.5000, 7152.000
142.7280, 7412.000
143.9560, 7470.000
145.1840, 7290.000
146.4120, 7402.000
147.6390, 7380.000
148.8670, 7554.000
150.0940, 7544.000
151.3210, 7576.000
152.5490, 7622.000
153.7750, 7651.000
155.0020, 7695.000
156.2290, 7741.000
157.4550, 8030.000
158.6810, 8230.000
159.9080, 8498.000
161.1340, 8845.000
162.3590, 9185.000
163.5850, 9220.000
164.8110, 9533.000
166.0360, 9772.000
167.2610, 10403.00
168.4860, 10998.00
169.7110, 11266.00
170.9360, 11408.00
172.1610, 10855.00
173.3850, 10428.00
174.6100, 10005.00
175.8340, 9691.000
177.0580, 9603.000
178.2820, 9777.000
179.5050, 9991.000
180.7290, 10278.00
181.9520, 10501.00
183.1760, 10783.00
184.3990, 10928.00
185.6220, 10960.00
186.8450, 10741.00
188.0670, 10483.00
189.2900, 10248.00
190.5120, 9840.000
191.7340, 9484.000
192.9560, 9364.000
194.1780, 9199.000
195.4000, 9037.000
196.6220, 8990.000
197.8430, 8960.000
199.0640, 8948.000
200.2860, 9387.000
201.5070, 9624.000
202.7270, 10163.00
203.9480, 10663.00
205.1690, 11360.00
206.3890, 12288.00
207.6090, 12929.00
208.8290, 13302.00
210.0490, 12749.00
211.2690, 11836.00
212.4890, 10874.00
213.7080, 9877.000
214.9280, 9129.000
216.1470, 8501.000
217.3660, 8160.000
218.5850, 7928.000
219.8030, 7618.000
221.0220, 7436.000
222.2400, 7346.000
223.4590, 7313.000
224.6770, 7185.000
225.8950, 7163.000
227.1120, 7198.000
228.3300, 7167.000
229.5480, 7247.000
230.7650, 7125.000
231.9820, 7230.000
233.1990, 7181.000
234.4160, 7215.000
235.6330, 7110.000
236.8490, 7181.000
238.0660, 7162.000
239.2820, 7328.000
240.4980, 7363.000
241.7140, 7385.000
242.9300, 7401.000
244.1460, 7539.000
245.3610, 7677.000
246.5770, 7722.000
247.7920, 7851.000
249.0070, 8161.000
250.2220, 8336.000
251.4370, 8435.000
252.6510, 8414.000
253.8660, 8418.000
255.0800, 8303.000
256.2940, 8080.000
257.5080, 8152.000
258.7220, 7948.000
259.9360, 8149.000
261.1490, 8262.000
262.3630, 8135.000
263.5760, 8336.000
264.7890, 8482.000
266.0020, 8651.000
267.2150, 8948.000
268.4270, 9105.000
269.6400, 9208.000
270.8520, 9154.000
272.0640, 9014.000
273.2760, 9046.000
274.4880, 9056.000
275.7000, 8823.000
276.9120, 9171.000
278.1230, 9177.000
279.3340, 9434.000
280.5450, 9736.000
281.7560, 10126.00
282.9670, 10736.00
284.1780, 11565.00
285.3880, 12732.00
286.5980, 13822.00
287.8090, 15315.00
289.0190, 16320.00
290.2290, 16840.00
291.4380, 16420.00
292.6480, 15412.00
293.8570, 14149.00
295.0670, 12594.00
296.2760, 11516.00
297.4850, 10706.00
298.6930, 10105.00
299.9020, 9765.000
301.1110, 9502.000
302.3190, 9272.000
303.5270, 9088.018
304.7350, 8965.000
305.9430, 8827.000
307.1510, 8828.000
308.3580, 8733.000
309.5660, 8739.000
310.7730, 8803.000
311.9800, 8771.000
313.1870, 8708.000
314.3940, 8728.000
315.6010, 8744.000
316.8070, 8791.000
318.0130, 8858.000
319.2200, 9025.000
320.4260, 9171.000
321.6310, 9268.000
322.8370, 9478.000
324.0430, 9765.000
325.2480, 10592.00
326.4540, 11157.00
327.6590, 11560.00
328.8640, 11556.00
330.0680, 11248.00
331.2730, 10691.00
332.4780, 10127.00
333.6820, 9768.000
334.8860, 9419.000
336.0900, 9391.000
337.2940, 9167.000
338.4980, 9153.000
339.7010, 9101.000
340.9050, 9081.000
342.1080, 8913.000
343.3110, 9104.000
344.5140, 9174.000
345.7170, 9070.000
346.9200, 9023.000
348.1220, 9087.000
349.3240, 9231.000
350.5270, 9157.000
351.7290, 9170.000
352.9310, 9212.000
354.1320, 9117.000
355.3340, 9169.000
356.5350, 9165.000
357.7370, 9134.000
358.9380, 9185.187
360.1390, 9254.000
361.3400, 9270.000
362.5400, 9316.000
363.7410, 9415.000
364.9410, 9359.000
366.1410, 9364.000
367.3410, 9311.000
368.5410, 9395.000
369.7410, 9326.000
370.9400, 9540.000
372.1400, 9455.000
373.3390, 9548.000
374.5380, 9477.000
375.7370, 9380.000
376.9360, 9465.000
378.1350, 9655.000
379.3330, 9626.000
380.5310, 9733.000
381.7300, 9573.000
382.9280, 9785.000
384.1260, 9728.000
385.3230, 9825.000
386.5210, 9841.000
387.7180, 9879.000
388.9160, 9937.000
390.1130, 9841.000
391.3100, 10109.00
392.5060, 10183.00
393.7030, 10091.00
394.9000, 10243.00
396.0960, 10233.00
397.2920, 10256.00
398.4880, 10443.00
399.6840, 10429.00
400.8800, 10560.00
402.0750, 10752.00
403.2710, 11016.00
404.4660, 11100.00
405.6610, 11561.00
406.8560, 11920.00
408.0510, 11829.00
409.2450, 11767.00
410.4400, 11537.00
411.6340, 11381.00
412.8280, 11343.00
414.0220, 11483.00
415.2160, 11576.00
416.4100, 11567.00
417.6030, 11420.00
418.7970, 11129.00
419.9900, 11123.00
421.1830, 10926.00
422.3760, 10894.00
423.5690, 10760.00
424.7610, 10857.00
425.9540, 10842.00
427.1460, 10909.00
428.3380, 10833.00
429.5300, 10848.00
430.7220, 10829.00
431.9140, 10944.00
433.1050, 10852.00
434.2970, 10851.00
435.4880, 10993.00
436.6790, 11063.00
437.8700, 11135.00
439.0610, 11102.00
440.2510, 11093.00
441.4420, 11204.00
442.6320, 11258.00
443.8220, 11335.00
445.0120, 11474.00
446.2020, 11281.00
447.3910, 11437.00
448.5810, 11607.00
449.7700, 11670.00
450.9600, 12070.00
452.1490, 12273.00
453.3370, 12425.00
454.5260, 12716.00
455.7150, 12841.00
456.9030, 12804.00
458.0910, 12606.00
459.2800, 12622.00
460.4670, 12564.00
461.6550, 12483.00
462.8430, 12643.00
464.0300, 12752.00
465.2180, 12751.00
466.4050, 13102.00
467.5920, 13279.00
468.7790, 13965.00
469.9650, 14258.00
471.1520, 15044.00
472.3380, 16137.00
473.5250, 17278.00
474.7110, 18971.00
475.8970, 21060.00
477.0820, 22863.00
478.2680, 23914.00
479.4540, 23412.00
480.6390, 22058.00
481.8240, 20343.00
483.0090, 18557.00
484.1940, 17098.00
485.3780, 15914.00
486.5630, 15128.00
487.7470, 14745.00
488.9320, 14401.00
490.1160, 14234.00
491.3000, 14162.22
492.4830, 14225.00
493.6670, 14408.00
494.8500, 14795.00
496.0340, 15297.00
497.2170, 16011.00
498.4000, 16699.00
499.5820, 17890.00
500.7650, 19511.00
501.9480, 21577.00
503.1300, 24505.00
504.3120, 27543.00
505.4940, 30418.00
506.6760, 31839.00
507.8580, 31266.00
509.0390, 28884.00
510.2210, 26058.00
511.4020, 23173.00
512.5830, 20655.00
513.7640, 19048.00
514.9450, 17509.00
516.1250, 16580.00
517.3060, 15992.00
518.4860, 15392.00
519.6660, 15087.00
520.8460, 14826.00
522.0260, 14642.00
523.2060, 14423.42
524.3850, 14389.00
525.5650, 14163.00
526.7440, 14119.00
527.9230, 14170.00
529.1020, 14183.00
530.2810, 14195.00
531.4590, 13958.00
532.6380, 14164.00
533.8160, 13975.00
534.9940, 13963.00
536.1720, 14043.00
537.3500, 14036.00
538.5270, 13902.00
539.7050, 13969.00
540.8820, 13999.00
542.0590, 14065.00
543.2360, 14128.00
544.4130, 13870.00
545.5900, 14194.00
546.7660, 13981.00
547.9430, 14148.00
549.1190, 14127.00
550.2950, 14227.00
551.4710, 14032.00
552.6470, 14196.00
553.8220, 14355.00
554.9980, 14184.00
556.1730, 14303.00
557.3480, 14333.00
558.5230, 14246.00
559.6980, 14355.00
560.8730, 14337.00
562.0470, 14515.00
563.2220, 14464.00
564.3960, 14509.00
565.5700, 14555.00
566.7440, 14558.00
567.9170, 14699.00
569.0910, 14798.00
570.2640, 14870.25
571.4380, 14900.00
572.6110, 15109.00
573.7840, 15168.00
574.9570, 15393.00
576.1290, 15582.00
577.3020, 15637.00
578.4740, 15788.00
579.6460, 15923.00
580.8180, 15851.00
581.9900, 15552.00
583.1620, 15681.00
584.3330, 15317.00
585.5040, 15505.00
586.6760, 15343.00
587.8470, 15398.00
589.0180, 15248.00
590.1880, 15191.00
591.3590, 15301.00
592.5290, 15259.00
593.7000, 15446.00
594.8700, 15436.00
596.0400, 15317.00
597.2090, 15427.00
598.3790, 15555.00
599.5490, 15339.00
600.7180, 15486.00
601.8870, 15662.00
603.0560, 15558.00
604.2250, 15608.00
605.3940, 15687.00
606.5620, 15727.00
607.7300, 15709.00
608.8990, 15797.00
610.0670, 15818.00
611.2350, 15797.00
612.4020, 15876.00
613.5700, 15825.36
614.7370, 15951.00
615.9050, 15820.00
617.0720, 15869.00
618.2390, 15996.00
619.4060, 15999.00
620.5720, 16239.00
621.7390, 16192.00
622.9050, 16128.00
624.0710, 16318.00
625.2370, 16397.00
626.4030, 16555.00
627.5690, 16607.00
628.7340, 16546.00
629.9000, 16694.00
631.0650, 16780.00
632.2300, 16863.00
633.3950, 16953.00
634.5600, 16915.00
635.7240, 16873.00
636.8890, 17116.00
638.0530, 17112.00
639.2170, 17222.00
640.3810, 17166.00
641.5450, 17254.00
642.7080, 17350.00
643.8720, 17519.00
645.0350, 17661.00
646.1980, 17693.78
647.3610, 17791.00
648.5240, 17718.00
649.6870, 17677.00
650.8490, 17607.00
652.0120, 17499.00
653.1740, 17526.00
654.3360, 17561.00
655.4980, 17484.00
656.6600, 17568.00
657.8210, 17531.00
658.9830, 17463.00
660.1440, 17485.00
661.3050, 17603.00
662.4660, 17542.00
663.6270, 17483.00
664.7870, 17689.00
665.9480, 17741.00
667.1080, 17801.00
668.2680, 17726.00
669.4280, 17850.00
670.5880, 17891.00
671.7480, 17792.00
672.9070, 17918.00
674.0670, 17965.00
675.2260, 17939.00
676.3850, 17866.00
677.5440, 18103.00
678.7030, 18051.00
679.8610, 18148.00
681.0200, 18098.00
682.1780, 18173.00
683.3360, 18224.00
684.4940, 18245.27
685.6520, 18347.00
686.8090, 18337.00
687.9670, 18315.00
689.1240, 18349.00
690.2810, 18425.00
691.4380, 18476.00
692.5950, 18537.00
693.7520, 18600.88
694.9080, 18623.00
696.0650, 18726.00
697.2210, 18672.00
698.3770, 18732.00
699.5330, 18768.00
700.6880, 18877.00
701.8440, 18890.00
702.9990, 18886.00
704.1550, 19040.00
705.3100, 19031.00
706.4650, 19165.00
707.6190, 19136.00
708.7740, 19072.00
709.9290, 19191.00
711.0830, 19184.00
712.2370, 19414.00
713.3910, 19278.00
714.5450, 19394.00
715.6980, 19611.00
716.8520, 19605.00
718.0050, 19719.00
719.1580, 19603.00
720.3110, 19745.00
721.4640, 19799.00
722.6170, 20001.00
723.7700, 19807.00
724.9220, 19882.00
726.0740, 19949.00
727.2260, 19962.00
728.3780, 19925.00
729.5300, 19970.00
730.6810, 19979.00
731.8330, 20031.38
732.9840, 20087.00
734.1350, 20113.00
735.2860, 20261.00
736.4370, 20195.00
737.5880, 20356.00
738.7380, 20301.00
739.8880, 20309.00
741.0390, 20394.00
742.1890, 20642.00
743.3380, 20537.00
744.4880, 20495.00
745.6380, 20873.00
746.7870, 20744.00
747.9360, 20602.00
749.0850, 20748.00
750.2340, 20986.00
751.3830, 21140.00
752.5310, 21417.00
753.6800, 21358.00
754.8280, 21304.00
755.9760, 21667.00
757.1240, 21965.00
758.2720, 22522.00
759.4190, 22932.00
760.5670, 23375.00
761.7140, 23672.00
762.8610, 23922.00
764.0080, 23955.00
765.1550, 24056.00
766.3020, 23566.00
767.4480, 23105.00
768.5950, 22685.00
769.7410, 22371.00
770.8870, 22303.00
772.0330, 22319.00
773.1780, 22058.00
774.3240, 22086.00
775.4690, 21987.00
776.6140, 22196.00
777.7590, 21913.00
778.9040, 22084.00
780.0490, 22106.00
781.1940, 22350.00
782.3380, 22236.00
783.4820, 22249.00
784.6260, 22181.00
785.7700, 22278.00
786.9140, 22298.14
788.0580, 22409.00
789.2010, 22433.00
790.3450, 22436.00
791.4880, 22507.00
792.6310, 22516.00
793.7730, 22653.00
794.9160, 22906.00
796.0590, 22705.00
797.2010, 22770.00
798.3430, 23080.00
799.4850, 22962.00
800.6270, 23178.00
801.7690, 23099.00
802.9100, 23346.00
804.0520, 23409.00
805.1930, 23443.00
806.3340, 24002.00
807.4750, 24181.00
808.6160, 24608.00
809.7560, 24795.00
810.8970, 25567.00
812.0370, 26271.00
813.1770, 26885.00
814.3170, 27131.15
815.4570, 27191.23
816.5960, 27100.00
817.7360, 26695.00
818.8750, 26001.00
820.0140, 25401.00
821.1530, 25186.00
822.2920, 24808.00
823.4310, 24527.00
824.5690, 24581.00
825.7070, 24242.00
826.8460, 24317.00
827.9840, 24396.00
829.1220, 24402.00
830.2590, 24418.38
831.3970, 24295.00
832.5340, 24457.00
833.6710, 24324.00
834.8080, 24490.00
835.9450, 24387.00
837.0820, 24545.00
838.2190, 24552.00
839.3550, 24730.00
840.4910, 24911.00
841.6270, 24469.00
842.7630, 24571.00
843.8990, 24555.00
845.0350, 24839.00
846.1700, 24773.00
847.3060, 24806.00
848.4410, 24764.00
849.5760, 24885.00
850.7100, 24886.00
851.8450, 24741.00
852.9800, 25001.00
854.1140, 25061.00
855.2480, 25032.00
856.3820, 25206.00
857.5160, 25190.00
858.6500, 25405.00
859.7830, 25182.00
860.9170, 25395.00
862.0500, 25399.00
863.1830, 25492.00
864.3160, 25507.00
865.4480, 25760.00
866.5810, 25799.00
867.7130, 25539.00
868.8460, 25779.00
869.9780, 25772.00
871.1100, 25813.00
872.2410, 25860.00
873.3730, 26042.00
874.5050, 25897.00
875.6360, 26034.00
876.7670, 26013.00
877.8980, 26361.00
879.0290, 26229.00
880.1590, 26309.00
881.2900, 26305.00
882.4200, 26261.00
883.5500, 26280.00
884.6800, 26303.00
885.8100, 26243.00
886.9400, 26419.00
888.0690, 26635.00
889.1990, 26558.00
890.3280, 26755.00
891.4570, 26664.00
892.5860, 26781.00
893.7140, 26908.00
894.8430, 26820.00
895.9710, 26785.00
897.1000, 27012.00
898.2280, 26998.00
899.3560, 27092.00
900.4830, 27164.78
901.6110, 27229.00
902.7380, 27245.00
903.8660, 27300.00
904.9930, 27327.00
906.1200, 27410.00
907.2460, 27323.00
908.3730, 27512.00
909.5000, 27415.00
910.6260, 27701.00
911.7520, 27635.00
912.8780, 27705.00
914.0040, 27552.00
915.1290, 27612.00
916.2550, 28050.00
917.3800, 28137.00
918.5050, 28014.00
919.6300, 28131.00
920.7550, 28123.00
921.8800, 28408.00
923.0040, 28149.00
924.1290, 28363.00
925.2530, 28449.00
926.3770, 28275.00
927.5010, 28477.00
928.6250, 28536.00
929.7480, 28444.00
930.8720, 28643.00
931.9950, 28603.00
933.1180, 28683.00
934.2410, 28680.00
935.3640, 28956.00
936.4860, 28988.13
937.6090, 29027.00
938.7310, 29134.00
939.8530, 29188.00
940.9750, 29088.00
942.0970, 29154.00
943.2180, 29139.00
944.3400, 29168.00
945.4610, 29224.00
946.5820, 29163.00
947.7030, 29602.00
948.8240, 29443.00
949.9450, 29679.00
951.0650, 29390.00
952.1860, 29528.00
953.3060, 29665.00
954.4260, 29934.00
955.5460, 29779.00
956.6650, 30041.00
957.7850, 30069.00
958.9040, 30177.87
960.0230, 30492.00
961.1420, 30549.00
962.2610, 30637.00
963.3800, 31005.00
964.4990, 31077.00
965.6170, 31174.00
966.7350, 30931.00
967.8530, 31023.00
968.9710, 30890.00
970.0890, 30814.00
971.2070, 30987.00
972.3240, 31128.00
973.4410, 31013.00
974.5580, 31349.00
975.6750, 31255.00
976.7920, 31717.00
977.9090, 31450.00
979.0250, 31500.00
980.1410, 31653.00
981.2580, 31753.00
982.3740, 31638.00
983.4890, 31640.00
984.6050, 31330.00
985.7200, 31529.00
986.8360, 31482.00
987.9510, 31583.00
989.0660, 31689.00
990.1810, 31605.00
991.2950, 31722.00
992.4100, 31588.00
993.5240, 31854.00
994.6390, 31858.00
995.7530, 31948.00
996.8660, 31982.00
997.9800, 32127.00
999.0940, 32064.00
1000.207, 32069.00
1001.320, 32278.00
1002.433, 32390.00
1003.546, 32469.00
1004.659, 32598.00
1005.772, 32456.00
1006.884, 32717.00
1007.996, 32698.00
1009.108, 32946.00
1010.220, 33076.00
1011.332, 33263.00
1012.444, 33327.13
1013.555, 33406.94
1014.666, 33395.00
1015.777, 33461.00
1016.888, 33481.80
1017.999, 33452.55
1019.110, 33397.00
1020.220, 33321.00
1021.331, 33188.00
1022.441, 33122.00
1023.551, 33361.00
1024.661, 33241.00
1025.770, 33411.00
1026.880, 33331.00
1027.989, 33625.00
1029.098, 34020.00
1030.207, 33730.00
1031.316, 33764.00
1032.425, 33942.00
1033.533, 33780.00
1034.642, 34166.00
1035.750, 34159.00
1036.858, 34294.00
1037.966, 34018.00
1039.073, 34305.00
1040.181, 34216.00
1041.288, 34307.00
1042.396, 34241.00
1043.503, 34358.00
1044.610, 34298.00
1045.716, 34503.00
1046.823, 34456.00
1047.929, 34328.00
1049.036, 34590.00
1050.142, 34596.00
1051.248, 34432.00
1052.353, 34713.00
1053.459, 34707.00
1054.564, 34869.00
1055.670, 34788.00
1056.775, 34767.00
1057.880, 34899.00
1058.985, 34932.00
1060.089, 35023.00
1061.194, 35188.00
1062.298, 35158.00
1063.402, 35059.00
1064.506, 35336.00
1065.610, 35272.00
1066.713, 35315.00
1067.817, 35436.00
1068.920, 35378.52
1070.023, 35596.00
1071.126, 35504.00
1072.229, 35526.00
1073.332, 35884.00
1074.435, 35985.00
1075.537, 36168.00
1076.639, 36041.00
1077.741, 36190.00
1078.843, 36097.00
1079.945, 36345.00
1081.046, 36306.00
1082.148, 36504.00
1083.249, 36607.00
1084.350, 36875.00
1085.451, 36906.00
1086.551, 37104.00
1087.652, 37306.00
1088.752, 37468.00
1089.853, 37271.00
1090.953, 37508.00
1092.053, 37417.00
1093.152, 37705.00
1094.252, 38029.00
1095.351, 38447.00
1096.451, 38442.00
1097.550, 38914.00
1098.649, 38958.00
1099.748, 39097.00
1100.846, 38964.00
1101.945, 38990.68
1103.043, 38849.00
1104.141, 38804.00
1105.239, 38749.00
1106.337, 38498.00
1107.434, 38677.00
1108.532, 38261.00
1109.629, 38448.00
1110.726, 38486.00
1111.823, 38647.00
1112.920, 38565.00
1114.017, 38516.00
1115.113, 38777.00
1116.210, 38656.00
1117.306, 38777.00
1118.402, 38676.00
1119.498, 38674.00
1120.593, 38912.00
1121.689, 38974.00
1122.784, 38712.00
1123.879, 39020.00
1124.974, 38879.00
1126.069, 38627.00
1127.164, 38700.00
1128.259, 38710.00
1129.353, 38652.00
1130.447, 38558.00
1131.541, 38806.00
1132.635, 38914.00
1133.729, 38877.00
1134.822, 38638.00
1135.916, 39126.00
1137.009, 39021.00
1138.102, 38885.00
1139.195, 39133.00
1140.288, 39048.00
1141.380, 39163.00
1142.473, 39157.00
1143.565, 39220.00
1144.657, 39431.00
1145.749, 39403.00
1146.841, 39573.00
1147.932, 39529.00
1149.024, 39706.00
1150.115, 39493.00
1151.206, 39781.00
1152.297, 39813.00
1153.388, 39777.00
1154.479, 39969.00
1155.569, 39928.00
1156.659, 39890.00
1157.750, 39845.00
1158.839, 39813.00
1159.929, 40220.00
1161.019, 39892.00
1162.108, 40300.00
1163.198, 40226.00
1164.287, 40482.00
1165.376, 40421.00
1166.465, 40482.00
1167.553, 40565.00
1168.642, 40483.00
1169.730, 40493.00
1170.818, 40574.00
1171.906, 40675.00
1172.994, 40995.00
1174.082, 40537.00
1175.170, 40924.00
1176.257, 40855.00
1177.344, 40793.00
1178.431, 40923.00
1179.518, 40971.00
1180.605, 41018.00
1181.691, 41059.06
1182.778, 41063.00
1183.864, 41175.00
1184.950, 41250.00
1186.036, 41508.00
1187.122, 41487.00
1188.207, 41420.00
1189.292, 41790.00
1190.378, 41765.00
1191.463, 41628.00
1192.548, 42009.00
1193.632, 41815.00
1194.717, 41982.00
1195.801, 41897.00
1196.886, 42118.00
1197.970, 42010.00
1199.054, 42208.00
1200.137, 42216.00
1201.221, 42251.00
1202.305, 42163.00
1203.388, 42410.00
1204.471, 42302.00
1205.554, 42606.00
1206.637, 42406.00
1207.719, 42503.00
1208.802, 42656.00
1209.884, 42667.00
1210.966, 42474.00
1212.048, 42690.00
1213.130, 42967.00
1214.212, 42735.00
1215.293, 43091.00
1216.374, 43105.00
1217.456, 42728.00
1218.536, 43188.00
1219.617, 43109.00
1220.698, 43189.00
1221.778, 43070.00
1222.859, 43439.00
1223.939, 43264.00
1225.019, 43375.00
1226.099, 43200.00
1227.178, 43284.00
1228.258, 43618.00
1229.337, 43574.00
1230.417, 43793.00
1231.496, 43719.00
1232.574, 43711.00
1233.653, 43986.00
1234.732, 43776.00
1235.810, 44021.00
1236.888, 44111.00
1237.966, 44116.00
1239.044, 44253.00
1240.122, 44362.00
1241.199, 44163.00
1242.277, 44399.00
1243.354, 44239.00
1244.431, 44272.00
1245.508, 44268.00
1246.585, 44410.00
1247.661, 44639.00
1248.738, 44689.00
1249.814, 44777.00
1250.890, 44570.00
1251.966, 44880.00
1253.042, 44896.00
1254.117, 44730.00
1255.193, 44875.00
1256.268, 44855.68
1257.343, 44920.87
1258.418, 45018.00
1259.493, 45121.00
1260.567, 45324.00
1261.642, 45442.00
1262.716, 45152.00
1263.790, 45386.00
1264.864, 45195.00
1265.938, 45352.87
1267.011, 45464.29
1268.085, 45654.00
1269.158, 45666.00
1270.231, 45739.00
1271.304, 45679.00
1272.377, 45826.00
1273.450, 45897.00
1274.522, 46140.00
1275.594, 45821.00
1276.666, 45872.00
1277.738, 46172.00
1278.810, 46115.00
1279.882, 46304.00
1280.953, 46071.00
1282.025, 46244.00
1283.096, 46431.00
1284.167, 46429.00
1285.238, 46224.00
1286.308, 46385.00
1287.379, 46794.00
1288.449, 46254.00
1289.519, 46668.00
1290.589, 46836.00
1291.659, 46867.00
1292.729, 46531.00
1293.798, 46853.00
1294.868, 46700.00
1295.937, 46998.00
1297.006, 46999.00
1298.075, 46923.00
1299.143, 47077.00
1300.212, 47323.00
1301.280, 47546.00
1302.348, 47444.00
1303.416, 47535.00
1304.484, 47145.00
1305.552, 47265.00
1306.620, 47592.00
1307.687, 47291.00
1308.754, 47641.00
1309.821, 47847.00
1310.888, 47816.00
1311.955, 47658.00
1313.021, 47719.00
1314.088, 47900.00
1315.154, 47678.00
1316.220, 47852.00
1317.286, 47983.00
1318.352, 47950.00
1319.417, 48148.00
1320.483, 48041.00
1321.548, 48087.00
1322.613, 48244.00
1323.678, 48468.00
1324.743, 48413.00
1325.807, 48586.00
1326.872, 48719.00
1327.936, 48738.00
1329.000, 48593.00
1330.064, 48674.00
1331.128, 48483.00
1332.191, 48893.00
1333.255, 48452.00
1334.318, 48895.00
1335.381, 48940.00
1336.444, 48940.00
1337.507, 49025.00
1338.569, 49175.00
1339.632, 49041.00
1340.694, 48987.00
1341.756, 49098.00
1342.818, 49139.00
1343.880, 49319.00
1344.941, 49495.00
1346.003, 49357.00
1347.064, 49331.00
1348.125, 49570.00
1349.186, 49231.00
1350.247, 49405.00
1351.308, 49501.00
1352.368, 49688.00
1353.428, 49806.66
1354.489, 49899.00
1355.549, 49953.00
1356.608, 49986.00
1357.668, 50060.75
1358.727, 50127.45
1359.787, 50124.00
1360.846, 50150.00
1361.905, 50071.00
1362.964, 50120.99
1364.022, 50174.00
1365.081, 50232.00
1366.139, 50323.00
1367.197, 50334.89
1368.255, 50476.00
1369.313, 50396.00
1370.371, 50491.67
1371.428, 50574.00
1372.486, 50579.00
1373.543, 50510.00
1374.600, 50648.00
1375.657, 50790.00
1376.713, 50679.00
1377.770, 50882.00
1378.826, 50962.00
1379.882, 50974.00
1380.938, 51360.00
1381.994, 51168.00
1383.050, 51317.01
1384.106, 51035.00
1385.161, 51275.00
1386.216, 51384.00
1387.271, 51152.00
1388.326, 51395.00
1389.381, 51257.00
1390.435, 51527.00
1391.490, 51265.00
1392.544, 51490.00
1393.598, 51707.00
1394.652, 51761.00
1395.705, 51546.00
1396.759, 51778.00
1397.812, 51525.00
1398.866, 51827.00
1399.919, 52070.00
1400.972, 51954.00
1402.024, 51928.00
1403.077, 51972.00
1404.129, 52073.00
1405.181, 52165.00
1406.233, 52347.00
1407.285, 52322.00
1408.337, 52160.00
1409.389, 52149.00
1410.440, 52295.00
1411.491, 52465.00
1412.542, 52149.00
1413.593, 52650.00
1414.644, 52652.00
1415.695, 52273.00
1416.745, 52909.00
1417.795, 52642.00
1418.845, 52829.00
1419.895, 52956.00
1420.945, 52647.00
1421.995, 52855.00
1423.044, 53090.00
1424.093, 53015.00
1425.142, 53082.00
1426.191, 53249.00
1427.240, 53105.00
1428.289, 52982.00
1429.337, 53375.00
1430.385, 53169.00
1431.433, 53094.00
1432.481, 53176.00
1433.529, 53483.00
1434.577, 53592.00
1435.624, 53544.00
1436.672, 53811.00
1437.719, 53764.00
1438.766, 53853.00
1439.812, 53936.00
1440.859, 53965.43
1441.905, 53892.00
1442.952, 54022.00
1443.998, 53946.00
1445.044, 53805.00
1446.090, 54213.00
1447.135, 54235.00
1448.181, 53945.00
1449.226, 54249.00
1450.271, 54276.00
1451.316, 54359.00
1452.361, 54039.00
1453.405, 54437.00
1454.450, 54530.00
1455.494, 54790.00
1456.538, 54433.00
1457.582, 54485.00
1458.626, 54568.00
1459.670, 54398.00
1460.713, 54608.00
1461.757, 54927.00
1462.800, 54533.00
1463.843, 55061.00
1464.886, 54973.00
1465.928, 54873.00
1466.971, 55137.00
1468.013, 54935.00
1469.055, 55045.00
1470.097, 55049.00
1471.139, 55147.00
1472.181, 55292.00
1473.222, 55126.00
1474.263, 55607.00
1475.305, 55572.00
1476.346, 55618.00
1477.386, 55421.00
1478.427, 55531.00
1479.468, 55647.00
1480.508, 55392.00
1481.548, 55537.00
1482.588, 55719.00
1483.628, 55924.00
1484.668, 55825.00
1485.707, 55933.00
1486.747, 55851.00
1487.786, 55900.00
1488.825, 55966.00
1489.864, 56193.00
1490.902, 56027.00
1491.941, 56345.00
1492.979, 56303.00
1494.017, 56237.00
1495.055, 56162.00
1496.093, 56339.00
1497.131, 56084.00
1498.168, 56389.00
1499.206, 56588.00
1500.243, 56458.00
1501.280, 56713.00
1502.317, 56681.00
1503.354, 56562.00
1504.390, 56879.00
1505.426, 56835.00
1506.463, 57130.00
1507.499, 56930.00
1508.535, 56848.00
1509.570, 56854.00
1510.606, 57235.00
1511.641, 57262.00
1512.676, 57250.00
1513.711, 57353.00
1514.746, 57266.00
1515.781, 57395.00
1516.816, 57268.00
1517.850, 57619.00
1518.884, 57556.16
1519.918, 57570.00
1520.952, 57647.00
1521.986, 57778.00
1523.019, 57868.00
1524.053, 57624.00
1525.086, 57574.00
1526.119, 57345.00
1527.152, 57697.00
1528.185, 58125.00
1529.217, 57954.00
1530.250, 58043.00
1531.282, 58233.00
1532.314, 57893.00
1533.346, 58300.00
1534.377, 58191.00
1535.409, 58325.00
1536.440, 58501.00
1537.472, 58343.00
1538.503, 58154.00
1539.534, 58458.00
1540.564, 58486.00
1541.595, 58610.00
1542.625, 58700.00
1543.656, 58873.00
1544.686, 59024.00
1545.716, 58611.00
1546.745, 58667.00
1547.775, 58894.00
1548.804, 58852.00
1549.834, 59030.00
1550.863, 59065.00
1551.892, 59151.00
1552.920, 58954.00
1553.949, 59453.00
1554.977, 59059.00
1556.006, 59420.00
1557.034, 59272.00
1558.062, 59494.00
1559.089, 59520.00
1560.117, 59385.00
1561.144, 59368.00
1562.172, 59408.00
1563.199, 59783.00
1564.226, 59580.00
1565.252, 59686.00
1566.279, 60028.00
1567.305, 59874.00
1568.332, 59963.00
1569.358, 60328.00
1570.384, 60474.00
##END=



