##NAMES=Albite
##RRUFFID=R050402
##IDEAL CHEMISTRY=NaAlSi_3_O_8_
##LOCALITY=Urbano mine, Golconda District, Brazil
##OWNER=RRUFF
##SOURCE=Bob Downs
##DESCRIPTION=Colorless tabular single crystals associated with fluorapatite R050401
##STATUS=The identification of this mineral has been confirmed by X-ray diffraction and chemical analysis
##URL=rruff.info/R050402
##MEASURED CHEMISTRY=Na_1.00_Al_1.00_Si_3.00_O_8_
##PIN_ID=M00163
##ORIENTATION=Laser parallel to (1 0 1). Fiducial mark perpendicular to laser is parallel to b [0 1 0]
126.7490, 12713.00
127.9790, 12732.00
129.2090, 12586.00
130.4390, 12455.00
131.6680, 12550.00
132.8980, 12473.00
134.1270, 12189.00
135.3560, 12248.00
136.5850, 12182.00
137.8140, 12263.00
139.0430, 12260.00
140.2710, 12337.00
141.5000, 12634.00
142.7280, 12539.00
143.9560, 12849.00
145.1840, 12978.00
146.4120, 13640.00
147.6390, 13958.00
148.8670, 14872.00
150.0940, 15703.00
151.3210, 16777.00
152.5490, 18122.00
153.7750, 19526.00
155.0020, 20994.00
156.2290, 22174.00
157.4550, 23567.00
158.6810, 24494.00
159.9080, 26232.00
161.1340, 27358.00
162.3590, 28323.00
163.5850, 28868.00
164.8110, 28549.00
166.0360, 27441.00
167.2610, 25827.00
168.4860, 23969.00
169.7110, 22405.00
170.9360, 21354.00
172.1610, 21040.00
173.3850, 20889.00
174.6100, 20896.00
175.8340, 21145.00
177.0580, 21645.00
178.2820, 21794.00
179.5050, 22310.00
180.7290, 22586.16
181.9520, 22782.00
183.1760, 23054.00
184.3990, 23004.00
185.6220, 22877.00
186.8450, 22712.00
188.0670, 21961.00
189.2900, 21282.00
190.5120, 20137.00
191.7340, 18830.00
192.9560, 17768.00
194.1780, 16983.00
195.4000, 16253.00
196.6220, 16050.00
197.8430, 15897.00
199.0640, 16301.00
200.2860, 16883.00
201.5070, 17292.00
202.7270, 17791.08
203.9480, 18473.00
205.1690, 18815.00
206.3890, 19191.00
207.6090, 19814.00
208.8290, 20221.00
210.0490, 20454.00
211.2690, 20292.00
212.4890, 19630.00
213.7080, 18199.00
214.9280, 16688.00
216.1470, 15219.00
217.3660, 14089.00
218.5850, 12977.00
219.8030, 12186.00
221.0220, 11641.00
222.2400, 11435.00
223.4590, 11065.00
224.6770, 10808.00
225.8950, 10742.00
227.1120, 10522.00
228.3300, 10381.00
229.5480, 10453.00
230.7650, 10230.00
231.9820, 10266.00
233.1990, 10111.00
234.4160, 10041.00
235.6330, 10022.00
236.8490, 9924.000
238.0660, 10015.00
239.2820, 9945.033
240.4980, 9860.000
241.7140, 9891.000
242.9300, 9762.000
244.1460, 9708.000
245.3610, 9582.000
246.5770, 9753.000
247.7920, 9707.000
249.0070, 9626.000
250.2220, 9548.000
251.4370, 9565.000
252.6510, 9747.000
253.8660, 9686.000
255.0800, 9719.000
256.2940, 9727.000
257.5080, 9687.000
258.7220, 9806.000
259.9360, 9826.758
261.1490, 9889.137
262.3630, 9988.000
263.5760, 10005.00
264.7890, 10121.00
266.0020, 10123.00
267.2150, 10214.00
268.4270, 10408.00
269.6400, 10519.00
270.8520, 10461.00
272.0640, 10892.00
273.2760, 11183.00
274.4880, 11550.00
275.7000, 12129.00
276.9120, 12849.00
278.1230, 13659.00
279.3340, 14780.00
280.5450, 16376.00
281.7560, 17991.00
282.9670, 19916.00
284.1780, 21764.00
285.3880, 23556.00
286.5980, 25445.00
287.8090, 27309.00
289.0190, 28911.00
290.2290, 30199.00
291.4380, 30871.00
292.6480, 30716.00
293.8570, 29923.00
295.0670, 27637.00
296.2760, 24479.00
297.4850, 21725.00
298.6930, 18919.00
299.9020, 16925.00
301.1110, 15225.00
302.3190, 14420.00
303.5270, 13453.00
304.7350, 12883.00
305.9430, 12455.00
307.1510, 12020.00
308.3580, 11765.00
309.5660, 11743.00
310.7730, 11690.00
311.9800, 11596.00
313.1870, 11280.00
314.3940, 11279.00
315.6010, 11057.00
316.8070, 10799.00
318.0130, 10736.00
319.2200, 10658.00
320.4260, 10635.00
321.6310, 10390.00
322.8370, 10480.00
324.0430, 10365.00
325.2480, 10344.00
326.4540, 10404.00
327.6590, 10500.00
328.8640, 10316.00
330.0680, 10477.00
331.2730, 10303.00
332.4780, 10338.00
333.6820, 10243.00
334.8860, 10316.00
336.0900, 10233.00
337.2940, 10180.00
338.4980, 10204.00
339.7010, 10355.00
340.9050, 10346.35
342.1080, 10395.09
343.3110, 10467.00
344.5140, 10477.00
345.7170, 10535.00
346.9200, 10673.00
348.1220, 10797.00
349.3240, 10768.00
350.5270, 10844.00
351.7290, 10768.00
352.9310, 10717.00
354.1320, 10848.00
355.3340, 10898.00
356.5350, 10834.00
357.7370, 10706.00
358.9380, 10596.00
360.1390, 10670.00
361.3400, 10737.00
362.5400, 10599.00
363.7410, 10680.00
364.9410, 10443.00
366.1410, 10497.00
367.3410, 10346.00
368.5410, 10347.00
369.7410, 10247.00
370.9400, 10280.00
372.1400, 10203.90
373.3390, 10256.00
374.5380, 10081.00
375.7370, 10062.00
376.9360, 9987.000
378.1350, 10117.00
379.3330, 9984.000
380.5310, 10085.00
381.7300, 10088.00
382.9280, 10064.00
384.1260, 10120.00
385.3230, 10110.09
386.5210, 10059.00
387.7180, 10112.00
388.9160, 10129.00
390.1130, 10081.00
391.3100, 10168.00
392.5060, 10176.00
393.7030, 10239.00
394.9000, 10187.00
396.0960, 10204.00
397.2920, 10440.00
398.4880, 10435.00
399.6840, 10603.00
400.8800, 10779.00
402.0750, 10709.00
403.2710, 10635.00
404.4660, 10858.00
405.6610, 11087.00
406.8560, 11247.00
408.0510, 11371.00
409.2450, 11395.00
410.4400, 11180.00
411.6340, 11029.00
412.8280, 10604.00
414.0220, 10394.00
415.2160, 10159.00
416.4100, 9969.000
417.6030, 10023.00
418.7970, 9824.000
419.9900, 9834.000
421.1830, 9854.000
422.3760, 9860.000
423.5690, 9899.000
424.7610, 9917.000
425.9540, 9855.000
427.1460, 9934.000
428.3380, 9770.000
429.5300, 9920.000
430.7220, 9928.000
431.9140, 9835.000
433.1050, 9908.000
434.2970, 9928.000
435.4880, 9890.000
436.6790, 10052.00
437.8700, 10114.00
439.0610, 10081.00
440.2510, 10097.00
441.4420, 10216.00
442.6320, 10235.00
443.8220, 10271.00
445.0120, 10424.00
446.2020, 10581.00
447.3910, 10749.00
448.5810, 10907.92
449.7700, 10947.00
450.9600, 11257.00
452.1490, 11412.64
453.3370, 11629.15
454.5260, 11972.00
455.7150, 12020.00
456.9030, 12376.00
458.0910, 12631.00
459.2800, 12883.00
460.4670, 13335.00
461.6550, 13500.00
462.8430, 14115.00
464.0300, 14677.00
465.2180, 15604.00
466.4050, 16825.00
467.5920, 18822.00
468.7790, 21201.00
469.9650, 24150.00
471.1520, 27587.00
472.3380, 31132.00
473.5250, 34372.00
474.7110, 37483.00
475.8970, 40428.00
477.0820, 43075.00
478.2680, 45373.00
479.4540, 46697.00
480.6390, 46031.00
481.8240, 43159.00
483.0090, 39035.00
484.1940, 33968.00
485.3780, 28910.00
486.5630, 25445.00
487.7470, 22553.00
488.9320, 20782.00
490.1160, 19714.00
491.3000, 19095.00
492.4830, 18764.00
493.6670, 19220.00
494.8500, 20161.00
496.0340, 21558.00
497.2170, 23879.00
498.4000, 27005.00
499.5820, 30742.00
500.7650, 34395.00
501.9480, 38851.00
503.1300, 42040.00
504.3120, 45973.00
505.4940, 49699.00
506.6760, 52645.00
507.8580, 54273.00
509.0390, 54493.00
510.2210, 53018.00
511.4020, 47530.00
512.5830, 41334.00
513.7640, 35252.00
514.9450, 30016.00
516.1250, 25942.00
517.3060, 22581.00
518.4860, 20357.00
519.6660, 18738.00
520.8460, 17148.00
522.0260, 16167.00
523.2060, 15557.00
524.3850, 15049.00
525.5650, 14293.00
526.7440, 13934.00
527.9230, 13410.00
529.1020, 13241.00
530.2810, 12958.00
531.4590, 12992.00
532.6380, 12586.00
533.8160, 12576.00
534.9940, 12243.00
536.1720, 12265.00
537.3500, 12250.00
538.5270, 12158.00
539.7050, 11979.00
540.8820, 11968.00
542.0590, 11843.00
543.2360, 11846.00
544.4130, 11782.00
545.5900, 11739.00
546.7660, 11684.00
547.9430, 11701.00
549.1190, 11636.71
550.2950, 11472.00
551.4710, 11545.00
552.6470, 11583.00
553.8220, 11530.96
554.9980, 11342.00
556.1730, 11435.00
557.3480, 11385.00
558.5230, 11307.00
559.6980, 11341.00
560.8730, 11310.00
562.0470, 11245.00
563.2220, 11330.00
564.3960, 11496.00
565.5700, 11266.00
566.7440, 11492.00
567.9170, 11496.00
569.0910, 11570.00
570.2640, 11793.00
571.4380, 11671.00
572.6110, 11782.00
573.7840, 11863.00
574.9570, 11972.00
576.1290, 12180.00
577.3020, 12219.00
578.4740, 12247.00
579.6460, 12543.00
580.8180, 12545.00
581.9900, 12461.00
583.1620, 12468.00
584.3330, 12386.00
585.5040, 12386.00
586.6760, 12392.15
587.8470, 12383.00
589.0180, 12450.00
590.1880, 12446.00
591.3590, 12519.93
592.5290, 12544.00
593.7000, 12561.00
594.8700, 12581.00
596.0400, 12584.00
597.2090, 12686.00
598.3790, 12685.00
599.5490, 12637.00
600.7180, 12540.00
601.8870, 12420.00
603.0560, 12479.00
604.2250, 12333.00
605.3940, 12346.00
606.5620, 12223.00
607.7300, 12105.00
608.8990, 12218.00
610.0670, 12062.00
611.2350, 11947.00
612.4020, 12136.00
613.5700, 12114.00
614.7370, 12167.00
615.9050, 12116.00
617.0720, 12145.00
618.2390, 12333.00
619.4060, 12628.00
620.5720, 12739.00
621.7390, 12808.00
622.9050, 12854.00
624.0710, 13055.00
625.2370, 13242.00
626.4030, 13157.00
627.5690, 13089.00
628.7340, 12963.00
629.9000, 12966.00
631.0650, 12783.00
632.2300, 12680.00
633.3950, 12439.00
634.5600, 12430.00
635.7240, 12425.00
636.8890, 12322.00
638.0530, 12489.00
639.2170, 12597.00
640.3810, 12573.00
641.5450, 12654.00
642.7080, 12872.00
643.8720, 12983.00
645.0350, 13070.00
646.1980, 13300.00
647.3610, 13219.00
648.5240, 13323.00
649.6870, 13200.00
650.8490, 13057.00
652.0120, 12962.00
653.1740, 13018.00
654.3360, 12741.00
655.4980, 12445.00
656.6600, 12407.00
657.8210, 12097.00
658.9830, 12069.00
660.1440, 12007.00
661.3050, 11770.00
662.4660, 11680.00
663.6270, 11511.00
664.7870, 11481.00
665.9480, 11417.00
667.1080, 11436.00
668.2680, 11371.00
669.4280, 11242.00
670.5880, 11356.00
671.7480, 11330.00
672.9070, 11150.00
674.0670, 11253.00
675.2260, 11311.00
676.3850, 10986.00
677.5440, 11329.00
678.7030, 11270.00
679.8610, 11256.00
681.0200, 11139.00
682.1780, 11226.00
683.3360, 11099.00
684.4940, 11085.00
685.6520, 11127.00
686.8090, 10991.00
687.9670, 11058.00
689.1240, 11035.28
690.2810, 11071.00
691.4380, 11040.00
692.5950, 11122.00
693.7520, 11109.00
694.9080, 11127.00
696.0650, 11101.00
697.2210, 11085.00
698.3770, 11059.00
699.5330, 11094.00
700.6880, 11023.00
701.8440, 11210.00
702.9990, 11195.00
704.1550, 11225.00
705.3100, 11197.00
706.4650, 11096.00
707.6190, 11275.00
708.7740, 11063.00
709.9290, 11195.00
711.0830, 11181.00
712.2370, 11176.00
713.3910, 11072.00
714.5450, 11149.00
715.6980, 11284.00
716.8520, 11175.00
718.0050, 11315.00
719.1580, 11338.00
720.3110, 11245.00
721.4640, 11266.00
722.6170, 11311.00
723.7700, 11352.00
724.9220, 11416.00
726.0740, 11697.00
727.2260, 11648.00
728.3780, 11569.00
729.5300, 11808.00
730.6810, 11513.00
731.8330, 11705.00
732.9840, 11726.00
734.1350, 11793.00
735.2860, 11697.00
736.4370, 11778.00
737.5880, 11750.00
738.7380, 11793.00
739.8880, 11872.00
741.0390, 11827.00
742.1890, 11858.00
743.3380, 12026.00
744.4880, 12011.00
745.6380, 12064.00
746.7870, 11973.00
747.9360, 12117.00
749.0850, 12169.00
750.2340, 12263.00
751.3830, 12465.00
752.5310, 12556.51
753.6800, 12651.00
754.8280, 12860.00
755.9760, 13042.00
757.1240, 13225.00
758.2720, 13589.00
759.4190, 13877.00
760.5670, 14124.00
761.7140, 14427.00
762.8610, 14619.00
764.0080, 14894.00
765.1550, 14722.00
766.3020, 14617.00
767.4480, 14673.00
768.5950, 14488.00
769.7410, 14330.00
770.8870, 14250.00
772.0330, 14288.00
773.1780, 14303.00
774.3240, 14446.00
775.4690, 14423.00
776.6140, 14176.00
777.7590, 14198.00
778.9040, 13987.00
780.0490, 13511.00
781.1940, 13381.00
782.3380, 13265.00
783.4820, 13225.00
784.6260, 13046.00
785.7700, 13088.00
786.9140, 13030.00
788.0580, 12993.00
789.2010, 13102.00
790.3450, 13077.00
791.4880, 13217.00
792.6310, 12919.00
793.7730, 13186.00
794.9160, 13175.00
796.0590, 13248.00
797.2010, 13373.00
798.3430, 13484.99
799.4850, 13661.00
800.6270, 13871.00
801.7690, 14136.00
802.9100, 14461.00
804.0520, 14889.00
805.1930, 15724.00
806.3340, 16024.00
807.4750, 16564.00
808.6160, 16981.00
809.7560, 16720.00
810.8970, 16948.00
812.0370, 16700.00
813.1770, 16713.00
814.3170, 16613.00
815.4570, 16327.00
816.5960, 16105.00
817.7360, 15844.00
818.8750, 15414.00
820.0140, 15055.00
821.1530, 14891.00
822.2920, 14449.00
823.4310, 14133.00
824.5690, 13991.00
825.7070, 13815.00
826.8460, 13711.00
827.9840, 13677.00
829.1220, 13706.00
830.2590, 13608.00
831.3970, 13553.00
832.5340, 13463.00
833.6710, 13636.00
834.8080, 13709.00
835.9450, 13699.00
837.0820, 13675.00
838.2190, 13855.00
839.3550, 13859.00
840.4910, 13771.00
841.6270, 13917.00
842.7630, 14020.00
843.8990, 14124.00
845.0350, 14191.00
846.1700, 14394.00
847.3060, 14405.00
848.4410, 14610.00
849.5760, 14907.00
850.7100, 15044.00
851.8450, 15174.00
852.9800, 15364.00
854.1140, 15377.00
855.2480, 15636.00
856.3820, 15876.00
857.5160, 15690.00
858.6500, 15743.00
859.7830, 15879.00
860.9170, 15638.00
862.0500, 15571.00
863.1830, 15427.00
864.3160, 15231.00
865.4480, 14840.00
866.5810, 14626.00
867.7130, 14453.00
868.8460, 14296.00
869.9780, 14329.00
871.1100, 14148.00
872.2410, 13975.00
873.3730, 13894.00
874.5050, 14041.00
875.6360, 13888.00
876.7670, 13853.00
877.8980, 13849.00
879.0290, 13654.00
880.1590, 13697.00
881.2900, 13623.00
882.4200, 13658.00
883.5500, 13547.00
884.6800, 13605.00
885.8100, 13583.00
886.9400, 13596.00
888.0690, 13639.00
889.1990, 13560.00
890.3280, 13659.00
891.4570, 13555.00
892.5860, 13623.00
893.7140, 13756.00
894.8430, 13633.00
895.9710, 13760.00
897.1000, 13777.00
898.2280, 13791.00
899.3560, 13892.00
900.4830, 13769.00
901.6110, 13805.00
902.7380, 13898.00
903.8660, 13791.00
904.9930, 13873.00
906.1200, 13960.00
907.2460, 13871.00
908.3730, 14023.00
909.5000, 13896.00
910.6260, 13885.00
911.7520, 13849.00
912.8780, 13769.00
914.0040, 13755.00
915.1290, 13771.00
916.2550, 13807.00
917.3800, 13627.00
918.5050, 13558.00
919.6300, 13491.00
920.7550, 13574.00
921.8800, 13495.00
923.0040, 13572.00
924.1290, 13371.00
925.2530, 13511.00
926.3770, 13427.00
927.5010, 13460.00
928.6250, 13728.00
929.7480, 13674.00
930.8720, 13612.00
931.9950, 13639.00
933.1180, 13542.00
934.2410, 13630.00
935.3640, 13715.00
936.4860, 13558.00
937.6090, 13734.00
938.7310, 13655.00
939.8530, 13631.00
940.9750, 13761.00
942.0970, 13625.00
943.2180, 13683.00
944.3400, 13626.00
945.4610, 13659.00
946.5820, 13789.00
947.7030, 13768.00
948.8240, 13805.00
949.9450, 13758.00
951.0650, 13914.00
952.1860, 14057.00
953.3060, 14067.00
954.4260, 14223.00
955.5460, 14115.00
956.6650, 14275.00
957.7850, 14361.00
958.9040, 14331.00
960.0230, 14411.15
961.1420, 14366.00
962.2610, 14431.00
963.3800, 14410.00
964.4990, 14409.00
965.6170, 14371.00
966.7350, 14289.00
967.8530, 14292.00
968.9710, 14298.13
970.0890, 14315.00
971.2070, 14358.00
972.3240, 14367.59
973.4410, 14383.71
974.5580, 14402.00
975.6750, 14400.00
976.7920, 14395.00
977.9090, 14398.00
979.0250, 14354.00
980.1410, 14632.00
981.2580, 14558.00
982.3740, 14632.00
983.4890, 14814.00
984.6050, 14739.00
985.7200, 14592.00
986.8360, 14864.00
987.9510, 14924.00
989.0660, 14754.00
990.1810, 14829.00
991.2950, 14829.00
992.4100, 14979.00
993.5240, 14944.00
994.6390, 14944.00
995.7530, 15173.00
996.8660, 15217.00
997.9800, 15330.00
999.0940, 15579.00
1000.207, 15856.00
1001.320, 16013.00
1002.433, 15939.00
1003.546, 16293.00
1004.659, 16089.00
1005.772, 15649.00
1006.884, 15362.00
1007.996, 15388.00
1009.108, 15225.00
1010.220, 15033.00
1011.332, 15322.00
1012.444, 15138.00
1013.555, 15295.00
1014.666, 15372.00
1015.777, 15408.00
1016.888, 15513.00
1017.999, 15422.00
1019.110, 15266.00
1020.220, 15472.00
1021.331, 15281.00
1022.441, 15249.00
1023.551, 15142.00
1024.661, 15177.00
1025.770, 15089.23
1026.880, 15057.52
1027.989, 15013.00
1029.098, 14978.00
1030.207, 14952.26
1031.316, 14898.56
1032.425, 14909.00
1033.533, 14826.00
1034.642, 14810.00
1035.750, 14833.00
1036.858, 14753.00
1037.966, 14678.00
1039.073, 14758.00
1040.181, 14674.00
1041.288, 14714.00
1042.396, 14823.00
1043.503, 14721.00
1044.610, 14764.00
1045.716, 14750.00
1046.823, 14731.00
1047.929, 14854.00
1049.036, 14796.00
1050.142, 14869.00
1051.248, 14693.00
1052.353, 14625.00
1053.459, 14564.00
1054.564, 14728.00
1055.670, 14658.00
1056.775, 14760.00
1057.880, 14694.00
1058.985, 14662.00
1060.089, 14771.00
1061.194, 14722.00
1062.298, 14643.00
1063.402, 14694.00
1064.506, 14713.00
1065.610, 14820.00
1066.713, 14762.00
1067.817, 14856.00
1068.920, 15065.00
1070.023, 14997.00
1071.126, 15178.00
1072.229, 15236.00
1073.332, 15301.00
1074.435, 15378.00
1075.537, 15594.00
1076.639, 15552.00
1077.741, 15960.00
1078.843, 15977.00
1079.945, 16102.00
1081.046, 16375.00
1082.148, 16591.00
1083.249, 16928.00
1084.350, 17199.00
1085.451, 17412.00
1086.551, 17837.00
1087.652, 18313.00
1088.752, 18831.77
1089.853, 19382.00
1090.953, 20199.00
1092.053, 20970.00
1093.152, 21938.00
1094.252, 23051.00
1095.351, 24189.00
1096.451, 25046.00
1097.550, 26032.00
1098.649, 26613.00
1099.748, 26947.00
1100.846, 26854.00
1101.945, 26477.00
1103.043, 25938.00
1104.141, 25423.00
1105.239, 24784.00
1106.337, 24309.00
1107.434, 23917.00
1108.532, 23743.00
1109.629, 23651.00
1110.726, 23249.00
1111.823, 23182.00
1112.920, 23386.00
1114.017, 23152.00
1115.113, 22895.00
1116.210, 22604.00
1117.306, 22206.00
1118.402, 21616.00
1119.498, 20880.00
1120.593, 20423.00
1121.689, 19900.00
1122.784, 19165.00
1123.879, 18570.00
1124.974, 18328.00
1126.069, 17849.00
1127.164, 17392.00
1128.259, 17276.00
1129.353, 17003.00
1130.447, 16628.00
1131.541, 16500.00
1132.635, 16385.00
1133.729, 16212.00
1134.822, 16076.00
1135.916, 15917.00
1137.009, 15865.00
1138.102, 15717.00
1139.195, 15840.00
1140.288, 15664.00
1141.380, 15714.00
1142.473, 15644.00
1143.565, 15700.00
1144.657, 15604.00
1145.749, 15533.00
1146.841, 15603.00
1147.932, 15628.00
1149.024, 15636.00
1150.115, 15661.29
1151.206, 15772.00
1152.297, 15693.00
1153.388, 15668.00
1154.479, 15732.00
1155.569, 15618.00
1156.659, 15514.00
1157.750, 15705.00
1158.839, 15690.00
1159.929, 15762.00
1161.019, 15776.23
1162.108, 15617.00
1163.198, 15684.00
1164.287, 15716.00
1165.376, 15556.00
1166.465, 15760.00
1167.553, 15715.00
1168.642, 15663.00
1169.730, 15757.00
1170.818, 15719.00
1171.906, 15590.00
1172.994, 15674.00
1174.082, 15426.00
1175.170, 15585.00
1176.257, 15578.00
1177.344, 15711.00
1178.431, 15626.00
1179.518, 15558.00
1180.605, 15496.00
1181.691, 15514.27
1182.778, 15548.00
1183.864, 15617.00
1184.950, 15600.00
1186.036, 15708.00
1187.122, 15519.00
1188.207, 15512.00
1189.292, 15427.00
1190.378, 15618.00
1191.463, 15373.00
1192.548, 15500.00
1193.632, 15384.00
1194.717, 15359.00
1195.801, 15206.00
1196.886, 15250.68
1197.970, 15340.00
1199.054, 15333.00
1200.137, 15355.00
1201.221, 15415.00
1202.305, 15294.00
1203.388, 15279.00
1204.471, 15437.00
1205.554, 15313.00
1206.637, 15257.00
1207.719, 15424.00
1208.802, 15472.00
1209.884, 15515.65
1210.966, 15556.00
1212.048, 15616.00
1213.130, 15601.00
1214.212, 15610.00
1215.293, 15547.00
1216.374, 15611.00
1217.456, 15642.00
1218.536, 15789.00
1219.617, 15516.00
1220.698, 15748.00
1221.778, 15515.00
1222.859, 15782.00
1223.939, 15513.00
1225.019, 15718.00
1226.099, 15810.00
1227.178, 15613.00
1228.258, 15689.00
1229.337, 15960.00
1230.417, 15748.00
1231.496, 15970.00
1232.574, 16034.00
1233.653, 16093.00
1234.732, 16190.00
1235.810, 16173.00
1236.888, 16173.00
1237.966, 16154.00
1239.044, 16185.00
1240.122, 16191.69
1241.199, 16293.00
1242.277, 16236.00
1243.354, 16219.00
1244.431, 16238.00
1245.508, 16111.00
1246.585, 16252.00
1247.661, 16326.00
1248.738, 16336.00
1249.814, 16211.00
1250.890, 16277.00
1251.966, 16270.00
1253.042, 16291.75
1254.117, 16370.00
1255.193, 16398.00
1256.268, 16386.00
1257.343, 16435.00
1258.418, 16531.00
1259.493, 16401.00
1260.567, 16583.00
1261.642, 16374.00
1262.716, 16508.00
1263.790, 16503.00
1264.864, 16650.00
1265.938, 16784.00
1267.011, 16802.00
1268.085, 16801.00
1269.158, 16857.00
1270.231, 16813.00
1271.304, 16923.00
1272.377, 16956.00
1273.450, 16908.00
1274.522, 16873.00
1275.594, 16957.00
1276.666, 16929.00
1277.738, 16838.00
1278.810, 16663.00
1279.882, 16659.00
1280.953, 16604.00
1282.025, 16611.00
1283.096, 16607.00
1284.167, 16545.00
1285.238, 16609.00
1286.308, 16526.00
1287.379, 16318.00
1288.449, 16462.00
1289.519, 16406.46
1290.589, 16712.00
1291.659, 16559.00
1292.729, 16698.00
1293.798, 16884.00
1294.868, 16920.00
1295.937, 16964.00
1297.006, 16813.00
1298.075, 16839.00
1299.143, 16775.00
1300.212, 16918.00
1301.280, 16918.00
1302.348, 16626.00
1303.416, 16916.00
1304.484, 16801.00
1305.552, 16934.00
1306.620, 16868.00
1307.687, 16895.00
1308.754, 16946.00
1309.821, 17128.00
1310.888, 17034.00
1311.955, 16912.00
1313.021, 16849.00
1314.088, 17016.00
1315.154, 17128.00
1316.220, 17101.00
1317.286, 17044.00
1318.352, 17078.00
1319.417, 17047.20
1320.483, 16993.00
1321.548, 17017.00
1322.613, 17007.00
1323.678, 16943.00
1324.743, 16733.00
1325.807, 16704.00
1326.872, 16551.00
1327.936, 16563.00
1329.000, 16446.00
1330.064, 16398.00
1331.128, 16395.00
1332.191, 16331.00
1333.255, 16197.00
1334.318, 16175.00
1335.381, 16291.00
1336.444, 16261.00
1337.507, 16377.00
1338.569, 16260.00
1339.632, 16193.00
1340.694, 16065.00
1341.756, 16197.00
1342.818, 16191.00
1343.880, 16394.00
1344.941, 16370.00
1346.003, 16183.00
1347.064, 16267.00
1348.125, 16111.00
1349.186, 16022.00
1350.247, 16077.00
1351.308, 16228.00
1352.368, 16344.00
1353.428, 16107.00
1354.489, 16126.00
1355.549, 16164.00
1356.608, 16206.00
1357.668, 16248.00
1358.727, 16124.00
1359.787, 16136.00
1360.846, 16077.00
1361.905, 16130.00
1362.964, 16251.00
1364.022, 16197.00
1365.081, 16216.00
1366.139, 16402.00
1367.197, 16371.00
1368.255, 16314.00
1369.313, 16384.00
1370.371, 16316.00
1371.428, 16339.00
1372.486, 16330.00
1373.543, 16232.00
1374.600, 16342.00
1375.657, 16383.00
1376.713, 16394.00
1377.770, 16560.00
1378.826, 16470.00
1379.882, 16499.00
1380.938, 16574.00
1381.994, 16537.00
1383.050, 16690.00
1384.106, 16660.00
1385.161, 16743.00
1386.216, 16797.00
1387.271, 16722.00
1388.326, 16672.00
1389.381, 16803.00
1390.435, 16641.00
1391.490, 16747.00
1392.544, 16678.00
1393.598, 16642.00
1394.652, 16708.00
1395.705, 16690.00
1396.759, 16867.00
1397.812, 16684.00
1398.866, 16717.00
1399.919, 16549.00
1400.972, 16664.00
1402.024, 16595.97
1403.077, 16550.00
1404.129, 16533.00
1405.181, 16655.00
1406.233, 16576.00
1407.285, 16664.00
1408.337, 16577.00
1409.389, 16712.00
1410.440, 16765.00
1411.491, 16522.00
1412.542, 16551.00
1413.593, 16574.00
1414.644, 16622.00
1415.695, 16576.00
1416.745, 16695.00
1417.795, 16678.00
1418.845, 16794.00
1419.895, 16837.00
1420.945, 16736.00
1421.995, 16936.00
1423.044, 16870.00
1424.093, 17002.00
1425.142, 17061.00
1426.191, 17187.00
1427.240, 17136.00
1428.289, 17387.00
1429.337, 17411.00
1430.385, 17669.00
1431.433, 17652.00
1432.481, 17851.00
1433.529, 18276.00
1434.577, 18241.00
1435.624, 18496.00
1436.672, 18741.00
1437.719, 18946.00
1438.766, 19232.43
1439.812, 19483.34
1440.859, 19753.00
1441.905, 20009.00
1442.952, 20211.00
1443.998, 20422.00
1445.044, 20526.00
1446.090, 20773.00
1447.135, 20844.00
1448.181, 20938.41
1449.226, 21043.78
1450.271, 21028.00
1451.316, 21148.00
1452.361, 21143.00
1453.405, 21157.00
1454.450, 21131.27
1455.494, 20984.00
1456.538, 20968.00
1457.582, 20781.00
1458.626, 20609.00
1459.670, 20487.00
1460.713, 20069.00
1461.757, 19958.00
1462.800, 19777.00
1463.843, 19643.00
1464.886, 19296.00
1465.928, 19167.00
1466.971, 19032.00
1468.013, 18827.00
1469.055, 18722.00
1470.097, 18695.00
1471.139, 18532.00
1472.181, 18377.00
1473.222, 18205.00
1474.263, 18261.00
1475.305, 18211.00
1476.346, 18138.00
1477.386, 18035.00
1478.427, 17906.00
1479.468, 17999.00
1480.508, 17860.00
1481.548, 17895.00
1482.588, 17830.00
1483.628, 17779.00
1484.668, 17720.76
1485.707, 17836.00
1486.747, 17579.00
1487.786, 17460.00
1488.825, 17449.00
1489.864, 17217.00
1490.902, 17199.00
1491.941, 17113.00
1492.979, 17121.00
1494.017, 17087.00
1495.055, 17052.14
1496.093, 17138.00
1497.131, 16962.00
1498.168, 16976.00
1499.206, 16846.00
1500.243, 16961.00
1501.280, 16822.00
1502.317, 16907.00
1503.354, 16771.00
1504.390, 16873.00
1505.426, 16814.00
1506.463, 17033.00
1507.499, 16924.00
1508.535, 16591.00
1509.570, 16722.00
1510.606, 16887.00
1511.641, 16760.00
1512.676, 17065.00
1513.711, 16723.00
1514.746, 17009.00
1515.781, 16989.00
1516.816, 16833.00
1517.850, 16909.00
1518.884, 17106.00
1519.918, 17035.00
1520.952, 17060.00
1521.986, 16906.00
1523.019, 16903.00
1524.053, 16943.00
1525.086, 16944.00
1526.119, 16880.00
1527.152, 16959.00
1528.185, 17128.00
1529.217, 17021.00
1530.250, 17018.00
1531.282, 17178.00
1532.314, 17095.00
1533.346, 17064.00
1534.377, 17132.00
1535.409, 17029.00
1536.440, 17097.00
1537.472, 17162.00
1538.503, 17188.00
1539.534, 17059.00
1540.564, 17237.00
1541.595, 17086.00
1542.625, 17078.00
1543.656, 17196.00
1544.686, 17158.00
1545.716, 17137.00
1546.745, 17251.00
1547.775, 17161.00
1548.804, 17241.00
1549.834, 17141.00
1550.863, 17227.00
1551.892, 17080.00
1552.920, 17155.00
1553.949, 17176.00
1554.977, 17153.78
1556.006, 17262.00
1557.034, 17184.00
1558.062, 17212.00
1559.089, 17209.00
1560.117, 17257.00
1561.144, 17078.00
1562.172, 16993.00
1563.199, 17094.00
1564.226, 17232.00
1565.252, 17080.00
1566.279, 17173.00
1567.305, 17298.00
1568.332, 17133.00
1569.358, 17183.00
1570.384, 17375.00
1571.409, 17433.00
##END=



