##NAMES=Albite
##RRUFFID=R050402
##IDEAL CHEMISTRY=NaAlSi_3_O_8_
##LOCALITY=Urbano mine, Golconda District, Brazil
##OWNER=RRUFF
##SOURCE=Bob Downs
##DESCRIPTION=Colorless tabular single crystals associated with fluorapatite R050401
##STATUS=The identification of this mineral has been confirmed by X-ray diffraction and chemical analysis
##URL=rruff.info/R050402
##MEASURED CHEMISTRY=Na_1.00_Al_1.00_Si_3.00_O_8_
##PIN_ID=M00139
##ORIENTATION=Laser parallel to c* (0 0 1). Fiducial mark perpendicular to laser is parallel to a [1 0 0]
81.13100, 4457.000
82.36700, 4799.000
83.60200, 5406.000
84.83700, 6012.000
86.07200, 6580.000
87.30800, 7435.000
88.54200, 8469.000
89.77700, 8731.000
91.01200, 8360.000
92.24600, 7587.000
93.48000, 6949.000
94.71400, 6636.000
95.94800, 6505.000
97.18200, 6300.000
98.41600, 6368.000
99.64900, 6417.000
100.8830, 6390.000
102.1160, 6540.000
103.3490, 6578.000
104.5820, 6871.000
105.8150, 7148.000
107.0470, 7543.000
108.2800, 7963.000
109.5120, 8605.000
110.7440, 9098.000
111.9760, 9643.000
113.2080, 10697.00
114.4400, 11969.00
115.6710, 12515.00
116.9030, 12279.00
118.1340, 11426.00
119.3650, 10170.00
120.5960, 9232.000
121.8270, 8399.000
123.0580, 8009.000
124.2880, 7846.000
125.5190, 7554.000
126.7490, 7323.000
127.9790, 7477.000
129.2090, 7445.000
130.4390, 7428.000
131.6680, 7547.000
132.8980, 7575.117
134.1270, 7778.000
135.3560, 7812.000
136.5850, 7974.000
137.8140, 8224.000
139.0430, 8588.000
140.2710, 9027.000
141.5000, 9309.000
142.7280, 9652.000
143.9560, 10438.00
145.1840, 11407.00
146.4120, 12543.00
147.6390, 13790.00
148.8670, 15060.00
150.0940, 16524.00
151.3210, 18264.00
152.5490, 19480.00
153.7750, 18754.00
155.0020, 16926.00
156.2290, 14226.00
157.4550, 11944.00
158.6810, 10538.00
159.9080, 9544.000
161.1340, 9173.000
162.3590, 9112.000
163.5850, 9417.000
164.8110, 9416.000
166.0360, 9617.000
167.2610, 9878.000
168.4860, 10240.00
169.7110, 11110.00
170.9360, 12168.00
172.1610, 13111.00
173.3850, 13597.00
174.6100, 13375.00
175.8340, 13212.00
177.0580, 12958.00
178.2820, 12982.00
179.5050, 13537.00
180.7290, 13931.00
181.9520, 14681.00
183.1760, 15541.00
184.3990, 16376.00
185.6220, 17007.00
186.8450, 17722.00
188.0670, 17989.00
189.2900, 17590.00
190.5120, 16573.00
191.7340, 15675.00
192.9560, 14741.00
194.1780, 13849.00
195.4000, 13155.00
196.6220, 12758.00
197.8430, 12338.00
199.0640, 12121.00
200.2860, 12277.00
201.5070, 12280.00
202.7270, 12876.00
203.9480, 13216.00
205.1690, 13842.00
206.3890, 15015.00
207.6090, 16825.00
208.8290, 18686.00
210.0490, 20268.00
211.2690, 21108.00
212.4890, 20449.00
213.7080, 18486.00
214.9280, 16006.00
216.1470, 13786.00
217.3660, 12136.00
218.5850, 10873.00
219.8030, 9859.000
221.0220, 9313.000
222.2400, 8920.000
223.4590, 8631.000
224.6770, 8280.000
225.8950, 8161.000
227.1120, 8010.000
228.3300, 7989.000
229.5480, 7927.000
230.7650, 7848.000
231.9820, 7751.000
233.1990, 7681.000
234.4160, 7664.000
235.6330, 7726.000
236.8490, 7633.000
238.0660, 7706.000
239.2820, 7611.000
240.4980, 7534.000
241.7140, 7551.000
242.9300, 7681.000
244.1460, 7856.000
245.3610, 7879.000
246.5770, 7940.000
247.7920, 8158.000
249.0070, 8482.000
250.2220, 8946.000
251.4370, 9395.000
252.6510, 10029.00
253.8660, 10303.00
255.0800, 10218.00
256.2940, 9664.000
257.5080, 9151.000
258.7220, 8845.000
259.9360, 8545.347
261.1490, 8531.000
262.3630, 8276.000
263.5760, 8406.000
264.7890, 8502.000
266.0020, 8672.000
267.2150, 9015.000
268.4270, 9277.000
269.6400, 9668.000
270.8520, 9811.000
272.0640, 10031.00
273.2760, 9778.000
274.4880, 9607.000
275.7000, 9341.000
276.9120, 9127.000
278.1230, 9045.000
279.3340, 8991.000
280.5450, 9129.000
281.7560, 9316.000
282.9670, 9595.000
284.1780, 10012.00
285.3880, 10635.00
286.5980, 11710.00
287.8090, 12814.00
289.0190, 14444.00
290.2290, 16198.00
291.4380, 17848.00
292.6480, 18742.00
293.8570, 18354.00
295.0670, 16962.00
296.2760, 15264.00
297.4850, 13491.00
298.6930, 11975.00
299.9020, 10872.00
301.1110, 10193.00
302.3190, 9614.000
303.5270, 9204.000
304.7350, 9002.000
305.9430, 8707.000
307.1510, 8609.000
308.3580, 8463.000
309.5660, 8431.000
310.7730, 8320.000
311.9800, 8287.000
313.1870, 8153.000
314.3940, 8260.000
315.6010, 8177.000
316.8070, 8283.000
318.0130, 8249.000
319.2200, 8292.000
320.4260, 8364.000
321.6310, 8553.000
322.8370, 8662.000
324.0430, 9005.000
325.2480, 9414.000
326.4540, 9916.000
327.6590, 11015.00
328.8640, 11920.00
330.0680, 12919.00
331.2730, 13146.00
332.4780, 12486.00
333.6820, 11369.00
334.8860, 10508.00
336.0900, 9592.000
337.2940, 9167.000
338.4980, 8882.000
339.7010, 8666.000
340.9050, 8495.000
342.1080, 8452.000
343.3110, 8166.000
344.5140, 8329.000
345.7170, 8159.000
346.9200, 8154.000
348.1220, 8283.000
349.3240, 8250.000
350.5270, 8260.000
351.7290, 8276.000
352.9310, 8162.000
354.1320, 8169.000
355.3340, 8158.000
356.5350, 8102.000
357.7370, 8036.000
358.9380, 8091.000
360.1390, 8095.000
361.3400, 8104.000
362.5400, 8023.000
363.7410, 7990.000
364.9410, 8027.000
366.1410, 8105.000
367.3410, 8115.000
368.5410, 8084.000
369.7410, 8014.000
370.9400, 8131.000
372.1400, 8047.000
373.3390, 7993.000
374.5380, 8064.000
375.7370, 8120.000
376.9360, 8187.000
378.1350, 8134.000
379.3330, 8169.000
380.5310, 8128.000
381.7300, 8170.000
382.9280, 8202.469
384.1260, 8224.000
385.3230, 8301.000
386.5210, 8297.000
387.7180, 8351.000
388.9160, 8324.000
390.1130, 8226.000
391.3100, 8443.000
392.5060, 8428.000
393.7030, 8549.000
394.9000, 8716.000
396.0960, 8654.000
397.2920, 8913.000
398.4880, 9040.000
399.6840, 9257.000
400.8800, 9308.000
402.0750, 9264.000
403.2710, 9418.000
404.4660, 9566.000
405.6610, 9699.000
406.8560, 10078.00
408.0510, 10652.00
409.2450, 11130.00
410.4400, 11182.00
411.6340, 11060.00
412.8280, 10818.00
414.0220, 10979.00
415.2160, 11616.00
416.4100, 12324.00
417.6030, 13035.00
418.7970, 13087.00
419.9900, 12427.00
421.1830, 11251.00
422.3760, 10441.00
423.5690, 9871.000
424.7610, 9509.000
425.9540, 9184.000
427.1460, 9130.000
428.3380, 8900.000
429.5300, 8990.000
430.7220, 8892.000
431.9140, 8820.000
433.1050, 9028.000
434.2970, 8985.000
435.4880, 8950.000
436.6790, 8991.000
437.8700, 8918.000
439.0610, 8991.000
440.2510, 9092.000
441.4420, 9144.000
442.6320, 9333.000
443.8220, 9400.000
445.0120, 9442.000
446.2020, 9737.000
447.3910, 9895.000
448.5810, 10151.00
449.7700, 10387.00
450.9600, 10881.00
452.1490, 11375.00
453.3370, 12082.00
454.5260, 13091.00
455.7150, 14190.00
456.9030, 14928.00
458.0910, 15434.00
459.2800, 15305.00
460.4670, 14472.00
461.6550, 13491.00
462.8430, 12835.00
464.0300, 12538.00
465.2180, 12145.00
466.4050, 12122.00
467.5920, 12366.00
468.7790, 12953.00
469.9650, 13545.00
471.1520, 14505.00
472.3380, 15960.00
473.5250, 17736.00
474.7110, 19857.00
475.8970, 23231.00
477.0820, 27453.00
478.2680, 32235.00
479.4540, 36467.00
480.6390, 38120.00
481.8240, 36328.00
483.0090, 32042.00
484.1940, 27077.00
485.3780, 22518.00
486.5630, 19426.00
487.7470, 16996.00
488.9320, 15666.00
490.1160, 14750.00
491.3000, 14176.00
492.4830, 14018.00
493.6670, 13820.00
494.8500, 14129.00
496.0340, 14456.00
497.2170, 15284.00
498.4000, 16486.00
499.5820, 17737.00
500.7650, 19999.00
501.9480, 22740.00
503.1300, 26335.00
504.3120, 31494.00
505.4940, 37900.00
506.6760, 45362.00
507.8580, 51431.00
509.0390, 54147.00
510.2210, 51800.00
511.4020, 45784.00
512.5830, 38162.00
513.7640, 31192.00
514.9450, 26002.00
516.1250, 22143.00
517.3060, 19216.00
518.4860, 17308.00
519.6660, 16014.00
520.8460, 14900.00
522.0260, 14130.00
523.2060, 13474.00
524.3850, 13098.00
525.5650, 12709.00
526.7440, 12406.00
527.9230, 12129.93
529.1020, 11867.00
530.2810, 11690.00
531.4590, 11440.00
532.6380, 11280.00
533.8160, 11172.00
534.9940, 11026.00
536.1720, 11022.00
537.3500, 10959.00
538.5270, 10871.00
539.7050, 10831.00
540.8820, 10848.00
542.0590, 10677.00
543.2360, 10636.00
544.4130, 10487.00
545.5900, 10488.00
546.7660, 10625.00
547.9430, 10520.00
549.1190, 10498.00
550.2950, 10343.00
551.4710, 10432.00
552.6470, 10440.00
553.8220, 10433.00
554.9980, 10522.00
556.1730, 10286.00
557.3480, 10378.00
558.5230, 10290.00
559.6980, 10463.00
560.8730, 10320.00
562.0470, 10389.00
563.2220, 10172.00
564.3960, 10282.00
565.5700, 10407.00
566.7440, 10417.00
567.9170, 10499.00
569.0910, 10613.00
570.2640, 10628.00
571.4380, 10750.58
572.6110, 10814.20
573.7840, 10962.00
574.9570, 11036.00
576.1290, 11174.00
577.3020, 11437.00
578.4740, 11960.00
579.6460, 12011.00
580.8180, 11933.00
581.9900, 11885.00
583.1620, 11704.00
584.3330, 11376.00
585.5040, 11135.00
586.6760, 10970.00
587.8470, 10792.00
589.0180, 10630.00
590.1880, 10515.00
591.3590, 10344.00
592.5290, 10446.00
593.7000, 10305.00
594.8700, 10345.00
596.0400, 10268.00
597.2090, 10216.00
598.3790, 10285.00
599.5490, 10345.00
600.7180, 10210.00
601.8870, 10249.00
603.0560, 10285.00
604.2250, 10282.00
605.3940, 10225.00
606.5620, 10369.00
607.7300, 10406.00
608.8990, 10270.00
610.0670, 10346.00
611.2350, 10247.00
612.4020, 10337.00
613.5700, 10390.00
614.7370, 10345.00
615.9050, 10385.00
617.0720, 10407.00
618.2390, 10390.00
619.4060, 10342.00
620.5720, 10491.00
621.7390, 10477.00
622.9050, 10582.00
624.0710, 10623.00
625.2370, 10754.00
626.4030, 10653.00
627.5690, 10710.00
628.7340, 10819.00
629.9000, 10618.00
631.0650, 10680.00
632.2300, 10676.00
633.3950, 10714.00
634.5600, 10670.00
635.7240, 10801.00
636.8890, 10800.00
638.0530, 10956.00
639.2170, 10756.00
640.3810, 10822.00
641.5450, 11021.00
642.7080, 11088.00
643.8720, 11283.00
645.0350, 11335.00
646.1980, 11532.00
647.3610, 11635.00
648.5240, 11602.00
649.6870, 11598.00
650.8490, 11556.00
652.0120, 11443.00
653.1740, 11210.00
654.3360, 10989.00
655.4980, 11146.00
656.6600, 11030.00
657.8210, 11138.00
658.9830, 10849.00
660.1440, 10845.00
661.3050, 10986.00
662.4660, 10748.00
663.6270, 10848.00
664.7870, 10829.00
665.9480, 10894.00
667.1080, 10801.00
668.2680, 10782.00
669.4280, 10701.00
670.5880, 10867.00
671.7480, 10783.00
672.9070, 10769.00
674.0670, 10936.00
675.2260, 10804.00
676.3850, 10813.00
677.5440, 10809.00
678.7030, 10828.00
679.8610, 10798.64
681.0200, 10823.00
682.1780, 10798.00
683.3360, 10747.00
684.4940, 10865.00
685.6520, 10906.00
686.8090, 10992.00
687.9670, 10914.00
689.1240, 10876.00
690.2810, 10998.00
691.4380, 10884.00
692.5950, 10902.00
693.7520, 10945.00
694.9080, 10867.00
696.0650, 11110.00
697.2210, 10916.00
698.3770, 11044.00
699.5330, 11075.00
700.6880, 10960.00
701.8440, 11037.00
702.9990, 10959.00
704.1550, 11161.00
705.3100, 10934.00
706.4650, 11125.00
707.6190, 11118.00
708.7740, 11109.00
709.9290, 11098.00
711.0830, 11082.00
712.2370, 11142.00
713.3910, 11067.00
714.5450, 11129.00
715.6980, 11314.00
716.8520, 11261.00
718.0050, 11337.00
719.1580, 11282.00
720.3110, 11462.00
721.4640, 11393.00
722.6170, 11442.00
723.7700, 11319.00
724.9220, 11325.00
726.0740, 11429.00
727.2260, 11342.00
728.3780, 11470.00
729.5300, 11420.00
730.6810, 11523.00
731.8330, 11602.00
732.9840, 11549.00
734.1350, 11533.00
735.2860, 11507.00
736.4370, 11593.00
737.5880, 11597.00
738.7380, 11700.00
739.8880, 11701.00
741.0390, 11741.00
742.1890, 11783.00
743.3380, 11807.00
744.4880, 12007.00
745.6380, 12010.00
746.7870, 12065.00
747.9360, 12284.00
749.0850, 12192.00
750.2340, 12309.00
751.3830, 12497.00
752.5310, 12853.00
753.6800, 13061.00
754.8280, 13532.00
755.9760, 13828.00
757.1240, 14391.00
758.2720, 15396.00
759.4190, 16223.00
760.5670, 17723.00
761.7140, 19123.00
762.8610, 20819.00
764.0080, 21902.00
765.1550, 22454.00
766.3020, 21727.00
767.4480, 20231.00
768.5950, 18257.00
769.7410, 16728.00
770.8870, 15662.00
772.0330, 14772.00
773.1780, 14226.00
774.3240, 13749.00
775.4690, 13348.00
776.6140, 13009.00
777.7590, 12962.00
778.9040, 12881.00
780.0490, 12757.00
781.1940, 12748.00
782.3380, 12783.00
783.4820, 12566.00
784.6260, 12562.00
785.7700, 12544.00
786.9140, 12408.00
788.0580, 12580.00
789.2010, 12518.00
790.3450, 12411.00
791.4880, 12584.00
792.6310, 12487.00
793.7730, 12646.00
794.9160, 12656.00
796.0590, 12646.00
797.2010, 12744.00
798.3430, 12721.00
799.4850, 12830.61
800.6270, 13028.00
801.7690, 13064.00
802.9100, 13329.00
804.0520, 13521.00
805.1930, 13854.00
806.3340, 14235.00
807.4750, 14613.00
808.6160, 15278.00
809.7560, 16065.00
810.8970, 17211.00
812.0370, 18610.00
813.1770, 20307.00
814.3170, 22095.00
815.4570, 23604.00
816.5960, 24280.00
817.7360, 23889.00
818.8750, 22541.00
820.0140, 20486.00
821.1530, 18479.00
822.2920, 17000.00
823.4310, 15807.00
824.5690, 15172.00
825.7070, 14409.00
826.8460, 14105.00
827.9840, 13829.00
829.1220, 13651.00
830.2590, 13418.00
831.3970, 13231.00
832.5340, 13278.00
833.6710, 13225.00
834.8080, 13167.00
835.9450, 13070.00
837.0820, 13183.00
838.2190, 13107.00
839.3550, 12984.00
840.4910, 13077.00
841.6270, 12904.00
842.7630, 12812.00
843.8990, 12955.00
845.0350, 12928.00
846.1700, 12954.00
847.3060, 12776.00
848.4410, 12873.00
849.5760, 12756.00
850.7100, 12787.00
851.8450, 12860.00
852.9800, 12875.00
854.1140, 12922.00
855.2480, 12959.00
856.3820, 12852.00
857.5160, 12859.00
858.6500, 12868.00
859.7830, 12737.00
860.9170, 12885.00
862.0500, 12703.00
863.1830, 13020.00
864.3160, 12902.00
865.4480, 12840.00
866.5810, 12814.00
867.7130, 12635.00
868.8460, 12869.00
869.9780, 12727.00
871.1100, 12833.00
872.2410, 12758.00
873.3730, 12858.00
874.5050, 12989.00
875.6360, 12811.00
876.7670, 12842.00
877.8980, 12886.00
879.0290, 12897.00
880.1590, 13001.00
881.2900, 12972.00
882.4200, 13032.00
883.5500, 13017.33
884.6800, 12968.00
885.8100, 12978.00
886.9400, 12954.00
888.0690, 12954.00
889.1990, 12948.51
890.3280, 12905.00
891.4570, 12971.00
892.5860, 12985.00
893.7140, 13070.00
894.8430, 13136.00
895.9710, 13175.34
897.1000, 12978.00
898.2280, 13189.00
899.3560, 13179.00
900.4830, 12995.00
901.6110, 13282.00
902.7380, 13158.00
903.8660, 13130.00
904.9930, 13187.00
906.1200, 13390.00
907.2460, 13162.00
908.3730, 13278.00
909.5000, 13135.00
910.6260, 13246.00
911.7520, 13265.00
912.8780, 13328.00
914.0040, 13330.00
915.1290, 13302.00
916.2550, 13403.00
917.3800, 13252.00
918.5050, 13237.00
919.6300, 13387.00
920.7550, 13232.00
921.8800, 13347.00
923.0040, 13148.00
924.1290, 13350.00
925.2530, 13525.00
926.3770, 13483.00
927.5010, 13249.00
928.6250, 13462.00
929.7480, 13386.00
930.8720, 13475.00
931.9950, 13354.00
933.1180, 13557.00
934.2410, 13535.00
935.3640, 13531.00
936.4860, 13506.00
937.6090, 13415.00
938.7310, 13643.00
939.8530, 13501.00
940.9750, 13658.00
942.0970, 13658.00
943.2180, 13785.00
944.3400, 13706.00
945.4610, 13652.00
946.5820, 13635.00
947.7030, 13839.00
948.8240, 13600.00
949.9450, 13746.00
951.0650, 13802.00
952.1860, 13770.00
953.3060, 13861.00
954.4260, 13800.00
955.5460, 13816.00
956.6650, 13851.00
957.7850, 13868.23
958.9040, 13835.00
960.0230, 14007.00
961.1420, 13962.00
962.2610, 14106.00
963.3800, 14090.00
964.4990, 14036.00
965.6170, 14102.00
966.7350, 14114.68
967.8530, 14322.00
968.9710, 14259.00
970.0890, 14409.00
971.2070, 14572.00
972.3240, 14623.00
973.4410, 14963.00
974.5580, 15026.00
975.6750, 15273.00
976.7920, 15520.00
977.9090, 15765.00
979.0250, 16045.00
980.1410, 16092.00
981.2580, 15937.00
982.3740, 15659.00
983.4890, 15502.00
984.6050, 15214.00
985.7200, 15015.00
986.8360, 14719.00
987.9510, 14602.00
989.0660, 14596.00
990.1810, 14427.00
991.2950, 14442.00
992.4100, 14338.00
993.5240, 14325.00
994.6390, 14243.00
995.7530, 14440.00
996.8660, 14419.00
997.9800, 14492.00
999.0940, 14457.00
1000.207, 14611.00
1001.320, 14719.00
1002.433, 14902.00
1003.546, 14732.00
1004.659, 14759.00
1005.772, 14688.00
1006.884, 14721.00
1007.996, 14634.00
1009.108, 14779.00
1010.220, 14617.00
1011.332, 14817.00
1012.444, 14749.00
1013.555, 14652.00
1014.666, 14733.00
1015.777, 14621.00
1016.888, 14836.00
1017.999, 14761.00
1019.110, 14739.00
1020.220, 14565.00
1021.331, 14655.00
1022.441, 14680.00
1023.551, 14755.00
1024.661, 14692.00
1025.770, 14803.00
1026.880, 14749.00
1027.989, 14662.00
1029.098, 14722.00
1030.207, 14662.00
1031.316, 14715.00
1032.425, 14756.00
1033.533, 14856.00
1034.642, 14840.00
1035.750, 14939.00
1036.858, 14846.00
1037.966, 14811.00
1039.073, 14889.00
1040.181, 14904.00
1041.288, 14930.00
1042.396, 14995.00
1043.503, 14843.00
1044.610, 15096.00
1045.716, 14915.00
1046.823, 15111.00
1047.929, 15162.00
1049.036, 15280.00
1050.142, 15095.00
1051.248, 15206.00
1052.353, 14967.00
1053.459, 15033.00
1054.564, 15067.00
1055.670, 15063.00
1056.775, 15051.00
1057.880, 14945.00
1058.985, 14895.00
1060.089, 14845.00
1061.194, 14931.00
1062.298, 14912.00
1063.402, 15147.00
1064.506, 14914.00
1065.610, 15057.00
1066.713, 14885.00
1067.817, 15037.00
1068.920, 14925.00
1070.023, 15044.00
1071.126, 15075.00
1072.229, 15060.45
1073.332, 15095.00
1074.435, 15111.00
1075.537, 15113.00
1076.639, 15190.00
1077.741, 15124.00
1078.843, 15197.00
1079.945, 15360.00
1081.046, 15214.00
1082.148, 15447.00
1083.249, 15392.00
1084.350, 15405.00
1085.451, 15590.00
1086.551, 15634.00
1087.652, 15580.00
1088.752, 15743.00
1089.853, 15953.00
1090.953, 15966.00
1092.053, 16351.00
1093.152, 16401.00
1094.252, 16867.00
1095.351, 16941.00
1096.451, 17015.00
1097.550, 17551.00
1098.649, 17910.00
1099.748, 17793.00
1100.846, 17863.00
1101.945, 17926.00
1103.043, 17557.00
1104.141, 17187.00
1105.239, 17127.00
1106.337, 16781.00
1107.434, 16490.00
1108.532, 16443.00
1109.629, 16406.00
1110.726, 16226.00
1111.823, 16104.00
1112.920, 16098.00
1114.017, 15995.02
1115.113, 15940.00
1116.210, 15897.00
1117.306, 15857.00
1118.402, 15845.81
1119.498, 15854.59
1120.593, 15871.00
1121.689, 15878.00
1122.784, 15859.09
1123.879, 15906.00
1124.974, 15817.00
1126.069, 15758.00
1127.164, 15748.00
1128.259, 15761.00
1129.353, 15595.00
1130.447, 15736.00
1131.541, 15748.00
1132.635, 15481.00
1133.729, 15621.00
1134.822, 15561.00
1135.916, 15528.00
1137.009, 15493.00
1138.102, 15545.00
1139.195, 15452.00
1140.288, 15433.00
1141.380, 15499.00
1142.473, 15600.00
1143.565, 15603.00
1144.657, 15681.00
1145.749, 15745.00
1146.841, 15787.00
1147.932, 15622.00
1149.024, 15660.00
1150.115, 15654.00
1151.206, 15677.00
1152.297, 15693.00
1153.388, 15787.00
1154.479, 15706.00
1155.569, 15917.00
1156.659, 15663.00
1157.750, 15825.00
1158.839, 15667.00
1159.929, 15824.00
1161.019, 15756.00
1162.108, 15693.00
1163.198, 15719.00
1164.287, 15613.00
1165.376, 15716.00
1166.465, 15840.00
1167.553, 15709.00
1168.642, 15664.00
1169.730, 15739.00
1170.818, 15820.00
1171.906, 15903.00
1172.994, 15863.00
1174.082, 15845.00
1175.170, 16033.00
1176.257, 15966.00
1177.344, 15875.00
1178.431, 15915.00
1179.518, 15730.00
1180.605, 15783.00
1181.691, 15875.00
1182.778, 15807.00
1183.864, 15930.00
1184.950, 15959.00
1186.036, 15929.00
1187.122, 15825.00
1188.207, 16060.00
1189.292, 15909.00
1190.378, 16030.00
1191.463, 15858.00
1192.548, 16106.00
1193.632, 16034.00
1194.717, 16080.00
1195.801, 15976.00
1196.886, 15931.00
1197.970, 16041.00
1199.054, 16198.00
1200.137, 16049.00
1201.221, 16021.00
1202.305, 16170.00
1203.388, 16056.00
1204.471, 16234.00
1205.554, 16219.00
1206.637, 16126.00
1207.719, 16174.00
1208.802, 16137.00
1209.884, 16259.00
1210.966, 16304.00
1212.048, 16281.07
1213.130, 16220.00
1214.212, 16244.00
1215.293, 16229.00
1216.374, 16203.00
1217.456, 16276.00
1218.536, 16192.00
1219.617, 16119.00
1220.698, 16328.00
1221.778, 16411.00
1222.859, 16275.00
1223.939, 16409.00
1225.019, 16223.00
1226.099, 16191.00
1227.178, 16473.00
1228.258, 16470.00
1229.337, 16480.00
1230.417, 16441.00
1231.496, 16597.00
1232.574, 16440.00
1233.653, 16336.00
1234.732, 16481.00
1235.810, 16439.00
1236.888, 16525.00
1237.966, 16521.00
1239.044, 16684.00
1240.122, 16645.11
1241.199, 16315.00
1242.277, 16625.00
1243.354, 16505.00
1244.431, 16492.00
1245.508, 16584.00
1246.585, 16675.00
1247.661, 16560.00
1248.738, 16562.00
1249.814, 16774.00
1250.890, 16713.00
1251.966, 16644.00
1253.042, 16818.00
1254.117, 16734.00
1255.193, 16783.00
1256.268, 16682.00
1257.343, 16552.00
1258.418, 16693.00
1259.493, 16719.00
1260.567, 16804.00
1261.642, 16689.00
1262.716, 16708.00
1263.790, 16840.00
1264.864, 16720.00
1265.938, 16816.00
1267.011, 16608.00
1268.085, 16921.00
1269.158, 16871.00
1270.231, 16876.00
1271.304, 16939.00
1272.377, 16869.00
1273.450, 17004.00
1274.522, 16972.00
1275.594, 16941.00
1276.666, 16818.00
1277.738, 16870.00
1278.810, 16764.00
1279.882, 17073.00
1280.953, 16903.00
1282.025, 16920.00
1283.096, 16803.00
1284.167, 17029.00
1285.238, 17101.00
1286.308, 16935.00
1287.379, 16855.00
1288.449, 17042.00
1289.519, 17116.00
1290.589, 16992.00
1291.659, 17011.00
1292.729, 16968.00
1293.798, 17015.00
1294.868, 17067.00
1295.937, 17035.00
1297.006, 17096.00
1298.075, 17146.00
1299.143, 17067.00
1300.212, 17134.00
1301.280, 17127.00
1302.348, 17182.00
1303.416, 17305.00
1304.484, 17226.00
1305.552, 17440.00
1306.620, 17190.00
1307.687, 17350.00
1308.754, 17251.00
1309.821, 17185.00
1310.888, 17294.00
1311.955, 17282.00
1313.021, 17180.00
1314.088, 17313.00
1315.154, 17197.00
1316.220, 17242.00
1317.286, 17350.00
1318.352, 17275.00
1319.417, 17267.00
1320.483, 17333.00
1321.548, 17437.00
1322.613, 17275.00
1323.678, 17448.00
1324.743, 17240.00
1325.807, 17196.00
1326.872, 17409.00
1327.936, 17297.00
1329.000, 17302.00
1330.064, 17362.00
1331.128, 17373.00
1332.191, 17346.00
1333.255, 17390.35
1334.318, 17218.00
1335.381, 17411.00
1336.444, 17409.00
1337.507, 17384.00
1338.569, 17224.00
1339.632, 17442.00
1340.694, 17392.00
1341.756, 17513.00
1342.818, 17502.00
1343.880, 17314.00
1344.941, 17543.00
1346.003, 17431.00
1347.064, 17578.00
1348.125, 17383.00
1349.186, 17433.00
1350.247, 17533.00
1351.308, 17606.00
1352.368, 17490.00
1353.428, 17651.00
1354.489, 17672.00
1355.549, 17537.00
1356.608, 17595.00
1357.668, 17417.00
1358.727, 17430.59
1359.787, 17557.00
1360.846, 17406.00
1361.905, 17588.00
1362.964, 17604.00
1364.022, 17629.00
1365.081, 17623.00
1366.139, 17729.00
1367.197, 17794.00
1368.255, 17690.00
1369.313, 17770.94
1370.371, 17700.00
1371.428, 17796.00
1372.486, 17634.00
1373.543, 17657.00
1374.600, 17731.00
1375.657, 17839.00
1376.713, 17772.00
1377.770, 17756.00
1378.826, 17792.00
1379.882, 17852.00
1380.938, 17843.08
1381.994, 17847.82
1383.050, 17857.00
1384.106, 17821.00
1385.161, 17804.00
1386.216, 17818.00
1387.271, 17846.00
1388.326, 17865.00
1389.381, 17854.75
1390.435, 17852.00
1391.490, 17833.00
1392.544, 17861.98
1393.598, 17890.28
1394.652, 17929.00
1395.705, 17974.00
1396.759, 18026.00
1397.812, 18047.95
1398.866, 18095.00
1399.919, 18049.00
1400.972, 17934.00
1402.024, 17952.00
1403.077, 17986.00
1404.129, 17933.00
1405.181, 18061.00
1406.233, 18051.31
1407.285, 17955.00
1408.337, 18113.00
1409.389, 18062.83
1410.440, 18074.00
1411.491, 18066.00
1412.542, 18149.00
1413.593, 17928.00
1414.644, 18291.00
1415.695, 18026.00
1416.745, 18104.00
1417.795, 18053.00
1418.845, 17987.00
1419.895, 18112.00
1420.945, 18249.00
1421.995, 18183.00
1423.044, 18304.00
1424.093, 18265.00
1425.142, 18246.00
1426.191, 18279.00
1427.240, 18242.00
1428.289, 18282.00
1429.337, 18349.00
1430.385, 18305.00
1431.433, 18284.00
1432.481, 18366.00
1433.529, 18414.00
1434.577, 18505.00
1435.624, 18549.00
1436.672, 18527.00
1437.719, 18585.00
1438.766, 18485.00
1439.812, 18554.00
1440.859, 18480.00
1441.905, 18498.77
1442.952, 18682.00
1443.998, 18548.00
1445.044, 18609.00
1446.090, 18675.00
1447.135, 18460.00
1448.181, 18543.00
1449.226, 18603.00
1450.271, 18717.00
1451.316, 18678.00
1452.361, 18557.00
1453.405, 18645.00
1454.450, 18599.00
1455.494, 18616.00
1456.538, 18702.00
1457.582, 18647.00
1458.626, 18722.00
1459.670, 18722.00
1460.713, 18625.00
1461.757, 18764.00
1462.800, 18639.00
1463.843, 18774.00
1464.886, 18834.00
1465.928, 18630.00
1466.971, 18784.00
1468.013, 18774.00
1469.055, 18827.00
1470.097, 18817.00
1471.139, 18689.00
1472.181, 18770.00
1473.222, 18722.30
1474.263, 18860.00
1475.305, 18739.00
1476.346, 18786.00
1477.386, 18832.00
1478.427, 18779.00
1479.468, 18877.00
1480.508, 18946.00
1481.548, 18780.00
1482.588, 18988.00
1483.628, 19063.00
1484.668, 18897.00
1485.707, 18820.00
1486.747, 19041.00
1487.786, 18933.00
1488.825, 18861.00
1489.864, 18995.00
1490.902, 18965.00
1491.941, 18924.00
1492.979, 18992.00
1494.017, 19052.00
1495.055, 18941.00
1496.093, 19039.00
1497.131, 18892.00
1498.168, 18982.00
1499.206, 18908.00
1500.243, 18968.00
1501.280, 18961.00
1502.317, 19233.00
1503.354, 19006.00
1504.390, 19195.00
1505.426, 18993.00
1506.463, 18947.00
1507.499, 19207.00
1508.535, 19093.00
1509.570, 19226.00
1510.606, 19147.00
1511.641, 19236.00
1512.676, 19157.00
1513.711, 19140.00
1514.746, 19162.00
1515.781, 19123.00
1516.816, 19194.00
1517.850, 19125.00
1518.884, 19215.00
1519.918, 19358.00
1520.952, 19240.00
1521.986, 19356.00
1523.019, 19350.00
1524.053, 19240.00
1525.086, 19439.00
1526.119, 19434.00
1527.152, 19205.00
1528.185, 19335.00
1529.217, 19557.00
1530.250, 19386.00
1531.282, 19427.00
1532.314, 19154.00
1533.346, 19253.00
1534.377, 19468.00
1535.409, 19480.00
1536.440, 19593.00
1537.472, 19417.00
1538.503, 19537.00
1539.534, 19353.00
1540.564, 19403.00
1541.595, 19427.00
1542.625, 19504.00
1543.656, 19539.00
1544.686, 19382.00
1545.716, 19440.00
1546.745, 19446.00
1547.775, 19557.00
1548.804, 19787.00
1549.834, 19555.00
1550.863, 19622.00
1551.892, 19541.00
1552.920, 19839.00
1553.949, 19895.00
1554.977, 19836.00
1556.006, 19740.00
1557.034, 19729.00
1558.062, 19641.00
1559.089, 19803.00
1560.117, 19655.00
1561.144, 19840.00
1562.172, 19844.00
1563.199, 19747.00
1564.226, 19661.00
1565.252, 19678.25
1566.279, 19819.00
1567.305, 19713.00
1568.332, 19778.00
1569.358, 19866.00
1570.384, 20067.00
##END=



