##NAMES=Albite
##RRUFFID=R040068
##IDEAL CHEMISTRY=NaAlSi_3_O_8_
##LOCALITY=Harding Pegmatite, Dixon, New Mexico, USA
##OWNER=RRUFF
##SOURCE=University of Arizona Mineral Museum
##DESCRIPTION=Tan colored crystal fragment
##STATUS=The identification of this mineral has been confirmed by X-ray diffraction and chemical analysis
##URL=rruff.info/R040068
##MEASURED CHEMISTRY=(Na_0.99_Ca_0.01_)Al_1.00_(Si_0.99_Al_0.01_)_3_O_8_
##PIN_ID=M00167
##ORIENTATION=Laser parallel to (-1 -1 0). Fiducial mark perpendicular to laser is parallel to -c [0 0 -1]
92.47700, 4922.000
93.87300, 4973.000
95.26800, 5196.000
96.66300, 5249.000
98.05800, 5370.000
99.45300, 5628.000
100.8480, 5628.000
102.2420, 5748.000
103.6360, 6023.000
105.0300, 6313.000
106.4230, 6630.000
107.8170, 7194.000
109.2100, 7865.000
110.6030, 8600.000
111.9960, 9238.000
113.3880, 9812.000
114.7800, 9712.000
116.1720, 9622.000
117.5640, 9098.000
118.9560, 8535.000
120.3470, 8286.000
121.7380, 8052.000
123.1290, 7923.000
124.5190, 7832.000
125.9100, 7664.000
127.3000, 7657.000
128.6900, 7655.000
130.0800, 7628.000
131.4690, 7712.000
132.8580, 7706.000
134.2480, 7753.000
135.6360, 7832.000
137.0250, 7887.000
138.4130, 8110.000
139.8010, 8224.000
141.1890, 8527.000
142.5770, 8913.000
143.9640, 9320.000
145.3520, 10100.00
146.7390, 10950.00
148.1250, 11660.00
149.5120, 12250.00
150.8980, 12350.00
152.2840, 12170.00
153.6700, 11830.00
155.0560, 11230.00
156.4410, 11130.00
157.8270, 11280.00
159.2120, 11590.00
160.5960, 11860.00
161.9810, 12020.00
163.3650, 11840.00
164.7490, 11390.00
166.1330, 10990.00
167.5170, 10530.00
168.9000, 10220.00
170.2830, 9990.000
171.6660, 9883.029
173.0490, 9891.000
174.4310, 9974.000
175.8130, 10240.00
177.1950, 10510.00
178.5770, 10910.00
179.9590, 11660.00
181.3400, 12370.00
182.7210, 12920.00
184.1020, 13330.00
185.4830, 13590.00
186.8630, 13450.00
188.2440, 13070.00
189.6240, 12490.00
191.0030, 11560.00
192.3830, 11060.00
193.7620, 10410.00
195.1410, 9972.000
196.5200, 9590.000
197.8990, 9280.000
199.2770, 9257.000
200.6560, 9156.000
202.0340, 9278.000
203.4110, 9668.000
204.7890, 10100.00
206.1660, 10520.00
207.5430, 10860.00
208.9200, 11010.00
210.2970, 10860.00
211.6730, 10310.00
213.0490, 9667.000
214.4250, 9158.000
215.8010, 8689.000
217.1760, 8306.000
218.5520, 8056.000
219.9270, 7868.000
221.3020, 7759.000
222.6760, 7646.000
224.0510, 7511.000
225.4250, 7496.000
226.7990, 7515.000
228.1730, 7433.000
229.5460, 7455.000
230.9190, 7504.000
232.2920, 7428.000
233.6650, 7403.000
235.0380, 7409.000
236.4100, 7471.000
237.7820, 7523.000
239.1540, 7562.000
240.5260, 7642.000
241.8980, 7824.000
243.2690, 8062.000
244.6400, 8325.000
246.0110, 8686.000
247.3810, 9249.000
248.7520, 9783.000
250.1220, 10200.00
251.4920, 10320.00
252.8610, 10220.00
254.2310, 9810.000
255.6000, 9276.000
256.9690, 8894.000
258.3380, 8652.000
259.7070, 8589.000
261.0750, 8635.000
262.4430, 8933.000
263.8110, 9337.000
265.1790, 9728.000
266.5460, 10310.00
267.9140, 10640.00
269.2810, 11030.00
270.6470, 10820.00
272.0140, 10510.00
273.3800, 10180.00
274.7470, 9686.000
276.1130, 9609.000
277.4780, 9464.000
278.8440, 9476.000
280.2090, 9716.000
281.5740, 10180.00
282.9390, 10850.00
284.3040, 12080.00
285.6680, 13700.00
287.0320, 15530.00
288.3960, 17320.00
289.7600, 18330.00
291.1230, 18480.00
292.4870, 17370.00
293.8500, 16030.00
295.2120, 14370.00
296.5750, 12800.00
297.9370, 11500.00
299.3000, 10490.00
300.6620, 9838.000
302.0230, 9428.000
303.3850, 9175.000
304.7460, 9019.000
306.1070, 8768.000
307.4680, 8753.000
308.8290, 8753.000
310.1890, 8636.000
311.5490, 8610.000
312.9090, 8453.000
314.2690, 8334.000
315.6290, 8388.000
316.9880, 8345.000
318.3470, 8289.000
319.7060, 8294.000
321.0650, 8370.000
322.4230, 8503.000
323.7810, 8827.000
325.1390, 9106.000
326.4970, 9465.000
327.8550, 9744.000
329.2120, 9757.000
330.5690, 9510.000
331.9260, 9316.000
333.2830, 8935.000
334.6390, 8668.000
335.9950, 8465.000
337.3510, 8363.000
338.7070, 8230.000
340.0630, 8192.000
341.4180, 8082.000
342.7730, 8216.000
344.1280, 8197.000
345.4830, 8192.000
346.8370, 8256.000
348.1920, 8292.000
349.5460, 8219.000
350.8990, 8157.000
352.2530, 8110.000
353.6060, 8201.000
354.9600, 8194.000
356.3130, 8235.000
357.6650, 8076.000
359.0180, 8067.000
360.3700, 8183.000
361.7220, 8054.000
363.0740, 8092.000
364.4260, 8136.000
365.7770, 8021.000
367.1280, 8227.000
368.4790, 8115.000
369.8300, 8073.000
371.1810, 8146.000
372.5310, 8173.000
373.8810, 8148.000
375.2310, 8161.000
376.5810, 8218.000
377.9300, 8227.000
379.2800, 8265.955
380.6290, 8281.695
381.9770, 8308.000
383.3260, 8315.000
384.6740, 8280.000
386.0230, 8314.000
387.3700, 8311.000
388.7180, 8348.000
390.0660, 8451.000
391.4130, 8432.000
392.7600, 8684.000
394.1070, 8738.000
395.4540, 9051.000
396.8000, 9112.000
398.1460, 9371.000
399.4920, 9355.000
400.8380, 9210.000
402.1840, 9436.000
403.5290, 9444.000
404.8740, 9765.000
406.2190, 9974.000
407.5640, 9964.000
408.9080, 10030.00
410.2520, 9940.000
411.5960, 10040.00
412.9400, 10250.00
414.2840, 10640.00
415.6270, 10750.00
416.9700, 10700.00
418.3130, 10350.00
419.6560, 9962.000
420.9990, 9460.000
422.3410, 9173.000
423.6830, 9044.000
425.0250, 8859.000
426.3670, 8859.000
427.7080, 8732.000
429.0490, 8792.000
430.3900, 8861.000
431.7310, 8884.000
433.0720, 8939.903
434.4120, 8862.000
435.7520, 8984.000
437.0920, 8939.000
438.4320, 8876.000
439.7720, 9082.000
441.1110, 9115.000
442.4500, 9088.000
443.7890, 9204.000
445.1270, 9312.000
446.4660, 9397.000
447.8040, 9536.000
449.1420, 9787.000
450.4800, 10060.00
451.8170, 10580.00
453.1550, 10900.00
454.4920, 11520.00
455.8290, 11630.00
457.1660, 11790.00
458.5020, 11560.00
459.8380, 11330.00
461.1750, 11070.00
462.5100, 10990.00
463.8460, 11180.00
465.1810, 11170.00
466.5170, 11580.00
467.8520, 12070.00
469.1860, 12820.00
470.5210, 14120.00
471.8550, 15900.00
473.1900, 19590.00
474.5230, 22170.00
475.8570, 26360.00
477.1910, 30940.00
478.5240, 33190.00
479.8570, 32430.00
481.1900, 29520.00
482.5230, 25650.00
483.8550, 21380.00
485.1870, 18790.00
486.5190, 16280.00
487.8510, 14700.00
489.1830, 13880.00
490.5140, 13320.00
491.8450, 12940.00
493.1760, 13020.00
494.5070, 13000.00
495.8370, 13460.00
497.1680, 14530.00
498.4980, 15730.00
499.8280, 17700.00
501.1570, 20830.00
502.4870, 25520.00
503.8160, 31340.00
505.1450, 37660.00
506.4740, 41070.00
507.8020, 41470.00
509.1310, 38450.00
510.4590, 32660.00
511.7870, 27570.00
513.1150, 23120.00
514.4420, 19680.00
515.7700, 17270.00
517.0970, 15400.00
518.4240, 14230.00
519.7500, 13390.00
521.0770, 12880.00
522.4030, 12250.00
523.7290, 11870.00
525.0550, 11650.00
526.3810, 11380.00
527.7060, 11170.00
529.0310, 11050.00
530.3560, 10940.00
531.6810, 10690.00
533.0060, 10657.98
534.3300, 10550.00
535.6540, 10540.00
536.9780, 10460.00
538.3020, 10450.00
539.6250, 10340.00
540.9490, 10330.00
542.2720, 10310.00
543.5950, 10350.00
544.9170, 10190.00
546.2400, 10050.00
547.5620, 10210.00
548.8840, 10250.00
550.2060, 10200.00
551.5270, 10110.00
552.8490, 10110.00
554.1700, 10130.00
555.4910, 10130.00
556.8120, 10060.00
558.1320, 10240.00
559.4530, 10080.00
560.7730, 10190.00
562.0930, 10160.00
563.4120, 10040.00
564.7320, 10110.00
566.0510, 10150.00
567.3700, 10130.00
568.6890, 10240.00
570.0080, 10130.00
571.3260, 10220.00
572.6440, 10310.00
573.9630, 10420.00
575.2800, 10500.00
576.5980, 10500.00
577.9150, 10583.97
579.2330, 10670.00
580.5500, 10650.00
581.8660, 10550.00
583.1830, 10520.00
584.4990, 10430.00
585.8150, 10392.50
587.1310, 10320.00
588.4470, 10310.00
589.7630, 10250.00
591.0780, 10190.00
592.3930, 10190.00
593.7080, 10250.00
595.0220, 10280.00
596.3370, 10260.00
597.6510, 10282.29
598.9650, 10230.00
600.2790, 10260.00
601.5930, 10230.00
602.9060, 10200.00
604.2190, 10290.00
605.5320, 10410.00
606.8450, 10250.00
608.1580, 10410.00
609.4700, 10310.00
610.7820, 10320.00
612.0940, 10340.00
613.4060, 10420.00
614.7180, 10390.00
616.0290, 10330.00
617.3400, 10390.00
618.6510, 10480.00
619.9620, 10410.00
621.2720, 10460.00
622.5820, 10500.00
623.8920, 10480.00
625.2020, 10510.00
626.5120, 10610.00
627.8210, 10730.00
629.1310, 10740.00
630.4400, 10760.00
631.7490, 10900.00
633.0570, 10760.00
634.3660, 10960.00
635.6740, 10860.00
636.9820, 10940.00
638.2900, 10960.00
639.5970, 10890.00
640.9050, 10880.00
642.2120, 10940.00
643.5190, 10980.00
644.8250, 10930.00
646.1320, 11060.00
647.4380, 11100.00
648.7440, 11100.00
650.0500, 10900.00
651.3560, 10960.00
652.6620, 10860.00
653.9670, 10880.00
655.2720, 10870.00
656.5770, 10840.00
657.8820, 10820.00
659.1860, 10810.00
660.4900, 10770.00
661.7940, 10870.00
663.0980, 10820.00
664.4020, 10820.00
665.7050, 10770.00
667.0090, 10900.00
668.3120, 10840.00
669.6140, 10870.00
670.9170, 10790.00
672.2190, 10890.00
673.5220, 10870.00
674.8240, 10830.00
676.1250, 10960.00
677.4270, 10950.00
678.7280, 10940.00
680.0300, 10980.00
681.3310, 10900.00
682.6310, 10960.00
683.9320, 10950.00
685.2320, 11020.00
686.5320, 10960.00
687.8320, 10970.00
689.1320, 11070.00
690.4320, 11000.00
691.7310, 10950.00
693.0300, 11030.00
694.3290, 11050.00
695.6280, 11090.00
696.9260, 11030.00
698.2240, 11000.00
699.5220, 11150.00
700.8200, 11110.00
702.1180, 11250.00
703.4150, 11220.00
704.7130, 11130.00
706.0100, 11170.00
707.3070, 11090.00
708.6030, 11240.00
709.9000, 11190.00
711.1960, 11280.00
712.4920, 11280.00
713.7880, 11370.00
715.0830, 11440.00
716.3790, 11340.00
717.6740, 11530.00
718.9690, 11440.00
720.2640, 11620.00
721.5580, 11600.00
722.8530, 11650.00
724.1470, 11450.00
725.4410, 11670.00
726.7350, 11590.00
728.0280, 11520.00
729.3220, 11570.00
730.6150, 11650.00
731.9080, 11520.00
733.2010, 11690.00
734.4930, 11660.00
735.7850, 11550.00
737.0780, 11750.00
738.3700, 11710.00
739.6610, 11660.00
740.9530, 11810.00
742.2440, 11750.00
743.5350, 11830.00
744.8260, 12020.00
746.1170, 11860.00
747.4070, 11970.00
748.6980, 12110.00
749.9880, 12160.00
751.2780, 12380.00
752.5670, 12430.00
753.8570, 12580.00
755.1460, 12920.00
756.4350, 13260.00
757.7240, 13860.00
759.0130, 14550.00
760.3010, 15530.00
761.5900, 16610.00
762.8780, 17160.00
764.1650, 17050.00
765.4530, 16660.00
766.7410, 15670.00
768.0280, 14980.00
769.3150, 14360.00
770.6020, 13820.00
771.8880, 13530.00
773.1750, 13550.00
774.4610, 13230.00
775.7470, 13280.00
777.0330, 13180.00
778.3190, 12890.00
779.6040, 12700.00
780.8890, 12570.00
782.1740, 12520.00
783.4590, 12590.00
784.7440, 12510.00
786.0280, 12380.00
787.3120, 12460.00
788.5960, 12380.00
789.8800, 12340.00
791.1640, 12380.00
792.4470, 12340.00
793.7300, 12460.00
795.0130, 12280.00
796.2960, 12560.00
797.5790, 12450.00
798.8610, 12370.00
800.1430, 12640.00
801.4250, 12560.00
802.7070, 12720.00
803.9890, 12710.00
805.2700, 12770.00
806.5510, 12800.00
807.8320, 13060.00
809.1130, 13350.00
810.3940, 13620.00
811.6740, 13930.00
812.9540, 14770.00
814.2340, 14640.00
815.5140, 14990.00
816.7940, 14820.00
818.0730, 14360.00
819.3520, 13810.00
820.6310, 13530.00
821.9100, 13210.00
823.1890, 13170.00
824.4670, 13010.00
825.7450, 12980.00
827.0230, 12850.00
828.3010, 12880.00
829.5780, 12810.00
830.8560, 12710.00
832.1330, 12800.00
833.4100, 12770.00
834.6870, 12870.00
835.9630, 12860.00
837.2400, 12882.73
838.5160, 12720.00
839.7920, 12900.00
841.0680, 12810.00
842.3430, 12780.00
843.6180, 12830.00
844.8940, 12900.00
846.1690, 12840.00
847.4430, 12770.00
848.7180, 12760.00
849.9920, 12660.00
851.2660, 12696.53
852.5400, 12712.78
853.8140, 12750.00
855.0880, 12820.00
856.3610, 12840.00
857.6340, 12900.00
858.9070, 12930.00
860.1800, 12920.00
861.4530, 12976.44
862.7250, 12960.00
863.9970, 13040.00
865.2690, 12980.00
866.5410, 12990.00
867.8120, 13070.00
869.0840, 13110.00
870.3550, 13140.00
871.6260, 13000.00
872.8970, 13160.00
874.1670, 13020.00
875.4380, 13190.00
876.7080, 13120.00
877.9780, 13110.00
879.2480, 13240.00
880.5170, 13080.00
881.7870, 13170.00
883.0560, 13210.00
884.3250, 13230.00
885.5940, 13260.00
886.8620, 13288.14
888.1300, 13290.00
889.3990, 13340.00
890.6670, 13310.00
891.9340, 13330.00
893.2020, 13260.00
894.4690, 13390.00
895.7370, 13360.00
897.0040, 13450.00
898.2700, 13360.00
899.5370, 13460.00
900.8030, 13510.00
902.0700, 13340.00
903.3360, 13630.00
904.6010, 13440.00
905.8670, 13400.00
907.1320, 13540.00
908.3980, 13570.00
909.6630, 13630.00
910.9280, 13600.00
912.1920, 13600.00
913.4570, 13660.00
914.7210, 13680.00
915.9850, 13630.00
917.2490, 13610.00
918.5120, 13710.00
919.7760, 13820.00
921.0390, 13780.00
922.3020, 13620.00
923.5650, 13750.00
924.8270, 13750.00
926.0900, 13720.00
927.3520, 13850.00
928.6140, 13830.00
929.8760, 13820.00
931.1380, 13880.00
932.3990, 13830.00
933.6600, 13872.45
934.9220, 13800.00
936.1820, 13920.00
937.4430, 13970.00
938.7040, 14000.00
939.9640, 14140.00
941.2240, 14040.00
942.4840, 13910.00
943.7440, 14110.00
945.0030, 14060.00
946.2620, 14160.00
947.5210, 14140.00
948.7800, 14190.00
950.0390, 14180.00
951.2980, 14240.00
952.5560, 14330.00
953.8140, 14320.00
955.0720, 14170.00
956.3300, 14480.00
957.5870, 14350.00
958.8450, 14480.00
960.1020, 14390.00
961.3590, 14600.00
962.6150, 14570.00
963.8720, 14750.00
965.1280, 14720.00
966.3840, 14930.00
967.6400, 15030.00
968.8960, 14870.00
970.1520, 15280.00
971.4070, 15290.00
972.6620, 15590.00
973.9170, 15780.00
975.1720, 16180.00
976.4270, 16620.00
977.6810, 16720.00
978.9350, 16690.00
980.1890, 16400.00
981.4430, 16190.00
982.6970, 15790.00
983.9500, 15630.00
985.2030, 15390.00
986.4560, 15240.00
987.7090, 15070.00
988.9620, 14990.00
990.2140, 14940.00
991.4670, 14901.11
992.7190, 14920.00
993.9710, 14920.00
995.2220, 14950.00
996.4740, 14970.00
997.7250, 14980.00
998.9760, 15200.00
1000.227, 15430.00
1001.478, 15530.00
1002.728, 15550.00
1003.978, 15580.00
1005.229, 15740.00
1006.479, 15740.00
1007.728, 15780.00
1008.978, 15790.00
1010.227, 15610.00
1011.476, 15600.00
1012.725, 15680.00
1013.974, 15710.00
1015.223, 15770.00
1016.471, 15722.20
1017.719, 15570.00
1018.967, 15650.00
1020.215, 15350.00
1021.462, 15410.00
1022.710, 15480.00
1023.957, 15560.00
1025.204, 15630.00
1026.451, 15690.86
1027.697, 15750.00
1028.944, 15860.00
1030.190, 16060.00
1031.436, 16270.00
1032.682, 16180.00
1033.928, 16220.00
1035.173, 16150.00
1036.418, 15890.00
1037.663, 16070.00
1038.908, 15830.00
1040.153, 15920.00
1041.398, 15810.00
1042.642, 15760.00
1043.886, 16050.00
1045.130, 15890.00
1046.374, 15920.00
1047.617, 16080.00
1048.860, 15880.00
1050.104, 15890.00
1051.347, 15890.00
1052.589, 15820.00
1053.832, 15780.00
1055.074, 15790.00
1056.316, 15790.00
1057.558, 15670.00
1058.800, 15790.00
1060.042, 15940.00
1061.283, 15890.00
1062.524, 15880.00
1063.765, 15810.00
1065.006, 15930.00
1066.247, 15760.00
1067.487, 15870.00
1068.728, 15890.00
1069.968, 16130.00
1071.208, 16020.00
1072.447, 16130.00
1073.687, 16230.00
1074.926, 16210.00
1076.165, 16190.00
1077.404, 16250.00
1078.643, 16360.00
1079.881, 16530.00
1081.120, 16510.00
1082.358, 16610.00
1083.596, 16700.00
1084.834, 16960.00
1086.071, 17140.00
1087.309, 17470.00
1088.546, 17530.00
1089.783, 18050.00
1091.020, 18360.00
1092.256, 19310.00
1093.493, 19750.00
1094.729, 20470.00
1095.965, 21690.00
1097.201, 22300.00
1098.436, 22730.00
1099.672, 22880.00
1100.907, 22470.00
1102.142, 21870.00
1103.377, 21200.00
1104.612, 20710.00
1105.846, 20217.83
1107.081, 19640.00
1108.315, 19430.00
1109.549, 19180.00
1110.782, 18940.00
1112.016, 19140.00
1113.249, 18890.00
1114.483, 18970.00
1115.716, 18940.00
1116.948, 18510.00
1118.181, 18600.00
1119.413, 18260.00
1120.646, 17670.00
1121.878, 17890.00
1123.110, 17460.00
1124.341, 17260.00
1125.573, 17110.00
1126.804, 16990.00
1128.035, 16960.00
1129.266, 16880.00
1130.497, 16650.00
1131.727, 16800.00
1132.957, 16480.00
1134.188, 16590.00
1135.418, 16660.00
1136.647, 16660.00
1137.877, 16620.00
1139.106, 16880.00
1140.335, 16550.00
1141.564, 16790.00
1142.793, 16740.00
1144.022, 16550.00
1145.250, 16910.00
1146.479, 16760.00
1147.707, 16670.00
1148.934, 16850.00
1150.162, 16900.00
1151.390, 17100.00
1152.617, 16880.00
1153.844, 16790.00
1155.071, 17090.00
1156.298, 16680.00
1157.524, 16930.00
1158.751, 16720.00
1159.977, 16760.00
1161.203, 16810.00
1162.428, 16610.00
1163.654, 16650.00
1164.879, 16850.00
1166.105, 16600.00
1167.330, 16810.00
1168.555, 16670.00
1169.779, 16670.00
1171.004, 16620.00
1172.228, 16730.00
1173.452, 16710.00
1174.676, 16860.00
1175.900, 16740.00
1177.123, 16970.00
1178.346, 16790.00
1179.570, 16800.00
1180.793, 17040.00
1182.015, 16810.00
1183.238, 16850.00
1184.460, 16970.00
1185.683, 16710.00
1186.905, 17150.00
1188.126, 16950.00
1189.348, 16860.00
1190.569, 16940.00
1191.791, 16840.00
1193.012, 17020.00
1194.233, 17020.00
1195.453, 16820.00
1196.674, 17080.00
1197.894, 16960.00
1199.114, 16960.00
1200.334, 17160.00
1201.554, 17110.00
1202.774, 17160.00
1203.993, 17100.00
1205.212, 17140.00
1206.431, 17160.00
1207.650, 17100.00
1208.869, 17120.00
1210.087, 17250.00
1211.305, 17250.00
1212.524, 17350.00
1213.741, 17375.29
1214.959, 17180.00
1216.177, 17400.00
1217.394, 17300.00
1218.611, 17260.00
1219.828, 17440.00
1221.045, 17210.00
1222.261, 17460.00
1223.478, 17610.00
1224.694, 17330.00
1225.910, 17540.00
1227.126, 17550.00
1228.342, 17390.00
1229.557, 17460.00
1230.772, 17490.00
1231.987, 17640.00
1233.202, 17640.00
1234.417, 17590.00
1235.631, 17520.00
1236.846, 17830.00
1238.060, 17360.00
1239.274, 17800.00
1240.488, 17610.00
1241.701, 17620.00
1242.915, 17780.00
1244.128, 17610.00
1245.341, 17700.00
1246.554, 17760.00
1247.767, 17550.00
1248.979, 17990.00
1250.191, 17670.00
1251.403, 17900.00
1252.615, 17950.00
1253.827, 17690.00
1255.039, 17990.00
1256.250, 18040.00
1257.461, 17670.00
1258.672, 18110.00
1259.883, 17990.00
1261.094, 17890.00
1262.304, 17910.00
1263.514, 17880.00
1264.724, 18000.00
1265.934, 18000.00
1267.144, 17760.00
1268.354, 18130.00
1269.563, 18050.00
1270.772, 17920.00
1271.981, 18200.00
1273.190, 18040.00
1274.398, 17920.00
1275.607, 18220.00
1276.815, 17880.00
1278.023, 18110.00
1279.231, 18150.00
1280.439, 17890.00
1281.646, 18190.00
1282.853, 17960.00
1284.060, 18190.00
1285.267, 18300.00
1286.474, 17940.00
1287.681, 18190.00
1288.887, 18230.00
1290.093, 17940.00
1291.299, 18420.00
1292.505, 18000.00
1293.711, 18040.00
1294.916, 18260.00
1296.121, 18220.00
1297.327, 18220.00
1298.531, 18280.00
1299.736, 18080.00
1300.941, 18400.00
1302.145, 18370.00
1303.349, 18080.00
1304.553, 18500.00
1305.757, 18210.00
1306.961, 18430.00
1308.164, 18170.00
1309.367, 18450.00
1310.570, 18530.00
1311.773, 18520.00
1312.976, 18460.00
1314.178, 18590.00
1315.381, 18500.00
1316.583, 18640.00
1317.785, 18700.00
1318.987, 18620.00
1320.188, 18630.00
1321.390, 18710.00
1322.591, 18660.00
1323.792, 18810.00
1324.993, 18600.00
1326.193, 18740.00
1327.394, 18860.00
1328.594, 18480.00
1329.794, 18880.00
1330.994, 19000.00
1332.194, 18700.00
1333.394, 18910.00
1334.593, 18850.00
1335.792, 18790.00
1336.991, 19080.00
1338.190, 19030.00
1339.389, 18680.00
1340.587, 19030.00
1341.786, 18800.00
1342.984, 19190.00
1344.182, 19150.00
1345.379, 19050.00
1346.577, 19260.00
1347.774, 19030.00
1348.972, 19250.00
1350.169, 19360.00
1351.365, 19040.00
1352.562, 19320.00
1353.759, 19500.00
1354.955, 18950.00
1356.151, 19540.00
1357.347, 19330.00
1358.543, 19220.00
1359.738, 19500.00
1360.934, 19340.00
1362.129, 19430.00
1363.324, 19720.00
1364.519, 19230.00
1365.713, 19550.00
1366.908, 19580.00
1368.102, 19100.00
1369.296, 19490.00
1370.490, 19450.00
1371.684, 19380.00
1372.877, 19660.00
1374.071, 19540.00
1375.264, 19520.00
1376.457, 19820.00
1377.650, 19470.00
1378.843, 19730.00
1380.035, 19680.00
1381.227, 19750.00
1382.419, 20140.00
1383.611, 19820.00
1384.803, 19730.00
1385.995, 20020.00
1387.186, 19870.00
1388.377, 19870.00
1389.568, 20040.00
1390.759, 19720.00
1391.950, 20140.00
1393.140, 20130.00
1394.331, 19750.00
1395.521, 20260.00
1396.711, 20140.00
1397.900, 19980.00
1399.090, 20380.00
1400.279, 19990.00
1401.469, 20100.00
1402.658, 20320.00
1403.847, 19970.00
1405.035, 20430.00
1406.224, 20150.00
1407.412, 20180.00
1408.600, 20240.00
1409.788, 20370.00
1410.976, 20260.00
1412.164, 20440.00
1413.351, 20310.00
1414.538, 20340.00
1415.725, 20530.00
1416.912, 20310.00
1418.099, 20640.00
1419.285, 20580.00
1420.472, 20350.00
1421.658, 20750.00
1422.844, 20360.00
1424.030, 20620.00
1425.215, 20820.00
1426.401, 20380.00
1427.586, 20560.00
1428.771, 20650.00
1429.956, 20550.00
1431.141, 20880.00
1432.325, 20710.00
1433.510, 20620.00
1434.694, 20940.00
1435.878, 20700.00
1437.062, 20800.00
1438.245, 20950.00
1439.429, 20830.00
1440.612, 21040.00
1441.795, 21190.00
1442.978, 20700.00
1444.161, 21270.00
1445.343, 21010.00
1446.526, 20860.00
1447.708, 21400.00
1448.890, 21030.00
1450.072, 21140.00
1451.253, 21350.00
1452.435, 21110.00
1453.616, 21320.00
1454.797, 21590.00
1455.978, 21070.00
1457.159, 21680.00
1458.340, 21410.00
1459.520, 21290.00
1460.700, 21700.00
1461.880, 21630.00
1463.060, 21530.00
1464.240, 21810.00
1465.420, 21300.00
1466.599, 21500.00
1467.778, 21880.00
1468.957, 21440.00
1470.136, 21930.00
1471.315, 21880.00
1472.493, 21370.00
1473.671, 22010.00
1474.849, 21580.00
1476.027, 21570.00
1477.205, 22310.00
1478.383, 21670.00
1479.560, 21910.00
1480.737, 22200.00
1481.914, 21680.00
1483.091, 21940.00
1484.268, 21960.00
1485.444, 21860.00
1486.621, 22170.00
1487.797, 21970.00
1488.973, 21800.00
1490.149, 22350.00
1491.324, 21860.00
1492.500, 22010.00
1493.675, 22340.00
1494.850, 22150.00
1496.025, 22120.00
1497.200, 22240.00
1498.374, 22050.00
1499.548, 22270.00
1500.723, 22260.00
1501.897, 22110.00
1503.071, 22430.00
1504.244, 22270.00
1505.418, 22200.00
1506.591, 22470.00
1507.764, 22280.00
1508.937, 22540.00
1510.110, 22470.00
1511.282, 22370.00
1512.455, 22660.00
1513.627, 22400.00
1514.799, 22280.00
1515.971, 22360.00
1517.143, 22500.00
##END=



