##NAMES=Albite
##RRUFFID=R050253
##IDEAL CHEMISTRY=NaAlSi_3_O_8_
##LOCALITY=Madawaska/Faraday mine, Bancroft, Ontario, Canada
##OWNER=RRUFF
##SOURCE=Marcus Origlieri
##DESCRIPTION=Colorless to brown prismatic single crystals
##STATUS=The identification of this mineral has been confirmed by X-ray diffraction and chemical analysis
##URL=rruff.info/R050253
##MEASURED CHEMISTRY=(Na_0.99_Ca_0.01_)Al_1.00_(Si_0.99_Al_0.01_)_3_O_8_
##PIN_ID=L01398
##ORIENTATION=Laser parallel to a* (1 0 0). Fiducial mark perpendicular to laser is parallel to b [0 1 0]
87.30800, 7331.000
88.54200, 7291.000
89.77700, 7383.000
91.01200, 7374.000
92.24600, 7635.000
93.48000, 7630.000
94.71400, 7415.000
95.94800, 7713.000
97.18200, 7562.000
98.41600, 7738.000
99.64900, 8067.000
100.8830, 8256.000
102.1160, 8518.000
103.3490, 9012.000
104.5820, 9596.000
105.8150, 10128.00
107.0470, 10860.00
108.2800, 11482.00
109.5120, 12335.00
110.7440, 12812.00
111.9760, 12166.00
113.2080, 11460.00
114.4400, 11109.00
115.6710, 10853.00
116.9030, 10464.00
118.1340, 9926.000
119.3650, 9560.000
120.5960, 9291.000
121.8270, 8991.000
123.0580, 8996.000
124.2880, 8743.000
125.5190, 8828.000
126.7490, 8619.000
127.9790, 8666.000
129.2090, 8895.000
130.4390, 8827.000
131.6680, 8872.000
132.8980, 9033.000
134.1270, 8929.000
135.3560, 9018.000
136.5850, 9229.000
137.8140, 9342.000
139.0430, 9579.716
140.2710, 9862.000
141.5000, 10156.00
142.7280, 10440.00
143.9560, 10824.29
145.1840, 11147.00
146.4120, 11646.00
147.6390, 12139.00
148.8670, 12622.00
150.0940, 13133.00
151.3210, 13177.00
152.5490, 13304.00
153.7750, 13700.00
155.0020, 13963.00
156.2290, 14359.00
157.4550, 14604.00
158.6810, 15024.00
159.9080, 15405.00
161.1340, 15664.00
162.3590, 15411.00
163.5850, 14923.00
164.8110, 14645.00
166.0360, 14359.00
167.2610, 14088.00
168.4860, 13650.00
169.7110, 13253.00
170.9360, 12732.00
172.1610, 12201.00
173.3850, 12059.00
174.6100, 11809.00
175.8340, 11792.00
177.0580, 11949.00
178.2820, 12058.00
179.5050, 12191.00
180.7290, 12398.00
181.9520, 12392.00
183.1760, 12604.00
184.3990, 12591.00
185.6220, 12566.00
186.8450, 12570.00
188.0670, 12548.00
189.2900, 12438.00
190.5120, 12392.00
191.7340, 12206.00
192.9560, 12157.00
194.1780, 12051.00
195.4000, 12106.00
196.6220, 12102.00
197.8430, 12212.00
199.0640, 12482.00
200.2860, 12847.00
201.5070, 13114.00
202.7270, 13570.00
203.9480, 13864.00
205.1690, 13973.00
206.3890, 13656.00
207.6090, 13542.00
208.8290, 13208.00
210.0490, 12613.00
211.2690, 12121.00
212.4890, 11727.00
213.7080, 11241.00
214.9280, 10772.00
216.1470, 10473.00
217.3660, 10241.00
218.5850, 10010.89
219.8030, 9978.000
221.0220, 9813.000
222.2400, 9797.000
223.4590, 9884.000
224.6770, 9782.000
225.8950, 9746.000
227.1120, 9815.000
228.3300, 9630.000
229.5480, 9551.000
230.7650, 9402.000
231.9820, 9512.000
233.1990, 9405.000
234.4160, 9361.000
235.6330, 9561.000
236.8490, 9869.000
238.0660, 9850.000
239.2820, 10080.00
240.4980, 10293.35
241.7140, 10461.20
242.9300, 10789.00
244.1460, 10959.00
245.3610, 11296.00
246.5770, 11605.00
247.7920, 11776.00
249.0070, 12164.00
250.2220, 12026.00
251.4370, 11952.00
252.6510, 11914.00
253.8660, 11456.00
255.0800, 11438.00
256.2940, 11417.00
257.5080, 11594.00
258.7220, 11859.00
259.9360, 12842.00
261.1490, 13399.00
262.3630, 13745.00
263.5760, 14311.00
264.7890, 14931.00
266.0020, 15573.00
267.2150, 15961.00
268.4270, 15954.00
269.6400, 15716.00
270.8520, 15367.00
272.0640, 14892.00
273.2760, 14332.00
274.4880, 13901.00
275.7000, 13797.00
276.9120, 13783.00
278.1230, 14456.00
279.3340, 15017.00
280.5450, 16018.00
281.7560, 17410.00
282.9670, 19107.00
284.1780, 20965.00
285.3880, 22718.00
286.5980, 24413.00
287.8090, 25947.00
289.0190, 26532.00
290.2290, 25822.00
291.4380, 24555.00
292.6480, 22750.00
293.8570, 20790.00
295.0670, 19025.00
296.2760, 17243.00
297.4850, 15965.00
298.6930, 14777.00
299.9020, 14121.00
301.1110, 13315.00
302.3190, 12598.00
303.5270, 12502.00
304.7350, 12006.00
305.9430, 11598.00
307.1510, 11600.00
308.3580, 11400.00
309.5660, 11375.00
310.7730, 11188.00
311.9800, 10946.00
313.1870, 10864.00
314.3940, 10808.00
315.6010, 10653.00
316.8070, 10667.00
318.0130, 10617.00
319.2200, 10755.00
320.4260, 10639.00
321.6310, 10792.00
322.8370, 11091.00
324.0430, 10850.00
325.2480, 11013.00
326.4540, 11099.00
327.6590, 10981.00
328.8640, 10992.00
330.0680, 10803.00
331.2730, 10667.00
332.4780, 10550.00
333.6820, 10506.00
334.8860, 10331.00
336.0900, 10373.00
337.2940, 10337.00
338.4980, 10269.00
339.7010, 10183.00
340.9050, 10128.00
342.1080, 10083.00
343.3110, 10191.00
344.5140, 10152.00
345.7170, 10228.00
346.9200, 10224.00
348.1220, 10114.00
349.3240, 10202.00
350.5270, 10214.00
351.7290, 10248.00
352.9310, 10298.00
354.1320, 10195.00
355.3340, 10229.00
356.5350, 10286.00
357.7370, 10251.73
358.9380, 10432.00
360.1390, 10274.00
361.3400, 10350.00
362.5400, 10366.00
363.7410, 10175.00
364.9410, 10188.00
366.1410, 10249.00
367.3410, 10265.00
368.5410, 10294.49
369.7410, 10373.00
370.9400, 10345.00
372.1400, 10358.00
373.3390, 10384.00
374.5380, 10500.00
375.7370, 10450.00
376.9360, 10422.00
378.1350, 10587.00
379.3330, 10496.00
380.5310, 10538.00
381.7300, 10583.59
382.9280, 10504.00
384.1260, 10654.00
385.3230, 10713.00
386.5210, 10787.11
387.7180, 10672.00
388.9160, 10817.00
390.1130, 10925.00
391.3100, 10909.00
392.5060, 11111.00
393.7030, 11196.00
394.9000, 11305.00
396.0960, 11422.00
397.2920, 11871.00
398.4880, 12264.00
399.6840, 12634.00
400.8800, 13104.00
402.0750, 13657.00
403.2710, 14116.00
404.4660, 14902.00
405.6610, 15227.00
406.8560, 15591.00
408.0510, 15542.00
409.2450, 15293.00
410.4400, 15033.00
411.6340, 15088.00
412.8280, 15122.00
414.0220, 15096.00
415.2160, 14709.00
416.4100, 14099.00
417.6030, 13452.00
418.7970, 12961.00
419.9900, 12516.00
421.1830, 12269.00
422.3760, 11928.00
423.5690, 11861.00
424.7610, 11823.00
425.9540, 11618.22
427.1460, 11427.00
428.3380, 11445.00
429.5300, 11277.00
430.7220, 11330.00
431.9140, 11380.00
433.1050, 11438.00
434.2970, 11464.00
435.4880, 11515.00
436.6790, 11478.00
437.8700, 11459.00
439.0610, 11520.00
440.2510, 11557.00
441.4420, 11706.00
442.6320, 11732.00
443.8220, 11753.00
445.0120, 11926.00
446.2020, 11934.00
447.3910, 11947.00
448.5810, 12151.00
449.7700, 12266.00
450.9600, 12426.00
452.1490, 12684.00
453.3370, 12795.00
454.5260, 12948.00
455.7150, 13202.00
456.9030, 13456.00
458.0910, 13506.00
459.2800, 13819.00
460.4670, 14247.00
461.6550, 14644.00
462.8430, 15303.00
464.0300, 16040.00
465.2180, 17034.00
466.4050, 18425.00
467.5920, 20533.00
468.7790, 23488.00
469.9650, 27020.00
471.1520, 31357.00
472.3380, 36121.00
473.5250, 40930.00
474.7110, 45740.00
475.8970, 49962.00
477.0820, 51115.00
478.2680, 49839.00
479.4540, 45778.00
480.6390, 40628.00
481.8240, 35857.00
483.0090, 31492.00
484.1940, 27699.00
485.3780, 24532.00
486.5630, 22097.00
487.7470, 20413.00
488.9320, 19307.00
490.1160, 18951.00
491.3000, 18814.00
492.4830, 18911.00
493.6670, 19709.00
494.8500, 21068.00
496.0340, 22826.00
497.2170, 25621.00
498.4000, 29457.00
499.5820, 33985.00
500.7650, 39369.00
501.9480, 44922.00
503.1300, 49892.00
504.3120, 54896.00
505.4940, 56976.00
506.6760, 55415.00
507.8580, 51776.00
509.0390, 46050.00
510.2210, 40831.00
511.4020, 35549.00
512.5830, 31071.00
513.7640, 26870.00
514.9450, 24095.00
516.1250, 21601.00
517.3060, 19620.00
518.4860, 18294.00
519.6660, 17499.00
520.8460, 16519.03
522.0260, 16025.00
523.2060, 15576.00
524.3850, 15139.00
525.5650, 14888.00
526.7440, 14449.00
527.9230, 14460.00
529.1020, 14198.00
530.2810, 14014.00
531.4590, 13975.00
532.6380, 13858.00
533.8160, 13626.00
534.9940, 13463.00
536.1720, 13447.00
537.3500, 13455.00
538.5270, 13255.00
539.7050, 13234.00
540.8820, 13190.00
542.0590, 13136.00
543.2360, 13083.00
544.4130, 13165.00
545.5900, 13056.00
546.7660, 13017.00
547.9430, 13041.00
549.1190, 12822.00
550.2950, 12781.00
551.4710, 12973.00
552.6470, 12855.00
553.8220, 12691.00
554.9980, 12713.00
556.1730, 12671.89
557.3480, 12788.00
558.5230, 12706.00
559.6980, 12812.00
560.8730, 12789.00
562.0470, 12939.00
563.2220, 12751.00
564.3960, 12825.00
565.5700, 12815.00
566.7440, 13012.00
567.9170, 13021.00
569.0910, 13084.00
570.2640, 13127.00
571.4380, 13074.00
572.6110, 13040.00
573.7840, 13312.00
574.9570, 13425.00
576.1290, 13346.00
577.3020, 13307.00
578.4740, 13392.00
579.6460, 13321.00
580.8180, 13270.00
581.9900, 13270.00
583.1620, 13171.00
584.3330, 13144.00
585.5040, 12946.00
586.6760, 12857.00
587.8470, 12771.00
589.0180, 12840.00
590.1880, 13027.00
591.3590, 12734.00
592.5290, 13001.00
593.7000, 12749.00
594.8700, 12852.00
596.0400, 12893.00
597.2090, 12808.00
598.3790, 13072.00
599.5490, 13132.00
600.7180, 13040.00
601.8870, 13162.00
603.0560, 13186.00
604.2250, 13248.00
605.3940, 13203.00
606.5620, 13294.00
607.7300, 13295.00
608.8990, 13428.00
610.0670, 13332.00
611.2350, 13228.00
612.4020, 13351.00
613.5700, 13333.00
614.7370, 13340.00
615.9050, 13434.00
617.0720, 13425.00
618.2390, 13345.00
619.4060, 13285.00
620.5720, 13332.00
621.7390, 13347.00
622.9050, 13433.00
624.0710, 13335.00
625.2370, 13327.00
626.4030, 13271.00
627.5690, 13372.00
628.7340, 13472.00
629.9000, 13490.00
631.0650, 13416.00
632.2300, 13477.00
633.3950, 13503.86
634.5600, 13458.00
635.7240, 13636.00
636.8890, 13639.00
638.0530, 13731.00
639.2170, 13905.00
640.3810, 13838.00
641.5450, 13881.00
642.7080, 14028.00
643.8720, 13929.00
645.0350, 14034.00
646.1980, 14123.00
647.3610, 13907.00
648.5240, 13834.00
649.6870, 13874.00
650.8490, 13755.00
652.0120, 13665.00
653.1740, 13878.00
654.3360, 13695.00
655.4980, 13479.00
656.6600, 13581.00
657.8210, 13628.00
658.9830, 13489.00
660.1440, 13563.00
661.3050, 13569.00
662.4660, 13629.00
663.6270, 13622.17
664.7870, 13644.20
665.9480, 13603.00
667.1080, 13686.00
668.2680, 13691.00
669.4280, 13756.00
670.5880, 13744.00
671.7480, 13588.00
672.9070, 13712.00
674.0670, 13607.00
675.2260, 13643.00
676.3850, 13579.00
677.5440, 13454.00
678.7030, 13718.00
679.8610, 13690.00
681.0200, 13625.00
682.1780, 13594.00
683.3360, 13600.00
684.4940, 13682.00
685.6520, 13643.93
686.8090, 13517.00
687.9670, 13621.00
689.1240, 13546.00
690.2810, 13493.00
691.4380, 13567.00
692.5950, 13599.00
693.7520, 13538.00
694.9080, 13691.00
696.0650, 13574.00
697.2210, 13601.00
698.3770, 13608.00
699.5330, 13526.00
700.6880, 13676.00
701.8440, 13588.00
702.9990, 13705.00
704.1550, 13711.00
705.3100, 13598.00
706.4650, 13823.00
707.6190, 13761.00
708.7740, 13854.00
709.9290, 13935.00
711.0830, 13951.00
712.2370, 13948.00
713.3910, 14042.00
714.5450, 14055.00
715.6980, 14141.00
716.8520, 14188.00
718.0050, 14313.00
719.1580, 14181.00
720.3110, 14389.00
721.4640, 14325.00
722.6170, 14167.00
723.7700, 14150.00
724.9220, 14166.00
726.0740, 14047.00
727.2260, 14039.00
728.3780, 13962.00
729.5300, 14019.00
730.6810, 14013.00
731.8330, 13939.00
732.9840, 14151.00
734.1350, 14033.00
735.2860, 14098.00
736.4370, 14024.00
737.5880, 14184.00
738.7380, 14118.00
739.8880, 14287.00
741.0390, 14368.00
742.1890, 14294.00
743.3380, 14219.15
744.4880, 14367.12
745.6380, 14456.00
746.7870, 14608.00
747.9360, 14724.76
749.0850, 14900.40
750.2340, 15107.00
751.3830, 15210.00
752.5310, 15687.00
753.6800, 15730.00
754.8280, 16225.00
755.9760, 16832.00
757.1240, 17628.00
758.2720, 18435.00
759.4190, 19224.00
760.5670, 20011.00
761.7140, 20704.00
762.8610, 20461.00
764.0080, 19978.00
765.1550, 19300.00
766.3020, 18562.00
767.4480, 17921.00
768.5950, 17209.00
769.7410, 16803.00
770.8870, 16381.00
772.0330, 16366.00
773.1780, 16039.00
774.3240, 16027.00
775.4690, 15839.00
776.6140, 15815.00
777.7590, 15478.00
778.9040, 15375.00
780.0490, 15180.00
781.1940, 15065.00
782.3380, 14934.00
783.4820, 14846.42
784.6260, 14823.00
785.7700, 14768.00
786.9140, 14679.00
788.0580, 14741.00
789.2010, 14766.00
790.3450, 14738.00
791.4880, 14749.08
792.6310, 14718.00
793.7730, 14699.00
794.9160, 14693.00
796.0590, 14659.00
797.2010, 14672.18
798.3430, 14680.84
799.4850, 14706.00
800.6270, 14736.00
801.7690, 14786.00
802.9100, 14839.00
804.0520, 15036.00
805.1930, 14991.00
806.3340, 15095.00
807.4750, 15138.00
808.6160, 15368.00
809.7560, 15310.00
810.8970, 15676.00
812.0370, 15648.00
813.1770, 15927.00
814.3170, 16075.00
815.4570, 15607.00
816.5960, 15846.00
817.7360, 15747.00
818.8750, 15418.00
820.0140, 15333.00
821.1530, 15304.00
822.2920, 15089.00
823.4310, 15147.00
824.5690, 15097.00
825.7070, 14975.00
826.8460, 14991.00
827.9840, 15034.00
829.1220, 15056.00
830.2590, 15155.00
831.3970, 15154.50
832.5340, 15094.00
833.6710, 15150.00
834.8080, 15045.00
835.9450, 14945.00
837.0820, 15021.00
838.2190, 15122.00
839.3550, 14979.00
840.4910, 15110.00
841.6270, 15067.00
842.7630, 15110.00
843.8990, 15184.00
845.0350, 15092.00
846.1700, 15114.00
847.3060, 15176.00
848.4410, 15267.00
849.5760, 15041.00
850.7100, 15091.00
851.8450, 15137.00
852.9800, 15109.00
854.1140, 15150.00
855.2480, 15117.00
856.3820, 15129.15
857.5160, 15222.00
858.6500, 15124.00
859.7830, 15131.00
860.9170, 15100.00
862.0500, 15169.00
863.1830, 15236.00
864.3160, 15201.00
865.4480, 15275.00
866.5810, 15241.00
867.7130, 15290.00
868.8460, 15284.20
869.9780, 15355.00
871.1100, 15267.00
872.2410, 15239.00
873.3730, 15224.00
874.5050, 15291.00
875.6360, 15255.00
876.7670, 15268.00
877.8980, 15355.00
879.0290, 15389.00
880.1590, 15377.00
881.2900, 15275.00
882.4200, 15359.00
883.5500, 15536.00
884.6800, 15371.00
885.8100, 15460.00
886.9400, 15500.00
888.0690, 15458.00
889.1990, 15496.00
890.3280, 15546.00
891.4570, 15444.00
892.5860, 15589.00
893.7140, 15646.00
894.8430, 15512.00
895.9710, 15606.00
897.1000, 15661.00
898.2280, 15775.00
899.3560, 15646.00
900.4830, 15618.00
901.6110, 15754.00
902.7380, 15760.00
903.8660, 15864.00
904.9930, 15730.00
906.1200, 15775.00
907.2460, 15759.00
908.3730, 15749.00
909.5000, 15768.00
910.6260, 15865.00
911.7520, 15793.00
912.8780, 15793.00
914.0040, 15998.00
915.1290, 15773.00
916.2550, 16017.00
917.3800, 15854.00
918.5050, 15913.00
919.6300, 15870.00
920.7550, 15934.00
921.8800, 16079.00
923.0040, 15987.00
924.1290, 16026.00
925.2530, 16206.00
926.3770, 16025.00
927.5010, 16021.00
928.6250, 16071.00
929.7480, 16106.00
930.8720, 16150.00
931.9950, 16177.00
933.1180, 16267.00
934.2410, 16248.07
935.3640, 16157.00
936.4860, 16222.00
937.6090, 16280.00
938.7310, 16247.00
939.8530, 16340.00
940.9750, 16439.00
942.0970, 16260.00
943.2180, 16405.00
944.3400, 16449.00
945.4610, 16306.00
946.5820, 16535.00
947.7030, 16590.00
948.8240, 16523.00
949.9450, 16626.00
951.0650, 16574.00
952.1860, 16689.00
953.3060, 16710.70
954.4260, 16651.00
955.5460, 16812.00
956.6650, 16825.00
957.7850, 16913.92
958.9040, 16777.00
960.0230, 16955.00
961.1420, 16846.00
962.2610, 16852.00
963.3800, 16965.00
964.4990, 16848.00
965.6170, 16998.00
966.7350, 17154.00
967.8530, 17263.00
968.9710, 17232.00
970.0890, 17516.00
971.2070, 17481.00
972.3240, 17537.00
973.4410, 17863.00
974.5580, 17901.00
975.6750, 18149.00
976.7920, 18108.00
977.9090, 18210.00
979.0250, 18027.00
980.1410, 18113.00
981.2580, 18015.00
982.3740, 17816.00
983.4890, 17573.00
984.6050, 17679.00
985.7200, 17496.00
986.8360, 17601.00
987.9510, 17458.00
989.0660, 17460.00
990.1810, 17589.00
991.2950, 17548.00
992.4100, 17624.00
993.5240, 17491.00
994.6390, 17661.00
995.7530, 17607.00
996.8660, 17513.00
997.9800, 17684.00
999.0940, 17981.00
1000.207, 17872.00
1001.320, 18246.00
1002.433, 18311.00
1003.546, 18754.00
1004.659, 18938.00
1005.772, 19255.00
1006.884, 19591.00
1007.996, 19825.00
1009.108, 19644.00
1010.220, 19458.00
1011.332, 19377.00
1012.444, 19435.00
1013.555, 19264.00
1014.666, 19156.00
1015.777, 18816.00
1016.888, 18846.00
1017.999, 18701.00
1019.110, 18561.00
1020.220, 18639.00
1021.331, 18554.00
1022.441, 18670.00
1023.551, 18442.00
1024.661, 18590.00
1025.770, 18776.00
1026.880, 18915.00
1027.989, 19146.00
1029.098, 19289.00
1030.207, 19659.00
1031.316, 19615.00
1032.425, 19713.00
1033.533, 19555.00
1034.642, 19301.00
1035.750, 19157.00
1036.858, 19107.00
1037.966, 18678.00
1039.073, 18891.00
1040.181, 18684.00
1041.288, 18752.00
1042.396, 18821.00
1043.503, 18832.00
1044.610, 18852.00
1045.716, 18840.87
1046.823, 18922.00
1047.929, 18743.00
1049.036, 18717.00
1050.142, 18587.00
1051.248, 18400.00
1052.353, 18506.00
1053.459, 18599.00
1054.564, 18400.00
1055.670, 18461.00
1056.775, 18500.00
1057.880, 18316.00
1058.985, 18490.00
1060.089, 18471.00
1061.194, 18570.00
1062.298, 18673.00
1063.402, 18613.00
1064.506, 18494.00
1065.610, 18633.00
1066.713, 18722.00
1067.817, 18801.00
1068.920, 18911.41
1070.023, 18774.00
1071.126, 19064.00
1072.229, 18899.00
1073.332, 18883.00
1074.435, 19132.00
1075.537, 19128.00
1076.639, 19167.00
1077.741, 19254.00
1078.843, 19551.00
1079.945, 19634.00
1081.046, 19748.00
1082.148, 20021.00
1083.249, 20125.00
1084.350, 20522.00
1085.451, 20869.00
1086.551, 21164.00
1087.652, 21624.00
1088.752, 22249.00
1089.853, 22848.00
1090.953, 23920.00
1092.053, 24961.00
1093.152, 26402.00
1094.252, 27493.00
1095.351, 29022.00
1096.451, 30110.00
1097.550, 31011.00
1098.649, 31272.00
1099.748, 31078.00
1100.846, 30578.00
1101.945, 29701.00
1103.043, 28913.00
1104.141, 27818.00
1105.239, 26971.00
1106.337, 26427.00
1107.434, 25940.00
1108.532, 25790.00
1109.629, 25164.00
1110.726, 25182.00
1111.823, 24948.00
1112.920, 24856.00
1114.017, 24551.00
1115.113, 24585.00
1116.210, 24246.00
1117.306, 24051.00
1118.402, 23702.00
1119.498, 23401.00
1120.593, 22999.00
1121.689, 22540.00
1122.784, 22131.00
1123.879, 21733.00
1124.974, 21354.00
1126.069, 21130.00
1127.164, 20851.00
1128.259, 20574.00
1129.353, 20414.00
1130.447, 20145.00
1131.541, 19861.00
1132.635, 19930.00
1133.729, 19996.00
1134.822, 19734.00
1135.916, 19916.00
1137.009, 19601.00
1138.102, 19725.00
1139.195, 19523.00
1140.288, 19535.00
1141.380, 19621.00
1142.473, 19335.00
1143.565, 19647.00
1144.657, 19506.00
1145.749, 19497.00
1146.841, 19308.00
1147.932, 19465.00
1149.024, 19395.00
1150.115, 19557.00
1151.206, 19597.00
1152.297, 19582.84
1153.388, 19615.00
1154.479, 19507.00
1155.569, 19480.00
1156.659, 19296.00
1157.750, 19395.00
1158.839, 19299.00
1159.929, 19476.00
1161.019, 19239.00
1162.108, 19484.00
1163.198, 19491.00
1164.287, 19363.00
1165.376, 19430.00
1166.465, 19360.00
1167.553, 19399.00
1168.642, 19373.00
1169.730, 19339.00
1170.818, 19569.00
1171.906, 19357.00
1172.994, 19467.00
1174.082, 19659.00
1175.170, 19315.00
1176.257, 19502.00
1177.344, 19514.00
1178.431, 19537.00
1179.518, 19673.00
1180.605, 19549.00
1181.691, 19498.00
1182.778, 19583.00
1183.864, 19692.00
1184.950, 19512.00
1186.036, 19644.00
1187.122, 19740.00
1188.207, 19553.00
1189.292, 19858.00
1190.378, 19831.00
1191.463, 19627.00
1192.548, 19651.00
1193.632, 19678.00
1194.717, 19713.00
1195.801, 19849.00
1196.886, 20005.00
1197.970, 19759.00
1199.054, 19996.00
1200.137, 19862.00
1201.221, 19951.00
1202.305, 19707.00
1203.388, 19831.00
1204.471, 19648.00
1205.554, 20037.00
1206.637, 19930.00
1207.719, 19866.00
1208.802, 19849.00
1209.884, 19836.00
1210.966, 19994.00
1212.048, 19995.00
1213.130, 20108.00
1214.212, 20041.00
1215.293, 20038.00
1216.374, 20099.00
1217.456, 19983.00
1218.536, 20080.00
1219.617, 19956.00
1220.698, 20195.00
1221.778, 20067.00
1222.859, 20289.00
1223.939, 20101.00
1225.019, 20135.00
1226.099, 20211.00
1227.178, 20241.00
1228.258, 20288.00
1229.337, 20240.00
1230.417, 20286.00
1231.496, 20265.96
1232.574, 20372.00
1233.653, 20215.00
1234.732, 20320.00
1235.810, 20252.68
1236.888, 20488.00
1237.966, 20349.00
1239.044, 20408.00
1240.122, 20516.00
1241.199, 20391.00
1242.277, 20591.00
1243.354, 20720.00
1244.431, 20494.00
1245.508, 20748.00
1246.585, 20645.00
1247.661, 20786.00
1248.738, 20790.00
1249.814, 20562.00
1250.890, 20739.00
1251.966, 20696.00
1253.042, 20928.00
1254.117, 20860.00
1255.193, 20814.00
1256.268, 21106.00
1257.343, 20799.00
1258.418, 20878.00
1259.493, 20999.00
1260.567, 21104.00
1261.642, 21173.00
1262.716, 21215.26
1263.790, 21206.00
1264.864, 21258.00
1265.938, 21241.00
1267.011, 21284.00
1268.085, 21285.55
1269.158, 21261.00
1270.231, 21294.00
1271.304, 21333.00
1272.377, 21345.00
1273.450, 21345.00
1274.522, 21623.00
1275.594, 21648.00
1276.666, 21627.00
1277.738, 21595.00
1278.810, 21666.02
1279.882, 21573.00
1280.953, 21789.00
1282.025, 21747.00
1283.096, 21792.00
1284.167, 21906.00
1285.238, 21837.00
1286.308, 21929.00
1287.379, 22019.00
1288.449, 21939.00
1289.519, 22060.00
1290.589, 22126.00
1291.659, 22124.00
1292.729, 22284.00
1293.798, 22497.00
1294.868, 22221.00
1295.937, 22264.00
1297.006, 22449.00
1298.075, 22530.00
1299.143, 22625.00
1300.212, 22671.00
1301.280, 22611.00
1302.348, 22827.00
1303.416, 23003.00
1304.484, 22924.00
1305.552, 22880.00
1306.620, 22638.00
1307.687, 22811.00
1308.754, 23029.00
1309.821, 23013.00
1310.888, 23238.00
1311.955, 23147.00
1313.021, 23427.00
1314.088, 23299.00
1315.154, 23311.00
1316.220, 23369.00
1317.286, 23290.00
1318.352, 23295.00
1319.417, 23275.00
1320.483, 23240.00
1321.548, 23380.00
1322.613, 23334.00
1323.678, 23272.00
1324.743, 23385.00
1325.807, 23292.00
1326.872, 23297.00
1327.936, 23225.00
1329.000, 23314.00
1330.064, 23092.00
1331.128, 23219.00
1332.191, 23327.00
1333.255, 23054.00
1334.318, 23257.00
1335.381, 23122.00
1336.444, 23218.00
1337.507, 23064.00
1338.569, 23129.00
1339.632, 23155.00
1340.694, 23065.00
1341.756, 22831.00
1342.818, 22878.00
1343.880, 22825.00
1344.941, 22827.00
1346.003, 22823.00
1347.064, 22778.04
1348.125, 22752.84
1349.186, 22687.00
1350.247, 22682.00
1351.308, 22593.00
1352.368, 22595.00
1353.428, 22580.00
1354.489, 22496.00
1355.549, 22540.46
1356.608, 22716.00
1357.668, 22612.00
1358.727, 22575.00
1359.787, 22670.00
1360.846, 22509.00
1361.905, 22574.00
1362.964, 22523.00
1364.022, 22444.00
1365.081, 22591.00
1366.139, 22579.00
1367.197, 22509.00
1368.255, 22577.00
1369.313, 22487.00
1370.371, 22686.00
1371.428, 22594.00
1372.486, 22511.00
1373.543, 22435.00
1374.600, 22554.00
1375.657, 22528.00
1376.713, 22487.00
1377.770, 22348.00
1378.826, 22374.00
1379.882, 22595.00
1380.938, 22694.00
1381.994, 22430.00
1383.050, 22520.00
1384.106, 22423.00
1385.161, 22617.00
1386.216, 22507.00
1387.271, 22453.00
1388.326, 22497.00
1389.381, 22354.00
1390.435, 22653.00
1391.490, 22643.00
1392.544, 22657.00
1393.598, 22511.00
1394.652, 22693.00
1395.705, 22732.00
1396.759, 22499.00
1397.812, 22643.00
1398.866, 22599.00
1399.919, 22555.00
1400.972, 22631.00
1402.024, 22841.00
1403.077, 22493.00
1404.129, 22562.00
1405.181, 22807.00
1406.233, 22601.00
1407.285, 22795.00
1408.337, 22800.00
1409.389, 22694.00
1410.440, 22565.00
1411.491, 22835.00
1412.542, 22662.00
1413.593, 22774.00
1414.644, 22865.00
1415.695, 22733.00
1416.745, 22836.00
1417.795, 22843.00
1418.845, 22968.00
1419.895, 22770.00
1420.945, 22872.00
1421.995, 22834.00
1423.044, 22812.00
1424.093, 23081.00
1425.142, 22717.00
1426.191, 23047.00
1427.240, 22888.00
1428.289, 22844.00
1429.337, 23038.00
1430.385, 23045.00
1431.433, 22886.00
1432.481, 23057.00
1433.529, 23094.00
1434.577, 23187.00
1435.624, 23121.00
1436.672, 23100.00
1437.719, 23253.00
1438.766, 23077.00
1439.812, 23089.00
1440.859, 23200.00
1441.905, 23355.00
1442.952, 23415.00
1443.998, 23417.00
1445.044, 23484.00
1446.090, 23527.00
1447.135, 23598.00
1448.181, 23439.00
1449.226, 23387.00
1450.271, 23322.00
1451.316, 23283.48
1452.361, 23309.00
1453.405, 23314.00
1454.450, 23331.00
1455.494, 23439.00
1456.538, 23682.00
1457.582, 23479.00
1458.626, 23679.00
1459.670, 23614.00
1460.713, 23483.00
1461.757, 23618.00
1462.800, 23494.00
1463.843, 23620.00
1464.886, 23501.00
1465.928, 23591.00
1466.971, 23553.00
1468.013, 23595.00
1469.055, 23669.00
1470.097, 23667.00
1471.139, 23522.00
1472.181, 23914.00
1473.222, 23533.00
1474.263, 23711.00
1475.305, 23543.00
1476.346, 23615.00
1477.386, 23593.00
1478.427, 23607.00
1479.468, 23877.00
1480.508, 23797.00
1481.548, 23544.00
1482.588, 23761.00
1483.628, 24045.00
1484.668, 23835.00
1485.707, 23846.00
1486.747, 23781.00
1487.786, 23993.00
1488.825, 23989.00
1489.864, 23921.00
1490.902, 23983.00
1491.941, 23890.00
1492.979, 23920.00
1494.017, 23978.00
1495.055, 24102.00
1496.093, 24060.00
1497.131, 24170.00
1498.168, 24342.00
1499.206, 24159.00
1500.243, 24262.00
1501.280, 24199.00
1502.317, 24182.00
1503.354, 24289.00
1504.390, 24303.00
1505.426, 24292.96
1506.463, 24116.00
1507.499, 24316.00
1508.535, 24314.00
1509.570, 24453.00
1510.606, 24346.00
1511.641, 24514.00
1512.676, 24442.00
1513.711, 24419.00
1514.746, 24426.00
1515.781, 24382.00
1516.816, 24394.00
1517.850, 24433.96
1518.884, 24462.85
1519.918, 24575.00
1520.952, 24559.00
1521.986, 24693.00
1523.019, 24696.00
1524.053, 24693.00
1525.086, 24759.99
1526.119, 24721.00
1527.152, 24796.00
1528.185, 24837.00
1529.217, 24808.00
1530.250, 24792.00
1531.282, 24854.00
1532.314, 24734.00
1533.346, 24893.00
1534.377, 24856.00
1535.409, 24837.00
1536.440, 25053.00
1537.472, 25223.00
1538.503, 25042.00
1539.534, 25056.00
1540.564, 25060.00
1541.595, 25126.00
1542.625, 24974.00
1543.656, 25096.00
1544.686, 24934.00
1545.716, 25172.00
1546.745, 25093.00
1547.775, 25145.00
1548.804, 24974.00
1549.834, 25232.00
1550.863, 25237.00
1551.892, 25288.00
1552.920, 25356.00
1553.949, 25521.00
1554.977, 25465.00
1556.006, 25632.00
1557.034, 25412.00
1558.062, 25453.00
1559.089, 25525.00
1560.117, 25507.00
1561.144, 25460.00
1562.172, 25575.00
1563.199, 25511.00
1564.226, 25649.00
1565.252, 25719.00
1566.279, 25692.00
1567.305, 25532.00
1568.332, 25621.00
1569.358, 25614.00
1570.384, 25772.00
##END=



