##NAMES=Albite
##RRUFFID=R050402
##IDEAL CHEMISTRY=NaAlSi_3_O_8_
##LOCALITY=Urbano mine, Golconda District, Brazil
##OWNER=RRUFF
##SOURCE=Bob Downs
##DESCRIPTION=Colorless tabular single crystals associated with fluorapatite R050401
##STATUS=The identification of this mineral has been confirmed by X-ray diffraction and chemical analysis
##URL=rruff.info/R050402
##MEASURED CHEMISTRY=Na_1.00_Al_1.00_Si_3.00_O_8_
##PIN_ID=M00139
##ORIENTATION=Laser parallel to c* (0 0 1). Fiducial mark perpendicular to laser is parallel to a [1 0 0]
81.13100, 3353.000
82.36700, 3723.000
83.60200, 4456.000
84.83700, 5212.000
86.07200, 6482.000
87.30800, 8150.000
88.54200, 9994.000
89.77700, 10399.00
91.01200, 9501.000
92.24600, 7895.000
93.48000, 6457.000
94.71400, 5564.000
95.94800, 5117.000
97.18200, 4875.000
98.41600, 4637.000
99.64900, 4633.000
100.8830, 4659.000
102.1160, 4694.000
103.3490, 4861.000
104.5820, 5052.000
105.8150, 5387.000
107.0470, 5771.000
108.2800, 6262.000
109.5120, 7132.000
110.7440, 7637.000
111.9760, 8466.000
113.2080, 9647.000
114.4400, 10698.00
115.6710, 11440.00
116.9030, 10649.00
118.1340, 9080.000
119.3650, 7662.000
120.5960, 6500.000
121.8270, 5820.000
123.0580, 5434.000
124.2880, 5229.000
125.5190, 4851.000
126.7490, 4708.000
127.9790, 4712.000
129.2090, 4690.000
130.4390, 4736.000
131.6680, 4635.000
132.8980, 4740.000
134.1270, 4779.000
135.3560, 4836.000
136.5850, 5099.000
137.8140, 5328.000
139.0430, 5551.000
140.2710, 5883.000
141.5000, 6327.000
142.7280, 6874.000
143.9560, 7769.000
145.1840, 9185.000
146.4120, 10464.00
147.6390, 11689.00
148.8670, 12015.00
150.0940, 11762.00
151.3210, 11371.00
152.5490, 10955.00
153.7750, 10218.00
155.0020, 9388.000
156.2290, 8544.000
157.4550, 7860.000
158.6810, 7540.000
159.9080, 7531.000
161.1340, 7732.000
162.3590, 7976.000
163.5850, 8451.000
164.8110, 8883.000
166.0360, 9130.000
167.2610, 9379.000
168.4860, 9809.000
169.7110, 10591.00
170.9360, 11628.00
172.1610, 12346.00
173.3850, 12419.00
174.6100, 12092.00
175.8340, 11680.00
177.0580, 11464.00
178.2820, 11857.00
179.5050, 12342.00
180.7290, 13002.00
181.9520, 13774.00
183.1760, 14733.00
184.3990, 15716.00
185.6220, 16358.00
186.8450, 16800.00
188.0670, 16561.00
189.2900, 16131.00
190.5120, 15137.00
191.7340, 13995.00
192.9560, 13061.00
194.1780, 12001.00
195.4000, 11187.00
196.6220, 10716.00
197.8430, 10343.00
199.0640, 10151.00
200.2860, 9986.368
201.5070, 9920.000
202.7270, 10023.00
203.9480, 10232.00
205.1690, 10515.00
206.3890, 11235.00
207.6090, 12101.00
208.8290, 13194.00
210.0490, 13895.00
211.2690, 13808.00
212.4890, 12990.00
213.7080, 11258.00
214.9280, 9614.000
216.1470, 8229.000
217.3660, 7184.000
218.5850, 6508.000
219.8030, 6072.000
221.0220, 5732.000
222.2400, 5506.000
223.4590, 5350.000
224.6770, 5299.000
225.8950, 5162.000
227.1120, 5094.000
228.3300, 5121.000
229.5480, 5062.000
230.7650, 5015.000
231.9820, 5005.000
233.1990, 5141.000
234.4160, 5166.000
235.6330, 5245.000
236.8490, 5193.000
238.0660, 5398.000
239.2820, 5595.000
240.4980, 5770.000
241.7140, 6100.000
242.9300, 6367.000
244.1460, 6868.000
245.3610, 7460.000
246.5770, 8345.000
247.7920, 9536.000
249.0070, 11211.00
250.2220, 13436.00
251.4370, 16191.00
252.6510, 18347.00
253.8660, 19049.00
255.0800, 17689.00
256.2940, 14996.00
257.5080, 12089.00
258.7220, 10190.00
259.9360, 9031.000
261.1490, 8257.000
262.3630, 7786.000
263.5760, 7857.000
264.7890, 8039.000
266.0020, 8591.000
267.2150, 9453.000
268.4270, 10619.00
269.6400, 11558.00
270.8520, 12364.00
272.0640, 12580.00
273.2760, 12237.00
274.4880, 11560.00
275.7000, 10894.00
276.9120, 10411.00
278.1230, 10183.00
279.3340, 10324.00
280.5450, 10812.00
281.7560, 11503.00
282.9670, 12828.00
284.1780, 14635.00
285.3880, 16910.00
286.5980, 20422.00
287.8090, 24830.00
289.0190, 30473.00
290.2290, 36047.00
291.4380, 40529.00
292.6480, 41627.00
293.8570, 38712.00
295.0670, 33228.00
296.2760, 27086.00
297.4850, 21429.00
298.6930, 17208.00
299.9020, 14014.00
301.1110, 11899.00
302.3190, 10270.00
303.5270, 9225.000
304.7350, 8433.000
305.9430, 7744.000
307.1510, 7454.000
308.3580, 7158.000
309.5660, 6866.000
310.7730, 6707.000
311.9800, 6526.000
313.1870, 6488.000
314.3940, 6276.000
315.6010, 6051.000
316.8070, 6018.000
318.0130, 6046.173
319.2200, 6238.000
320.4260, 6408.000
321.6310, 6771.000
322.8370, 7203.000
324.0430, 7822.000
325.2480, 8903.000
326.4540, 10591.00
327.6590, 12823.00
328.8640, 15180.00
330.0680, 16603.00
331.2730, 16464.00
332.4780, 14448.00
333.6820, 12198.00
334.8860, 9838.000
336.0900, 8621.000
337.2940, 7604.000
338.4980, 6831.000
339.7010, 6379.000
340.9050, 6144.000
342.1080, 5984.000
343.3110, 5775.000
344.5140, 5649.000
345.7170, 5621.000
346.9200, 5548.000
348.1220, 5661.000
349.3240, 5651.000
350.5270, 5670.000
351.7290, 5461.000
352.9310, 5435.000
354.1320, 5369.000
355.3340, 5360.000
356.5350, 5148.000
357.7370, 5201.000
358.9380, 5153.000
360.1390, 5110.000
361.3400, 5171.000
362.5400, 5115.000
363.7410, 5068.000
364.9410, 5015.000
366.1410, 5003.089
367.3410, 4959.000
368.5410, 4998.000
369.7410, 4989.000
370.9400, 5004.000
372.1400, 4937.000
373.3390, 4997.000
374.5380, 5081.000
375.7370, 5012.000
376.9360, 4980.000
378.1350, 5024.000
379.3330, 4970.000
380.5310, 4996.000
381.7300, 5014.000
382.9280, 4945.000
384.1260, 5072.000
385.3230, 5130.000
386.5210, 5203.000
387.7180, 5177.000
388.9160, 5304.000
390.1130, 5331.000
391.3100, 5446.000
392.5060, 5683.000
393.7030, 5807.000
394.9000, 6026.000
396.0960, 6491.000
397.2920, 6877.000
398.4880, 7185.000
399.6840, 7379.916
400.8800, 7681.000
402.0750, 7552.000
403.2710, 7256.000
404.4660, 7181.000
405.6610, 7267.000
406.8560, 7733.000
408.0510, 8368.000
409.2450, 8917.000
410.4400, 8877.000
411.6340, 8291.000
412.8280, 7768.000
414.0220, 7623.000
415.2160, 7840.000
416.4100, 8348.000
417.6030, 8876.000
418.7970, 8606.000
419.9900, 8014.000
421.1830, 7098.000
422.3760, 6369.000
423.5690, 6022.000
424.7610, 5759.000
425.9540, 5679.000
427.1460, 5594.000
428.3380, 5558.000
429.5300, 5472.000
430.7220, 5432.000
431.9140, 5403.000
433.1050, 5307.000
434.2970, 5398.000
435.4880, 5428.000
436.6790, 5444.000
437.8700, 5431.000
439.0610, 5264.000
440.2510, 5415.000
441.4420, 5357.000
442.6320, 5438.000
443.8220, 5549.000
445.0120, 5427.000
446.2020, 5540.000
447.3910, 5554.000
448.5810, 5610.000
449.7700, 5669.816
450.9600, 5588.000
452.1490, 5774.000
453.3370, 5823.000
454.5260, 5892.000
455.7150, 6114.000
456.9030, 6147.000
458.0910, 6279.000
459.2800, 6351.000
460.4670, 6366.000
461.6550, 6319.000
462.8430, 6547.000
464.0300, 6626.000
465.2180, 6857.000
466.4050, 7194.000
467.5920, 7368.000
468.7790, 7822.000
469.9650, 8258.000
471.1520, 9031.000
472.3380, 10151.00
473.5250, 11482.00
474.7110, 13190.00
475.8970, 15863.00
477.0820, 18736.00
478.2680, 22395.00
479.4540, 25189.00
480.6390, 25697.00
481.8240, 24156.00
483.0090, 20863.00
484.1940, 17638.00
485.3780, 15129.00
486.5630, 13147.00
487.7470, 11658.00
488.9320, 10777.00
490.1160, 10158.00
491.3000, 10120.00
492.4830, 9961.000
493.6670, 10163.00
494.8500, 10501.00
496.0340, 11119.00
497.2170, 12333.00
498.4000, 13750.00
499.5820, 15633.00
500.7650, 18092.00
501.9480, 21879.00
503.1300, 26579.00
504.3120, 33391.00
505.4940, 41649.00
506.6760, 50254.00
507.8580, 57247.00
509.0390, 58899.00
510.2210, 54713.00
511.4020, 46275.00
512.5830, 37161.00
513.7640, 29385.00
514.9450, 23256.00
516.1250, 19074.00
517.3060, 16133.00
518.4860, 14089.00
519.6660, 12608.00
520.8460, 11837.00
522.0260, 10517.00
523.2060, 9918.000
524.3850, 9205.000
525.5650, 8909.000
526.7440, 8460.000
527.9230, 8262.000
529.1020, 7970.000
530.2810, 7850.000
531.4590, 7629.000
532.6380, 7527.000
533.8160, 7340.000
534.9940, 7223.000
536.1720, 7138.000
537.3500, 6985.000
538.5270, 6994.000
539.7050, 6916.000
540.8820, 6871.000
542.0590, 6770.000
543.2360, 6780.000
544.4130, 6633.000
545.5900, 6570.000
546.7660, 6544.000
547.9430, 6578.000
549.1190, 6577.000
550.2950, 6513.000
551.4710, 6429.000
552.6470, 6434.000
553.8220, 6522.000
554.9980, 6478.000
556.1730, 6517.000
557.3480, 6389.000
558.5230, 6423.000
559.6980, 6412.000
560.8730, 6320.000
562.0470, 6437.000
563.2220, 6412.000
564.3960, 6348.000
565.5700, 6366.000
566.7440, 6437.000
567.9170, 6569.000
569.0910, 6417.000
570.2640, 6586.000
571.4380, 6565.000
572.6110, 6611.000
573.7840, 6657.000
574.9570, 6736.000
576.1290, 7016.000
577.3020, 7280.000
578.4740, 7359.000
579.6460, 7484.000
580.8180, 7519.000
581.9900, 7511.000
583.1620, 7302.000
584.3330, 7101.000
585.5040, 6824.000
586.6760, 6756.000
587.8470, 6649.000
589.0180, 6496.000
590.1880, 6443.000
591.3590, 6396.000
592.5290, 6354.000
593.7000, 6338.132
594.8700, 6323.832
596.0400, 6325.000
597.2090, 6330.000
598.3790, 6331.000
599.5490, 6345.000
600.7180, 6347.000
601.8870, 6319.000
603.0560, 6314.000
604.2250, 6331.000
605.3940, 6412.000
606.5620, 6356.000
607.7300, 6343.000
608.8990, 6392.000
610.0670, 6352.000
611.2350, 6473.000
612.4020, 6453.000
613.5700, 6454.000
614.7370, 6555.000
615.9050, 6517.000
617.0720, 6466.000
618.2390, 6528.000
619.4060, 6554.000
620.5720, 6648.000
621.7390, 6742.000
622.9050, 6966.000
624.0710, 6975.000
625.2370, 7163.000
626.4030, 7307.000
627.5690, 7372.000
628.7340, 7621.000
629.9000, 7724.000
631.0650, 8007.000
632.2300, 8370.000
633.3950, 8383.000
634.5600, 8597.000
635.7240, 8519.000
636.8890, 8219.000
638.0530, 8105.000
639.2170, 7939.000
640.3810, 7945.000
641.5450, 8005.000
642.7080, 8129.000
643.8720, 8154.000
645.0350, 8477.000
646.1980, 8581.000
647.3610, 8740.000
648.5240, 8803.000
649.6870, 8701.000
650.8490, 8367.000
652.0120, 7887.000
653.1740, 7653.000
654.3360, 7422.000
655.4980, 7305.000
656.6600, 7062.000
657.8210, 6952.000
658.9830, 6712.000
660.1440, 6888.000
661.3050, 6804.000
662.4660, 6705.000
663.6270, 6681.000
664.7870, 6624.810
665.9480, 6641.000
667.1080, 6575.000
668.2680, 6567.829
669.4280, 6558.000
670.5880, 6528.000
671.7480, 6529.000
672.9070, 6541.000
674.0670, 6639.000
675.2260, 6518.000
676.3850, 6487.000
677.5440, 6547.000
678.7030, 6468.000
679.8610, 6562.000
681.0200, 6586.000
682.1780, 6514.000
683.3360, 6535.000
684.4940, 6492.000
685.6520, 6534.000
686.8090, 6520.000
687.9670, 6525.000
689.1240, 6533.000
690.2810, 6547.000
691.4380, 6563.000
692.5950, 6530.000
693.7520, 6540.000
694.9080, 6502.000
696.0650, 6571.000
697.2210, 6576.000
698.3770, 6545.000
699.5330, 6508.000
700.6880, 6502.558
701.8440, 6486.211
702.9990, 6514.000
704.1550, 6479.000
705.3100, 6578.000
706.4650, 6585.000
707.6190, 6645.000
708.7740, 6664.806
709.9290, 6697.000
711.0830, 6679.000
712.2370, 6665.000
713.3910, 6656.000
714.5450, 6789.000
715.6980, 6745.000
716.8520, 6808.000
718.0050, 6811.000
719.1580, 6854.000
720.3110, 6767.000
721.4640, 6783.000
722.6170, 6842.000
723.7700, 6824.000
724.9220, 6881.000
726.0740, 6831.000
727.2260, 6901.000
728.3780, 6874.000
729.5300, 6817.000
730.6810, 6817.000
731.8330, 6717.000
732.9840, 6865.000
734.1350, 6891.000
735.2860, 6805.000
736.4370, 6791.000
737.5880, 6822.000
738.7380, 6871.000
739.8880, 6892.764
741.0390, 6962.000
742.1890, 6966.000
743.3380, 6991.000
744.4880, 7002.000
745.6380, 7102.000
746.7870, 7003.000
747.9360, 7106.000
749.0850, 7069.000
750.2340, 7250.000
751.3830, 7258.000
752.5310, 7348.000
753.6800, 7525.000
754.8280, 7656.000
755.9760, 7782.000
757.1240, 8145.000
758.2720, 8503.000
759.4190, 8870.000
760.5670, 9431.000
761.7140, 10208.00
762.8610, 10832.00
764.0080, 11434.00
765.1550, 11525.00
766.3020, 11118.00
767.4480, 10438.00
768.5950, 9685.000
769.7410, 9051.000
770.8870, 8627.000
772.0330, 8195.000
773.1780, 8054.000
774.3240, 7793.000
775.4690, 7667.000
776.6140, 7616.000
777.7590, 7522.000
778.9040, 7433.000
780.0490, 7362.000
781.1940, 7367.000
782.3380, 7373.000
783.4820, 7285.000
784.6260, 7253.000
785.7700, 7292.000
786.9140, 7274.000
788.0580, 7233.000
789.2010, 7247.000
790.3450, 7326.000
791.4880, 7273.000
792.6310, 7333.000
793.7730, 7175.000
794.9160, 7287.000
796.0590, 7283.000
797.2010, 7419.000
798.3430, 7252.000
799.4850, 7281.000
800.6270, 7417.000
801.7690, 7444.000
802.9100, 7467.000
804.0520, 7473.000
805.1930, 7594.000
806.3340, 7745.000
807.4750, 7779.000
808.6160, 7936.000
809.7560, 8238.000
810.8970, 8466.000
812.0370, 8809.000
813.1770, 9242.000
814.3170, 9651.000
815.4570, 10080.00
816.5960, 10293.00
817.7360, 10155.00
818.8750, 9753.000
820.0140, 9212.000
821.1530, 8885.000
822.2920, 8520.000
823.4310, 8150.000
824.5690, 7997.000
825.7070, 7825.000
826.8460, 7757.000
827.9840, 7655.000
829.1220, 7630.000
830.2590, 7557.000
831.3970, 7763.000
832.5340, 7570.000
833.6710, 7694.000
834.8080, 7629.000
835.9450, 7443.000
837.0820, 7605.000
838.2190, 7575.000
839.3550, 7559.000
840.4910, 7600.000
841.6270, 7580.452
842.7630, 7508.000
843.8990, 7566.000
845.0350, 7582.000
846.1700, 7520.000
847.3060, 7536.000
848.4410, 7571.000
849.5760, 7562.000
850.7100, 7452.000
851.8450, 7457.000
852.9800, 7396.000
854.1140, 7414.000
855.2480, 7426.000
856.3820, 7487.000
857.5160, 7556.000
858.6500, 7530.000
859.7830, 7593.000
860.9170, 7541.000
862.0500, 7630.000
863.1830, 7534.000
864.3160, 7642.000
865.4480, 7599.000
866.5810, 7523.000
867.7130, 7603.000
868.8460, 7564.000
869.9780, 7663.000
871.1100, 7526.000
872.2410, 7690.000
873.3730, 7711.000
874.5050, 7702.000
875.6360, 7500.000
876.7670, 7556.000
877.8980, 7556.000
879.0290, 7738.000
880.1590, 7513.000
881.2900, 7639.000
882.4200, 7562.000
883.5500, 7727.000
884.6800, 7550.000
885.8100, 7646.000
886.9400, 7735.000
888.0690, 7780.000
889.1990, 7632.000
890.3280, 7664.000
891.4570, 7680.000
892.5860, 7666.000
893.7140, 7679.048
894.8430, 7690.000
895.9710, 7674.000
897.1000, 7685.000
898.2280, 7689.000
899.3560, 7696.000
900.4830, 7743.000
901.6110, 7724.000
902.7380, 7737.000
903.8660, 7753.000
904.9930, 7722.000
906.1200, 7769.000
907.2460, 7765.000
908.3730, 7823.000
909.5000, 7838.801
910.6260, 7811.000
911.7520, 7848.000
912.8780, 7808.000
914.0040, 7723.000
915.1290, 7869.000
916.2550, 7850.000
917.3800, 7743.000
918.5050, 7792.000
919.6300, 7770.000
920.7550, 7833.000
921.8800, 7804.000
923.0040, 7755.000
924.1290, 7777.000
925.2530, 7864.000
926.3770, 7820.000
927.5010, 7882.000
928.6250, 7846.000
929.7480, 7884.000
930.8720, 7827.000
931.9950, 7858.000
933.1180, 7946.000
934.2410, 7854.000
935.3640, 7914.000
936.4860, 7984.000
937.6090, 7962.000
938.7310, 8006.551
939.8530, 8092.000
940.9750, 8038.000
942.0970, 8030.000
943.2180, 8066.000
944.3400, 8008.000
945.4610, 8022.000
946.5820, 8018.000
947.7030, 8028.963
948.8240, 8056.585
949.9450, 8090.000
951.0650, 8134.000
952.1860, 8177.000
953.3060, 8249.000
954.4260, 8146.000
955.5460, 8295.000
956.6650, 8259.000
957.7850, 8244.000
958.9040, 8353.000
960.0230, 8380.000
961.1420, 8357.000
962.2610, 8403.000
963.3800, 8417.000
964.4990, 8436.000
965.6170, 8528.000
966.7350, 8505.000
967.8530, 8691.000
968.9710, 8778.000
970.0890, 9029.000
971.2070, 9200.000
972.3240, 9407.000
973.4410, 9692.000
974.5580, 10155.00
975.6750, 10333.00
976.7920, 10882.00
977.9090, 11143.00
979.0250, 11491.00
980.1410, 11562.00
981.2580, 11151.00
982.3740, 10790.00
983.4890, 10322.00
984.6050, 9967.000
985.7200, 9644.000
986.8360, 9280.000
987.9510, 9230.000
989.0660, 8934.000
990.1810, 8857.000
991.2950, 8802.000
992.4100, 8771.000
993.5240, 8826.000
994.6390, 8700.000
995.7530, 8706.000
996.8660, 8638.000
997.9800, 8599.000
999.0940, 8669.000
1000.207, 8865.000
1001.320, 8939.000
1002.433, 8982.000
1003.546, 9179.000
1004.659, 9060.000
1005.772, 9367.000
1006.884, 9299.000
1007.996, 9466.000
1009.108, 9469.000
1010.220, 9514.000
1011.332, 9676.000
1012.444, 9684.000
1013.555, 9914.000
1014.666, 9897.000
1015.777, 9967.000
1016.888, 10000.00
1017.999, 9662.000
1019.110, 9584.000
1020.220, 9540.000
1021.331, 9423.000
1022.441, 9336.000
1023.551, 9351.000
1024.661, 9437.000
1025.770, 9447.000
1026.880, 9275.000
1027.989, 9613.000
1029.098, 9679.000
1030.207, 10021.00
1031.316, 10143.00
1032.425, 10268.00
1033.533, 10376.00
1034.642, 10373.00
1035.750, 10276.00
1036.858, 10058.00
1037.966, 9756.000
1039.073, 9518.000
1040.181, 9510.000
1041.288, 9182.000
1042.396, 9040.000
1043.503, 9145.000
1044.610, 8934.000
1045.716, 8979.000
1046.823, 8969.000
1047.929, 8862.000
1049.036, 8909.000
1050.142, 8832.000
1051.248, 8814.000
1052.353, 8695.000
1053.459, 8872.000
1054.564, 8732.000
1055.670, 8740.000
1056.775, 8668.000
1057.880, 8749.000
1058.985, 8605.000
1060.089, 8794.000
1061.194, 8658.000
1062.298, 8710.000
1063.402, 8572.000
1064.506, 8788.000
1065.610, 8816.000
1066.713, 8764.000
1067.817, 8750.000
1068.920, 8751.000
1070.023, 8702.000
1071.126, 8722.000
1072.229, 8706.000
1073.332, 8711.000
1074.435, 8863.000
1075.537, 8793.000
1076.639, 8899.000
1077.741, 8807.000
1078.843, 8983.000
1079.945, 8981.000
1081.046, 8913.000
1082.148, 9041.000
1083.249, 9135.000
1084.350, 9210.000
1085.451, 9219.000
1086.551, 9258.000
1087.652, 9255.000
1088.752, 9378.000
1089.853, 9581.000
1090.953, 9566.000
1092.053, 9738.000
1093.152, 9969.000
1094.252, 10084.00
1095.351, 10548.00
1096.451, 10832.00
1097.550, 11071.00
1098.649, 11447.00
1099.748, 11586.00
1100.846, 11475.00
1101.945, 11729.00
1103.043, 11465.00
1104.141, 11176.00
1105.239, 10928.00
1106.337, 10775.00
1107.434, 10608.00
1108.532, 10429.00
1109.629, 10350.00
1110.726, 10290.00
1111.823, 10242.00
1112.920, 10217.00
1114.017, 10140.00
1115.113, 10135.00
1116.210, 10253.00
1117.306, 10042.00
1118.402, 10044.00
1119.498, 9898.000
1120.593, 9963.000
1121.689, 9997.000
1122.784, 9693.000
1123.879, 9712.000
1124.974, 9780.000
1126.069, 9550.000
1127.164, 9501.000
1128.259, 9356.000
1129.353, 9232.000
1130.447, 9164.000
1131.541, 9095.000
1132.635, 9160.000
1133.729, 9050.000
1134.822, 9204.000
1135.916, 8974.000
1137.009, 9109.000
1138.102, 8983.000
1139.195, 8980.000
1140.288, 9106.000
1141.380, 9081.000
1142.473, 9118.000
1143.565, 8991.000
1144.657, 9032.000
1145.749, 8934.000
1146.841, 8992.000
1147.932, 9030.000
1149.024, 9129.000
1150.115, 9098.000
1151.206, 9111.000
1152.297, 9112.136
1153.388, 9133.000
1154.479, 9050.000
1155.569, 9106.000
1156.659, 9042.000
1157.750, 9016.000
1158.839, 9080.000
1159.929, 8983.000
1161.019, 9113.000
1162.108, 9133.000
1163.198, 9069.000
1164.287, 9048.000
1165.376, 9049.000
1166.465, 9020.000
1167.553, 8991.000
1168.642, 9036.000
1169.730, 8996.000
1170.818, 9109.000
1171.906, 9081.000
1172.994, 9107.000
1174.082, 9012.000
1175.170, 9022.000
1176.257, 9066.000
1177.344, 9120.000
1178.431, 9134.000
1179.518, 9160.000
1180.605, 9034.000
1181.691, 9035.000
1182.778, 9078.000
1183.864, 9068.000
1184.950, 9104.000
1186.036, 9154.000
1187.122, 9028.000
1188.207, 9109.000
1189.292, 9109.000
1190.378, 9168.000
1191.463, 9168.000
1192.548, 9078.000
1193.632, 9093.000
1194.717, 9029.000
1195.801, 9129.000
1196.886, 9159.000
1197.970, 9115.000
1199.054, 9150.000
1200.137, 9055.000
1201.221, 8961.000
1202.305, 9192.000
1203.388, 9248.000
1204.471, 9144.000
1205.554, 9206.000
1206.637, 9183.000
1207.719, 9148.000
1208.802, 9216.000
1209.884, 9185.000
1210.966, 9105.000
1212.048, 9134.000
1213.130, 9218.000
1214.212, 9176.000
1215.293, 9201.000
1216.374, 9095.000
1217.456, 9180.000
1218.536, 9160.118
1219.617, 9214.000
1220.698, 9183.000
1221.778, 9175.000
1222.859, 9156.000
1223.939, 9211.000
1225.019, 9216.000
1226.099, 9385.000
1227.178, 9325.000
1228.258, 9222.000
1229.337, 9350.000
1230.417, 9188.000
1231.496, 9260.000
1232.574, 9359.000
1233.653, 9360.000
1234.732, 9269.000
1235.810, 9432.000
1236.888, 9299.000
1237.966, 9361.000
1239.044, 9289.000
1240.122, 9300.000
1241.199, 9208.000
1242.277, 9268.272
1243.354, 9393.000
1244.431, 9356.000
1245.508, 9393.000
1246.585, 9383.000
1247.661, 9368.886
1248.738, 9460.000
1249.814, 9379.000
1250.890, 9393.000
1251.966, 9479.000
1253.042, 9435.000
1254.117, 9506.000
1255.193, 9366.000
1256.268, 9466.000
1257.343, 9396.000
1258.418, 9425.000
1259.493, 9385.000
1260.567, 9366.000
1261.642, 9544.000
1262.716, 9496.000
1263.790, 9603.000
1264.864, 9447.000
1265.938, 9471.000
1267.011, 9570.000
1268.085, 9606.000
1269.158, 9582.000
1270.231, 9613.000
1271.304, 9655.000
1272.377, 9657.000
1273.450, 9453.000
1274.522, 9714.000
1275.594, 9547.000
1276.666, 9435.000
1277.738, 9579.000
1278.810, 9528.000
1279.882, 9540.000
1280.953, 9626.000
1282.025, 9568.000
1283.096, 9513.000
1284.167, 9632.000
1285.238, 9701.000
1286.308, 9594.000
1287.379, 9618.000
1288.449, 9602.000
1289.519, 9572.000
1290.589, 9548.000
1291.659, 9540.000
1292.729, 9552.000
1293.798, 9575.267
1294.868, 9723.000
1295.937, 9665.000
1297.006, 9671.000
1298.075, 9734.000
1299.143, 9683.000
1300.212, 9698.000
1301.280, 9821.000
1302.348, 9737.000
1303.416, 9731.000
1304.484, 9638.000
1305.552, 9679.000
1306.620, 9648.000
1307.687, 9716.000
1308.754, 9691.229
1309.821, 9726.556
1310.888, 9686.000
1311.955, 9784.000
1313.021, 9828.000
1314.088, 9853.000
1315.154, 9738.000
1316.220, 9852.000
1317.286, 9632.000
1318.352, 9761.000
1319.417, 9832.000
1320.483, 9659.000
1321.548, 9757.000
1322.613, 9715.000
1323.678, 9785.000
1324.743, 9688.000
1325.807, 9720.000
1326.872, 9748.000
1327.936, 9664.000
1329.000, 9847.000
1330.064, 9712.000
1331.128, 9765.000
1332.191, 9746.000
1333.255, 9722.000
1334.318, 9666.000
1335.381, 9735.000
1336.444, 9685.000
1337.507, 9769.000
1338.569, 9789.000
1339.632, 9954.000
1340.694, 9750.000
1341.756, 9833.000
1342.818, 9830.000
1343.880, 9755.000
1344.941, 9823.000
1346.003, 9761.000
1347.064, 9725.000
1348.125, 9901.000
1349.186, 9823.000
1350.247, 9880.000
1351.308, 9775.000
1352.368, 9886.000
1353.428, 9820.000
1354.489, 9927.000
1355.549, 9845.000
1356.608, 9903.000
1357.668, 9949.000
1358.727, 9896.000
1359.787, 9936.000
1360.846, 9875.000
1361.905, 9881.000
1362.964, 9849.000
1364.022, 9846.000
1365.081, 9941.000
1366.139, 9840.000
1367.197, 9760.000
1368.255, 9887.000
1369.313, 10014.00
1370.371, 10045.00
1371.428, 10057.45
1372.486, 9880.000
1373.543, 9981.000
1374.600, 9873.000
1375.657, 9826.000
1376.713, 10037.00
1377.770, 9867.000
1378.826, 10059.00
1379.882, 10040.00
1380.938, 9978.000
1381.994, 9968.000
1383.050, 10093.00
1384.106, 10023.00
1385.161, 10096.00
1386.216, 10016.00
1387.271, 9978.000
1388.326, 10091.00
1389.381, 9854.000
1390.435, 10057.00
1391.490, 10014.00
1392.544, 9997.000
1393.598, 9987.000
1394.652, 10063.00
1395.705, 9944.000
1396.759, 10128.00
1397.812, 9974.000
1398.866, 10019.00
1399.919, 9903.000
1400.972, 9873.000
1402.024, 10065.00
1403.077, 10012.00
1404.129, 10098.00
1405.181, 9988.000
1406.233, 10057.00
1407.285, 10055.00
1408.337, 10117.00
1409.389, 10186.00
1410.440, 10180.59
1411.491, 10184.00
1412.542, 10142.00
1413.593, 10184.00
1414.644, 10042.00
1415.695, 10052.00
1416.745, 10089.00
1417.795, 10086.00
1418.845, 9986.000
1419.895, 10150.00
1420.945, 10190.00
1421.995, 10091.00
1423.044, 10208.00
1424.093, 10297.00
1425.142, 10148.00
1426.191, 10080.00
1427.240, 10261.00
1428.289, 10234.00
1429.337, 10155.00
1430.385, 10305.00
1431.433, 10217.00
1432.481, 10259.00
1433.529, 10329.00
1434.577, 10361.00
1435.624, 10468.00
1436.672, 10312.00
1437.719, 10352.00
1438.766, 10227.00
1439.812, 10345.00
1440.859, 10437.00
1441.905, 10408.00
1442.952, 10375.00
1443.998, 10462.00
1445.044, 10469.00
1446.090, 10470.00
1447.135, 10543.00
1448.181, 10600.00
1449.226, 10576.00
1450.271, 10617.30
1451.316, 10555.00
1452.361, 10610.00
1453.405, 10477.00
1454.450, 10429.00
1455.494, 10610.00
1456.538, 10594.00
1457.582, 10463.00
1458.626, 10498.00
1459.670, 10530.00
1460.713, 10558.00
1461.757, 10439.00
1462.800, 10492.00
1463.843, 10505.00
1464.886, 10526.00
1465.928, 10610.00
1466.971, 10436.00
1468.013, 10440.00
1469.055, 10506.00
1470.097, 10592.00
1471.139, 10534.00
1472.181, 10464.00
1473.222, 10497.00
1474.263, 10495.00
1475.305, 10381.00
1476.346, 10613.00
1477.386, 10604.00
1478.427, 10474.00
1479.468, 10450.00
1480.508, 10457.00
1481.548, 10513.00
1482.588, 10538.00
1483.628, 10573.00
1484.668, 10564.00
1485.707, 10568.93
1486.747, 10598.00
1487.786, 10520.00
1488.825, 10551.00
1489.864, 10476.00
1490.902, 10525.00
1491.941, 10666.00
1492.979, 10439.00
1494.017, 10630.00
1495.055, 10536.00
1496.093, 10461.00
1497.131, 10458.00
1498.168, 10569.00
1499.206, 10614.00
1500.243, 10582.00
1501.280, 10555.00
1502.317, 10641.00
1503.354, 10606.00
1504.390, 10604.00
1505.426, 10631.00
1506.463, 10532.00
1507.499, 10523.00
1508.535, 10695.00
1509.570, 10607.00
1510.606, 10614.00
1511.641, 10569.00
1512.676, 10716.00
1513.711, 10606.00
1514.746, 10698.00
1515.781, 10542.00
1516.816, 10704.00
1517.850, 10709.00
1518.884, 10634.00
1519.918, 10739.00
1520.952, 10506.00
1521.986, 10822.00
1523.019, 10749.00
1524.053, 10651.00
1525.086, 10816.00
1526.119, 10766.00
1527.152, 10519.00
1528.185, 10752.00
1529.217, 10709.00
1530.250, 10707.00
1531.282, 10762.00
1532.314, 10753.68
1533.346, 10740.52
1534.377, 10777.00
1535.409, 10770.00
1536.440, 10719.00
1537.472, 10907.00
1538.503, 10778.00
1539.534, 10661.00
1540.564, 10765.00
1541.595, 10834.00
1542.625, 10806.00
1543.656, 10851.00
1544.686, 10918.00
1545.716, 10797.00
1546.745, 10859.00
1547.775, 10821.00
1548.804, 10775.00
1549.834, 10754.00
1550.863, 10887.00
1551.892, 10929.00
1552.920, 11068.00
1553.949, 11043.00
1554.977, 11013.00
1556.006, 10996.00
1557.034, 10926.00
1558.062, 10907.96
1559.089, 10971.00
1560.117, 10894.00
1561.144, 10892.00
1562.172, 11001.00
1563.199, 10889.00
1564.226, 10947.00
1565.252, 10952.00
1566.279, 10861.00
1567.305, 10916.00
1568.332, 10991.00
1569.358, 10927.00
1570.384, 11048.00
##END=



