##NAMES=Almandine
##RRUFFID=R040076
##IDEAL CHEMISTRY=Fe^2+^_3_Al_2_(SiO_4_)_3_
##LOCALITY=Barton Garnet mine, Gore Mountain, Warren County, New York, USA
##OWNER=RRUFF
##SOURCE=University of Arizona Mineral Museum
##DESCRIPTION=Red coarsely crystalline
##STATUS=The identification of this mineral has been confirmed by X-ray diffraction and chemical analysis
##URL=rruff.info/R040076
##MEASURED CHEMISTRY=(Fe^2+^_1.38_Mg_1.26_Ca_0.33_Mn_0.03_)_Î£=3_Al_2.00_(Si_1.00_O_4_)_3_; trace amounts of Ti
##PIN_ID=M00102
##ORIENTATION=Laser parallel to -a* (-1 0 0). Fiducial mark perpendicular to laser is parallel to b [0 1 0]
199.990, 2820.000
201.366, 2848.000
202.741, 2842.000
204.116, 2816.000
205.490, 2849.000
206.865, 2824.000
208.239, 2843.000
209.613, 2865.000
210.987, 2844.000
212.361, 2804.000
213.734, 2770.000
215.107, 2822.000
216.480, 2819.000
217.853, 2804.000
219.226, 2827.000
220.598, 2821.000
221.970, 2764.000
223.342, 2814.000
224.714, 2851.000
226.085, 2877.000
227.457, 2794.000
228.828, 2841.000
230.198, 2823.000
231.569, 2828.000
232.939, 2819.000
234.309, 2855.000
235.679, 2848.324
237.049, 2904.000
238.419, 2854.000
239.788, 2907.000
241.157, 2902.000
242.526, 2938.000
243.894, 2898.000
245.263, 2890.000
246.631, 2959.000
247.999, 2930.000
249.367, 2972.000
250.734, 2868.000
252.102, 2939.000
253.469, 2906.000
254.836, 2932.000
256.202, 2880.000
257.569, 2926.000
258.935, 2891.000
260.301, 2985.000
261.667, 2890.000
263.033, 2972.000
264.398, 2909.000
265.763, 2953.000
267.128, 2928.000
268.493, 2929.000
269.857, 2922.000
271.222, 2956.000
272.586, 2926.000
273.950, 2958.000
275.313, 2964.715
276.677, 2951.000
278.040, 2982.000
279.403, 2970.000
280.766, 2958.000
282.128, 2937.000
283.491, 2977.000
284.853, 2944.000
286.215, 2991.000
287.576, 2996.000
288.938, 2982.000
290.299, 2974.000
291.660, 2994.000
293.021, 2983.000
294.382, 3005.000
295.742, 3015.000
297.102, 3029.000
298.462, 3060.000
299.822, 3064.963
301.182, 3090.000
302.541, 3087.000
303.900, 3096.000
305.259, 3105.000
306.618, 3140.000
307.976, 3146.000
309.334, 3221.000
310.692, 3235.000
312.050, 3274.000
313.408, 3238.000
314.765, 3339.000
316.123, 3355.000
317.479, 3446.000
318.836, 3504.000
320.193, 3518.000
321.549, 3610.000
322.905, 3675.000
324.261, 3741.000
325.617, 3841.000
326.972, 4039.000
328.328, 4127.000
329.683, 4342.000
331.037, 4563.000
332.392, 4776.000
333.747, 5108.000
335.101, 5286.000
336.455, 5649.000
337.808, 5944.000
339.162, 6362.000
340.515, 6604.000
341.868, 6963.000
343.221, 7362.000
344.574, 7826.000
345.927, 8312.000
347.279, 8982.000
348.631, 9781.000
349.983, 10880.000
351.334, 11930.000
352.686, 13220.000
354.037, 14350.000
355.388, 15210.000
356.739, 15500.000
358.089, 15270.000
359.440, 14500.000
360.790, 13540.000
362.140, 12350.000
363.489, 11290.000
364.839, 10130.000
366.188, 9454.000
367.537, 8896.000
368.886, 8446.000
370.235, 8250.000
371.583, 7896.000
372.932, 7597.000
374.280, 7401.000
375.627, 7245.000
376.975, 6954.000
378.322, 6774.000
379.669, 6417.000
381.016, 6078.000
382.363, 5761.000
383.710, 5477.000
385.056, 5127.000
386.402, 4869.000
387.748, 4556.000
389.094, 4335.000
390.439, 4042.000
391.784, 3832.000
393.129, 3655.000
394.474, 3513.000
395.819, 3348.000
397.163, 3212.000
398.508, 3104.000
399.852, 2997.000
401.195, 2932.000
402.539, 2844.000
403.882, 2758.000
405.225, 2747.000
406.568, 2671.000
407.911, 2676.000
409.254, 2595.000
410.596, 2583.000
411.938, 2550.000
413.280, 2489.000
414.621, 2451.000
415.963, 2423.000
417.304, 2384.194
418.645, 2369.697
419.986, 2329.000
421.327, 2335.000
422.667, 2310.000
424.007, 2275.000
425.347, 2246.000
426.687, 2284.000
428.027, 2240.000
429.366, 2263.000
430.705, 2251.000
432.044, 2224.000
433.383, 2229.000
434.721, 2175.000
436.059, 2182.000
437.398, 2203.000
438.735, 2228.000
440.073, 2169.000
441.411, 2214.000
442.748, 2181.000
444.085, 2180.000
445.422, 2177.000
446.758, 2176.000
448.095, 2143.000
449.431, 2148.000
450.767, 2153.000
452.103, 2174.000
453.438, 2161.000
454.774, 2135.000
456.109, 2126.000
457.444, 2137.000
458.778, 2143.000
460.113, 2154.000
461.447, 2187.000
462.781, 2196.096
464.115, 2164.000
465.449, 2206.000
466.782, 2210.000
468.116, 2155.000
469.449, 2194.000
470.782, 2190.000
472.114, 2177.000
473.447, 2172.000
474.779, 2191.000
476.111, 2185.000
477.443, 2157.000
478.774, 2202.000
480.106, 2238.000
481.437, 2197.000
482.768, 2236.000
484.099, 2216.000
485.429, 2258.000
486.760, 2235.000
488.090, 2224.000
489.420, 2222.000
490.749, 2224.185
492.079, 2223.000
493.408, 2245.000
494.737, 2267.000
496.066, 2275.000
497.395, 2276.000
498.723, 2348.000
500.052, 2319.000
501.380, 2371.000
502.708, 2446.000
504.035, 2434.000
505.363, 2518.000
506.690, 2554.000
508.017, 2518.000
509.344, 2523.000
510.670, 2539.000
511.997, 2484.000
513.323, 2446.000
514.649, 2445.000
515.975, 2488.000
517.300, 2468.000
518.626, 2519.000
519.951, 2533.000
521.276, 2595.000
522.600, 2618.000
523.925, 2679.000
525.249, 2721.000
526.573, 2688.000
527.897, 2756.000
529.221, 2716.000
530.545, 2792.000
531.868, 2774.000
533.191, 2793.000
534.514, 2747.000
535.837, 2809.000
537.159, 2861.000
538.481, 2893.000
539.803, 2906.000
541.125, 3038.000
542.447, 3048.000
543.768, 3242.000
545.090, 3355.000
546.411, 3548.000
547.731, 3722.000
549.052, 3968.000
550.372, 4168.000
551.693, 4615.000
553.013, 5043.000
554.332, 5740.000
555.652, 6394.000
556.971, 7201.000
558.291, 7885.000
559.609, 8192.000
560.928, 8167.000
562.247, 7674.000
563.565, 6915.000
564.883, 6016.000
566.201, 5287.000
567.519, 4580.000
568.837, 4060.000
570.154, 3670.000
571.471, 3340.000
572.788, 3107.000
574.105, 2964.000
575.421, 2770.000
576.737, 2658.000
578.053, 2573.000
579.369, 2523.000
580.685, 2507.000
582.001, 2445.000
583.316, 2437.000
584.631, 2419.000
585.946, 2366.000
587.260, 2363.000
588.575, 2341.000
589.889, 2313.000
591.203, 2301.000
592.517, 2259.000
593.831, 2262.539
595.144, 2318.000
596.457, 2269.000
597.770, 2302.000
599.083, 2323.000
600.396, 2312.000
601.708, 2289.000
603.020, 2358.000
604.332, 2363.000
605.644, 2377.000
606.956, 2433.000
608.267, 2402.000
609.578, 2444.000
610.889, 2418.000
612.200, 2375.000
613.511, 2309.000
614.821, 2247.000
616.131, 2188.000
617.441, 2180.000
618.751, 2170.000
620.061, 2095.000
621.370, 2149.000
622.679, 2075.000
623.988, 2095.000
625.297, 2079.000
626.605, 2122.000
627.914, 2102.000
629.222, 2107.000
630.530, 2113.000
631.837, 2139.000
633.145, 2154.000
634.452, 2190.000
635.759, 2245.000
637.066, 2246.000
638.373, 2300.000
639.680, 2270.000
640.986, 2285.000
642.292, 2300.000
643.598, 2224.000
644.904, 2246.000
646.209, 2232.000
647.514, 2176.000
648.819, 2217.000
650.124, 2189.000
651.429, 2144.000
652.734, 2112.000
654.038, 2108.000
655.342, 2155.000
656.646, 2106.000
657.950, 2105.000
659.253, 2090.000
660.556, 2020.000
661.859, 2043.000
663.162, 2015.000
664.465, 2018.000
665.767, 2015.000
667.070, 1998.880
668.372, 1947.000
669.674, 1970.000
670.975, 1967.000
672.277, 1936.000
673.578, 1962.000
674.879, 1959.000
676.180, 1903.000
677.480, 1913.000
678.781, 1893.000
680.081, 1931.000
681.381, 1899.000
682.681, 1879.000
683.981, 1900.000
685.280, 1906.000
686.579, 1901.000
687.878, 1910.000
689.177, 1903.397
690.476, 1887.000
691.774, 1892.000
693.073, 1880.000
694.371, 1872.000
695.669, 1861.000
696.966, 1851.000
698.264, 1879.000
699.561, 1861.000
700.858, 1875.000
702.155, 1852.000
703.451, 1857.000
704.748, 1872.000
706.044, 1868.000
707.340, 1869.000
708.636, 1863.000
709.932, 1867.742
711.227, 1869.821
712.522, 1876.000
713.817, 1887.000
715.112, 1891.000
716.407, 1916.000
717.701, 1907.000
718.995, 1884.000
720.289, 1905.000
721.583, 1871.000
722.877, 1961.000
724.170, 1916.000
725.464, 1897.000
726.757, 1926.000
728.049, 1896.000
729.342, 1950.000
730.634, 1944.000
731.927, 1947.000
733.219, 1934.000
734.511, 1909.000
735.802, 1948.000
737.094, 1978.000
738.385, 1929.000
739.676, 1934.000
740.967, 1949.000
742.257, 1962.000
743.548, 1970.000
744.838, 1954.000
746.128, 1960.000
747.418, 1942.000
748.708, 1959.000
749.997, 1936.000
751.286, 1985.000
752.575, 1973.000
753.864, 1970.000
755.153, 1947.000
756.441, 1994.000
757.730, 1996.000
759.018, 1999.000
760.306, 1984.000
761.593, 2000.000
762.881, 2019.000
764.168, 2002.000
765.455, 2022.000
766.742, 2015.000
768.028, 2004.000
769.315, 1998.000
770.601, 2023.000
771.887, 2048.000
773.173, 1998.000
774.459, 2027.000
775.744, 1977.000
777.030, 1983.000
778.315, 2023.000
779.600, 1998.000
780.884, 1990.000
782.169, 2034.000
783.453, 2037.000
784.737, 2025.000
786.021, 2039.000
787.305, 2034.000
788.588, 2054.000
789.872, 2066.000
791.155, 2083.754
792.438, 2083.059
793.720, 2109.000
795.003, 2098.000
796.285, 2064.000
797.567, 2113.000
798.849, 2103.000
800.131, 2141.000
801.412, 2149.000
802.694, 2204.000
803.975, 2187.000
805.256, 2228.000
806.537, 2250.000
807.817, 2253.000
809.098, 2300.000
810.378, 2299.000
811.658, 2378.000
812.937, 2405.000
814.217, 2408.000
815.496, 2406.000
816.775, 2481.000
818.054, 2450.000
819.333, 2446.000
820.612, 2463.000
821.890, 2404.000
823.168, 2487.000
824.446, 2429.000
825.724, 2450.000
827.002, 2498.000
828.279, 2452.000
829.556, 2511.000
830.833, 2519.000
832.110, 2499.000
833.387, 2548.000
834.663, 2488.000
835.939, 2479.000
837.216, 2536.000
838.491, 2575.000
839.767, 2576.000
841.042, 2641.000
842.318, 2636.000
843.593, 2707.000
844.868, 2798.000
846.142, 2794.000
847.417, 2857.000
848.691, 2932.000
849.965, 3008.000
851.239, 3074.000
852.513, 3168.000
853.786, 3226.000
855.059, 3360.000
856.333, 3433.000
857.605, 3663.000
858.878, 3747.000
860.151, 3938.000
861.423, 4021.000
862.695, 4036.000
863.967, 4087.000
865.239, 4043.000
866.510, 4062.000
867.782, 4030.000
869.053, 3993.250
870.324, 3917.000
871.595, 3907.000
872.865, 3869.000
874.136, 3820.000
875.406, 3886.000
876.676, 3931.000
877.945, 3978.000
879.215, 3999.000
880.484, 4109.000
881.754, 4201.000
883.023, 4329.000
884.292, 4450.000
885.560, 4562.000
886.829, 4725.000
888.097, 4886.000
889.365, 5120.000
890.633, 5317.000
891.900, 5622.000
893.168, 5860.000
894.435, 6223.000
895.702, 6502.000
896.969, 6983.000
898.236, 7547.000
899.502, 7926.000
900.769, 8815.000
902.035, 9464.000
903.301, 10640.000
904.566, 11740.000
905.832, 13260.000
907.097, 15470.000
908.362, 17730.000
909.627, 20940.000
910.892, 24880.000
912.157, 28880.000
913.421, 34070.000
914.685, 39310.000
915.949, 44920.000
917.213, 49710.000
918.476, 50640.000
919.740, 51710.000
921.003, 48650.000
922.266, 44140.000
923.529, 38620.000
924.792, 32980.000
926.054, 27990.000
927.316, 24370.000
928.578, 19970.000
929.840, 17480.000
931.102, 15080.000
932.363, 13260.000
933.625, 11850.000
934.886, 10600.000
936.147, 9590.000
937.407, 8560.000
938.668, 7792.000
939.928, 7332.000
941.188, 6592.000
942.448, 6243.000
943.708, 5763.000
944.967, 5445.000
946.227, 5184.000
947.486, 4883.000
948.745, 4646.000
950.004, 4457.000
951.262, 4300.000
952.521, 4163.000
953.779, 4096.000
955.037, 3962.000
956.295, 3895.000
957.552, 3811.000
958.810, 3700.000
960.067, 3645.000
961.324, 3591.000
962.581, 3556.000
963.838, 3520.000
965.094, 3461.000
966.350, 3395.000
967.607, 3374.000
968.862, 3300.000
970.118, 3264.000
971.374, 3225.000
972.629, 3265.000
973.884, 3231.000
975.139, 3183.000
976.394, 3177.000
977.649, 3119.000
978.903, 3137.000
980.157, 3171.000
981.411, 3163.000
982.665, 3160.000
983.919, 3139.000
985.172, 3125.000
986.425, 3122.000
987.678, 3044.000
988.931, 3030.000
990.184, 2982.000
991.436, 2964.000
992.689, 2921.000
993.941, 2871.000
995.193, 2858.000
996.444, 2854.000
997.696, 2884.000
998.947, 2773.000
1000.198, 2813.000
1001.449, 2732.000
1002.700, 2776.000
1003.951, 2739.000
1005.201, 2786.000
1006.451, 2759.000
1007.701, 2801.000
1008.951, 2778.000
1010.201, 2780.000
1011.450, 2754.000
1012.699, 2826.000
1013.948, 2858.000
1015.197, 2896.000
1016.446, 2900.000
1017.694, 2990.000
1018.943, 3054.000
1020.191, 3433.000
1021.439, 3572.000
1022.686, 3546.000
1023.934, 3608.000
1025.181, 3535.000
1026.428, 3349.000
1027.675, 3339.000
1028.922, 3147.000
1030.169, 3139.000
1031.415, 3141.000
1032.661, 3161.000
1033.907, 3393.000
1035.153, 3480.000
1036.399, 3462.000
1037.644, 3175.000
1038.890, 3225.000
1040.135, 3201.000
1041.380, 3185.000
1042.624, 3231.000
1043.869, 3298.000
1045.113, 3343.000
1046.357, 3345.000
1047.601, 3357.432
1048.845, 3327.685
1050.089, 3305.000
1051.332, 3237.000
1052.575, 3158.000
1053.818, 3105.000
1055.061, 2995.000
1056.304, 2952.000
1057.546, 2900.000
1058.788, 2752.000
1060.030, 2731.000
1061.272, 2655.000
1062.514, 2636.000
1063.756, 2569.000
1064.997, 2498.000
1066.238, 2478.000
1067.479, 2460.000
1068.720, 2421.000
1069.960, 2423.000
1071.201, 2414.000
1072.441, 2389.970
1073.681, 2396.000
1074.921, 2357.000
1076.160, 2353.000
1077.400, 2343.000
1078.639, 2301.000
1079.878, 2322.000
1081.117, 2377.000
1082.356, 2302.000
1083.594, 2308.000
1084.832, 2323.000
1086.071, 2290.000
1087.308, 2278.000
1088.546, 2303.000
1089.784, 2240.000
1091.021, 2260.000
1092.258, 2266.000
1093.495, 2252.000
1094.732, 2253.705
1095.969, 2247.703
1097.205, 2228.000
1098.441, 2243.000
1099.678, 2224.000
1100.913, 2235.505
1102.149, 2219.000
1103.385, 2218.000
1104.620, 2196.000
1105.855, 2156.000
1107.090, 2222.000
1108.325, 2166.000
1109.559, 2204.000
1110.794, 2224.000
1112.028, 2150.000
1113.262, 2187.000
1114.496, 2131.000
1115.730, 2173.000
1116.963, 2186.000
1118.196, 2160.000
1119.429, 2150.000
1120.662, 2176.000
1121.895, 2142.000
1123.127, 2201.000
1124.360, 2112.000
1125.592, 2176.000
1126.824, 2178.000
1128.056, 2134.000
1129.287, 2145.000
1130.519, 2137.000
1131.750, 2128.000
1132.981, 2140.000
1134.212, 2130.000
1135.443, 2143.000
1136.673, 2133.972
1137.903, 2128.000
1139.133, 2134.000
1140.363, 2148.000
1141.593, 2137.156
1142.823, 2141.000
1144.052, 2130.000
1145.281, 2137.000
1146.510, 2145.000
1147.739, 2158.000
1148.968, 2174.000
1150.196, 2178.482
1151.424, 2161.000
1152.653, 2178.000
1153.880, 2193.000
1155.108, 2166.000
1156.336, 2114.000
1157.563, 2154.000
1158.790, 2208.000
1160.017, 2182.000
1161.244, 2229.000
1162.471, 2225.000
1163.697, 2234.000
1164.923, 2250.000
1166.149, 2156.000
1167.375, 2234.000
1168.601, 2299.000
1169.826, 2201.000
1171.052, 2294.000
1172.277, 2265.000
1173.502, 2275.000
1174.726, 2275.000
1175.951, 2266.000
1177.175, 2314.000
1178.400, 2357.000
1179.624, 2297.000
1180.847, 2334.000
1182.071, 2342.000
1183.295, 2313.000
1184.518, 2307.000
1185.741, 2316.000
1186.964, 2276.000
1188.187, 2336.000
1189.409, 2282.000
1190.631, 2314.000
1191.854, 2282.000
1193.076, 2257.000
1194.297, 2297.000
1195.519, 2307.000
1196.741, 2304.000
1197.962, 2321.000
1199.183, 2267.000
1200.404, 2293.000
1201.625, 2308.000
1202.845, 2262.000
1204.065, 2322.000
1205.286, 2286.000
1206.506, 2253.000
1207.725, 2281.000
1208.945, 2231.000
1210.164, 2266.000
1211.384, 2325.000
1212.603, 2263.000
1213.822, 2262.000
1215.040, 2253.000
1216.259, 2270.000
1217.477, 2271.000
1218.695, 2241.000
1219.913, 2268.000
1221.131, 2270.000
1222.349, 2226.000
1223.566, 2245.000
1224.783, 2248.000
1226.000, 2217.000
1227.217, 2244.000
1228.434, 2250.000
1229.650, 2230.000
1230.867, 2244.000
1232.083, 2218.000
1233.299, 2246.000
1234.515, 2227.000
1235.730, 2248.000
1236.946, 2246.000
1238.161, 2184.000
1239.376, 2222.000
1240.591, 2219.000
1241.806, 2186.000
1243.020, 2236.000
1244.234, 2191.000
1245.449, 2221.000
1246.662, 2230.000
1247.876, 2248.000
1249.090, 2273.000
1250.303, 2271.000
1251.516, 2227.000
1252.730, 2247.000
1253.942, 2262.000
1255.155, 2196.000
1256.368, 2283.000
1257.580, 2249.000
1258.792, 2292.000
1260.004, 2306.000
1261.216, 2242.000
1262.427, 2337.000
1263.639, 2291.000
1264.850, 2193.000
1266.061, 2359.000
1267.272, 2305.000
1268.483, 2308.000
1269.693, 2310.000
1270.904, 2281.000
1272.114, 2316.000
1273.324, 2280.000
1274.533, 2274.000
1275.743, 2349.000
1276.952, 2279.000
1278.162, 2381.000
1279.371, 2341.000
1280.580, 2284.000
1281.788, 2312.000
1282.997, 2319.000
1284.205, 2324.000
1285.413, 2296.000
1286.621, 2301.000
1287.829, 2283.000
1289.037, 2292.000
1290.244, 2302.000
1291.452, 2280.000
1292.659, 2320.000
1293.866, 2264.000
1295.072, 2316.000
1296.279, 2249.000
1297.485, 2296.000
1298.691, 2263.000
1299.897, 2260.000
1301.103, 2268.000
1302.309, 2279.000
1303.514, 2277.000
1304.720, 2267.000
1305.925, 2267.000
1307.130, 2221.000
1308.334, 2292.000
1309.539, 2211.000
1310.743, 2242.000
1311.947, 2266.000
1313.151, 2222.000
1314.355, 2215.000
1315.559, 2242.000
1316.762, 2177.000
1317.966, 2278.000
1319.169, 2195.000
1320.372, 2201.000
1321.575, 2268.000
1322.777, 2195.000
1323.980, 2214.000
1325.182, 2229.000
1326.384, 2196.000
1327.586, 2257.000
1328.787, 2226.000
1329.989, 2167.000
1331.190, 2182.000
1332.391, 2212.000
1333.592, 2182.000
1334.793, 2200.000
1335.994, 2186.000
1337.194, 2208.000
1338.394, 2218.000
1339.595, 2145.000
1340.794, 2251.000
1341.994, 2183.000
1343.194, 2184.000
1344.393, 2195.000
1345.592, 2203.000
1346.791, 2200.000
1347.990, 2219.000
1349.189, 2171.000
1350.387, 2215.000
1351.585, 2190.000
1352.784, 2168.000
1353.982, 2238.000
1355.179, 2201.000
1356.377, 2191.000
1357.574, 2201.000
1358.772, 2164.000
1359.969, 2221.000
1361.165, 2227.000
1362.362, 2174.000
1363.559, 2245.000
1364.755, 2222.000
1365.951, 2237.000
1367.147, 2217.000
1368.343, 2180.000
1369.539, 2221.000
1370.734, 2202.762
1371.929, 2229.000
1373.124, 2224.000
1374.319, 2235.000
1375.514, 2260.000
1376.709, 2264.000
1377.903, 2269.960
1379.097, 2214.000
1380.291, 2260.000
1381.485, 2263.000
1382.679, 2235.000
1383.872, 2290.000
1385.065, 2241.000
1386.259, 2260.000
1387.452, 2282.000
1388.644, 2237.000
1389.837, 2263.000
1391.029, 2277.000
1392.222, 2262.000
1393.414, 2304.000
1394.606, 2259.000
1395.797, 2250.000
1396.989, 2275.000
1398.180, 2263.000
1399.371, 2299.000
1400.562, 2281.000
1401.753, 2230.000
1402.944, 2281.000
1404.134, 2286.000
1405.325, 2259.000
1406.515, 2322.000
1407.705, 2270.000
1408.895, 2326.000
1410.084, 2296.000
1411.274, 2288.000
1412.463, 2261.000
1413.652, 2299.000
1414.841, 2261.000
1416.030, 2298.000
1417.218, 2289.000
1418.407, 2288.000
1419.595, 2310.000
1420.783, 2300.000
1421.971, 2316.000
1423.158, 2361.000
1424.346, 2326.000
1425.533, 2357.000
1426.720, 2310.000
1427.907, 2311.000
1429.094, 2347.000
1430.281, 2372.000
1431.467, 2342.000
1432.653, 2402.000
1433.839, 2363.000
1435.025, 2372.000
1436.211, 2370.000
1437.396, 2340.000
1438.582, 2421.000
1439.767, 2346.000
1440.952, 2354.000
1442.137, 2415.000
1443.322, 2387.000
1444.506, 2404.000
1445.690, 2395.000
1446.875, 2396.000
1448.059, 2441.000
1449.242, 2454.000
1450.426, 2390.000
1451.609, 2401.000
1452.793, 2493.000
1453.976, 2382.000
1455.159, 2492.000
1456.342, 2465.000
1457.524, 2432.000
1458.706, 2498.000
1459.889, 2428.000
1461.071, 2458.000
1462.253, 2490.000
1463.434, 2429.000
1464.616, 2494.000
1465.797, 2464.000
1466.978, 2461.000
1468.159, 2554.000
1469.340, 2445.000
1470.521, 2450.000
1471.701, 2530.000
1472.882, 2503.000
1474.062, 2493.000
1475.242, 2492.000
1476.422, 2494.000
1477.601, 2494.012
1478.781, 2521.000
1479.960, 2510.000
1481.139, 2502.000
1482.318, 2525.000
1483.497, 2513.000
1484.675, 2567.000
1485.854, 2492.000
1487.032, 2505.000
1488.210, 2610.000
1489.388, 2497.000
1490.565, 2511.000
1491.743, 2574.000
1492.920, 2513.000
1494.097, 2598.000
1495.274, 2547.000
1496.451, 2533.000
1497.628, 2599.000
1498.804, 2557.000
1499.981, 2545.000
1501.157, 2597.000
1502.333, 2519.000
1503.509, 2548.000
1504.684, 2626.000
1505.860, 2540.000
1507.035, 2574.000
1508.210, 2562.000
1509.385, 2522.000
1510.560, 2597.000
1511.734, 2571.000
1512.909, 2533.000
1514.083, 2615.000
1515.257, 2540.000
1516.431, 2589.000
1517.604, 2593.000
1518.778, 2558.000
1519.951, 2596.000
1521.125, 2605.000
1522.298, 2540.000
1523.470, 2612.000
1524.643, 2636.000
##END=



