##NAMES=Almandine
##RRUFFID=R040076
##IDEAL CHEMISTRY=Fe^2+^_3_Al_2_(SiO_4_)_3_
##LOCALITY=Barton Garnet mine, Gore Mountain, Warren County, New York, USA
##OWNER=RRUFF
##SOURCE=University of Arizona Mineral Museum
##DESCRIPTION=Red coarsely crystalline
##STATUS=The identification of this mineral has been confirmed by X-ray diffraction and chemical analysis
##URL=rruff.info/R040076
##MEASURED CHEMISTRY=(Fe^2+^_1.38_Mg_1.26_Ca_0.33_Mn_0.03_)_Î£=3_Al_2.00_(Si_1.00_O_4_)_3_; trace amounts of Ti
##PIN_ID=M00102
##ORIENTATION=Laser parallel to -a* (-1 0 0). Fiducial mark perpendicular to laser is parallel to b [0 1 0]
96.079, 4338.000
97.477, 4422.000
98.874, 4417.000
100.271, 4433.000
101.667, 4557.000
103.064, 4413.000
104.460, 4566.000
105.856, 4474.000
107.252, 4502.000
108.647, 4570.000
110.042, 4451.000
111.437, 4608.000
112.832, 4502.000
114.226, 4627.000
115.620, 4529.000
117.014, 4526.000
118.408, 4507.000
119.801, 4563.000
121.195, 4562.000
122.588, 4549.000
123.980, 4620.000
125.373, 4474.000
126.765, 4544.000
128.157, 4499.000
129.549, 4398.000
130.940, 4490.000
132.331, 4356.000
133.722, 4455.000
135.113, 4387.000
136.503, 4501.000
137.894, 4411.000
139.284, 4465.000
140.673, 4480.000
142.063, 4375.000
143.452, 4489.000
144.841, 4435.000
146.230, 4466.000
147.618, 4429.000
149.007, 4462.000
150.395, 4494.000
151.782, 4412.000
153.170, 4552.000
154.557, 4424.000
155.944, 4515.000
157.331, 4500.000
158.718, 4417.000
160.104, 4554.000
161.490, 4378.000
162.876, 4431.000
164.261, 4310.000
165.647, 4413.000
167.032, 4373.000
168.417, 4333.000
169.801, 4406.000
171.186, 4288.000
172.570, 4382.000
173.953, 4243.000
175.337, 4391.000
176.720, 4339.000
178.104, 4368.000
179.486, 4471.000
180.869, 4445.000
182.251, 4685.000
183.634, 4522.000
185.015, 4616.000
186.397, 4609.000
187.779, 4443.000
189.160, 4578.000
190.541, 4360.000
191.921, 4452.000
193.302, 4352.000
194.682, 4377.000
196.062, 4358.000
197.442, 4352.000
198.821, 4431.000
200.200, 4302.000
201.579, 4497.000
202.958, 4410.000
204.336, 4529.000
205.715, 4517.000
207.093, 4471.000
208.470, 4624.000
209.848, 4541.000
211.225, 4618.000
212.602, 4611.000
213.979, 4611.000
215.356, 4689.000
216.732, 4632.000
218.108, 4786.000
219.484, 4605.000
220.859, 4726.000
222.235, 4658.000
223.610, 4542.000
224.985, 4667.000
226.359, 4528.000
227.734, 4744.000
229.108, 4553.000
230.482, 4698.000
231.855, 4602.000
233.229, 4463.000
234.602, 4650.000
235.975, 4527.000
237.347, 4710.000
238.720, 4505.000
240.092, 4636.000
241.464, 4706.000
242.836, 4566.000
244.207, 4702.000
245.578, 4566.000
246.949, 4687.000
248.320, 4550.000
249.691, 4609.000
251.061, 4687.000
252.431, 4592.000
253.801, 4741.000
255.170, 4558.000
256.539, 4682.000
257.908, 4653.000
259.277, 4592.000
260.646, 4632.000
262.014, 4427.000
263.382, 4558.000
264.750, 4444.000
266.118, 4469.000
267.485, 4437.000
268.852, 4400.000
270.219, 4548.000
271.586, 4431.000
272.952, 4539.000
274.318, 4492.000
275.684, 4601.000
277.050, 4716.000
278.415, 4656.000
279.781, 4778.000
281.146, 4658.000
282.510, 4774.000
283.875, 4780.000
285.239, 4705.000
286.603, 4776.000
287.967, 4642.000
289.330, 4834.000
290.694, 4748.000
292.057, 4778.000
293.419, 4822.000
294.782, 4777.000
296.144, 4912.000
297.506, 4805.000
298.868, 4938.000
300.230, 4832.000
301.591, 4785.000
302.952, 4915.000
304.313, 4800.000
305.674, 4988.000
307.034, 4882.000
308.395, 4916.000
309.755, 4920.000
311.114, 4892.000
312.474, 5018.000
313.833, 4970.000
315.192, 5121.000
316.551, 5048.000
317.909, 5169.000
319.267, 5212.000
320.625, 5213.000
321.983, 5376.000
323.341, 5387.000
324.698, 5376.000
326.055, 5329.000
327.412, 5390.000
328.769, 5460.000
330.125, 5416.000
331.481, 5608.000
332.837, 5558.000
334.193, 5804.000
335.548, 5860.000
336.903, 6007.000
338.258, 6318.000
339.613, 6338.000
340.968, 6662.000
342.322, 6689.000
343.676, 6934.000
345.030, 7376.000
346.383, 7355.000
347.736, 8000.000
349.089, 8011.000
350.442, 8616.000
351.795, 9166.000
353.147, 9579.000
354.499, 10620.000
355.851, 11160.000
357.203, 12220.000
358.554, 12870.000
359.905, 13500.000
361.256, 13760.000
362.607, 13410.000
363.957, 13200.000
365.308, 12250.000
366.658, 11650.000
368.007, 10690.000
369.357, 9857.000
370.706, 9504.000
372.055, 8903.000
373.404, 8732.000
374.753, 8275.000
376.101, 8117.000
377.449, 8000.000
378.797, 7713.000
380.145, 7709.000
381.492, 7356.000
382.839, 7308.000
384.186, 7003.000
385.533, 6828.000
386.879, 6825.000
388.225, 6422.000
389.571, 6489.000
390.917, 6213.000
392.263, 6004.000
393.608, 5920.000
394.953, 5722.000
396.298, 5797.000
397.642, 5470.000
398.987, 5510.000
400.331, 5527.000
401.675, 5213.000
403.018, 5374.000
404.362, 5149.000
405.705, 5282.000
407.048, 5168.000
408.390, 5077.000
409.733, 5158.000
411.075, 4929.000
412.417, 5136.000
413.759, 5029.000
415.100, 5049.000
416.442, 4992.000
417.783, 4970.000
419.124, 5047.000
420.464, 4905.000
421.804, 4987.000
423.145, 4929.000
424.485, 4964.000
425.824, 5046.000
427.164, 4816.000
428.503, 4993.000
429.842, 4924.000
431.180, 4886.000
432.519, 5047.000
433.857, 4800.000
435.195, 5024.000
436.533, 4888.000
437.871, 4943.000
439.208, 4983.000
440.545, 4891.000
441.882, 5046.000
443.219, 4848.000
444.555, 5020.000
445.891, 4915.000
447.227, 4976.000
448.563, 5095.000
449.898, 4908.000
451.233, 5100.000
452.568, 4951.000
453.903, 5001.000
455.238, 5068.000
456.572, 4881.000
457.906, 5141.000
459.240, 4967.000
460.574, 5127.000
461.907, 5128.000
463.240, 4971.000
464.573, 5171.000
465.906, 5015.000
467.238, 5211.000
468.570, 5148.000
469.902, 5111.000
471.234, 5262.000
472.566, 4992.000
473.897, 5295.000
475.228, 5134.000
476.559, 5221.000
477.889, 5290.000
479.220, 5120.000
480.550, 5462.000
481.880, 5160.000
483.210, 5422.000
484.539, 5418.000
485.868, 5350.000
487.197, 5555.000
488.526, 5406.000
489.854, 5547.000
491.183, 5578.000
492.511, 5443.000
493.839, 5626.000
495.166, 5330.000
496.494, 5563.000
497.821, 5463.000
499.148, 5470.000
500.474, 5556.000
501.801, 5455.000
503.127, 5737.000
504.453, 5663.000
505.779, 5827.000
507.104, 6071.000
508.430, 6126.000
509.755, 6376.000
511.080, 6245.000
512.404, 6438.000
513.729, 6204.000
515.053, 6004.000
516.377, 6091.000
517.700, 5670.000
519.024, 5922.000
520.347, 5816.000
521.670, 5757.000
522.993, 5856.000
524.315, 5659.000
525.638, 5812.000
526.960, 5737.000
528.282, 5791.000
529.603, 5854.000
530.925, 5752.000
532.246, 5980.000
533.567, 5756.000
534.888, 5967.000
536.208, 5890.000
537.528, 5795.000
538.848, 6053.000
540.168, 5856.000
541.488, 5999.000
542.807, 6043.000
544.126, 6014.000
545.445, 6240.000
546.764, 6112.000
548.082, 6417.000
549.400, 6469.000
550.718, 6418.000
552.036, 6838.000
553.354, 6745.000
554.671, 7204.000
555.988, 7452.000
557.305, 7707.000
558.622, 8366.000
559.938, 8751.000
561.254, 9404.000
562.570, 9720.000
563.886, 10080.000
565.201, 10030.000
566.516, 9424.000
567.831, 9143.000
569.146, 8477.000
570.461, 7966.000
571.775, 7570.000
573.089, 6938.000
574.403, 6918.000
575.717, 6446.000
577.030, 6385.000
578.344, 6351.000
579.656, 6125.000
580.969, 6224.000
582.282, 5989.000
583.594, 6037.000
584.906, 6034.000
586.218, 5851.000
587.530, 6136.000
588.841, 5906.000
590.152, 6082.000
591.463, 6042.000
592.774, 5977.000
594.084, 6216.000
595.395, 5958.000
596.705, 6062.000
598.014, 5915.000
599.324, 5881.000
600.633, 6114.000
601.943, 5870.000
603.251, 6055.000
604.560, 5992.000
605.869, 5912.000
607.177, 6186.000
608.485, 5867.000
609.793, 6087.000
611.100, 5938.000
612.408, 6027.000
613.715, 6106.000
615.022, 5977.000
616.328, 6150.000
617.635, 5984.000
618.941, 6046.000
620.247, 6220.000
621.553, 5825.000
622.858, 6146.000
624.163, 5958.000
625.468, 6133.000
626.773, 6111.000
628.078, 5991.000
629.382, 6316.000
630.687, 6138.000
631.991, 6267.000
633.294, 6326.000
634.598, 6129.000
635.901, 6400.000
637.204, 6235.000
638.507, 6378.000
639.810, 6511.000
641.112, 6398.000
642.414, 6684.000
643.716, 6483.000
645.018, 6580.000
646.319, 6682.000
647.621, 6429.000
648.922, 6739.000
650.222, 6381.000
651.523, 6528.000
652.823, 6528.000
654.124, 6288.000
655.424, 6539.000
656.723, 6283.000
658.023, 6429.000
659.322, 6302.000
660.621, 6203.000
661.920, 6455.000
663.218, 6131.000
664.517, 6329.000
665.815, 6780.000
667.113, 6160.000
668.411, 6299.000
669.708, 6056.000
671.005, 6237.000
672.302, 6129.000
673.599, 6111.000
674.896, 6331.000
676.192, 6032.000
677.488, 6275.000
678.784, 6243.000
680.080, 6051.000
681.375, 6285.000
682.671, 6098.000
683.966, 6286.000
685.260, 6134.000
686.555, 6169.000
687.849, 6408.000
689.143, 6095.000
690.437, 6317.000
691.731, 6250.000
693.025, 6165.000
694.318, 6405.000
695.611, 6090.000
696.904, 6303.000
698.196, 6339.000
699.489, 6118.000
700.781, 6342.000
702.073, 6182.000
703.364, 6385.000
704.656, 6327.000
705.947, 6139.000
707.238, 6471.000
708.529, 6209.000
709.820, 6444.000
711.110, 6363.000
712.400, 6361.000
713.690, 6467.000
714.980, 6220.000
716.269, 6499.000
717.558, 6368.000
718.848, 6332.000
720.136, 6534.000
721.425, 6292.000
722.713, 6444.000
724.002, 6490.000
725.289, 6442.000
726.577, 6678.000
727.865, 6491.000
729.152, 6604.000
730.439, 6486.000
731.726, 6428.000
733.013, 6650.000
734.299, 6507.000
735.585, 6576.000
736.871, 6645.000
738.157, 6481.000
739.442, 6759.000
740.728, 6533.000
742.013, 6657.000
743.298, 6726.000
744.582, 6512.000
745.867, 6902.000
747.151, 6578.000
748.435, 6747.000
749.719, 6697.000
751.002, 6529.000
752.286, 6889.000
753.569, 6670.000
754.852, 6681.000
756.134, 6877.000
757.417, 6649.000
758.699, 6920.000
759.981, 6720.000
761.263, 6804.000
762.544, 6934.000
763.826, 6704.000
765.107, 6969.000
766.388, 6767.000
767.668, 6909.000
768.949, 6982.000
770.229, 6696.000
771.509, 7052.000
772.789, 6794.000
774.069, 6948.000
775.348, 7142.000
776.627, 6793.000
777.906, 7054.000
779.185, 6939.000
780.463, 6937.000
781.742, 7185.000
783.020, 6822.000
784.298, 7125.000
785.575, 7016.000
786.853, 6848.000
788.130, 7176.000
789.407, 6849.000
790.684, 7081.000
791.960, 7092.000
793.237, 6968.000
794.513, 7280.000
795.789, 6963.000
797.064, 7258.000
798.340, 7199.000
799.615, 7104.000
800.890, 7420.000
802.165, 7025.000
803.439, 7342.000
804.714, 7333.000
805.988, 7157.000
807.262, 7513.000
808.536, 7272.000
809.809, 7431.000
811.083, 7479.000
812.356, 7283.000
813.628, 7724.000
814.901, 7419.000
816.174, 7492.000
817.446, 7780.000
818.718, 7405.000
819.990, 7717.000
821.261, 7534.000
822.532, 7565.000
823.804, 7744.000
825.074, 7377.000
826.345, 7733.000
827.616, 7709.000
828.886, 7616.000
830.156, 7857.000
831.426, 7529.000
832.695, 7899.000
833.965, 7681.000
835.234, 7664.000
836.503, 7940.000
837.772, 7694.000
839.040, 7830.000
840.309, 7941.000
841.577, 7751.000
842.845, 8157.000
844.112, 7883.000
845.380, 8149.000
846.647, 8133.000
847.914, 8068.000
849.181, 8452.000
850.447, 8266.000
851.714, 8424.000
852.980, 8662.000
854.246, 8569.000
855.512, 8884.000
856.777, 8925.000
858.043, 9202.000
859.308, 9483.000
860.573, 9355.000
861.837, 9993.000
863.102, 9997.000
864.366, 9924.000
865.630, 10200.000
866.894, 9902.000
868.157, 10130.000
869.421, 9848.000
870.684, 9704.000
871.947, 10040.000
873.210, 9390.000
874.472, 9525.000
875.734, 9596.000
876.997, 9217.000
878.258, 9513.000
879.520, 9410.000
880.782, 9458.000
882.043, 9590.000
883.304, 9332.000
884.565, 9797.000
885.825, 9584.000
887.086, 9755.000
888.346, 10110.000
889.606, 9821.000
890.865, 10330.000
892.125, 10430.000
893.384, 10370.000
894.643, 10970.000
895.902, 10910.000
897.161, 11510.000
898.419, 11650.000
899.678, 11870.000
900.936, 12620.000
902.194, 12530.000
903.451, 13240.000
904.709, 14070.000
905.966, 14410.000
907.223, 15870.000
908.479, 16460.000
909.736, 18280.000
910.992, 20220.000
912.248, 22240.000
913.504, 25760.000
914.760, 28010.000
916.016, 32350.000
917.271, 36710.000
918.526, 39250.000
919.781, 42720.000
921.035, 44230.000
922.290, 43030.000
923.544, 42300.000
924.798, 37400.000
926.052, 34070.000
927.305, 29870.000
928.559, 26460.000
929.812, 23900.000
931.065, 21130.000
932.317, 19100.000
933.570, 17720.000
934.822, 15930.000
936.074, 15140.000
937.326, 14400.000
938.578, 13410.000
939.829, 13290.000
941.081, 12160.000
942.332, 11980.000
943.582, 11730.000
944.833, 11040.000
946.083, 11270.000
947.334, 10570.000
948.584, 10540.000
949.833, 10530.000
951.083, 10020.000
952.332, 10290.000
953.581, 9938.000
954.830, 9797.000
956.079, 9980.000
957.328, 9619.000
958.576, 9829.000
959.824, 9708.000
961.072, 9448.000
962.319, 9865.000
963.567, 9328.000
964.814, 9512.000
966.061, 9620.000
967.308, 9263.000
968.555, 9551.000
969.801, 9336.000
971.047, 9363.000
972.293, 9469.000
973.539, 9166.000
974.784, 9473.000
976.030, 9340.000
977.275, 9312.000
978.520, 9439.000
979.765, 9057.000
981.009, 9406.000
982.253, 9240.000
983.497, 9135.000
984.741, 9420.000
985.985, 9120.000
987.228, 9405.000
988.472, 9465.000
989.715, 9170.000
990.958, 9542.000
992.200, 9248.000
993.443, 9168.000
994.685, 9457.000
995.927, 9100.000
997.169, 9308.000
998.410, 9339.000
999.651, 9086.000
1000.893, 9366.000
1002.134, 9256.000
1003.374, 9286.000
1004.615, 9595.000
1005.855, 9237.000
1007.095, 9643.000
1008.335, 9408.000
1009.575, 9247.000
1010.814, 9544.000
1012.054, 9099.000
1013.293, 9398.000
1014.532, 9498.000
1015.770, 9143.000
1017.009, 9664.000
1018.247, 9196.000
1019.485, 9458.000
1020.723, 9777.000
1021.960, 9379.000
1023.198, 9769.000
1024.435, 9745.000
1025.672, 9480.000
1026.909, 10070.000
1028.145, 9511.000
1029.382, 9913.000
1030.618, 9938.000
1031.854, 9618.000
1033.089, 10040.000
1034.325, 9745.000
1035.560, 9881.000
1036.795, 10110.000
1038.030, 9714.000
1039.265, 10300.000
1040.499, 10190.000
1041.734, 9955.000
1042.968, 10530.000
1044.202, 10060.000
1045.435, 10420.000
1046.669, 10630.000
1047.902, 10190.000
1049.135, 10730.000
1050.368, 10450.000
1051.601, 10240.000
1052.833, 10680.000
1054.065, 10030.000
1055.297, 10340.000
1056.529, 10270.000
1057.761, 9822.000
1058.992, 10170.000
1060.223, 9538.000
1061.454, 9783.000
1062.685, 9922.000
1063.915, 9510.000
1065.146, 9857.000
1066.376, 9615.000
1067.606, 9429.000
1068.836, 9889.000
1070.065, 9391.000
1071.294, 9592.000
1072.524, 9721.000
1073.753, 9278.000
1074.981, 9718.000
1076.210, 9377.000
1077.438, 9359.000
1078.666, 9750.000
1079.894, 9309.000
1081.122, 9678.000
1082.349, 9564.000
1083.576, 9331.000
1084.803, 9774.000
1086.030, 9380.000
1087.257, 9645.000
1088.483, 9739.000
1089.710, 9213.000
1090.936, 9775.000
1092.161, 9469.000
1093.387, 9320.000
1094.613, 9776.000
1095.838, 9315.000
1097.063, 9408.000
1098.288, 9746.000
1099.512, 9297.000
1100.737, 9665.000
1101.961, 9477.000
1103.185, 9444.000
1104.408, 9829.000
1105.632, 9360.000
1106.855, 9700.000
1108.079, 9816.000
1109.302, 9345.000
1110.524, 9777.000
1111.747, 9416.000
1112.969, 9572.000
1114.191, 9756.000
1115.413, 9444.000
1116.635, 9707.000
1117.856, 9655.000
1119.078, 9447.000
1120.299, 9834.000
1121.520, 9411.000
1122.741, 9683.000
1123.961, 9818.000
1125.181, 9408.000
1126.401, 9897.000
1127.621, 9603.000
1128.841, 9472.000
1130.061, 9779.000
1131.280, 9503.000
1132.499, 9819.000
1133.718, 9771.000
1134.936, 9431.000
1136.155, 9930.000
1137.373, 9681.000
1138.591, 9578.000
1139.809, 9964.000
1141.027, 9464.000
1142.244, 9820.000
1143.461, 9965.000
1144.678, 9494.000
1145.895, 9898.000
1147.112, 9653.000
1148.328, 9594.000
1149.545, 10080.000
1150.761, 9601.000
1151.976, 9936.000
1153.192, 10010.000
1154.407, 9494.000
1155.623, 10170.000
1156.838, 9714.000
1158.053, 9852.000
1159.267, 10170.000
1160.482, 9711.000
1161.696, 10000.000
1162.910, 10000.000
1164.124, 9711.000
1165.337, 10080.000
1166.551, 9758.000
1167.764, 9884.000
1168.977, 10190.000
1170.190, 9760.000
1171.402, 10160.000
1172.614, 10010.000
1173.827, 9921.000
1175.039, 10410.000
1176.250, 9911.000
1177.462, 10060.000
1178.673, 10350.000
1179.885, 9842.000
1181.096, 10350.000
1182.306, 10240.000
1183.517, 9921.000
1184.727, 10350.000
1185.937, 9969.000
1187.147, 10160.000
1188.357, 10480.000
1189.567, 9838.000
1190.776, 10140.000
1191.985, 10100.000
1193.194, 9928.000
1194.403, 10460.000
1195.611, 10030.000
1196.820, 10190.000
1198.028, 10420.000
1199.236, 10060.000
1200.444, 10530.000
1201.651, 10330.000
1202.859, 10060.000
1204.066, 10530.000
1205.273, 10150.000
1206.479, 10180.000
1207.686, 10540.000
1208.892, 9996.000
1210.098, 10580.000
1211.304, 10380.000
1212.510, 10050.000
1213.716, 10630.000
1214.921, 10200.000
1216.126, 10380.000
1217.331, 10730.000
1218.536, 10070.000
1219.740, 10600.000
1220.945, 10400.000
1222.149, 10210.000
1223.353, 10800.000
1224.556, 10400.000
1225.760, 10350.000
1226.963, 10810.000
1228.167, 10050.000
1229.369, 10770.000
1230.572, 10630.000
1231.775, 10290.000
1232.977, 10800.000
1234.179, 10410.000
1235.381, 10520.000
1236.583, 10960.000
1237.784, 10340.000
1238.986, 10700.000
1240.187, 10800.000
1241.388, 10340.000
1242.589, 10970.000
1243.789, 10470.000
1244.990, 10600.000
1246.190, 10870.000
1247.390, 10390.000
1248.589, 10790.000
1249.789, 10840.000
1250.988, 10410.000
1252.187, 11030.000
1253.386, 10700.000
1254.585, 10560.000
1255.784, 11100.000
1256.982, 10520.000
1258.180, 10910.000
1259.378, 10950.000
1260.576, 10470.000
1261.773, 11070.000
1262.971, 10810.000
1264.168, 10650.000
1265.365, 11210.000
1266.562, 10650.000
1267.758, 10910.000
1268.955, 11120.000
1270.151, 10590.000
1271.347, 11000.000
1272.543, 11100.000
1273.738, 10590.000
1274.934, 11170.000
1276.129, 11000.000
1277.324, 10910.000
1278.519, 11260.000
1279.713, 10630.000
1280.908, 11190.000
1282.102, 10990.000
1283.296, 10750.000
1284.489, 11100.000
1285.683, 10930.000
1286.876, 10840.000
1288.070, 11330.000
1289.263, 10800.000
1290.456, 11040.000
1291.648, 11180.000
1292.841, 10690.000
1294.033, 11300.000
1295.225, 10940.000
1296.417, 10820.000
1297.608, 11320.000
1298.800, 10800.000
1299.991, 10920.000
1301.182, 11150.000
1302.373, 10710.000
1303.563, 11160.000
1304.754, 10970.000
1305.944, 10860.000
1307.134, 11260.000
1308.324, 10960.000
1309.514, 10960.000
1310.703, 11450.000
1311.892, 10910.000
1313.082, 11300.000
1314.270, 11240.000
1315.459, 10810.000
1316.648, 11460.000
1317.836, 11040.000
1319.024, 11100.000
1320.212, 11480.000
1321.399, 10900.000
1322.587, 11310.000
1323.774, 11450.000
1324.961, 10920.000
1326.148, 11540.000
1327.335, 11300.000
1328.522, 10950.000
1329.708, 11570.000
1330.894, 11000.000
1332.080, 11040.000
1333.266, 11500.000
1334.451, 10950.000
1335.637, 11330.000
1336.822, 11330.000
1338.007, 11090.000
1339.191, 11500.000
1340.376, 11100.000
1341.560, 11200.000
1342.745, 11700.000
1343.929, 11020.000
1345.112, 11320.000
1346.296, 11560.000
1347.479, 10900.000
1348.662, 11520.000
1349.845, 11380.000
1351.028, 11030.000
1352.211, 11870.000
1353.393, 11220.000
##END=



