##NAMES=Almandine
##RRUFFID=R060099
##IDEAL CHEMISTRY=Fe^2+^_3_Al_2_(SiO_4_)_3_
##LOCALITY=Alaska, USA
##OWNER=RRUFF
##SOURCE=Roland Boehne
##DESCRIPTION=Red cube shaped single crystal
##STATUS=The identification of this mineral is confirmed by single-crystal X-ray diffraction and chemical analysis.
##URL=rruff.info/R060099
##MEASURED CHEMISTRY=(Fe^2+^_1.63_Mg_0.57_Mn_0.56_Ca_0.24_)_Σ=3_(Al_1.98_Fe^3+^_0.02_)_Σ=2_(Si_1.00_O_4_)_3_
##PIN_ID=M00497
##ORIENTATION=Laser parallel to -a* (-1 0 0). Fiducial mark perpendicular to laser is parallel to c [0 0 1]
93.48000, 4237.000
94.71400, 4264.000
95.94800, 4299.000
97.18200, 4311.000
98.41600, 4362.000
99.64900, 4396.000
100.8830, 4504.000
102.1160, 4359.000
103.3490, 4468.000
104.5820, 4534.000
105.8150, 4684.000
107.0470, 4714.000
108.2800, 4819.000
109.5120, 5017.000
110.7440, 4800.000
111.9760, 4751.000
113.2080, 4867.000
114.4400, 4778.000
115.6710, 4930.000
116.9030, 4919.000
118.1340, 4838.000
119.3650, 4720.000
120.5960, 4679.000
121.8270, 4789.000
123.0580, 4798.000
124.2880, 4804.000
125.5190, 4783.000
126.7490, 4756.000
127.9790, 4751.000
129.2090, 4787.000
130.4390, 4829.000
131.6680, 4839.000
132.8980, 4823.000
134.1270, 4809.000
135.3560, 4807.000
136.5850, 4834.264
137.8140, 4948.000
139.0430, 4922.000
140.2710, 4951.000
141.5000, 5021.000
142.7280, 4977.000
143.9560, 4947.000
145.1840, 4968.000
146.4120, 4994.000
147.6390, 4937.000
148.8670, 5051.000
150.0940, 5050.000
151.3210, 5223.000
152.5490, 5261.000
153.7750, 5322.000
155.0020, 5341.000
156.2290, 5380.000
157.4550, 5454.000
158.6810, 5600.000
159.9080, 5709.000
161.1340, 5795.000
162.3590, 5795.000
163.5850, 5962.000
164.8110, 6115.000
166.0360, 6212.000
167.2610, 6069.000
168.4860, 6140.000
169.7110, 6025.000
170.9360, 5966.000
172.1610, 5910.000
173.3850, 5643.000
174.6100, 5597.000
175.8340, 5391.000
177.0580, 5371.000
178.2820, 5274.000
179.5050, 5210.962
180.7290, 5230.000
181.9520, 5154.000
183.1760, 5198.000
184.3990, 5204.000
185.6220, 5210.000
186.8450, 5219.000
188.0670, 5222.000
189.2900, 5282.554
190.5120, 5473.000
191.7340, 5427.000
192.9560, 5511.000
194.1780, 5612.000
195.4000, 5509.000
196.6220, 5689.000
197.8430, 5723.000
199.0640, 5728.000
200.2860, 5853.000
201.5070, 5906.000
202.7270, 6078.000
203.9480, 6031.000
205.1690, 5901.000
206.3890, 6055.000
207.6090, 6125.000
208.8290, 6148.000
210.0490, 6285.000
211.2690, 6287.000
212.4890, 6223.000
213.7080, 6211.000
214.9280, 6127.000
216.1470, 5973.000
217.3660, 5899.000
218.5850, 5829.000
219.8030, 5889.000
221.0220, 5648.000
222.2400, 5717.000
223.4590, 5606.000
224.6770, 5528.000
225.8950, 5663.000
227.1120, 5515.000
228.3300, 5584.000
229.5480, 5492.000
230.7650, 5456.000
231.9820, 5440.000
233.1990, 5521.000
234.4160, 5451.000
235.6330, 5590.000
236.8490, 5447.000
238.0660, 5454.000
239.2820, 5450.000
240.4980, 5508.000
241.7140, 5454.000
242.9300, 5485.000
244.1460, 5418.000
245.3610, 5427.000
246.5770, 5503.000
247.7920, 5500.000
249.0070, 5438.000
250.2220, 5425.000
251.4370, 5450.000
252.6510, 5442.000
253.8660, 5475.000
255.0800, 5520.000
256.2940, 5533.963
257.5080, 5560.145
258.7220, 5569.000
259.9360, 5569.000
261.1490, 5532.000
262.3630, 5481.000
263.5760, 5558.000
264.7890, 5442.000
266.0020, 5470.000
267.2150, 5422.000
268.4270, 5431.851
269.6400, 5504.000
270.8520, 5494.000
272.0640, 5549.000
273.2760, 5598.000
274.4880, 5543.000
275.7000, 5621.000
276.9120, 5586.000
278.1230, 5622.000
279.3340, 5535.000
280.5450, 5605.000
281.7560, 5655.000
282.9670, 5630.000
284.1780, 5691.000
285.3880, 5584.000
286.5980, 5688.000
287.8090, 5650.000
289.0190, 5747.000
290.2290, 5626.000
291.4380, 5715.000
292.6480, 5607.000
293.8570, 5743.000
295.0670, 5851.000
296.2760, 5840.000
297.4850, 5817.000
298.6930, 5889.000
299.9020, 5895.000
301.1110, 6030.000
302.3190, 6048.000
303.5270, 6101.000
304.7350, 6142.000
305.9430, 6255.000
307.1510, 6446.000
308.3580, 6380.000
309.5660, 6607.000
310.7730, 6707.000
311.9800, 6706.000
313.1870, 6918.000
314.3940, 6792.000
315.6010, 6864.000
316.8070, 6886.000
318.0130, 6925.000
319.2200, 7092.000
320.4260, 7129.000
321.6310, 7282.000
322.8370, 7326.000
324.0430, 7607.000
325.2480, 7716.000
326.4540, 7942.000
327.6590, 8132.000
328.8640, 8421.000
330.0680, 8730.228
331.2730, 9030.000
332.4780, 9470.000
333.6820, 10038.00
334.8860, 10721.36
336.0900, 11543.00
337.2940, 12440.00
338.4980, 13451.00
339.7010, 14546.00
340.9050, 15642.00
342.1080, 16840.00
343.3110, 17877.00
344.5140, 18125.00
345.7170, 18096.00
346.9200, 17419.00
348.1220, 16481.00
349.3240, 15390.00
350.5270, 13963.00
351.7290, 12676.00
352.9310, 11742.00
354.1320, 10716.00
355.3340, 9981.000
356.5350, 9310.000
357.7370, 8880.000
358.9380, 8681.000
360.1390, 8411.000
361.3400, 8402.000
362.5400, 8336.000
363.7410, 8277.000
364.9410, 8213.000
366.1410, 8275.000
367.3410, 8385.000
368.5410, 8356.000
369.7410, 8372.000
370.9400, 8202.000
372.1400, 8134.000
373.3390, 7910.000
374.5380, 7767.000
375.7370, 7434.000
376.9360, 7218.000
378.1350, 7105.000
379.3330, 6783.000
380.5310, 6654.000
381.7300, 6554.000
382.9280, 6409.000
384.1260, 6308.000
385.3230, 6241.000
386.5210, 6153.000
387.7180, 6164.000
388.9160, 6176.000
390.1130, 5989.000
391.3100, 6094.000
392.5060, 6020.000
393.7030, 6032.000
394.9000, 6006.000
396.0960, 5994.000
397.2920, 5990.000
398.4880, 5931.000
399.6840, 5951.000
400.8800, 5976.000
402.0750, 5892.000
403.2710, 5977.000
404.4660, 5991.000
405.6610, 5907.000
406.8560, 5857.000
408.0510, 5953.000
409.2450, 5878.000
410.4400, 5857.000
411.6340, 5801.000
412.8280, 5815.000
414.0220, 5838.000
415.2160, 5853.000
416.4100, 5889.000
417.6030, 5882.000
418.7970, 5909.000
419.9900, 5827.000
421.1830, 5888.000
422.3760, 5831.000
423.5690, 5904.000
424.7610, 5910.000
425.9540, 5876.000
427.1460, 5981.000
428.3380, 5851.000
429.5300, 5946.000
430.7220, 5892.000
431.9140, 5893.000
433.1050, 6003.000
434.2970, 5850.000
435.4880, 5937.000
436.6790, 5943.000
437.8700, 6002.000
439.0610, 5880.000
440.2510, 5933.000
441.4420, 5868.000
442.6320, 5963.000
443.8220, 6014.000
445.0120, 5978.000
446.2020, 5959.000
447.3910, 5964.000
448.5810, 6084.000
449.7700, 6082.000
450.9600, 6115.000
452.1490, 6048.000
453.3370, 6159.000
454.5260, 6310.000
455.7150, 6246.000
456.9030, 6289.000
458.0910, 6473.000
459.2800, 6532.000
460.4670, 6674.000
461.6550, 6746.000
462.8430, 6609.000
464.0300, 6694.000
465.2180, 6577.000
466.4050, 6683.000
467.5920, 6620.000
468.7790, 6573.000
469.9650, 6659.000
471.1520, 6811.000
472.3380, 6883.000
473.5250, 6846.000
474.7110, 7011.000
475.8970, 7026.000
477.0820, 7081.000
478.2680, 6920.000
479.4540, 6770.000
480.6390, 6857.000
481.8240, 6769.000
483.0090, 6772.000
484.1940, 6692.000
485.3780, 6704.000
486.5630, 6695.000
487.7470, 6858.000
488.9320, 6942.000
490.1160, 7089.000
491.3000, 7506.000
492.4830, 7707.000
493.6670, 7867.000
494.8500, 8273.000
496.0340, 8459.000
497.2170, 8558.000
498.4000, 8908.000
499.5820, 8721.000
500.7650, 8631.000
501.9480, 8267.000
503.1300, 8051.000
504.3120, 7718.000
505.4940, 7456.000
506.6760, 7312.000
507.8580, 7130.000
509.0390, 7046.000
510.2210, 6814.000
511.4020, 6739.000
512.5830, 6846.000
513.7640, 6683.000
514.9450, 6776.000
516.1250, 6697.000
517.3060, 6830.000
518.4860, 6684.000
519.6660, 6711.000
520.8460, 6747.000
522.0260, 6720.000
523.2060, 6797.000
524.3850, 6757.000
525.5650, 6777.000
526.7440, 6735.000
527.9230, 6854.000
529.1020, 6830.000
530.2810, 6867.000
531.4590, 6855.000
532.6380, 6908.000
533.8160, 6989.000
534.9940, 7021.000
536.1720, 7035.000
537.3500, 7083.000
538.5270, 7229.000
539.7050, 7299.771
540.8820, 7573.000
542.0590, 7602.000
543.2360, 7830.000
544.4130, 8118.000
545.5900, 8411.000
546.7660, 8620.000
547.9430, 9009.000
549.1190, 9458.000
550.2950, 9724.000
551.4710, 10282.00
552.6470, 10479.00
553.8220, 10488.00
554.9980, 10438.00
556.1730, 10489.00
557.3480, 9983.000
558.5230, 9511.000
559.6980, 9095.000
560.8730, 8833.000
562.0470, 8381.000
563.2220, 8255.000
564.3960, 7789.000
565.5700, 7728.000
566.7440, 7578.000
567.9170, 7490.000
569.0910, 7385.000
570.2640, 7193.000
571.4380, 7274.000
572.6110, 7180.000
573.7840, 7206.000
574.9570, 7076.000
576.1290, 7242.000
577.3020, 7189.000
578.4740, 7364.000
579.6460, 7286.000
580.8180, 7242.000
581.9900, 7272.000
583.1620, 7226.000
584.3330, 7132.000
585.5040, 7045.000
586.6760, 7103.000
587.8470, 7065.000
589.0180, 7179.000
590.1880, 6962.000
591.3590, 7055.000
592.5290, 7048.000
593.7000, 7128.000
594.8700, 6956.000
596.0400, 7069.000
597.2090, 6909.000
598.3790, 7006.000
599.5490, 6979.000
600.7180, 6922.000
601.8870, 7086.000
603.0560, 6868.000
604.2250, 6935.000
605.3940, 6880.000
606.5620, 6835.000
607.7300, 6876.000
608.8990, 6945.000
610.0670, 6910.000
611.2350, 6937.000
612.4020, 6979.000
613.5700, 6941.000
614.7370, 6935.000
615.9050, 7017.000
617.0720, 7025.000
618.2390, 7034.000
619.4060, 7096.000
620.5720, 7145.979
621.7390, 7263.000
622.9050, 7319.000
624.0710, 7426.000
625.2370, 7564.000
626.4030, 7576.000
627.5690, 7605.000
628.7340, 7615.000
629.9000, 7835.000
631.0650, 7762.000
632.2300, 7748.000
633.3950, 7716.000
634.5600, 7590.000
635.7240, 7588.000
636.8890, 7507.000
638.0530, 7335.000
639.2170, 7310.000
640.3810, 7216.000
641.5450, 7238.000
642.7080, 7210.000
643.8720, 7330.000
645.0350, 7167.000
646.1980, 7252.000
647.3610, 7137.000
648.5240, 7237.000
649.6870, 7134.000
650.8490, 7168.000
652.0120, 7128.000
653.1740, 7190.000
654.3360, 7132.000
655.4980, 7101.000
656.6600, 7121.952
657.8210, 7054.000
658.9830, 7111.000
660.1440, 7064.000
661.3050, 7027.000
662.4660, 7048.000
663.6270, 6980.000
664.7870, 6934.000
665.9480, 7021.000
667.1080, 6970.724
668.2680, 6982.000
669.4280, 6983.000
670.5880, 7097.000
671.7480, 7114.000
672.9070, 7001.000
674.0670, 7007.000
675.2260, 6935.000
676.3850, 7046.000
677.5440, 7065.000
678.7030, 7187.000
679.8610, 7169.491
681.0200, 7186.014
682.1780, 7123.000
683.3360, 7155.000
684.4940, 7099.000
685.6520, 7074.000
686.8090, 6995.000
687.9670, 7045.000
689.1240, 7137.000
690.2810, 7119.000
691.4380, 7163.647
692.5950, 7068.000
693.7520, 7184.000
694.9080, 7201.000
696.0650, 7204.000
697.2210, 7049.000
698.3770, 7108.000
699.5330, 7112.000
700.6880, 7209.000
701.8440, 7220.000
702.9990, 7147.000
704.1550, 7280.000
705.3100, 7124.000
706.4650, 7178.000
707.6190, 7235.000
708.7740, 7220.000
709.9290, 7189.000
711.0830, 7171.000
712.2370, 7199.421
713.3910, 7210.000
714.5450, 7282.000
715.6980, 7277.000
716.8520, 7340.000
718.0050, 7324.000
719.1580, 7414.000
720.3110, 7349.000
721.4640, 7310.000
722.6170, 7301.000
723.7700, 7331.000
724.9220, 7394.000
726.0740, 7469.000
727.2260, 7405.000
728.3780, 7375.000
729.5300, 7484.000
730.6810, 7400.000
731.8330, 7444.000
732.9840, 7459.000
734.1350, 7479.000
735.2860, 7485.682
736.4370, 7498.000
737.5880, 7454.000
738.7380, 7515.000
739.8880, 7446.000
741.0390, 7485.000
742.1890, 7496.000
743.3380, 7498.000
744.4880, 7508.902
745.6380, 7546.000
746.7870, 7508.000
747.9360, 7575.000
749.0850, 7586.000
750.2340, 7691.000
751.3830, 7691.000
752.5310, 7702.000
753.6800, 7663.000
754.8280, 7523.000
755.9760, 7630.000
757.1240, 7747.000
758.2720, 7753.000
759.4190, 7627.000
760.5670, 7675.000
761.7140, 7629.000
762.8610, 7647.000
764.0080, 7679.000
765.1550, 7692.000
766.3020, 7688.000
767.4480, 7686.625
768.5950, 7696.472
769.7410, 7674.000
770.8870, 7701.000
772.0330, 7739.000
773.1780, 7724.000
774.3240, 7698.000
775.4690, 7728.000
776.6140, 7686.000
777.7590, 7700.000
778.9040, 7697.000
780.0490, 7736.000
781.1940, 7731.000
782.3380, 7783.000
783.4820, 7861.000
784.6260, 7807.000
785.7700, 7847.000
786.9140, 7885.000
788.0580, 7767.000
789.2010, 7895.000
790.3450, 7765.000
791.4880, 7887.000
792.6310, 7934.000
793.7730, 7849.000
794.9160, 7933.000
796.0590, 7914.000
797.2010, 7924.000
798.3430, 7921.000
799.4850, 8036.000
800.6270, 8031.000
801.7690, 8018.000
802.9100, 8130.000
804.0520, 8063.000
805.1930, 8044.000
806.3340, 8143.000
807.4750, 8177.000
808.6160, 8044.000
809.7560, 8209.000
810.8970, 8164.000
812.0370, 8197.000
813.1770, 8225.000
814.3170, 8209.000
815.4570, 8244.000
816.5960, 8311.000
817.7360, 8353.000
818.8750, 8207.000
820.0140, 8384.000
821.1530, 8242.000
822.2920, 8299.000
823.4310, 8285.000
824.5690, 8293.000
825.7070, 8324.000
826.8460, 8371.000
827.9840, 8331.000
829.1220, 8337.000
830.2590, 8297.000
831.3970, 8410.000
832.5340, 8525.000
833.6710, 8505.607
834.8080, 8570.241
835.9450, 8550.000
837.0820, 8560.000
838.2190, 8610.000
839.3550, 8547.000
840.4910, 8606.000
841.6270, 8765.000
842.7630, 8741.000
843.8990, 8861.000
845.0350, 8904.000
846.1700, 9026.000
847.3060, 9015.000
848.4410, 9181.000
849.5760, 9338.000
850.7100, 9371.000
851.8450, 9581.000
852.9800, 9801.000
854.1140, 9838.000
855.2480, 10142.00
856.3820, 10281.85
857.5160, 10630.00
858.6500, 10655.00
859.7830, 10881.00
860.9170, 11053.00
862.0500, 11113.00
863.1830, 10967.00
864.3160, 10867.00
865.4480, 10820.00
866.5810, 10594.00
867.7130, 10470.00
868.8460, 10463.00
869.9780, 10131.00
871.1100, 10270.00
872.2410, 10339.00
873.3730, 10066.00
874.5050, 10214.00
875.6360, 10131.00
876.7670, 10289.00
877.8980, 10305.00
879.0290, 10410.00
880.1590, 10561.00
881.2900, 10651.00
882.4200, 10760.00
883.5500, 11017.00
884.6800, 11175.00
885.8100, 11340.00
886.9400, 11658.00
888.0690, 11976.00
889.1990, 12243.00
890.3280, 12720.00
891.4570, 12884.00
892.5860, 13352.00
893.7140, 13967.00
894.8430, 14298.00
895.9710, 14795.00
897.1000, 15248.00
898.2280, 15894.00
899.3560, 16784.00
900.4830, 17662.00
901.6110, 18480.00
902.7380, 20126.00
903.8660, 21743.00
904.9930, 24008.00
906.1200, 26619.00
907.2460, 29614.00
908.3730, 33317.00
909.5000, 37364.00
910.6260, 41858.00
911.7520, 45970.00
912.8780, 49724.00
914.0040, 51816.00
915.1290, 53120.00
916.2550, 52931.00
917.3800, 50562.00
918.5050, 46908.00
919.6300, 42666.00
920.7550, 38191.00
921.8800, 33699.00
923.0040, 29916.00
924.1290, 26366.00
925.2530, 23683.00
926.3770, 21397.00
927.5010, 19842.00
928.6250, 17937.00
929.7480, 16869.00
930.8720, 15826.00
931.9950, 14957.00
933.1180, 14170.00
934.2410, 13476.00
935.3640, 12915.00
936.4860, 12608.00
937.6090, 12197.00
938.7310, 11808.00
939.8530, 11435.00
940.9750, 11231.00
942.0970, 10915.00
943.2180, 10801.00
944.3400, 10583.38
945.4610, 10345.00
946.5820, 10332.00
947.7030, 10171.00
948.8240, 10226.00
949.9450, 10064.00
951.0650, 10096.00
952.1860, 10039.00
953.3060, 9972.000
954.4260, 9997.969
955.5460, 9935.000
956.6650, 9904.889
957.7850, 9859.000
958.9040, 9821.000
960.0230, 9782.000
961.1420, 9728.000
962.2610, 9713.000
963.3800, 9739.000
964.4990, 9812.000
965.6170, 9772.000
966.7350, 9712.000
967.8530, 9826.000
968.9710, 9700.000
970.0890, 9723.000
971.2070, 9787.000
972.3240, 9716.000
973.4410, 9707.000
974.5580, 9782.000
975.6750, 9731.000
976.7920, 9798.000
977.9090, 9714.000
979.0250, 9709.000
980.1410, 9736.000
981.2580, 9810.000
982.3740, 9608.000
983.4890, 9630.000
984.6050, 9615.000
985.7200, 9816.000
986.8360, 9609.000
987.9510, 9724.000
989.0660, 9693.000
990.1810, 9726.000
991.2950, 9615.000
992.4100, 9632.000
993.5240, 9734.000
994.6390, 9759.000
995.7530, 9633.000
996.8660, 9781.000
997.9800, 9651.000
999.0940, 9762.000
1000.207, 9848.000
1001.320, 9839.000
1002.433, 9867.000
1003.546, 9947.000
1004.659, 9871.000
1005.772, 9803.000
1006.884, 9806.000
1007.996, 9756.000
1009.108, 9700.000
1010.220, 9841.000
1011.332, 9848.000
1012.444, 10030.00
1013.555, 9893.000
1014.666, 10017.00
1015.777, 10044.00
1016.888, 10050.00
1017.999, 10028.00
1019.110, 10170.00
1020.220, 10224.00
1021.331, 10310.00
1022.441, 10362.00
1023.551, 10356.00
1024.661, 10474.00
1025.770, 10494.00
1026.880, 10678.00
1027.989, 10752.00
1029.098, 10779.00
1030.207, 10960.00
1031.316, 10927.00
1032.425, 11219.00
1033.533, 11469.00
1034.642, 11553.00
1035.750, 11630.00
1036.858, 11747.00
1037.966, 11860.00
1039.073, 11689.00
1040.181, 11867.00
1041.288, 11861.00
1042.396, 11673.00
1043.503, 11828.00
1044.610, 11612.00
1045.716, 11489.00
1046.823, 11335.00
1047.929, 11126.00
1049.036, 10921.00
1050.142, 10852.00
1051.248, 10576.00
1052.353, 10479.00
1053.459, 10353.00
1054.564, 10327.00
1055.670, 10350.00
1056.775, 10180.00
1057.880, 9921.000
1058.985, 10119.00
1060.089, 9910.000
1061.194, 9980.000
1062.298, 9894.000
1063.402, 9852.000
1064.506, 9842.000
1065.610, 9812.059
1066.713, 9817.000
1067.817, 9785.000
1068.920, 9858.000
1070.023, 9801.000
1071.126, 9895.000
1072.229, 9832.000
1073.332, 9777.000
1074.435, 9871.000
1075.537, 9809.000
1076.639, 9828.000
1077.741, 9842.000
1078.843, 9901.000
1079.945, 9855.000
1081.046, 9970.000
1082.148, 10008.00
1083.249, 9873.000
1084.350, 9836.000
1085.451, 9972.000
1086.551, 9984.000
1087.652, 9978.500
1088.752, 10001.00
1089.853, 9905.000
1090.953, 9862.000
1092.053, 9890.762
1093.152, 9871.000
1094.252, 9931.000
1095.351, 9889.000
1096.451, 9884.000
1097.550, 9883.577
1098.649, 9868.676
1099.748, 9845.000
1100.846, 9873.000
1101.945, 9841.000
1103.043, 9859.000
1104.141, 9925.000
1105.239, 9935.000
1106.337, 9951.000
1107.434, 10000.00
1108.532, 9800.000
1109.629, 9922.000
1110.726, 9817.000
1111.823, 9928.000
1112.920, 9965.000
1114.017, 9971.000
1115.113, 9881.000
1116.210, 9919.000
1117.306, 9934.000
1118.402, 10084.00
1119.498, 9969.000
1120.593, 10104.00
1121.689, 10009.00
1122.784, 9989.000
1123.879, 10116.00
1124.974, 10048.00
1126.069, 10056.00
1127.164, 9931.000
1128.259, 10083.00
1129.353, 9965.000
1130.447, 9910.000
1131.541, 9971.000
1132.635, 9929.000
1133.729, 10040.00
1134.822, 9910.000
1135.916, 10067.00
1137.009, 10033.00
1138.102, 10046.00
1139.195, 9968.000
1140.288, 10057.00
1141.380, 10181.00
1142.473, 10157.00
1143.565, 9958.000
1144.657, 9976.000
1145.749, 10093.00
1146.841, 10152.00
1147.932, 10186.00
1149.024, 10193.00
1150.115, 10224.79
1151.206, 10239.28
1152.297, 10213.00
1153.388, 10281.00
1154.479, 10198.00
1155.569, 10233.00
1156.659, 10172.00
1157.750, 10197.00
1158.839, 10221.00
1159.929, 10224.90
1161.019, 10277.00
1162.108, 10248.00
1163.198, 10342.00
1164.287, 10282.00
1165.376, 10231.00
1166.465, 10312.00
1167.553, 10282.00
1168.642, 10412.00
1169.730, 10403.00
1170.818, 10387.00
1171.906, 10369.00
1172.994, 10508.00
1174.082, 10402.00
1175.170, 10322.00
1176.257, 10526.00
1177.344, 10312.00
1178.431, 10462.00
1179.518, 10490.00
1180.605, 10508.00
1181.691, 10554.30
1182.778, 10368.00
1183.864, 10517.00
1184.950, 10483.00
1186.036, 10363.00
1187.122, 10405.00
1188.207, 10514.00
1189.292, 10466.00
1190.378, 10458.00
1191.463, 10477.00
1192.548, 10447.00
1193.632, 10484.00
1194.717, 10460.00
1195.801, 10624.00
1196.886, 10449.00
1197.970, 10546.00
1199.054, 10544.00
1200.137, 10391.00
1201.221, 10498.00
1202.305, 10493.00
1203.388, 10598.00
1204.471, 10476.00
1205.554, 10479.00
1206.637, 10538.00
1207.719, 10509.00
1208.802, 10574.00
1209.884, 10522.00
1210.966, 10487.00
1212.048, 10462.00
1213.130, 10572.00
1214.212, 10523.00
1215.293, 10655.00
1216.374, 10519.00
1217.456, 10735.00
1218.536, 10484.00
1219.617, 10559.00
1220.698, 10545.00
1221.778, 10553.00
1222.859, 10616.00
1223.939, 10710.00
1225.019, 10542.00
1226.099, 10646.00
1227.178, 10614.00
1228.258, 10724.00
1229.337, 10652.00
1230.417, 10677.00
1231.496, 10609.00
1232.574, 10706.00
1233.653, 10714.00
1234.732, 10610.00
1235.810, 10716.00
1236.888, 10600.00
1237.966, 10762.00
1239.044, 10788.00
1240.122, 10835.00
1241.199, 10950.00
1242.277, 10928.22
1243.354, 10797.00
1244.431, 10884.00
1245.508, 10850.00
1246.585, 10723.00
1247.661, 10878.00
1248.738, 10830.00
1249.814, 10844.00
1250.890, 10801.00
1251.966, 10791.00
1253.042, 10866.00
1254.117, 10775.00
1255.193, 10941.00
1256.268, 10905.00
1257.343, 11017.00
1258.418, 10846.00
1259.493, 11014.00
1260.567, 10864.00
1261.642, 10880.00
1262.716, 10897.00
1263.790, 10925.00
1264.864, 10920.00
1265.938, 11042.00
1267.011, 10944.00
1268.085, 11060.00
1269.158, 11058.00
1270.231, 10969.00
1271.304, 11046.00
1272.377, 11210.00
1273.450, 11069.00
1274.522, 11135.00
1275.594, 11138.00
1276.666, 11039.00
1277.738, 11006.00
1278.810, 11090.00
1279.882, 11070.00
1280.953, 11074.00
1282.025, 11110.00
1283.096, 11108.00
1284.167, 11154.00
1285.238, 11161.00
1286.308, 11141.54
1287.379, 11148.24
1288.449, 11086.00
1289.519, 11138.00
1290.589, 11110.00
1291.659, 11151.00
1292.729, 11187.00
1293.798, 11110.00
1294.868, 11217.00
1295.937, 11232.00
1297.006, 11067.00
1298.075, 11192.00
1299.143, 11205.00
1300.212, 11069.00
1301.280, 11058.00
1302.348, 11079.35
1303.416, 11184.00
1304.484, 11162.00
1305.552, 11174.00
1306.620, 11228.00
1307.687, 11118.00
1308.754, 11083.00
1309.821, 11183.00
1310.888, 11165.00
1311.955, 11158.00
1313.021, 11257.00
1314.088, 11231.00
1315.154, 11280.00
1316.220, 11327.00
1317.286, 11191.00
1318.352, 11225.00
1319.417, 11232.00
1320.483, 11126.00
1321.548, 11064.00
1322.613, 11117.98
1323.678, 11175.00
1324.743, 11220.00
1325.807, 11307.00
1326.872, 11353.00
1327.936, 11221.00
1329.000, 11196.00
1330.064, 11065.00
1331.128, 11221.00
1332.191, 11225.00
1333.255, 11269.00
1334.318, 11131.00
1335.381, 11184.00
1336.444, 11435.00
1337.507, 11248.00
1338.569, 11280.00
1339.632, 11173.00
1340.694, 11311.00
1341.756, 11274.00
1342.818, 11377.00
1343.880, 11232.00
1344.941, 11315.00
1346.003, 11328.00
1347.064, 11339.00
1348.125, 11402.00
1349.186, 11377.66
1350.247, 11295.00
1351.308, 11347.00
1352.368, 11339.00
1353.428, 11302.00
1354.489, 11385.00
1355.549, 11333.00
1356.608, 11235.00
1357.668, 11468.00
1358.727, 11404.00
1359.787, 11390.00
1360.846, 11344.00
1361.905, 11421.00
1362.964, 11429.00
1364.022, 11427.00
1365.081, 11464.00
1366.139, 11414.00
1367.197, 11444.00
1368.255, 11440.00
1369.313, 11574.00
1370.371, 11454.00
1371.428, 11650.00
1372.486, 11513.00
1373.543, 11534.00
1374.600, 11561.00
1375.657, 11516.00
1376.713, 11510.00
1377.770, 11504.66
1378.826, 11520.00
1379.882, 11485.00
1380.938, 11470.00
1381.994, 11460.00
1383.050, 11541.00
1384.106, 11559.00
1385.161, 11588.00
1386.216, 11506.00
1387.271, 11563.00
1388.326, 11495.00
1389.381, 11523.00
1390.435, 11672.00
1391.490, 11763.00
1392.544, 11802.00
1393.598, 11691.00
1394.652, 11654.00
1395.705, 11660.00
1396.759, 11554.00
1397.812, 11761.00
1398.866, 11648.00
1399.919, 11723.00
1400.972, 11681.00
1402.024, 11614.00
1403.077, 11829.00
1404.129, 11657.00
1405.181, 11661.00
1406.233, 11738.00
1407.285, 11673.00
1408.337, 11838.00
1409.389, 11625.00
1410.440, 11865.00
1411.491, 11699.00
1412.542, 11768.00
1413.593, 11719.00
1414.644, 11747.00
1415.695, 11752.69
1416.745, 11739.21
1417.795, 11761.00
1418.845, 11771.00
1419.895, 11786.00
1420.945, 11877.00
1421.995, 11811.00
1423.044, 11917.00
1424.093, 11885.00
1425.142, 11901.00
1426.191, 11867.00
1427.240, 11880.00
1428.289, 11883.00
1429.337, 11872.00
1430.385, 11824.00
1431.433, 11852.84
1432.481, 11852.58
1433.529, 11890.00
1434.577, 11898.00
1435.624, 11929.00
1436.672, 11956.00
1437.719, 12055.00
1438.766, 12100.00
1439.812, 12198.00
1440.859, 12214.00
1441.905, 12137.00
1442.952, 12180.00
1443.998, 12135.00
1445.044, 12152.00
1446.090, 12192.00
1447.135, 12132.00
1448.181, 12136.00
1449.226, 12190.00
1450.271, 12184.00
1451.316, 12330.00
1452.361, 12336.00
1453.405, 12357.00
1454.450, 12272.00
1455.494, 12413.00
1456.538, 12396.00
1457.582, 12419.00
1458.626, 12442.24
1459.670, 12290.00
1460.713, 12378.00
1461.757, 12367.00
1462.800, 12238.00
1463.843, 12234.00
1464.886, 12326.00
1465.928, 12397.00
1466.971, 12301.00
1468.013, 12247.00
1469.055, 12396.00
1470.097, 12353.00
1471.139, 12347.00
1472.181, 12299.00
1473.222, 12299.00
1474.263, 12238.00
1475.305, 12271.89
1476.346, 12344.00
1477.386, 12356.00
1478.427, 12319.00
1479.468, 12400.00
1480.508, 12267.00
1481.548, 12385.00
1482.588, 12261.00
1483.628, 12314.00
1484.668, 12447.00
1485.707, 12421.00
1486.747, 12421.00
1487.786, 12362.00
1488.825, 12327.00
1489.864, 12346.00
1490.902, 12565.00
1491.941, 12482.00
1492.979, 12484.00
1494.017, 12491.00
1495.055, 12336.00
1496.093, 12223.00
1497.131, 12365.00
1498.168, 12308.00
1499.206, 12422.00
1500.243, 12313.00
1501.280, 12478.00
1502.317, 12350.00
1503.354, 12279.00
1504.390, 12395.00
1505.426, 12372.00
1506.463, 12511.00
1507.499, 12330.00
1508.535, 12450.00
1509.570, 12550.00
1510.606, 12423.00
1511.641, 12472.00
1512.676, 12348.00
1513.711, 12403.00
1514.746, 12489.00
1515.781, 12409.00
1516.816, 12483.00
1517.850, 12487.00
1518.884, 12530.00
1519.918, 12583.00
1520.952, 12384.00
1521.986, 12520.00
1523.019, 12602.00
1524.053, 12661.00
1525.086, 12442.00
1526.119, 12573.00
1527.152, 12501.00
1528.185, 12572.00
1529.217, 12506.00
1530.250, 12480.00
1531.282, 12603.00
1532.314, 12598.00
1533.346, 12577.00
1534.377, 12592.00
1535.409, 12484.00
1536.440, 12587.00
1537.472, 12619.00
1538.503, 12691.00
1539.534, 12629.00
1540.564, 12626.00
1541.595, 12656.00
1542.625, 12516.00
1543.656, 12617.00
1544.686, 12589.00
1545.716, 12522.00
1546.745, 12655.00
1547.775, 12676.00
1548.804, 12699.00
1549.834, 12553.00
1550.863, 12836.00
1551.892, 12688.00
1552.920, 12829.00
1553.949, 12686.00
1554.977, 12701.00
1556.006, 12719.00
1557.034, 12613.00
1558.062, 12592.00
1559.089, 12701.00
1560.117, 12691.00
1561.144, 12706.00
1562.172, 12680.00
1563.199, 12762.00
1564.226, 12705.00
1565.252, 12737.00
1566.279, 12862.00
1567.305, 12732.00
1568.332, 12633.00
1569.358, 12798.00
1570.384, 12874.00
##END=



