##NAMES=Amesite
##RRUFFID=R070132
##IDEAL CHEMISTRY=Mg_2_Al(AlSiO_5_)(OH)_4_
##LOCALITY=Saranovskii mine, Saranovskaya Village, Gornozavodskii area, Permskaya Oblast', Middle Urals, Russia
##OWNER=RRUFF
##SOURCE=Michael Scott
##DESCRIPTION=Purple transparent hexagonal prisms, polytype 2H2
##STATUS=The identification of this mineral is confirmed by single-crystal X-ray diffraction and chemical analysis.
##URL=rruff.info/R070132
##MEASURED CHEMISTRY=(Mg_1.87_[box]_0.05_Cr_0.05_Fe^2+^_0.03_)_Σ=2_(Al_0.98_Cr_0.02_)_Σ=1_(Si_1.05_Al_0.95_)O_5_(OH)_4_ ; OH estimated by difference
##PIN_ID=M00194
121.5960, 5764.000
122.8300, 5935.000
124.0640, 6166.000
125.2990, 6070.000
126.5330, 6163.000
127.7670, 6365.000
129.0000, 6751.000
130.2340, 7164.000
131.4670, 7512.000
132.7000, 7554.000
133.9330, 7624.000
135.1660, 7676.000
136.3990, 7698.000
137.6310, 7482.000
138.8640, 7043.000
140.0960, 6710.000
141.3280, 6375.000
142.5600, 6166.000
143.7910, 6074.000
145.0230, 6016.000
146.2540, 5947.000
147.4850, 6046.000
148.7160, 5932.000
149.9470, 5918.000
151.1780, 6159.000
152.4080, 6189.000
153.6380, 5983.000
154.8690, 6125.000
156.0980, 6091.000
157.3280, 6079.000
158.5580, 6043.000
159.7870, 5984.000
161.0170, 5833.975
162.2460, 6085.326
163.4750, 6248.710
164.7030, 6328.812
165.9320, 6076.402
167.1600, 6253.375
168.3890, 6258.295
169.6170, 6256.118
170.8450, 6493.531
172.0730, 6289.449
173.3000, 6523.022
174.5280, 6655.000
175.7550, 6776.000
176.9820, 6917.000
178.2090, 6985.000
179.4350, 7079.000
180.6620, 7366.000
181.8880, 7689.000
183.1150, 8018.000
184.3410, 8370.000
185.5670, 8992.000
186.7920, 9572.000
188.0180, 10339.00
189.2430, 11111.00
190.4690, 11982.00
191.6940, 13163.00
192.9180, 14298.00
194.1430, 15622.00
195.3680, 16676.00
196.5920, 17521.00
197.8160, 18435.00
199.0400, 18869.00
200.2640, 19969.00
201.4880, 20725.00
202.7110, 21175.00
203.9350, 21140.00
205.1580, 20471.00
206.3810, 19585.00
207.6040, 18561.00
208.8270, 16991.00
210.0490, 15628.00
211.2710, 14039.00
212.4940, 12750.00
213.7160, 11663.00
214.9370, 10606.00
216.1590, 9841.000
217.3810, 9299.000
218.6020, 8962.000
219.8230, 8629.000
221.0440, 8450.000
222.2650, 8149.000
223.4860, 8032.000
224.7060, 8039.000
225.9260, 8116.000
227.1470, 8171.000
228.3670, 8448.000
229.5860, 8806.000
230.8060, 9160.000
232.0260, 9755.000
233.2450, 10673.00
234.4640, 11620.00
235.6830, 13086.00
236.9020, 14995.00
238.1200, 17262.00
239.3390, 20751.00
240.5570, 25789.00
241.7750, 32467.00
242.9930, 39878.00
244.2110, 45904.00
245.4290, 47738.00
246.6460, 43616.00
247.8630, 35477.00
249.0810, 27847.00
250.2980, 22350.00
251.5140, 18541.00
252.7310, 16677.00
253.9470, 15693.00
255.1640, 15253.00
256.3800, 15564.00
257.5960, 15883.00
258.8120, 16894.00
260.0270, 17873.00
261.2430, 18143.00
262.4580, 19011.00
263.6730, 20596.00
264.8880, 23013.00
266.1030, 25973.00
267.3170, 29430.00
268.5320, 33991.00
269.7460, 38995.00
270.9600, 43840.00
272.1740, 49061.00
273.3880, 53339.00
274.6010, 54518.00
275.8150, 53827.00
277.0280, 51448.00
278.2410, 48998.00
279.4540, 45992.00
280.6670, 44096.00
281.8790, 42813.00
283.0920, 41278.00
284.3040, 39482.00
285.5160, 36490.00
286.7280, 32875.00
287.9400, 29091.00
289.1510, 25328.00
290.3630, 21726.00
291.5740, 18794.00
292.7850, 16296.00
293.9960, 14350.00
295.2070, 12702.00
296.4170, 11353.00
297.6280, 10486.00
298.8380, 9742.000
300.0480, 9243.000
301.2580, 8875.000
302.4680, 8614.000
303.6770, 8576.000
304.8870, 8526.000
306.0960, 8502.000
307.3050, 8615.602
308.5140, 8794.000
309.7230, 9002.000
310.9310, 9387.000
312.1400, 9829.000
313.3480, 10209.00
314.5560, 10590.00
315.7640, 10946.00
316.9720, 11158.00
318.1790, 11214.00
319.3870, 11305.00
320.5940, 11702.00
321.8010, 12353.00
323.0080, 13406.00
324.2150, 14488.00
325.4210, 15567.00
326.6280, 16526.00
327.8340, 16496.00
329.0400, 16576.00
330.2460, 16156.00
331.4510, 15681.00
332.6570, 14890.00
333.8620, 14125.00
335.0680, 13477.00
336.2730, 13137.00
337.4780, 13430.00
338.6820, 13980.00
339.8870, 14495.00
341.0910, 14980.00
342.2950, 15194.72
343.5000, 15250.99
344.7030, 15386.00
345.9070, 14937.00
347.1110, 14732.00
348.3140, 14357.00
349.5170, 13902.00
350.7200, 12970.00
351.9230, 11925.00
353.1260, 11194.00
354.3290, 10388.00
355.5310, 9867.000
356.7330, 9807.000
357.9350, 9748.000
359.1370, 9744.000
360.3390, 9730.000
361.5400, 9843.000
362.7420, 10047.00
363.9430, 10201.00
365.1440, 10821.00
366.3450, 11196.00
367.5460, 11951.00
368.7460, 12917.00
369.9470, 13854.00
371.1470, 15042.00
372.3470, 16632.00
373.5470, 18922.00
374.7460, 21502.00
375.9460, 24549.00
377.1450, 26956.00
378.3450, 28611.00
379.5440, 28468.00
380.7430, 27479.00
381.9410, 25915.00
383.1400, 24172.00
384.3380, 22691.00
385.5370, 22192.00
386.7350, 21817.00
387.9320, 21364.00
389.1300, 21274.00
390.3280, 21143.80
391.5250, 20928.00
392.7220, 21353.00
393.9190, 21630.00
395.1160, 22123.00
396.3130, 22278.00
397.5100, 22789.00
398.7060, 23921.00
399.9020, 25834.00
401.0980, 29150.00
402.2940, 35076.00
403.4900, 39439.00
404.6860, 46027.00
405.8810, 51884.00
407.0760, 55632.00
408.2710, 56754.00
409.4660, 55756.00
410.6610, 55055.00
411.8550, 54270.00
413.0500, 53125.00
414.2440, 49886.00
415.4380, 44551.00
416.6320, 38093.00
417.8260, 31927.00
419.0190, 26876.00
420.2130, 22799.00
421.4060, 19350.00
422.5990, 16975.00
423.7920, 15156.00
424.9850, 14013.00
426.1770, 12991.00
427.3700, 12454.00
428.5620, 11947.00
429.7540, 11418.00
430.9460, 11035.00
432.1380, 10929.00
433.3290, 10905.00
434.5210, 10755.00
435.7120, 11039.00
436.9030, 11248.00
438.0940, 11374.00
439.2850, 11528.00
440.4750, 11702.78
441.6660, 11894.00
442.8560, 12011.00
444.0460, 12207.00
445.2360, 12323.00
446.4260, 12510.00
447.6160, 12817.00
448.8050, 12962.00
449.9940, 13106.00
451.1830, 13031.00
452.3720, 13040.00
453.5610, 12921.00
454.7500, 12878.00
455.9380, 12826.00
457.1260, 12919.00
458.3150, 12973.00
459.5020, 13143.00
460.6900, 13219.00
461.8780, 13091.00
463.0650, 13046.00
464.2530, 13015.00
465.4400, 13181.00
466.6270, 13455.00
467.8130, 14211.00
469.0000, 15329.00
470.1870, 16590.00
471.3730, 18297.00
472.5590, 20030.00
473.7450, 22235.00
474.9310, 23993.00
476.1160, 25420.00
477.3020, 26043.00
478.4870, 26002.00
479.6720, 25064.00
480.8570, 23898.00
482.0420, 22506.00
483.2270, 21279.00
484.4110, 20230.00
485.5960, 19371.91
486.7800, 18610.00
487.9640, 18138.00
489.1480, 17790.00
490.3310, 17517.00
491.5150, 17043.00
492.6980, 16559.00
493.8810, 16050.00
495.0640, 15165.00
496.2470, 14146.00
497.4300, 13301.00
498.6120, 12245.00
499.7950, 11489.00
500.9770, 10951.00
502.1590, 10392.00
503.3410, 10007.00
504.5220, 9801.000
505.7040, 9765.000
506.8850, 9677.000
508.0660, 9768.000
509.2470, 9749.000
510.4280, 9844.000
511.6090, 10014.00
512.7890, 10123.00
513.9700, 10214.00
515.1500, 10477.00
516.3300, 10835.00
517.5100, 11266.00
518.6900, 11950.00
519.8690, 12621.00
521.0490, 13339.00
522.2280, 14283.00
523.4070, 15515.00
524.5860, 16818.00
525.7640, 17847.00
526.9430, 19254.00
528.1210, 20336.00
529.3000, 20935.00
530.4780, 21491.00
531.6560, 21539.00
532.8330, 21120.00
534.0110, 20287.00
535.1880, 19522.00
536.3650, 18426.00
537.5430, 17507.00
538.7190, 16672.00
539.8960, 15739.00
541.0730, 15063.00
542.2490, 14516.00
543.4250, 13901.00
544.6020, 13496.00
545.7780, 13089.00
546.9530, 12938.00
548.1290, 12595.00
549.3040, 12738.00
550.4800, 12471.00
551.6550, 12270.00
552.8300, 12076.00
554.0040, 11856.00
555.1790, 11640.00
556.3540, 11322.00
557.5280, 10913.00
558.7020, 10682.00
559.8760, 10371.00
561.0500, 10139.00
562.2230, 9901.000
563.3970, 9734.000
564.5700, 9794.000
565.7430, 9697.000
566.9160, 9610.000
568.0890, 9604.000
569.2620, 9618.000
570.4340, 9628.000
571.6070, 9532.000
572.7790, 9390.000
573.9510, 9052.000
575.1230, 8800.000
576.2940, 8525.000
577.4660, 8367.000
578.6370, 8131.000
579.8080, 8118.000
580.9790, 8022.000
582.1500, 7980.000
583.3210, 7885.000
584.4910, 7795.000
585.6620, 7620.000
586.8320, 7732.000
588.0020, 7563.000
589.1720, 7439.000
590.3410, 7435.000
591.5110, 7326.000
592.6800, 7254.000
593.8500, 7315.000
595.0190, 7180.000
596.1880, 7149.000
597.3560, 7146.000
598.5250, 7055.000
599.6930, 7059.000
600.8620, 6954.000
602.0300, 6903.000
603.1970, 6923.000
604.3650, 6848.000
605.5330, 6930.000
606.7000, 6877.000
607.8680, 6842.000
609.0350, 6859.000
610.2020, 6853.000
611.3680, 6835.079
612.5350, 6886.000
613.7010, 6810.000
614.8680, 6860.000
616.0340, 6857.000
617.2000, 6884.000
618.3660, 6854.000
619.5310, 6834.000
620.6970, 6876.000
621.8620, 6949.000
623.0270, 7054.000
624.1920, 6930.000
625.3570, 6871.000
626.5220, 6991.000
627.6860, 7032.000
628.8500, 6934.000
630.0140, 6964.000
631.1780, 6925.000
632.3420, 6997.000
633.5060, 6943.000
634.6700, 6977.000
635.8330, 6939.000
636.9960, 6950.000
638.1590, 7054.000
639.3220, 6997.000
640.4850, 7119.000
641.6470, 7022.000
642.8100, 7120.000
643.9720, 7137.000
645.1340, 7243.000
646.2960, 7189.000
647.4570, 7184.000
648.6190, 7259.000
649.7800, 7176.000
650.9420, 7242.000
652.1030, 7403.000
653.2640, 7398.000
654.4240, 7476.000
655.5850, 7477.000
656.7450, 7495.000
657.9060, 7645.000
659.0660, 7633.000
660.2260, 7620.000
661.3850, 7847.000
662.5450, 7926.000
663.7040, 7998.000
664.8640, 8312.000
666.0230, 8264.000
667.1820, 8447.000
668.3410, 8741.000
669.4990, 8914.000
670.6580, 9184.000
671.8160, 9655.000
672.9740, 10096.00
674.1320, 10566.00
675.2900, 11269.00
676.4480, 11922.00
677.6050, 12806.00
678.7630, 13698.00
679.9200, 14912.00
681.0770, 16149.00
682.2340, 17093.00
683.3900, 18044.00
684.5470, 18440.00
685.7030, 18333.00
686.8590, 17779.00
688.0150, 16884.00
689.1710, 16058.00
690.3270, 15199.00
691.4830, 15055.00
692.6380, 14843.00
693.7930, 14961.00
694.9480, 15374.00
696.1030, 15994.00
697.2580, 16919.00
698.4130, 18061.00
699.5670, 19339.00
700.7210, 21045.00
701.8750, 22884.00
703.0290, 25149.00
704.1830, 27395.00
705.3370, 29207.00
706.4900, 30602.00
707.6430, 31022.00
708.7970, 30433.00
709.9490, 28798.00
711.1020, 26584.00
712.2550, 24162.00
713.4070, 21947.00
714.5600, 19717.00
715.7120, 17990.00
716.8640, 16204.00
718.0160, 15018.00
719.1670, 13921.00
720.3190, 12773.00
721.4700, 12089.00
722.6210, 11368.00
723.7720, 10686.00
724.9230, 10258.00
726.0740, 9822.000
727.2250, 9414.000
728.3750, 9131.907
729.5250, 8957.000
730.6750, 8672.000
731.8250, 8560.000
732.9750, 8449.000
734.1240, 8237.000
735.2740, 8109.000
736.4230, 7977.000
737.5720, 7836.000
738.7210, 7763.750
739.8700, 7693.681
741.0190, 7667.000
742.1670, 7628.000
743.3150, 7672.000
744.4630, 7671.000
745.6110, 7582.000
746.7590, 7463.000
747.9070, 7423.000
749.0540, 7381.000
750.2020, 7502.000
751.3490, 7326.000
752.4960, 7409.000
753.6430, 7299.000
754.7890, 7393.000
755.9360, 7349.000
757.0820, 7389.000
758.2280, 7385.364
759.3740, 7360.000
760.5200, 7359.000
761.6660, 7382.000
762.8120, 7373.000
763.9570, 7420.000
765.1020, 7408.815
766.2470, 7348.000
767.3920, 7442.000
768.5370, 7421.000
769.6810, 7513.000
770.8260, 7598.000
771.9700, 7667.000
773.1140, 7764.000
774.2580, 7702.000
775.4020, 7818.000
776.5460, 8076.000
777.6890, 8040.000
778.8320, 8205.000
779.9750, 8298.000
781.1180, 8429.000
782.2610, 8510.000
783.4040, 8538.000
784.5460, 8530.000
785.6890, 8632.000
786.8310, 8567.000
787.9730, 8612.000
789.1150, 8564.000
790.2560, 8531.000
791.3980, 8530.000
792.5390, 8492.000
793.6810, 8411.000
794.8220, 8427.000
795.9630, 8495.000
797.1030, 8320.000
798.2440, 8603.000
799.3840, 8422.000
800.5240, 8419.000
801.6650, 8521.000
802.8040, 8561.000
803.9440, 8752.000
805.0840, 8943.000
806.2230, 9071.000
807.3630, 9218.000
808.5020, 9549.000
809.6410, 9690.000
810.7790, 9991.000
811.9180, 10357.00
813.0570, 10610.00
814.1950, 10997.00
815.3330, 11235.00
816.4710, 11605.00
817.6090, 11943.00
818.7470, 12208.00
819.8840, 12793.00
821.0220, 13106.00
822.1590, 13579.00
823.2960, 13752.00
824.4330, 13904.00
825.5690, 13848.00
826.7060, 13725.00
827.8420, 13302.00
828.9790, 12938.00
830.1150, 12514.00
831.2510, 12064.00
832.3860, 11471.00
833.5220, 11085.00
834.6570, 10638.00
835.7930, 10320.00
836.9280, 9987.802
838.0630, 9764.000
839.1980, 9480.000
840.3320, 9263.000
841.4670, 9171.000
842.6010, 9002.000
843.7350, 9089.000
844.8690, 8832.016
846.0030, 8877.000
847.1370, 8422.000
848.2700, 8241.000
849.4040, 8012.000
850.5370, 8051.000
851.6700, 8009.000
852.8030, 7799.000
853.9360, 7825.000
855.0680, 7658.000
856.2000, 7619.000
857.3330, 7600.000
858.4650, 7541.000
859.5970, 7579.000
860.7290, 7534.000
861.8600, 7454.000
862.9920, 7474.000
864.1230, 7497.000
865.2540, 7435.000
866.3850, 7413.000
867.5160, 7451.000
868.6460, 7394.000
869.7770, 7440.000
870.9070, 7466.000
872.0370, 7520.000
873.1670, 7466.000
874.2970, 7561.000
875.4270, 7502.000
876.5570, 7646.000
877.6860, 7709.000
878.8150, 7690.000
879.9440, 7660.000
881.0730, 7656.000
882.2020, 7619.000
883.3300, 7697.000
884.4590, 7568.000
885.5870, 7609.000
886.7150, 7447.000
887.8430, 7426.000
888.9710, 7513.000
890.0990, 7374.000
891.2260, 7342.000
892.3530, 7385.000
893.4810, 7289.440
894.6080, 7354.000
895.7340, 7229.000
896.8610, 7314.000
897.9880, 7337.000
899.1140, 7251.000
900.2400, 7218.000
901.3660, 7271.000
902.4920, 7184.000
903.6180, 7248.000
904.7430, 7254.000
905.8690, 7337.000
906.9940, 7235.000
908.1190, 7272.000
909.2440, 7323.000
910.3690, 7292.000
911.4930, 7349.000
912.6180, 7334.000
913.7420, 7292.000
914.8660, 7287.000
915.9900, 7303.000
917.1140, 7247.000
918.2380, 7262.000
919.3610, 7321.000
920.4850, 7374.000
921.6080, 7324.000
922.7310, 7482.000
923.8540, 7374.000
924.9760, 7381.000
926.0990, 7475.000
927.2210, 7514.000
928.3440, 7590.000
929.4660, 7634.113
930.5880, 7671.392
931.7090, 7711.000
932.8310, 7760.000
933.9520, 7792.000
935.0740, 7885.000
936.1950, 8043.000
937.3160, 8037.000
938.4360, 8085.000
939.5570, 8364.000
940.6780, 8402.000
941.7980, 8493.000
942.9180, 8740.000
944.0380, 9110.000
945.1580, 9482.000
946.2780, 9934.000
947.3970, 10591.00
948.5170, 11394.00
949.6360, 12308.00
950.7550, 13272.00
951.8740, 14290.00
952.9930, 15228.00
954.1110, 15940.00
955.2300, 16066.00
956.3480, 15989.00
957.4660, 15656.00
958.5840, 15129.00
959.7020, 14438.00
960.8190, 14216.00
961.9370, 13892.00
963.0540, 13887.00
964.1710, 13854.00
965.2880, 13707.00
966.4050, 13592.00
967.5220, 13519.00
968.6380, 13292.00
969.7550, 13180.00
970.8710, 13216.00
971.9870, 13094.00
973.1030, 13145.00
974.2190, 13247.00
975.3340, 13303.00
976.4500, 13381.00
977.5650, 13420.00
978.6800, 13541.00
979.7950, 13582.00
980.9100, 13724.00
982.0250, 13537.00
983.1390, 13369.00
984.2530, 12751.00
985.3680, 12196.00
986.4820, 11646.00
987.5950, 10927.00
988.7090, 10456.00
989.8230, 10004.00
990.9360, 9545.000
992.0490, 9157.000
993.1620, 9175.000
994.2750, 8995.000
995.3880, 9014.000
996.5010, 8807.000
997.6130, 8792.000
998.7250, 8912.000
999.8370, 8930.000
1000.949, 9100.000
1002.061, 9241.000
1003.173, 9652.000
1004.284, 9861.000
1005.396, 10280.00
1006.507, 10612.00
1007.618, 11034.00
1008.729, 11274.00
1009.839, 11722.00
1010.950, 11780.00
1012.060, 11743.00
1013.171, 11611.00
1014.281, 11157.00
1015.391, 10979.00
1016.500, 10674.00
1017.610, 10167.00
1018.719, 9883.000
1019.829, 9486.000
1020.938, 9150.000
1022.047, 8860.000
1023.156, 8615.271
1024.264, 8405.000
1025.373, 8263.000
1026.481, 8172.000
1027.589, 8089.000
1028.697, 7985.000
1029.805, 7944.257
1030.913, 7955.000
1032.020, 7883.000
1033.128, 7918.000
1034.235, 7936.000
1035.342, 7913.000
1036.449, 7978.438
1037.556, 7885.000
1038.663, 8055.000
1039.769, 8088.000
1040.875, 8072.000
1041.981, 8066.000
1043.087, 8102.000
1044.193, 8020.000
1045.299, 8005.000
1046.404, 8008.000
1047.510, 7896.000
1048.615, 7796.000
1049.720, 7839.000
1050.825, 7772.000
1051.930, 7729.000
1053.034, 7642.000
1054.139, 7636.000
1055.243, 7638.000
1056.347, 7625.000
1057.451, 7671.000
1058.555, 7561.000
1059.658, 7568.485
1060.762, 7486.000
1061.865, 7477.000
1062.968, 7487.000
1064.071, 7401.000
1065.174, 7497.000
1066.277, 7566.000
1067.380, 7534.000
1068.482, 7606.022
1069.584, 7567.000
1070.686, 7639.000
1071.788, 7717.000
1072.890, 7697.000
1073.992, 7664.000
1075.093, 7714.000
1076.194, 7654.000
1077.295, 7666.000
1078.396, 7652.000
1079.497, 7645.000
1080.598, 7470.000
1081.698, 7507.000
1082.799, 7456.000
1083.899, 7456.000
1084.999, 7474.000
1086.099, 7382.000
1087.199, 7333.000
1088.298, 7382.000
1089.398, 7218.000
1090.497, 7147.000
1091.596, 7205.000
1092.695, 7143.000
1093.794, 7217.000
1094.892, 7244.000
1095.991, 7035.000
1097.089, 7099.000
1098.187, 7195.000
1099.285, 6976.000
1100.383, 7140.000
1101.481, 7041.000
1102.579, 7023.000
1103.676, 7065.000
1104.773, 7040.000
1105.870, 7051.000
1106.967, 6990.000
1108.064, 6962.000
1109.161, 6969.518
1110.257, 6946.546
1111.353, 6993.000
1112.449, 6960.000
1113.545, 7000.000
1114.641, 7031.000
1115.737, 6947.000
1116.832, 7083.000
1117.928, 6993.000
1119.023, 6978.000
1120.118, 6922.000
1121.213, 6962.000
1122.308, 6965.000
1123.402, 6999.000
1124.497, 7036.000
1125.591, 6975.000
1126.685, 7015.000
1127.779, 6942.000
1128.873, 7022.000
1129.967, 6998.000
1131.060, 6947.000
1132.153, 6934.000
1133.247, 6977.000
1134.340, 6891.000
1135.433, 6962.000
1136.525, 7016.000
1137.618, 6981.000
1138.710, 6896.000
1139.802, 7011.000
1140.895, 6898.000
1141.987, 6933.000
1143.078, 6919.000
1144.170, 6914.000
1145.261, 6928.000
1146.353, 6953.000
1147.444, 6924.000
1148.535, 6933.563
1149.626, 6967.000
1150.716, 6916.000
1151.807, 6885.000
1152.897, 6874.000
1153.988, 6952.000
1155.078, 6892.000
1156.168, 6940.000
1157.257, 6911.000
1158.347, 6917.000
1159.436, 6974.000
1160.526, 6942.227
1161.615, 6931.000
1162.704, 6928.000
1163.793, 6920.000
1164.881, 6908.000
1165.970, 6885.000
1167.058, 6837.000
1168.147, 6891.000
1169.235, 7024.000
1170.323, 6934.000
1171.410, 6928.000
1172.498, 6838.000
1173.585, 6901.000
1174.673, 6899.000
1175.760, 6881.000
1176.847, 6950.000
1177.934, 7027.000
1179.020, 6903.000
1180.107, 6945.000
1181.193, 7027.000
1182.279, 6846.000
1183.365, 6885.000
1184.451, 6952.000
1185.537, 6899.000
1186.623, 6865.000
1187.708, 6855.000
1188.793, 6865.000
1189.878, 6862.000
1190.963, 6846.000
1192.048, 6933.000
1193.133, 6854.000
1194.217, 6958.000
1195.302, 6837.000
1196.386, 6866.000
1197.470, 6854.000
1198.554, 6859.000
1199.638, 6862.000
1200.721, 6873.000
1201.805, 6800.000
1202.888, 6859.000
1203.971, 7000.000
1205.054, 6908.292
1206.137, 6941.000
1207.219, 6837.000
1208.302, 6934.000
1209.384, 6913.000
1210.466, 7052.000
1211.548, 6985.000
1212.630, 6944.000
1213.712, 6922.000
1214.794, 6911.000
1215.875, 6939.000
1216.956, 6939.000
1218.037, 6972.000
1219.118, 6961.596
1220.199, 6974.331
1221.280, 6937.000
1222.360, 6965.000
1223.441, 6941.000
1224.521, 6892.000
1225.601, 6957.000
1226.681, 6946.000
1227.760, 6871.000
1228.840, 6942.000
1229.919, 6896.000
1230.999, 7000.000
1232.078, 6996.000
1233.157, 6984.000
1234.236, 6905.000
1235.314, 6940.000
1236.393, 6941.000
1237.471, 6919.000
1238.549, 7046.000
1239.627, 6957.000
1240.705, 6940.000
1241.783, 7069.000
1242.860, 7041.000
1243.938, 7072.000
1245.015, 6918.000
1246.092, 6888.000
1247.169, 6904.000
1248.246, 6960.000
1249.323, 6981.000
1250.399, 7003.735
1251.475, 7026.585
1252.552, 7033.000
1253.628, 7049.000
1254.703, 7045.066
1255.779, 7051.259
1256.855, 6981.000
1257.930, 7026.000
1259.005, 6998.000
1260.080, 7005.000
1261.155, 7009.000
1262.230, 6963.000
1263.305, 7020.000
1264.379, 7055.000
1265.454, 6941.000
1266.528, 6978.000
1267.602, 7016.000
1268.676, 6909.000
1269.750, 6988.000
1270.823, 6972.000
1271.897, 6978.000
1272.970, 6911.000
1274.043, 6858.000
1275.116, 6953.000
1276.189, 6929.000
1277.261, 6977.000
1278.334, 6998.000
1279.406, 6966.000
1280.478, 7038.000
1281.550, 6938.000
1282.622, 7018.000
1283.694, 6953.000
1284.766, 6955.000
1285.837, 7058.000
1286.908, 6867.000
1287.979, 6999.000
1289.050, 6858.000
1290.121, 6992.000
1291.192, 6914.000
1292.262, 6899.000
1293.333, 7008.000
1294.403, 6983.000
1295.473, 6951.000
1296.543, 7012.000
1297.613, 6972.000
1298.682, 6907.000
1299.752, 6918.000
1300.821, 6986.000
1301.890, 7031.000
1302.959, 7001.000
1304.028, 6977.000
1305.096, 6980.000
1306.165, 7022.000
1307.233, 6939.000
1308.301, 6950.000
1309.370, 7121.000
1310.437, 7011.000
1311.505, 7038.000
1312.573, 6906.000
1313.640, 7013.000
1314.708, 7086.000
1315.775, 7050.000
1316.842, 7040.000
1317.908, 6991.000
1318.975, 6949.000
1320.042, 7086.000
1321.108, 6969.000
1322.174, 7067.000
1323.240, 6835.000
1324.306, 6929.000
1325.372, 6985.000
1326.438, 7051.000
1327.503, 6971.000
1328.568, 7038.000
1329.634, 7003.000
1330.699, 6990.000
1331.763, 6983.000
1332.828, 6958.000
1333.893, 6986.000
1334.957, 7024.000
1336.021, 6927.000
1337.085, 6981.000
1338.149, 6943.000
1339.213, 6984.000
1340.277, 6956.000
1341.340, 6969.000
1342.404, 6982.000
1343.467, 7022.721
1344.530, 7024.134
1345.593, 7069.000
1346.655, 7100.000
1347.718, 6972.000
1348.780, 7117.000
1349.843, 6996.000
1350.905, 7057.000
1351.967, 6958.000
1353.028, 6972.008
1354.090, 7059.417
1355.152, 7108.119
1356.213, 7120.197
1357.274, 6985.951
1358.335, 7040.651
1359.396, 7019.631
1360.457, 6995.505
1361.517, 7076.800
1362.578, 6963.837
1363.638, 7043.460
1364.698, 7046.207
1365.758, 7084.138
1366.818, 7045.881
1367.878, 7031.155
1368.937, 7092.644
1369.997, 7111.933
1371.056, 7064.905
1372.115, 7105.074
1373.174, 6989.451
1374.232, 7010.538
1375.291, 7009.000
1376.350, 7000.000
1377.408, 6974.000
1378.466, 6989.921
1379.524, 6962.000
1380.582, 7023.000
1381.640, 7007.000
1382.697, 7043.000
1383.754, 6970.000
1384.812, 7032.000
1385.869, 7029.000
1386.926, 6938.000
1387.983, 6952.000
1389.039, 7003.000
1390.096, 7026.000
1391.152, 7079.000
1392.208, 7033.000
1393.264, 6974.000
1394.320, 7044.000
1395.376, 7020.000
1396.431, 7071.000
1397.487, 6942.000
1398.542, 7158.000
1399.597, 7103.000
1400.652, 6943.000
1401.707, 7073.000
1402.762, 7017.000
1403.816, 6965.000
1404.871, 7074.000
1405.925, 7053.000
1406.979, 7048.000
1408.033, 7039.000
1409.086, 7075.000
1410.140, 7018.000
1411.194, 7114.000
1412.247, 7129.000
1413.300, 7106.000
1414.353, 7074.000
1415.406, 7064.000
1416.458, 7021.000
1417.511, 7092.000
1418.563, 7065.000
1419.616, 7064.000
1420.668, 7122.000
1421.720, 7070.000
1422.772, 7031.000
1423.823, 7057.000
1424.875, 7005.000
1425.926, 7113.000
1426.977, 7115.000
1428.028, 7131.000
1429.079, 7164.000
1430.130, 7085.000
1431.180, 7027.000
1432.231, 7084.000
1433.281, 7021.000
1434.331, 7041.000
1435.381, 7088.000
1436.431, 7172.000
1437.481, 7187.000
1438.530, 7180.000
1439.580, 7127.000
1440.629, 7133.000
1441.678, 7125.000
1442.727, 7199.000
1443.776, 7116.000
1444.824, 7184.000
1445.873, 7193.000
1446.921, 7188.000
1447.969, 7188.000
1449.017, 7176.000
1450.065, 7199.000
1451.113, 7238.000
1452.160, 7132.000
1453.208, 7135.000
1454.255, 7241.000
1455.302, 7263.000
1456.349, 7163.000
1457.396, 7188.000
1458.443, 7168.858
1459.489, 7203.000
1460.535, 7183.000
1461.582, 7185.000
1462.628, 7237.000
1463.674, 7228.000
1464.719, 7238.000
1465.765, 7266.000
1466.810, 7137.000
1467.856, 7185.233
1468.901, 7181.516
1469.946, 7172.000
1470.991, 7199.000
1472.035, 7172.000
1473.080, 7190.461
1474.124, 7211.000
1475.169, 7210.000
1476.213, 7236.000
1477.257, 7248.000
1478.300, 7327.000
1479.344, 7233.000
1480.388, 7295.000
1481.431, 7231.000
1482.474, 7195.000
1483.517, 7218.000
1484.560, 7190.729
1485.603, 7254.000
1486.645, 7225.000
1487.688, 7217.000
1488.730, 7285.000
1489.772, 7287.000
1490.814, 7278.000
1491.856, 7278.000
1492.898, 7265.158
1493.939, 7287.000
1494.981, 7246.000
1496.022, 7269.000
1497.063, 7280.000
1498.104, 7306.000
1499.145, 7317.000
1500.186, 7354.000
1501.226, 7283.000
1502.266, 7373.000
1503.307, 7277.000
1504.347, 7297.000
1505.387, 7360.000
1506.426, 7338.000
1507.466, 7355.000
1508.505, 7312.000
1509.545, 7313.000
1510.584, 7296.000
1511.623, 7235.000
1512.662, 7353.000
1513.700, 7397.000
1514.739, 7305.000
1515.777, 7344.000
1516.815, 7372.000
1517.854, 7419.000
1518.892, 7322.000
1519.929, 7361.000
1520.967, 7287.000
1522.004, 7352.000
1523.042, 7362.000
1524.079, 7457.000
1525.116, 7436.000
1526.153, 7456.000
1527.190, 7355.748
1528.226, 7455.386
1529.263, 7516.329
1530.299, 7540.635
1531.335, 7418.618
1532.371, 7485.547
1533.407, 7476.756
1534.443, 7464.859
1535.478, 7558.371
1536.514, 7457.637
1537.549, 7549.476
1538.584, 7564.439
1539.619, 7614.588
1540.654, 7588.547
1541.689, 7586.038
1542.723, 7659.732
1543.757, 7691.226
1544.792, 7656.414
1545.826, 7708.789
1546.860, 7605.370
1547.893, 7638.649
1548.927, 7730.925
1549.960, 7699.922
1550.994, 7753.689
1552.027, 7775.164
1553.060, 7649.938
1554.093, 7779.840
1555.126, 7799.407
1556.158, 7705.673
1557.191, 7826.835
1558.223, 7748.720
1559.255, 7741.729
1560.287, 7788.266
1561.319, 7779.003
1562.350, 7857.704
1563.382, 7851.663
1564.413, 7838.040
##END=



