##NAMES=Amesite
##RRUFFID=R070132
##IDEAL CHEMISTRY=Mg_2_Al(AlSiO_5_)(OH)_4_
##LOCALITY=Saranovskii mine, Saranovskaya Village, Gornozavodskii area, Permskaya Oblast', Middle Urals, Russia
##OWNER=RRUFF
##SOURCE=Michael Scott
##DESCRIPTION=Purple transparent hexagonal prisms, polytype 2H2
##STATUS=The identification of this mineral is confirmed by single-crystal X-ray diffraction and chemical analysis.
##URL=rruff.info/R070132
##MEASURED CHEMISTRY=(Mg_1.87_[box]_0.05_Cr_0.05_Fe^2+^_0.03_)_Σ=2_(Al_0.98_Cr_0.02_)_Σ=1_(Si_1.05_Al_0.95_)O_5_(OH)_4_ ; OH estimated by difference
##PIN_ID=M00194
116.6560, 8538.000
117.8910, 8502.000
119.1260, 8326.000
120.3610, 8271.000
121.5960, 8290.000
122.8300, 8724.000
124.0640, 9051.000
125.2990, 9080.000
126.5330, 9251.000
127.7670, 9548.000
129.0000, 10259.00
130.2340, 11021.00
131.4670, 11472.00
132.7000, 11903.00
133.9330, 12020.00
135.1660, 11957.00
136.3990, 11617.00
137.6310, 10856.00
138.8640, 10153.00
140.0960, 9542.000
141.3280, 8904.000
142.5600, 8605.000
143.7910, 8270.000
145.0230, 8358.000
146.2540, 8258.000
147.4850, 8313.000
148.7160, 8264.000
149.9470, 8262.000
151.1780, 8291.422
152.4080, 8490.000
153.6380, 8350.000
154.8690, 8370.000
156.0980, 8430.000
157.3280, 8309.000
158.5580, 8341.000
159.7870, 8370.000
161.0170, 8281.000
162.2460, 8370.000
163.4750, 8535.000
164.7030, 8714.000
165.9320, 8838.000
167.1600, 8831.000
168.3890, 8845.000
169.6170, 8928.000
170.8450, 9178.000
172.0730, 9197.000
173.3000, 9377.000
174.5280, 9365.000
175.7550, 9863.000
176.9820, 9925.948
178.2090, 10365.00
179.4350, 10473.00
180.6620, 11102.00
181.8880, 11739.00
183.1150, 12492.00
184.3410, 13374.00
185.5670, 14589.00
186.7920, 15891.00
188.0180, 17537.00
189.2430, 19160.00
190.4690, 21217.00
191.6940, 23508.00
192.9180, 25957.00
194.1430, 28414.00
195.3680, 30718.00
196.5920, 32533.00
197.8160, 34319.36
199.0400, 35220.00
200.2640, 36970.00
201.4880, 38012.00
202.7110, 38599.00
203.9350, 38211.00
205.1580, 36932.00
206.3810, 34964.00
207.6040, 32513.00
208.8270, 29522.00
210.0490, 26355.00
211.2710, 23513.00
212.4940, 20612.00
213.7160, 18240.00
214.9370, 16337.00
216.1590, 15000.00
217.3810, 13690.00
218.6020, 12747.00
219.8230, 12162.00
221.0440, 11583.00
222.2650, 11297.00
223.4860, 11131.00
224.7060, 10866.00
225.9260, 10929.00
227.1470, 10931.00
228.3670, 11298.00
229.5860, 11548.00
230.8060, 12224.00
232.0260, 13405.00
233.2450, 14686.00
234.4640, 16363.00
235.6830, 18168.00
236.9020, 20111.00
238.1200, 22632.00
239.3390, 25995.00
240.5570, 30260.00
241.7750, 34738.00
242.9930, 38718.00
244.2110, 42029.00
245.4290, 42726.00
246.6460, 39230.00
247.8630, 32840.00
249.0810, 26954.00
250.2980, 22508.00
251.5140, 19846.00
252.7310, 18387.00
253.9470, 17635.00
255.1640, 17737.00
256.3800, 18008.00
257.5960, 18581.00
258.8120, 20097.00
260.0270, 21130.00
261.2430, 21298.00
262.4580, 21797.00
263.6730, 23436.00
264.8880, 25196.00
266.1030, 27263.00
267.3170, 29612.00
268.5320, 32390.00
269.7460, 35135.00
270.9600, 38114.00
272.1740, 40539.00
273.3880, 42700.00
274.6010, 43343.00
275.8150, 43476.00
277.0280, 42057.00
278.2410, 41004.00
279.4540, 39689.00
280.6670, 38800.00
281.8790, 37804.00
283.0920, 36832.00
284.3040, 35436.00
285.5160, 33597.00
286.7280, 31085.00
287.9400, 28232.00
289.1510, 25119.00
290.3630, 22701.00
291.5740, 20262.00
292.7850, 18008.00
293.9960, 16287.00
295.2070, 14850.00
296.4170, 13538.00
297.6280, 12468.00
298.8380, 12038.00
300.0480, 11451.00
301.2580, 11237.00
302.4680, 11109.00
303.6770, 11085.00
304.8870, 11160.00
306.0960, 11133.00
307.3050, 11342.00
308.5140, 11758.00
309.7230, 12242.00
310.9310, 12588.00
312.1400, 13221.00
313.3480, 13909.00
314.5560, 14400.00
315.7640, 14910.00
316.9720, 15326.00
318.1790, 15470.00
319.3870, 15330.00
320.5940, 15360.00
321.8010, 15763.00
323.0080, 16423.00
324.2150, 17310.00
325.4210, 19490.00
326.6280, 20258.00
327.8340, 20067.00
329.0400, 19947.00
330.2460, 19731.00
331.4510, 18552.00
332.6570, 17516.00
333.8620, 17214.00
335.0680, 17317.00
336.2730, 17434.00
337.4780, 18023.00
338.6820, 18748.00
339.8870, 19443.00
341.0910, 19997.00
342.2950, 20327.00
343.5000, 20470.00
344.7030, 20347.63
345.9070, 20081.33
347.1110, 19525.00
348.3140, 19006.00
349.5170, 18202.00
350.7200, 17384.00
351.9230, 16173.00
353.1260, 15030.00
354.3290, 14092.00
355.5310, 13469.83
356.7330, 12841.00
357.9350, 12779.00
359.1370, 12789.00
360.3390, 12964.00
361.5400, 12969.00
362.7420, 13126.00
363.9430, 13646.00
365.1440, 14133.00
366.3450, 14808.00
367.5460, 15637.74
368.7460, 16570.10
369.9470, 17704.00
371.1470, 18866.00
372.3470, 20353.00
373.5470, 21805.00
374.7460, 23809.00
375.9460, 25534.00
377.1450, 26833.00
378.3450, 27319.54
379.5440, 27911.00
380.7430, 27053.00
381.9410, 26268.00
383.1400, 25152.00
384.3380, 24164.00
385.5370, 23689.00
386.7350, 23391.00
387.9320, 23131.00
389.1300, 23065.00
390.3280, 23139.00
391.5250, 23302.00
392.7220, 23827.00
393.9190, 24467.00
395.1160, 25296.00
396.3130, 26372.00
397.5100, 27571.00
398.7060, 29399.00
399.9020, 31959.00
401.0980, 35847.00
402.2940, 40490.00
403.4900, 46232.00
404.6860, 51814.00
405.8810, 56409.00
407.0760, 59245.00
408.2710, 60184.00
409.4660, 59022.00
410.6610, 56806.00
411.8550, 54673.00
413.0500, 52132.00
414.2440, 48735.00
415.4380, 43998.00
416.6320, 38034.00
417.8260, 32667.00
419.0190, 28233.00
420.2130, 24514.00
421.4060, 21519.00
422.5990, 19445.00
423.7920, 17631.00
424.9850, 16529.00
426.1770, 15625.00
427.3700, 14910.00
428.5620, 14645.00
429.7540, 14311.00
430.9460, 14031.00
432.1380, 14008.00
433.3290, 13986.00
434.5210, 14290.00
435.7120, 14537.00
436.9030, 14519.00
438.0940, 14951.00
439.2850, 15121.00
440.4750, 15222.00
441.6660, 15334.00
442.8560, 15564.00
444.0460, 15477.00
445.2360, 15566.00
446.4260, 15620.00
447.6160, 15910.00
448.8050, 16130.00
449.9940, 16261.00
451.1830, 16230.00
452.3720, 16371.67
453.5610, 16383.00
454.7500, 16410.00
455.9380, 16351.00
457.1260, 16214.00
458.3150, 16381.00
459.5020, 16277.00
460.6900, 16252.00
461.8780, 16442.00
463.0650, 16549.00
464.2530, 16709.00
465.4400, 17381.00
466.6270, 17927.00
467.8130, 19220.00
469.0000, 20457.00
470.1870, 22447.00
471.3730, 24459.00
472.5590, 26670.00
473.7450, 28728.00
474.9310, 30640.00
476.1160, 32004.00
477.3020, 32227.00
478.4870, 32206.00
479.6720, 31127.00
480.8570, 29277.00
482.0420, 27962.00
483.2270, 26326.00
484.4110, 25456.00
485.5960, 24453.00
486.7800, 24009.00
487.9640, 23365.00
489.1480, 22892.00
490.3310, 22591.00
491.5150, 22247.00
492.6980, 21809.00
493.8810, 21280.00
495.0640, 19987.00
496.2470, 18920.00
497.4300, 17559.00
498.6120, 16546.00
499.7950, 15559.00
500.9770, 14739.00
502.1590, 14339.00
503.3410, 13911.00
504.5220, 13623.00
505.7040, 13564.00
506.8850, 13329.00
508.0660, 13344.00
509.2470, 13440.00
510.4280, 13502.00
511.6090, 13915.00
512.7890, 13996.00
513.9700, 14340.00
515.1500, 14685.00
516.3300, 15285.00
517.5100, 15977.00
518.6900, 16919.00
519.8690, 17772.00
521.0490, 19074.00
522.2280, 20392.00
523.4070, 21962.00
524.5860, 23354.00
525.7640, 24979.00
526.9430, 26351.00
528.1210, 27901.00
529.3000, 28481.00
530.4780, 28864.00
531.6560, 28751.00
532.8330, 27775.00
534.0110, 27035.00
535.1880, 25802.00
536.3650, 24795.00
537.5430, 23394.00
538.7190, 21917.00
539.8960, 20736.00
541.0730, 19807.00
542.2490, 18830.00
543.4250, 18069.00
544.6020, 17603.00
545.7780, 17109.00
546.9530, 16678.00
548.1290, 16300.80
549.3040, 15973.00
550.4800, 15660.00
551.6550, 15434.00
552.8300, 15244.00
554.0040, 14975.00
555.1790, 14784.00
556.3540, 14483.00
557.5280, 14284.00
558.7020, 13950.00
559.8760, 13812.00
561.0500, 13344.00
562.2230, 13187.00
563.3970, 13026.00
564.5700, 12809.00
565.7430, 12701.00
566.9160, 12639.00
568.0890, 12544.00
569.2620, 12452.00
570.4340, 12322.00
571.6070, 11913.00
572.7790, 11808.00
573.9510, 11430.00
575.1230, 11036.00
576.2940, 10963.00
577.4660, 10663.00
578.6370, 10392.00
579.8080, 10439.00
580.9790, 10323.00
582.1500, 9957.000
583.3210, 10000.00
584.4910, 9832.000
585.6620, 9715.000
586.8320, 9771.000
588.0020, 9636.000
589.1720, 9524.000
590.3410, 9624.000
591.5110, 9430.000
592.6800, 9445.000
593.8500, 9165.000
595.0190, 9183.000
596.1880, 9235.000
597.3560, 9164.000
598.5250, 9159.000
599.6930, 9142.000
600.8620, 9054.000
602.0300, 9046.000
603.1970, 8958.000
604.3650, 8971.000
605.5330, 8986.000
606.7000, 8969.000
607.8680, 9052.000
609.0350, 9020.000
610.2020, 8937.000
611.3680, 8911.000
612.5350, 8973.000
613.7010, 8917.662
614.8680, 8999.000
616.0340, 8922.000
617.2000, 9027.000
618.3660, 9080.000
619.5310, 8993.000
620.6970, 8969.000
621.8620, 9044.000
623.0270, 8951.000
624.1920, 9020.000
625.3570, 9050.000
626.5220, 8973.000
627.6860, 9081.000
628.8500, 9135.000
630.0140, 9031.000
631.1780, 9199.000
632.3420, 9065.000
633.5060, 9163.000
634.6700, 9084.000
635.8330, 9144.000
636.9960, 9285.000
638.1590, 9148.000
639.3220, 9246.000
640.4850, 9178.000
641.6470, 9324.000
642.8100, 9367.000
643.9720, 9408.000
645.1340, 9326.000
646.2960, 9361.000
647.4570, 9407.000
648.6190, 9408.000
649.7800, 9549.000
650.9420, 9453.000
652.1030, 9650.000
653.2640, 9717.000
654.4240, 9759.000
655.5850, 9803.000
656.7450, 10172.00
657.9060, 10040.39
659.0660, 10184.00
660.2260, 10118.00
661.3850, 10193.00
662.5450, 10548.00
663.7040, 10667.00
664.8640, 10893.00
666.0230, 10993.00
667.1820, 11245.00
668.3410, 11698.00
669.4990, 12060.00
670.6580, 12640.00
671.8160, 13021.00
672.9740, 13660.00
674.1320, 14539.00
675.2900, 15453.00
676.4480, 16600.00
677.6050, 17790.00
678.7630, 18916.00
679.9200, 20104.00
681.0770, 21362.00
682.2340, 22287.00
683.3900, 22968.00
684.5470, 23187.00
685.7030, 22726.00
686.8590, 22058.00
688.0150, 21270.00
689.1710, 20239.00
690.3270, 19608.00
691.4830, 19222.00
692.6380, 19227.00
693.7930, 19631.00
694.9480, 20393.00
696.1030, 21111.00
697.2580, 22487.00
698.4130, 24181.00
699.5670, 25889.00
700.7210, 28123.00
701.8750, 30573.00
703.0290, 32950.00
704.1830, 35175.00
705.3370, 37093.00
706.4900, 38178.00
707.6430, 38323.00
708.7970, 37240.00
709.9490, 35354.00
711.1020, 33302.00
712.2550, 31480.00
713.4070, 27016.00
714.5600, 24431.00
715.7120, 22144.00
716.8640, 20213.00
718.0160, 18670.00
719.1670, 17800.00
720.3190, 16280.00
721.4700, 15383.00
722.6210, 14450.00
723.7720, 13841.00
724.9230, 13248.00
726.0740, 12624.00
727.2250, 12357.00
728.3750, 11959.00
729.5250, 11523.00
730.6750, 11384.00
731.8250, 11203.00
732.9750, 11041.00
734.1240, 10887.18
735.2740, 10729.00
736.4230, 10588.00
737.5720, 10447.00
738.7210, 10332.00
739.8700, 10256.00
741.0190, 10115.00
742.1670, 10146.00
743.3150, 9989.000
744.4630, 10016.00
745.6110, 9965.000
746.7590, 9693.000
747.9070, 9826.000
749.0540, 9743.000
750.2020, 9777.000
751.3490, 9715.000
752.4960, 9698.949
753.6430, 9584.000
754.7890, 9670.000
755.9360, 9657.000
757.0820, 9662.000
758.2280, 9577.000
759.3740, 9549.000
760.5200, 9730.000
761.6660, 9608.000
762.8120, 9641.000
763.9570, 9717.000
765.1020, 9696.000
766.2470, 9713.000
767.3920, 9960.000
768.5370, 9895.000
769.6810, 9973.000
770.8260, 9899.000
771.9700, 9962.000
773.1140, 10161.00
774.2580, 10215.00
775.4020, 10437.00
776.5460, 10587.00
777.6890, 10750.05
778.8320, 10855.00
779.9750, 11077.00
781.1180, 11209.00
782.2610, 11276.00
783.4040, 11241.00
784.5460, 11362.00
785.6890, 11452.00
786.8310, 11583.00
787.9730, 11561.00
789.1150, 11557.00
790.2560, 11533.00
791.3980, 11476.00
792.5390, 11440.00
793.6810, 11466.00
794.8220, 11386.00
795.9630, 11434.00
797.1030, 11360.00
798.2440, 11480.00
799.3840, 11468.00
800.5240, 11711.00
801.6650, 11845.00
802.8040, 12238.00
803.9440, 12281.00
805.0840, 12682.00
806.2230, 12900.00
807.3630, 13515.00
808.5020, 13581.00
809.6410, 14116.00
810.7790, 14790.00
811.9180, 15372.00
813.0570, 15963.00
814.1950, 16663.00
815.3330, 17528.00
816.4710, 18166.00
817.6090, 19021.00
818.7470, 20049.00
819.8840, 20831.00
821.0220, 21820.00
822.1590, 22823.00
823.2960, 23459.00
824.4330, 23935.00
825.5690, 24037.00
826.7060, 23469.00
827.8420, 22525.00
828.9790, 21718.00
830.1150, 20375.00
831.2510, 19227.00
832.3860, 17951.00
833.5220, 16933.00
834.6570, 15919.00
835.7930, 15076.00
836.9280, 14359.00
838.0630, 13964.00
839.1980, 13281.00
840.3320, 12958.00
841.4670, 12431.00
842.6010, 12211.00
843.7350, 11841.00
844.8690, 11639.00
846.0030, 11385.59
847.1370, 11145.00
848.2700, 10939.00
849.4040, 10739.40
850.5370, 10532.00
851.6700, 10484.00
852.8030, 10253.00
853.9360, 10223.00
855.0680, 10111.00
856.2000, 9891.000
857.3330, 9889.000
858.4650, 9788.000
859.5970, 9807.000
860.7290, 9780.000
861.8600, 9774.000
862.9920, 9690.000
864.1230, 9694.000
865.2540, 9525.000
866.3850, 9456.000
867.5160, 9490.000
868.6460, 9476.000
869.7770, 9604.000
870.9070, 9642.000
872.0370, 9518.000
873.1670, 9790.000
874.2970, 9703.000
875.4270, 9708.000
876.5570, 9785.000
877.6860, 9742.000
878.8150, 9653.000
879.9440, 9770.000
881.0730, 9857.000
882.2020, 9685.000
883.3300, 9816.000
884.4590, 9786.000
885.5870, 9561.000
886.7150, 9725.000
887.8430, 9675.000
888.9710, 9721.000
890.0990, 9611.000
891.2260, 9451.000
892.3530, 9592.000
893.4810, 9457.000
894.6080, 9441.000
895.7340, 9380.000
896.8610, 9316.000
897.9880, 9327.000
899.1140, 9261.000
900.2400, 9353.000
901.3660, 9296.000
902.4920, 9330.000
903.6180, 9340.000
904.7430, 9294.000
905.8690, 9326.000
906.9940, 9363.000
908.1190, 9232.000
909.2440, 9392.000
910.3690, 9384.000
911.4930, 9287.000
912.6180, 9243.000
913.7420, 9316.000
914.8660, 9258.000
915.9900, 9291.995
917.1140, 9197.000
918.2380, 9314.000
919.3610, 9390.000
920.4850, 9369.000
921.6080, 9342.000
922.7310, 9371.000
923.8540, 9386.000
924.9760, 9411.000
926.0990, 9376.000
927.2210, 9373.000
928.3440, 9436.678
929.4660, 9465.000
930.5880, 9582.000
931.7090, 9667.000
932.8310, 9761.000
933.9520, 9891.000
935.0740, 9867.000
936.1950, 10055.00
937.3160, 10051.00
938.4360, 10296.00
939.5570, 10380.00
940.6780, 10478.00
941.7980, 10675.00
942.9180, 10912.00
944.0380, 11360.00
945.1580, 11629.00
946.2780, 12153.00
947.3970, 12606.00
948.5170, 13242.00
949.6360, 14047.00
950.7550, 14886.00
951.8740, 15650.00
952.9930, 16332.00
954.1110, 16819.82
955.2300, 17271.00
956.3480, 17445.00
957.4660, 17572.00
958.5840, 17498.00
959.7020, 17843.00
960.8190, 18035.00
961.9370, 18488.00
963.0540, 18790.00
964.1710, 19337.00
965.2880, 19407.00
966.4050, 19599.00
967.5220, 19699.00
968.6380, 19567.00
969.7550, 19591.00
970.8710, 19556.00
971.9870, 19553.00
973.1030, 19638.00
974.2190, 19707.00
975.3340, 19874.00
976.4500, 20227.00
977.5650, 20820.00
978.6800, 20872.00
979.7950, 20990.00
980.9100, 20929.00
982.0250, 20492.00
983.1390, 20025.00
984.2530, 19237.00
985.3680, 17651.00
986.4820, 16635.00
987.5950, 15460.00
988.7090, 14685.00
989.8230, 13861.00
990.9360, 13126.00
992.0490, 12721.00
993.1620, 12197.00
994.2750, 12040.00
995.3880, 11768.00
996.5010, 11830.00
997.6130, 11914.00
998.7250, 11889.00
999.8370, 11924.00
1000.949, 12157.00
1002.061, 12452.00
1003.173, 12700.00
1004.284, 13249.00
1005.396, 13579.00
1006.507, 13993.69
1007.618, 14436.00
1008.729, 14783.00
1009.839, 14868.00
1010.950, 15139.00
1012.060, 14981.00
1013.171, 14810.00
1014.281, 14744.00
1015.391, 13857.00
1016.500, 13433.00
1017.610, 12942.00
1018.719, 12346.00
1019.829, 11974.00
1020.938, 11588.00
1022.047, 11288.00
1023.156, 10916.00
1024.264, 10614.00
1025.373, 10616.00
1026.481, 10444.00
1027.589, 10248.00
1028.697, 10152.00
1029.805, 10048.00
1030.913, 10087.00
1032.020, 10078.85
1033.128, 10090.08
1034.235, 10151.00
1035.342, 10166.00
1036.449, 10121.00
1037.556, 10152.00
1038.663, 10094.00
1039.769, 10123.00
1040.875, 10181.00
1041.981, 10000.00
1043.087, 10121.00
1044.193, 10157.00
1045.299, 10100.00
1046.404, 10176.00
1047.510, 9952.000
1048.615, 9896.000
1049.720, 9847.000
1050.825, 9828.000
1051.930, 9673.000
1053.034, 9736.000
1054.139, 9633.000
1055.243, 9687.000
1056.347, 9550.000
1057.451, 9671.000
1058.555, 9485.000
1059.658, 9525.000
1060.762, 9631.000
1061.865, 9389.000
1062.968, 9485.000
1064.071, 9490.000
1065.174, 9594.000
1066.277, 9655.000
1067.380, 9574.000
1068.482, 9658.554
1069.584, 9612.811
1070.686, 9680.000
1071.788, 9592.000
1072.890, 9551.000
1073.992, 9612.000
1075.093, 9694.000
1076.194, 9642.000
1077.295, 9604.000
1078.396, 9675.000
1079.497, 9508.000
1080.598, 9604.000
1081.698, 9558.000
1082.799, 9452.000
1083.899, 9455.000
1084.999, 9374.000
1086.099, 9270.000
1087.199, 9241.000
1088.298, 9185.493
1089.398, 9164.000
1090.497, 9121.000
1091.596, 9115.000
1092.695, 9072.000
1093.794, 9075.000
1094.892, 9059.000
1095.991, 9083.000
1097.089, 9023.000
1098.187, 9013.000
1099.285, 9024.000
1100.383, 8921.000
1101.481, 9067.000
1102.579, 8882.000
1103.676, 8966.000
1104.773, 8916.000
1105.870, 8835.000
1106.967, 8977.000
1108.064, 8915.000
1109.161, 8902.000
1110.257, 8933.000
1111.353, 8972.000
1112.449, 8874.000
1113.545, 8841.000
1114.641, 8870.000
1115.737, 8952.000
1116.832, 8979.000
1117.928, 9001.000
1119.023, 8936.000
1120.118, 8956.000
1121.213, 8945.278
1122.308, 8964.000
1123.402, 8910.000
1124.497, 8923.000
1125.591, 8837.000
1126.685, 8763.000
1127.779, 8839.000
1128.873, 8702.000
1129.967, 8872.000
1131.060, 8916.000
1132.153, 8842.000
1133.247, 8727.000
1134.340, 8878.000
1135.433, 8766.000
1136.525, 8767.000
1137.618, 8834.000
1138.710, 8830.000
1139.802, 8832.000
1140.895, 8826.948
1141.987, 8662.000
1143.078, 8762.000
1144.170, 8777.000
1145.261, 8723.000
1146.353, 8855.000
1147.444, 8808.000
1148.535, 8723.000
1149.626, 8649.000
1150.716, 8582.000
1151.807, 8769.000
1152.897, 8607.000
1153.988, 8702.000
1155.078, 8680.000
1156.168, 8691.000
1157.257, 8646.000
1158.347, 8690.000
1159.436, 8731.000
1160.526, 8737.000
1161.615, 8675.000
1162.704, 8637.000
1163.793, 8637.000
1164.881, 8609.580
1165.970, 8724.000
1167.058, 8621.000
1168.147, 8672.000
1169.235, 8724.000
1170.323, 8632.000
1171.410, 8767.000
1172.498, 8801.000
1173.585, 8584.000
1174.673, 8632.000
1175.760, 8873.000
1176.847, 8733.000
1177.934, 8687.000
1179.020, 8694.000
1180.107, 8687.000
1181.193, 8652.000
1182.279, 8670.000
1183.365, 8726.000
1184.451, 8714.000
1185.537, 8609.000
1186.623, 8571.000
1187.708, 8649.000
1188.793, 8578.000
1189.878, 8612.116
1190.963, 8665.000
1192.048, 8633.000
1193.133, 8629.000
1194.217, 8631.000
1195.302, 8652.000
1196.386, 8629.593
1197.470, 8621.000
1198.554, 8618.000
1199.638, 8603.000
1200.721, 8643.000
1201.805, 8639.000
1202.888, 8659.000
1203.971, 8646.363
1205.054, 8638.774
1206.137, 8635.000
1207.219, 8609.000
1208.302, 8662.000
1209.384, 8654.000
1210.466, 8720.000
1211.548, 8672.000
1212.630, 8564.000
1213.712, 8703.000
1214.794, 8642.000
1215.875, 8622.000
1216.956, 8676.000
1218.037, 8530.000
1219.118, 8612.000
1220.199, 8641.000
1221.280, 8634.000
1222.360, 8633.000
1223.441, 8582.000
1224.521, 8638.000
1225.601, 8668.000
1226.681, 8606.000
1227.760, 8648.000
1228.840, 8675.000
1229.919, 8621.000
1230.999, 8654.000
1232.078, 8691.000
1233.157, 8664.000
1234.236, 8761.000
1235.314, 8768.000
1236.393, 8571.000
1237.471, 8804.000
1238.549, 8822.000
1239.627, 8619.000
1240.705, 8703.000
1241.783, 8690.000
1242.860, 8650.000
1243.938, 8677.000
1245.015, 8788.000
1246.092, 8726.000
1247.169, 8788.000
1248.246, 8774.000
1249.323, 8737.000
1250.399, 8756.000
1251.475, 8671.000
1252.552, 8590.000
1253.628, 8793.000
1254.703, 8740.000
1255.779, 8730.000
1256.855, 8622.000
1257.930, 8779.000
1259.005, 8633.000
1260.080, 8757.000
1261.155, 8675.000
1262.230, 8736.000
1263.305, 8590.000
1264.379, 8690.000
1265.454, 8797.000
1266.528, 8736.000
1267.602, 8695.000
1268.676, 8772.000
1269.750, 8672.000
1270.823, 8734.000
1271.897, 8833.000
1272.970, 8645.000
1274.043, 8785.000
1275.116, 8647.000
1276.189, 8718.000
1277.261, 8687.000
1278.334, 8711.000
1279.406, 8690.000
1280.478, 8696.000
1281.550, 8689.000
1282.622, 8601.000
1283.694, 8690.000
1284.766, 8526.000
1285.837, 8690.000
1286.908, 8677.000
1287.979, 8737.000
1289.050, 8648.000
1290.121, 8676.000
1291.192, 8678.000
1292.262, 8645.000
1293.333, 8764.000
1294.403, 8664.000
1295.473, 8738.000
1296.543, 8597.000
1297.613, 8769.000
1298.682, 8609.000
1299.752, 8714.000
1300.821, 8680.000
1301.890, 8633.000
1302.959, 8733.000
1304.028, 8772.000
1305.096, 8713.000
1306.165, 8613.000
1307.233, 8668.000
1308.301, 8721.000
1309.370, 8818.000
1310.437, 8687.000
1311.505, 8794.000
1312.573, 8686.000
1313.640, 8681.000
1314.708, 8660.000
1315.775, 8654.137
1316.842, 8657.360
1317.908, 8657.982
1318.975, 8663.000
1320.042, 8683.000
1321.108, 8670.930
1322.174, 8692.946
1323.240, 8688.000
1324.306, 8736.000
1325.372, 8697.000
1326.438, 8679.000
1327.503, 8733.000
1328.568, 8661.000
1329.634, 8716.000
1330.699, 8648.000
1331.763, 8606.000
1332.828, 8810.000
1333.893, 8632.000
1334.957, 8841.000
1336.021, 8613.000
1337.085, 8686.000
1338.149, 8739.000
1339.213, 8742.000
1340.277, 8559.000
1341.340, 8652.000
1342.404, 8706.000
1343.467, 8604.000
1344.530, 8743.000
1345.593, 8722.000
1346.655, 8724.000
1347.718, 8651.000
1348.780, 8625.000
1349.843, 8656.000
1350.905, 8781.000
1351.967, 8630.000
1353.028, 8787.000
1354.090, 8639.000
1355.152, 8637.000
1356.213, 8764.000
1357.274, 8682.000
1358.335, 8644.000
1359.396, 8698.000
1360.457, 8663.000
1361.517, 8761.000
1362.578, 8769.000
1363.638, 8572.000
1364.698, 8657.000
1365.758, 8712.000
1366.818, 8792.000
1367.878, 8651.000
1368.937, 8693.000
1369.997, 8723.000
1371.056, 8609.000
1372.115, 8719.000
1373.174, 8722.000
1374.232, 8717.000
1375.291, 8580.000
1376.350, 8698.000
1377.408, 8674.000
1378.466, 8649.000
1379.524, 8675.000
1380.582, 8745.000
1381.640, 8690.000
1382.697, 8751.000
1383.754, 8767.000
1384.812, 8754.000
1385.869, 8815.000
1386.926, 8819.723
1387.983, 8765.000
1389.039, 8835.000
1390.096, 8793.000
1391.152, 8722.000
1392.208, 8791.000
1393.264, 8696.000
1394.320, 8944.000
1395.376, 8842.955
1396.431, 8881.544
1397.487, 8792.000
1398.542, 8846.000
1399.597, 8845.000
1400.652, 8763.000
1401.707, 8720.000
1402.762, 8768.000
1403.816, 8739.000
1404.871, 8859.000
1405.925, 8803.000
1406.979, 8698.000
1408.033, 8907.000
1409.086, 8753.000
1410.140, 8792.000
1411.194, 8846.000
1412.247, 8810.000
1413.300, 8892.000
1414.353, 8760.000
1415.406, 8864.000
1416.458, 8831.000
1417.511, 8724.000
1418.563, 8751.000
1419.616, 8805.000
1420.668, 8797.000
1421.720, 8841.370
1422.772, 8843.920
1423.823, 8902.000
1424.875, 8836.000
1425.926, 8863.000
1426.977, 8833.000
1428.028, 8628.000
1429.079, 8819.000
1430.130, 8846.000
1431.180, 8721.000
1432.231, 8823.000
1433.281, 8802.000
1434.331, 8763.233
1435.381, 8765.000
1436.431, 8730.000
1437.481, 8758.000
1438.530, 8788.000
1439.580, 8864.000
1440.629, 8930.000
1441.678, 8794.000
1442.727, 8977.000
1443.776, 8884.000
1444.824, 8936.000
1445.873, 8902.000
1446.921, 8920.000
1447.969, 8816.000
1449.017, 8911.000
1450.065, 8769.000
1451.113, 8954.000
1452.160, 8800.000
1453.208, 8935.000
1454.255, 8786.000
1455.302, 8966.000
1456.349, 8921.000
1457.396, 9087.000
1458.443, 8896.000
1459.489, 8999.000
1460.535, 8961.000
1461.582, 8995.000
1462.628, 8869.000
1463.674, 8866.000
1464.719, 9005.000
1465.765, 8890.000
1466.810, 9104.000
1467.856, 8925.000
1468.901, 8926.000
1469.946, 8961.000
1470.991, 9089.000
1472.035, 9002.000
1473.080, 8984.000
1474.124, 8997.000
1475.169, 8953.000
1476.213, 8982.000
1477.257, 8971.000
1478.300, 8964.000
1479.344, 9008.000
1480.388, 8973.000
1481.431, 8985.000
1482.474, 9038.000
1483.517, 8919.000
1484.560, 8936.000
1485.603, 9060.000
1486.645, 9095.000
1487.688, 8872.000
1488.730, 9017.000
1489.772, 8891.000
1490.814, 8848.000
1491.856, 9088.000
1492.898, 9052.000
1493.939, 8963.000
1494.981, 9127.000
1496.022, 8919.306
1497.063, 9069.591
1498.104, 9155.431
1499.145, 9180.288
1500.186, 8961.514
1501.226, 9057.336
1502.266, 9027.081
1503.307, 8991.659
1504.347, 9131.760
1505.387, 8948.418
1506.426, 9085.732
1507.466, 9095.048
1508.505, 9162.943
1509.545, 9103.986
1510.584, 9084.208
1511.623, 9191.326
1512.662, 9228.181
1513.700, 9154.614
1514.739, 9226.234
1515.777, 9130.000
1516.815, 9135.624
1517.854, 9158.646
1518.892, 9179.000
1519.929, 9178.000
1520.967, 9214.000
1522.004, 9184.000
1523.042, 9155.000
1524.079, 9272.000
1525.116, 9101.000
1526.153, 9132.000
1527.190, 9192.000
1528.226, 9248.000
1529.263, 9167.000
1530.299, 9266.000
1531.335, 9189.000
1532.371, 9292.000
1533.407, 9191.000
1534.443, 9215.370
1535.478, 9274.000
1536.514, 9233.000
1537.549, 9171.000
1538.584, 9217.000
1539.619, 9209.880
1540.654, 9396.000
1541.689, 9306.000
1542.723, 9310.000
1543.757, 9301.459
1544.792, 9454.228
1545.826, 9542.545
1546.860, 9569.880
1547.893, 9353.578
1548.927, 9451.881
1549.960, 9424.102
1550.994, 9391.158
1552.027, 9533.733
1553.060, 9352.868
1554.093, 9492.660
1555.126, 9504.452
1556.158, 9574.820
1557.191, 9518.340
1558.223, 9501.034
1559.255, 9610.626
1560.287, 9649.953
1561.319, 9578.863
1562.350, 9652.950
1563.382, 9467.647
1564.413, 9761.000
##END=



