##NAMES=Amesite
##RRUFFID=R070132
##IDEAL CHEMISTRY=Mg_2_Al(AlSiO_5_)(OH)_4_
##LOCALITY=Saranovskii mine, Saranovskaya Village, Gornozavodskii area, Permskaya Oblast', Middle Urals, Russia
##OWNER=RRUFF
##SOURCE=Michael Scott
##DESCRIPTION=Purple transparent hexagonal prisms, polytype 2H2
##STATUS=The identification of this mineral is confirmed by single-crystal X-ray diffraction and chemical analysis.
##URL=rruff.info/R070132
##MEASURED CHEMISTRY=(Mg_1.87_[box]_0.05_Cr_0.05_Fe^2+^_0.03_)_Σ=2_(Al_0.98_Cr_0.02_)_Σ=1_(Si_1.05_Al_0.95_)O_5_(OH)_4_ ; OH estimated by difference
##PIN_ID=M00364
147.4850, 7097.000
148.7160, 7132.000
149.9470, 7106.000
151.1780, 7218.000
152.4080, 7325.000
153.6380, 7195.000
154.8690, 7174.000
156.0980, 7310.000
157.3280, 7139.000
158.5580, 7233.000
159.7870, 7262.000
161.0170, 7123.000
162.2460, 7236.000
163.4750, 7374.000
164.7030, 7418.000
165.9320, 7598.000
167.1600, 7518.000
168.3890, 7507.000
169.6170, 7557.000
170.8450, 7622.000
172.0730, 7687.000
173.3000, 7590.000
174.5280, 7779.000
175.7550, 7664.000
176.9820, 7818.000
178.2090, 8049.000
179.4350, 8188.000
180.6620, 8345.000
181.8880, 8632.000
183.1150, 8845.000
184.3410, 9209.000
185.5670, 9545.000
186.7920, 9947.000
188.0180, 10458.00
189.2430, 11102.00
190.4690, 11766.00
191.6940, 12491.00
192.9180, 13407.00
194.1430, 14340.00
195.3680, 15138.00
196.5920, 16258.00
197.8160, 17295.00
199.0400, 18843.00
200.2640, 20415.00
201.4880, 22279.00
202.7110, 24469.00
203.9350, 27158.00
205.1580, 29742.00
206.3810, 33323.00
207.6040, 36859.00
208.8270, 41510.00
210.0490, 46524.00
211.2710, 51900.00
212.4940, 56271.00
213.7160, 59044.00
214.9370, 58323.00
216.1590, 54368.00
217.3810, 47463.00
218.6020, 40492.00
219.8230, 33365.00
221.0440, 27615.00
222.2650, 22920.00
223.4860, 19503.00
224.7060, 16614.00
225.9260, 14798.00
227.1470, 13445.00
228.3670, 12389.00
229.5860, 11783.00
230.8060, 11138.00
232.0260, 10745.00
233.2450, 10418.00
234.4640, 10188.00
235.6830, 10034.00
236.9020, 9908.000
238.1200, 9853.000
239.3390, 9870.039
240.5570, 9905.754
241.7750, 10093.00
242.9930, 10165.00
244.2110, 10451.00
245.4290, 10451.20
246.6460, 10749.00
247.8630, 10444.00
249.0810, 10353.00
250.2980, 10187.00
251.5140, 10207.00
252.7310, 10345.00
253.9470, 10424.00
255.1640, 10640.00
256.3800, 10770.00
257.5960, 10752.00
258.8120, 10744.00
260.0270, 10467.00
261.2430, 10119.00
262.4580, 9627.000
263.6730, 9458.000
264.8880, 9375.000
266.1030, 9250.000
267.3170, 9157.000
268.5320, 9084.000
269.7460, 9283.000
270.9600, 9389.000
272.1740, 9365.000
273.3880, 9439.000
274.6010, 9568.000
275.8150, 9486.000
277.0280, 9504.000
278.2410, 9621.000
279.4540, 9567.000
280.6670, 9611.000
281.8790, 9737.545
283.0920, 9800.159
284.3040, 9989.000
285.5160, 10116.00
286.7280, 10229.00
287.9400, 10513.00
289.1510, 10745.00
290.3630, 10666.00
291.5740, 10392.00
292.7850, 10017.00
293.9960, 9480.000
295.2070, 8974.000
296.4170, 8517.000
297.6280, 8377.000
298.8380, 8204.000
300.0480, 8123.000
301.2580, 8118.000
302.4680, 8018.000
303.6770, 8028.136
304.8870, 7945.000
306.0960, 8037.000
307.3050, 8124.000
308.5140, 8145.000
309.7230, 8255.000
310.9310, 8434.000
312.1400, 8694.000
313.3480, 8951.000
314.5560, 9392.000
315.7640, 9426.000
316.9720, 9476.000
318.1790, 9474.000
319.3870, 9281.000
320.5940, 9645.000
321.8010, 9848.000
323.0080, 10114.00
324.2150, 10559.00
325.4210, 10935.00
326.6280, 11259.00
327.8340, 11643.00
329.0400, 11850.00
330.2460, 11850.00
331.4510, 11625.00
332.6570, 11741.00
333.8620, 12305.00
335.0680, 13176.00
336.2730, 14331.00
337.4780, 15043.00
338.6820, 14548.00
339.8870, 13316.00
341.0910, 12195.00
342.2950, 11436.00
343.5000, 10766.00
344.7030, 10158.00
345.9070, 9805.000
347.1110, 9444.000
348.3140, 9239.000
349.5170, 9125.000
350.7200, 8847.000
351.9230, 8790.000
353.1260, 8618.000
354.3290, 8701.000
355.5310, 8547.000
356.7330, 8813.000
357.9350, 8850.000
359.1370, 8929.000
360.3390, 9008.000
361.5400, 9040.558
362.7420, 9102.328
363.9430, 9146.000
365.1440, 9219.000
366.3450, 9326.000
367.5460, 9458.000
368.7460, 9270.000
369.9470, 9464.000
371.1470, 9340.000
372.3470, 9359.000
373.5470, 9502.000
374.7460, 9668.000
375.9460, 10050.00
377.1450, 11045.00
378.3450, 11737.00
379.5440, 11431.00
380.7430, 11614.00
381.9410, 11621.00
383.1400, 11542.00
384.3380, 11565.00
385.5370, 11687.00
386.7350, 11778.00
387.9320, 11857.00
389.1300, 11934.00
390.3280, 12099.00
391.5250, 12210.00
392.7220, 12516.00
393.9190, 12616.00
395.1160, 12529.00
396.3130, 12334.00
397.5100, 12090.00
398.7060, 12111.00
399.9020, 12549.00
401.0980, 13105.00
402.2940, 13898.00
403.4900, 15092.00
404.6860, 16866.00
405.8810, 18489.00
407.0760, 19870.00
408.2710, 20856.00
409.4660, 20635.00
410.6610, 20408.00
411.8550, 19891.00
413.0500, 19742.00
414.2440, 20291.00
415.4380, 21086.00
416.6320, 22127.00
417.8260, 23937.00
419.0190, 25255.00
420.2130, 25921.00
421.4060, 24741.00
422.5990, 22588.00
423.7920, 19939.00
424.9850, 17520.00
426.1770, 15502.00
427.3700, 13969.00
428.5620, 13097.00
429.7540, 12573.00
430.9460, 12321.00
432.1380, 12165.00
433.3290, 12459.00
434.5210, 12809.00
435.7120, 13052.00
436.9030, 13582.00
438.0940, 13858.00
439.2850, 13893.00
440.4750, 13768.00
441.6660, 13275.00
442.8560, 12948.00
444.0460, 12394.00
445.2360, 12086.00
446.4260, 11987.00
447.6160, 12024.00
448.8050, 12126.00
449.9940, 12335.00
451.1830, 12335.00
452.3720, 12237.00
453.5610, 12383.00
454.7500, 12705.00
455.9380, 12950.00
457.1260, 12727.00
458.3150, 12789.00
459.5020, 12464.00
460.6900, 12116.00
461.8780, 11616.00
463.0650, 11258.00
464.2530, 11147.00
465.4400, 11036.00
466.6270, 11088.32
467.8130, 11274.00
469.0000, 11534.00
470.1870, 11903.00
471.3730, 12433.00
472.5590, 13206.00
473.7450, 14003.00
474.9310, 14791.00
476.1160, 15503.00
477.3020, 16215.00
478.4870, 16750.00
479.6720, 17536.00
480.8570, 18088.00
482.0420, 18992.00
483.2270, 19835.00
484.4110, 20759.00
485.5960, 21527.04
486.7800, 22355.00
487.9640, 23094.00
489.1480, 23769.00
490.3310, 24610.00
491.5150, 24893.00
492.6980, 24559.00
493.8810, 23320.00
495.0640, 21462.00
496.2470, 19617.00
497.4300, 17323.00
498.6120, 15155.00
499.7950, 13635.00
500.9770, 12756.00
502.1590, 12115.00
503.3410, 11483.00
504.5220, 11103.00
505.7040, 10756.00
506.8850, 10758.00
508.0660, 10591.00
509.2470, 10455.00
510.4280, 10650.00
511.6090, 10635.00
512.7890, 10818.00
513.9700, 10871.00
515.1500, 11128.00
516.3300, 11346.00
517.5100, 11813.00
518.6900, 12104.00
519.8690, 12662.00
521.0490, 13214.00
522.2280, 13984.00
523.4070, 14900.00
524.5860, 15843.00
525.7640, 16753.00
526.9430, 17849.00
528.1210, 19052.00
529.3000, 20577.00
530.4780, 21744.00
531.6560, 23019.00
532.8330, 24053.00
534.0110, 24708.00
535.1880, 25384.00
536.3650, 25266.00
537.5430, 25065.00
538.7190, 24599.00
539.8960, 23526.00
541.0730, 22555.00
542.2490, 21686.00
543.4250, 20517.00
544.6020, 19686.00
545.7780, 18950.00
546.9530, 18283.00
548.1290, 17463.00
549.3040, 16827.61
550.4800, 16132.71
551.6550, 15539.00
552.8300, 14835.00
554.0040, 14276.00
555.1790, 13691.00
556.3540, 13124.00
557.5280, 12623.00
558.7020, 12118.20
559.8760, 11668.00
561.0500, 11215.00
562.2230, 10876.00
563.3970, 10499.00
564.5700, 10342.00
565.7430, 10157.00
566.9160, 9958.000
568.0890, 9772.000
569.2620, 9494.000
570.4340, 9509.000
571.6070, 9339.000
572.7790, 9337.000
573.9510, 9278.000
575.1230, 9068.000
576.2940, 9162.000
577.4660, 8973.000
578.6370, 9051.000
579.8080, 8989.000
580.9790, 8782.000
582.1500, 8766.000
583.3210, 8814.000
584.4910, 8681.000
585.6620, 8678.000
586.8320, 8493.000
588.0020, 8654.000
589.1720, 8589.000
590.3410, 8606.000
591.5110, 8544.000
592.6800, 8487.000
593.8500, 8432.000
595.0190, 8486.000
596.1880, 8429.000
597.3560, 8428.000
598.5250, 8474.000
599.6930, 8434.000
600.8620, 8456.000
602.0300, 8445.000
603.1970, 8361.000
604.3650, 8472.000
605.5330, 8388.000
606.7000, 8336.000
607.8680, 8385.000
609.0350, 8478.000
610.2020, 8468.000
611.3680, 8573.000
612.5350, 8804.000
613.7010, 8834.000
614.8680, 9079.000
616.0340, 9400.000
617.2000, 9759.000
618.3660, 10236.00
619.5310, 10404.00
620.6970, 10815.00
621.8620, 11036.00
623.0270, 10799.00
624.1920, 10582.00
625.3570, 10252.00
626.5220, 9982.000
627.6860, 9696.000
628.8500, 9453.000
630.0140, 9360.000
631.1780, 9145.000
632.3420, 9026.000
633.5060, 8851.000
634.6700, 8878.000
635.8330, 8836.000
636.9960, 8829.000
638.1590, 8816.000
639.3220, 8827.782
640.4850, 8820.000
641.6470, 8893.000
642.8100, 8903.000
643.9720, 8973.000
645.1340, 8963.000
646.2960, 8946.000
647.4570, 8932.000
648.6190, 8974.000
649.7800, 9030.000
650.9420, 8985.000
652.1030, 8969.000
653.2640, 9075.000
654.4240, 9028.000
655.5850, 9199.000
656.7450, 9035.000
657.9060, 9202.000
659.0660, 9292.000
660.2260, 9244.000
661.3850, 9322.000
662.5450, 9413.252
663.7040, 9424.000
664.8640, 9646.000
666.0230, 9687.000
667.1820, 9827.000
668.3410, 10032.00
669.4990, 10266.15
670.6580, 10673.00
671.8160, 10895.00
672.9740, 11248.00
674.1320, 11615.00
675.2900, 12183.00
676.4480, 12684.00
677.6050, 13426.00
678.7630, 13940.00
679.9200, 14725.00
681.0770, 15468.00
682.2340, 16171.00
683.3900, 16169.00
684.5470, 16452.00
685.7030, 16194.00
686.8590, 15870.00
688.0150, 15135.00
689.1710, 14633.00
690.3270, 14007.00
691.4830, 13836.00
692.6380, 13723.00
693.7930, 13866.00
694.9480, 14209.00
696.1030, 14893.00
697.2580, 15948.00
698.4130, 17303.00
699.5670, 18709.00
700.7210, 20440.00
701.8750, 22353.00
703.0290, 24484.00
704.1830, 26184.00
705.3370, 27218.00
706.4900, 27444.50
707.6430, 27493.00
708.7970, 26177.00
709.9490, 24328.00
711.1020, 22353.00
712.2550, 20299.00
713.4070, 18414.00
714.5600, 16936.00
715.7120, 15528.00
716.8640, 14480.00
718.0160, 13553.00
719.1670, 12738.00
720.3190, 12304.00
721.4700, 11748.00
722.6210, 11359.00
723.7720, 10993.00
724.9230, 10718.00
726.0740, 10534.00
727.2250, 10435.00
728.3750, 10094.00
729.5250, 10077.00
730.6750, 9805.000
731.8250, 9771.000
732.9750, 9659.000
734.1240, 9555.000
735.2740, 9531.246
736.4230, 9407.000
737.5720, 9429.000
738.7210, 9364.000
739.8700, 9244.000
741.0190, 9267.000
742.1670, 9257.000
743.3150, 9186.000
744.4630, 9170.235
745.6110, 9147.000
746.7590, 9061.000
747.9070, 9048.000
749.0540, 8977.000
750.2020, 8977.000
751.3490, 8999.000
752.4960, 8988.000
753.6430, 8901.000
754.7890, 8944.000
755.9360, 8983.000
757.0820, 8895.000
758.2280, 9036.000
759.3740, 8975.000
760.5200, 8864.000
761.6660, 8922.000
762.8120, 8888.000
763.9570, 8965.000
765.1020, 8851.000
766.2470, 8889.000
767.3920, 8865.000
768.5370, 8925.000
769.6810, 8885.000
770.8260, 8968.000
771.9700, 8998.000
773.1140, 8962.000
774.2580, 9058.000
775.4020, 9066.000
776.5460, 9074.000
777.6890, 9153.000
778.8320, 9232.000
779.9750, 9142.000
781.1180, 9278.000
782.2610, 9323.000
783.4040, 9402.000
784.5460, 9509.000
785.6890, 9559.000
786.8310, 9657.000
787.9730, 9699.155
789.1150, 9650.000
790.2560, 9764.000
791.3980, 9777.000
792.5390, 9775.000
793.6810, 9844.000
794.8220, 9742.000
795.9630, 9792.000
797.1030, 9793.000
798.2440, 9766.000
799.3840, 9740.000
800.5240, 9931.000
801.6650, 9931.000
802.8040, 9941.000
803.9440, 10084.00
805.0840, 9905.000
806.2230, 10040.00
807.3630, 9990.000
808.5020, 10026.00
809.6410, 9855.000
810.7790, 9822.000
811.9180, 9702.000
813.0570, 9928.000
814.1950, 9912.000
815.3330, 10020.00
816.4710, 10002.00
817.6090, 9982.000
818.7470, 9996.000
819.8840, 10039.58
821.0220, 10207.00
822.1590, 10159.00
823.2960, 10279.00
824.4330, 10327.00
825.5690, 10221.00
826.7060, 10250.00
827.8420, 10372.00
828.9790, 10256.00
830.1150, 10259.00
831.2510, 10314.00
832.3860, 10305.00
833.5220, 10303.00
834.6570, 10296.24
835.7930, 10180.00
836.9280, 10220.00
838.0630, 10152.00
839.1980, 10055.00
840.3320, 10018.00
841.4670, 9968.000
842.6010, 9742.000
843.7350, 9658.000
844.8690, 9563.000
846.0030, 9437.000
847.1370, 9402.000
848.2700, 9254.000
849.4040, 9366.000
850.5370, 9359.000
851.6700, 9214.000
852.8030, 9091.000
853.9360, 9139.000
855.0680, 9223.000
856.2000, 9279.000
857.3330, 9252.493
858.4650, 9181.000
859.5970, 9220.000
860.7290, 9139.000
861.8600, 9216.000
862.9920, 9263.000
864.1230, 9199.000
865.2540, 9154.000
866.3850, 9120.000
867.5160, 9098.000
868.6460, 9148.000
869.7770, 9114.000
870.9070, 9047.000
872.0370, 9224.000
873.1670, 9338.000
874.2970, 9220.000
875.4270, 9260.000
876.5570, 9249.000
877.6860, 9341.000
878.8150, 9353.000
879.9440, 9558.000
881.0730, 9552.000
882.2020, 9723.000
883.3300, 9755.000
884.4590, 9598.000
885.5870, 9568.000
886.7150, 9553.000
887.8430, 9612.000
888.9710, 9433.000
890.0990, 9359.000
891.2260, 9347.000
892.3530, 9162.000
893.4810, 9296.000
894.6080, 9369.000
895.7340, 9227.000
896.8610, 9247.000
897.9880, 9024.000
899.1140, 9261.000
900.2400, 9108.000
901.3660, 9056.000
902.4920, 9122.000
903.6180, 9357.000
904.7430, 9063.000
905.8690, 9294.000
906.9940, 9254.000
908.1190, 9270.000
909.2440, 9242.000
910.3690, 9158.000
911.4930, 9161.000
912.6180, 9142.000
913.7420, 9219.000
914.8660, 9211.000
915.9900, 9062.000
917.1140, 9163.000
918.2380, 9113.000
919.3610, 9148.000
920.4850, 9157.000
921.6080, 9218.000
922.7310, 9256.000
923.8540, 9248.000
924.9760, 9322.000
926.0990, 9309.000
927.2210, 9334.000
928.3440, 9501.000
929.4660, 9660.000
930.5880, 9916.000
931.7090, 10078.00
932.8310, 10286.00
933.9520, 10421.00
935.0740, 10764.00
936.1950, 11022.00
937.3160, 11093.00
938.4360, 11163.00
939.5570, 11162.00
940.6780, 10991.00
941.7980, 10738.00
942.9180, 10663.00
944.0380, 10713.00
945.1580, 10706.00
946.2780, 10528.00
947.3970, 10801.00
948.5170, 10781.00
949.6360, 10781.00
950.7550, 11023.00
951.8740, 11253.00
952.9930, 11343.00
954.1110, 11519.00
955.2300, 11537.00
956.3480, 11522.00
957.4660, 11542.00
958.5840, 11615.00
959.7020, 11591.00
960.8190, 11651.00
961.9370, 11940.00
963.0540, 12310.00
964.1710, 12823.00
965.2880, 13356.00
966.4050, 13968.00
967.5220, 14586.00
968.6380, 15192.00
969.7550, 15690.00
970.8710, 15711.00
971.9870, 15661.00
973.1030, 15520.00
974.2190, 15329.00
975.3340, 15167.00
976.4500, 15053.00
977.5650, 14679.00
978.6800, 14549.00
979.7950, 14576.00
980.9100, 14571.00
982.0250, 14300.00
983.1390, 14183.00
984.2530, 13834.00
985.3680, 13356.00
986.4820, 12916.00
987.5950, 12403.00
988.7090, 11989.00
989.8230, 11653.00
990.9360, 11232.00
992.0490, 11080.00
993.1620, 10994.00
994.2750, 10857.00
995.3880, 10723.00
996.5010, 10719.00
997.6130, 10580.00
998.7250, 10642.00
999.8370, 10621.00
1000.949, 10796.00
1002.061, 10920.00
1003.173, 11172.00
1004.284, 11429.00
1005.396, 11399.00
1006.507, 11747.00
1007.618, 12054.00
1008.729, 12509.00
1009.839, 12925.00
1010.950, 13556.00
1012.060, 14007.00
1013.171, 14451.00
1014.281, 14447.00
1015.391, 14378.00
1016.500, 14155.00
1017.610, 13743.00
1018.719, 13183.00
1019.829, 12556.00
1020.938, 12077.00
1022.047, 11659.00
1023.156, 11200.00
1024.264, 10886.00
1025.373, 10521.00
1026.481, 10287.27
1027.589, 10064.00
1028.697, 9954.000
1029.805, 9843.000
1030.913, 9801.000
1032.020, 9725.000
1033.128, 9657.354
1034.235, 9619.000
1035.342, 9500.000
1036.449, 9554.000
1037.556, 9407.000
1038.663, 9423.000
1039.769, 9395.000
1040.875, 9427.000
1041.981, 9412.313
1043.087, 9439.000
1044.193, 9415.000
1045.299, 9392.000
1046.404, 9421.000
1047.510, 9357.000
1048.615, 9367.000
1049.720, 9425.000
1050.825, 9267.000
1051.930, 9397.000
1053.034, 9467.000
1054.139, 9358.000
1055.243, 9369.000
1056.347, 9439.000
1057.451, 9471.000
1058.555, 9399.000
1059.658, 9339.000
1060.762, 9282.000
1061.865, 9390.000
1062.968, 9329.000
1064.071, 9367.000
1065.174, 9405.000
1066.277, 9400.000
1067.380, 9412.000
1068.482, 9484.000
1069.584, 9404.000
1070.686, 9328.000
1071.788, 9517.000
1072.890, 9408.000
1073.992, 9392.000
1075.093, 9358.000
1076.194, 9492.000
1077.295, 9431.000
1078.396, 9512.000
1079.497, 9526.000
1080.598, 9424.000
1081.698, 9358.000
1082.799, 9334.000
1083.899, 9459.000
1084.999, 9473.000
1086.099, 9453.000
1087.199, 9424.000
1088.298, 9441.000
1089.398, 9385.000
1090.497, 9291.000
1091.596, 9271.000
1092.695, 9250.000
1093.794, 9261.000
1094.892, 9315.000
1095.991, 9226.000
1097.089, 9236.000
1098.187, 9267.000
1099.285, 9387.000
1100.383, 9227.000
1101.481, 9285.000
1102.579, 9286.000
1103.676, 9205.000
1104.773, 9324.000
1105.870, 9250.000
1106.967, 9165.000
1108.064, 9280.000
1109.161, 9229.000
1110.257, 9286.000
1111.353, 9316.000
1112.449, 9260.000
1113.545, 9254.000
1114.641, 9327.000
1115.737, 9238.000
1116.832, 9263.000
1117.928, 9302.000
1119.023, 9270.000
1120.118, 9252.000
1121.213, 9387.000
1122.308, 9346.000
1123.402, 9291.000
1124.497, 9279.000
1125.591, 9150.000
1126.685, 9255.000
1127.779, 9352.000
1128.873, 9350.000
1129.967, 9276.000
1131.060, 9321.000
1132.153, 9264.000
1133.247, 9195.000
1134.340, 9269.000
1135.433, 9253.000
1136.525, 9389.000
1137.618, 9356.000
1138.710, 9353.000
1139.802, 9313.000
1140.895, 9276.000
1141.987, 9236.000
1143.078, 9257.000
1144.170, 9283.000
1145.261, 9238.000
1146.353, 9185.000
1147.444, 9189.275
1148.535, 9243.000
1149.626, 9192.000
1150.716, 9221.000
1151.807, 9301.000
1152.897, 9442.000
1153.988, 9231.000
1155.078, 9194.000
1156.168, 9340.000
1157.257, 9242.000
1158.347, 9417.000
1159.436, 9360.000
1160.526, 9286.000
1161.615, 9316.000
1162.704, 9359.000
1163.793, 9344.000
1164.881, 9346.000
1165.970, 9460.000
1167.058, 9215.000
1168.147, 9432.000
1169.235, 9350.000
1170.323, 9255.000
1171.410, 9336.000
1172.498, 9337.000
1173.585, 9339.000
1174.673, 9367.206
1175.760, 9351.102
1176.847, 9379.000
1177.934, 9370.000
1179.020, 9377.000
1180.107, 9464.000
1181.193, 9466.000
1182.279, 9552.000
1183.365, 9537.000
1184.451, 9392.000
1185.537, 9485.000
1186.623, 9350.000
1187.708, 9266.000
1188.793, 9427.000
1189.878, 9397.000
1190.963, 9388.000
1192.048, 9241.000
1193.133, 9410.000
1194.217, 9363.000
1195.302, 9424.000
1196.386, 9419.000
1197.470, 9379.000
1198.554, 9461.000
1199.638, 9366.000
1200.721, 9442.000
1201.805, 9541.000
1202.888, 9476.000
1203.971, 9437.000
1205.054, 9452.000
1206.137, 9480.000
1207.219, 9286.000
1208.302, 9353.000
1209.384, 9391.000
1210.466, 9365.000
1211.548, 9466.000
1212.630, 9389.000
1213.712, 9371.000
1214.794, 9430.000
1215.875, 9517.000
1216.956, 9532.000
1218.037, 9553.000
1219.118, 9548.000
1220.199, 9548.801
1221.280, 9452.000
1222.360, 9526.000
1223.441, 9565.000
1224.521, 9549.000
1225.601, 9404.000
1226.681, 9569.000
1227.760, 9546.000
1228.840, 9432.000
1229.919, 9568.000
1230.999, 9606.000
1232.078, 9448.000
1233.157, 9496.000
1234.236, 9582.000
1235.314, 9617.000
1236.393, 9579.000
1237.471, 9595.000
1238.549, 9647.000
1239.627, 9584.000
1240.705, 9680.000
1241.783, 9551.000
1242.860, 9572.000
1243.938, 9711.000
1245.015, 9749.000
1246.092, 9637.000
1247.169, 9618.000
1248.246, 9805.000
1249.323, 9708.000
1250.399, 9908.000
1251.475, 9752.000
1252.552, 9647.000
1253.628, 9720.000
1254.703, 9665.000
1255.779, 9832.000
1256.855, 9735.000
1257.930, 9732.000
1259.005, 9623.000
1260.080, 9817.000
1261.155, 9717.000
1262.230, 9871.000
1263.305, 9849.000
1264.379, 9801.000
1265.454, 9789.000
1266.528, 9853.000
1267.602, 9867.000
1268.676, 9870.000
1269.750, 9916.000
1270.823, 9834.000
1271.897, 9756.000
1272.970, 9833.000
1274.043, 9771.137
1275.116, 9910.000
1276.189, 9827.000
1277.261, 9774.000
1278.334, 9922.000
1279.406, 9914.000
1280.478, 9914.000
1281.550, 9874.000
1282.622, 9804.000
1283.694, 9757.000
1284.766, 9823.000
1285.837, 9723.000
1286.908, 9821.000
1287.979, 9812.000
1289.050, 9780.000
1290.121, 9859.000
1291.192, 9681.000
1292.262, 9892.000
1293.333, 9804.000
1294.403, 9955.000
1295.473, 9950.000
1296.543, 9931.000
1297.613, 9835.000
1298.682, 9939.000
1299.752, 9817.000
1300.821, 9799.000
1301.890, 9980.000
1302.959, 9804.000
1304.028, 9845.000
1305.096, 9949.000
1306.165, 10035.00
1307.233, 10027.00
1308.301, 9922.000
1309.370, 10097.00
1310.437, 10030.00
1311.505, 10137.00
1312.573, 10120.00
1313.640, 10075.00
1314.708, 9973.000
1315.775, 9919.000
1316.842, 10006.00
1317.908, 10049.00
1318.975, 10053.00
1320.042, 10073.41
1321.108, 10111.00
1322.174, 10070.00
1323.240, 10077.00
1324.306, 10119.00
1325.372, 10051.00
1326.438, 10015.00
1327.503, 9986.000
1328.568, 9982.000
1329.634, 9956.953
1330.699, 9948.945
1331.763, 9939.000
1332.828, 9937.000
1333.893, 9946.000
1334.957, 9950.000
1336.021, 9900.000
1337.085, 9889.000
1338.149, 9904.012
1339.213, 9887.769
1340.277, 9941.000
1341.340, 9920.000
1342.404, 9930.000
1343.467, 9991.000
1344.530, 10003.00
1345.593, 9988.000
1346.655, 10012.79
1347.718, 10003.00
1348.780, 10030.00
1349.843, 9934.000
1350.905, 9971.000
1351.967, 9889.000
1353.028, 9995.000
1354.090, 9849.000
1355.152, 10063.00
1356.213, 10073.00
1357.274, 10026.00
1358.335, 10030.00
1359.396, 9982.000
1360.457, 10028.00
1361.517, 10055.00
1362.578, 9972.000
1363.638, 9975.000
1364.698, 9964.163
1365.758, 9995.000
1366.818, 9944.000
1367.878, 10047.00
1368.937, 10031.00
1369.997, 10062.00
1371.056, 9961.000
1372.115, 10087.00
1373.174, 10118.00
1374.232, 10035.00
1375.291, 10116.00
1376.350, 10001.00
1377.408, 10041.00
1378.466, 10046.00
1379.524, 10178.00
1380.582, 10059.00
1381.640, 10064.00
1382.697, 10028.00
1383.754, 10113.00
1384.812, 10155.00
1385.869, 10044.00
1386.926, 10184.00
1387.983, 10135.00
1389.039, 10082.00
1390.096, 10060.00
1391.152, 10017.00
1392.208, 9960.000
1393.264, 10040.00
1394.320, 10068.00
1395.376, 10075.00
1396.431, 10013.00
1397.487, 10012.00
1398.542, 10071.00
1399.597, 10052.00
1400.652, 10128.00
1401.707, 10075.00
1402.762, 10069.00
1403.816, 10114.00
1404.871, 10085.00
1405.925, 10040.00
1406.979, 10120.00
1408.033, 10179.00
1409.086, 10107.00
1410.140, 10129.00
1411.194, 10137.00
1412.247, 10053.00
1413.300, 10089.00
1414.353, 10103.00
1415.406, 10061.00
1416.458, 10194.00
1417.511, 10164.00
1418.563, 10073.00
1419.616, 10047.00
1420.668, 10255.00
1421.720, 10165.00
1422.772, 10151.00
1423.823, 10263.00
1424.875, 10241.00
1425.926, 10153.00
1426.977, 10255.00
1428.028, 10266.00
1429.079, 10156.00
1430.130, 10207.00
1431.180, 10253.00
1432.231, 10258.00
1433.281, 10361.00
1434.331, 10311.00
1435.381, 10262.00
1436.431, 10310.00
1437.481, 10365.00
1438.530, 10331.00
1439.580, 10410.00
1440.629, 10522.00
1441.678, 10451.00
1442.727, 10635.00
1443.776, 10544.00
1444.824, 10559.00
1445.873, 10616.00
1446.921, 10595.00
1447.969, 10798.00
1449.017, 10701.00
1450.065, 10771.00
1451.113, 10682.00
1452.160, 10690.00
1453.208, 10734.00
1454.255, 10841.00
1455.302, 10875.00
1456.349, 10798.00
1457.396, 10877.00
1458.443, 10806.00
1459.489, 10747.00
1460.535, 10833.00
1461.582, 10770.00
1462.628, 10655.00
1463.674, 10693.00
1464.719, 10742.00
1465.765, 10588.00
1466.810, 10514.00
1467.856, 10533.00
1468.901, 10569.00
1469.946, 10544.00
1470.991, 10640.00
1472.035, 10555.00
1473.080, 10504.00
1474.124, 10614.00
1475.169, 10457.00
1476.213, 10431.00
1477.257, 10502.00
1478.300, 10484.00
1479.344, 10580.00
1480.388, 10607.00
1481.431, 10628.00
1482.474, 10523.00
1483.517, 10545.00
1484.560, 10404.00
1485.603, 10409.28
1486.645, 10582.00
1487.688, 10416.00
1488.730, 10434.00
1489.772, 10518.00
1490.814, 10334.00
1491.856, 10419.00
1492.898, 10358.00
1493.939, 10521.00
1494.981, 10351.00
1496.022, 10391.00
1497.063, 10427.00
1498.104, 10394.00
1499.145, 10403.00
1500.186, 10408.17
1501.226, 10388.00
1502.266, 10384.00
1503.307, 10384.00
1504.347, 10309.00
1505.387, 10499.00
1506.426, 10384.00
1507.466, 10455.00
1508.505, 10659.00
1509.545, 10496.00
1510.584, 10460.00
1511.623, 10403.00
1512.662, 10504.00
1513.700, 10515.00
1514.739, 10503.00
1515.777, 10639.00
1516.815, 10441.00
1517.854, 10515.00
1518.892, 10468.00
1519.929, 10624.00
1520.967, 10561.00
1522.004, 10583.00
1523.042, 10415.00
1524.079, 10527.00
1525.116, 10515.00
1526.153, 10553.00
1527.190, 10616.00
1528.226, 10672.00
1529.263, 10757.00
1530.299, 10615.00
1531.335, 10560.00
1532.371, 10626.00
1533.407, 10612.00
1534.443, 10735.00
1535.478, 10664.00
1536.514, 10730.00
1537.549, 10862.00
1538.584, 10675.00
1539.619, 10765.00
1540.654, 10612.00
1541.689, 10734.00
1542.723, 10690.00
1543.757, 10688.00
1544.792, 10732.00
1545.826, 10630.00
1546.860, 10773.00
1547.893, 10785.00
1548.927, 10891.00
1549.960, 10765.00
1550.994, 10867.00
1552.027, 10816.00
1553.060, 10889.00
1554.093, 10918.00
1555.126, 10885.78
1556.158, 10736.00
1557.191, 10832.00
1558.223, 10827.00
1559.255, 10774.00
1560.287, 10833.00
1561.319, 10850.00
1562.350, 10929.00
1563.382, 10817.00
1564.413, 10930.00
##END=



