##NAMES=Amesite
##RRUFFID=R070132
##IDEAL CHEMISTRY=Mg_2_Al(AlSiO_5_)(OH)_4_
##LOCALITY=Saranovskii mine, Saranovskaya Village, Gornozavodskii area, Permskaya Oblast', Middle Urals, Russia
##OWNER=RRUFF
##SOURCE=Michael Scott
##DESCRIPTION=Purple transparent hexagonal prisms, polytype 2H2
##STATUS=The identification of this mineral is confirmed by single-crystal X-ray diffraction and chemical analysis.
##URL=rruff.info/R070132
##MEASURED CHEMISTRY=(Mg_1.87_[box]_0.05_Cr_0.05_Fe^2+^_0.03_)_Σ=2_(Al_0.98_Cr_0.02_)_Σ=1_(Si_1.05_Al_0.95_)O_5_(OH)_4_ ; OH estimated by difference
##PIN_ID=M00194
116.6560, 8292.000
117.8910, 8224.000
119.1260, 8278.000
120.3610, 8172.000
121.5960, 8306.000
122.8300, 8678.000
124.0640, 9046.000
125.2990, 9114.000
126.5330, 9213.000
127.7670, 9556.000
129.0000, 10273.00
130.2340, 11153.00
131.4670, 11852.00
132.7000, 12070.00
133.9330, 12073.00
135.1660, 11829.00
136.3990, 11338.00
137.6310, 10742.00
138.8640, 10169.00
140.0960, 9703.000
141.3280, 9303.711
142.5600, 8863.000
143.7910, 8778.000
145.0230, 8580.000
146.2540, 8616.000
147.4850, 8637.000
148.7160, 8649.000
149.9470, 8554.000
151.1780, 8692.000
152.4080, 8930.000
153.6380, 8788.000
154.8690, 8866.000
156.0980, 8873.000
157.3280, 8870.000
158.5580, 8873.064
159.7870, 8698.000
161.0170, 8885.000
162.2460, 8899.000
163.4750, 9040.000
164.7030, 9338.000
165.9320, 9259.000
167.1600, 9291.000
168.3890, 9582.000
169.6170, 9461.000
170.8450, 9710.000
172.0730, 9831.000
173.3000, 9938.236
174.5280, 10176.00
175.7550, 10374.00
176.9820, 10821.00
178.2090, 11288.00
179.4350, 11735.00
180.6620, 12526.00
181.8880, 13216.00
183.1150, 14252.00
184.3410, 15527.00
185.5670, 17003.00
186.7920, 18599.00
188.0180, 20895.00
189.2430, 23188.00
190.4690, 25608.00
191.6940, 28528.00
192.9180, 31593.00
194.1430, 34725.00
195.3680, 38095.00
196.5920, 41289.00
197.8160, 43582.00
199.0400, 47061.00
200.2640, 49718.00
201.4880, 51919.00
202.7110, 53801.00
203.9350, 53821.00
205.1580, 53168.00
206.3810, 50799.00
207.6040, 47726.00
208.8270, 43759.00
210.0490, 38913.00
211.2710, 34089.00
212.4940, 29266.00
213.7160, 25549.00
214.9370, 22262.00
216.1590, 19524.00
217.3810, 17432.00
218.6020, 15971.00
219.8230, 14817.00
221.0440, 13697.00
222.2650, 12911.00
223.4860, 12319.00
224.7060, 11943.00
225.9260, 11599.00
227.1470, 11528.00
228.3670, 11782.00
229.5860, 11899.00
230.8060, 12243.00
232.0260, 12959.00
233.2450, 13858.00
234.4640, 15077.00
235.6830, 16348.00
236.9020, 17181.00
238.1200, 19019.00
239.3390, 21386.00
240.5570, 24471.00
241.7750, 28566.00
242.9930, 32977.00
244.2110, 36878.00
245.4290, 38736.00
246.6460, 36767.00
247.8630, 32011.00
249.0810, 26191.00
250.2980, 21635.00
251.5140, 18376.00
252.7310, 16495.00
253.9470, 15429.00
255.1640, 14784.00
256.3800, 14695.00
257.5960, 14612.00
258.8120, 14735.58
260.0270, 14843.59
261.2430, 15119.80
262.4580, 15461.00
263.6730, 15865.00
264.8880, 16610.00
266.1030, 17075.00
267.3170, 18004.00
268.5320, 19183.00
269.7460, 20271.00
270.9600, 21839.00
272.1740, 23186.00
273.3880, 24692.00
274.6010, 25589.00
275.8150, 25787.00
277.0280, 25659.00
278.2410, 25468.00
279.4540, 25296.00
280.6670, 25426.00
281.8790, 25130.00
283.0920, 25102.00
284.3040, 24914.00
285.5160, 24130.00
286.7280, 22843.00
287.9400, 21336.00
289.1510, 19448.00
290.3630, 17795.00
291.5740, 16434.00
292.7850, 14953.00
293.9960, 13848.00
295.2070, 12984.00
296.4170, 12094.00
297.6280, 11749.00
298.8380, 11341.00
300.0480, 11001.00
301.2580, 10730.00
302.4680, 10576.00
303.6770, 10514.00
304.8870, 10567.00
306.0960, 10596.00
307.3050, 10732.00
308.5140, 10780.00
309.7230, 11002.00
310.9310, 11088.00
312.1400, 11412.00
313.3480, 11850.00
314.5560, 12113.00
315.7640, 12473.00
316.9720, 12938.00
318.1790, 13002.00
319.3870, 13277.00
320.5940, 13535.00
321.8010, 14029.00
323.0080, 14408.00
324.2150, 15209.00
325.4210, 16000.00
326.6280, 16589.00
327.8340, 16794.00
329.0400, 16979.00
330.2460, 16905.00
331.4510, 16574.00
332.6570, 16584.00
333.8620, 16509.00
335.0680, 16506.00
336.2730, 16949.00
337.4780, 17700.00
338.6820, 18563.00
339.8870, 19125.00
341.0910, 19536.00
342.2950, 19470.00
343.5000, 19259.00
344.7030, 18197.00
345.9070, 17630.00
347.1110, 16770.00
348.3140, 15995.00
349.5170, 15294.00
350.7200, 14542.79
351.9230, 13847.00
353.1260, 13194.00
354.3290, 12679.00
355.5310, 12097.00
356.7330, 11858.00
357.9350, 12072.00
359.1370, 12232.00
360.3390, 12044.00
361.5400, 12138.00
362.7420, 12464.00
363.9430, 12760.00
365.1440, 13175.00
366.3450, 13869.00
367.5460, 14650.00
368.7460, 15387.00
369.9470, 16003.00
371.1470, 16774.00
372.3470, 17497.00
373.5470, 18709.00
374.7460, 19911.00
375.9460, 21541.00
377.1450, 22644.00
378.3450, 23762.00
379.5440, 24321.00
380.7430, 23873.00
381.9410, 23235.00
383.1400, 22215.00
384.3380, 21587.00
385.5370, 21252.00
386.7350, 20775.00
387.9320, 20677.44
389.1300, 20805.00
390.3280, 20811.00
391.5250, 20912.00
392.7220, 21371.00
393.9190, 22031.00
395.1160, 22623.00
396.3130, 23699.00
397.5100, 25007.00
398.7060, 26430.00
399.9020, 28476.00
401.0980, 31749.00
402.2940, 35747.00
403.4900, 41095.00
404.6860, 46711.00
405.8810, 51868.00
407.0760, 55244.00
408.2710, 56946.00
409.4660, 56378.00
410.6610, 54706.00
411.8550, 53416.00
413.0500, 51560.00
414.2440, 48505.00
415.4380, 44386.00
416.6320, 39433.00
417.8260, 34353.00
419.0190, 29731.00
420.2130, 26346.00
421.4060, 23312.00
422.5990, 20728.00
423.7920, 18960.00
424.9850, 17500.00
426.1770, 16667.00
427.3700, 16086.00
428.5620, 15092.00
429.7540, 14950.00
430.9460, 14600.00
432.1380, 14425.00
433.3290, 14224.00
434.5210, 14234.00
435.7120, 14265.00
436.9030, 14472.00
438.0940, 14685.00
439.2850, 14827.00
440.4750, 14881.00
441.6660, 15030.00
442.8560, 15050.00
444.0460, 15206.00
445.2360, 15381.00
446.4260, 15554.00
447.6160, 15507.00
448.8050, 15685.00
449.9940, 15654.00
451.1830, 15956.00
452.3720, 16185.00
453.5610, 16087.00
454.7500, 16443.00
455.9380, 16621.00
457.1260, 16596.00
458.3150, 16687.00
459.5020, 16909.00
460.6900, 16946.00
461.8780, 17208.00
463.0650, 17440.00
464.2530, 17568.00
465.4400, 18508.00
466.6270, 19274.00
467.8130, 20272.00
469.0000, 21909.00
470.1870, 23958.00
471.3730, 26006.00
472.5590, 28659.00
473.7450, 31203.00
474.9310, 33092.00
476.1160, 34922.00
477.3020, 36085.00
478.4870, 36004.00
479.6720, 34943.00
480.8570, 33674.00
482.0420, 31885.00
483.2270, 30322.00
484.4110, 28897.00
485.5960, 27663.00
486.7800, 27020.00
487.9640, 26322.00
489.1480, 25836.00
490.3310, 25044.00
491.5150, 24617.00
492.6980, 24089.00
493.8810, 23162.00
495.0640, 22272.00
496.2470, 20897.00
497.4300, 19518.00
498.6120, 18319.00
499.7950, 17312.00
500.9770, 16327.00
502.1590, 15605.00
503.3410, 15070.00
504.5220, 14596.00
505.7040, 14534.00
506.8850, 14499.00
508.0660, 14576.00
509.2470, 14527.00
510.4280, 14654.00
511.6090, 14684.00
512.7890, 15001.41
513.9700, 15567.00
515.1500, 15864.00
516.3300, 16533.00
517.5100, 17277.00
518.6900, 18149.00
519.8690, 19289.27
521.0490, 20396.00
522.2280, 21964.00
523.4070, 23562.00
524.5860, 25247.00
525.7640, 27082.00
526.9430, 29139.00
528.1210, 30712.00
529.3000, 31763.00
530.4780, 32183.00
531.6560, 32316.00
532.8330, 31616.00
534.0110, 30586.00
535.1880, 29268.00
536.3650, 27797.00
537.5430, 26030.00
538.7190, 24476.00
539.8960, 23237.00
541.0730, 22042.00
542.2490, 20778.00
543.4250, 19982.00
544.6020, 18881.00
545.7780, 18362.00
546.9530, 17638.00
548.1290, 16984.00
549.3040, 16636.00
550.4800, 16100.00
551.6550, 15855.00
552.8300, 15566.00
554.0040, 15147.00
555.1790, 15007.00
556.3540, 14816.00
557.5280, 14521.00
558.7020, 14388.00
559.8760, 14138.00
561.0500, 14218.00
562.2230, 14066.00
563.3970, 13975.00
564.5700, 13832.14
565.7430, 13546.00
566.9160, 13439.00
568.0890, 13231.00
569.2620, 13033.00
570.4340, 12705.00
571.6070, 12544.00
572.7790, 12119.00
573.9510, 11854.00
575.1230, 11568.00
576.2940, 11314.00
577.4660, 11180.00
578.6370, 11088.00
579.8080, 10881.00
580.9790, 10778.00
582.1500, 10738.00
583.3210, 10835.00
584.4910, 10529.00
585.6620, 10429.00
586.8320, 10484.00
588.0020, 10325.00
589.1720, 10344.00
590.3410, 10240.00
591.5110, 10289.00
592.6800, 10161.00
593.8500, 10135.00
595.0190, 10113.00
596.1880, 10144.00
597.3560, 10039.00
598.5250, 9992.000
599.6930, 9971.000
600.8620, 9968.000
602.0300, 9893.000
603.1970, 9822.000
604.3650, 9732.000
605.5330, 9939.000
606.7000, 9904.000
607.8680, 9968.000
609.0350, 9964.750
610.2020, 9929.204
611.3680, 9881.000
612.5350, 9849.000
613.7010, 9814.000
614.8680, 9774.000
616.0340, 9744.216
617.2000, 9772.000
618.3660, 9728.000
619.5310, 9778.000
620.6970, 9879.000
621.8620, 9790.000
623.0270, 9783.000
624.1920, 9947.000
625.3570, 9985.000
626.5220, 9945.000
627.6860, 9861.000
628.8500, 9930.000
630.0140, 9865.130
631.1780, 9927.000
632.3420, 9817.000
633.5060, 9860.000
634.6700, 9826.000
635.8330, 9902.000
636.9960, 9965.000
638.1590, 9901.000
639.3220, 10053.00
640.4850, 10007.00
641.6470, 10086.00
642.8100, 10151.00
643.9720, 10014.00
645.1340, 9976.000
646.2960, 10142.00
647.4570, 10229.00
648.6190, 10160.00
649.7800, 10258.00
650.9420, 10275.00
652.1030, 10212.00
653.2640, 10342.00
654.4240, 10455.00
655.5850, 10396.00
656.7450, 10649.00
657.9060, 10678.00
659.0660, 10740.00
660.2260, 10772.00
661.3850, 10879.41
662.5450, 10982.06
663.7040, 11166.00
664.8640, 11270.00
666.0230, 11542.00
667.1820, 11760.00
668.3410, 12053.00
669.4990, 12277.00
670.6580, 12749.00
671.8160, 13223.00
672.9740, 13886.00
674.1320, 14473.00
675.2900, 15563.00
676.4480, 16400.00
677.6050, 17350.00
678.7630, 18712.00
679.9200, 20037.00
681.0770, 20995.00
682.2340, 22575.00
683.3900, 23489.00
684.5470, 23769.00
685.7030, 24062.00
686.8590, 23606.00
688.0150, 22613.00
689.1710, 21477.00
690.3270, 20636.00
691.4830, 20076.00
692.6380, 19661.00
693.7930, 19737.00
694.9480, 19940.00
696.1030, 20463.00
697.2580, 21592.00
698.4130, 22526.00
699.5670, 23819.00
700.7210, 25522.00
701.8750, 27262.00
703.0290, 29415.00
704.1830, 31096.00
705.3370, 32830.00
706.4900, 34131.00
707.6430, 34750.00
708.7970, 34192.00
709.9490, 32771.00
711.1020, 30732.00
712.2550, 28498.00
713.4070, 26132.00
714.5600, 24000.00
715.7120, 22266.00
716.8640, 20490.00
718.0160, 18931.00
719.1670, 17831.00
720.3190, 16762.00
721.4700, 15729.00
722.6210, 15107.00
723.7720, 14403.00
724.9230, 13788.00
726.0740, 13351.40
727.2250, 12965.43
728.3750, 12629.00
729.5250, 12401.00
730.6750, 12208.00
731.8250, 11991.51
732.9750, 11788.00
734.1240, 11648.00
735.2740, 11502.00
736.4230, 11307.00
737.5720, 11179.00
738.7210, 11079.00
739.8700, 11149.00
741.0190, 10846.00
742.1670, 10908.00
743.3150, 10819.00
744.4630, 10572.00
745.6110, 10754.00
746.7590, 10678.00
747.9070, 10592.00
749.0540, 10542.00
750.2020, 10478.00
751.3490, 10659.00
752.4960, 10454.00
753.6430, 10468.00
754.7890, 10620.00
755.9360, 10381.00
757.0820, 10426.00
758.2280, 10420.00
759.3740, 10475.00
760.5200, 10464.00
761.6660, 10393.00
762.8120, 10348.00
763.9570, 10374.00
765.1020, 10527.00
766.2470, 10455.00
767.3920, 10651.00
768.5370, 10489.00
769.6810, 10671.00
770.8260, 10758.00
771.9700, 10729.00
773.1140, 10732.00
774.2580, 10749.00
775.4020, 10931.00
776.5460, 11138.00
777.6890, 11286.00
778.8320, 11316.00
779.9750, 11517.00
781.1180, 11529.00
782.2610, 11719.00
783.4040, 11888.00
784.5460, 11881.00
785.6890, 11867.00
786.8310, 11877.00
787.9730, 11865.09
789.1150, 11830.23
790.2560, 11815.00
791.3980, 11721.00
792.5390, 11603.00
793.6810, 11482.00
794.8220, 11473.00
795.9630, 11467.00
797.1030, 11385.00
798.2440, 11334.00
799.3840, 11297.00
800.5240, 11342.01
801.6650, 11383.00
802.8040, 11494.00
803.9440, 11659.00
805.0840, 11757.00
806.2230, 11921.00
807.3630, 12109.00
808.5020, 12251.00
809.6410, 12555.00
810.7790, 12717.00
811.9180, 13041.00
813.0570, 13370.00
814.1950, 13693.00
815.3330, 14019.00
816.4710, 14110.00
817.6090, 14256.00
818.7470, 14740.00
819.8840, 15224.00
821.0220, 15606.00
822.1590, 15868.40
823.2960, 16071.38
824.4330, 16154.00
825.5690, 16193.00
826.7060, 16092.00
827.8420, 15959.00
828.9790, 15437.00
830.1150, 14856.00
831.2510, 14421.00
832.3860, 13965.00
833.5220, 13432.00
834.6570, 13139.00
835.7930, 12547.00
836.9280, 12399.00
838.0630, 12023.00
839.1980, 11829.00
840.3320, 11589.00
841.4670, 11436.00
842.6010, 11298.00
843.7350, 11124.00
844.8690, 11091.00
846.0030, 10934.00
847.1370, 10874.00
848.2700, 10695.00
849.4040, 10595.00
850.5370, 10673.00
851.6700, 10513.00
852.8030, 10502.00
853.9360, 10303.00
855.0680, 10393.00
856.2000, 10297.00
857.3330, 10303.00
858.4650, 10260.00
859.5970, 10248.09
860.7290, 10352.00
861.8600, 10275.00
862.9920, 10243.00
864.1230, 10304.00
865.2540, 10181.00
866.3850, 10237.00
867.5160, 10284.00
868.6460, 10390.00
869.7770, 10332.00
870.9070, 10350.00
872.0370, 10328.00
873.1670, 10237.00
874.2970, 10293.00
875.4270, 10258.00
876.5570, 10307.00
877.6860, 10534.00
878.8150, 10502.00
879.9440, 10560.00
881.0730, 10623.00
882.2020, 10522.00
883.3300, 10637.00
884.4590, 10561.00
885.5870, 10664.00
886.7150, 10593.00
887.8430, 10534.00
888.9710, 10592.00
890.0990, 10375.00
891.2260, 10471.00
892.3530, 10299.00
893.4810, 10285.00
894.6080, 10324.00
895.7340, 10162.00
896.8610, 10106.00
897.9880, 10207.00
899.1140, 10169.00
900.2400, 10302.00
901.3660, 10249.00
902.4920, 10306.00
903.6180, 10289.97
904.7430, 10220.00
905.8690, 10225.00
906.9940, 10214.00
908.1190, 10184.00
909.2440, 10211.00
910.3690, 10138.00
911.4930, 10139.00
912.6180, 10032.00
913.7420, 10134.00
914.8660, 10087.00
915.9900, 10080.00
917.1140, 10117.00
918.2380, 10064.00
919.3610, 10139.00
920.4850, 10095.00
921.6080, 10079.00
922.7310, 10192.00
923.8540, 10056.00
924.9760, 10345.00
926.0990, 10229.30
927.2210, 10168.00
928.3440, 10237.00
929.4660, 10154.00
930.5880, 10337.00
931.7090, 10396.00
932.8310, 10474.00
933.9520, 10528.00
935.0740, 10551.00
936.1950, 10669.00
937.3160, 10686.00
938.4360, 10709.00
939.5570, 10762.00
940.6780, 10854.00
941.7980, 10956.00
942.9180, 11033.00
944.0380, 11042.00
945.1580, 11235.00
946.2780, 11539.00
947.3970, 11594.00
948.5170, 11832.00
949.6360, 12034.00
950.7550, 12454.00
951.8740, 13030.00
952.9930, 13349.00
954.1110, 13918.00
955.2300, 14259.00
956.3480, 15023.00
957.4660, 15621.00
958.5840, 16398.00
959.7020, 17153.00
960.8190, 18217.00
961.9370, 19182.00
963.0540, 20342.00
964.1710, 20962.00
965.2880, 21455.00
966.4050, 21657.00
967.5220, 21883.00
968.6380, 21478.00
969.7550, 21219.00
970.8710, 20959.00
971.9870, 20998.00
973.1030, 20881.00
974.2190, 20846.00
975.3340, 21023.00
976.4500, 21445.00
977.5650, 21683.00
978.6800, 22089.00
979.7950, 22148.00
980.9100, 22213.00
982.0250, 21880.00
983.1390, 21006.00
984.2530, 20042.00
985.3680, 18943.00
986.4820, 17716.00
987.5950, 16687.00
988.7090, 15630.00
989.8230, 14860.00
990.9360, 14351.00
992.0490, 13846.00
993.1620, 13457.00
994.2750, 13113.00
995.3880, 12917.00
996.5010, 13002.00
997.6130, 12950.00
998.7250, 12933.00
999.8370, 12975.00
1000.949, 13192.00
1002.061, 13467.00
1003.173, 13887.00
1004.284, 14087.00
1005.396, 14620.00
1006.507, 15044.00
1007.618, 15516.00
1008.729, 15901.00
1009.839, 16157.00
1010.950, 16043.00
1012.060, 15948.00
1013.171, 15637.00
1014.281, 15123.00
1015.391, 14874.00
1016.500, 14296.00
1017.610, 13907.00
1018.719, 13418.00
1019.829, 13016.00
1020.938, 12504.00
1022.047, 12236.00
1023.156, 11891.00
1024.264, 11661.00
1025.373, 11449.66
1026.481, 11185.00
1027.589, 11163.00
1028.697, 11043.00
1029.805, 11051.00
1030.913, 10854.00
1032.020, 10879.00
1033.128, 10913.00
1034.235, 10649.00
1035.342, 10724.00
1036.449, 10766.00
1037.556, 10770.00
1038.663, 10825.00
1039.769, 10736.00
1040.875, 10742.00
1041.981, 10691.00
1043.087, 10852.00
1044.193, 10776.00
1045.299, 10578.00
1046.404, 10718.00
1047.510, 10667.00
1048.615, 10591.00
1049.720, 10700.00
1050.825, 10452.00
1051.930, 10548.00
1053.034, 10685.00
1054.139, 10558.00
1055.243, 10366.00
1056.347, 10499.00
1057.451, 10357.00
1058.555, 10640.00
1059.658, 10462.00
1060.762, 10441.00
1061.865, 10506.00
1062.968, 10559.00
1064.071, 10505.00
1065.174, 10473.00
1066.277, 10400.00
1067.380, 10416.00
1068.482, 10501.00
1069.584, 10478.00
1070.686, 10519.18
1071.788, 10522.97
1072.890, 10551.00
1073.992, 10498.00
1075.093, 10496.00
1076.194, 10452.00
1077.295, 10355.00
1078.396, 10388.00
1079.497, 10334.00
1080.598, 10414.00
1081.698, 10449.00
1082.799, 10288.00
1083.899, 10243.00
1084.999, 10261.00
1086.099, 10207.00
1087.199, 10243.00
1088.298, 10088.00
1089.398, 10150.00
1090.497, 10146.00
1091.596, 10051.00
1092.695, 10059.00
1093.794, 10162.00
1094.892, 10005.00
1095.991, 10053.00
1097.089, 9934.000
1098.187, 9934.000
1099.285, 10028.00
1100.383, 10096.00
1101.481, 9871.000
1102.579, 9927.000
1103.676, 9947.000
1104.773, 10053.00
1105.870, 9934.000
1106.967, 9901.000
1108.064, 9967.000
1109.161, 10050.00
1110.257, 9808.000
1111.353, 9901.000
1112.449, 9844.000
1113.545, 9890.000
1114.641, 9867.000
1115.737, 9882.000
1116.832, 10010.00
1117.928, 9955.000
1119.023, 9977.000
1120.118, 10014.00
1121.213, 9927.000
1122.308, 9911.000
1123.402, 9998.000
1124.497, 9909.000
1125.591, 9997.000
1126.685, 10017.00
1127.779, 9852.000
1128.873, 9890.000
1129.967, 9871.000
1131.060, 9899.000
1132.153, 9805.000
1133.247, 9866.000
1134.340, 9709.000
1135.433, 9669.000
1136.525, 9840.000
1137.618, 9757.000
1138.710, 9818.000
1139.802, 9793.000
1140.895, 9746.000
1141.987, 9800.000
1143.078, 9897.000
1144.170, 9707.000
1145.261, 9764.000
1146.353, 9624.000
1147.444, 9863.000
1148.535, 9767.000
1149.626, 9730.000
1150.716, 9670.000
1151.807, 9627.425
1152.897, 9711.000
1153.988, 9673.000
1155.078, 9606.000
1156.168, 9861.000
1157.257, 9827.000
1158.347, 9750.000
1159.436, 9736.000
1160.526, 9729.000
1161.615, 9576.000
1162.704, 9673.000
1163.793, 9731.000
1164.881, 9706.000
1165.970, 9751.572
1167.058, 9741.000
1168.147, 9735.000
1169.235, 9717.000
1170.323, 9670.445
1171.410, 9701.000
1172.498, 9651.000
1173.585, 9717.000
1174.673, 9762.000
1175.760, 9682.000
1176.847, 9805.000
1177.934, 9825.000
1179.020, 9731.000
1180.107, 9679.000
1181.193, 9690.000
1182.279, 9754.000
1183.365, 9701.000
1184.451, 9675.000
1185.537, 9809.000
1186.623, 9652.000
1187.708, 9776.000
1188.793, 9682.000
1189.878, 9652.000
1190.963, 9753.000
1192.048, 9728.000
1193.133, 9762.000
1194.217, 9598.000
1195.302, 9633.000
1196.386, 9616.000
1197.470, 9679.000
1198.554, 9729.000
1199.638, 9777.000
1200.721, 9747.000
1201.805, 9883.000
1202.888, 9608.000
1203.971, 9507.000
1205.054, 9610.000
1206.137, 9583.000
1207.219, 9694.000
1208.302, 9719.000
1209.384, 9686.000
1210.466, 9793.000
1211.548, 9753.000
1212.630, 9653.000
1213.712, 9758.000
1214.794, 9642.000
1215.875, 9735.000
1216.956, 9636.000
1218.037, 9759.000
1219.118, 9626.000
1220.199, 9765.000
1221.280, 9616.000
1222.360, 9615.000
1223.441, 9557.000
1224.521, 9689.000
1225.601, 9593.000
1226.681, 9687.000
1227.760, 9724.000
1228.840, 9661.000
1229.919, 9642.000
1230.999, 9696.000
1232.078, 9740.000
1233.157, 9657.000
1234.236, 9769.000
1235.314, 9753.000
1236.393, 9732.000
1237.471, 9821.000
1238.549, 9750.000
1239.627, 9759.000
1240.705, 9695.000
1241.783, 9670.000
1242.860, 9834.000
1243.938, 9876.000
1245.015, 9833.000
1246.092, 9651.000
1247.169, 9748.000
1248.246, 9657.000
1249.323, 9831.000
1250.399, 9646.000
1251.475, 9831.000
1252.552, 9650.000
1253.628, 9707.000
1254.703, 9730.000
1255.779, 9704.000
1256.855, 9709.000
1257.930, 9627.000
1259.005, 9632.752
1260.080, 9551.000
1261.155, 9636.000
1262.230, 9642.000
1263.305, 9721.000
1264.379, 9737.000
1265.454, 9757.000
1266.528, 9822.000
1267.602, 9791.000
1268.676, 9745.000
1269.750, 9758.000
1270.823, 9799.000
1271.897, 9743.937
1272.970, 9607.000
1274.043, 9736.000
1275.116, 9606.000
1276.189, 9721.000
1277.261, 9710.000
1278.334, 9631.000
1279.406, 9633.000
1280.478, 9672.000
1281.550, 9656.000
1282.622, 9533.000
1283.694, 9776.000
1284.766, 9675.000
1285.837, 9575.000
1286.908, 9798.000
1287.979, 9742.000
1289.050, 9669.000
1290.121, 9580.000
1291.192, 9689.000
1292.262, 9839.000
1293.333, 9747.000
1294.403, 9725.000
1295.473, 9755.000
1296.543, 9661.000
1297.613, 9771.000
1298.682, 9724.000
1299.752, 9651.000
1300.821, 9734.000
1301.890, 9806.000
1302.959, 9698.000
1304.028, 9695.000
1305.096, 9790.000
1306.165, 9766.000
1307.233, 9773.000
1308.301, 9779.000
1309.370, 9835.000
1310.437, 9805.000
1311.505, 9809.000
1312.573, 9705.000
1313.640, 9811.000
1314.708, 9790.000
1315.775, 9875.000
1316.842, 9668.000
1317.908, 9722.000
1318.975, 9722.000
1320.042, 9687.000
1321.108, 9726.000
1322.174, 9714.529
1323.240, 9718.750
1324.306, 9716.000
1325.372, 9736.000
1326.438, 9710.000
1327.503, 9728.000
1328.568, 9740.000
1329.634, 9716.000
1330.699, 9730.000
1331.763, 9756.000
1332.828, 9604.000
1333.893, 9789.000
1334.957, 9661.000
1336.021, 9717.000
1337.085, 9609.000
1338.149, 9695.000
1339.213, 9641.000
1340.277, 9684.000
1341.340, 9801.000
1342.404, 9775.000
1343.467, 9680.000
1344.530, 9792.000
1345.593, 9687.000
1346.655, 9747.000
1347.718, 9702.000
1348.780, 9639.000
1349.843, 9728.000
1350.905, 9826.000
1351.967, 9744.000
1353.028, 9805.996
1354.090, 9705.000
1355.152, 9784.000
1356.213, 9715.000
1357.274, 9678.000
1358.335, 9654.000
1359.396, 9633.073
1360.457, 9675.000
1361.517, 9631.000
1362.578, 9709.000
1363.638, 9725.000
1364.698, 9693.000
1365.758, 9743.000
1366.818, 9719.000
1367.878, 9686.000
1368.937, 9722.000
1369.997, 9652.000
1371.056, 9734.000
1372.115, 9686.000
1373.174, 9710.000
1374.232, 9738.000
1375.291, 9831.000
1376.350, 9636.000
1377.408, 9791.000
1378.466, 9608.000
1379.524, 9839.000
1380.582, 9692.000
1381.640, 9823.000
1382.697, 9819.000
1383.754, 9742.000
1384.812, 9684.000
1385.869, 9764.000
1386.926, 9784.000
1387.983, 9591.000
1389.039, 9824.000
1390.096, 9667.000
1391.152, 9808.000
1392.208, 9736.000
1393.264, 9769.000
1394.320, 9822.000
1395.376, 9804.000
1396.431, 9736.000
1397.487, 9849.000
1398.542, 9777.000
1399.597, 9879.000
1400.652, 9859.000
1401.707, 9618.000
1402.762, 9706.000
1403.816, 9688.000
1404.871, 9780.000
1405.925, 9774.000
1406.979, 9680.000
1408.033, 9779.000
1409.086, 9729.000
1410.140, 9771.000
1411.194, 9723.000
1412.247, 9727.000
1413.300, 9797.000
1414.353, 9768.000
1415.406, 9766.000
1416.458, 9743.000
1417.511, 9668.000
1418.563, 9849.000
1419.616, 9800.000
1420.668, 9847.000
1421.720, 9701.000
1422.772, 9750.000
1423.823, 9711.910
1424.875, 9692.009
1425.926, 9739.000
1426.977, 9691.000
1428.028, 9831.000
1429.079, 9822.000
1430.130, 9650.000
1431.180, 9750.000
1432.231, 9834.000
1433.281, 9729.000
1434.331, 9775.000
1435.381, 9848.000
1436.431, 9790.000
1437.481, 9858.000
1438.530, 9814.000
1439.580, 9765.000
1440.629, 9808.000
1441.678, 9832.000
1442.727, 9834.000
1443.776, 9811.000
1444.824, 9927.000
1445.873, 9934.000
1446.921, 9896.000
1447.969, 9871.000
1449.017, 9950.000
1450.065, 9921.000
1451.113, 10005.00
1452.160, 9918.000
1453.208, 9930.000
1454.255, 9946.000
1455.302, 9880.000
1456.349, 9919.000
1457.396, 9917.000
1458.443, 9934.000
1459.489, 9843.000
1460.535, 9960.000
1461.582, 9838.000
1462.628, 9969.000
1463.674, 9887.000
1464.719, 9831.000
1465.765, 9968.000
1466.810, 9887.000
1467.856, 10013.00
1468.901, 9987.000
1469.946, 9986.000
1470.991, 9943.000
1472.035, 9835.000
1473.080, 9844.000
1474.124, 9897.000
1475.169, 9965.000
1476.213, 10038.00
1477.257, 9994.000
1478.300, 9940.000
1479.344, 10012.00
1480.388, 9833.000
1481.431, 9965.000
1482.474, 9929.000
1483.517, 10030.00
1484.560, 9897.000
1485.603, 9798.000
1486.645, 9929.000
1487.688, 10039.00
1488.730, 9925.000
1489.772, 9921.000
1490.814, 9966.000
1491.856, 9932.000
1492.898, 10094.00
1493.939, 9918.000
1494.981, 9950.000
1496.022, 10051.00
1497.063, 9972.000
1498.104, 9939.000
1499.145, 9856.000
1500.186, 9944.000
1501.226, 10059.00
1502.266, 10031.00
1503.307, 10082.00
1504.347, 9874.000
1505.387, 9983.000
1506.426, 9967.000
1507.466, 9812.000
1508.505, 10009.00
1509.545, 10088.00
1510.584, 10090.00
1511.623, 10047.00
1512.662, 10081.00
1513.700, 10093.00
1514.739, 10062.00
1515.777, 10035.00
1516.815, 10038.00
1517.854, 9962.000
1518.892, 10047.00
1519.929, 9976.000
1520.967, 9918.000
1522.004, 10006.00
1523.042, 10080.00
1524.079, 10063.00
1525.116, 10051.00
1526.153, 10113.00
1527.190, 9949.000
1528.226, 10038.00
1529.263, 10014.00
1530.299, 10118.00
1531.335, 10140.00
1532.371, 10043.00
1533.407, 10052.00
1534.443, 10058.00
1535.478, 10071.00
1536.514, 10172.00
1537.549, 10058.00
1538.584, 10145.00
1539.619, 10069.00
1540.654, 10198.00
1541.689, 10109.00
1542.723, 10093.00
1543.757, 10185.00
1544.792, 10049.00
1545.826, 10104.00
1546.860, 10113.00
1547.893, 10257.00
1548.927, 10259.00
1549.960, 10294.00
1550.994, 10468.00
1552.027, 10495.00
1553.060, 10618.00
1554.093, 10812.00
1555.126, 10731.00
1556.158, 10628.00
1557.191, 10331.00
1558.223, 10333.00
1559.255, 10297.00
1560.287, 10318.00
1561.319, 10225.00
1562.350, 10129.00
1563.382, 10265.00
1564.413, 10295.00
##END=



