##NAMES=Analcime
##RRUFFID=R060023
##IDEAL CHEMISTRY=NaAlSi_2_O_6_&#183;H_2_O
##LOCALITY=Dallas, Oregon, USA
##OWNER=RRUFF
##SOURCE=Bob Downs
##DESCRIPTION=White trapezohedral crystal associated with levyne-Na, R060021
##STATUS=The identification of this mineral has been confirmed by X-ray diffraction and chemical analysis
##URL=rruff.info/R060023
##MEASURED CHEMISTRY=(Na_0.98_[box]_0.02_)_Σ=1_(Si_2.02_Al_0.98_)O_6_·H_2_O
##PIN_ID=M00414
##ORIENTATION=Laser parallel to c* (0 0 1). Fiducial mark perpendicular to laser is parallel to a [1 0 0]
181.5980, 7038.711
182.8230, 7038.000
184.0490, 7081.000
185.2740, 7134.000
186.5000, 7139.591
187.7250, 7178.000
188.9500, 7167.000
190.1740, 7228.000
191.3990, 7222.000
192.6230, 7237.000
193.8480, 7262.000
195.0720, 7278.000
196.2960, 7292.902
197.5200, 7306.000
198.7430, 7292.000
199.9670, 7288.579
201.1900, 7306.000
202.4130, 7248.000
203.6360, 7219.000
204.8590, 7179.854
206.0820, 7175.836
207.3050, 7133.000
208.5270, 7159.000
209.7490, 7154.000
210.9710, 7087.000
212.1930, 7092.000
213.4150, 7221.000
214.6370, 7195.000
215.8580, 7122.000
217.0790, 7158.000
218.3010, 7110.000
219.5210, 7111.501
220.7420, 7183.000
221.9630, 7128.000
223.1830, 7138.000
224.4040, 7172.000
225.6240, 7123.000
226.8440, 7135.000
228.0640, 7105.000
229.2840, 6950.000
230.5030, 7093.000
231.7230, 6897.000
232.9420, 6874.000
234.1610, 6931.000
235.3800, 6815.000
236.5990, 6734.000
237.8170, 6744.000
239.0360, 6745.000
240.2540, 6663.000
241.4720, 6683.000
242.6900, 6593.000
243.9080, 6477.000
245.1250, 6579.000
246.3430, 6476.000
247.5600, 6538.000
248.7770, 6446.000
249.9940, 6523.000
251.2110, 6380.000
252.4280, 6359.000
253.6450, 6284.000
254.8610, 6368.000
256.0770, 6286.000
257.2930, 6411.000
258.5090, 6477.000
259.7250, 6533.000
260.9400, 6351.000
262.1560, 6310.000
263.3710, 6261.000
264.5860, 6390.000
265.8010, 6391.000
267.0160, 6358.000
268.2310, 6266.000
269.4450, 6330.000
270.6600, 6269.000
271.8740, 6334.000
273.0880, 6457.000
274.3020, 6378.000
275.5150, 6530.000
276.7290, 6513.000
277.9420, 6573.000
279.1550, 6571.000
280.3680, 6567.000
281.5810, 6656.000
282.7940, 6831.000
284.0070, 6936.000
285.2190, 7160.000
286.4310, 7292.000
287.6430, 7586.000
288.8550, 7793.000
290.0670, 7920.000
291.2790, 8049.000
292.4900, 8314.000
293.7020, 8482.000
294.9130, 8660.000
296.1240, 8871.000
297.3350, 8979.000
298.5450, 8968.000
299.7560, 8869.000
300.9660, 8597.000
302.1760, 8429.000
303.3860, 8081.000
304.5960, 7910.000
305.8060, 7607.000
307.0150, 7636.000
308.2250, 7292.000
309.4340, 7442.000
310.6430, 7376.000
311.8520, 7316.000
313.0610, 7178.000
314.2700, 7191.000
315.4780, 7191.000
316.6860, 7143.000
317.8940, 7291.000
319.1020, 7249.000
320.3100, 7335.000
321.5180, 7339.679
322.7250, 7200.000
323.9330, 7317.000
325.1400, 7322.000
326.3470, 7286.000
327.5540, 7419.000
328.7600, 7389.000
329.9670, 7413.000
331.1730, 7378.000
332.3800, 7389.000
333.5860, 7531.000
334.7920, 7549.000
335.9970, 7620.000
337.2030, 7575.000
338.4080, 7525.000
339.6140, 7782.000
340.8190, 7721.000
342.0240, 7711.000
343.2290, 7803.000
344.4330, 7697.000
345.6380, 7899.000
346.8420, 7801.000
348.0460, 7920.000
349.2500, 7986.000
350.4540, 8051.000
351.6580, 8096.432
352.8610, 8118.000
354.0650, 8171.000
355.2680, 8163.000
356.4710, 8251.000
357.6740, 8379.000
358.8760, 8370.000
360.0790, 8556.000
361.2810, 8566.000
362.4840, 8704.000
363.6860, 8780.000
364.8880, 8982.000
366.0900, 9076.000
367.2910, 9168.000
368.4930, 9360.000
369.6940, 9496.000
370.8950, 9554.000
372.0960, 9694.000
373.2970, 9832.000
374.4980, 9957.000
375.6980, 10179.00
376.8980, 10392.00
378.0990, 10469.00
379.2990, 10571.00
380.4980, 10803.00
381.6980, 10936.00
382.8980, 10863.00
384.0970, 10925.00
385.2960, 11027.00
386.4950, 10948.00
387.6940, 10965.00
388.8930, 10978.00
390.0920, 10964.00
391.2900, 10822.00
392.4880, 10721.00
393.6860, 10667.00
394.8840, 10490.00
396.0820, 10517.00
397.2800, 10169.00
398.4770, 9949.000
399.6750, 9997.000
400.8720, 9773.000
402.0690, 9693.000
403.2660, 9421.000
404.4620, 9349.000
405.6590, 9203.000
406.8550, 9103.000
408.0510, 8904.000
409.2480, 8719.000
410.4430, 8667.000
411.6390, 8645.000
412.8350, 8456.000
414.0300, 8413.000
415.2250, 8371.000
416.4200, 8356.000
417.6150, 8305.455
418.8100, 8201.000
420.0050, 8210.000
421.1990, 8160.000
422.3940, 8084.000
423.5880, 8085.000
424.7820, 8168.000
425.9750, 8143.000
427.1690, 8090.000
428.3630, 7991.000
429.5560, 8059.000
430.7490, 8078.000
431.9420, 8161.000
433.1350, 8178.000
434.3280, 8100.000
435.5200, 8294.000
436.7130, 8369.000
437.9050, 8375.000
439.0970, 8557.000
440.2890, 8546.000
441.4810, 8510.000
442.6720, 8631.000
443.8640, 8695.000
445.0550, 8775.891
446.2460, 8837.000
447.4370, 9026.000
448.6280, 9179.000
449.8180, 9385.000
451.0090, 9575.000
452.1990, 9645.000
453.3890, 9779.000
454.5790, 10099.00
455.7690, 10411.00
456.9590, 10818.00
458.1480, 11194.00
459.3380, 11706.00
460.5270, 12426.00
461.7160, 12865.00
462.9050, 13682.00
464.0940, 14785.00
465.2820, 15642.00
466.4700, 16850.00
467.6590, 18310.00
468.8470, 19712.00
470.0350, 21484.00
471.2220, 23539.00
472.4100, 25713.00
473.5970, 27673.00
474.7850, 29818.00
475.9720, 31889.00
477.1590, 34063.00
478.3460, 35466.00
479.5320, 36449.00
480.7190, 37384.00
481.9050, 37496.00
483.0910, 37126.00
484.2770, 36239.00
485.4630, 34600.00
486.6490, 32422.00
487.8340, 30220.00
489.0200, 27992.00
490.2050, 25467.00
491.3900, 23448.00
492.5750, 21605.00
493.7600, 19766.00
494.9440, 18339.00
496.1290, 17037.00
497.3130, 15872.00
498.4970, 14998.00
499.6810, 13942.00
500.8650, 13366.00
502.0480, 12840.00
503.2320, 12294.00
504.4150, 11832.00
505.5980, 11457.00
506.7810, 11045.00
507.9640, 10850.00
509.1460, 10588.00
510.3290, 10344.00
511.5110, 10129.00
512.6930, 9932.000
513.8750, 9741.000
515.0570, 9588.861
516.2390, 9447.000
517.4210, 9327.000
518.6020, 9232.000
519.7830, 9136.000
520.9640, 9034.511
522.1450, 8929.000
523.3260, 8840.000
524.5060, 8778.000
525.6870, 8671.000
526.8670, 8603.000
528.0470, 8607.000
529.2270, 8455.000
530.4070, 8453.000
531.5870, 8515.000
532.7660, 8388.000
533.9450, 8347.000
535.1240, 8305.000
536.3030, 8351.000
537.4820, 8391.000
538.6610, 8215.000
539.8390, 8137.000
541.0180, 8180.000
542.1960, 8142.000
543.3740, 8160.000
544.5520, 8152.000
545.7290, 8047.000
546.9070, 8183.000
548.0840, 8102.000
549.2620, 8018.000
550.4390, 8019.000
551.6160, 7985.000
552.7920, 7934.000
553.9690, 7925.000
555.1450, 7976.000
556.3220, 7922.000
557.4980, 7937.000
558.6740, 7930.000
559.8490, 7849.000
561.0250, 7873.576
562.2000, 7978.000
563.3760, 7883.000
564.5510, 7922.000
565.7260, 7977.000
566.9010, 7964.000
568.0750, 7885.000
569.2500, 7936.000
570.4240, 7943.000
571.5980, 7914.000
572.7720, 7947.000
573.9460, 7911.000
575.1200, 7914.000
576.2930, 8004.000
577.4670, 7928.000
578.6400, 8061.000
579.8130, 8059.000
580.9860, 7856.000
582.1590, 8019.000
583.3310, 8047.000
584.5040, 7931.000
585.6760, 7937.000
586.8480, 8083.000
588.0200, 8021.000
589.1920, 8097.000
590.3630, 8059.000
591.5350, 8102.000
592.7060, 8123.000
593.8770, 8097.000
595.0480, 8179.000
596.2190, 8140.000
597.3900, 8120.000
598.5600, 8253.000
599.7310, 8245.000
600.9010, 8215.000
602.0710, 8308.000
603.2410, 8383.000
604.4100, 8436.000
605.5800, 8507.000
606.7490, 8445.000
607.9190, 8542.000
609.0880, 8533.000
610.2570, 8441.000
611.4250, 8422.000
612.5940, 8429.000
613.7620, 8425.000
614.9310, 8362.000
616.0990, 8393.000
617.2670, 8303.000
618.4340, 8253.000
619.6020, 8234.000
620.7690, 8325.000
621.9370, 8349.000
623.1040, 8292.000
624.2710, 8369.000
625.4380, 8280.000
626.6040, 8361.000
627.7710, 8381.758
628.9370, 8464.000
630.1030, 8444.000
631.2690, 8456.000
632.4350, 8437.000
633.6010, 8467.000
634.7660, 8478.000
635.9320, 8467.198
637.0970, 8455.000
638.2620, 8469.000
639.4270, 8459.000
640.5920, 8492.000
641.7560, 8540.000
642.9210, 8549.000
644.0850, 8464.000
645.2490, 8438.000
646.4130, 8498.000
647.5770, 8586.000
648.7400, 8432.000
649.9040, 8389.000
651.0670, 8335.000
652.2300, 8444.000
653.3930, 8542.000
654.5560, 8527.000
655.7190, 8511.000
656.8810, 8506.000
658.0440, 8494.000
659.2060, 8484.000
660.3680, 8536.000
661.5300, 8591.000
662.6910, 8623.000
663.8530, 8639.293
665.0140, 8632.000
666.1750, 8672.000
667.3360, 8641.000
668.4970, 8707.802
669.6580, 8765.000
670.8190, 8711.000
671.9790, 8817.000
673.1390, 8727.000
674.2990, 8696.000
675.4590, 8713.000
676.6190, 8757.000
677.7790, 8701.559
678.9380, 8573.000
680.0970, 8667.000
681.2570, 8568.000
682.4160, 8637.000
683.5740, 8719.000
684.7330, 8441.000
685.8920, 8513.000
687.0500, 8479.000
688.2080, 8396.000
689.3660, 8478.000
690.5240, 8485.000
691.6820, 8512.000
692.8390, 8460.000
693.9960, 8441.000
695.1540, 8408.000
696.3110, 8448.000
697.4680, 8490.000
698.6240, 8407.000
699.7810, 8409.000
700.9370, 8382.000
702.0940, 8467.000
703.2500, 8510.000
704.4060, 8524.000
705.5610, 8379.000
706.7170, 8514.000
707.8720, 8386.000
709.0280, 8412.000
710.1830, 8540.000
711.3380, 8601.000
712.4920, 8436.000
713.6470, 8497.000
714.8020, 8561.000
715.9560, 8694.000
717.1100, 8638.000
718.2640, 8624.000
719.4180, 8592.000
720.5720, 8663.000
721.7250, 8589.000
722.8780, 8525.000
724.0320, 8616.000
725.1850, 8506.000
726.3380, 8600.000
727.4900, 8522.000
728.6430, 8674.000
729.7950, 8616.000
730.9470, 8676.000
732.1000, 8590.000
733.2510, 8594.000
734.4030, 8675.000
735.5550, 8632.000
736.7060, 8679.000
737.8570, 8756.000
739.0090, 8592.000
740.1600, 8687.000
741.3100, 8608.000
742.4610, 8658.000
743.6110, 8613.000
744.7620, 8589.000
745.9120, 8746.000
747.0620, 8856.000
748.2120, 8702.000
749.3610, 8709.000
750.5110, 8664.000
751.6600, 8805.000
752.8090, 8755.000
753.9580, 8844.000
755.1070, 8730.000
756.2560, 8834.000
757.4050, 8823.000
758.5530, 8916.000
759.7010, 8829.000
760.8490, 8764.000
761.9970, 8827.000
763.1450, 8867.000
764.2920, 8864.293
765.4400, 8846.000
766.5870, 8891.000
767.7340, 8968.000
768.8810, 8944.000
770.0280, 8960.000
771.1740, 8932.000
772.3210, 8856.000
773.4670, 8906.000
774.6130, 8983.000
775.7590, 9060.000
776.9050, 8917.000
778.0510, 9057.000
779.1960, 9128.000
780.3420, 9032.000
781.4870, 9232.000
782.6320, 9151.000
783.7770, 9113.000
784.9210, 9181.000
786.0660, 9279.000
787.2100, 9271.000
788.3540, 9252.000
789.4980, 9343.000
790.6420, 9252.000
791.7860, 9205.000
792.9300, 9226.000
794.0730, 9238.000
795.2160, 9158.000
796.3590, 9261.000
797.5020, 9219.000
798.6450, 9305.000
799.7880, 9172.000
800.9300, 9217.000
802.0720, 9199.000
803.2150, 9252.000
804.3560, 9253.000
805.4980, 9227.000
806.6400, 9288.000
807.7810, 9214.000
808.9230, 9285.000
810.0640, 9248.000
811.2050, 9282.000
812.3460, 9214.000
813.4860, 9307.000
814.6270, 9258.000
815.7670, 9275.000
816.9070, 9301.000
818.0470, 9322.000
819.1870, 9277.000
820.3270, 9282.000
821.4670, 9346.000
822.6060, 9180.000
823.7450, 9347.000
824.8840, 9243.000
826.0230, 9335.000
827.1620, 9195.000
828.3010, 9323.000
829.4390, 9431.000
830.5770, 9327.000
831.7150, 9278.000
832.8530, 9263.000
833.9910, 9364.000
835.1290, 9272.000
836.2660, 9442.000
837.4030, 9349.000
838.5410, 9380.000
839.6780, 9485.000
840.8140, 9501.000
841.9510, 9392.000
843.0870, 9559.000
844.2240, 9413.000
845.3600, 9501.000
846.4960, 9503.000
847.6320, 9446.000
848.7680, 9491.000
849.9030, 9436.000
851.0380, 9506.000
852.1740, 9606.000
853.3090, 9471.000
854.4440, 9565.000
855.5780, 9628.000
856.7130, 9592.000
857.8470, 9561.000
858.9820, 9455.000
860.1160, 9639.000
861.2500, 9596.000
862.3830, 9665.000
863.5170, 9529.000
864.6500, 9670.000
865.7840, 9600.000
866.9170, 9606.000
868.0500, 9550.000
869.1830, 9644.000
870.3150, 9669.000
871.4480, 9640.000
872.5800, 9588.000
873.7120, 9661.000
874.8440, 9596.000
875.9760, 9666.000
877.1080, 9738.000
878.2390, 9767.000
879.3710, 9592.000
880.5020, 9676.000
881.6330, 9697.000
882.7640, 9712.000
883.8940, 9752.000
885.0250, 9927.000
886.1550, 9660.000
887.2850, 9845.000
888.4160, 9719.000
889.5450, 9767.000
890.6750, 9720.000
891.8050, 9803.000
892.9340, 9780.524
894.0630, 9792.116
895.1930, 9762.000
896.3220, 9823.000
897.4500, 9792.000
898.5790, 9841.000
899.7070, 9872.000
900.8360, 9689.000
901.9640, 9878.000
903.0920, 9781.000
904.2200, 9835.000
905.3470, 9936.000
906.4750, 9975.000
907.6020, 9969.000
908.7290, 10036.00
909.8560, 9877.000
910.9830, 9950.000
912.1100, 9966.000
913.2360, 9856.000
914.3630, 9954.000
915.4890, 9915.000
916.6150, 9948.000
917.7410, 9937.000
918.8670, 9965.157
919.9920, 9977.068
921.1180, 10018.00
922.2430, 10035.00
923.3680, 10022.00
924.4930, 10110.00
925.6180, 10053.00
926.7420, 10264.00
927.8670, 10093.00
928.9910, 10006.00
930.1150, 10173.00
931.2390, 10080.00
932.3630, 10187.00
933.4860, 10242.00
934.6100, 10206.00
935.7330, 10188.00
936.8560, 10224.00
937.9790, 10302.00
939.1020, 10236.00
940.2250, 10218.00
941.3470, 10366.00
942.4700, 10216.00
943.5920, 10273.00
944.7140, 10449.00
945.8360, 10317.00
946.9570, 10372.00
948.0790, 10347.00
949.2000, 10399.00
950.3220, 10384.00
951.4430, 10493.00
952.5640, 10448.00
953.6840, 10596.00
954.8050, 10387.00
955.9250, 10330.00
957.0460, 10436.00
958.1660, 10512.00
959.2860, 10526.00
960.4050, 10480.00
961.5250, 10586.00
962.6440, 10557.00
963.7640, 10547.00
964.8830, 10586.00
966.0020, 10602.00
967.1210, 10658.00
968.2390, 10685.00
969.3580, 10666.00
970.4760, 10676.00
971.5940, 10715.00
972.7120, 10697.00
973.8300, 10756.02
974.9480, 10765.00
976.0650, 10839.00
977.1830, 10836.00
978.3000, 10836.00
979.4170, 10893.00
980.5340, 10863.46
981.6500, 10911.00
982.7670, 10851.00
983.8830, 10935.00
985.0000, 10958.00
986.1160, 11016.00
987.2320, 10965.00
988.3470, 11066.00
989.4630, 10972.00
990.5780, 11025.00
991.6940, 11124.00
992.8090, 11177.00
993.9240, 11060.00
995.0380, 11174.00
996.1530, 11099.00
997.2680, 11274.00
998.3820, 11317.00
999.4960, 11275.00
1000.610, 11493.00
1001.724, 11254.00
1002.837, 11364.00
1003.951, 11379.00
1005.064, 11408.00
1006.177, 11392.00
1007.291, 11356.00
1008.403, 11380.00
1009.516, 11361.00
1010.629, 11424.00
1011.741, 11395.00
1012.853, 11475.00
1013.965, 11487.98
1015.077, 11414.00
1016.189, 11528.00
1017.300, 11545.00
1018.412, 11530.00
1019.523, 11565.00
1020.634, 11593.83
1021.745, 11596.00
1022.856, 11689.00
1023.966, 11701.00
1025.077, 11769.00
1026.187, 11668.00
1027.297, 11748.88
1028.407, 11658.00
1029.517, 11817.00
1030.627, 11720.00
1031.736, 11723.00
1032.845, 11846.00
1033.955, 11873.00
1035.064, 11912.90
1036.172, 11864.00
1037.281, 11925.00
1038.390, 11924.00
1039.498, 11808.00
1040.606, 11958.00
1041.714, 12108.00
1042.822, 11971.00
1043.930, 12018.00
1045.037, 12082.00
1046.145, 12128.00
1047.252, 12150.00
1048.359, 12201.00
1049.466, 12285.00
1050.573, 12368.00
1051.679, 12393.57
1052.786, 12385.00
1053.892, 12396.00
1054.998, 12472.00
1056.104, 12359.00
1057.210, 12390.00
1058.315, 12241.00
1059.421, 12423.00
1060.526, 12496.00
1061.631, 12460.00
1062.736, 12561.00
1063.841, 12560.00
1064.946, 12601.00
1066.050, 12802.00
1067.154, 12738.00
1068.258, 12866.00
1069.362, 12801.00
1070.466, 13025.00
1071.570, 13220.00
1072.674, 13192.50
1073.777, 13263.00
1074.880, 13196.00
1075.983, 13249.00
1077.086, 13148.00
1078.189, 13397.00
1079.291, 13473.00
1080.394, 13417.00
1081.496, 13639.00
1082.598, 13892.00
1083.700, 13787.00
1084.802, 13880.00
1085.903, 14216.00
1087.005, 14110.79
1088.106, 14226.90
1089.207, 14209.00
1090.308, 14274.00
1091.409, 14427.00
1092.509, 14538.00
1093.610, 14484.00
1094.710, 14577.00
1095.810, 14517.00
1096.910, 14556.00
1098.010, 14582.00
1099.110, 14515.00
1100.209, 14527.00
1101.309, 14611.00
1102.408, 14447.00
1103.507, 14495.00
1104.606, 14560.00
1105.704, 14469.00
1106.803, 14497.30
1107.901, 14474.88
1108.999, 14430.00
1110.097, 14439.00
1111.195, 14386.00
1112.293, 14381.00
1113.391, 14442.00
1114.488, 14318.00
1115.585, 14448.00
1116.682, 14309.00
1117.779, 14069.00
1118.876, 14157.00
1119.973, 13966.00
1121.069, 13929.00
1122.165, 14037.00
1123.261, 14003.00
1124.357, 13837.00
1125.453, 13894.00
1126.549, 13884.00
1127.644, 13822.00
1128.739, 13846.24
1129.835, 13689.00
1130.930, 13799.00
1132.024, 13766.00
1133.119, 13695.22
1134.214, 13532.00
1135.308, 13453.00
1136.402, 13427.00
1137.496, 13364.00
1138.590, 13243.00
1139.684, 13343.00
1140.777, 13107.00
1141.871, 13289.00
1142.964, 13140.00
1144.057, 13121.00
1145.150, 13198.00
1146.243, 13065.00
1147.335, 12960.00
1148.428, 13256.00
1149.520, 13081.00
1150.612, 13022.00
1151.704, 12947.00
1152.796, 13114.00
1153.887, 12817.00
1154.979, 13059.00
1156.070, 12934.00
1157.161, 12930.00
1158.252, 12920.00
1159.343, 12820.00
1160.433, 12848.38
1161.524, 12829.59
1162.614, 12829.00
1163.704, 12879.00
1164.794, 12841.00
1165.884, 12929.00
1166.974, 12862.00
1168.063, 12704.00
1169.153, 12815.00
1170.242, 12790.00
1171.331, 12770.00
1172.420, 12774.00
1173.508, 12859.00
1174.597, 12825.00
1175.685, 12837.48
1176.774, 12822.46
1177.862, 12789.00
1178.950, 12755.00
1180.037, 12684.00
1181.125, 12653.00
1182.212, 12762.00
1183.300, 12712.00
1184.387, 12872.00
1185.474, 12727.00
1186.560, 12801.00
1187.647, 12721.00
1188.733, 12799.00
1189.820, 12867.00
1190.906, 12740.00
1191.992, 12762.00
1193.078, 12926.00
1194.163, 12774.00
1195.249, 12745.00
1196.334, 12852.00
1197.419, 12786.00
1198.504, 12850.00
1199.589, 12924.00
1200.674, 12808.00
1201.758, 12813.00
1202.843, 12769.00
1203.927, 12845.00
1205.011, 12818.00
1206.095, 12862.00
1207.179, 12894.15
1208.262, 12839.00
1209.345, 12963.00
1210.429, 13011.00
1211.512, 13059.00
1212.595, 13056.00
1213.677, 12983.00
1214.760, 12947.00
1215.842, 12969.00
1216.925, 12920.00
1218.007, 12968.12
1219.089, 13049.00
1220.171, 13084.00
1221.252, 13051.00
1222.334, 13160.00
1223.415, 13083.00
1224.496, 13037.00
1225.577, 13168.00
1226.658, 13111.00
1227.738, 13065.00
1228.819, 13051.00
1229.899, 13044.10
1230.979, 13123.00
1232.060, 13065.00
1233.139, 13172.00
1234.219, 13177.00
1235.299, 13140.00
1236.378, 13108.00
1237.457, 13293.00
1238.536, 13156.00
1239.615, 13228.00
1240.694, 13278.00
1241.772, 13251.00
1242.851, 13230.00
1243.929, 13167.00
1245.007, 13036.00
1246.085, 13350.00
1247.163, 13243.00
1248.240, 13350.00
1249.318, 13164.00
1250.395, 13172.00
1251.472, 13351.00
1252.549, 13336.00
1253.626, 13225.00
1254.703, 13354.00
1255.779, 13264.00
1256.855, 13291.00
1257.931, 13289.00
1259.007, 13287.00
1260.083, 13336.18
1261.159, 13362.10
1262.234, 13414.00
1263.310, 13477.00
1264.385, 13487.00
1265.460, 13580.00
1266.535, 13464.00
1267.610, 13321.00
1268.684, 13588.00
1269.758, 13502.00
1270.833, 13431.00
1271.907, 13553.00
1272.981, 13661.00
1274.054, 13564.00
1275.128, 13702.00
1276.201, 13724.00
1277.275, 13593.00
1278.348, 13582.00
1279.421, 13482.00
1280.493, 13550.00
1281.566, 13718.00
1282.638, 13680.00
1283.711, 13660.00
1284.783, 13793.00
1285.855, 13609.00
1286.927, 13652.00
1287.998, 13638.00
1289.070, 13857.00
1290.141, 13684.00
1291.212, 13777.00
1292.283, 13728.00
1293.354, 13952.00
1294.425, 13752.00
1295.495, 13661.00
1296.566, 13875.00
1297.636, 13881.00
1298.706, 13776.00
1299.776, 13878.00
1300.845, 13878.00
1301.915, 13768.00
1302.984, 13857.00
1304.054, 13803.00
1305.123, 13863.00
1306.191, 13811.00
1307.260, 13950.00
1308.329, 13878.00
1309.397, 14046.00
1310.465, 14010.00
1311.534, 14079.00
1312.602, 13961.00
1313.669, 14021.00
1314.737, 14070.00
1315.804, 14165.00
1316.872, 14042.00
1317.939, 14084.00
1319.006, 14077.00
1320.073, 14132.00
1321.139, 14312.00
1322.206, 14138.00
1323.272, 14229.00
1324.338, 14316.00
1325.404, 14212.00
1326.470, 14209.00
1327.536, 14331.00
1328.601, 14294.00
1329.667, 14383.00
1330.732, 14299.00
1331.797, 14231.00
1332.862, 14231.00
1333.926, 14437.00
1334.991, 14300.00
1336.055, 14311.00
1337.120, 14450.00
1338.184, 14310.00
1339.248, 14205.00
1340.311, 14261.00
1341.375, 14239.32
1342.438, 14357.00
1343.502, 14392.00
1344.565, 14336.00
1345.628, 14472.00
1346.691, 14438.00
1347.753, 14629.00
1348.816, 14371.00
1349.878, 14454.00
1350.940, 14529.00
1352.002, 14344.00
1353.064, 14536.00
1354.126, 14557.00
1355.187, 14458.00
1356.248, 14505.00
1357.310, 14625.00
1358.371, 14749.00
1359.431, 14619.00
1360.492, 14467.00
1361.553, 14441.00
1362.613, 14430.00
1363.673, 14449.90
1364.733, 14577.00
1365.793, 14603.00
1366.853, 14586.00
1367.912, 14669.00
1368.972, 14685.00
1370.031, 14704.00
1371.090, 14769.00
1372.149, 14878.00
1373.208, 14609.00
1374.267, 14789.00
1375.325, 14717.00
1376.383, 14831.00
1377.441, 14798.00
1378.499, 14752.00
1379.557, 14787.00
1380.615, 14855.00
1381.672, 14961.00
1382.730, 14943.10
1383.787, 14875.00
1384.844, 14963.00
1385.901, 14883.00
1386.957, 14945.00
1388.014, 14941.00
1389.070, 14888.00
1390.126, 14821.00
1391.182, 14940.00
1392.238, 14869.00
1393.294, 14859.00
1394.349, 14976.00
1395.405, 14906.00
1396.460, 15038.00
1397.515, 15255.00
1398.570, 15018.00
1399.625, 15167.00
1400.679, 14994.00
1401.734, 15107.00
1402.788, 15177.00
1403.842, 15253.00
1404.896, 15202.00
1405.950, 15281.00
1407.003, 15182.00
1408.057, 15181.00
1409.110, 15188.00
1410.163, 15166.16
1411.216, 15254.00
1412.269, 15166.00
1413.322, 15286.00
1414.374, 15247.00
1415.427, 15232.00
1416.479, 15336.00
1417.531, 15282.00
1418.583, 15383.00
1419.634, 15352.00
1420.686, 15371.00
1421.737, 15403.39
1422.788, 15339.00
1423.839, 15423.00
1424.890, 15516.00
1425.941, 15510.46
1426.992, 15553.00
1428.042, 15460.00
1429.092, 15360.00
1430.142, 15324.00
1431.192, 15429.00
1432.242, 15466.00
1433.291, 15510.00
1434.341, 15599.00
1435.390, 15620.00
1436.439, 15420.00
1437.488, 15504.00
1438.537, 15557.00
1439.586, 15693.00
1440.634, 15508.00
1441.682, 15662.00
1442.731, 15636.00
1443.779, 15561.00
1444.826, 15752.00
1445.874, 15625.00
1446.922, 15760.00
1447.969, 15702.00
1449.016, 15815.00
1450.063, 15592.00
1451.110, 15921.00
1452.157, 15843.00
1453.203, 15676.00
1454.250, 15730.00
1455.296, 15947.00
1456.342, 15902.00
1457.388, 15848.00
1458.433, 15857.00
1459.479, 15878.00
1460.524, 16000.00
1461.570, 15980.00
1462.615, 15790.00
1463.660, 15827.00
1464.705, 16006.00
1465.749, 15897.00
1466.794, 15998.00
1467.838, 15992.00
1468.882, 16058.00
1469.926, 15930.00
1470.970, 16015.00
1472.013, 16021.00
1473.057, 15889.00
1474.100, 16004.00
1475.143, 15972.78
1476.186, 15905.00
1477.229, 16002.00
1478.272, 16079.00
1479.314, 16045.00
1480.357, 16068.00
1481.399, 16262.00
1482.441, 16199.00
1483.483, 16194.00
1484.525, 16227.00
1485.566, 16127.00
1486.608, 16027.00
1487.649, 16222.00
1488.690, 16164.00
1489.731, 16128.00
1490.771, 16300.00
1491.812, 16267.00
1492.853, 16303.00
1493.893, 16333.00
1494.933, 16361.06
1495.973, 16367.00
1497.013, 16419.00
1498.052, 16418.00
1499.092, 16362.00
1500.131, 16411.60
1501.170, 16413.00
1502.209, 16430.00
1503.248, 16453.00
1504.287, 16425.00
1505.325, 16444.45
1506.363, 16452.10
1507.402, 16476.00
1508.440, 16464.00
1509.478, 16537.00
1510.515, 16519.00
1511.553, 16596.00
1512.590, 16518.00
1513.627, 16567.00
1514.664, 16508.00
1515.701, 16489.00
1516.738, 16503.00
1517.775, 16602.00
1518.811, 16571.00
1519.847, 16590.42
1520.883, 16673.00
1521.919, 16570.00
1522.955, 16591.00
1523.991, 16584.35
1525.026, 16630.00
1526.061, 16675.00
1527.096, 16780.00
1528.131, 16843.00
1529.166, 16820.00
1530.201, 16817.00
1531.235, 16799.00
1532.270, 16690.00
1533.304, 16845.00
1534.338, 16982.00
1535.372, 16888.00
1536.405, 16950.00
1537.439, 16859.00
1538.472, 16825.00
1539.505, 16842.00
1540.538, 16863.00
1541.571, 16850.00
1542.604, 16948.00
1543.637, 16895.00
1544.669, 16859.00
1545.701, 16954.00
1546.733, 16989.00
1547.765, 16983.00
1548.797, 17175.00
1549.829, 17119.00
1550.860, 16921.00
1551.891, 17234.00
1552.922, 17125.00
1553.953, 17084.00
1554.984, 17255.00
1556.015, 17290.00
1557.045, 17178.00
1558.076, 17248.00
1559.106, 17333.00
1560.136, 17263.00
1561.165, 17071.00
1562.195, 17325.00
1563.225, 17291.00
1564.254, 17175.00
1565.283, 17318.00
##END=



