##NAMES=Analcime
##RRUFFID=R050094
##IDEAL CHEMISTRY=NaAlSi_2_O_6_&#183;H_2_O
##LOCALITY=Springfield, Oregon, USA
##OWNER=RRUFF
##SOURCE=Rock Currier
##DESCRIPTION=Clear colorless single crystals associated with gmelinite
##STATUS=The identification of this mineral has been confirmed by X-ray diffraction and chemical analysis
##URL=rruff.info/R050094
##MEASURED CHEMISTRY=(Na_0.99_[box]_0.01_)_Σ=1_(Si_2.01_Al_0.99_)O_6_·H_2_O
##PIN_ID=M00117
##ORIENTATION=Laser parallel to a* (1 0 0). Fiducial mark perpendicular to laser is parallel to -c [0 0 -1]
169.7650, 6995.000
170.9990, 6969.000
172.2330, 6969.000
173.4670, 6993.000
174.7000, 6980.000
175.9330, 6949.000
177.1660, 6847.000
178.3990, 6936.000
179.6310, 6925.000
180.8640, 7031.000
182.0960, 6925.000
183.3280, 6895.000
184.5600, 6918.000
185.7910, 6966.000
187.0220, 7073.000
188.2540, 7011.000
189.4840, 7096.000
190.7150, 7261.000
191.9460, 7092.000
193.1760, 7092.000
194.4060, 7180.000
195.6360, 7177.000
196.8660, 7294.000
198.0960, 7273.000
199.3250, 7368.000
200.5540, 7466.000
201.7830, 7452.000
203.0120, 7479.000
204.2400, 7475.000
205.4690, 7302.000
206.6970, 7370.000
207.9250, 7329.000
209.1530, 7249.000
210.3800, 7282.000
211.6080, 7261.000
212.8350, 7224.000
214.0620, 7228.000
215.2880, 7084.000
216.5150, 7114.000
217.7410, 7012.000
218.9680, 6885.000
220.1940, 6907.000
221.4190, 6906.000
222.6450, 6889.000
223.8700, 6817.025
225.0960, 6686.000
226.3210, 6638.000
227.5450, 6526.021
228.7700, 6456.569
229.9940, 6381.000
231.2190, 6230.000
232.4430, 6159.000
233.6660, 6059.000
234.8900, 5911.000
236.1140, 5824.000
237.3370, 5894.000
238.5600, 5691.000
239.7830, 5732.000
241.0050, 5549.000
242.2280, 5489.000
243.4500, 5481.000
244.6720, 5357.000
245.8940, 5277.000
247.1160, 5225.000
248.3370, 5162.000
249.5580, 5159.000
250.7790, 5057.000
252.0000, 5022.000
253.2210, 4942.000
254.4410, 4889.000
255.6620, 4792.000
256.8820, 4789.000
258.1020, 4669.000
259.3210, 4977.000
260.5410, 4815.165
261.7600, 4803.846
262.9790, 4692.000
264.1980, 4666.000
265.4170, 4547.000
266.6360, 4535.000
267.8540, 4525.000
269.0720, 4482.000
270.2900, 4554.000
271.5080, 4525.000
272.7260, 4540.000
273.9430, 4535.000
275.1600, 4571.000
276.3770, 4598.943
277.5940, 4674.000
278.8100, 4703.000
280.0270, 4745.000
281.2430, 4846.000
282.4590, 4956.000
283.6750, 5154.000
284.8910, 5221.000
286.1060, 5566.000
287.3210, 5876.000
288.5360, 6219.000
289.7510, 6785.000
290.9660, 7266.000
292.1800, 7762.000
293.3950, 8381.000
294.6090, 8965.000
295.8230, 9477.000
297.0360, 9787.000
298.2500, 9879.967
299.4630, 9879.000
300.6760, 9537.000
301.8890, 9099.000
303.1020, 8413.000
304.3150, 7900.000
305.5270, 7367.000
306.7390, 6917.000
307.9510, 6533.000
309.1630, 6281.000
310.3750, 6101.000
311.5860, 5961.000
312.7970, 5787.000
314.0080, 5758.000
315.2190, 5589.000
316.4300, 5622.000
317.6400, 5643.000
318.8510, 5512.000
320.0610, 5563.000
321.2710, 5531.549
322.4800, 5539.421
323.6900, 5552.000
324.8990, 5570.000
326.1080, 5578.771
327.3170, 5579.000
328.5260, 5624.000
329.7340, 5652.000
330.9430, 5722.000
332.1510, 5777.000
333.3590, 5746.000
334.5670, 5839.000
335.7740, 5855.201
336.9820, 5916.000
338.1890, 5960.000
339.3960, 5951.000
340.6030, 6055.000
341.8100, 6116.000
343.0160, 6189.000
344.2220, 6162.000
345.4280, 6314.000
346.6340, 6387.000
347.8400, 6334.000
349.0460, 6410.000
350.2510, 6485.000
351.4560, 6481.000
352.6610, 6545.000
353.8660, 6635.000
355.0700, 6761.000
356.2750, 6782.000
357.4790, 6901.000
358.6830, 7033.000
359.8870, 7153.000
361.0910, 7237.000
362.2940, 7395.000
363.4970, 7614.000
364.7000, 7666.000
365.9030, 7995.000
367.1060, 8147.000
368.3080, 8187.000
369.5110, 8498.000
370.7130, 8733.000
371.9150, 8983.000
373.1170, 9330.000
374.3180, 9442.000
375.5200, 9696.000
376.7210, 10026.00
377.9220, 10222.00
379.1230, 10498.00
380.3230, 10764.00
381.5240, 11153.00
382.7240, 11408.00
383.9240, 11565.00
385.1240, 11823.00
386.3240, 12004.00
387.5230, 12041.00
388.7230, 12056.79
389.9220, 12020.00
391.1210, 11817.00
392.3200, 11784.00
393.5180, 11515.00
394.7170, 11113.00
395.9150, 10704.00
397.1130, 10298.00
398.3110, 9785.000
399.5080, 9308.000
400.7060, 8772.000
401.9030, 8436.000
403.1000, 8122.000
404.2970, 7664.000
405.4940, 7451.000
406.6910, 7152.000
407.8870, 7116.000
409.0830, 6831.000
410.2790, 6669.000
411.4750, 6630.000
412.6710, 6490.000
413.8660, 6236.000
415.0610, 6167.000
416.2560, 6023.000
417.4510, 5964.000
418.6460, 5955.000
419.8410, 5966.000
421.0350, 5802.000
422.2290, 5713.000
423.4230, 5764.000
424.6170, 5700.000
425.8100, 5658.000
427.0040, 5572.000
428.1970, 5625.000
429.3900, 5602.000
430.5830, 5641.000
431.7760, 5604.000
432.9680, 5673.000
434.1610, 5709.000
435.3530, 5778.000
436.5450, 5915.000
437.7360, 5895.000
438.9280, 5890.000
440.1190, 6111.000
441.3110, 6078.000
442.5020, 6273.000
443.6930, 6365.000
444.8830, 6464.000
446.0740, 6598.000
447.2640, 6879.000
448.4540, 7093.000
449.6440, 7324.000
450.8340, 7609.000
452.0240, 7919.000
453.2130, 8293.000
454.4020, 8711.000
455.5910, 9089.000
456.7800, 9721.000
457.9690, 10278.00
459.1570, 10984.00
460.3460, 11610.00
461.5340, 12588.00
462.7220, 13766.00
463.9090, 15002.00
465.0970, 16336.00
466.2840, 18037.00
467.4720, 19721.00
468.6590, 21953.00
469.8460, 24224.00
471.0320, 27149.00
472.2190, 30220.00
473.4050, 33569.00
474.5910, 37091.00
475.7770, 41382.00
476.9630, 44922.00
478.1490, 48730.00
479.3340, 52105.00
480.5190, 54915.00
481.7040, 56942.00
482.8890, 57912.00
484.0740, 57933.00
485.2580, 56770.00
486.4430, 54748.00
487.6270, 51369.00
488.8110, 48072.00
489.9950, 44051.00
491.1780, 39822.00
492.3620, 36440.00
493.5450, 32603.00
494.7280, 29136.00
495.9110, 26476.00
497.0940, 23859.00
498.2760, 21655.00
499.4590, 19644.00
500.6410, 17983.00
501.8230, 16421.00
503.0050, 15120.00
504.1860, 13928.00
505.3680, 12936.00
506.5490, 12116.00
507.7300, 11333.00
508.9110, 10633.23
510.0920, 10097.00
511.2730, 9501.000
512.4530, 9173.000
513.6330, 8834.000
514.8130, 8366.000
515.9930, 8078.000
517.1730, 7743.000
518.3520, 7464.000
519.5320, 7176.000
520.7110, 6945.366
521.8900, 6760.000
523.0690, 6525.000
524.2470, 6393.000
525.4260, 6185.000
526.6040, 6053.000
527.7820, 5795.000
528.9600, 5788.000
530.1380, 5563.000
531.3150, 5589.000
532.4930, 5464.000
533.6700, 5340.000
534.8470, 5243.000
536.0240, 5062.000
537.2000, 5081.000
538.3770, 4955.000
539.5530, 4897.000
540.7290, 4921.000
541.9050, 4758.000
543.0810, 4713.000
544.2570, 4700.000
545.4320, 4599.000
546.6080, 4517.000
547.7830, 4443.000
548.9580, 4449.000
550.1320, 4262.000
551.3070, 4210.000
552.4810, 4278.000
553.6550, 4198.000
554.8300, 4204.000
556.0030, 4049.000
557.1770, 4043.000
558.3510, 3969.000
559.5240, 4023.000
560.6970, 4017.000
561.8700, 3930.000
563.0430, 3921.000
564.2160, 3948.000
565.3880, 3949.000
566.5600, 3919.000
567.7320, 3864.000
568.9040, 3857.000
570.0760, 3775.000
571.2480, 3857.000
572.4190, 3913.000
573.5900, 3860.000
574.7610, 3843.000
575.9320, 3858.000
577.1030, 3859.000
578.2740, 3871.488
579.4440, 3872.125
580.6140, 3909.000
581.7840, 3862.000
582.9540, 3880.000
584.1240, 3854.000
585.2930, 3875.000
586.4630, 3884.476
587.6320, 3901.000
588.8010, 3910.000
589.9700, 3892.000
591.1380, 3885.000
592.3070, 3904.000
593.4750, 3944.000
594.6430, 3798.000
595.8110, 3862.000
596.9790, 3800.000
598.1460, 3847.000
599.3140, 3838.000
600.4810, 3934.000
601.6480, 3886.000
602.8150, 3863.000
603.9820, 3941.000
605.1480, 3902.000
606.3150, 3943.000
607.4810, 4053.000
608.6470, 4041.000
609.8130, 4108.000
610.9790, 4062.000
612.1440, 4072.000
613.3100, 4107.000
614.4750, 4123.000
615.6400, 4258.000
616.8050, 4274.000
617.9690, 4359.000
619.1340, 4425.218
620.2980, 4404.000
621.4620, 4498.000
622.6260, 4557.000
623.7900, 4499.000
624.9540, 4454.000
626.1170, 4455.000
627.2810, 4352.000
628.4440, 4230.000
629.6070, 4128.000
630.7690, 4171.000
631.9320, 4010.000
633.0950, 4086.000
634.2570, 3930.000
635.4190, 3970.000
636.5810, 3930.000
637.7430, 3863.000
638.9040, 4038.000
640.0660, 4040.000
641.2270, 4057.000
642.3880, 4100.000
643.5490, 4120.000
644.7100, 4181.000
645.8700, 4239.000
647.0310, 4224.000
648.1910, 4170.000
649.3510, 4164.000
650.5110, 4101.000
651.6710, 4107.000
652.8300, 4132.000
653.9900, 4044.000
655.1490, 4039.000
656.3080, 4023.000
657.4670, 3973.000
658.6250, 3958.000
659.7840, 3958.000
660.9420, 3937.128
662.1010, 3954.000
663.2590, 3949.000
664.4170, 3978.000
665.5740, 4031.000
666.7320, 3988.000
667.8890, 3999.000
669.0460, 3986.000
670.2030, 4073.000
671.3600, 4049.000
672.5170, 3960.000
673.6740, 4019.000
674.8300, 3910.000
675.9860, 4013.000
677.1420, 3888.000
678.2980, 3902.000
679.4540, 3823.000
680.6090, 3770.000
681.7650, 3660.000
682.9200, 3609.000
684.0750, 3589.000
685.2300, 3525.000
686.3840, 3357.000
687.5390, 3393.000
688.6930, 3320.000
689.8470, 3205.000
691.0010, 3241.000
692.1550, 3223.000
693.3090, 3198.000
694.4620, 3187.000
695.6160, 3216.000
696.7690, 3150.000
697.9220, 3183.000
699.0750, 3135.000
700.2280, 3091.000
701.3800, 3136.000
702.5320, 3105.000
703.6850, 3060.000
704.8370, 3059.000
705.9880, 3037.175
707.1400, 3063.000
708.2920, 3035.000
709.4430, 3011.000
710.5940, 3035.000
711.7450, 2996.000
712.8960, 3058.000
714.0470, 3032.000
715.1970, 3013.000
716.3480, 3105.000
717.4980, 3000.000
718.6480, 2965.000
719.7980, 2975.000
720.9470, 2924.000
722.0970, 3020.000
723.2460, 2942.000
724.3960, 3054.000
725.5450, 3009.000
726.6940, 3033.000
727.8420, 3000.000
728.9910, 3013.000
730.1390, 2992.000
731.2870, 2970.000
732.4350, 2993.000
733.5830, 3005.000
734.7310, 3032.000
735.8790, 2965.000
737.0260, 3011.000
738.1730, 2909.000
739.3200, 2938.000
740.4670, 2986.000
741.6140, 2927.000
742.7610, 2981.000
743.9070, 2888.000
745.0530, 2912.000
746.1990, 2941.000
747.3450, 2954.000
748.4910, 2970.765
749.6370, 2957.000
750.7820, 2979.000
751.9270, 2945.000
753.0720, 2916.000
754.2170, 2957.000
755.3620, 2975.000
756.5070, 2989.000
757.6510, 3001.942
758.7950, 2981.000
759.9400, 2998.000
761.0840, 2988.034
762.2270, 2963.000
763.3710, 3001.000
764.5140, 3010.000
765.6580, 3046.000
766.8010, 3042.000
767.9440, 3053.000
769.0870, 3063.000
770.2290, 3021.000
771.3720, 3109.000
772.5140, 3139.000
773.6560, 3085.000
774.7990, 3163.000
775.9400, 3207.000
777.0820, 3249.000
778.2240, 3256.000
779.3650, 3249.000
780.5060, 3306.000
781.6470, 3257.000
782.7880, 3379.000
783.9290, 3383.000
785.0690, 3353.000
786.2100, 3365.000
787.3500, 3364.215
788.4900, 3411.000
789.6300, 3392.000
790.7700, 3436.000
791.9090, 3482.000
793.0490, 3454.488
794.1880, 3355.000
795.3270, 3414.000
796.4660, 3381.000
797.6050, 3336.000
798.7440, 3393.000
799.8820, 3349.000
801.0200, 3318.000
802.1590, 3269.000
803.2970, 3296.000
804.4340, 3277.000
805.5720, 3250.000
806.7100, 3271.000
807.8470, 3224.000
808.9840, 3231.115
810.1210, 3212.000
811.2580, 3220.000
812.3950, 3217.000
813.5310, 3204.000
814.6680, 3207.123
815.8040, 3165.000
816.9400, 3188.000
818.0760, 3216.000
819.2120, 3183.000
820.3470, 3178.000
821.4830, 3128.000
822.6180, 3132.000
823.7530, 3190.000
824.8880, 3164.000
826.0230, 3245.000
827.1580, 3171.000
828.2920, 3111.000
829.4270, 3138.000
830.5610, 3182.000
831.6950, 3143.000
832.8290, 3207.000
833.9620, 3178.000
835.0960, 3155.000
836.2290, 3174.000
837.3620, 3296.000
838.4950, 3293.000
839.6280, 3302.000
840.7610, 3305.000
841.8940, 3328.000
843.0260, 3326.811
844.1580, 3355.000
845.2910, 3343.000
846.4230, 3335.000
847.5540, 3361.000
848.6860, 3367.000
849.8170, 3399.216
850.9490, 3431.000
852.0800, 3487.000
853.2110, 3504.000
854.3420, 3576.000
855.4730, 3591.000
856.6030, 3621.000
857.7340, 3642.000
858.8640, 3676.000
859.9940, 3677.000
861.1240, 3620.000
862.2540, 3603.000
863.3830, 3536.000
864.5130, 3499.000
865.6420, 3444.000
866.7710, 3444.000
867.9000, 3354.000
869.0290, 3284.000
870.1570, 3264.000
871.2860, 3317.000
872.4140, 3266.000
873.5430, 3237.000
874.6710, 3263.000
875.7980, 3246.000
876.9260, 3201.000
878.0540, 3218.000
879.1810, 3275.000
880.3080, 3257.000
881.4360, 3220.000
882.5630, 3252.000
883.6890, 3220.215
884.8160, 3134.000
885.9420, 3172.000
887.0690, 3199.000
888.1950, 3126.000
889.3210, 3137.000
890.4470, 3131.000
891.5730, 3217.000
892.6980, 3194.000
893.8240, 3166.000
894.9490, 3135.000
896.0740, 3231.000
897.1990, 3166.000
898.3240, 3137.000
899.4480, 3152.000
900.5730, 3095.000
901.6970, 3154.000
902.8210, 3092.000
903.9450, 3165.000
905.0690, 3227.658
906.1930, 3167.464
907.3160, 3173.542
908.4400, 3115.000
909.5630, 3090.000
910.6860, 3106.000
911.8090, 3105.000
912.9320, 3064.000
914.0550, 3037.000
915.1770, 3097.000
916.2990, 3069.000
917.4210, 3062.000
918.5440, 3007.000
919.6650, 3034.000
920.7870, 2992.000
921.9090, 3011.000
923.0300, 3027.000
924.1510, 3051.000
925.2720, 3076.000
926.3930, 3047.000
927.5140, 3073.000
928.6350, 3087.000
929.7550, 3119.000
930.8760, 3122.610
931.9960, 3100.000
933.1160, 3116.000
934.2360, 3141.000
935.3550, 3104.000
936.4750, 3097.000
937.5940, 3088.000
938.7140, 3113.000
939.8330, 3084.000
940.9520, 3133.000
942.0710, 3149.000
943.1890, 3143.000
944.3080, 3109.000
945.4260, 3148.000
946.5440, 3121.000
947.6620, 3167.000
948.7800, 3190.000
949.8980, 3147.000
951.0160, 3176.000
952.1330, 3196.000
953.2500, 3196.000
954.3680, 3221.000
955.4850, 3212.830
956.6010, 3294.000
957.7180, 3185.000
958.8350, 3204.000
959.9510, 3161.000
961.0670, 3214.000
962.1830, 3250.000
963.2990, 3264.000
964.4150, 3276.554
965.5310, 3285.270
966.6460, 3271.000
967.7620, 3262.000
968.8770, 3265.000
969.9920, 3203.000
971.1070, 3276.000
972.2210, 3331.000
973.3360, 3293.000
974.4500, 3362.000
975.5650, 3326.000
976.6790, 3443.000
977.7930, 3436.000
978.9070, 3439.000
980.0200, 3472.000
981.1340, 3438.000
982.2470, 3517.000
983.3610, 3549.000
984.4740, 3650.000
985.5870, 3653.000
986.6990, 3701.000
987.8120, 3666.000
988.9250, 3736.000
990.0370, 3744.000
991.1490, 3767.000
992.2610, 3739.000
993.3730, 3785.000
994.4850, 3790.000
995.5960, 3904.000
996.7080, 4032.000
997.8190, 4156.000
998.9300, 4352.000
1000.041, 4413.000
1001.152, 4465.000
1002.263, 4430.000
1003.373, 4236.000
1004.484, 4143.000
1005.594, 3997.000
1006.704, 3919.000
1007.814, 3906.000
1008.924, 3864.000
1010.034, 3867.000
1011.143, 3892.000
1012.253, 3938.000
1013.362, 3954.000
1014.471, 3999.896
1015.580, 4041.000
1016.689, 4086.000
1017.797, 4122.000
1018.906, 4170.000
1020.014, 4167.000
1021.122, 4230.000
1022.230, 4168.000
1023.338, 4268.000
1024.446, 4221.000
1025.554, 4256.000
1026.661, 4211.000
1027.768, 4249.000
1028.875, 4204.000
1029.983, 4194.000
1031.089, 4249.000
1032.196, 4233.000
1033.303, 4323.000
1034.409, 4325.000
1035.515, 4359.000
1036.622, 4303.000
1037.728, 4344.000
1038.833, 4383.000
1039.939, 4418.000
1041.045, 4489.000
1042.150, 4418.000
1043.255, 4440.000
1044.360, 4548.000
1045.465, 4610.000
1046.570, 4566.000
1047.675, 4627.000
1048.779, 4695.000
1049.884, 4564.000
1050.988, 4614.000
1052.092, 4631.170
1053.196, 4698.000
1054.300, 4700.000
1055.404, 4770.000
1056.507, 4798.000
1057.610, 4830.000
1058.714, 4964.000
1059.817, 4867.000
1060.920, 4840.000
1062.022, 5018.000
1063.125, 5036.000
1064.228, 5219.000
1065.330, 5197.000
1066.432, 5358.000
1067.534, 5269.000
1068.636, 5408.000
1069.738, 5506.000
1070.840, 5521.000
1071.941, 5555.000
1073.042, 5698.000
1074.144, 5745.000
1075.245, 5960.000
1076.346, 6044.000
1077.446, 6062.000
1078.547, 6187.000
1079.647, 6224.000
1080.748, 6347.000
1081.848, 6472.000
1082.948, 6279.000
1084.048, 6443.000
1085.148, 6469.000
1086.247, 6502.000
1087.347, 6647.000
1088.446, 6539.000
1089.545, 6653.000
1090.644, 6679.000
1091.743, 6603.000
1092.842, 6634.000
1093.940, 6665.000
1095.039, 6707.000
1096.137, 6697.000
1097.235, 6784.000
1098.333, 6752.000
1099.431, 6737.000
1100.529, 6831.000
1101.627, 6765.000
1102.724, 6783.000
1103.822, 6800.000
1104.919, 6862.000
1106.016, 6787.000
1107.113, 6740.000
1108.209, 6728.000
1109.306, 6566.000
1110.402, 6624.000
1111.499, 6600.000
1112.595, 6492.000
1113.691, 6501.000
1114.787, 6484.000
1115.883, 6382.000
1116.978, 6341.000
1118.074, 6264.000
1119.169, 6151.000
1120.264, 6120.000
1121.359, 6132.000
1122.454, 5962.000
1123.549, 5950.000
1124.644, 5870.000
1125.738, 5776.000
1126.832, 5669.000
1127.927, 5668.000
1129.021, 5579.000
1130.115, 5449.000
1131.208, 5344.000
1132.302, 5341.000
1133.396, 5189.000
1134.489, 5184.000
1135.582, 5050.000
1136.675, 5080.000
1137.768, 4853.000
1138.861, 4878.000
1139.954, 4786.000
1141.046, 4724.000
1142.138, 4665.000
1143.231, 4538.000
1144.323, 4597.000
1145.415, 4443.000
1146.507, 4479.000
1147.598, 4426.000
1148.690, 4294.000
1149.781, 4286.000
1150.872, 4219.000
1151.964, 4268.000
1153.054, 4183.000
1154.145, 4092.000
1155.236, 4125.000
1156.327, 4082.000
1157.417, 4076.000
1158.507, 4023.000
1159.597, 4028.000
1160.687, 3937.000
1161.777, 3910.000
1162.867, 3790.000
1163.956, 3876.000
1165.046, 3780.000
1166.135, 3850.000
1167.224, 3692.000
1168.313, 3782.000
1169.402, 3690.000
1170.491, 3636.000
1171.580, 3603.000
1172.668, 3620.000
1173.756, 3586.192
1174.845, 3579.508
1175.933, 3577.000
1177.020, 3560.000
1178.108, 3571.000
1179.196, 3572.000
1180.283, 3548.539
1181.371, 3533.000
1182.458, 3491.000
1183.545, 3492.000
1184.632, 3437.000
1185.719, 3403.000
1186.805, 3452.000
1187.892, 3440.000
1188.978, 3409.000
1190.065, 3388.000
1191.151, 3326.000
1192.237, 3361.000
1193.323, 3372.000
1194.408, 3338.000
1195.494, 3302.000
1196.579, 3319.000
1197.664, 3357.000
1198.750, 3334.515
1199.835, 3328.000
1200.919, 3323.000
1202.004, 3317.000
1203.089, 3295.000
1204.173, 3271.000
1205.258, 3250.000
1206.342, 3330.000
1207.426, 3294.000
1208.510, 3325.000
1209.594, 3354.000
1210.677, 3355.000
1211.761, 3365.000
1212.844, 3331.000
1213.927, 3383.000
1215.010, 3374.000
1216.093, 3441.000
1217.176, 3367.000
1218.259, 3344.000
1219.341, 3353.000
1220.424, 3310.000
1221.506, 3369.000
1222.588, 3332.000
1223.670, 3348.000
1224.752, 3273.000
1225.834, 3321.000
1226.915, 3323.000
1227.997, 3309.000
1229.078, 3341.000
1230.159, 3358.000
1231.240, 3359.000
1232.321, 3467.000
1233.402, 3435.000
1234.483, 3487.000
1235.563, 3350.000
1236.644, 3422.000
1237.724, 3444.000
1238.804, 3412.000
1239.884, 3435.000
1240.964, 3407.000
1242.044, 3463.000
1243.123, 3471.000
1244.203, 3514.000
1245.282, 3543.000
1246.361, 3481.000
1247.440, 3517.000
1248.519, 3473.000
1249.598, 3404.000
1250.676, 3529.000
1251.755, 3554.000
1252.833, 3447.000
1253.911, 3422.000
1254.989, 3501.000
1256.067, 3519.000
1257.145, 3459.000
1258.223, 3487.000
1259.300, 3535.000
1260.378, 3479.000
1261.455, 3531.000
1262.532, 3516.000
1263.609, 3575.000
1264.686, 3607.000
1265.763, 3592.000
1266.840, 3571.000
1267.916, 3674.000
1268.992, 3584.000
1270.069, 3654.000
1271.145, 3586.000
1272.221, 3657.000
1273.296, 3651.000
1274.372, 3754.000
1275.448, 3649.000
1276.523, 3622.000
1277.598, 3649.000
1278.673, 3640.000
1279.749, 3634.000
1280.823, 3647.000
1281.898, 3639.937
1282.973, 3581.000
1284.047, 3634.000
1285.122, 3626.000
1286.196, 3606.000
1287.270, 3654.000
1288.344, 3624.000
1289.418, 3626.000
1290.491, 3650.000
1291.565, 3731.000
1292.638, 3699.000
1293.712, 3692.000
1294.785, 3748.000
1295.858, 3662.000
1296.931, 3737.000
1298.003, 3761.000
1299.076, 3732.000
1300.149, 3757.000
1301.221, 3740.000
1302.293, 3758.000
1303.365, 3793.000
1304.437, 3735.000
1305.509, 3742.000
1306.581, 3830.000
1307.652, 3828.000
1308.724, 3903.000
1309.795, 3957.000
1310.866, 3934.000
1311.937, 3886.000
1313.008, 3824.000
1314.079, 3849.000
1315.150, 3866.000
1316.220, 3913.000
1317.291, 3877.000
1318.361, 3826.000
1319.431, 3892.000
1320.501, 3873.000
1321.571, 3782.000
1322.641, 3762.000
1323.710, 3807.000
1324.780, 3736.000
1325.849, 3716.000
1326.918, 3737.000
1327.987, 3700.000
1329.056, 3686.000
1330.125, 3621.000
1331.194, 3607.000
1332.263, 3589.000
1333.331, 3599.000
1334.399, 3549.000
1335.467, 3591.000
1336.535, 3612.000
1337.603, 3654.000
1338.671, 3558.000
1339.739, 3549.000
1340.806, 3590.000
1341.874, 3554.000
1342.941, 3557.000
1344.008, 3550.000
1345.075, 3652.000
1346.142, 3540.000
1347.209, 3635.000
1348.275, 3596.000
1349.342, 3588.000
1350.408, 3595.000
1351.475, 3547.000
1352.541, 3520.000
1353.607, 3476.000
1354.673, 3537.000
1355.738, 3574.000
1356.804, 3605.000
1357.869, 3565.000
1358.935, 3597.000
1360.000, 3511.000
1361.065, 3550.000
1362.130, 3525.000
1363.195, 3521.000
1364.259, 3534.000
1365.324, 3512.841
1366.388, 3522.241
1367.453, 3514.000
1368.517, 3527.000
1369.581, 3575.000
1370.645, 3583.000
1371.709, 3595.405
1372.772, 3650.000
1373.836, 3595.000
1374.899, 3641.000
1375.963, 3623.000
1377.026, 3645.000
1378.089, 3639.000
1379.152, 3702.000
1380.214, 3648.000
1381.277, 3575.000
1382.340, 3704.000
1383.402, 3656.000
1384.464, 3648.000
1385.526, 3659.000
1386.588, 3641.000
1387.650, 3691.000
1388.712, 3678.000
1389.774, 3621.000
1390.835, 3565.000
1391.896, 3531.000
1392.958, 3597.000
1394.019, 3598.000
1395.080, 3564.000
1396.141, 3634.000
1397.201, 3548.000
1398.262, 3542.000
1399.323, 3563.000
1400.383, 3602.000
1401.443, 3582.000
1402.503, 3562.000
1403.563, 3704.000
1404.623, 3562.000
1405.683, 3644.000
1406.742, 3562.000
1407.802, 3573.000
1408.861, 3621.000
1409.920, 3639.000
1410.980, 3628.000
1412.039, 3615.658
1413.097, 3568.000
1414.156, 3554.000
1415.215, 3550.000
1416.273, 3548.000
1417.331, 3545.000
1418.390, 3476.000
1419.448, 3464.000
1420.506, 3481.000
1421.564, 3520.000
1422.621, 3479.000
1423.679, 3494.000
1424.736, 3529.000
1425.794, 3539.000
1426.851, 3605.000
1427.908, 3618.000
1428.965, 3558.000
1430.022, 3692.000
1431.079, 3599.000
1432.135, 3601.000
1433.192, 3767.000
1434.248, 3673.000
1435.304, 3761.000
1436.360, 3892.000
1437.416, 3895.000
1438.472, 3905.000
1439.528, 3927.000
1440.583, 4025.000
1441.639, 4147.000
1442.694, 4162.000
1443.749, 4226.000
1444.804, 4197.000
1445.859, 4209.000
1446.914, 4250.000
1447.969, 4257.000
1449.024, 4338.000
1450.078, 4305.000
1451.132, 4305.000
1452.187, 4329.000
1453.241, 4436.000
1454.295, 4413.000
1455.349, 4400.000
1456.402, 4387.000
1457.456, 4361.000
1458.509, 4338.000
1459.563, 4273.000
1460.616, 4204.000
1461.669, 4110.000
1462.722, 4097.000
1463.775, 4108.000
1464.828, 3970.000
1465.880, 3924.000
1466.933, 3946.000
1467.985, 3897.000
1469.037, 3847.000
1470.090, 3824.000
1471.142, 3738.000
1472.193, 3728.000
1473.245, 3791.000
1474.297, 3790.000
1475.348, 3704.000
1476.400, 3730.000
1477.451, 3696.000
1478.502, 3731.000
1479.553, 3696.000
1480.604, 3695.208
1481.655, 3660.000
1482.706, 3669.000
1483.756, 3649.000
1484.807, 3614.000
1485.857, 3558.000
1486.907, 3575.000
1487.957, 3513.000
1489.007, 3477.000
1490.057, 3500.000
1491.106, 3460.000
1492.156, 3511.000
1493.205, 3468.000
1494.255, 3461.397
1495.304, 3363.000
1496.353, 3423.000
1497.402, 3403.000
1498.451, 3380.000
1499.500, 3376.000
1500.548, 3356.000
1501.597, 3364.000
1502.645, 3321.000
1503.693, 3357.000
1504.741, 3317.000
1505.789, 3400.000
1506.837, 3362.000
1507.885, 3360.000
1508.932, 3376.000
1509.980, 3354.000
1511.027, 3416.000
1512.075, 3323.000
1513.122, 3354.000
1514.169, 3459.000
1515.216, 3364.000
1516.262, 3398.000
1517.309, 3420.000
1518.356, 3360.000
1519.402, 3427.000
1520.448, 3378.000
1521.495, 3402.000
1522.541, 3435.000
1523.587, 3436.000
1524.632, 3438.000
1525.678, 3465.000
1526.724, 3518.000
1527.769, 3519.000
1528.814, 3543.042
1529.860, 3554.613
1530.905, 3558.000
1531.950, 3526.000
1532.995, 3520.000
1534.039, 3506.153
1535.084, 3463.000
1536.128, 3487.000
1537.173, 3483.000
1538.217, 3492.000
1539.261, 3459.000
1540.305, 3483.000
1541.349, 3465.000
1542.393, 3479.916
1543.436, 3553.000
1544.480, 3507.000
1545.523, 3527.000
1546.567, 3525.000
1547.610, 3512.000
1548.653, 3562.000
1549.696, 3547.000
1550.739, 3514.000
1551.781, 3559.000
1552.824, 3634.000
1553.867, 3629.000
1554.909, 3644.000
1555.951, 3581.000
1556.993, 3658.000
1558.035, 3691.000
1559.077, 3568.000
1560.119, 3634.000
1561.161, 3564.000
1562.202, 3644.000
1563.243, 3618.000
1564.285, 3625.000
1565.326, 3657.000
##END=



