##NAMES=Analcime
##RRUFFID=R060023
##IDEAL CHEMISTRY=NaAlSi_2_O_6_&#183;H_2_O
##LOCALITY=Dallas, Oregon, USA
##OWNER=RRUFF
##SOURCE=Bob Downs
##DESCRIPTION=White trapezohedral crystal associated with levyne-Na, R060021
##STATUS=The identification of this mineral has been confirmed by X-ray diffraction and chemical analysis
##URL=rruff.info/R060023
##MEASURED CHEMISTRY=(Na_0.98_[box]_0.02_)_Σ=1_(Si_2.02_Al_0.98_)O_6_·H_2_O
##PIN_ID=M00414
##ORIENTATION=Laser parallel to c* (0 0 1). Fiducial mark perpendicular to laser is parallel to a [1 0 0]
181.5980, 8975.000
182.8230, 9063.000
184.0490, 9038.000
185.2740, 9065.000
186.5000, 9074.000
187.7250, 9079.000
188.9500, 9093.000
190.1740, 9197.000
191.3990, 9133.000
192.6230, 9212.000
193.8480, 9171.000
195.0720, 9186.000
196.2960, 9232.000
197.5200, 9237.000
198.7430, 9302.000
199.9670, 9340.000
201.1900, 9335.000
202.4130, 9377.000
203.6360, 9335.000
204.8590, 9370.000
206.0820, 9359.000
207.3050, 9499.000
208.5270, 9510.000
209.7490, 9491.000
210.9710, 9622.000
212.1930, 9542.000
213.4150, 9750.000
214.6370, 9685.000
215.8580, 9646.000
217.0790, 9784.000
218.3010, 9728.000
219.5210, 9753.000
220.7420, 9630.000
221.9630, 9781.000
223.1830, 9618.000
224.4040, 9670.000
225.6240, 9694.000
226.8440, 9562.000
228.0640, 9528.000
229.2840, 9513.000
230.5030, 9308.000
231.7230, 9272.000
232.9420, 9120.000
234.1610, 9126.000
235.3800, 9121.000
236.5990, 8973.000
237.8170, 8924.000
239.0360, 8842.000
240.2540, 8835.000
241.4720, 8795.000
242.6900, 8799.000
243.9080, 8695.000
245.1250, 8755.000
246.3430, 8586.000
247.5600, 8616.000
248.7770, 8613.000
249.9940, 8600.000
251.2110, 8581.265
252.4280, 8536.838
253.6450, 8526.000
254.8610, 8470.000
256.0770, 8474.000
257.2930, 8533.000
258.5090, 8500.554
259.7250, 8503.598
260.9400, 8526.000
262.1560, 8469.000
263.3710, 8517.000
264.5860, 8515.000
265.8010, 8574.000
267.0160, 8546.000
268.2310, 8584.000
269.4450, 8591.000
270.6600, 8522.000
271.8740, 8683.000
273.0880, 8595.000
274.3020, 8729.000
275.5150, 8827.000
276.7290, 8855.000
277.9420, 8889.000
279.1550, 8962.000
280.3680, 9055.000
281.5810, 9450.000
282.7940, 9457.000
284.0070, 9615.000
285.2190, 10101.00
286.4310, 10379.00
287.6430, 10698.00
288.8550, 11136.00
290.0670, 11440.00
291.2790, 11895.00
292.4900, 12194.00
293.7020, 12334.00
294.9130, 12615.00
296.1240, 12506.00
297.3350, 12476.00
298.5450, 12239.00
299.7560, 11899.00
300.9660, 11561.00
302.1760, 11174.00
303.3860, 10864.00
304.5960, 10564.00
305.8060, 10478.00
307.0150, 10325.00
308.2250, 10162.00
309.4340, 10106.00
310.6430, 10014.00
311.8520, 9878.000
313.0610, 9896.000
314.2700, 9885.000
315.4780, 9912.000
316.6860, 9914.996
317.8940, 10023.00
319.1020, 9958.000
320.3100, 9987.000
321.5180, 10063.00
322.7250, 9935.000
323.9330, 10008.00
325.1400, 10161.00
326.3470, 10047.00
327.5540, 10075.00
328.7600, 10094.00
329.9670, 10090.00
331.1730, 10130.65
332.3800, 10242.00
333.5860, 10186.00
334.7920, 10281.00
335.9970, 10296.00
337.2030, 10287.00
338.4080, 10407.00
339.6140, 10379.00
340.8190, 10332.00
342.0240, 10432.00
343.2290, 10517.00
344.4330, 10443.00
345.6380, 10664.00
346.8420, 10555.00
348.0460, 10660.00
349.2500, 10640.00
350.4540, 10570.00
351.6580, 10785.00
352.8610, 10790.12
354.0650, 10958.00
355.2680, 10984.00
356.4710, 11228.00
357.6740, 11309.00
358.8760, 11386.00
360.0790, 11509.00
361.2810, 11676.00
362.4840, 11784.00
363.6860, 12034.00
364.8880, 12121.00
366.0900, 12390.00
367.2910, 12416.00
368.4930, 12818.00
369.6940, 13024.00
370.8950, 13251.00
372.0960, 13576.00
373.2970, 13743.00
374.4980, 14101.00
375.6980, 14309.00
376.8980, 14365.00
378.0990, 14388.00
379.2990, 14726.00
380.4980, 14675.00
381.6980, 14738.00
382.8980, 14796.00
384.0970, 14808.00
385.2960, 14472.00
386.4950, 14427.00
387.6940, 14215.00
388.8930, 14193.00
390.0920, 14017.00
391.2900, 13758.00
392.4880, 13656.00
393.6860, 13506.00
394.8840, 13256.70
396.0820, 13001.00
397.2800, 12833.00
398.4770, 12572.00
399.6750, 12450.00
400.8720, 12331.00
402.0690, 12008.00
403.2660, 11944.00
404.4620, 11760.00
405.6590, 11681.00
406.8550, 11539.00
408.0510, 11448.39
409.2480, 11345.53
410.4430, 11300.00
411.6390, 11216.00
412.8350, 11168.00
414.0300, 11258.00
415.2250, 11274.00
416.4200, 11241.00
417.6150, 11156.00
418.8100, 11190.00
420.0050, 11061.00
421.1990, 10941.00
422.3940, 11189.00
423.5880, 11030.00
424.7820, 11024.00
425.9750, 11228.00
427.1690, 11048.00
428.3630, 11045.00
429.5560, 11038.00
430.7490, 11072.00
431.9420, 11184.00
433.1350, 11144.00
434.3280, 11302.00
435.5200, 11255.00
436.7130, 11371.00
437.9050, 11508.00
439.0970, 11451.00
440.2890, 11514.00
441.4810, 11525.00
442.6720, 11597.40
443.8640, 11731.00
445.0550, 11868.00
446.2460, 12037.00
447.4370, 12211.06
448.6280, 12502.00
449.8180, 12582.00
451.0090, 12878.52
452.1990, 13046.00
453.3890, 13375.00
454.5790, 13680.00
455.7690, 13996.00
456.9590, 14536.00
458.1480, 15028.00
459.3380, 15676.00
460.5270, 16418.00
461.7160, 17160.00
462.9050, 18366.00
464.0940, 19306.00
465.2820, 20807.00
466.4700, 22509.00
467.6590, 23984.00
468.8470, 26382.00
470.0350, 28577.00
471.2220, 31195.00
472.4100, 33556.00
473.5970, 36331.00
474.7850, 39077.00
475.9720, 41520.00
477.1590, 43268.00
478.3460, 44818.00
479.5320, 45941.00
480.7190, 45823.00
481.9050, 45474.00
483.0910, 44255.00
484.2770, 42641.00
485.4630, 40129.00
486.6490, 37888.00
487.8340, 35236.00
489.0200, 32612.00
490.2050, 29975.00
491.3900, 27795.00
492.5750, 25713.00
493.7600, 23753.00
494.9440, 22407.00
496.1290, 20872.00
497.3130, 19670.00
498.4970, 18764.00
499.6810, 17947.00
500.8650, 17164.00
502.0480, 16587.00
503.2320, 15802.00
504.4150, 15464.00
505.5980, 14943.00
506.7810, 14522.00
507.9640, 14227.00
509.1460, 13905.00
510.3290, 13667.00
511.5110, 13406.00
512.6930, 13166.00
513.8750, 13080.00
515.0570, 13076.00
516.2390, 12742.00
517.4210, 12626.00
518.6020, 12661.00
519.7830, 12425.00
520.9640, 12305.00
522.1450, 12227.00
523.3260, 12269.00
524.5060, 11989.00
525.6870, 12090.00
526.8670, 12101.00
528.0470, 11688.00
529.2270, 11825.00
530.4070, 11915.00
531.5870, 11818.00
532.7660, 11711.00
533.9450, 11665.00
535.1240, 11620.00
536.3030, 11631.00
537.4820, 11623.00
538.6610, 11481.00
539.8390, 11572.00
541.0180, 11591.00
542.1960, 11455.00
543.3740, 11506.00
544.5520, 11451.69
545.7290, 11387.89
546.9070, 11433.00
548.0840, 11290.00
549.2620, 11344.00
550.4390, 11330.00
551.6160, 11363.00
552.7920, 11366.00
553.9690, 11374.00
555.1450, 11237.00
556.3220, 11282.00
557.4980, 11155.00
558.6740, 11300.00
559.8490, 11445.00
561.0250, 11230.00
562.2000, 11192.00
563.3760, 11217.00
564.5510, 11266.00
565.7260, 11329.00
566.9010, 11223.00
568.0750, 11205.00
569.2500, 11302.00
570.4240, 11490.00
571.5980, 11377.00
572.7720, 11388.00
573.9460, 11340.00
575.1200, 11389.00
576.2930, 11339.00
577.4670, 11447.00
578.6400, 11397.00
579.8130, 11448.00
580.9860, 11407.00
582.1590, 11410.73
583.3310, 11419.00
584.5040, 11435.00
585.6760, 11499.00
586.8480, 11580.00
588.0200, 11557.00
589.1920, 11602.00
590.3630, 11632.00
591.5350, 11651.00
592.7060, 11665.00
593.8770, 11721.00
595.0480, 11781.00
596.2190, 11786.00
597.3900, 11847.00
598.5600, 11971.00
599.7310, 11951.00
600.9010, 12207.00
602.0710, 12115.00
603.2410, 12254.00
604.4100, 12359.00
605.5800, 12304.00
606.7490, 12549.00
607.9190, 12427.00
609.0880, 12383.00
610.2570, 12518.00
611.4250, 12204.00
612.5940, 12100.00
613.7620, 12224.00
614.9310, 12334.00
616.0990, 12165.00
617.2670, 12074.00
618.4340, 12096.00
619.6020, 12008.00
620.7690, 12037.49
621.9370, 12167.00
623.1040, 12069.00
624.2710, 12122.00
625.4380, 12090.00
626.6040, 12061.00
627.7710, 12149.00
628.9370, 12256.00
630.1030, 12272.00
631.2690, 12165.00
632.4350, 12341.00
633.6010, 12267.00
634.7660, 12241.00
635.9320, 12304.00
637.0970, 12270.00
638.2620, 12274.00
639.4270, 12286.00
640.5920, 12241.00
641.7560, 12283.00
642.9210, 12209.00
644.0850, 12264.00
645.2490, 12195.00
646.4130, 12164.00
647.5770, 12182.00
648.7400, 12176.06
649.9040, 12461.00
651.0670, 12267.00
652.2300, 12305.00
653.3930, 12426.00
654.5560, 12280.00
655.7190, 12154.00
656.8810, 12231.00
658.0440, 12191.00
659.2060, 12211.03
660.3680, 12132.00
661.5300, 12293.00
662.6910, 12328.00
663.8530, 12385.00
665.0140, 12363.00
666.1750, 12314.00
667.3360, 12516.00
668.4970, 12353.00
669.6580, 12525.00
670.8190, 12504.00
671.9790, 12375.00
673.1390, 12469.00
674.2990, 12389.00
675.4590, 12427.00
676.6190, 12439.00
677.7790, 12593.00
678.9380, 12316.00
680.0970, 12328.00
681.2570, 12540.00
682.4160, 12300.00
683.5740, 12456.00
684.7330, 12186.00
685.8920, 12464.00
687.0500, 12167.00
688.2080, 12238.00
689.3660, 12319.00
690.5240, 12327.00
691.6820, 12363.05
692.8390, 12339.00
693.9960, 12362.00
695.1540, 12291.00
696.3110, 12253.00
697.4680, 12366.00
698.6240, 12279.00
699.7810, 12346.00
700.9370, 12400.00
702.0940, 12368.00
703.2500, 12354.00
704.4060, 12365.00
705.5610, 12321.00
706.7170, 12339.08
707.8720, 12362.00
709.0280, 12379.00
710.1830, 12438.00
711.3380, 12518.00
712.4920, 12465.00
713.6470, 12466.00
714.8020, 12433.00
715.9560, 12476.00
717.1100, 12562.00
718.2640, 12551.00
719.4180, 12563.24
720.5720, 12622.00
721.7250, 12570.00
722.8780, 12543.00
724.0320, 12640.00
725.1850, 12600.00
726.3380, 12553.00
727.4900, 12675.00
728.6430, 12559.00
729.7950, 12605.00
730.9470, 12735.00
732.1000, 12548.00
733.2510, 12638.00
734.4030, 12617.00
735.5550, 12605.00
736.7060, 12565.00
737.8570, 12848.00
739.0090, 12759.00
740.1600, 12783.00
741.3100, 12808.00
742.4610, 12781.00
743.6110, 12739.00
744.7620, 12639.00
745.9120, 12553.00
747.0620, 12735.00
748.2120, 12848.00
749.3610, 12865.00
750.5110, 12876.00
751.6600, 12873.92
752.8090, 12878.00
753.9580, 12826.00
755.1070, 12832.00
756.2560, 12875.00
757.4050, 12946.00
758.5530, 12909.00
759.7010, 12992.00
760.8490, 12958.00
761.9970, 12991.00
763.1450, 13009.00
764.2920, 12995.00
765.4400, 13042.00
766.5870, 12999.00
767.7340, 12998.00
768.8810, 13117.00
770.0280, 13092.00
771.1740, 13089.00
772.3210, 13152.00
773.4670, 13129.00
774.6130, 13163.00
775.7590, 13292.00
776.9050, 13252.00
778.0510, 13324.00
779.1960, 13294.00
780.3420, 13316.00
781.4870, 13421.00
782.6320, 13379.00
783.7770, 13545.00
784.9210, 13492.00
786.0660, 13506.00
787.2100, 13513.00
788.3540, 13487.00
789.4980, 13517.00
790.6420, 13522.96
791.7860, 13446.00
792.9300, 13550.00
794.0730, 13571.00
795.2160, 13558.00
796.3590, 13511.00
797.5020, 13411.00
798.6450, 13591.00
799.7880, 13552.00
800.9300, 13417.00
802.0720, 13500.00
803.2150, 13359.00
804.3560, 13567.00
805.4980, 13565.00
806.6400, 13547.00
807.7810, 13623.00
808.9230, 13561.00
810.0640, 13544.00
811.2050, 13470.00
812.3460, 13486.00
813.4860, 13509.00
814.6270, 13648.00
815.7670, 13556.00
816.9070, 13637.00
818.0470, 13733.00
819.1870, 13582.00
820.3270, 13641.00
821.4670, 13577.00
822.6060, 13791.00
823.7450, 13659.00
824.8840, 13649.00
826.0230, 13559.00
827.1620, 13782.00
828.3010, 13679.00
829.4390, 13744.00
830.5770, 13917.00
831.7150, 13795.00
832.8530, 13796.00
833.9910, 13663.00
835.1290, 13711.00
836.2660, 13718.00
837.4030, 13674.00
838.5410, 13863.00
839.6780, 13733.00
840.8140, 13837.00
841.9510, 13989.00
843.0870, 13924.00
844.2240, 13929.00
845.3600, 13886.00
846.4960, 13872.00
847.6320, 13793.00
848.7680, 14034.00
849.9030, 13988.00
851.0380, 14025.00
852.1740, 13938.00
853.3090, 14017.00
854.4440, 14046.00
855.5780, 14084.00
856.7130, 14084.00
857.8470, 14146.00
858.9820, 14080.00
860.1160, 14009.00
861.2500, 14115.00
862.3830, 14058.00
863.5170, 14011.00
864.6500, 14135.00
865.7840, 14061.00
866.9170, 14211.00
868.0500, 14176.00
869.1830, 14142.00
870.3150, 14126.00
871.4480, 14158.00
872.5800, 14122.00
873.7120, 14100.00
874.8440, 14196.00
875.9760, 14120.00
877.1080, 14094.00
878.2390, 14361.00
879.3710, 14316.00
880.5020, 14371.00
881.6330, 14267.00
882.7640, 14190.00
883.8940, 14307.00
885.0250, 14304.00
886.1550, 14441.00
887.2850, 14382.00
888.4160, 14380.00
889.5450, 14521.00
890.6750, 14382.00
891.8050, 14506.00
892.9340, 14443.00
894.0630, 14383.00
895.1930, 14434.00
896.3220, 14613.00
897.4500, 14379.00
898.5790, 14511.00
899.7070, 14590.00
900.8360, 14542.00
901.9640, 14647.00
903.0920, 14608.06
904.2200, 14578.00
905.3470, 14566.00
906.4750, 14477.00
907.6020, 14461.00
908.7290, 14448.00
909.8560, 14417.84
910.9830, 14562.00
912.1100, 14463.00
913.2360, 14538.00
914.3630, 14692.00
915.4890, 14660.00
916.6150, 14785.00
917.7410, 14677.00
918.8670, 14776.00
919.9920, 14859.00
921.1180, 14692.00
922.2430, 14875.00
923.3680, 14713.00
924.4930, 14724.00
925.6180, 14890.00
926.7420, 15031.00
927.8670, 14826.00
928.9910, 14929.00
930.1150, 14954.00
931.2390, 14920.00
932.3630, 14983.00
933.4860, 15109.00
934.6100, 15030.00
935.7330, 15121.00
936.8560, 15110.00
937.9790, 15102.00
939.1020, 15118.00
940.2250, 15003.00
941.3470, 15148.00
942.4700, 15215.00
943.5920, 15097.00
944.7140, 15201.00
945.8360, 15119.00
946.9570, 15345.00
948.0790, 15378.00
949.2000, 15231.00
950.3220, 15131.00
951.4430, 15234.00
952.5640, 15299.00
953.6840, 15202.00
954.8050, 15363.00
955.9250, 15188.00
957.0460, 15152.00
958.1660, 15450.00
959.2860, 15421.00
960.4050, 15542.00
961.5250, 15502.00
962.6440, 15406.00
963.7640, 15536.00
964.8830, 15460.00
966.0020, 15465.00
967.1210, 15510.00
968.2390, 15489.00
969.3580, 15655.00
970.4760, 15637.00
971.5940, 15729.00
972.7120, 15618.00
973.8300, 15619.00
974.9480, 15783.00
976.0650, 15819.00
977.1830, 15877.00
978.3000, 15879.00
979.4170, 15920.00
980.5340, 15913.00
981.6500, 15805.00
982.7670, 15959.00
983.8830, 16120.00
985.0000, 16114.00
986.1160, 16037.00
987.2320, 16101.00
988.3470, 15953.00
989.4630, 16218.00
990.5780, 16143.00
991.6940, 16124.00
992.8090, 16065.00
993.9240, 16076.00
995.0380, 16081.00
996.1530, 16243.00
997.2680, 16177.00
998.3820, 16266.00
999.4960, 16095.00
1000.610, 16245.00
1001.724, 16275.00
1002.837, 16217.00
1003.951, 16324.00
1005.064, 16384.00
1006.177, 16303.00
1007.291, 16444.00
1008.403, 16262.00
1009.516, 16278.00
1010.629, 16547.00
1011.741, 16347.00
1012.853, 16410.00
1013.965, 16468.00
1015.077, 16452.00
1016.189, 16397.00
1017.300, 16609.00
1018.412, 16578.00
1019.523, 16845.00
1020.634, 16519.00
1021.745, 16742.00
1022.856, 16549.00
1023.966, 16809.00
1025.077, 16811.00
1026.187, 16639.00
1027.297, 16694.00
1028.407, 16850.00
1029.517, 16900.00
1030.627, 16810.00
1031.736, 16876.00
1032.845, 16956.00
1033.955, 16925.00
1035.064, 16783.00
1036.172, 16959.00
1037.281, 16988.00
1038.390, 17267.00
1039.498, 16943.00
1040.606, 17296.00
1041.714, 17256.00
1042.822, 17040.00
1043.930, 17284.00
1045.037, 17223.00
1046.145, 17349.00
1047.252, 17266.00
1048.359, 17261.00
1049.466, 17427.00
1050.573, 17342.00
1051.679, 17355.00
1052.786, 17516.00
1053.892, 17695.00
1054.998, 17482.00
1056.104, 17637.00
1057.210, 17484.00
1058.315, 17595.00
1059.421, 17778.00
1060.526, 17583.00
1061.631, 17726.00
1062.736, 17809.00
1063.841, 17939.00
1064.946, 17993.29
1066.050, 18041.94
1067.154, 18087.00
1068.258, 18103.00
1069.362, 18142.00
1070.466, 18193.00
1071.570, 18132.00
1072.674, 18267.00
1073.777, 18538.00
1074.880, 18500.00
1075.983, 18600.00
1077.086, 18524.00
1078.189, 18786.00
1079.291, 18654.00
1080.394, 18896.00
1081.496, 18799.00
1082.598, 18981.00
1083.700, 19222.00
1084.802, 19084.00
1085.903, 19293.00
1087.005, 19253.00
1088.106, 19290.00
1089.207, 19522.00
1090.308, 19435.00
1091.409, 19790.00
1092.509, 19581.00
1093.610, 19873.00
1094.710, 19780.00
1095.810, 19757.00
1096.910, 19872.00
1098.010, 19687.00
1099.110, 19665.00
1100.209, 19722.00
1101.309, 19752.00
1102.408, 19808.00
1103.507, 19541.00
1104.606, 19642.00
1105.704, 19638.00
1106.803, 19529.00
1107.901, 19638.00
1108.999, 19733.00
1110.097, 19679.00
1111.195, 19669.01
1112.293, 19650.00
1113.391, 19527.00
1114.488, 19507.00
1115.585, 19493.00
1116.682, 19383.00
1117.779, 19390.00
1118.876, 19344.68
1119.973, 19330.00
1121.069, 19299.00
1122.165, 19321.00
1123.261, 19315.00
1124.357, 19183.00
1125.453, 19107.00
1126.549, 19128.00
1127.644, 19000.00
1128.739, 19252.00
1129.835, 18928.00
1130.930, 19116.00
1132.024, 18861.00
1133.119, 18972.00
1134.214, 18972.00
1135.308, 18910.00
1136.402, 19204.00
1137.496, 19036.00
1138.590, 18735.00
1139.684, 19048.00
1140.777, 18754.00
1141.871, 18830.00
1142.964, 18550.00
1144.057, 18749.00
1145.150, 18695.00
1146.243, 18679.00
1147.335, 18721.00
1148.428, 18686.00
1149.520, 18692.44
1150.612, 18716.00
1151.704, 18691.00
1152.796, 18600.00
1153.887, 18620.00
1154.979, 18687.00
1156.070, 18413.00
1157.161, 18433.00
1158.252, 18495.00
1159.343, 18432.00
1160.433, 18454.46
1161.524, 18650.00
1162.614, 18416.00
1163.704, 18487.00
1164.794, 18456.00
1165.884, 18325.00
1166.974, 18530.00
1168.063, 18406.00
1169.153, 18454.00
1170.242, 18463.00
1171.331, 18554.00
1172.420, 18468.00
1173.508, 18416.00
1174.597, 18452.00
1175.685, 18436.00
1176.774, 18435.00
1177.862, 18558.00
1178.950, 18366.00
1180.037, 18459.00
1181.125, 18652.00
1182.212, 18536.00
1183.300, 18667.00
1184.387, 18518.00
1185.474, 18646.00
1186.560, 18601.00
1187.647, 18695.00
1188.733, 18607.00
1189.820, 18509.00
1190.906, 18542.00
1191.992, 18679.00
1193.078, 18544.00
1194.163, 18508.00
1195.249, 18750.00
1196.334, 18536.00
1197.419, 18681.00
1198.504, 18657.00
1199.589, 18792.00
1200.674, 18644.00
1201.758, 18703.00
1202.843, 18611.00
1203.927, 18726.00
1205.011, 18790.00
1206.095, 18705.00
1207.179, 18729.00
1208.262, 18803.00
1209.345, 18670.00
1210.429, 18904.00
1211.512, 18720.00
1212.595, 18762.00
1213.677, 18671.00
1214.760, 18890.00
1215.842, 18761.00
1216.925, 18787.00
1218.007, 18923.00
1219.089, 18808.00
1220.171, 18789.00
1221.252, 18982.00
1222.334, 18796.00
1223.415, 18987.00
1224.496, 18768.00
1225.577, 18952.00
1226.658, 18897.00
1227.738, 19148.00
1228.819, 19019.00
1229.899, 18984.00
1230.979, 19066.00
1232.060, 19018.00
1233.139, 19033.49
1234.219, 19148.00
1235.299, 19013.00
1236.378, 19218.00
1237.457, 19190.00
1238.536, 19141.00
1239.615, 19037.00
1240.694, 19165.00
1241.772, 19206.00
1242.851, 19139.00
1243.929, 19316.00
1245.007, 19318.00
1246.085, 19184.00
1247.163, 19215.00
1248.240, 19126.00
1249.318, 19223.00
1250.395, 19305.00
1251.472, 19199.00
1252.549, 19110.00
1253.626, 19347.00
1254.703, 19208.00
1255.779, 19496.00
1256.855, 19325.00
1257.931, 19354.00
1259.007, 19398.00
1260.083, 19400.00
1261.159, 19475.00
1262.234, 19477.62
1263.310, 19437.00
1264.385, 19510.00
1265.460, 19440.00
1266.535, 19451.00
1267.610, 19607.00
1268.684, 19505.00
1269.758, 19619.00
1270.833, 19460.00
1271.907, 19463.00
1272.981, 19558.00
1274.054, 19488.00
1275.128, 19516.00
1276.201, 19581.00
1277.275, 19559.00
1278.348, 19625.00
1279.421, 19789.00
1280.493, 19754.00
1281.566, 19785.00
1282.638, 19620.00
1283.711, 19677.00
1284.783, 19718.00
1285.855, 19693.00
1286.927, 19885.00
1287.998, 19669.00
1289.070, 19668.00
1290.141, 19740.00
1291.212, 19850.00
1292.283, 19963.00
1293.354, 19703.00
1294.425, 19807.00
1295.495, 19881.00
1296.566, 19929.00
1297.636, 19969.00
1298.706, 20008.21
1299.776, 20010.71
1300.845, 20017.00
1301.915, 20010.00
1302.984, 19998.34
1304.054, 19930.00
1305.123, 19973.00
1306.191, 19951.00
1307.260, 19959.00
1308.329, 19991.00
1309.397, 20099.00
1310.465, 20169.00
1311.534, 20192.20
1312.602, 20176.00
1313.669, 20193.00
1314.737, 20259.00
1315.804, 20163.00
1316.872, 20277.00
1317.939, 20231.00
1319.006, 20045.00
1320.073, 20433.00
1321.139, 20378.00
1322.206, 20395.00
1323.272, 20220.00
1324.338, 20331.00
1325.404, 20497.00
1326.470, 20353.00
1327.536, 20378.00
1328.601, 20468.00
1329.667, 20511.00
1330.732, 20505.84
1331.797, 20467.00
1332.862, 20538.00
1333.926, 20415.00
1334.991, 20546.00
1336.055, 20574.00
1337.120, 20432.00
1338.184, 20689.00
1339.248, 20625.00
1340.311, 20654.00
1341.375, 20672.00
1342.438, 20640.00
1343.502, 20636.00
1344.565, 20591.00
1345.628, 20672.00
1346.691, 20725.00
1347.753, 20688.00
1348.816, 20801.00
1349.878, 20679.00
1350.940, 20734.00
1352.002, 20510.00
1353.064, 20886.00
1354.126, 20644.00
1355.187, 20701.00
1356.248, 20974.00
1357.310, 20888.00
1358.371, 20837.00
1359.431, 20795.00
1360.492, 20765.67
1361.553, 20732.00
1362.613, 20764.00
1363.673, 20813.62
1364.733, 20864.00
1365.793, 20890.00
1366.853, 20970.00
1367.912, 20909.00
1368.972, 20882.00
1370.031, 20937.39
1371.090, 20953.00
1372.149, 21008.00
1373.208, 21096.00
1374.267, 21134.00
1375.325, 21185.65
1376.383, 21148.00
1377.441, 21214.00
1378.499, 21189.00
1379.557, 21089.00
1380.615, 21089.00
1381.672, 21061.00
1382.730, 21083.25
1383.787, 21097.26
1384.844, 21184.00
1385.901, 21181.00
1386.957, 21237.00
1388.014, 21259.30
1389.070, 21263.53
1390.126, 21285.00
1391.182, 21279.00
1392.238, 21270.24
1393.294, 21289.00
1394.349, 21280.00
1395.405, 21377.00
1396.460, 21420.00
1397.515, 21457.00
1398.570, 21406.00
1399.625, 21357.00
1400.679, 21337.00
1401.734, 21416.00
1402.788, 21586.00
1403.842, 21556.00
1404.896, 21470.00
1405.950, 21598.00
1407.003, 21325.00
1408.057, 21592.00
1409.110, 21649.00
1410.163, 21645.00
1411.216, 21545.00
1412.269, 21483.00
1413.322, 21598.00
1414.374, 21591.00
1415.427, 21563.00
1416.479, 21791.00
1417.531, 21759.00
1418.583, 21694.00
1419.634, 21790.00
1420.686, 21615.00
1421.737, 21633.00
1422.788, 21975.00
1423.839, 21785.00
1424.890, 21832.00
1425.941, 21774.00
1426.992, 21746.00
1428.042, 21885.00
1429.092, 21823.00
1430.142, 21978.00
1431.192, 21976.00
1432.242, 21955.00
1433.291, 21951.00
1434.341, 21883.00
1435.390, 22024.00
1436.439, 21905.00
1437.488, 21895.00
1438.537, 22200.00
1439.586, 22119.00
1440.634, 22128.00
1441.682, 22057.00
1442.731, 22105.00
1443.779, 22098.00
1444.826, 22020.00
1445.874, 22274.00
1446.922, 22161.00
1447.969, 22119.00
1449.016, 22046.00
1450.063, 22205.00
1451.110, 22112.00
1452.157, 22274.00
1453.203, 22219.00
1454.250, 22316.00
1455.296, 22404.00
1456.342, 22343.00
1457.388, 22203.00
1458.433, 22409.00
1459.479, 22471.00
1460.524, 22406.00
1461.570, 22506.00
1462.615, 22398.00
1463.660, 22469.00
1464.705, 22430.00
1465.749, 22363.00
1466.794, 22758.00
1467.838, 22536.00
1468.882, 22546.00
1469.926, 22637.00
1470.970, 22480.00
1472.013, 22757.00
1473.057, 22334.00
1474.100, 22667.00
1475.143, 22688.00
1476.186, 22466.00
1477.229, 22536.00
1478.272, 22660.00
1479.314, 22725.00
1480.357, 22670.00
1481.399, 22587.00
1482.441, 22680.00
1483.483, 22768.00
1484.525, 22698.00
1485.566, 22840.00
1486.608, 22668.00
1487.649, 22829.00
1488.690, 22707.00
1489.731, 22765.00
1490.771, 22937.00
1491.812, 22906.00
1492.853, 22975.00
1493.893, 22848.00
1494.933, 22805.00
1495.973, 22815.00
1497.013, 22693.00
1498.052, 22894.00
1499.092, 22813.00
1500.131, 23080.00
1501.170, 23102.00
1502.209, 23023.00
1503.248, 22908.00
1504.287, 22927.00
1505.325, 23090.00
1506.363, 23167.00
1507.402, 22941.00
1508.440, 23121.00
1509.478, 23062.00
1510.515, 23190.00
1511.553, 23192.44
1512.590, 23042.00
1513.627, 23188.00
1514.664, 23172.00
1515.701, 23160.00
1516.738, 23163.00
1517.775, 23465.00
1518.811, 23097.00
1519.847, 23071.00
1520.883, 22945.00
1521.919, 23498.00
1522.955, 23406.00
1523.991, 23328.00
1525.026, 23326.00
1526.061, 23257.00
1527.096, 23488.00
1528.131, 23507.00
1529.166, 23300.00
1530.201, 23406.00
1531.235, 23269.00
1532.270, 23223.00
1533.304, 23509.00
1534.338, 23346.00
1535.372, 23445.00
1536.405, 23443.00
1537.439, 23402.00
1538.472, 23521.00
1539.505, 23411.00
1540.538, 23640.00
1541.571, 23528.00
1542.604, 23620.00
1543.637, 23748.00
1544.669, 23541.00
1545.701, 23711.00
1546.733, 23483.00
1547.765, 23560.00
1548.797, 23799.00
1549.829, 23469.00
1550.860, 23450.00
1551.891, 23676.00
1552.922, 23747.00
1553.953, 23838.00
1554.984, 23852.00
1556.015, 23909.00
1557.045, 23645.00
1558.076, 23853.00
1559.106, 23819.00
1560.136, 23605.00
1561.165, 23827.00
1562.195, 23984.00
1563.225, 23764.00
1564.254, 23991.00
1565.283, 23917.00
##END=



