##NAMES=Analcime
##RRUFFID=R040128
##IDEAL CHEMISTRY=NaAlSi_2_O_6_&#183;H_2_O
##LOCALITY=Mont Saint-Hilaire, Rouville County, Quebec, Canada
##OWNER=RRUFF
##SOURCE=Bob Downs
##DESCRIPTION=White trapezohedra associated with black arfvedsonite, R040127
##STATUS=The identification of this mineral has been confirmed by X-ray diffraction and chemical analysis
##URL=rruff.info/R040128
##MEASURED CHEMISTRY=Na_0.93_(Si_2.04_Al_0.99_)O_6_Â·H_2_O
##PIN_ID=L00925
##ORIENTATION=Laser parallel to c* (0 0 1). Fiducial mark perpendicular to laser is parallel to a [1 0 0]
62.89900, 545.0000
64.14700, 533.0000
65.39500, 534.0000
66.64300, 539.0000
67.89000, 562.0000
69.13800, 535.0000
70.38500, 595.0000
71.63200, 598.0000
72.87900, 643.0000
74.12500, 621.0000
75.37200, 634.0000
76.61800, 683.0000
77.86400, 682.0000
79.10900, 766.0000
80.35500, 862.0000
81.60000, 893.0000
82.84600, 982.0000
84.09100, 1175.000
85.33500, 1286.000
86.58000, 1475.000
87.82400, 1730.000
89.06900, 2046.563
90.31300, 2478.000
91.55600, 2887.000
92.80000, 3400.000
94.04300, 3990.000
95.28700, 4755.000
96.53000, 5510.000
97.77300, 6439.000
99.01500, 7346.000
100.2580, 8249.000
101.5000, 9580.000
102.7420, 10643.00
103.9840, 11709.00
105.2260, 12736.00
106.4670, 14142.00
107.7080, 15217.00
108.9490, 16018.00
110.1900, 16724.00
111.4310, 17687.00
112.6720, 18442.00
113.9120, 19420.00
115.1520, 19946.00
116.3920, 20838.00
117.6320, 21473.00
118.8710, 21817.00
120.1110, 22041.00
121.3500, 22580.00
122.5890, 22980.00
123.8270, 23207.00
125.0660, 23492.00
126.3040, 23560.00
127.5430, 23852.00
128.7810, 23844.00
130.0180, 23979.00
131.2560, 24066.00
132.4940, 24364.00
133.7310, 24323.00
134.9680, 24431.00
136.2050, 24486.00
137.4410, 24550.00
138.6780, 24709.00
139.9140, 24950.00
141.1500, 24598.00
142.3860, 24392.00
143.6220, 24429.00
144.8570, 23985.00
146.0920, 23748.00
147.3280, 23686.00
148.5620, 23545.00
149.7970, 22973.00
151.0320, 22513.00
152.2660, 22179.00
153.5000, 21975.00
154.7340, 21848.00
155.9680, 21361.00
157.2020, 21050.00
158.4350, 20978.00
159.6680, 20786.00
160.9010, 20602.00
162.1340, 20391.00
163.3670, 20225.00
164.5990, 20039.00
165.8310, 19833.00
167.0630, 19766.00
168.2950, 19605.00
169.5270, 19579.00
170.7580, 19634.00
171.9900, 19467.00
173.2210, 19361.00
174.4510, 19480.00
175.6820, 19299.00
176.9130, 19323.00
178.1430, 19195.00
179.3730, 19172.00
180.6030, 19136.00
181.8330, 19228.00
183.0620, 19231.65
184.2920, 19368.00
185.5210, 19365.00
186.7500, 19396.00
187.9790, 19525.00
189.2070, 19746.00
190.4360, 19688.00
191.6640, 19750.00
192.8920, 19680.00
194.1200, 19671.00
195.3480, 19552.00
196.5750, 19498.00
197.8020, 19495.00
199.0290, 19415.00
200.2560, 19355.51
201.4830, 19233.00
202.7090, 19106.00
203.9360, 18998.00
205.1620, 18826.43
206.3880, 18613.00
207.6140, 18526.00
208.8390, 18370.00
210.0650, 18313.00
211.2900, 18277.00
212.5150, 18034.00
213.7400, 17949.00
214.9640, 18054.00
216.1890, 18176.00
217.4130, 17892.00
218.6370, 17892.00
219.8610, 17755.00
221.0850, 17877.00
222.3080, 17820.00
223.5310, 17895.00
224.7540, 17704.00
225.9770, 17709.00
227.2000, 17772.00
228.4230, 17798.00
229.6450, 17667.00
230.8670, 17715.00
232.0890, 17607.00
233.3110, 17499.00
234.5320, 17571.00
235.7540, 17491.00
236.9750, 17338.00
238.1960, 17320.00
239.4170, 17319.00
240.6380, 17085.00
241.8580, 17058.00
243.0780, 17088.00
244.2990, 16912.00
245.5180, 16860.00
246.7380, 16760.00
247.9580, 16642.00
249.1770, 16705.00
250.3960, 16603.00
251.6150, 16684.00
252.8340, 16579.00
254.0530, 16549.00
255.2710, 16411.00
256.4890, 16378.00
257.7070, 16545.00
258.9250, 16536.00
260.1430, 16446.00
261.3600, 16366.00
262.5770, 16579.00
263.7950, 16582.00
265.0110, 16545.00
266.2280, 16590.00
267.4450, 16564.00
268.6610, 16643.00
269.8770, 16646.00
271.0930, 16625.00
272.3090, 16666.00
273.5250, 16566.00
274.7400, 16493.00
275.9550, 16655.00
277.1700, 16467.00
278.3850, 16487.00
279.6000, 16768.00
280.8140, 16677.00
282.0290, 16655.00
283.2430, 16764.00
284.4570, 16859.00
285.6700, 17259.00
286.8840, 17389.00
288.0970, 17918.00
289.3100, 18192.00
290.5230, 18938.00
291.7360, 19884.00
292.9490, 20582.00
294.1610, 21556.00
295.3740, 22568.00
296.5860, 23366.00
297.7970, 23893.00
299.0090, 24095.61
300.2210, 24072.99
301.4320, 23731.00
302.6430, 23202.00
303.8540, 22388.00
305.0650, 21340.00
306.2750, 20917.00
307.4860, 20223.00
308.6960, 19863.00
309.9060, 19636.00
311.1160, 19140.00
312.3260, 18837.00
313.5350, 18680.00
314.7440, 18552.00
315.9530, 18490.00
317.1620, 18470.00
318.3710, 18438.62
319.5800, 18415.00
320.7880, 18454.00
321.9960, 18338.00
323.2040, 18325.00
324.4120, 18258.00
325.6200, 18316.71
326.8270, 18316.00
328.0340, 18496.00
329.2410, 18569.00
330.4480, 18690.00
331.6550, 18630.00
332.8610, 18599.00
334.0680, 18848.00
335.2740, 18857.00
336.4800, 19166.00
337.6860, 19368.00
338.8910, 19191.00
340.0970, 19338.00
341.3020, 19314.00
342.5070, 19539.00
343.7120, 19727.00
344.9170, 19750.00
346.1210, 19821.00
347.3250, 20065.00
348.5290, 20347.00
349.7330, 20359.00
350.9370, 20631.00
352.1410, 20657.00
353.3440, 20770.00
354.5470, 20902.00
355.7500, 21228.00
356.9530, 21359.00
358.1560, 21660.00
359.3580, 21872.00
360.5610, 22144.00
361.7630, 22386.00
362.9650, 22597.00
364.1660, 22728.00
365.3680, 23233.00
366.5690, 23660.00
367.7710, 23963.94
368.9720, 24540.00
370.1720, 24653.00
371.3730, 25288.00
372.5740, 25527.00
373.7740, 26015.00
374.9740, 26640.00
376.1740, 27292.00
377.3740, 27551.00
378.5730, 28030.00
379.7730, 28497.00
380.9720, 28888.00
382.1710, 29396.00
383.3700, 29711.00
384.5680, 30194.00
385.7670, 30471.00
386.9650, 30956.00
388.1630, 31115.00
389.3610, 31402.00
390.5590, 31534.00
391.7560, 31704.00
392.9540, 31541.00
394.1510, 31769.00
395.3480, 31834.00
396.5450, 31413.00
397.7420, 31170.00
398.9380, 30890.00
400.1340, 30644.00
401.3300, 30067.00
402.5260, 29606.00
403.7220, 29208.00
404.9180, 28388.00
406.1130, 28084.00
407.3080, 27234.00
408.5030, 26579.00
409.6980, 26082.00
410.8930, 25216.00
412.0870, 24732.00
413.2820, 24202.00
414.4760, 23464.00
415.6700, 23209.00
416.8630, 22597.00
418.0570, 22460.00
419.2500, 22098.00
420.4440, 21787.00
421.6370, 21266.00
422.8290, 21147.00
424.0220, 21101.00
425.2150, 21145.00
426.4070, 21006.00
427.5990, 20951.00
428.7910, 20760.00
429.9830, 20762.00
431.1740, 20978.00
432.3660, 21164.00
433.5570, 21234.00
434.7480, 21397.00
435.9390, 21642.00
437.1300, 21781.00
438.3200, 21871.00
439.5110, 22079.00
440.7010, 22282.65
441.8910, 22524.60
443.0810, 22809.24
444.2700, 23102.00
445.4600, 23446.00
446.6490, 23760.00
447.8380, 24024.00
449.0270, 24684.00
450.2160, 25228.00
451.4040, 25704.00
452.5930, 26458.00
453.7810, 27270.05
454.9690, 28053.00
456.1570, 29187.00
457.3440, 30361.00
458.5320, 31441.00
459.7190, 33189.00
460.9060, 34965.00
462.0930, 36833.00
463.2800, 39109.00
464.4660, 42007.00
465.6530, 45316.00
466.8390, 49105.00
468.0250, 53566.00
469.2110, 58953.00
470.3970, 64708.00
471.5820, 71850.00
472.7680, 79647.00
473.9530, 88826.00
475.1380, 98750.00
476.3230, 109010.0
477.5070, 119973.0
478.6920, 130492.0
479.8760, 139869.0
481.0600, 148068.0
482.2440, 152714.0
483.4280, 153980.0
484.6110, 152684.0
485.7950, 147704.0
486.9780, 140366.0
488.1610, 130209.0
489.3440, 120140.0
490.5260, 108751.0
491.7090, 98427.00
492.8910, 88675.00
494.0730, 79761.00
495.2550, 72326.00
496.4370, 65564.00
497.6190, 59974.00
498.8000, 55079.00
499.9810, 50634.00
501.1620, 46943.00
502.3430, 44038.00
503.5240, 41236.00
504.7050, 38689.00
505.8850, 36837.00
507.0650, 34913.00
508.2450, 33244.00
509.4250, 32050.00
510.6050, 30792.00
511.7840, 29847.00
512.9630, 29063.00
514.1430, 27931.00
515.3220, 27344.00
516.5000, 26713.00
517.6790, 26126.00
518.8570, 25417.00
520.0360, 25064.00
521.2140, 24479.00
522.3920, 24030.00
523.5690, 23627.00
524.7470, 23276.74
525.9240, 23076.00
527.1010, 22716.00
528.2780, 22543.00
529.4550, 22250.00
530.6320, 22190.00
531.8080, 22001.00
532.9850, 21610.00
534.1610, 21527.00
535.3370, 21314.00
536.5130, 21198.00
537.6880, 20999.00
538.8640, 20735.00
540.0390, 20467.00
541.2140, 20519.00
542.3890, 20520.00
543.5640, 20410.00
544.7380, 20264.00
545.9130, 20207.00
547.0870, 19927.00
548.2610, 19838.00
549.4350, 19842.00
550.6090, 19642.00
551.7820, 19572.00
552.9550, 19486.00
554.1290, 19201.00
555.3020, 19229.00
556.4740, 19190.00
557.6470, 19282.00
558.8200, 19185.00
559.9920, 19232.00
561.1640, 18957.00
562.3360, 18940.00
563.5080, 18803.00
564.6790, 19010.00
565.8510, 18848.00
567.0220, 18724.00
568.1930, 18924.00
569.3640, 18772.00
570.5350, 18710.00
571.7050, 18740.00
572.8760, 18864.00
574.0460, 18786.00
575.2160, 18851.00
576.3860, 18915.00
577.5550, 18791.00
578.7250, 18914.00
579.8940, 18895.65
581.0630, 18932.00
582.2320, 18980.00
583.4010, 18980.00
584.5700, 19099.00
585.7380, 19121.60
586.9070, 19292.00
588.0750, 19227.00
589.2430, 19242.00
590.4110, 19288.00
591.5780, 19421.00
592.7460, 19355.00
593.9130, 19562.00
595.0800, 19574.00
596.2470, 19820.00
597.4140, 19839.00
598.5800, 19962.00
599.7470, 19908.00
600.9130, 20004.00
602.0790, 20058.50
603.2450, 20119.00
604.4100, 20200.00
605.5760, 20304.00
606.7410, 20403.78
607.9070, 20508.00
609.0720, 20791.00
610.2360, 20920.00
611.4010, 21153.00
612.5660, 21480.00
613.7300, 20954.00
614.8940, 21338.00
616.0580, 20704.00
617.2220, 20394.00
618.3860, 20381.00
619.5490, 20238.00
620.7120, 20400.00
621.8750, 20202.00
623.0380, 20276.00
624.2010, 20172.00
625.3640, 20363.00
626.5260, 20132.00
627.6880, 20117.00
628.8510, 20052.00
630.0120, 20245.00
631.1740, 20439.00
632.3360, 20292.00
633.4970, 20224.00
634.6580, 20147.00
635.8200, 20285.00
636.9800, 20279.00
638.1410, 20325.00
639.3020, 20298.62
640.4620, 20271.87
641.6220, 20157.00
642.7820, 20170.00
643.9420, 20049.00
645.1020, 19968.00
646.2610, 19999.00
647.4210, 19765.00
648.5800, 19848.00
649.7390, 19709.00
650.8980, 19841.00
652.0570, 19599.00
653.2150, 19757.00
654.3730, 19800.00
655.5320, 19740.00
656.6900, 19819.00
657.8470, 19847.00
659.0050, 19725.00
660.1620, 19770.00
661.3200, 19759.00
662.4770, 19926.00
663.6340, 19774.00
664.7910, 19866.00
665.9470, 20105.00
667.1040, 20044.00
668.2600, 20088.00
669.4160, 20313.00
670.5720, 20194.00
671.7280, 20202.00
672.8840, 20136.00
674.0390, 20245.00
675.1940, 19947.00
676.3490, 20198.00
677.5040, 19890.00
678.6590, 20070.00
679.8140, 19734.00
680.9680, 19711.00
682.1220, 19570.00
683.2760, 19544.00
684.4300, 19360.00
685.5840, 19468.00
686.7380, 19257.00
687.8910, 19212.00
689.0440, 19209.00
690.1970, 19111.00
691.3500, 19019.00
692.5030, 18987.00
693.6560, 18955.00
694.8080, 18801.00
695.9600, 18845.00
697.1120, 18790.00
698.2640, 18775.12
699.4160, 18655.00
700.5670, 18784.00
701.7190, 18728.00
702.8700, 18716.00
704.0210, 18761.00
705.1720, 18774.00
706.3230, 18863.00
707.4730, 18823.00
708.6240, 18815.00
709.7740, 18930.00
710.9240, 18791.00
712.0740, 19202.00
713.2230, 18998.00
714.3730, 19054.00
715.5220, 19206.00
716.6720, 19000.00
717.8210, 19083.00
718.9690, 19081.00
720.1180, 19073.00
721.2670, 18944.00
722.4150, 18995.00
723.5630, 18964.00
724.7110, 19046.00
725.8590, 19075.00
727.0070, 18945.00
728.1540, 19162.00
729.3020, 18950.00
730.4490, 18717.00
731.5960, 18732.00
732.7430, 18649.00
733.8890, 18786.00
735.0360, 18804.00
736.1820, 18777.00
737.3280, 18919.00
738.4740, 18841.00
739.6200, 18640.00
740.7660, 18836.00
741.9120, 18693.00
743.0570, 18813.00
744.2020, 19035.00
745.3470, 18867.00
746.4920, 18765.00
747.6370, 18782.00
748.7810, 18751.54
749.9250, 18759.00
751.0700, 18890.00
752.2140, 18774.00
753.3580, 18935.00
754.5010, 18897.00
755.6450, 19006.00
756.7880, 18941.00
757.9310, 18944.00
759.0740, 19048.00
760.2170, 19159.00
761.3600, 19150.00
762.5020, 19295.00
763.6450, 19070.00
764.7870, 19105.00
765.9290, 19262.00
767.0710, 19384.00
768.2120, 19094.00
769.3540, 19247.00
770.4950, 19139.00
771.6370, 19345.00
772.7780, 19303.00
773.9180, 19481.00
775.0590, 19359.00
776.2000, 19589.00
777.3400, 19595.00
778.4800, 19564.00
779.6200, 19521.00
780.7600, 19447.00
781.9000, 19736.00
783.0390, 19655.00
784.1790, 19599.00
785.3180, 19770.00
786.4570, 19520.00
787.5960, 19658.00
788.7350, 19549.00
789.8730, 19518.00
791.0120, 19722.00
792.1500, 19645.00
793.2880, 19557.00
794.4260, 19734.40
795.5630, 19826.00
796.7010, 19856.00
797.8380, 19706.00
798.9760, 19526.00
800.1130, 19410.00
801.2500, 19477.00
802.3860, 19422.00
803.5230, 19533.00
804.6590, 19542.00
805.7960, 19369.00
806.9320, 19492.00
808.0680, 19389.00
809.2030, 19304.00
810.3390, 19462.00
811.4740, 19485.00
812.6100, 19553.00
813.7450, 19498.00
814.8800, 19528.00
816.0140, 19401.00
817.1490, 19408.00
818.2830, 19479.00
819.4180, 19647.00
820.5520, 19583.00
821.6860, 19620.00
822.8200, 19550.00
823.9530, 19541.00
825.0870, 19774.00
826.2200, 19625.00
827.3530, 19719.00
828.4860, 19676.00
829.6190, 19751.00
830.7510, 19653.00
831.8840, 19682.00
833.0160, 19928.00
834.1480, 19748.00
835.2800, 19867.00
836.4120, 19559.00
837.5440, 19860.00
838.6750, 19785.00
839.8070, 19725.00
840.9380, 19815.38
842.0690, 19688.33
843.2000, 19844.00
844.3300, 19624.00
845.4610, 19718.00
846.5910, 19883.00
847.7220, 19863.00
848.8520, 19778.00
849.9810, 19935.00
851.1110, 19886.00
852.2410, 20050.00
853.3700, 19948.00
854.4990, 19813.00
855.6280, 19965.00
856.7570, 19909.00
857.8860, 19942.00
859.0150, 19889.00
860.1430, 19927.30
861.2710, 20059.00
862.3990, 20013.00
863.5270, 20125.00
864.6550, 20200.00
865.7830, 20032.00
866.9100, 20164.00
868.0370, 20018.00
869.1640, 20124.00
870.2910, 20096.00
871.4180, 20182.00
872.5450, 20144.00
873.6710, 20172.66
874.7980, 20198.00
875.9240, 20191.00
877.0500, 20210.00
878.1760, 20201.00
879.3010, 20159.00
880.4270, 20100.00
881.5520, 20135.92
882.6770, 20207.00
883.8020, 20238.00
884.9270, 19999.00
886.0520, 20124.00
887.1760, 20267.00
888.3010, 19912.00
889.4250, 20219.00
890.5490, 20087.00
891.6730, 20187.00
892.7970, 20238.00
893.9200, 20113.00
895.0440, 20325.00
896.1670, 20104.00
897.2900, 20231.00
898.4130, 20025.00
899.5360, 20055.38
900.6580, 20358.00
901.7810, 20097.00
902.9030, 20320.00
904.0250, 20401.00
905.1470, 20428.00
906.2690, 20542.00
907.3910, 20426.00
908.5120, 20483.00
909.6330, 20490.62
910.7540, 20389.00
911.8750, 20517.00
912.9960, 20419.00
914.1170, 20434.00
915.2380, 20482.00
916.3580, 20810.00
917.4780, 20730.00
918.5980, 20754.00
919.7180, 20563.00
920.8380, 20828.00
921.9570, 20751.00
923.0770, 20746.00
924.1960, 20733.00
925.3150, 20699.00
926.4340, 20599.00
927.5530, 20767.00
928.6710, 20842.00
929.7900, 20829.00
930.9080, 20748.00
932.0260, 20757.00
933.1440, 20855.00
934.2620, 20740.00
935.3800, 20944.00
936.4970, 20945.00
937.6140, 20733.00
938.7320, 21042.00
939.8490, 21084.00
940.9660, 21053.00
942.0820, 21079.00
943.1990, 21098.00
944.3150, 21202.00
945.4310, 21094.00
946.5470, 21240.00
947.6630, 21248.00
948.7790, 21205.00
949.8950, 21538.00
951.0100, 21243.00
952.1250, 21141.00
953.2400, 21169.00
954.3550, 21381.00
955.4700, 21434.00
956.5850, 21296.00
957.6990, 21337.00
958.8140, 21706.00
959.9280, 21407.00
961.0420, 21408.00
962.1560, 21726.00
963.2690, 21542.00
964.3830, 21572.00
965.4960, 21566.00
966.6090, 21545.00
967.7230, 21665.00
968.8350, 21698.00
969.9480, 21853.00
971.0610, 21902.00
972.1730, 21847.00
973.2850, 21875.00
974.3980, 21901.70
975.5100, 21781.00
976.6210, 21961.00
977.7330, 22043.00
978.8440, 22062.00
979.9560, 22267.00
981.0670, 22328.00
982.1780, 22244.00
983.2890, 22440.00
984.3990, 22659.00
985.5100, 22620.00
986.6200, 22799.00
987.7310, 22755.00
988.8410, 22696.00
989.9510, 22971.00
991.0600, 23074.00
992.1700, 23381.00
993.2790, 23268.00
994.3890, 23310.00
995.4980, 23663.00
996.6070, 23625.00
997.7160, 23825.00
998.8240, 24056.00
999.9330, 24259.00
1001.041, 24343.00
1002.149, 24451.00
1003.257, 24604.00
1004.365, 24448.00
1005.473, 24447.00
1006.580, 24141.00
1007.688, 24263.00
1008.795, 24105.00
1009.902, 23896.00
1011.009, 24056.00
1012.116, 23903.00
1013.222, 23750.00
1014.329, 23962.00
1015.435, 24029.00
1016.541, 24098.00
1017.647, 24189.00
1018.753, 24030.00
1019.859, 24307.00
1020.964, 24141.00
1022.070, 24040.00
1023.175, 24238.00
1024.280, 24194.00
1025.385, 24411.00
1026.490, 24699.00
1027.594, 24707.00
1028.699, 24495.00
1029.803, 24516.00
1030.907, 24654.00
1032.011, 25079.00
1033.115, 24987.00
1034.219, 25020.00
1035.322, 25123.00
1036.426, 25051.00
1037.529, 25100.00
1038.632, 25120.00
1039.735, 25335.00
1040.837, 25382.00
1041.940, 25575.00
1043.042, 25701.00
1044.145, 25789.00
1045.247, 25808.00
1046.349, 26126.00
1047.451, 26212.00
1048.552, 26233.00
1049.654, 26485.00
1050.755, 26544.00
1051.856, 26639.00
1052.957, 26773.00
1054.058, 26849.00
1055.159, 27074.00
1056.259, 27069.00
1057.360, 27058.00
1058.460, 27316.00
1059.560, 27343.49
1060.660, 27465.35
1061.760, 27608.00
1062.860, 27747.00
1063.959, 27890.00
1065.058, 28170.00
1066.158, 28313.00
1067.257, 28637.00
1068.355, 28604.00
1069.454, 29072.00
1070.553, 29503.00
1071.651, 29457.00
1072.749, 29625.00
1073.847, 30126.00
1074.945, 30523.00
1076.043, 30778.00
1077.141, 31069.00
1078.238, 31559.00
1079.336, 31783.00
1080.433, 32062.00
1081.530, 32791.00
1082.627, 33298.00
1083.723, 33560.00
1084.820, 33880.00
1085.916, 34565.00
1087.013, 34808.00
1088.109, 35337.00
1089.205, 35574.00
1090.301, 35724.00
1091.396, 36381.00
1092.492, 36644.00
1093.587, 36707.00
1094.682, 36737.00
1095.777, 36989.00
1096.872, 37200.00
1097.967, 36910.00
1099.061, 36918.00
1100.156, 37051.00
1101.250, 36891.00
1102.344, 36950.00
1103.438, 36838.00
1104.532, 36560.00
1105.626, 36150.00
1106.719, 35762.00
1107.813, 35788.00
1108.906, 35625.00
1109.999, 35199.00
1111.092, 35118.00
1112.184, 34890.00
1113.277, 34362.00
1114.370, 34144.00
1115.462, 34344.00
1116.554, 33751.11
1117.646, 33563.00
1118.738, 33037.00
1119.829, 32784.00
1120.921, 32546.00
1122.012, 31987.00
1123.104, 31719.00
1124.195, 31394.00
1125.286, 30991.00
1126.376, 30879.00
1127.467, 30379.00
1128.557, 30124.00
1129.648, 29785.00
1130.738, 29740.00
1131.828, 29439.00
1132.918, 29065.00
1134.008, 28746.00
1135.097, 28649.00
1136.186, 28354.00
1137.276, 28293.00
1138.365, 27958.00
1139.454, 27735.00
1140.543, 27325.00
1141.631, 27326.00
1142.720, 27209.00
1143.808, 26825.00
1144.896, 26971.00
1145.984, 26719.00
1147.072, 26681.00
1148.160, 26335.00
1149.248, 26354.00
1150.335, 26049.00
1151.422, 26001.00
1152.509, 25851.00
1153.596, 25818.00
1154.683, 25737.10
1155.770, 25618.00
1156.857, 25577.00
1157.943, 25440.00
1159.029, 25280.00
1160.115, 25308.00
1161.201, 25123.00
1162.287, 25107.00
1163.373, 25154.00
1164.458, 24996.00
1165.543, 24806.00
1166.629, 24714.00
1167.714, 24632.63
1168.799, 24568.22
1169.883, 24572.00
1170.968, 24521.00
1172.052, 24540.00
1173.137, 24523.00
1174.221, 24452.94
1175.305, 24439.11
1176.389, 24329.00
1177.472, 24376.00
1178.556, 24364.00
1179.639, 24393.00
1180.722, 24441.00
1181.805, 24378.18
1182.888, 24377.00
1183.971, 24297.00
1185.054, 24247.00
1186.136, 24263.00
1187.219, 24240.00
1188.301, 24247.18
1189.383, 24235.00
1190.465, 24282.00
1191.547, 24289.00
1192.628, 24322.00
1193.710, 24211.00
1194.791, 24235.00
1195.872, 24276.00
1196.953, 24259.00
1198.034, 24388.00
1199.115, 24401.00
1200.195, 24316.00
1201.276, 24234.00
1202.356, 24245.32
1203.436, 24282.00
1204.516, 24245.00
1205.596, 24230.00
1206.675, 24263.00
1207.755, 24195.00
1208.834, 24050.00
1209.913, 24195.00
1210.992, 24548.00
1212.071, 24331.00
1213.150, 24407.00
1214.229, 24202.00
1215.307, 24214.62
1216.386, 24263.00
1217.464, 24264.00
1218.542, 24273.68
1219.620, 24558.00
1220.697, 24300.00
1221.775, 24346.00
1222.852, 24423.00
1223.930, 24207.00
1225.007, 24288.00
1226.084, 24292.81
1227.161, 24437.00
1228.237, 24399.00
1229.314, 24471.00
1230.390, 24561.00
1231.466, 24398.00
1232.543, 24323.00
1233.619, 24459.00
1234.694, 24547.00
1235.770, 24392.00
1236.845, 24378.00
1237.921, 24474.00
1238.996, 24589.00
1240.071, 24410.00
1241.146, 24595.00
1242.221, 24236.00
1243.295, 24635.00
1244.370, 24520.00
1245.444, 24519.00
1246.518, 24559.00
1247.592, 24582.00
1248.666, 24571.98
1249.740, 24668.39
1250.814, 24623.71
1251.887, 24587.58
1252.960, 24566.00
1254.034, 24472.00
1255.107, 24402.00
1256.179, 24394.88
1257.252, 24656.00
1258.325, 24597.00
1259.397, 24643.00
1260.469, 24943.00
1261.542, 24781.00
1262.614, 24812.00
1263.685, 24720.00
1264.757, 24738.00
1265.829, 24743.00
1266.900, 24733.00
1267.971, 24796.00
1269.042, 24874.00
1270.113, 24993.00
1271.184, 24860.00
1272.255, 24870.00
1273.325, 24882.00
1274.396, 25047.00
1275.466, 25014.00
1276.536, 25098.00
1277.606, 25166.00
1278.676, 25194.62
1279.745, 25289.57
1280.815, 25332.00
1281.884, 25380.00
1282.953, 25508.00
1284.022, 25415.00
1285.091, 25239.00
1286.160, 25483.00
1287.229, 25680.00
1288.297, 25748.00
1289.366, 25549.00
1290.434, 25614.00
1291.502, 25568.00
1292.570, 25619.00
1293.637, 25591.00
1294.705, 25545.00
1295.773, 25457.00
1296.840, 25627.00
1297.907, 25453.00
1298.974, 25330.00
1300.041, 25426.00
1301.108, 25652.00
1302.174, 25499.00
1303.241, 25512.00
1304.307, 25595.00
1305.373, 25452.00
1306.439, 25433.00
1307.505, 25339.00
1308.571, 25516.00
1309.636, 25388.00
1310.702, 25297.00
1311.767, 25513.00
1312.832, 25523.00
1313.897, 25539.00
1314.962, 25566.00
1316.027, 25638.00
1317.091, 25529.00
1318.156, 25743.00
1319.220, 25609.00
1320.284, 25422.00
1321.348, 25448.00
1322.412, 25487.00
1323.475, 25461.00
1324.539, 25504.83
1325.602, 25619.00
1326.666, 25551.00
1327.729, 25509.00
1328.792, 25519.36
1329.855, 25740.00
1330.917, 25559.00
1331.980, 25659.00
1333.042, 25659.00
1334.104, 25511.00
1335.167, 25643.00
1336.229, 25525.00
1337.290, 25690.00
1338.352, 25475.00
1339.414, 25676.00
1340.475, 25563.00
1341.536, 25754.00
1342.597, 25606.00
1343.658, 25657.00
1344.719, 25767.00
1345.780, 25611.00
1346.840, 25866.00
1347.901, 25716.00
1348.961, 25892.00
1350.021, 25955.00
1351.081, 25868.00
1352.141, 25790.00
1353.200, 25819.00
1354.260, 25971.00
1355.319, 25854.00
1356.379, 25897.00
1357.438, 25770.00
1358.497, 25644.00
1359.555, 25740.00
1360.614, 25871.00
1361.673, 25871.00
1362.731, 26070.00
1363.789, 26138.00
1364.847, 26122.00
1365.905, 26084.00
1366.963, 26308.00
1368.021, 25982.00
1369.078, 26014.00
1370.136, 26036.00
1371.193, 26176.00
1372.250, 26072.00
1373.307, 26235.00
1374.364, 26086.00
1375.420, 26044.00
1376.477, 26077.00
1377.533, 26081.00
1378.589, 26062.00
1379.646, 26142.00
1380.702, 25977.00
1381.757, 26190.00
1382.813, 26230.00
1383.869, 26327.00
1384.924, 26250.00
1385.979, 26363.00
1387.034, 26339.00
1388.089, 26257.00
1389.144, 26189.00
1390.199, 26243.32
1391.253, 26430.00
1392.308, 26397.00
1393.362, 26443.00
1394.416, 26602.00
1395.470, 26300.00
1396.524, 26369.00
1397.577, 26491.00
1398.631, 26236.00
1399.684, 26308.00
1400.738, 26580.00
1401.791, 26414.00
1402.844, 26417.00
1403.897, 26530.00
1404.949, 26502.00
1406.002, 26652.00
1407.054, 26598.00
1408.107, 26497.00
1409.159, 26730.00
1410.211, 26630.00
1411.263, 26823.00
1412.314, 26513.00
1413.366, 26696.00
1414.417, 26634.00
1415.468, 26607.00
1416.520, 26705.00
1417.571, 26772.00
1418.621, 26750.00
1419.672, 26666.00
1420.723, 26781.00
1421.773, 26812.00
1422.824, 26626.00
1423.874, 27006.00
1424.924, 26907.00
1425.974, 26960.00
1427.023, 27201.00
1428.073, 27184.00
1429.122, 27345.00
1430.172, 27009.00
1431.221, 27016.00
1432.270, 27412.00
1433.319, 27254.00
1434.367, 27402.00
1435.416, 27220.00
1436.465, 27357.00
1437.513, 27538.00
1438.561, 27600.00
1439.609, 27760.00
1440.657, 27691.00
1441.705, 27843.00
1442.752, 27718.00
1443.800, 27722.00
1444.847, 27826.00
1445.894, 27827.00
1446.942, 27789.00
1447.988, 27665.00
1449.035, 27671.00
1450.082, 27726.00
1451.128, 27758.00
1452.175, 27708.00
1453.221, 27764.00
1454.267, 27628.00
1455.313, 27581.00
1456.359, 27721.00
1457.405, 27597.00
1458.450, 27718.00
1459.496, 27594.00
1460.541, 27736.00
1461.586, 27656.00
1462.631, 27598.00
1463.676, 27779.00
1464.720, 27505.00
1465.765, 27600.00
1466.809, 27365.00
1467.854, 27520.00
1468.898, 27622.00
1469.942, 27667.00
1470.986, 27473.00
1472.029, 27527.00
1473.073, 27621.00
1474.116, 27757.00
1475.160, 27713.36
1476.203, 27884.00
1477.246, 27647.00
1478.289, 27621.00
1479.332, 27584.00
1480.374, 27536.00
1481.417, 27563.00
1482.459, 27685.00
1483.501, 27679.00
1484.543, 27671.00
1485.585, 27612.00
1486.627, 27561.00
1487.669, 27873.00
1488.710, 27758.00
1489.752, 27697.00
1490.793, 27682.00
1491.834, 27542.00
1492.875, 27717.00
1493.916, 27618.00
1494.956, 27818.00
1495.997, 27831.00
1497.037, 27682.00
1498.077, 27900.00
1499.118, 27716.00
1500.158, 27861.00
1501.197, 27757.00
1502.237, 27780.00
1503.277, 27952.00
1504.316, 27871.00
1505.355, 27959.00
1506.395, 27802.00
1507.434, 27733.00
1508.473, 27701.00
1509.511, 28052.00
1510.550, 27991.00
1511.588, 28015.00
1512.627, 28146.00
1513.665, 27918.00
1514.703, 28048.00
1515.741, 28163.00
1516.779, 28046.00
1517.816, 28246.00
1518.854, 28138.00
1519.891, 28013.00
1520.928, 28146.00
1521.966, 28391.00
1523.003, 28158.00
1524.039, 28337.00
1525.076, 28194.00
1526.113, 28163.00
1527.149, 28186.00
1528.185, 28035.00
1529.221, 27995.00
1530.257, 28206.00
1531.293, 28206.00
1532.329, 28140.00
1533.365, 28242.00
1534.400, 28158.00
1535.435, 28247.00
1536.471, 28491.00
1537.506, 28445.00
1538.541, 28260.00
1539.575, 28359.00
1540.610, 28570.00
1541.644, 28250.00
1542.679, 28375.00
1543.713, 28498.00
1544.747, 28351.00
1545.781, 28453.00
1546.815, 28479.00
1547.849, 28406.00
1548.882, 28384.00
1549.916, 28446.35
1550.949, 28562.00
1551.982, 28654.00
1553.015, 28737.00
1554.048, 29007.00
1555.081, 28752.00
1556.113, 28542.00
1557.146, 28727.00
1558.178, 28911.00
1559.210, 28784.00
1560.242, 28675.00
1561.274, 28858.00
1562.306, 28864.00
1563.338, 28745.00
1564.369, 28806.00
1565.400, 28708.00
1566.432, 28897.00
1567.463, 28662.00
1568.494, 28663.00
1569.525, 28897.00
1570.555, 29186.00
1571.586, 28876.00
1572.616, 28894.00
1573.647, 29039.00
1574.677, 29006.00
1575.707, 29028.00
1576.737, 29121.00
1577.766, 29228.00
1578.796, 29155.00
##END=



