##NAMES=Anatase
##RRUFFID=R060277
##IDEAL CHEMISTRY=Ti^4+^O_2_
##LOCALITY=Taftan, near Dalbandi, Baluchistan Province, Pakistan
##OWNER=RRUFF
##SOURCE=Herb Obodda
##DESCRIPTION=Dark brown tetragonal tabular crystals
##STATUS=The identification of this mineral is confirmed by single-crystal X-ray diffraction and chemical analysis.
##URL=rruff.info/R060277
##MEASURED CHEMISTRY=Ti_1.00_O_2_
##PIN_ID=L01480
##ORIENTATION=Laser parallel to c* (0 0 1). Fiducial mark perpendicular to laser is parallel to [1 1 0]
50.72400, 378.0000
51.97000, 361.0000
53.21600, 352.0000
54.46200, 381.0000
55.70800, 366.0000
56.95400, 373.0000
58.19900, 375.0000
59.44500, 368.0000
60.69000, 371.0000
61.93500, 383.0000
63.17900, 392.0000
64.42400, 409.0000
65.66800, 402.0000
66.91300, 407.0000
68.15700, 421.0000
69.40100, 439.0000
70.64400, 463.0000
71.88800, 487.0000
73.13100, 515.0000
74.37400, 547.0000
75.61700, 562.0000
76.86000, 592.0000
78.10300, 627.0000
79.34500, 658.0000
80.58800, 694.0000
81.83000, 748.0000
83.07200, 806.0000
84.31400, 841.0000
85.55500, 895.0000
86.79700, 949.0000
88.03800, 976.0000
89.27900, 1046.000
90.52000, 1081.000
91.76100, 1140.000
93.00100, 1206.000
94.24200, 1231.000
95.48200, 1296.000
96.72200, 1320.000
97.96200, 1385.000
99.20200, 1463.000
100.4410, 1491.000
101.6810, 1549.000
102.9200, 1594.000
104.1590, 1683.000
105.3980, 1743.000
106.6360, 1825.000
107.8750, 1896.000
109.1130, 1964.000
110.3510, 2053.000
111.5890, 2073.000
112.8270, 2169.000
114.0650, 2282.000
115.3020, 2415.000
116.5390, 2517.000
117.7770, 2669.000
119.0130, 2826.000
120.2500, 3048.000
121.4870, 3281.000
122.7230, 3619.000
123.9590, 4072.000
125.1950, 4526.000
126.4310, 5082.000
127.6670, 5967.000
128.9030, 7053.000
130.1380, 8437.000
131.3730, 10201.00
132.6080, 12257.00
133.8430, 14701.00
135.0780, 17953.00
136.3120, 21472.00
137.5470, 26425.00
138.7810, 32871.00
140.0150, 39951.00
141.2480, 47021.00
142.4820, 52867.00
143.7160, 54565.00
144.9490, 50659.00
146.1820, 42516.00
147.4150, 32780.00
148.6480, 24561.00
149.8800, 18048.00
151.1130, 13748.00
152.3450, 10635.00
153.5770, 8438.000
154.8090, 6894.000
156.0410, 5827.000
157.2720, 4876.000
158.5040, 4311.000
159.7350, 3865.000
160.9660, 3456.000
162.1970, 3166.000
163.4270, 2836.000
164.6580, 2634.000
165.8880, 2482.000
167.1180, 2282.000
168.3480, 2135.000
169.5780, 2009.000
170.8080, 1946.000
172.0370, 1848.000
173.2670, 1779.000
174.4960, 1705.000
175.7250, 1671.000
176.9540, 1628.000
178.1820, 1577.000
179.4110, 1512.000
180.6390, 1478.000
181.8670, 1448.000
183.0950, 1425.000
184.3230, 1405.000
185.5500, 1385.000
186.7780, 1378.000
188.0050, 1355.000
189.2320, 1389.000
190.4590, 1408.000
191.6850, 1457.000
192.9120, 1479.000
194.1380, 1593.000
195.3650, 1788.000
196.5910, 1911.000
197.8160, 2032.000
199.0420, 1772.000
200.2680, 1506.000
201.4930, 1391.000
202.7180, 1301.000
203.9430, 1201.000
205.1680, 1140.000
206.3930, 1113.000
207.6170, 1107.000
208.8410, 1078.000
210.0660, 1077.000
211.2890, 1022.000
212.5130, 1078.000
213.7370, 1043.000
214.9600, 1021.000
216.1840, 1036.000
217.4070, 1032.000
218.6300, 1025.000
219.8520, 1004.000
221.0750, 1026.000
222.2970, 1063.000
223.5200, 1036.000
224.7420, 1003.000
225.9640, 1046.000
227.1850, 1011.000
228.4070, 1046.000
229.6280, 1011.000
230.8490, 1044.000
232.0700, 983.0000
233.2910, 1004.000
234.5120, 983.0000
235.7320, 1001.000
236.9530, 993.0000
238.1730, 1022.000
239.3930, 1028.000
240.6130, 999.0000
241.8320, 990.0000
243.0520, 1024.000
244.2710, 994.0000
245.4900, 1001.000
246.7090, 1025.000
247.9280, 1027.000
249.1470, 1028.000
250.3650, 1029.000
251.5840, 1039.000
252.8020, 1006.000
254.0200, 1061.000
255.2370, 1060.000
256.4550, 1039.000
257.6720, 1074.000
258.8900, 1068.000
260.1070, 1120.000
261.3240, 1109.000
262.5400, 1156.000
263.7570, 1146.000
264.9730, 1134.000
266.1900, 1159.000
267.4060, 1162.000
268.6220, 1149.000
269.8370, 1183.000
271.0530, 1198.000
272.2680, 1206.000
273.4830, 1261.000
274.6980, 1256.000
275.9130, 1288.000
277.1280, 1282.000
278.3420, 1338.000
279.5570, 1339.000
280.7710, 1361.000
281.9850, 1400.000
283.1990, 1455.000
284.4120, 1512.000
285.6260, 1556.000
286.8390, 1595.000
288.0520, 1663.000
289.2650, 1664.000
290.4780, 1823.000
291.6910, 1791.000
292.9030, 1850.000
294.1160, 1951.000
295.3280, 1981.000
296.5400, 2099.000
297.7510, 2133.000
298.9630, 2193.000
300.1740, 2219.000
301.3860, 2224.000
302.5970, 2314.000
303.8080, 2328.000
305.0180, 2376.000
306.2290, 2386.000
307.4390, 2455.000
308.6500, 2462.000
309.8600, 2496.000
311.0700, 2539.000
312.2790, 2527.000
313.4890, 2577.000
314.6980, 2590.000
315.9080, 2596.000
317.1170, 2650.000
318.3250, 2624.000
319.5340, 2616.000
320.7430, 2603.000
321.9510, 2651.000
323.1590, 2648.000
324.3670, 2557.000
325.5750, 2607.000
326.7830, 2640.000
327.9900, 2548.000
329.1980, 2577.000
330.4050, 2543.000
331.6120, 2593.000
332.8190, 2608.000
334.0250, 2570.000
335.2320, 2547.000
336.4380, 2614.000
337.6440, 2625.000
338.8500, 2605.000
340.0560, 2610.000
341.2620, 2697.000
342.4670, 2636.000
343.6730, 2721.000
344.8780, 2717.000
346.0830, 2744.000
347.2870, 2798.000
348.4920, 2839.000
349.6970, 2890.000
350.9010, 2937.000
352.1050, 2992.754
353.3090, 3043.000
354.5130, 3105.000
355.7160, 3161.000
356.9200, 3208.000
358.1230, 3384.000
359.3260, 3489.000
360.5290, 3551.000
361.7320, 3673.000
362.9340, 3794.000
364.1370, 3967.000
365.3390, 4118.000
366.5410, 4340.000
367.7430, 4614.000
368.9450, 4839.000
370.1460, 5131.000
371.3480, 5511.000
372.5490, 5839.000
373.7500, 6243.000
374.9510, 6842.000
376.1520, 7351.000
377.3520, 8117.000
378.5520, 8804.000
379.7530, 9821.000
380.9530, 10846.00
382.1530, 12082.00
383.3520, 13302.00
384.5520, 14799.00
385.7510, 16321.00
386.9500, 18092.00
388.1490, 19903.46
389.3480, 21698.00
390.5470, 23892.00
391.7450, 25912.00
392.9440, 28108.00
394.1420, 29726.00
395.3400, 31208.00
396.5380, 32076.00
397.7350, 32410.00
398.9330, 31547.00
400.1300, 30550.00
401.3270, 28375.00
402.5240, 26014.00
403.7210, 23595.00
404.9180, 20897.00
406.1140, 18578.00
407.3110, 16503.00
408.5070, 14368.00
409.7030, 12857.00
410.8990, 11444.00
412.0940, 10175.00
413.2900, 9162.000
414.4850, 8298.000
415.6800, 7644.000
416.8750, 7032.000
418.0700, 6558.000
419.2650, 6112.000
420.4590, 5616.000
421.6530, 5396.000
422.8470, 4968.000
424.0410, 4806.000
425.2350, 4604.000
426.4290, 4397.000
427.6220, 4296.000
428.8160, 4057.000
430.0090, 3836.000
431.2020, 3698.000
432.3940, 3551.000
433.5870, 3463.000
434.7790, 3296.000
435.9720, 3355.000
437.1640, 3179.000
438.3560, 3180.000
439.5470, 3056.000
440.7390, 3000.000
441.9300, 3038.000
443.1220, 2944.000
444.3130, 2931.000
445.5040, 2934.000
446.6940, 2832.000
447.8850, 2923.000
449.0750, 2836.000
450.2660, 2818.000
451.4560, 2767.000
452.6460, 2727.755
453.8350, 2715.760
455.0250, 2679.000
456.2140, 2700.000
457.4040, 2709.000
458.5930, 2728.000
459.7820, 2690.000
460.9700, 2676.000
462.1590, 2692.000
463.3470, 2682.111
464.5350, 2674.000
465.7240, 2727.000
466.9110, 2750.000
468.0990, 2828.000
469.2870, 2875.000
470.4740, 2978.000
471.6610, 3027.159
472.8480, 3078.782
474.0350, 3124.000
475.2220, 3165.000
476.4090, 3163.000
477.5950, 3199.000
478.7810, 3331.000
479.9670, 3371.000
481.1530, 3596.000
482.3390, 3724.000
483.5240, 3830.000
484.7100, 3913.000
485.8950, 4117.000
487.0800, 4228.000
488.2650, 4401.000
489.4490, 4670.000
490.6340, 4881.000
491.8180, 5181.000
493.0030, 5333.000
494.1870, 5772.000
495.3700, 6190.000
496.5540, 6532.000
497.7380, 7085.000
498.9210, 7699.000
500.1040, 8401.000
501.2870, 9079.000
502.4700, 10200.00
503.6530, 11269.00
504.8350, 12716.00
506.0180, 14203.00
507.2000, 16070.00
508.3820, 18037.00
509.5640, 20635.00
510.7450, 22746.00
511.9270, 25003.00
513.1080, 27090.00
514.2890, 28572.00
515.4700, 29412.00
516.6510, 29717.00
517.8320, 29483.00
519.0130, 28656.00
520.1930, 27795.00
521.3730, 26741.00
522.5530, 24955.00
523.7330, 23419.00
524.9130, 21900.00
526.0920, 20348.00
527.2710, 18753.00
528.4510, 17147.00
529.6300, 15992.00
530.8080, 14721.00
531.9870, 13774.00
533.1660, 12749.00
534.3440, 11853.00
535.5220, 11034.00
536.7000, 10306.36
537.8780, 9661.071
539.0560, 9129.000
540.2330, 8601.000
541.4110, 8219.000
542.5880, 7849.000
543.7650, 7294.000
544.9420, 6911.000
546.1180, 6680.000
547.2950, 6368.000
548.4710, 6089.000
549.6470, 5864.000
550.8230, 5550.000
551.9990, 5374.000
553.1750, 5168.000
554.3500, 4995.000
555.5260, 4860.000
556.7010, 4700.000
557.8760, 4516.000
559.0510, 4448.000
560.2250, 4282.000
561.4000, 4143.000
562.5740, 4075.000
563.7480, 3989.000
564.9220, 3888.000
566.0960, 3862.000
567.2700, 3775.000
568.4430, 3721.699
569.6170, 3644.000
570.7900, 3615.000
571.9630, 3527.000
573.1360, 3475.000
574.3080, 3437.268
575.4810, 3355.000
576.6530, 3365.000
577.8250, 3308.000
578.9980, 3277.000
580.1690, 3239.000
581.3410, 3190.000
582.5130, 3178.000
583.6840, 3108.000
584.8550, 3095.000
586.0260, 3075.000
587.1970, 3032.000
588.3680, 3045.000
589.5380, 3016.000
590.7080, 2993.773
591.8790, 2946.000
593.0490, 2937.000
594.2190, 2926.000
595.3880, 2878.000
596.5580, 2861.000
597.7270, 2875.000
598.8960, 2909.000
600.0650, 2889.000
601.2340, 2914.000
602.4030, 2921.000
603.5710, 2897.000
604.7400, 2964.000
605.9080, 2932.000
607.0760, 2999.000
608.2440, 3011.000
609.4120, 3049.000
610.5790, 3120.222
611.7460, 3121.000
612.9140, 3239.000
614.0810, 3310.000
615.2480, 3324.000
616.4140, 3443.000
617.5810, 3550.000
618.7470, 3638.000
619.9130, 3784.000
621.0790, 3918.000
622.2450, 4181.000
623.4110, 4311.000
624.5770, 4666.000
625.7420, 4773.000
626.9070, 5135.000
628.0720, 5419.000
629.2370, 5864.000
630.4020, 6248.000
631.5660, 6635.000
632.7310, 7128.000
633.8950, 7490.000
635.0590, 7890.000
636.2230, 8185.000
637.3870, 8300.000
638.5500, 8387.000
639.7140, 8145.000
640.8770, 8049.000
642.0400, 7586.000
643.2030, 7247.000
644.3660, 6914.000
645.5280, 6491.000
646.6910, 5951.000
647.8530, 5571.000
649.0150, 5170.000
650.1770, 4853.000
651.3390, 4547.209
652.5000, 4266.000
653.6620, 4041.000
654.8230, 3857.000
655.9840, 3682.000
657.1450, 3547.000
658.3060, 3352.000
659.4660, 3236.000
660.6270, 3100.000
661.7870, 2988.000
662.9470, 2926.000
664.1070, 2832.000
665.2670, 2833.000
666.4260, 2705.000
667.5860, 2688.000
668.7450, 2647.000
669.9040, 2548.000
671.0630, 2525.000
672.2220, 2442.000
673.3800, 2424.000
674.5390, 2422.000
675.6970, 2346.000
676.8550, 2285.000
678.0130, 2264.000
679.1710, 2209.000
680.3290, 2263.000
681.4860, 2276.000
682.6430, 2210.000
683.8000, 2241.000
684.9570, 2184.000
686.1140, 2140.000
687.2710, 2198.000
688.4270, 2174.000
689.5840, 2179.000
690.7400, 2197.586
691.8960, 2216.000
693.0520, 2187.000
694.2070, 2189.000
695.3630, 2129.000
696.5180, 2128.000
697.6730, 2170.000
698.8280, 2167.000
699.9830, 2098.000
701.1380, 2079.000
702.2920, 2031.000
703.4470, 2040.000
704.6010, 1972.000
705.7550, 2037.000
706.9090, 1988.000
708.0620, 1945.000
709.2160, 1826.000
710.3690, 1858.000
711.5220, 1804.000
712.6750, 1833.000
713.8280, 1738.000
714.9810, 1774.000
716.1340, 1688.000
717.2860, 1703.000
718.4380, 1670.000
719.5900, 1655.000
720.7420, 1658.000
721.8940, 1612.000
723.0450, 1604.000
724.1970, 1547.000
725.3480, 1507.000
726.4990, 1531.000
727.6500, 1518.000
728.8010, 1495.000
729.9510, 1527.000
731.1020, 1444.000
732.2520, 1493.000
733.4020, 1449.000
734.5520, 1440.000
735.7020, 1502.000
736.8510, 1417.000
738.0010, 1438.000
739.1500, 1462.000
740.2990, 1395.000
741.4480, 1429.000
742.5970, 1452.000
743.7450, 1439.000
744.8940, 1406.000
746.0420, 1406.000
747.1900, 1434.000
748.3380, 1443.000
749.4860, 1463.000
750.6330, 1424.000
751.7810, 1417.000
752.9280, 1409.000
754.0750, 1404.000
755.2220, 1436.000
756.3690, 1435.000
757.5160, 1508.000
758.6620, 1509.000
759.8090, 1520.000
760.9550, 1514.000
762.1010, 1472.000
763.2470, 1522.000
764.3920, 1545.000
765.5380, 1611.000
766.6830, 1605.000
767.8280, 1632.000
768.9730, 1694.000
770.1180, 1653.000
771.2630, 1719.000
772.4070, 1726.000
773.5520, 1798.000
774.6960, 1828.000
775.8400, 1857.000
776.9840, 1892.000
778.1280, 1960.000
779.2710, 2009.000
780.4140, 2051.000
781.5580, 2088.708
782.7010, 2123.000
783.8440, 2151.000
784.9860, 2203.898
786.1290, 2208.000
787.2710, 2302.000
788.4140, 2338.000
789.5560, 2374.000
790.6980, 2325.000
791.8390, 2398.000
792.9810, 2399.000
794.1220, 2462.000
795.2640, 2415.000
796.4050, 2401.000
797.5460, 2399.000
798.6860, 2447.000
799.8270, 2366.000
800.9680, 2458.000
802.1080, 2357.000
803.2480, 2329.000
804.3880, 2263.000
805.5280, 2235.798
806.6670, 2302.000
807.8070, 2205.000
808.9460, 2227.000
810.0850, 2221.000
811.2240, 2163.000
812.3630, 2086.000
813.5020, 2105.000
814.6400, 2118.000
815.7790, 2040.000
816.9170, 1992.000
818.0550, 2025.000
819.1930, 1965.000
820.3300, 1930.000
821.4680, 1923.000
822.6050, 1901.000
823.7430, 1885.000
824.8800, 1880.000
826.0170, 1830.000
827.1530, 1841.000
828.2900, 1854.000
829.4260, 1798.000
830.5620, 1775.000
831.6990, 1786.000
832.8340, 1732.000
833.9700, 1740.000
835.1060, 1697.000
836.2410, 1734.000
837.3760, 1702.000
838.5120, 1713.000
839.6470, 1748.000
840.7810, 1712.000
841.9160, 1659.000
843.0500, 1652.000
844.1850, 1656.000
845.3190, 1630.000
846.4530, 1633.000
847.5870, 1617.000
848.7200, 1646.000
849.8540, 1617.000
850.9870, 1602.000
852.1200, 1560.000
853.2530, 1572.000
854.3860, 1584.000
855.5190, 1551.000
856.6510, 1509.000
857.7840, 1519.000
858.9160, 1561.000
860.0480, 1510.000
861.1800, 1524.000
862.3110, 1494.000
863.4430, 1483.000
864.5740, 1453.000
865.7060, 1471.000
866.8370, 1458.000
867.9680, 1476.000
869.0980, 1421.000
870.2290, 1461.000
871.3590, 1475.000
872.4900, 1406.000
873.6200, 1392.000
874.7500, 1419.000
875.8790, 1356.000
877.0090, 1404.000
878.1380, 1412.000
879.2680, 1398.000
880.3970, 1348.000
881.5260, 1351.000
882.6550, 1332.000
883.7830, 1297.000
884.9120, 1286.000
886.0400, 1256.000
887.1680, 1252.000
888.2960, 1262.000
889.4240, 1271.000
890.5520, 1255.000
891.6790, 1251.000
892.8070, 1229.000
893.9340, 1213.000
895.0610, 1200.000
896.1880, 1201.000
897.3140, 1212.000
898.4410, 1210.000
899.5670, 1153.000
900.6940, 1215.000
901.8200, 1140.000
902.9450, 1178.000
904.0710, 1189.000
905.1970, 1139.000
906.3220, 1113.000
907.4470, 1165.000
908.5730, 1103.000
909.6980, 1145.000
910.8220, 1117.000
911.9470, 1101.000
913.0710, 1125.000
914.1960, 1148.000
915.3200, 1160.000
916.4440, 1131.000
917.5680, 1109.000
918.6910, 1096.000
919.8150, 1089.000
920.9380, 1081.000
922.0610, 1069.000
923.1840, 1070.000
924.3070, 1099.000
925.4300, 1079.000
926.5520, 1059.000
927.6750, 1102.000
928.7970, 1051.000
929.9190, 1055.000
931.0410, 1046.000
932.1630, 1041.926
933.2840, 1063.000
934.4060, 1051.000
935.5270, 1049.000
936.6480, 1036.000
937.7690, 1030.846
938.8900, 1008.000
940.0100, 1023.000
941.1310, 1026.000
942.2510, 1033.000
943.3710, 1000.000
944.4910, 1054.000
945.6110, 991.0000
946.7310, 1023.000
947.8500, 1003.000
948.9690, 1029.000
950.0890, 1030.000
951.2080, 1010.000
952.3260, 983.0000
953.4450, 1008.000
954.5640, 980.0000
955.6820, 1001.000
956.8000, 996.0000
957.9180, 1021.000
959.0360, 994.0000
960.1540, 1015.000
961.2710, 991.0000
962.3890, 1013.000
963.5060, 1006.000
964.6230, 971.0000
965.7400, 957.0000
966.8570, 954.0000
967.9730, 957.0000
969.0900, 970.0000
970.2060, 979.0000
971.3220, 973.9819
972.4380, 981.0000
973.5540, 967.0000
974.6700, 963.0000
975.7850, 968.0000
976.9010, 943.0000
978.0160, 920.0000
979.1310, 941.0000
980.2460, 976.0000
981.3600, 953.0000
982.4750, 952.0000
983.5890, 947.0000
984.7030, 923.0000
985.8170, 973.0000
986.9310, 927.0000
988.0450, 940.0000
989.1590, 915.0000
990.2720, 935.0000
991.3850, 908.0000
992.4980, 945.0000
993.6110, 908.0000
994.7240, 938.0000
995.8370, 932.0000
996.9490, 936.0000
998.0620, 944.0000
999.1740, 892.0000
1000.286, 910.0000
1001.398, 896.0000
1002.509, 916.0000
1003.621, 891.0000
1004.732, 880.0000
1005.843, 924.0000
1006.954, 912.0000
1008.065, 924.0000
1009.176, 902.0000
1010.286, 905.0000
1011.397, 899.4880
1012.507, 880.0000
1013.617, 899.0000
1014.727, 890.0000
1015.837, 912.0000
1016.946, 889.0000
1018.056, 911.0000
1019.165, 900.0000
1020.274, 917.0000
1021.383, 920.2141
1022.492, 920.0000
1023.601, 923.0000
1024.709, 920.0000
1025.817, 908.0000
1026.926, 910.4747
1028.034, 902.4325
1029.141, 907.0000
1030.249, 892.0000
1031.357, 891.0000
1032.464, 886.0000
1033.571, 874.0000
1034.678, 893.0000
1035.785, 878.0000
1036.892, 894.0000
1037.999, 873.0000
1039.105, 886.0000
1040.211, 881.0000
1041.317, 849.0000
1042.423, 881.0000
1043.529, 886.0000
1044.635, 866.0000
1045.740, 878.0000
1046.845, 854.0000
1047.951, 870.0000
1049.056, 893.0000
1050.160, 885.0000
1051.265, 893.0000
1052.370, 871.0000
1053.474, 849.0000
1054.578, 831.0000
1055.682, 862.0000
1056.786, 875.0000
1057.890, 850.0000
1058.993, 865.0000
1060.097, 855.0000
1061.200, 848.0000
1062.303, 869.0000
1063.406, 867.0000
1064.509, 837.0000
1065.612, 849.0000
1066.714, 868.0000
1067.816, 816.0000
1068.919, 847.0000
1070.021, 850.0000
1071.122, 833.0000
1072.224, 847.0000
1073.326, 852.0000
1074.427, 831.0000
1075.528, 837.0000
1076.629, 829.0000
1077.730, 824.0000
1078.831, 826.0000
1079.931, 822.0000
1081.032, 834.0000
1082.132, 824.0000
1083.232, 820.7726
1084.332, 807.0000
1085.432, 809.0000
1086.531, 801.0000
1087.631, 804.0000
1088.730, 822.0000
1089.829, 805.0000
1090.928, 787.0000
1092.027, 768.0000
1093.126, 818.0000
1094.224, 797.0000
1095.323, 811.0000
1096.421, 793.0000
1097.519, 800.0000
1098.617, 777.0000
1099.715, 786.0000
1100.812, 778.0000
1101.910, 811.0000
1103.007, 782.0000
1104.104, 793.0000
1105.201, 779.0000
1106.298, 784.0000
1107.394, 804.0000
1108.491, 799.0000
1109.587, 783.0000
1110.683, 766.0000
1111.779, 797.0000
1112.875, 774.0000
1113.971, 782.0000
1115.066, 779.0000
1116.162, 764.0000
1117.257, 783.0000
1118.352, 795.0000
1119.447, 811.0000
1120.542, 807.0000
1121.636, 783.0000
1122.731, 783.0000
1123.825, 828.0000
1124.919, 751.0000
1126.013, 789.0000
1127.107, 790.0000
1128.200, 770.0000
1129.294, 741.0000
1130.387, 795.0000
1131.480, 740.0000
1132.573, 778.0000
1133.666, 755.0000
1134.759, 760.0000
1135.851, 741.0000
1136.944, 776.0000
1138.036, 749.0000
1139.128, 771.0000
1140.220, 773.0000
1141.312, 754.0000
1142.403, 738.0000
1143.495, 734.0000
1144.586, 765.0000
1145.677, 747.0000
1146.768, 760.0000
1147.859, 738.0000
1148.950, 758.0000
1150.040, 751.0000
1151.130, 737.0000
1152.221, 779.0000
1153.311, 762.0000
1154.401, 764.0000
1155.490, 732.0000
1156.580, 738.0000
1157.669, 716.0000
1158.759, 710.0000
1159.848, 727.0000
1160.937, 744.0000
1162.025, 740.0000
1163.114, 763.0000
1164.202, 753.9926
1165.291, 753.0000
1166.379, 737.0000
1167.467, 747.0000
1168.555, 732.0000
1169.642, 737.0000
1170.730, 728.0000
1171.817, 736.8000
1172.905, 737.0000
1173.992, 750.0000
1175.078, 740.0000
1176.165, 727.0000
1177.252, 741.0000
1178.338, 735.0000
1179.425, 746.0000
1180.511, 770.0000
1181.597, 727.0000
1182.682, 759.0000
1183.768, 743.0000
1184.854, 741.0000
1185.939, 757.0000
1187.024, 754.0000
1188.109, 746.0000
1189.194, 741.0000
1190.279, 747.0000
1191.363, 746.0000
1192.448, 746.0000
1193.532, 727.0000
1194.616, 752.0000
1195.700, 720.0000
1196.784, 739.0000
1197.867, 751.0000
1198.951, 735.0000
1200.034, 732.0000
1201.117, 727.0000
1202.200, 732.0000
1203.283, 729.1243
1204.366, 734.0000
1205.448, 738.0000
1206.531, 743.0000
1207.613, 765.0000
1208.695, 737.0000
1209.777, 722.0000
1210.859, 762.0000
1211.940, 738.0000
1213.022, 751.0000
1214.103, 750.0000
1215.184, 734.0000
1216.265, 757.0000
1217.346, 758.0000
1218.427, 737.0000
1219.507, 759.0000
1220.587, 762.0000
1221.668, 755.0000
1222.748, 747.0000
1223.828, 759.0000
1224.907, 746.0000
1225.987, 756.0000
1227.066, 766.0000
1228.146, 745.0000
1229.225, 765.0000
1230.304, 742.0000
1231.382, 722.0000
1232.461, 775.0000
1233.540, 765.0000
1234.618, 758.0000
1235.696, 759.0000
1236.774, 748.7922
1237.852, 775.0000
1238.930, 744.0000
1240.007, 763.0000
1241.085, 781.0000
1242.162, 750.0000
1243.239, 758.0000
1244.316, 752.0000
1245.393, 756.0000
1246.469, 755.0000
1247.546, 761.8793
1248.622, 779.0000
1249.698, 774.0000
1250.774, 787.0000
1251.850, 782.0000
1252.926, 779.0000
1254.001, 775.0000
1255.077, 762.0000
1256.152, 776.0000
1257.227, 763.0000
1258.302, 778.0000
1259.377, 800.0000
1260.451, 794.0000
1261.526, 780.0000
1262.600, 818.0000
1263.674, 797.0000
1264.748, 784.0000
1265.822, 789.0000
1266.896, 799.0000
1267.969, 805.0000
1269.043, 790.0000
1270.116, 777.0000
1271.189, 777.0000
1272.262, 796.0000
1273.335, 793.0000
1274.407, 807.0000
1275.480, 812.6108
1276.552, 784.0000
1277.624, 808.0000
1278.696, 783.0000
1279.768, 744.0000
1280.840, 770.0000
1281.911, 783.0000
1282.982, 770.0000
1284.054, 768.0000
1285.125, 772.0000
1286.196, 761.0000
1287.266, 782.0000
1288.337, 771.0000
1289.407, 783.0000
1290.478, 756.0000
1291.548, 738.0000
1292.618, 762.0000
1293.688, 790.0000
1294.757, 770.0000
1295.827, 746.0000
1296.896, 769.0000
1297.965, 769.0000
1299.034, 760.0000
1300.103, 762.0000
1301.172, 762.0000
1302.241, 750.0000
1303.309, 752.0000
1304.377, 758.0000
1305.445, 755.0000
1306.513, 730.0000
1307.581, 773.0000
1308.649, 749.0000
1309.716, 733.0000
1310.784, 760.0000
1311.851, 735.0000
1312.918, 739.0000
1313.985, 747.0000
1315.052, 745.0000
1316.118, 740.0000
1317.185, 757.0000
1318.251, 745.0000
1319.317, 738.0000
1320.383, 740.0000
1321.449, 716.0000
1322.514, 726.0000
1323.580, 706.0000
1324.645, 729.0000
1325.711, 737.0000
1326.776, 738.0000
1327.840, 733.0000
1328.905, 737.0000
1329.970, 729.0000
1331.034, 691.0000
1332.099, 725.0000
1333.163, 707.0000
1334.227, 732.0000
1335.290, 723.0000
1336.354, 720.0000
1337.418, 738.0000
1338.481, 733.0000
1339.544, 739.0000
1340.607, 711.0000
1341.670, 736.0000
1342.733, 714.0000
1343.795, 708.0000
1344.858, 721.0000
1345.920, 718.0000
1346.982, 726.0000
1348.044, 729.0000
1349.106, 725.0000
1350.168, 717.0000
1351.229, 731.0000
1352.291, 709.0000
1353.352, 711.0000
1354.413, 718.0000
1355.474, 728.0000
1356.534, 732.0000
1357.595, 741.9825
1358.656, 720.0000
1359.716, 744.0000
1360.776, 755.0000
1361.836, 723.0000
1362.896, 726.0000
1363.955, 709.0000
1365.015, 697.0000
1366.074, 703.0000
1367.134, 723.0000
1368.193, 710.0000
1369.252, 727.0000
1370.310, 713.0000
1371.369, 730.0000
1372.427, 727.2928
1373.486, 707.0000
1374.544, 717.0000
1375.602, 712.0000
1376.660, 685.0000
1377.717, 686.0000
1378.775, 716.0000
1379.832, 695.0000
1380.889, 696.0000
1381.946, 684.0000
1383.003, 696.0000
1384.060, 692.0000
1385.117, 706.0000
1386.173, 706.6538
1387.230, 715.0000
1388.286, 711.0000
1389.342, 708.0000
1390.398, 708.0000
1391.453, 703.0000
1392.509, 689.0000
1393.564, 722.0000
1394.619, 680.0000
1395.675, 680.0000
1396.729, 721.0000
1397.784, 673.0000
1398.839, 703.0000
1399.893, 689.0000
1400.948, 714.0000
1402.002, 685.0000
1403.056, 675.0000
1404.110, 690.0000
1405.163, 689.0000
1406.217, 694.0000
1407.270, 679.0000
1408.324, 691.0000
1409.377, 684.0000
1410.430, 687.0000
1411.483, 690.0000
1412.535, 685.0000
1413.588, 705.0000
1414.640, 705.0000
1415.692, 691.0000
1416.744, 693.0000
1417.796, 678.0000
1418.848, 674.0000
1419.900, 694.0000
1420.951, 676.0000
1422.002, 675.0000
1423.053, 664.0000
1424.104, 700.0000
1425.155, 716.0000
1426.206, 686.0000
1427.256, 689.0000
1428.307, 658.0000
1429.357, 689.0000
1430.407, 691.0000
1431.457, 682.0000
1432.507, 651.0000
1433.556, 686.0000
1434.606, 681.0000
1435.655, 693.0000
1436.704, 706.0000
1437.753, 692.0000
1438.802, 696.0000
1439.851, 684.0000
1440.899, 699.0000
1441.948, 686.0000
1442.996, 664.0000
1444.044, 686.0000
1445.092, 677.0000
1446.140, 692.0000
1447.187, 686.0000
1448.235, 687.0000
1449.282, 684.2565
1450.329, 691.0000
1451.376, 671.0000
1452.423, 666.0000
1453.470, 660.0000
1454.517, 692.0000
1455.563, 683.0000
1456.609, 698.0000
1457.655, 698.0000
1458.701, 664.0000
1459.747, 692.0000
1460.793, 693.0000
1461.838, 674.0000
1462.884, 696.0000
1463.929, 700.0000
1464.974, 653.0000
1466.019, 666.0000
1467.064, 684.0000
1468.108, 667.0000
1469.153, 690.0000
1470.197, 662.0000
1471.241, 672.0000
1472.285, 678.0000
1473.329, 680.0000
1474.373, 694.0000
1475.416, 700.5657
1476.460, 706.7435
1477.503, 716.0000
1478.546, 716.0000
1479.589, 712.0000
1480.632, 708.0000
1481.674, 671.0000
1482.717, 684.0000
1483.759, 678.5204
1484.801, 673.0000
1485.843, 689.0000
1486.885, 684.0000
1487.927, 685.0000
1488.968, 707.0000
1490.010, 709.0000
1491.051, 673.0000
1492.092, 683.0000
1493.133, 681.0000
1494.174, 690.0000
1495.215, 692.0000
1496.255, 682.0000
1497.296, 700.0000
1498.336, 665.0000
1499.376, 699.0000
1500.416, 713.0000
1501.456, 679.0000
1502.495, 658.0000
1503.535, 675.0000
1504.574, 672.0000
1505.613, 663.0000
1506.652, 679.0000
1507.691, 679.0000
1508.730, 703.0000
1509.768, 692.0000
1510.807, 712.0000
1511.845, 707.0000
1512.883, 704.0000
1513.921, 676.0000
1514.959, 699.0000
1515.996, 701.0000
1517.034, 719.0000
1518.071, 694.0000
1519.109, 706.0000
1520.146, 683.0000
1521.183, 681.0000
1522.219, 703.0000
1523.256, 718.0000
1524.292, 704.0000
1525.329, 704.0000
1526.365, 696.0000
1527.401, 715.0000
1528.437, 702.0000
1529.472, 718.0000
1530.508, 703.0000
1531.543, 692.0000
1532.579, 706.0000
1533.614, 688.0000
1534.649, 699.0000
1535.683, 701.0000
1536.718, 696.0000
1537.753, 708.0000
1538.787, 719.0000
1539.821, 704.0000
1540.855, 706.0000
1541.889, 709.0000
1542.923, 713.0000
1543.956, 707.0000
1544.990, 700.0000
1546.023, 736.0000
1547.056, 704.0000
1548.089, 728.0000
1549.122, 697.0000
1550.155, 704.0000
1551.187, 711.0000
1552.220, 729.0000
1553.252, 705.0000
1554.284, 725.0000
1555.316, 713.0000
1556.348, 710.0000
1557.379, 736.0000
1558.411, 708.0000
1559.442, 719.0000
1560.474, 744.0000
1561.505, 741.0000
1562.535, 715.0000
1563.566, 733.0000
1564.597, 717.0000
1565.627, 717.0000
1566.658, 725.0000
1567.688, 735.0000
1568.718, 750.0000
1569.748, 769.0000
1570.777, 807.0000
##END=



