##NAMES=Andalusite
##RRUFFID=R060212
##IDEAL CHEMISTRY=Al_2_SiO_5_
##LOCALITY=Brazil
##OWNER=RRUFF
##SOURCE=Marcus Origlieri
##DESCRIPTION=Transparent yellow-green water-worn pebble
##STATUS=The identification of this mineral is confirmed by single-crystal X-ray diffraction and chemical analysis.
##URL=rruff.info/R060212
##MEASURED CHEMISTRY=(Al_1.98_Fe^3+^_0.02_)_Î£=2_Si_1.00_O_5_
##PIN_ID=M00278
##ORIENTATION=Laser parallel to c* (0 0 1). Fiducial mark perpendicular to laser is parallel to -a [-1 0 0]
99.64900, 4548.000
100.8830, 4410.000
102.1160, 4495.000
103.3490, 4506.000
104.5820, 4702.000
105.8150, 4927.000
107.0470, 5435.000
108.2800, 5972.000
109.5120, 6273.000
110.7440, 5484.000
111.9760, 4908.000
113.2080, 4826.000
114.4400, 4971.000
115.6710, 5215.000
116.9030, 5053.000
118.1340, 4993.000
119.3650, 4826.000
120.5960, 4696.000
121.8270, 4803.000
123.0580, 4685.285
124.2880, 4701.883
125.5190, 4690.000
126.7490, 4739.000
127.9790, 4826.000
129.2090, 4927.000
130.4390, 4896.000
131.6680, 4968.000
132.8980, 4912.000
134.1270, 4855.000
135.3560, 4893.000
136.5850, 5097.000
137.8140, 5106.000
139.0430, 5414.000
140.2710, 5449.000
141.5000, 5320.000
142.7280, 5257.000
143.9560, 5187.000
145.1840, 5130.000
146.4120, 5078.454
147.6390, 5088.000
148.8670, 5030.000
150.0940, 5100.000
151.3210, 5182.000
152.5490, 5164.000
153.7750, 4972.000
155.0020, 5109.000
156.2290, 4922.000
157.4550, 4932.000
158.6810, 4959.000
159.9080, 5000.000
161.1340, 5054.000
162.3590, 5119.000
163.5850, 5324.000
164.8110, 5361.000
166.0360, 5532.000
167.2610, 5454.000
168.4860, 5440.000
169.7110, 5562.000
170.9360, 5557.000
172.1610, 5438.000
173.3850, 5392.000
174.6100, 5439.000
175.8340, 5454.000
177.0580, 5414.000
178.2820, 5483.000
179.5050, 5543.000
180.7290, 5503.000
181.9520, 5641.000
183.1760, 5574.000
184.3990, 5780.000
185.6220, 5901.000
186.8450, 6087.000
188.0670, 6369.000
189.2900, 6593.000
190.5120, 6687.000
191.7340, 6752.000
192.9560, 6767.000
194.1780, 6775.000
195.4000, 6849.000
196.6220, 6834.000
197.8430, 6851.000
199.0640, 6803.000
200.2860, 7032.000
201.5070, 7105.000
202.7270, 7189.000
203.9480, 6742.000
205.1690, 6055.000
206.3890, 5701.000
207.6090, 5545.000
208.8290, 5304.000
210.0490, 5390.000
211.2690, 5272.000
212.4890, 5320.000
213.7080, 5329.000
214.9280, 5405.000
216.1470, 5269.000
217.3660, 5362.000
218.5850, 5239.000
219.8030, 5181.000
221.0220, 5254.000
222.2400, 5287.000
223.4590, 5218.000
224.6770, 5269.000
225.8950, 5328.000
227.1120, 5289.000
228.3300, 5336.000
229.5480, 5384.000
230.7650, 5393.000
231.9820, 5432.000
233.1990, 5447.000
234.4160, 5552.000
235.6330, 5594.000
236.8490, 5736.000
238.0660, 5964.000
239.2820, 6087.000
240.4980, 6300.000
241.7140, 6222.000
242.9300, 6292.000
244.1460, 6185.000
245.3610, 6153.000
246.5770, 6107.000
247.7920, 6165.000
249.0070, 6012.000
250.2220, 5996.000
251.4370, 6073.000
252.6510, 6188.000
253.8660, 6187.000
255.0800, 6250.000
256.2940, 6273.000
257.5080, 6394.000
258.7220, 6820.000
259.9360, 7229.000
261.1490, 6920.000
262.3630, 6910.000
263.5760, 6889.000
264.7890, 7025.000
266.0020, 7216.000
267.2150, 7481.000
268.4270, 7522.000
269.6400, 7854.000
270.8520, 8453.000
272.0640, 8812.000
273.2760, 9947.000
274.4880, 10461.35
275.7000, 12145.00
276.9120, 12145.00
278.1230, 12591.00
279.3340, 13839.00
280.5450, 15617.00
281.7560, 17935.00
282.9670, 20878.00
284.1780, 24636.00
285.3880, 29512.00
286.5980, 36128.00
287.8090, 43471.00
289.0190, 51391.00
290.2290, 56588.00
291.4380, 55972.00
292.6480, 49823.00
293.8570, 41323.00
295.0670, 33062.00
296.2760, 26223.00
297.4850, 21113.00
298.6930, 17690.00
299.9020, 15131.00
301.1110, 13133.00
302.3190, 11958.00
303.5270, 11092.00
304.7350, 10184.00
305.9430, 9858.000
307.1510, 9595.000
308.3580, 9623.000
309.5660, 9882.000
310.7730, 10386.00
311.9800, 11290.00
313.1870, 12421.00
314.3940, 14025.00
315.6010, 16724.00
316.8070, 20642.00
318.0130, 25533.00
319.2200, 29459.00
320.4260, 29748.00
321.6310, 27398.00
322.8370, 24113.00
324.0430, 20406.00
325.2480, 17642.00
326.4540, 15270.00
327.6590, 13720.00
328.8640, 12720.00
330.0680, 12013.00
331.2730, 11590.00
332.4780, 11385.00
333.6820, 11130.00
334.8860, 10870.00
336.0900, 10797.00
337.2940, 10492.00
338.4980, 10401.00
339.7010, 10091.00
340.9050, 9853.000
342.1080, 9863.000
343.3110, 9649.000
344.5140, 9685.000
345.7170, 9659.000
346.9200, 10078.00
348.1220, 10370.00
349.3240, 10811.00
350.5270, 11779.00
351.7290, 12794.00
352.9310, 14192.00
354.1320, 16037.00
355.3340, 18114.00
356.5350, 19797.00
357.7370, 20333.00
358.9380, 19779.00
360.1390, 18487.00
361.3400, 16442.00
362.5400, 14864.00
363.7410, 13338.00
364.9410, 12103.00
366.1410, 11024.00
367.3410, 10264.00
368.5410, 9720.000
369.7410, 9345.000
370.9400, 9017.000
372.1400, 8731.000
373.3390, 8383.000
374.5380, 8226.000
375.7370, 8025.000
376.9360, 8121.000
378.1350, 7993.000
379.3330, 8067.000
380.5310, 8138.000
381.7300, 8030.000
382.9280, 7888.000
384.1260, 7774.000
385.3230, 7631.000
386.5210, 7528.000
387.7180, 7295.000
388.9160, 7370.000
390.1130, 7434.000
391.3100, 7486.000
392.5060, 7291.000
393.7030, 7229.000
394.9000, 7026.000
396.0960, 6958.000
397.2920, 6959.000
398.4880, 6916.000
399.6840, 6776.000
400.8800, 6851.000
402.0750, 6782.000
403.2710, 6927.000
404.4660, 6888.000
405.6610, 6893.000
406.8560, 6976.000
408.0510, 7035.646
409.2450, 7143.000
410.4400, 7288.000
411.6340, 7445.000
412.8280, 7644.000
414.0220, 7909.000
415.2160, 8111.000
416.4100, 8356.000
417.6030, 8477.000
418.7970, 8360.000
419.9900, 8109.000
421.1830, 7710.000
422.3760, 7564.000
423.5690, 7309.000
424.7610, 7185.000
425.9540, 7055.000
427.1460, 6935.000
428.3380, 6988.000
429.5300, 6851.000
430.7220, 6904.000
431.9140, 6837.000
433.1050, 6779.000
434.2970, 6757.000
435.4880, 6862.000
436.6790, 6876.000
437.8700, 6781.000
439.0610, 6982.000
440.2510, 6901.000
441.4420, 6981.000
442.6320, 7052.000
443.8220, 7208.000
445.0120, 7454.000
446.2020, 7518.000
447.3910, 8058.000
448.5810, 8732.000
449.7700, 9689.000
450.9600, 9921.000
452.1490, 9291.000
453.3370, 8469.000
454.5260, 7863.000
455.7150, 7528.000
456.9030, 7326.000
458.0910, 7126.000
459.2800, 7119.000
460.4670, 6973.000
461.6550, 6988.000
462.8430, 7118.000
464.0300, 7070.000
465.2180, 7193.000
466.4050, 7101.000
467.5920, 7174.000
468.7790, 7219.000
469.9650, 7385.000
471.1520, 7389.000
472.3380, 7584.000
473.5250, 7536.000
474.7110, 7562.000
475.8970, 7586.000
477.0820, 7625.000
478.2680, 7735.000
479.4540, 7851.000
480.6390, 7892.000
481.8240, 7879.000
483.0090, 7875.000
484.1940, 7856.000
485.3780, 7732.000
486.5630, 7627.000
487.7470, 7528.000
488.9320, 7433.000
490.1160, 7371.153
491.3000, 7352.000
492.4830, 7261.000
493.6670, 7209.000
494.8500, 7148.000
496.0340, 7254.000
497.2170, 7272.000
498.4000, 7202.000
499.5820, 7246.000
500.7650, 7220.000
501.9480, 7261.000
503.1300, 7263.000
504.3120, 7192.000
505.4940, 7294.000
506.6760, 7299.000
507.8580, 7406.000
509.0390, 7421.000
510.2210, 7514.000
511.4020, 7638.000
512.5830, 7636.000
513.7640, 7572.000
514.9450, 7515.000
516.1250, 7575.000
517.3060, 7631.000
518.4860, 7563.000
519.6660, 7658.000
520.8460, 7654.000
522.0260, 7568.000
523.2060, 7592.000
524.3850, 7602.000
525.5650, 7593.000
526.7440, 7696.000
527.9230, 7753.000
529.1020, 7847.000
530.2810, 7780.000
531.4590, 7759.000
532.6380, 7845.000
533.8160, 7972.000
534.9940, 7966.000
536.1720, 7951.000
537.3500, 8109.000
538.5270, 8469.000
539.7050, 8804.000
540.8820, 9142.000
542.0590, 9768.000
543.2360, 10433.00
544.4130, 11266.00
545.5900, 12348.00
546.7660, 13388.00
547.9430, 14091.00
549.1190, 14790.00
550.2950, 14854.00
551.4710, 14674.00
552.6470, 13824.00
553.8220, 12694.00
554.9980, 11648.00
556.1730, 10882.00
557.3480, 10151.00
558.5230, 9543.000
559.6980, 9307.000
560.8730, 9007.000
562.0470, 8835.000
563.2220, 8646.000
564.3960, 8517.938
565.5700, 8488.000
566.7440, 8415.000
567.9170, 8460.000
569.0910, 8428.920
570.2640, 8473.000
571.4380, 8421.000
572.6110, 8390.000
573.7840, 8351.000
574.9570, 8235.000
576.1290, 8239.000
577.3020, 8126.000
578.4740, 8168.000
579.6460, 8004.000
580.8180, 7977.000
581.9900, 7980.000
583.1620, 8081.000
584.3330, 7937.000
585.5040, 7953.000
586.6760, 7845.000
587.8470, 7976.000
589.0180, 7977.000
590.1880, 8077.000
591.3590, 8060.000
592.5290, 8045.000
593.7000, 8093.026
594.8700, 8121.800
596.0400, 8143.000
597.2090, 8245.000
598.3790, 8307.000
599.5490, 8383.000
600.7180, 8562.000
601.8870, 8571.000
603.0560, 8660.000
604.2250, 8827.000
605.3940, 8679.000
606.5620, 8636.000
607.7300, 8748.000
608.8990, 8594.000
610.0670, 8493.000
611.2350, 8318.000
612.4020, 8215.000
613.5700, 8268.000
614.7370, 8205.000
615.9050, 8253.000
617.0720, 8238.000
618.2390, 8175.000
619.4060, 8126.000
620.5720, 8223.000
621.7390, 8311.000
622.9050, 8227.000
624.0710, 8392.000
625.2370, 8412.000
626.4030, 8281.000
627.5690, 8303.000
628.7340, 8453.000
629.9000, 8291.000
631.0650, 8261.000
632.2300, 8195.000
633.3950, 8125.000
634.5600, 8172.000
635.7240, 8023.000
636.8890, 8032.000
638.0530, 8010.000
639.2170, 8115.000
640.3810, 8036.000
641.5450, 8089.000
642.7080, 8158.000
643.8720, 8268.000
645.0350, 8146.000
646.1980, 8277.000
647.3610, 8099.000
648.5240, 8185.000
649.6870, 8155.000
650.8490, 8071.000
652.0120, 7977.000
653.1740, 8069.000
654.3360, 8151.000
655.4980, 8125.000
656.6600, 8278.000
657.8210, 8245.000
658.9830, 8438.000
660.1440, 8540.000
661.3050, 8717.000
662.4660, 8782.000
663.6270, 8563.000
664.7870, 8502.000
665.9480, 8307.000
667.1080, 8367.000
668.2680, 8308.000
669.4280, 8250.000
670.5880, 8226.000
671.7480, 8235.000
672.9070, 8308.000
674.0670, 8305.000
675.2260, 8296.000
676.3850, 8291.000
677.5440, 8304.944
678.7030, 8398.000
679.8610, 8329.000
681.0200, 8362.000
682.1780, 8357.000
683.3360, 8496.000
684.4940, 8512.000
685.6520, 8509.000
686.8090, 8487.000
687.9670, 8502.000
689.1240, 8547.000
690.2810, 8546.767
691.4380, 8574.372
692.5950, 8598.000
693.7520, 8605.000
694.9080, 8648.000
696.0650, 8651.000
697.2210, 8694.000
698.3770, 8697.000
699.5330, 8719.000
700.6880, 8753.000
701.8440, 8803.000
702.9990, 8932.000
704.1550, 8982.000
705.3100, 8937.000
706.4650, 9025.000
707.6190, 9299.000
708.7740, 9316.000
709.9290, 9518.000
711.0830, 9700.000
712.2370, 9856.000
713.3910, 10041.00
714.5450, 10210.00
715.6980, 10251.00
716.8520, 10316.00
718.0050, 10316.00
719.1580, 10152.00
720.3110, 9866.000
721.4640, 9572.000
722.6170, 9281.000
723.7700, 9065.000
724.9220, 8936.000
726.0740, 8742.000
727.2260, 8699.000
728.3780, 8599.809
729.5300, 8620.000
730.6810, 8543.000
731.8330, 8492.000
732.9840, 8569.000
734.1350, 8577.000
735.2860, 8591.000
736.4370, 8674.000
737.5880, 8682.000
738.7380, 8759.000
739.8880, 8756.000
741.0390, 8731.000
742.1890, 8774.000
743.3380, 8779.854
744.4880, 8770.000
745.6380, 8827.000
746.7870, 8803.000
747.9360, 8805.000
749.0850, 8784.592
750.2340, 8664.000
751.3830, 8712.000
752.5310, 8685.000
753.6800, 8654.000
754.8280, 8767.000
755.9760, 8692.000
757.1240, 8699.000
758.2720, 8718.000
759.4190, 8639.000
760.5670, 8650.000
761.7140, 8579.000
762.8610, 8578.238
764.0080, 8674.000
765.1550, 8617.000
766.3020, 8668.000
767.4480, 8786.000
768.5950, 8821.000
769.7410, 8725.000
770.8870, 8837.000
772.0330, 8803.000
773.1780, 8961.000
774.3240, 8885.000
775.4690, 8825.000
776.6140, 8864.000
777.7590, 8785.000
778.9040, 8734.000
780.0490, 8804.332
781.1940, 8984.000
782.3380, 8918.000
783.4820, 9024.000
784.6260, 9070.000
785.7700, 9131.000
786.9140, 9194.820
788.0580, 9274.000
789.2010, 9315.000
790.3450, 9351.000
791.4880, 9369.624
792.6310, 9437.000
793.7730, 9379.000
794.9160, 9353.000
796.0590, 9370.246
797.2010, 9411.000
798.3430, 9449.000
799.4850, 9488.000
800.6270, 9602.000
801.7690, 9762.000
802.9100, 9779.000
804.0520, 9919.000
805.1930, 9896.000
806.3340, 9925.000
807.4750, 9838.000
808.6160, 9807.136
809.7560, 9591.000
810.8970, 9624.000
812.0370, 9483.000
813.1770, 9267.000
814.3170, 9217.000
815.4570, 9316.000
816.5960, 9231.000
817.7360, 9228.000
818.8750, 9271.000
820.0140, 9147.000
821.1530, 9218.000
822.2920, 9228.000
823.4310, 9253.000
824.5690, 9400.000
825.7070, 9455.000
826.8460, 9593.000
827.9840, 9493.000
829.1220, 9691.000
830.2590, 9729.000
831.3970, 9926.000
832.5340, 10040.00
833.6710, 9814.000
834.8080, 9954.000
835.9450, 9699.000
837.0820, 9638.000
838.2190, 9555.000
839.3550, 9490.000
840.4910, 9396.000
841.6270, 9347.000
842.7630, 9165.000
843.8990, 9216.000
845.0350, 9271.000
846.1700, 9247.000
847.3060, 9117.000
848.4410, 9295.000
849.5760, 9172.000
850.7100, 9293.000
851.8450, 9188.000
852.9800, 9198.000
854.1140, 9304.000
855.2480, 9292.000
856.3820, 9363.000
857.5160, 9401.000
858.6500, 9432.000
859.7830, 9339.000
860.9170, 9349.000
862.0500, 9451.000
863.1830, 9513.000
864.3160, 9575.000
865.4480, 9449.000
866.5810, 9528.000
867.7130, 9685.000
868.8460, 9594.000
869.9780, 9686.000
871.1100, 9658.000
872.2410, 9636.000
873.3730, 9819.000
874.5050, 9849.000
875.6360, 9705.000
876.7670, 9764.000
877.8980, 9953.000
879.0290, 9839.000
880.1590, 9935.000
881.2900, 9992.000
882.4200, 10004.00
883.5500, 10047.70
884.6800, 10014.00
885.8100, 10088.00
886.9400, 10178.00
888.0690, 10238.00
889.1990, 10348.51
890.3280, 10441.00
891.4570, 10574.00
892.5860, 10683.00
893.7140, 10819.00
894.8430, 11025.00
895.9710, 11218.00
897.1000, 11390.00
898.2280, 11603.00
899.3560, 11890.00
900.4830, 12301.00
901.6110, 12486.00
902.7380, 13024.00
903.8660, 13653.00
904.9930, 14085.00
906.1200, 14935.00
907.2460, 16132.00
908.3730, 17673.00
909.5000, 19756.00
910.6260, 22583.00
911.7520, 25959.00
912.8780, 31004.00
914.0040, 37295.00
915.1290, 44107.00
916.2550, 52325.00
917.3800, 58585.00
918.5050, 60317.00
919.6300, 56999.00
920.7550, 49833.00
921.8800, 42590.00
923.0040, 36507.00
924.1290, 31872.00
925.2530, 28666.00
926.3770, 26636.00
927.5010, 24869.00
928.6250, 23283.00
929.7480, 21605.00
930.8720, 20115.00
931.9950, 18627.00
933.1180, 17537.00
934.2410, 16501.00
935.3640, 15822.00
936.4860, 15399.00
937.6090, 14979.00
938.7310, 14768.00
939.8530, 14812.00
940.9750, 14923.00
942.0970, 15290.00
943.2180, 15804.00
944.3400, 16190.00
945.4610, 17366.00
946.5820, 17976.00
947.7030, 18650.00
948.8240, 19025.00
949.9450, 19023.00
951.0650, 18678.00
952.1860, 17569.00
953.3060, 16484.00
954.4260, 15363.00
955.5460, 14538.00
956.6650, 13666.00
957.7850, 13227.00
958.9040, 12720.00
960.0230, 12266.00
961.1420, 12077.00
962.2610, 11814.00
963.3800, 11590.00
964.4990, 11393.00
965.6170, 11286.00
966.7350, 11184.16
967.8530, 11188.00
968.9710, 11103.00
970.0890, 11150.00
971.2070, 11147.00
972.3240, 11099.61
973.4410, 11136.00
974.5580, 11015.00
975.6750, 11024.00
976.7920, 10949.00
977.9090, 10895.00
979.0250, 10866.00
980.1410, 10794.00
981.2580, 10894.00
982.3740, 10847.00
983.4890, 10928.00
984.6050, 11007.00
985.7200, 10954.00
986.8360, 10952.00
987.9510, 10958.00
989.0660, 10945.99
990.1810, 10963.98
991.2950, 10967.00
992.4100, 11011.00
993.5240, 11041.00
994.6390, 11100.00
995.7530, 11125.00
996.8660, 11221.00
997.9800, 11212.00
999.0940, 11321.00
1000.207, 11393.00
1001.320, 11518.00
1002.433, 11585.00
1003.546, 11742.00
1004.659, 11772.00
1005.772, 12092.00
1006.884, 12324.00
1007.996, 12687.00
1009.108, 13073.00
1010.220, 13584.00
1011.332, 14147.00
1012.444, 14987.00
1013.555, 16178.00
1014.666, 17069.00
1015.777, 18113.00
1016.888, 19113.00
1017.999, 19536.00
1019.110, 19682.00
1020.220, 19372.00
1021.331, 18472.00
1022.441, 17394.00
1023.551, 16378.00
1024.661, 15714.00
1025.770, 14849.00
1026.880, 14201.00
1027.989, 13862.00
1029.098, 13397.00
1030.207, 13089.00
1031.316, 12707.00
1032.425, 12716.00
1033.533, 12642.00
1034.642, 12416.00
1035.750, 12328.00
1036.858, 12291.00
1037.966, 12170.00
1039.073, 12182.00
1040.181, 12197.00
1041.288, 12194.00
1042.396, 12156.00
1043.503, 12205.00
1044.610, 12205.00
1045.716, 12221.00
1046.823, 12280.95
1047.929, 12319.00
1049.036, 12468.00
1050.142, 12615.00
1051.248, 12872.00
1052.353, 12950.00
1053.459, 13571.00
1054.564, 13880.00
1055.670, 14452.00
1056.775, 15537.00
1057.880, 16486.00
1058.985, 18091.00
1060.089, 19742.00
1061.194, 21769.00
1062.298, 23565.00
1063.402, 24872.00
1064.506, 24573.00
1065.610, 23168.00
1066.713, 21132.00
1067.817, 18916.00
1068.920, 17417.00
1070.023, 16228.00
1071.126, 15119.00
1072.229, 14503.00
1073.332, 13902.00
1074.435, 13426.00
1075.537, 13312.00
1076.639, 12845.00
1077.741, 12774.00
1078.843, 12623.00
1079.945, 12491.00
1081.046, 12317.00
1082.148, 12264.08
1083.249, 12345.00
1084.350, 12207.00
1085.451, 12245.00
1086.551, 12325.00
1087.652, 12211.00
1088.752, 12089.00
1089.853, 12018.00
1090.953, 12075.00
1092.053, 12196.00
1093.152, 12238.00
1094.252, 12150.00
1095.351, 12354.00
1096.451, 12356.00
1097.550, 12532.00
1098.649, 12635.00
1099.748, 12740.00
1100.846, 13084.00
1101.945, 13134.00
1103.043, 13361.00
1104.141, 13540.00
1105.239, 13923.00
1106.337, 14262.00
1107.434, 14521.00
1108.532, 14695.00
1109.629, 14582.00
1110.726, 14571.00
1111.823, 14168.00
1112.920, 13918.00
1114.017, 13514.00
1115.113, 13180.00
1116.210, 12989.00
1117.306, 12886.39
1118.402, 12978.00
1119.498, 13003.00
1120.593, 13309.00
1121.689, 13630.00
1122.784, 13669.00
1123.879, 13314.00
1124.974, 13080.00
1126.069, 12623.00
1127.164, 12510.00
1128.259, 12298.00
1129.353, 12055.00
1130.447, 11885.00
1131.541, 11742.27
1132.635, 11496.00
1133.729, 11548.00
1134.822, 11609.00
1135.916, 11596.00
1137.009, 11464.00
1138.102, 11543.00
1139.195, 11465.00
1140.288, 11470.00
1141.380, 11540.00
1142.473, 11446.00
1143.565, 11397.00
1144.657, 11599.00
1145.749, 11444.00
1146.841, 11387.00
1147.932, 11425.00
1149.024, 11586.00
1150.115, 11653.00
1151.206, 11501.00
1152.297, 11458.00
1153.388, 11427.00
1154.479, 11383.00
1155.569, 11576.00
1156.659, 11597.00
1157.750, 11520.00
1158.839, 11430.00
1159.929, 11557.00
1161.019, 11412.00
1162.108, 11565.00
1163.198, 11591.00
1164.287, 11666.00
1165.376, 11631.36
1166.465, 11545.19
1167.553, 11514.00
1168.642, 11498.41
1169.730, 11478.59
1170.818, 11474.00
1171.906, 11513.00
1172.994, 11467.00
1174.082, 11529.00
1175.170, 11510.00
1176.257, 11531.00
1177.344, 11576.00
1178.431, 11544.00
1179.518, 11555.00
1180.605, 11749.00
1181.691, 11603.71
1182.778, 11659.70
1183.864, 11500.00
1184.950, 11552.00
1186.036, 11645.00
1187.122, 11482.00
1188.207, 11619.00
1189.292, 11584.00
1190.378, 11575.00
1191.463, 11524.00
1192.548, 11634.00
1193.632, 11576.00
1194.717, 11619.00
1195.801, 11783.00
1196.886, 11737.00
1197.970, 11592.00
1199.054, 11501.00
1200.137, 11584.00
1201.221, 11637.00
1202.305, 11663.00
1203.388, 11691.00
1204.471, 11713.45
1205.554, 11686.00
1206.637, 11754.00
1207.719, 11751.00
1208.802, 11797.82
1209.884, 11781.61
1210.966, 11809.00
1212.048, 11731.00
1213.130, 11657.00
1214.212, 11618.00
1215.293, 11648.00
1216.374, 11800.00
1217.456, 11841.00
1218.536, 11805.00
1219.617, 11777.00
1220.698, 11732.00
1221.778, 11747.54
1222.859, 11735.00
1223.939, 11761.00
1225.019, 11898.00
1226.099, 11869.00
1227.178, 11918.00
1228.258, 11977.00
1229.337, 11855.00
1230.417, 12003.00
1231.496, 12031.00
1232.574, 12145.00
1233.653, 12156.00
1234.732, 12088.00
1235.810, 12009.00
1236.888, 12005.00
1237.966, 12173.00
1239.044, 12214.00
1240.122, 12198.32
1241.199, 12160.00
1242.277, 12175.00
1243.354, 12196.00
1244.431, 12261.00
1245.508, 12270.00
1246.585, 12258.00
1247.661, 12140.00
1248.738, 12334.00
1249.814, 12347.00
1250.890, 12226.00
1251.966, 12308.00
1253.042, 12336.00
1254.117, 12368.00
1255.193, 12374.00
1256.268, 12516.00
1257.343, 12400.72
1258.418, 12445.69
1259.493, 12225.00
1260.567, 12375.00
1261.642, 12312.00
1262.716, 12195.00
1263.790, 12177.00
1264.864, 12293.00
1265.938, 12333.00
1267.011, 12312.00
1268.085, 12213.00
1269.158, 12254.00
1270.231, 12245.00
1271.304, 12072.00
1272.377, 12246.00
1273.450, 12222.00
1274.522, 12335.00
1275.594, 12212.00
1276.666, 12225.00
1277.738, 12267.00
1278.810, 12210.00
1279.882, 12216.00
1280.953, 12188.00
1282.025, 12225.00
1283.096, 12332.00
1284.167, 12323.00
1285.238, 12331.71
1286.308, 12218.00
1287.379, 12321.00
1288.449, 12255.00
1289.519, 12323.00
1290.589, 12417.00
1291.659, 12389.00
1292.729, 12186.00
1293.798, 12277.00
1294.868, 12307.00
1295.937, 12338.00
1297.006, 12393.00
1298.075, 12386.00
1299.143, 12388.00
1300.212, 12315.00
1301.280, 12364.80
1302.348, 12486.00
1303.416, 12420.00
1304.484, 12397.00
1305.552, 12405.00
1306.620, 12366.00
1307.687, 12413.71
1308.754, 12541.00
1309.821, 12484.00
1310.888, 12553.00
1311.955, 12545.00
1313.021, 12555.00
1314.088, 12379.00
1315.154, 12463.00
1316.220, 12471.00
1317.286, 12597.00
1318.352, 12501.00
1319.417, 12639.00
1320.483, 12606.00
1321.548, 12556.00
1322.613, 12487.00
1323.678, 12576.00
1324.743, 12483.00
1325.807, 12537.00
1326.872, 12620.00
1327.936, 12513.00
1329.000, 12594.00
1330.064, 12493.00
1331.128, 12439.00
1332.191, 12570.00
1333.255, 12685.00
1334.318, 12525.00
1335.381, 12656.00
1336.444, 12605.00
1337.507, 12655.00
1338.569, 12429.00
1339.632, 12544.00
1340.694, 12552.00
1341.756, 12707.00
1342.818, 12550.00
1343.880, 12737.00
1344.941, 12684.00
1346.003, 12688.00
1347.064, 12577.00
1348.125, 12758.00
1349.186, 12707.00
1350.247, 12652.00
1351.308, 12630.00
1352.368, 12764.00
1353.428, 12714.00
1354.489, 12726.00
1355.549, 12687.00
1356.608, 12775.00
1357.668, 12753.00
1358.727, 12672.00
1359.787, 12748.00
1360.846, 12804.00
1361.905, 12632.00
1362.964, 12794.00
1364.022, 12644.00
1365.081, 12923.00
1366.139, 12737.00
1367.197, 12812.00
1368.255, 12829.00
1369.313, 12855.00
1370.371, 12700.00
1371.428, 12836.00
1372.486, 12693.00
1373.543, 12708.00
1374.600, 12599.00
1375.657, 12795.00
1376.713, 12757.00
1377.770, 12790.00
1378.826, 12948.00
1379.882, 12750.00
1380.938, 12841.00
1381.994, 12837.00
1383.050, 12889.00
1384.106, 12991.00
1385.161, 12880.00
1386.216, 12881.00
1387.271, 13026.00
1388.326, 12770.00
1389.381, 12853.00
1390.435, 12867.00
1391.490, 12884.00
1392.544, 12869.00
1393.598, 12883.46
1394.652, 12979.00
1395.705, 12903.00
1396.759, 12948.00
1397.812, 12989.00
1398.866, 12910.00
1399.919, 13061.00
1400.972, 12922.00
1402.024, 13023.00
1403.077, 12966.00
1404.129, 12947.00
1405.181, 13092.00
1406.233, 13013.00
1407.285, 13060.00
1408.337, 13084.00
1409.389, 13041.00
1410.440, 13081.00
1411.491, 12965.00
1412.542, 12930.00
1413.593, 13223.00
1414.644, 13118.00
1415.695, 13178.00
1416.745, 13100.00
1417.795, 13137.00
1418.845, 13244.00
1419.895, 13068.00
1420.945, 13118.00
1421.995, 13280.00
1423.044, 13167.00
1424.093, 13172.00
1425.142, 13244.00
1426.191, 13129.00
1427.240, 13159.28
1428.289, 13194.00
1429.337, 13165.00
1430.385, 13123.00
1431.433, 13230.00
1432.481, 13224.00
1433.529, 13210.27
1434.577, 13285.00
1435.624, 13218.00
1436.672, 13161.00
1437.719, 13269.00
1438.766, 13304.00
1439.812, 13453.00
1440.859, 13355.00
1441.905, 13271.00
1442.952, 13336.00
1443.998, 13360.00
1445.044, 13363.00
1446.090, 13431.00
1447.135, 13516.00
1448.181, 13607.00
1449.226, 13569.56
1450.271, 13580.34
1451.316, 13483.00
1452.361, 13458.00
1453.405, 13424.00
1454.450, 13294.00
1455.494, 13429.00
1456.538, 13477.00
1457.582, 13550.00
1458.626, 13504.00
1459.670, 13500.00
1460.713, 13498.00
1461.757, 13498.00
1462.800, 13600.00
1463.843, 13330.00
1464.886, 13448.00
1465.928, 13617.00
1466.971, 13459.00
1468.013, 13688.00
1469.055, 13487.00
1470.097, 13545.00
1471.139, 13561.00
1472.181, 13553.00
1473.222, 13541.00
1474.263, 13548.05
1475.305, 13539.00
1476.346, 13550.00
1477.386, 13571.00
1478.427, 13580.18
1479.468, 13610.00
1480.508, 13577.00
1481.548, 13609.00
1482.588, 13583.00
1483.628, 13768.00
1484.668, 13522.00
1485.707, 13772.00
1486.747, 13618.00
1487.786, 13715.00
1488.825, 13699.00
1489.864, 13784.00
1490.902, 13688.00
1491.941, 13690.00
1492.979, 13753.00
1494.017, 13832.00
1495.055, 13633.00
1496.093, 13652.00
1497.131, 13740.00
1498.168, 13890.00
1499.206, 13722.00
1500.243, 13731.00
1501.280, 13781.00
1502.317, 13758.00
1503.354, 13814.00
1504.390, 13887.00
1505.426, 13814.00
1506.463, 13789.00
1507.499, 13681.00
1508.535, 13926.00
1509.570, 13781.00
1510.606, 13984.00
1511.641, 13804.00
1512.676, 13869.00
1513.711, 13834.00
1514.746, 13951.00
1515.781, 13935.24
1516.816, 13913.00
1517.850, 13892.00
1518.884, 13905.00
1519.918, 13750.00
1520.952, 13758.00
1521.986, 13707.00
1523.019, 13913.00
1524.053, 13921.00
1525.086, 13852.00
1526.119, 13939.00
1527.152, 13872.00
1528.185, 13899.00
1529.217, 14003.00
1530.250, 14021.00
1531.282, 13902.00
1532.314, 14101.00
1533.346, 13925.00
1534.377, 14093.00
1535.409, 13954.00
1536.440, 13928.00
1537.472, 14011.00
1538.503, 14051.00
1539.534, 14032.00
1540.564, 14174.00
1541.595, 14012.00
1542.625, 13976.00
1543.656, 14132.00
1544.686, 14122.00
1545.716, 14171.00
1546.745, 14193.00
1547.775, 14129.00
1548.804, 14129.00
1549.834, 14246.00
1550.863, 14184.00
1551.892, 14075.00
1552.920, 14161.00
1553.949, 14106.91
1554.977, 14131.18
1556.006, 14139.00
1557.034, 14176.00
1558.062, 14223.00
1559.089, 14216.00
1560.117, 14142.00
1561.144, 14196.00
1562.172, 14101.00
1563.199, 14178.00
1564.226, 14220.00
1565.252, 14183.00
1566.279, 14270.00
1567.305, 14195.00
1568.332, 14268.00
1569.358, 14277.00
1570.384, 14329.00
##END=



