##NAMES=Andalusite
##RRUFFID=R050258
##IDEAL CHEMISTRY=Al_2_SiO_5_
##LOCALITY=Bautista Canyon, near Hemet, Riverside County, California, USA
##OWNER=RRUFF
##SOURCE=Marcus Origlieri
##DESCRIPTION=Brown fragment
##STATUS=The identification of this mineral has been confirmed by X-ray diffraction and chemical analysis
##URL=rruff.info/R050258
##MEASURED CHEMISTRY=Al_2.00_Si_1.00_O_5_
##PIN_ID=L01170
##ORIENTATION=Laser parallel to a* (1 0 0). Fiducial mark perpendicular to laser is parallel to -b [0 -1 0]
113.2080, 16202.00
114.4400, 16300.00
115.6710, 16431.00
116.9030, 16585.00
118.1340, 16756.00
119.3650, 16704.00
120.5960, 16565.00
121.8270, 16772.00
123.0580, 16886.00
124.2880, 17013.00
125.5190, 17074.00
126.7490, 17058.00
127.9790, 17224.00
129.2090, 17386.00
130.4390, 17471.00
131.6680, 17427.00
132.8980, 17439.00
134.1270, 17502.00
135.3560, 17540.86
136.5850, 17656.00
137.8140, 17704.00
139.0430, 17806.00
140.2710, 17897.00
141.5000, 17864.00
142.7280, 18083.00
143.9560, 18002.00
145.1840, 18066.00
146.4120, 18064.00
147.6390, 18218.00
148.8670, 18143.00
150.0940, 18256.00
151.3210, 18560.00
152.5490, 18114.00
153.7750, 18562.00
155.0020, 18341.00
156.2290, 18459.00
157.4550, 18533.00
158.6810, 18429.00
159.9080, 18557.00
161.1340, 18684.00
162.3590, 18613.00
163.5850, 18598.00
164.8110, 18774.00
166.0360, 18905.00
167.2610, 18926.00
168.4860, 18893.00
169.7110, 18965.00
170.9360, 19078.00
172.1610, 19138.00
173.3850, 19265.00
174.6100, 19292.00
175.8340, 19208.00
177.0580, 19359.00
178.2820, 19357.00
179.5050, 19403.00
180.7290, 19446.00
181.9520, 19457.00
183.1760, 19370.00
184.3990, 19514.00
185.6220, 19608.00
186.8450, 19654.00
188.0670, 19835.00
189.2900, 19944.00
190.5120, 19848.00
191.7340, 19959.00
192.9560, 19933.00
194.1780, 20150.00
195.4000, 20010.00
196.6220, 20251.00
197.8430, 20285.00
199.0640, 20166.00
200.2860, 20136.00
201.5070, 20239.00
202.7270, 20330.00
203.9480, 20341.00
205.1690, 20375.34
206.3890, 20185.00
207.6090, 20360.00
208.8290, 20271.00
210.0490, 20251.00
211.2690, 20434.00
212.4890, 20351.00
213.7080, 20262.00
214.9280, 20596.00
216.1470, 20323.00
217.3660, 20263.00
218.5850, 20178.00
219.8030, 20170.55
221.0220, 20425.00
222.2400, 20361.00
223.4590, 20482.00
224.6770, 20729.00
225.8950, 20656.00
227.1120, 20506.00
228.3300, 20740.00
229.5480, 20788.00
230.7650, 20692.00
231.9820, 20944.00
233.1990, 20907.00
234.4160, 20966.00
235.6330, 21209.00
236.8490, 21510.00
238.0660, 21786.00
239.2820, 21927.00
240.4980, 21931.00
241.7140, 22069.00
242.9300, 22015.00
244.1460, 21996.00
245.3610, 21920.00
246.5770, 21832.00
247.7920, 21864.00
249.0070, 21812.00
250.2220, 21687.00
251.4370, 21741.00
252.6510, 21822.00
253.8660, 21672.00
255.0800, 21829.00
256.2940, 21908.00
257.5080, 21783.00
258.7220, 22120.00
259.9360, 22215.00
261.1490, 22139.00
262.3630, 22303.00
263.5760, 22261.00
264.7890, 22359.00
266.0020, 22462.00
267.2150, 22457.00
268.4270, 22617.00
269.6400, 22741.00
270.8520, 22663.00
272.0640, 23055.00
273.2760, 23153.00
274.4880, 23820.00
275.7000, 24205.00
276.9120, 24649.00
278.1230, 24821.00
279.3340, 25138.00
280.5450, 25629.00
281.7560, 26896.00
282.9670, 28174.00
284.1780, 30213.00
285.3880, 31969.00
286.5980, 34051.00
287.8090, 36386.00
289.0190, 39369.00
290.2290, 42547.00
291.4380, 45277.00
292.6480, 45949.00
293.8570, 44503.00
295.0670, 41596.00
296.2760, 37995.00
297.4850, 34835.00
298.6930, 31734.00
299.9020, 29438.00
301.1110, 27624.00
302.3190, 26320.00
303.5270, 25710.00
304.7350, 25289.00
305.9430, 24622.00
307.1510, 24493.00
308.3580, 24552.00
309.5660, 24142.00
310.7730, 24826.00
311.9800, 25089.00
313.1870, 25563.00
314.3940, 26470.00
315.6010, 27123.00
316.8070, 28072.00
318.0130, 29563.00
319.2200, 31396.00
320.4260, 33222.00
321.6310, 33906.00
322.8370, 33782.00
324.0430, 32636.00
325.2480, 31077.00
326.4540, 29618.00
327.6590, 28194.00
328.8640, 27392.00
330.0680, 26670.00
331.2730, 26174.00
332.4780, 25821.00
333.6820, 25719.00
334.8860, 25408.00
336.0900, 25422.00
337.2940, 25443.00
338.4980, 25270.00
339.7010, 25208.00
340.9050, 25247.00
342.1080, 25225.74
343.3110, 25175.00
344.5140, 25369.00
345.7170, 25501.00
346.9200, 25636.00
348.1220, 26118.00
349.3240, 26493.00
350.5270, 27176.00
351.7290, 27958.00
352.9310, 28718.00
354.1320, 30196.00
355.3340, 31046.00
356.5350, 32699.00
357.7370, 33787.00
358.9380, 34323.00
360.1390, 34432.00
361.3400, 33524.00
362.5400, 32553.00
363.7410, 31324.00
364.9410, 30161.00
366.1410, 29107.00
367.3410, 28018.00
368.5410, 27399.00
369.7410, 26939.00
370.9400, 26445.00
372.1400, 26355.00
373.3390, 26073.00
374.5380, 25711.00
375.7370, 25759.00
376.9360, 25469.00
378.1350, 25438.00
379.3330, 25409.00
380.5310, 25545.00
381.7300, 25629.00
382.9280, 25400.00
384.1260, 25690.00
385.3230, 25428.00
386.5210, 25259.00
387.7180, 25501.00
388.9160, 25318.00
390.1130, 25291.00
391.3100, 25331.00
392.5060, 25266.00
393.7030, 25199.00
394.9000, 25425.00
396.0960, 25308.00
397.2920, 25417.00
398.4880, 25326.00
399.6840, 25140.00
400.8800, 25201.00
402.0750, 25430.00
403.2710, 25347.00
404.4660, 25479.00
405.6610, 25425.00
406.8560, 25542.00
408.0510, 25618.00
409.2450, 25634.00
410.4400, 25726.00
411.6340, 25787.87
412.8280, 25841.00
414.0220, 25929.00
415.2160, 26004.00
416.4100, 26052.00
417.6030, 26154.00
418.7970, 26256.00
419.9900, 26247.00
421.1830, 26378.00
422.3760, 26148.00
423.5690, 26119.00
424.7610, 25929.00
425.9540, 26183.00
427.1460, 25940.00
428.3380, 26020.00
429.5300, 26108.00
430.7220, 26057.00
431.9140, 25921.00
433.1050, 25918.00
434.2970, 25978.00
435.4880, 26000.00
436.6790, 26102.00
437.8700, 25901.00
439.0610, 26066.00
440.2510, 26091.00
441.4420, 26385.00
442.6320, 26402.00
443.8220, 26336.00
445.0120, 26533.00
446.2020, 26577.00
447.3910, 26583.00
448.5810, 26758.00
449.7700, 26807.00
450.9600, 27258.00
452.1490, 27408.00
453.3370, 27374.00
454.5260, 27202.00
455.7150, 26918.00
456.9030, 26856.00
458.0910, 26944.00
459.2800, 26535.00
460.4670, 26879.00
461.6550, 26675.00
462.8430, 26799.00
464.0300, 26768.00
465.2180, 26749.00
466.4050, 26994.00
467.5920, 26865.00
468.7790, 26859.00
469.9650, 27025.00
471.1520, 27004.00
472.3380, 27019.00
473.5250, 27199.00
474.7110, 26980.00
475.8970, 27339.00
477.0820, 27422.00
478.2680, 27249.00
479.4540, 27154.00
480.6390, 27239.00
481.8240, 27257.00
483.0090, 27185.00
484.1940, 27496.00
485.3780, 27580.00
486.5630, 27522.00
487.7470, 27565.00
488.9320, 27347.00
490.1160, 27413.00
491.3000, 27450.00
492.4830, 27430.00
493.6670, 27483.00
494.8500, 27511.00
496.0340, 27576.18
497.2170, 27739.00
498.4000, 27682.00
499.5820, 27845.00
500.7650, 27781.00
501.9480, 27619.00
503.1300, 27768.00
504.3120, 27861.00
505.4940, 27961.00
506.6760, 28016.36
507.8580, 27995.00
509.0390, 28003.00
510.2210, 28087.00
511.4020, 27908.00
512.5830, 28071.00
513.7640, 28182.00
514.9450, 28170.00
516.1250, 28034.00
517.3060, 28263.00
518.4860, 28150.00
519.6660, 28372.00
520.8460, 28128.00
522.0260, 28575.00
523.2060, 28474.00
524.3850, 28501.00
525.5650, 28474.00
526.7440, 28527.00
527.9230, 28668.00
529.1020, 28719.00
530.2810, 28733.67
531.4590, 28867.00
532.6380, 28743.00
533.8160, 28616.00
534.9940, 28653.00
536.1720, 28710.90
537.3500, 28766.58
538.5270, 29040.00
539.7050, 28999.00
540.8820, 29249.00
542.0590, 29358.00
543.2360, 29815.00
544.4130, 30048.00
545.5900, 30228.00
546.7660, 30775.00
547.9430, 31279.00
549.1190, 31553.00
550.2950, 31885.00
551.4710, 32167.00
552.6470, 32041.00
553.8220, 31999.00
554.9980, 31704.00
556.1730, 31354.00
557.3480, 31056.00
558.5230, 30744.00
559.6980, 30332.00
560.8730, 30079.00
562.0470, 30033.00
563.2220, 30195.00
564.3960, 30013.00
565.5700, 30096.00
566.7440, 30017.00
567.9170, 30243.00
569.0910, 30047.00
570.2640, 30514.00
571.4380, 30492.00
572.6110, 30289.00
573.7840, 30458.00
574.9570, 30257.00
576.1290, 30194.00
577.3020, 30442.00
578.4740, 30023.00
579.6460, 30020.00
580.8180, 30153.00
581.9900, 30186.00
583.1620, 30165.00
584.3330, 30200.89
585.5040, 30116.00
586.6760, 30187.00
587.8470, 30119.00
589.0180, 30151.00
590.1880, 30050.00
591.3590, 30179.00
592.5290, 30349.00
593.7000, 30289.00
594.8700, 30298.00
596.0400, 30282.00
597.2090, 30611.00
598.3790, 30235.00
599.5490, 30338.00
600.7180, 30609.00
601.8870, 30418.00
603.0560, 30597.00
604.2250, 30432.00
605.3940, 30539.10
606.5620, 30813.00
607.7300, 30746.00
608.8990, 30855.00
610.0670, 31000.00
611.2350, 30730.00
612.4020, 30694.00
613.5700, 30896.00
614.7370, 30844.00
615.9050, 31026.00
617.0720, 30601.00
618.2390, 30618.00
619.4060, 30843.00
620.5720, 30890.00
621.7390, 31017.00
622.9050, 31165.00
624.0710, 31102.00
625.2370, 31233.00
626.4030, 31407.00
627.5690, 31069.00
628.7340, 31312.00
629.9000, 31259.00
631.0650, 31535.00
632.2300, 31520.00
633.3950, 31698.00
634.5600, 31465.00
635.7240, 31650.00
636.8890, 31302.00
638.0530, 31309.00
639.2170, 31365.00
640.3810, 31591.00
641.5450, 31571.00
642.7080, 31766.00
643.8720, 31454.00
645.0350, 31562.00
646.1980, 31400.00
647.3610, 31730.00
648.5240, 31855.00
649.6870, 31848.00
650.8490, 31785.00
652.0120, 31750.00
653.1740, 31674.00
654.3360, 31805.00
655.4980, 31688.00
656.6600, 31670.00
657.8210, 31905.00
658.9830, 31997.00
660.1440, 32001.00
661.3050, 32286.00
662.4660, 32270.00
663.6270, 32135.00
664.7870, 32062.00
665.9480, 32320.00
667.1080, 32190.00
668.2680, 32259.00
669.4280, 32177.00
670.5880, 32340.00
671.7480, 32034.00
672.9070, 32297.00
674.0670, 32247.00
675.2260, 32348.00
676.3850, 32360.00
677.5440, 32118.00
678.7030, 32383.00
679.8610, 32040.00
681.0200, 32241.00
682.1780, 32423.00
683.3360, 32414.00
684.4940, 32453.00
685.6520, 32605.00
686.8090, 32619.89
687.9670, 32662.00
689.1240, 32769.00
690.2810, 32679.00
691.4380, 32761.00
692.5950, 32614.00
693.7520, 32627.00
694.9080, 33053.00
696.0650, 32607.00
697.2210, 32822.00
698.3770, 33070.00
699.5330, 33019.00
700.6880, 32878.00
701.8440, 33019.00
702.9990, 32983.00
704.1550, 33136.00
705.3100, 33008.00
706.4650, 33214.00
707.6190, 33315.00
708.7740, 33377.00
709.9290, 33351.00
711.0830, 33584.00
712.2370, 33649.00
713.3910, 33591.00
714.5450, 33973.00
715.6980, 34276.00
716.8520, 34058.00
718.0050, 34033.00
719.1580, 33906.00
720.3110, 33999.00
721.4640, 34254.00
722.6170, 34045.00
723.7700, 34114.00
724.9220, 33951.00
726.0740, 33762.00
727.2260, 33811.00
728.3780, 33741.00
729.5300, 33960.00
730.6810, 33870.00
731.8330, 34078.00
732.9840, 33886.00
734.1350, 33786.00
735.2860, 33942.00
736.4370, 33951.00
737.5880, 34013.00
738.7380, 34091.00
739.8880, 34081.87
741.0390, 34048.00
742.1890, 34106.00
743.3380, 34060.00
744.4880, 34096.00
745.6380, 34257.00
746.7870, 34105.00
747.9360, 34222.00
749.0850, 34281.00
750.2340, 34244.00
751.3830, 34268.00
752.5310, 34337.00
753.6800, 34333.94
754.8280, 34348.00
755.9760, 34364.00
757.1240, 34540.00
758.2720, 34501.00
759.4190, 34776.00
760.5670, 34519.00
761.7140, 34368.00
762.8610, 34601.00
764.0080, 34545.00
765.1550, 34603.00
766.3020, 34602.00
767.4480, 34619.00
768.5950, 34651.00
769.7410, 34782.00
770.8870, 34914.00
772.0330, 34988.00
773.1780, 34872.00
774.3240, 35144.00
775.4690, 34927.00
776.6140, 34851.00
777.7590, 34922.00
778.9040, 35107.00
780.0490, 35322.00
781.1940, 35241.00
782.3380, 35371.00
783.4820, 35306.00
784.6260, 35457.00
785.7700, 35342.00
786.9140, 35437.00
788.0580, 35239.00
789.2010, 35286.00
790.3450, 35379.00
791.4880, 35678.00
792.6310, 35591.00
793.7730, 35714.00
794.9160, 35680.00
796.0590, 35605.00
797.2010, 35728.00
798.3430, 35954.00
799.4850, 35608.00
800.6270, 36052.00
801.7690, 35939.00
802.9100, 36000.00
804.0520, 36083.00
805.1930, 36062.00
806.3340, 36215.00
807.4750, 36146.00
808.6160, 36118.00
809.7560, 36175.00
810.8970, 36174.80
812.0370, 36447.00
813.1770, 36231.00
814.3170, 36541.00
815.4570, 36504.00
816.5960, 36572.00
817.7360, 36420.00
818.8750, 36570.00
820.0140, 36712.00
821.1530, 36635.00
822.2920, 36640.00
823.4310, 36871.00
824.5690, 36956.00
825.7070, 36855.00
826.8460, 36828.00
827.9840, 36769.00
829.1220, 36775.00
830.2590, 36928.00
831.3970, 37244.00
832.5340, 37426.00
833.6710, 37109.00
834.8080, 37250.00
835.9450, 37112.00
837.0820, 37245.00
838.2190, 37237.00
839.3550, 37043.00
840.4910, 37102.00
841.6270, 37116.00
842.7630, 37051.00
843.8990, 37082.00
845.0350, 37475.00
846.1700, 37364.00
847.3060, 36916.00
848.4410, 37451.00
849.5760, 37265.00
850.7100, 37289.00
851.8450, 37289.00
852.9800, 37387.00
854.1140, 37371.00
855.2480, 37812.00
856.3820, 37734.00
857.5160, 37673.00
858.6500, 37877.00
859.7830, 37723.00
860.9170, 37542.00
862.0500, 37479.00
863.1830, 37498.00
864.3160, 37902.00
865.4480, 37699.00
866.5810, 37869.00
867.7130, 38026.00
868.8460, 37943.00
869.9780, 38036.00
871.1100, 38186.00
872.2410, 37932.00
873.3730, 38293.00
874.5050, 38173.00
875.6360, 38070.00
876.7670, 37981.00
877.8980, 38034.00
879.0290, 38073.58
880.1590, 38129.68
881.2900, 38326.00
882.4200, 38304.00
883.5500, 38475.00
884.6800, 38518.00
885.8100, 38813.00
886.9400, 38661.00
888.0690, 38768.00
889.1990, 39077.00
890.3280, 39057.00
891.4570, 38871.00
892.5860, 39265.00
893.7140, 39102.00
894.8430, 39199.00
895.9710, 39311.00
897.1000, 39534.00
898.2280, 39640.00
899.3560, 39809.39
900.4830, 39920.00
901.6110, 40142.00
902.7380, 40357.00
903.8660, 40571.00
904.9930, 41052.00
906.1200, 40837.00
907.2460, 41650.00
908.3730, 42077.00
909.5000, 42958.00
910.6260, 43761.00
911.7520, 44910.00
912.8780, 46753.00
914.0040, 49009.00
915.1290, 51436.00
916.2550, 54724.00
917.3800, 57500.00
918.5050, 60176.00
919.6300, 61801.00
920.7550, 61917.00
921.8800, 59898.00
923.0040, 57124.00
924.1290, 54260.00
925.2530, 51662.00
926.3770, 49575.00
927.5010, 48015.00
928.6250, 46932.00
929.7480, 46292.00
930.8720, 45479.00
931.9950, 44805.00
933.1180, 44020.00
934.2410, 43662.00
935.3640, 43299.00
936.4860, 43336.00
937.6090, 43104.00
938.7310, 43115.00
939.8530, 43126.00
940.9750, 43557.00
942.0970, 43688.00
943.2180, 44285.00
944.3400, 44781.00
945.4610, 45744.00
946.5820, 46742.00
947.7030, 47898.00
948.8240, 48628.00
949.9450, 49616.00
951.0650, 50027.00
952.1860, 49902.00
953.3060, 49532.00
954.4260, 48245.00
955.5460, 47083.00
956.6650, 45972.00
957.7850, 45065.00
958.9040, 44041.00
960.0230, 43539.00
961.1420, 43321.00
962.2610, 42649.00
963.3800, 42362.00
964.4990, 42225.00
965.6170, 42004.00
966.7350, 41854.00
967.8530, 41868.00
968.9710, 41829.00
970.0890, 41921.00
971.2070, 41637.00
972.3240, 41632.00
973.4410, 41881.00
974.5580, 41694.00
975.6750, 41911.00
976.7920, 41920.00
977.9090, 41694.00
979.0250, 41720.00
980.1410, 41749.00
981.2580, 41751.00
982.3740, 41965.00
983.4890, 41750.00
984.6050, 41996.00
985.7200, 41733.00
986.8360, 42174.00
987.9510, 41869.00
989.0660, 42112.00
990.1810, 41741.00
991.2950, 42056.00
992.4100, 42161.00
993.5240, 42280.00
994.6390, 42305.00
995.7530, 42477.00
996.8660, 42311.00
997.9800, 42070.00
999.0940, 42310.00
1000.207, 42547.00
1001.320, 42807.00
1002.433, 42957.00
1003.546, 42715.00
1004.659, 42882.00
1005.772, 43126.00
1006.884, 42769.00
1007.996, 43065.00
1009.108, 43270.00
1010.220, 43458.00
1011.332, 43740.00
1012.444, 43820.00
1013.555, 44396.00
1014.666, 44072.00
1015.777, 44830.00
1016.888, 45025.00
1017.999, 45400.00
1019.110, 45851.00
1020.220, 45957.00
1021.331, 46288.00
1022.441, 45593.00
1023.551, 45393.00
1024.661, 45046.00
1025.770, 44925.00
1026.880, 44486.00
1027.989, 44501.00
1029.098, 44298.00
1030.207, 44144.00
1031.316, 44077.00
1032.425, 44019.00
1033.533, 43903.00
1034.642, 43867.00
1035.750, 43834.35
1036.858, 43801.55
1037.966, 43864.00
1039.073, 43865.00
1040.181, 43995.00
1041.288, 44193.00
1042.396, 44189.73
1043.503, 44052.00
1044.610, 44283.00
1045.716, 44371.00
1046.823, 44415.00
1047.929, 44192.00
1049.036, 44398.00
1050.142, 44379.00
1051.248, 44409.00
1052.353, 44874.00
1053.459, 44577.00
1054.564, 45242.00
1055.670, 45354.00
1056.775, 45465.00
1057.880, 45741.00
1058.985, 46203.00
1060.089, 46715.00
1061.194, 47023.00
1062.298, 48209.00
1063.402, 48981.00
1064.506, 49641.00
1065.610, 49880.00
1066.713, 49881.73
1067.817, 49568.00
1068.920, 49100.00
1070.023, 48344.00
1071.126, 47415.00
1072.229, 47130.00
1073.332, 46584.00
1074.435, 46228.00
1075.537, 46080.00
1076.639, 45873.00
1077.741, 45634.00
1078.843, 45572.00
1079.945, 45715.00
1081.046, 45338.00
1082.148, 45529.00
1083.249, 45409.00
1084.350, 45284.00
1085.451, 45612.00
1086.551, 45642.00
1087.652, 45497.00
1088.752, 45471.00
1089.853, 45540.00
1090.953, 45652.00
1092.053, 45667.00
1093.152, 45451.00
1094.252, 45652.00
1095.351, 45884.00
1096.451, 45786.00
1097.550, 46054.00
1098.649, 45929.00
1099.748, 46039.02
1100.846, 46027.00
1101.945, 46180.00
1103.043, 46293.00
1104.141, 46384.00
1105.239, 46695.00
1106.337, 46710.00
1107.434, 46741.00
1108.532, 47171.00
1109.629, 46916.00
1110.726, 47331.00
1111.823, 47380.00
1112.920, 47581.00
1114.017, 47130.00
1115.113, 47131.00
1116.210, 47053.00
1117.306, 47134.00
1118.402, 46981.00
1119.498, 47059.00
1120.593, 46727.00
1121.689, 46955.00
1122.784, 46947.00
1123.879, 46829.00
1124.974, 46917.00
1126.069, 46866.78
1127.164, 46943.00
1128.259, 46861.00
1129.353, 46882.09
1130.447, 46887.14
1131.541, 46882.00
1132.635, 46921.00
1133.729, 46934.00
1134.822, 47018.00
1135.916, 46927.00
1137.009, 47125.00
1138.102, 47328.00
1139.195, 47380.00
1140.288, 47287.00
1141.380, 46926.00
1142.473, 47562.00
1143.565, 47795.00
1144.657, 47338.00
1145.749, 47298.00
1146.841, 47397.00
1147.932, 47323.00
1149.024, 47571.00
1150.115, 47590.00
1151.206, 47534.00
1152.297, 47525.00
1153.388, 47521.91
1154.479, 47577.72
1155.569, 47599.00
1156.659, 47682.00
1157.750, 47910.00
1158.839, 47847.00
1159.929, 47976.00
1161.019, 47785.00
1162.108, 47918.00
1163.198, 47909.00
1164.287, 48165.00
1165.376, 47858.00
1166.465, 48315.00
1167.553, 48344.00
1168.642, 48150.00
1169.730, 48287.00
1170.818, 48231.00
1171.906, 48091.00
1172.994, 48580.00
1174.082, 48385.00
1175.170, 48501.00
1176.257, 48445.00
1177.344, 48453.36
1178.431, 48553.00
1179.518, 48531.00
1180.605, 48580.35
1181.691, 48609.59
1182.778, 48682.00
1183.864, 48665.00
1184.950, 48808.00
1186.036, 48872.00
1187.122, 48927.00
1188.207, 48759.00
1189.292, 48751.00
1190.378, 49026.00
1191.463, 49062.00
1192.548, 49260.00
1193.632, 49263.00
1194.717, 49195.00
1195.801, 49187.00
1196.886, 49221.59
1197.970, 49327.00
1199.054, 49313.00
1200.137, 49400.62
1201.221, 49448.00
1202.305, 49466.00
1203.388, 49582.00
1204.471, 49582.00
1205.554, 49610.00
1206.637, 49241.00
1207.719, 49679.00
1208.802, 49507.00
1209.884, 49875.00
1210.966, 50048.00
1212.048, 49860.00
1213.130, 49891.00
1214.212, 49490.00
1215.293, 50105.00
1216.374, 49952.00
1217.456, 50209.00
1218.536, 49973.00
1219.617, 50231.00
1220.698, 50332.00
1221.778, 50345.00
1222.859, 50536.00
1223.939, 50410.00
1225.019, 50413.00
1226.099, 50356.00
1227.178, 50558.00
1228.258, 50494.00
1229.337, 50567.00
1230.417, 50371.00
1231.496, 50376.00
1232.574, 50401.00
1233.653, 50390.00
1234.732, 50692.00
1235.810, 50631.00
1236.888, 50619.00
1237.966, 50946.00
1239.044, 50886.00
1240.122, 50876.00
1241.199, 50668.00
1242.277, 51171.00
1243.354, 50984.00
1244.431, 51235.00
1245.508, 51070.00
1246.585, 51484.00
1247.661, 51236.00
1248.738, 51091.00
1249.814, 51227.00
1250.890, 51496.00
1251.966, 51082.00
1253.042, 51619.00
1254.117, 51224.00
1255.193, 51515.00
1256.268, 51597.00
1257.343, 51667.00
1258.418, 51763.78
1259.493, 51807.00
1260.567, 51859.00
1261.642, 51619.00
1262.716, 51743.00
1263.790, 51618.00
1264.864, 51828.00
1265.938, 51865.00
1267.011, 51997.00
1268.085, 51981.00
1269.158, 51815.00
1270.231, 51947.82
1271.304, 51826.00
1272.377, 52067.00
1273.450, 52088.00
1274.522, 52200.00
1275.594, 52233.00
1276.666, 52348.00
1277.738, 52592.00
1278.810, 52490.00
1279.882, 52318.00
1280.953, 52643.00
1282.025, 52483.00
1283.096, 52586.00
1284.167, 52616.25
1285.238, 52680.00
1286.308, 52679.00
1287.379, 52627.00
1288.449, 52832.00
1289.519, 52736.00
1290.589, 52630.00
1291.659, 52791.00
1292.729, 53024.00
1293.798, 53226.00
1294.868, 53015.00
1295.937, 53299.00
1297.006, 53257.00
1298.075, 53121.00
1299.143, 53278.00
1300.212, 53278.00
1301.280, 53115.00
1302.348, 53294.00
1303.416, 53372.00
1304.484, 53275.00
1305.552, 53137.00
1306.620, 53613.00
1307.687, 53481.00
1308.754, 53669.00
1309.821, 53364.00
1310.888, 53505.00
1311.955, 53469.00
1313.021, 53760.00
1314.088, 53910.00
1315.154, 53825.00
1316.220, 53721.00
1317.286, 53736.00
1318.352, 53946.00
1319.417, 53769.00
1320.483, 53936.00
1321.548, 53791.00
1322.613, 54137.00
1323.678, 53881.00
1324.743, 54394.00
1325.807, 54108.00
1326.872, 54059.00
1327.936, 54163.00
1329.000, 54741.00
1330.064, 54443.00
1331.128, 54294.00
1332.191, 54875.00
1333.255, 54442.00
1334.318, 54551.00
1335.381, 54249.00
1336.444, 54252.75
1337.507, 54297.05
1338.569, 54350.00
1339.632, 54483.00
1340.694, 54668.00
1341.756, 54894.00
1342.818, 54665.00
1343.880, 54836.00
1344.941, 54799.00
1346.003, 55229.00
1347.064, 55193.99
1348.125, 54886.00
1349.186, 55200.00
1350.247, 54979.00
1351.308, 54676.00
1352.368, 55315.00
1353.428, 55099.00
1354.489, 55373.00
1355.549, 55497.00
1356.608, 55434.00
1357.668, 55424.00
1358.727, 55177.00
1359.787, 55401.00
1360.846, 55422.00
1361.905, 55488.00
1362.964, 55672.00
1364.022, 55550.00
1365.081, 55888.00
1366.139, 55587.00
1367.197, 55653.00
1368.255, 56050.00
1369.313, 55775.00
1370.371, 55689.00
1371.428, 55981.00
1372.486, 55842.00
1373.543, 56090.00
1374.600, 56153.00
1375.657, 56102.00
1376.713, 55992.00
1377.770, 56214.00
1378.826, 56025.00
1379.882, 55936.00
1380.938, 56319.00
1381.994, 56331.00
1383.050, 56339.00
1384.106, 56266.00
1385.161, 56414.00
1386.216, 56468.00
1387.271, 56334.00
1388.326, 56486.00
1389.381, 56450.00
1390.435, 56730.00
1391.490, 56539.00
1392.544, 56580.00
1393.598, 56781.00
1394.652, 56847.00
1395.705, 56987.00
1396.759, 56934.00
1397.812, 56559.00
1398.866, 56925.00
1399.919, 56850.00
1400.972, 57104.00
1402.024, 57196.00
1403.077, 56918.00
1404.129, 57026.00
1405.181, 57084.00
1406.233, 57222.00
1407.285, 57207.00
1408.337, 56933.00
1409.389, 56984.00
1410.440, 57176.00
1411.491, 57143.00
1412.542, 57377.00
1413.593, 57346.00
1414.644, 57662.00
1415.695, 57485.00
1416.745, 57511.00
1417.795, 57431.00
1418.845, 57669.00
1419.895, 57736.00
1420.945, 57717.00
1421.995, 57829.93
1423.044, 57859.00
1424.093, 57826.00
1425.142, 57840.00
1426.191, 57700.00
1427.240, 57683.30
1428.289, 57862.00
1429.337, 57632.00
1430.385, 57932.00
1431.433, 58092.00
1432.481, 57970.00
1433.529, 58144.00
1434.577, 58143.75
1435.624, 58094.00
1436.672, 58277.00
1437.719, 58339.00
1438.766, 58562.00
1439.812, 58680.00
1440.859, 58481.00
1441.905, 58530.00
1442.952, 58846.00
1443.998, 58721.00
1445.044, 58861.00
1446.090, 58602.00
1447.135, 58527.00
1448.181, 58728.00
1449.226, 58831.00
1450.271, 59012.00
1451.316, 58680.00
1452.361, 58943.00
1453.405, 58909.00
1454.450, 59247.00
1455.494, 58948.00
1456.538, 59215.00
1457.582, 58839.00
1458.626, 59037.00
1459.670, 59041.00
1460.713, 59167.00
1461.757, 59347.00
1462.800, 59341.00
1463.843, 59425.60
1464.886, 59576.00
1465.928, 59503.00
1466.971, 59425.00
1468.013, 59528.00
1469.055, 59500.00
1470.097, 59662.00
1471.139, 59766.00
1472.181, 59517.00
1473.222, 59768.00
1474.263, 59713.00
1475.305, 59918.00
1476.346, 59956.00
1477.386, 60015.00
1478.427, 60009.00
1479.468, 60067.00
1480.508, 60115.07
1481.548, 60173.00
1482.588, 60261.00
1483.628, 60276.00
1484.668, 60414.00
1485.707, 60131.00
1486.747, 60331.00
1487.786, 60412.00
1488.825, 60602.00
1489.864, 60802.00
1490.902, 60606.00
1491.941, 60688.00
1492.979, 60478.00
1494.017, 60832.00
1495.055, 60817.00
1496.093, 60773.00
1497.131, 60801.00
1498.168, 60766.22
1499.206, 60831.73
1500.243, 60805.00
1501.280, 60924.00
1502.317, 61109.00
1503.354, 61058.00
1504.390, 61168.00
1505.426, 61158.00
1506.463, 61393.00
1507.499, 61637.00
1508.535, 61335.00
1509.570, 61455.00
1510.606, 61146.00
1511.641, 61515.00
1512.676, 61578.00
1513.711, 61400.00
1514.746, 61651.00
1515.781, 61824.00
1516.816, 61515.00
1517.850, 61974.00
1518.884, 61723.00
1519.918, 62090.00
1520.952, 61633.00
1521.986, 61799.00
1523.019, 61865.00
1524.053, 62103.00
1525.086, 61984.00
1526.119, 61920.00
1527.152, 62336.00
1528.185, 62122.00
1529.217, 62184.00
1530.250, 62421.00
1531.282, 62271.00
1532.314, 62336.00
1533.346, 62595.00
1534.377, 62550.00
1535.409, 62379.00
1536.440, 62203.00
1537.472, 62558.00
1538.503, 62738.00
1539.534, 62678.00
1540.564, 62593.00
1541.595, 62692.00
1542.625, 62755.00
1543.656, 62828.00
1544.686, 62839.39
1545.716, 62798.00
1546.745, 62897.00
1547.775, 62790.00
1548.804, 62948.00
1549.834, 63323.00
1550.863, 63122.00
1551.892, 63279.00
1552.920, 63513.00
1553.949, 63218.00
1554.977, 63364.00
1556.006, 63484.00
1557.034, 63674.00
1558.062, 63518.00
1559.089, 63682.00
1560.117, 63502.00
1561.144, 63642.00
1562.172, 63659.00
1563.199, 63605.00
1564.226, 63516.00
1565.252, 63732.00
1566.279, 63570.00
1567.305, 63839.00
1568.332, 64087.00
1569.358, 64039.00
1570.384, 64640.00
##END=



