##NAMES=Andalusite
##RRUFFID=R050258
##IDEAL CHEMISTRY=Al_2_SiO_5_
##LOCALITY=Bautista Canyon, near Hemet, Riverside County, California, USA
##OWNER=RRUFF
##SOURCE=Marcus Origlieri
##DESCRIPTION=Brown fragment
##STATUS=The identification of this mineral has been confirmed by X-ray diffraction and chemical analysis
##URL=rruff.info/R050258
##MEASURED CHEMISTRY=Al_2.00_Si_1.00_O_5_
##PIN_ID=L01170
##ORIENTATION=Laser parallel to a* (1 0 0). Fiducial mark perpendicular to laser is parallel to -b [0 -1 0]
113.2080, 13868.00
114.4400, 13983.00
115.6710, 14152.00
116.9030, 14342.00
118.1340, 14415.00
119.3650, 14422.00
120.5960, 14457.00
121.8270, 14500.00
123.0580, 14676.00
124.2880, 14594.00
125.5190, 14814.00
126.7490, 14713.00
127.9790, 14849.00
129.2090, 15039.00
130.4390, 14997.00
131.6680, 15044.00
132.8980, 15193.00
134.1270, 15124.00
135.3560, 15322.00
136.5850, 15201.00
137.8140, 15458.00
139.0430, 15505.00
140.2710, 15584.00
141.5000, 15547.00
142.7280, 15642.00
143.9560, 15537.00
145.1840, 15741.00
146.4120, 15573.00
147.6390, 15636.00
148.8670, 15828.00
150.0940, 15555.00
151.3210, 15761.00
152.5490, 15739.00
153.7750, 16012.00
155.0020, 16167.00
156.2290, 16035.00
157.4550, 15921.00
158.6810, 16124.00
159.9080, 16177.00
161.1340, 16011.00
162.3590, 16233.00
163.5850, 16123.00
164.8110, 16273.00
166.0360, 16123.00
167.2610, 16442.00
168.4860, 16484.00
169.7110, 16358.00
170.9360, 16313.00
172.1610, 16570.00
173.3850, 16544.00
174.6100, 16544.00
175.8340, 16467.00
177.0580, 16513.00
178.2820, 16697.00
179.5050, 16777.00
180.7290, 16681.00
181.9520, 16823.00
183.1760, 16762.00
184.3990, 17035.00
185.6220, 16712.00
186.8450, 16994.00
188.0670, 17109.00
189.2900, 17035.00
190.5120, 17084.00
191.7340, 17113.00
192.9560, 17185.00
194.1780, 17221.00
195.4000, 17328.00
196.6220, 17259.00
197.8430, 17186.00
199.0640, 17288.00
200.2860, 17355.00
201.5070, 17530.00
202.7270, 17575.00
203.9480, 17591.00
205.1690, 17500.00
206.3890, 17338.00
207.6090, 17286.00
208.8290, 17480.00
210.0490, 17333.00
211.2690, 17404.00
212.4890, 17339.00
213.7080, 17197.00
214.9280, 17491.00
216.1470, 17401.00
217.3660, 17480.00
218.5850, 17507.00
219.8030, 17604.00
221.0220, 17556.00
222.2400, 17518.00
223.4590, 17577.00
224.6770, 17686.00
225.8950, 17750.00
227.1120, 17754.22
228.3300, 17677.00
229.5480, 17777.00
230.7650, 17818.00
231.9820, 17921.00
233.1990, 18160.00
234.4160, 18199.00
235.6330, 18377.00
236.8490, 18428.00
238.0660, 18636.00
239.2820, 18791.00
240.4980, 18885.00
241.7140, 18932.00
242.9300, 18919.00
244.1460, 19040.00
245.3610, 18875.00
246.5770, 18947.74
247.7920, 18696.00
249.0070, 18931.00
250.2220, 18672.00
251.4370, 18582.00
252.6510, 18567.00
253.8660, 18400.00
255.0800, 18568.00
256.2940, 18672.00
257.5080, 18733.00
258.7220, 18969.00
259.9360, 18981.00
261.1490, 19029.00
262.3630, 18957.00
263.5760, 18948.00
264.7890, 18978.00
266.0020, 19103.00
267.2150, 19036.00
268.4270, 19322.00
269.6400, 19278.00
270.8520, 19443.00
272.0640, 19792.00
273.2760, 20163.00
274.4880, 20440.16
275.7000, 20826.00
276.9120, 21121.00
278.1230, 21391.00
279.3340, 21738.00
280.5450, 22046.00
281.7560, 22552.00
282.9670, 23559.00
284.1780, 24759.00
285.3880, 26017.00
286.5980, 27410.00
287.8090, 29287.00
289.0190, 31159.00
290.2290, 33543.00
291.4380, 35668.00
292.6480, 35685.00
293.8570, 35232.00
295.0670, 32878.00
296.2760, 30591.00
297.4850, 28256.00
298.6930, 25838.00
299.9020, 24219.00
301.1110, 23011.00
302.3190, 22159.00
303.5270, 21669.00
304.7350, 21388.00
305.9430, 20932.00
307.1510, 20618.00
308.3580, 20432.00
309.5660, 20796.00
310.7730, 20813.00
311.9800, 21163.00
313.1870, 21676.00
314.3940, 22051.00
315.6010, 22677.00
316.8070, 23398.00
318.0130, 24332.00
319.2200, 25592.00
320.4260, 26814.00
321.6310, 27521.00
322.8370, 27319.00
324.0430, 26618.00
325.2480, 25555.00
326.4540, 24674.00
327.6590, 23806.00
328.8640, 23344.00
330.0680, 22831.00
331.2730, 22441.00
332.4780, 22448.00
333.6820, 22334.00
334.8860, 22463.00
336.0900, 22434.00
337.2940, 22123.00
338.4980, 22175.00
339.7010, 21865.00
340.9050, 22023.00
342.1080, 22013.00
343.3110, 22105.00
344.5140, 22016.00
345.7170, 22021.00
346.9200, 22368.00
348.1220, 22486.00
349.3240, 22840.00
350.5270, 23490.00
351.7290, 23900.00
352.9310, 24769.00
354.1320, 25590.00
355.3340, 26691.00
356.5350, 27763.00
357.7370, 29015.00
358.9380, 29296.00
360.1390, 29231.00
361.3400, 28591.00
362.5400, 27676.00
363.7410, 26407.00
364.9410, 25589.00
366.1410, 24473.00
367.3410, 23736.00
368.5410, 23318.00
369.7410, 22723.00
370.9400, 22468.00
372.1400, 22374.00
373.3390, 22124.00
374.5380, 21774.00
375.7370, 21596.00
376.9360, 21510.00
378.1350, 21634.00
379.3330, 21419.00
380.5310, 21542.00
381.7300, 21666.00
382.9280, 21416.00
384.1260, 21546.00
385.3230, 21558.00
386.5210, 21512.00
387.7180, 21384.00
388.9160, 21603.00
390.1130, 21566.00
391.3100, 21478.00
392.5060, 21583.00
393.7030, 21450.00
394.9000, 21540.00
396.0960, 21618.00
397.2920, 21587.00
398.4880, 21534.00
399.6840, 21536.00
400.8800, 21438.00
402.0750, 21758.00
403.2710, 21622.00
404.4660, 21637.00
405.6610, 21798.00
406.8560, 21606.00
408.0510, 21783.00
409.2450, 21793.00
410.4400, 21856.00
411.6340, 21972.00
412.8280, 21945.00
414.0220, 21875.00
415.2160, 21866.00
416.4100, 22038.00
417.6030, 22181.00
418.7970, 22180.00
419.9900, 22101.00
421.1830, 22022.00
422.3760, 22014.00
423.5690, 22025.00
424.7610, 21939.00
425.9540, 21865.00
427.1460, 22082.00
428.3380, 21972.00
429.5300, 22000.00
430.7220, 22164.00
431.9140, 22064.00
433.1050, 22148.00
434.2970, 22184.00
435.4880, 22161.00
436.6790, 22087.00
437.8700, 22318.00
439.0610, 22076.00
440.2510, 22270.00
441.4420, 22190.00
442.6320, 22241.00
443.8220, 22492.00
445.0120, 22502.00
446.2020, 22552.00
447.3910, 22627.00
448.5810, 22724.00
449.7700, 22749.00
450.9600, 23025.00
452.1490, 23240.00
453.3370, 23160.00
454.5260, 23071.00
455.7150, 22908.00
456.9030, 22959.00
458.0910, 22849.00
459.2800, 22698.00
460.4670, 22828.00
461.6550, 22706.00
462.8430, 22614.00
464.0300, 22645.00
465.2180, 22970.00
466.4050, 22920.00
467.5920, 22942.00
468.7790, 22780.00
469.9650, 23104.00
471.1520, 23182.00
472.3380, 23087.00
473.5250, 23220.00
474.7110, 23241.00
475.8970, 23318.00
477.0820, 23284.00
478.2680, 23463.00
479.4540, 23342.00
480.6390, 23273.00
481.8240, 23292.00
483.0090, 23392.00
484.1940, 23327.00
485.3780, 23607.00
486.5630, 23473.00
487.7470, 23335.00
488.9320, 23560.00
490.1160, 23586.00
491.3000, 23359.00
492.4830, 23392.00
493.6670, 23601.00
494.8500, 23518.00
496.0340, 23523.00
497.2170, 23413.00
498.4000, 23621.00
499.5820, 23376.00
500.7650, 23545.00
501.9480, 23741.00
503.1300, 23693.00
504.3120, 23773.00
505.4940, 23847.00
506.6760, 23656.00
507.8580, 23778.00
509.0390, 23689.00
510.2210, 23789.00
511.4020, 23818.00
512.5830, 23901.00
513.7640, 23864.00
514.9450, 23787.00
516.1250, 24199.00
517.3060, 23881.00
518.4860, 24144.00
519.6660, 24151.00
520.8460, 24066.00
522.0260, 24374.00
523.2060, 24165.00
524.3850, 24479.00
525.5650, 24151.00
526.7440, 24320.00
527.9230, 24209.00
529.1020, 24387.00
530.2810, 24369.00
531.4590, 24453.00
532.6380, 24247.00
533.8160, 24345.00
534.9940, 24423.00
536.1720, 24644.00
537.3500, 24643.00
538.5270, 24798.00
539.7050, 24845.00
540.8820, 24941.00
542.0590, 24954.00
543.2360, 25273.00
544.4130, 25666.00
545.5900, 25946.00
546.7660, 26393.00
547.9430, 26877.00
549.1190, 27072.00
550.2950, 27006.00
551.4710, 27075.00
552.6470, 26961.00
553.8220, 26876.00
554.9980, 26677.00
556.1730, 26165.00
557.3480, 26242.00
558.5230, 25784.00
559.6980, 25784.00
560.8730, 25834.00
562.0470, 25626.00
563.2220, 25669.00
564.3960, 25580.00
565.5700, 25604.00
566.7440, 25764.00
567.9170, 25755.00
569.0910, 25863.00
570.2640, 26054.00
571.4380, 26191.00
572.6110, 26158.00
573.7840, 25997.00
574.9570, 26149.00
576.1290, 26205.00
577.3020, 25836.00
578.4740, 25689.00
579.6460, 25747.00
580.8180, 25759.00
581.9900, 25685.00
583.1620, 25658.00
584.3330, 25774.00
585.5040, 25720.00
586.6760, 25628.00
587.8470, 25962.00
589.0180, 25899.00
590.1880, 25984.00
591.3590, 25835.00
592.5290, 25978.00
593.7000, 26263.00
594.8700, 26013.00
596.0400, 26157.00
597.2090, 26192.00
598.3790, 26240.00
599.5490, 26158.00
600.7180, 26381.00
601.8870, 26460.00
603.0560, 26781.00
604.2250, 26552.00
605.3940, 26488.00
606.5620, 26719.00
607.7300, 26620.00
608.8990, 26728.00
610.0670, 26659.00
611.2350, 26498.00
612.4020, 26434.00
613.5700, 26441.00
614.7370, 26656.00
615.9050, 26542.00
617.0720, 26380.00
618.2390, 26664.00
619.4060, 26623.00
620.5720, 26657.00
621.7390, 26547.00
622.9050, 26729.00
624.0710, 26744.00
625.2370, 26541.00
626.4030, 26635.00
627.5690, 27030.00
628.7340, 26874.00
629.9000, 27124.00
631.0650, 26994.00
632.2300, 27174.00
633.3950, 27103.00
634.5600, 26970.00
635.7240, 27126.00
636.8890, 27001.00
638.0530, 26972.00
639.2170, 27070.00
640.3810, 27089.00
641.5450, 27083.54
642.7080, 27083.00
643.8720, 27105.00
645.0350, 27064.00
646.1980, 27141.00
647.3610, 27217.00
648.5240, 26963.00
649.6870, 27367.00
650.8490, 27180.00
652.0120, 27355.00
653.1740, 27343.00
654.3360, 27242.00
655.4980, 27234.00
656.6600, 27301.91
657.8210, 27588.00
658.9830, 27522.00
660.1440, 27562.00
661.3050, 27736.00
662.4660, 27576.00
663.6270, 27775.00
664.7870, 27679.00
665.9480, 27743.00
667.1080, 27739.00
668.2680, 27577.00
669.4280, 27809.00
670.5880, 27799.00
671.7480, 27791.00
672.9070, 27599.00
674.0670, 27652.00
675.2260, 27971.00
676.3850, 27688.00
677.5440, 28010.00
678.7030, 27974.00
679.8610, 27951.00
681.0200, 28119.00
682.1780, 27918.00
683.3360, 27999.00
684.4940, 28079.00
685.6520, 28144.00
686.8090, 28240.67
687.9670, 28271.83
689.1240, 28399.00
690.2810, 28263.00
691.4380, 28264.00
692.5950, 28094.00
693.7520, 28366.00
694.9080, 28389.00
696.0650, 28345.00
697.2210, 28482.00
698.3770, 28365.00
699.5330, 28417.00
700.6880, 28373.00
701.8440, 28580.00
702.9990, 28676.00
704.1550, 28708.00
705.3100, 28616.00
706.4650, 28905.00
707.6190, 28837.00
708.7740, 28924.00
709.9290, 28982.00
711.0830, 29104.00
712.2370, 29095.00
713.3910, 29295.00
714.5450, 29174.00
715.6980, 29470.00
716.8520, 29555.00
718.0050, 29867.00
719.1580, 29891.00
720.3110, 29839.00
721.4640, 29775.00
722.6170, 29900.00
723.7700, 29614.00
724.9220, 29426.00
726.0740, 29498.00
727.2260, 29332.00
728.3780, 29260.00
729.5300, 29377.00
730.6810, 29291.00
731.8330, 29419.00
732.9840, 29407.00
734.1350, 29428.00
735.2860, 29445.00
736.4370, 29342.00
737.5880, 29349.00
738.7380, 29668.00
739.8880, 29469.00
741.0390, 29544.00
742.1890, 29583.00
743.3380, 29425.00
744.4880, 29794.00
745.6380, 29659.00
746.7870, 29745.00
747.9360, 29699.00
749.0850, 29871.00
750.2340, 29739.00
751.3830, 29845.00
752.5310, 29959.00
753.6800, 30019.00
754.8280, 30138.00
755.9760, 29832.00
757.1240, 30212.00
758.2720, 29904.00
759.4190, 29902.00
760.5670, 29951.00
761.7140, 30101.00
762.8610, 29967.00
764.0080, 30097.00
765.1550, 30111.00
766.3020, 30363.00
767.4480, 30322.00
768.5950, 30264.00
769.7410, 30247.00
770.8870, 30302.31
772.0330, 30465.00
773.1780, 30491.00
774.3240, 30543.00
775.4690, 30700.00
776.6140, 30604.00
777.7590, 30675.00
778.9040, 30784.00
780.0490, 30637.00
781.1940, 30644.00
782.3380, 30664.00
783.4820, 30756.00
784.6260, 30847.00
785.7700, 30812.00
786.9140, 30846.00
788.0580, 30679.00
789.2010, 30868.00
790.3450, 31074.00
791.4880, 30976.00
792.6310, 31120.00
793.7730, 31141.00
794.9160, 31167.00
796.0590, 31161.00
797.2010, 31219.00
798.3430, 31138.00
799.4850, 31213.67
800.6270, 31368.00
801.7690, 31337.00
802.9100, 31338.00
804.0520, 31455.00
805.1930, 31432.00
806.3340, 31390.00
807.4750, 31592.00
808.6160, 31496.00
809.7560, 31529.00
810.8970, 31737.00
812.0370, 31647.00
813.1770, 31637.00
814.3170, 31831.00
815.4570, 31574.00
816.5960, 32062.00
817.7360, 32064.00
818.8750, 31972.00
820.0140, 31956.00
821.1530, 31951.00
822.2920, 31936.00
823.4310, 31974.04
824.5690, 32260.00
825.7070, 32093.00
826.8460, 32242.00
827.9840, 32379.00
829.1220, 32074.00
830.2590, 32346.00
831.3970, 32230.00
832.5340, 32420.00
833.6710, 32476.00
834.8080, 32622.00
835.9450, 32341.00
837.0820, 32511.00
838.2190, 32437.00
839.3550, 32544.00
840.4910, 32682.00
841.6270, 32569.00
842.7630, 32715.00
843.8990, 32521.00
845.0350, 32650.00
846.1700, 32489.00
847.3060, 32498.00
848.4410, 32718.00
849.5760, 32539.00
850.7100, 32770.00
851.8450, 32702.00
852.9800, 32747.00
854.1140, 32766.00
855.2480, 32895.00
856.3820, 33151.00
857.5160, 33079.00
858.6500, 32888.00
859.7830, 32983.00
860.9170, 33278.00
862.0500, 32999.00
863.1830, 33431.00
864.3160, 33286.00
865.4480, 33210.00
866.5810, 33395.00
867.7130, 33430.00
868.8460, 33282.00
869.9780, 33113.00
871.1100, 33434.00
872.2410, 33281.00
873.3730, 33469.00
874.5050, 33670.00
875.6360, 33536.00
876.7670, 33631.00
877.8980, 33705.00
879.0290, 33666.00
880.1590, 33462.00
881.2900, 33884.00
882.4200, 33656.00
883.5500, 33807.00
884.6800, 33969.00
885.8100, 33909.00
886.9400, 34012.00
888.0690, 34207.00
889.1990, 34272.00
890.3280, 34351.87
891.4570, 34445.00
892.5860, 34404.00
893.7140, 34586.00
894.8430, 34530.00
895.9710, 34628.00
897.1000, 34661.00
898.2280, 34810.00
899.3560, 34981.00
900.4830, 34888.00
901.6110, 35113.00
902.7380, 35340.00
903.8660, 35717.00
904.9930, 35844.00
906.1200, 36221.00
907.2460, 36398.00
908.3730, 36759.00
909.5000, 37079.00
910.6260, 37993.00
911.7520, 38867.00
912.8780, 39985.00
914.0040, 41521.00
915.1290, 43668.00
916.2550, 45852.00
917.3800, 47990.00
918.5050, 50289.00
919.6300, 51420.00
920.7550, 51170.00
921.8800, 50108.00
923.0040, 48098.00
924.1290, 45346.00
925.2530, 43564.00
926.3770, 41816.00
927.5010, 41011.00
928.6250, 40084.00
929.7480, 39747.00
930.8720, 39049.00
931.9950, 38694.00
933.1180, 38241.00
934.2410, 38225.00
935.3640, 37966.00
936.4860, 37858.00
937.6090, 37585.00
938.7310, 38039.00
939.8530, 38396.00
940.9750, 38490.00
942.0970, 38864.00
943.2180, 39424.00
944.3400, 40446.00
945.4610, 41031.00
946.5820, 42048.00
947.7030, 43317.00
948.8240, 44140.00
949.9450, 44674.00
951.0650, 45117.00
952.1860, 45097.00
953.3060, 44444.00
954.4260, 43532.00
955.5460, 42018.00
956.6650, 41231.00
957.7850, 40439.00
958.9040, 39341.00
960.0230, 38733.00
961.1420, 38314.00
962.2610, 38195.00
963.3800, 37854.00
964.4990, 37735.00
965.6170, 37426.00
966.7350, 37300.00
967.8530, 37256.00
968.9710, 37252.00
970.0890, 37369.00
971.2070, 36914.00
972.3240, 37191.00
973.4410, 37043.00
974.5580, 36992.00
975.6750, 37137.00
976.7920, 37045.00
977.9090, 37332.00
979.0250, 37220.00
980.1410, 37080.00
981.2580, 37240.00
982.3740, 37147.00
983.4890, 37196.00
984.6050, 37063.00
985.7200, 37201.00
986.8360, 37141.00
987.9510, 37426.00
989.0660, 37645.00
990.1810, 37493.00
991.2950, 37688.00
992.4100, 37467.00
993.5240, 37616.00
994.6390, 37636.00
995.7530, 37760.00
996.8660, 37877.00
997.9800, 37912.36
999.0940, 37976.47
1000.207, 38028.00
1001.320, 38018.00
1002.433, 38077.00
1003.546, 38083.00
1004.659, 38193.09
1005.772, 38270.07
1006.884, 38434.00
1007.996, 38559.00
1009.108, 38682.00
1010.220, 38989.00
1011.332, 39228.00
1012.444, 39405.00
1013.555, 39960.00
1014.666, 40394.00
1015.777, 40869.00
1016.888, 41666.00
1017.999, 42110.00
1019.110, 42528.00
1020.220, 42409.00
1021.331, 42746.00
1022.441, 41819.00
1023.551, 41855.00
1024.661, 41236.00
1025.770, 40349.00
1026.880, 40516.00
1027.989, 40201.00
1029.098, 39824.00
1030.207, 39757.00
1031.316, 39746.00
1032.425, 39595.00
1033.533, 39348.00
1034.642, 39395.00
1035.750, 39146.00
1036.858, 39134.00
1037.966, 39232.00
1039.073, 39274.00
1040.181, 39367.00
1041.288, 39357.00
1042.396, 39108.00
1043.503, 39331.00
1044.610, 39301.00
1045.716, 39362.00
1046.823, 39583.00
1047.929, 39344.00
1049.036, 39540.00
1050.142, 39438.00
1051.248, 39846.00
1052.353, 39945.00
1053.459, 39862.00
1054.564, 39759.00
1055.670, 40189.00
1056.775, 40208.00
1057.880, 40463.00
1058.985, 40634.00
1060.089, 41494.00
1061.194, 41707.00
1062.298, 42183.00
1063.402, 42913.00
1064.506, 43311.00
1065.610, 43876.00
1066.713, 44016.00
1067.817, 43746.00
1068.920, 43104.00
1070.023, 42587.00
1071.126, 42209.00
1072.229, 41695.00
1073.332, 41187.00
1074.435, 41021.00
1075.537, 40682.00
1076.639, 40843.00
1077.741, 40775.00
1078.843, 40575.00
1079.945, 40510.00
1081.046, 40709.00
1082.148, 40369.00
1083.249, 40658.00
1084.350, 40433.00
1085.451, 40697.00
1086.551, 40644.00
1087.652, 40399.00
1088.752, 40746.00
1089.853, 40502.00
1090.953, 40762.00
1092.053, 40791.00
1093.152, 40539.00
1094.252, 41136.00
1095.351, 41142.00
1096.451, 41063.00
1097.550, 41376.00
1098.649, 41203.00
1099.748, 41051.00
1100.846, 41441.00
1101.945, 41714.00
1103.043, 41446.00
1104.141, 42068.00
1105.239, 41943.00
1106.337, 42278.00
1107.434, 42548.00
1108.532, 42681.00
1109.629, 42692.00
1110.726, 42777.57
1111.823, 42793.12
1112.920, 42725.00
1114.017, 42711.00
1115.113, 42620.00
1116.210, 42382.00
1117.306, 42312.00
1118.402, 42310.00
1119.498, 41899.00
1120.593, 42251.00
1121.689, 42074.00
1122.784, 42226.00
1123.879, 42303.00
1124.974, 42140.00
1126.069, 41910.00
1127.164, 42016.00
1128.259, 42201.00
1129.353, 42059.00
1130.447, 42177.00
1131.541, 42264.00
1132.635, 42129.00
1133.729, 42133.00
1134.822, 42014.00
1135.916, 42150.00
1137.009, 42101.00
1138.102, 42308.00
1139.195, 42421.00
1140.288, 42238.00
1141.380, 42329.00
1142.473, 42353.00
1143.565, 42447.00
1144.657, 42534.00
1145.749, 42440.00
1146.841, 42326.00
1147.932, 42294.00
1149.024, 42755.00
1150.115, 42697.00
1151.206, 42853.00
1152.297, 42827.00
1153.388, 42848.00
1154.479, 42665.00
1155.569, 42905.00
1156.659, 42792.00
1157.750, 42972.00
1158.839, 43092.00
1159.929, 42830.00
1161.019, 42951.00
1162.108, 42939.00
1163.198, 43184.00
1164.287, 43200.78
1165.376, 43158.00
1166.465, 43292.00
1167.553, 43257.00
1168.642, 43184.00
1169.730, 43015.00
1170.818, 43387.00
1171.906, 43593.00
1172.994, 43258.00
1174.082, 43168.00
1175.170, 43528.00
1176.257, 43515.00
1177.344, 43588.00
1178.431, 43346.00
1179.518, 43279.00
1180.605, 43616.00
1181.691, 43705.00
1182.778, 43629.00
1183.864, 43736.00
1184.950, 43781.00
1186.036, 43913.00
1187.122, 43950.00
1188.207, 43979.00
1189.292, 44032.00
1190.378, 43918.00
1191.463, 44132.00
1192.548, 44013.00
1193.632, 43908.00
1194.717, 44226.00
1195.801, 44188.00
1196.886, 44194.00
1197.970, 44279.00
1199.054, 44251.94
1200.137, 44319.00
1201.221, 44228.00
1202.305, 44306.00
1203.388, 44194.00
1204.471, 44313.00
1205.554, 44336.70
1206.637, 44391.00
1207.719, 44404.00
1208.802, 44473.46
1209.884, 44635.00
1210.966, 44565.00
1212.048, 44706.00
1213.130, 44670.00
1214.212, 44733.00
1215.293, 44745.00
1216.374, 44804.00
1217.456, 44876.00
1218.536, 44892.00
1219.617, 44853.00
1220.698, 45040.00
1221.778, 45190.00
1222.859, 44959.00
1223.939, 45138.00
1225.019, 45023.00
1226.099, 45330.00
1227.178, 45120.00
1228.258, 45274.00
1229.337, 45227.00
1230.417, 45473.00
1231.496, 45362.00
1232.574, 45302.00
1233.653, 45263.00
1234.732, 45171.00
1235.810, 45305.00
1236.888, 45453.00
1237.966, 45287.00
1239.044, 45519.00
1240.122, 45648.00
1241.199, 45659.00
1242.277, 45732.00
1243.354, 45552.00
1244.431, 45671.00
1245.508, 45758.00
1246.585, 45965.00
1247.661, 45875.00
1248.738, 46001.00
1249.814, 45926.00
1250.890, 45885.00
1251.966, 46064.00
1253.042, 46116.00
1254.117, 46293.00
1255.193, 46256.00
1256.268, 46378.00
1257.343, 46360.00
1258.418, 46146.00
1259.493, 46197.00
1260.567, 46290.00
1261.642, 46398.00
1262.716, 46354.00
1263.790, 46506.00
1264.864, 46333.00
1265.938, 46608.00
1267.011, 46355.00
1268.085, 46575.00
1269.158, 46838.00
1270.231, 46613.00
1271.304, 46684.00
1272.377, 46913.00
1273.450, 46968.00
1274.522, 46757.00
1275.594, 46905.00
1276.666, 46707.00
1277.738, 46956.00
1278.810, 46929.00
1279.882, 47356.00
1280.953, 47037.00
1282.025, 47381.00
1283.096, 47199.00
1284.167, 47548.00
1285.238, 47317.00
1286.308, 47436.00
1287.379, 47384.00
1288.449, 47468.00
1289.519, 47472.43
1290.589, 47402.00
1291.659, 47478.00
1292.729, 47511.00
1293.798, 47507.00
1294.868, 47514.00
1295.937, 47584.00
1297.006, 47850.00
1298.075, 47733.00
1299.143, 47668.00
1300.212, 47659.00
1301.280, 48029.00
1302.348, 47907.00
1303.416, 47893.00
1304.484, 47827.00
1305.552, 47803.00
1306.620, 48011.00
1307.687, 48289.00
1308.754, 48075.00
1309.821, 48121.00
1310.888, 48369.00
1311.955, 47871.00
1313.021, 48378.00
1314.088, 48375.00
1315.154, 48366.00
1316.220, 48712.00
1317.286, 48421.00
1318.352, 48330.00
1319.417, 48866.00
1320.483, 48548.00
1321.548, 48319.00
1322.613, 48560.00
1323.678, 48418.00
1324.743, 48527.00
1325.807, 48783.00
1326.872, 48843.00
1327.936, 48515.00
1329.000, 48985.00
1330.064, 48847.00
1331.128, 48649.00
1332.191, 48872.00
1333.255, 48883.00
1334.318, 48985.00
1335.381, 49042.83
1336.444, 49057.54
1337.507, 49071.00
1338.569, 49161.00
1339.632, 49126.00
1340.694, 49319.00
1341.756, 49611.00
1342.818, 49369.00
1343.880, 49415.00
1344.941, 49281.00
1346.003, 49189.00
1347.064, 49493.00
1348.125, 49371.00
1349.186, 49595.00
1350.247, 49513.00
1351.308, 49450.00
1352.368, 49499.00
1353.428, 49751.00
1354.489, 49722.00
1355.549, 50009.00
1356.608, 49924.00
1357.668, 49820.00
1358.727, 50303.00
1359.787, 49737.00
1360.846, 49897.00
1361.905, 50028.00
1362.964, 49752.00
1364.022, 49899.00
1365.081, 50150.00
1366.139, 49676.00
1367.197, 49885.00
1368.255, 50171.00
1369.313, 50280.00
1370.371, 50268.00
1371.428, 50307.00
1372.486, 50362.48
1373.543, 50307.00
1374.600, 50423.00
1375.657, 50649.00
1376.713, 50642.00
1377.770, 50594.00
1378.826, 50513.00
1379.882, 50441.00
1380.938, 50565.00
1381.994, 50679.00
1383.050, 50588.00
1384.106, 50921.00
1385.161, 50771.00
1386.216, 51105.00
1387.271, 50698.00
1388.326, 50452.00
1389.381, 50870.00
1390.435, 50989.00
1391.490, 50923.00
1392.544, 50916.00
1393.598, 51122.00
1394.652, 50940.00
1395.705, 50820.00
1396.759, 51247.00
1397.812, 51208.00
1398.866, 50909.00
1399.919, 51155.00
1400.972, 51371.00
1402.024, 51235.00
1403.077, 51270.00
1404.129, 51551.00
1405.181, 51433.00
1406.233, 51446.00
1407.285, 51501.00
1408.337, 51522.00
1409.389, 51522.51
1410.440, 51586.31
1411.491, 51568.00
1412.542, 51701.00
1413.593, 51854.00
1414.644, 51950.04
1415.695, 51655.00
1416.745, 52052.00
1417.795, 51966.00
1418.845, 51868.00
1419.895, 52022.00
1420.945, 51936.00
1421.995, 52078.00
1423.044, 52057.00
1424.093, 52078.00
1425.142, 52175.00
1426.191, 52130.00
1427.240, 52292.00
1428.289, 51973.00
1429.337, 52263.00
1430.385, 52004.00
1431.433, 52328.00
1432.481, 52262.00
1433.529, 52614.00
1434.577, 52063.00
1435.624, 52455.00
1436.672, 52294.00
1437.719, 52676.00
1438.766, 52757.00
1439.812, 52721.00
1440.859, 52770.00
1441.905, 52842.00
1442.952, 52883.00
1443.998, 52841.00
1445.044, 52637.00
1446.090, 52787.00
1447.135, 53007.00
1448.181, 53269.00
1449.226, 53161.00
1450.271, 53326.00
1451.316, 53192.00
1452.361, 53099.00
1453.405, 53041.00
1454.450, 53231.00
1455.494, 53082.00
1456.538, 53363.00
1457.582, 53045.00
1458.626, 53610.00
1459.670, 53619.00
1460.713, 53750.00
1461.757, 53289.00
1462.800, 53452.00
1463.843, 53728.00
1464.886, 53657.00
1465.928, 53905.00
1466.971, 53612.00
1468.013, 53556.00
1469.055, 53645.00
1470.097, 53567.77
1471.139, 53905.00
1472.181, 53695.00
1473.222, 54019.00
1474.263, 54152.00
1475.305, 54198.00
1476.346, 54092.00
1477.386, 53812.00
1478.427, 54435.00
1479.468, 54160.00
1480.508, 54218.00
1481.548, 54436.00
1482.588, 54610.00
1483.628, 54263.00
1484.668, 54361.00
1485.707, 54375.00
1486.747, 54385.00
1487.786, 54616.00
1488.825, 54641.73
1489.864, 54765.00
1490.902, 54849.00
1491.941, 54944.00
1492.979, 55027.00
1494.017, 55013.77
1495.055, 55028.75
1496.093, 54971.00
1497.131, 54960.00
1498.168, 54967.00
1499.206, 54931.00
1500.243, 55380.00
1501.280, 55079.00
1502.317, 54971.00
1503.354, 55403.00
1504.390, 55246.00
1505.426, 55189.00
1506.463, 55074.00
1507.499, 55143.48
1508.535, 55323.00
1509.570, 55335.00
1510.606, 55530.00
1511.641, 55627.00
1512.676, 55449.00
1513.711, 55535.00
1514.746, 55776.00
1515.781, 55576.00
1516.816, 55698.00
1517.850, 55866.00
1518.884, 55819.00
1519.918, 55786.00
1520.952, 55849.00
1521.986, 56335.00
1523.019, 55918.00
1524.053, 56151.00
1525.086, 56189.00
1526.119, 56013.00
1527.152, 56089.00
1528.185, 56111.00
1529.217, 56231.00
1530.250, 56038.00
1531.282, 56368.00
1532.314, 56485.00
1533.346, 56271.00
1534.377, 56665.00
1535.409, 56615.00
1536.440, 56345.00
1537.472, 56933.00
1538.503, 56478.00
1539.534, 57124.00
1540.564, 56477.00
1541.595, 56964.00
1542.625, 56607.00
1543.656, 56945.00
1544.686, 56629.00
1545.716, 56795.00
1546.745, 56653.00
1547.775, 57040.00
1548.804, 57004.00
1549.834, 57005.00
1550.863, 57053.00
1551.892, 57065.00
1552.920, 57066.05
1553.949, 57068.22
1554.977, 57093.00
1556.006, 57114.00
1557.034, 57198.00
1558.062, 57392.00
1559.089, 57569.00
1560.117, 57472.00
1561.144, 57486.00
1562.172, 57509.00
1563.199, 57564.00
1564.226, 57685.00
1565.252, 58120.00
1566.279, 57489.00
1567.305, 57846.00
1568.332, 58188.00
1569.358, 58018.00
1570.384, 58446.00
##END=



