##NAMES=Andalusite
##RRUFFID=R060212
##IDEAL CHEMISTRY=Al_2_SiO_5_
##LOCALITY=Brazil
##OWNER=RRUFF
##SOURCE=Marcus Origlieri
##DESCRIPTION=Transparent yellow-green water-worn pebble
##STATUS=The identification of this mineral is confirmed by single-crystal X-ray diffraction and chemical analysis.
##URL=rruff.info/R060212
##MEASURED CHEMISTRY=(Al_1.98_Fe^3+^_0.02_)_Î£=2_Si_1.00_O_5_
##PIN_ID=L00827
##ORIENTATION=Laser parallel to -b* (0 -1 0). Fiducial mark perpendicular to laser is parallel to c [0 0 1]
99.64900, 9377.000
100.8830, 9432.000
102.1160, 9571.000
103.3490, 9739.000
104.5820, 9804.000
105.8150, 10175.00
107.0470, 10331.00
108.2800, 10666.00
109.5120, 11043.00
110.7440, 10994.00
111.9760, 10718.00
113.2080, 10680.00
114.4400, 10778.00
115.6710, 11053.00
116.9030, 10980.00
118.1340, 11010.00
119.3650, 10879.00
120.5960, 10942.00
121.8270, 11018.00
123.0580, 11070.00
124.2880, 11233.00
125.5190, 11186.00
126.7490, 11330.00
127.9790, 11361.00
129.2090, 11551.00
130.4390, 11637.00
131.6680, 11872.00
132.8980, 11864.00
134.1270, 12041.00
135.3560, 12334.00
136.5850, 12426.00
137.8140, 12437.00
139.0430, 12748.00
140.2710, 12828.00
141.5000, 13131.00
142.7280, 13053.00
143.9560, 13007.00
145.1840, 13076.00
146.4120, 12883.00
147.6390, 12748.00
148.8670, 12661.00
150.0940, 12579.00
151.3210, 12667.00
152.5490, 12449.00
153.7750, 12490.00
155.0020, 12467.00
156.2290, 12269.00
157.4550, 12380.00
158.6810, 12253.00
159.9080, 12406.00
161.1340, 12314.00
162.3590, 12474.00
163.5850, 12497.00
164.8110, 12679.00
166.0360, 12812.00
167.2610, 12735.00
168.4860, 12786.00
169.7110, 12859.00
170.9360, 12705.00
172.1610, 12779.00
173.3850, 12907.00
174.6100, 12913.00
175.8340, 12847.00
177.0580, 12905.00
178.2820, 12968.00
179.5050, 12755.00
180.7290, 13080.00
181.9520, 13109.00
183.1760, 12968.00
184.3990, 13142.00
185.6220, 13424.00
186.8450, 13527.00
188.0670, 13762.00
189.2900, 13695.00
190.5120, 13960.00
191.7340, 13952.00
192.9560, 13845.00
194.1780, 14142.00
195.4000, 14012.00
196.6220, 13964.00
197.8430, 14032.00
199.0640, 13844.00
200.2860, 14062.00
201.5070, 14183.00
202.7270, 14187.00
203.9480, 14041.00
205.1690, 13765.00
206.3890, 13661.00
207.6090, 13635.00
208.8290, 13487.00
210.0490, 13478.00
211.2690, 13427.00
212.4890, 13522.00
213.7080, 13576.00
214.9280, 13562.00
216.1470, 13614.06
217.3660, 13593.00
218.5850, 13592.00
219.8030, 13639.00
221.0220, 13528.00
222.2400, 13606.00
223.4590, 13770.00
224.6770, 13813.00
225.8950, 13736.00
227.1120, 13867.00
228.3300, 13840.00
229.5480, 13954.00
230.7650, 14009.00
231.9820, 14119.00
233.1990, 14220.00
234.4160, 14331.00
235.6330, 14471.00
236.8490, 14756.00
238.0660, 14843.00
239.2820, 15020.00
240.4980, 14990.00
241.7140, 15035.56
242.9300, 14867.00
244.1460, 14943.00
245.3610, 14840.00
246.5770, 14664.00
247.7920, 14636.00
249.0070, 14607.12
250.2220, 14854.00
251.4370, 14622.00
252.6510, 14833.00
253.8660, 14802.00
255.0800, 14828.00
256.2940, 14993.00
257.5080, 15021.00
258.7220, 15163.00
259.9360, 15196.33
261.1490, 15360.00
262.3630, 15267.00
263.5760, 15239.00
264.7890, 15290.00
266.0020, 15209.00
267.2150, 15352.00
268.4270, 15587.00
269.6400, 15741.00
270.8520, 15833.00
272.0640, 15940.00
273.2760, 16223.00
274.4880, 16370.00
275.7000, 16748.00
276.9120, 16765.00
278.1230, 17281.00
279.3340, 18076.00
280.5450, 18591.00
281.7560, 19661.00
282.9670, 20876.00
284.1780, 22109.00
285.3880, 23706.00
286.5980, 25272.00
287.8090, 27259.00
289.0190, 28873.00
290.2290, 29756.00
291.4380, 29573.00
292.6480, 28165.00
293.8570, 26322.00
295.0670, 23882.00
296.2760, 21865.00
297.4850, 20347.00
298.6930, 19126.00
299.9020, 18545.00
301.1110, 17753.00
302.3190, 17491.00
303.5270, 17101.00
304.7350, 17211.00
305.9430, 17195.00
307.1510, 17298.00
308.3580, 17585.00
309.5660, 18435.00
310.7730, 19376.00
311.9800, 20422.00
313.1870, 21818.00
314.3940, 23476.00
315.6010, 25615.00
316.8070, 28064.00
318.0130, 30229.00
319.2200, 32087.00
320.4260, 32563.00
321.6310, 30788.00
322.8370, 28527.00
324.0430, 25459.00
325.2480, 23333.00
326.4540, 21655.00
327.6590, 20443.00
328.8640, 19595.00
330.0680, 18867.00
331.2730, 18515.00
332.4780, 18268.00
333.6820, 17990.00
334.8860, 17828.00
336.0900, 17909.00
337.2940, 17762.00
338.4980, 17826.00
339.7010, 17990.00
340.9050, 17786.00
342.1080, 18297.00
343.3110, 18473.00
344.5140, 18659.00
345.7170, 19129.00
346.9200, 19749.00
348.1220, 20648.00
349.3240, 21647.00
350.5270, 22955.00
351.7290, 24444.00
352.9310, 26139.00
354.1320, 28063.00
355.3340, 29793.00
356.5350, 30908.00
357.7370, 31460.00
358.9380, 30892.00
360.1390, 29514.00
361.3400, 27880.00
362.5400, 25842.00
363.7410, 24409.00
364.9410, 23153.00
366.1410, 22205.00
367.3410, 21236.00
368.5410, 20675.00
369.7410, 20226.00
370.9400, 19953.00
372.1400, 19494.00
373.3390, 19260.00
374.5380, 19086.00
375.7370, 18870.00
376.9360, 18937.00
378.1350, 18627.00
379.3330, 18556.00
380.5310, 18578.00
381.7300, 18388.00
382.9280, 18317.00
384.1260, 18463.00
385.3230, 18409.00
386.5210, 18502.00
387.7180, 18726.00
388.9160, 18666.00
390.1130, 18624.00
391.3100, 18849.00
392.5060, 18747.00
393.7030, 18571.00
394.9000, 18603.00
396.0960, 18562.00
397.2920, 18535.00
398.4880, 18528.28
399.6840, 18508.09
400.8800, 18501.00
402.0750, 18502.00
403.2710, 18524.00
404.4660, 18572.61
405.6610, 18640.61
406.8560, 18716.00
408.0510, 18830.00
409.2450, 18934.00
410.4400, 19047.00
411.6340, 19214.98
412.8280, 19372.59
414.0220, 19549.00
415.2160, 19747.00
416.4100, 19877.00
417.6030, 20062.00
418.7970, 19761.00
419.9900, 19819.00
421.1830, 19620.00
422.3760, 19338.00
423.5690, 19254.00
424.7610, 19214.00
425.9540, 19184.00
427.1460, 18989.00
428.3380, 19113.00
429.5300, 18926.00
430.7220, 18870.00
431.9140, 18966.00
433.1050, 18915.37
434.2970, 18946.43
435.4880, 19021.00
436.6790, 19024.00
437.8700, 19085.00
439.0610, 19211.00
440.2510, 19145.00
441.4420, 19277.00
442.6320, 19357.00
443.8220, 19518.00
445.0120, 19634.00
446.2020, 19765.00
447.3910, 20041.00
448.5810, 20346.00
449.7700, 20568.00
450.9600, 20749.00
452.1490, 20464.00
453.3370, 19863.00
454.5260, 19875.00
455.7150, 19534.00
456.9030, 19835.00
458.0910, 19559.00
459.2800, 19549.00
460.4670, 19697.00
461.6550, 19830.00
462.8430, 19791.00
464.0300, 19868.00
465.2180, 19787.00
466.4050, 19910.00
467.5920, 19942.00
468.7790, 20137.00
469.9650, 20228.75
471.1520, 20332.47
472.3380, 20471.00
473.5250, 20540.00
474.7110, 20621.00
475.8970, 20703.00
477.0820, 20843.00
478.2680, 20934.75
479.4540, 21010.00
480.6390, 21145.00
481.8240, 21109.00
483.0090, 21160.00
484.1940, 21253.00
485.3780, 21028.00
486.5630, 20742.00
487.7470, 20914.00
488.9320, 20909.00
490.1160, 20620.00
491.3000, 20665.00
492.4830, 20554.00
493.6670, 20531.00
494.8500, 20434.00
496.0340, 20596.00
497.2170, 20577.00
498.4000, 20679.00
499.5820, 20624.00
500.7650, 20713.00
501.9480, 20635.00
503.1300, 20768.00
504.3120, 20875.00
505.4940, 20892.00
506.6760, 20888.00
507.8580, 21058.00
509.0390, 21120.00
510.2210, 21265.00
511.4020, 21258.00
512.5830, 21332.00
513.7640, 21344.00
514.9450, 21147.00
516.1250, 21247.00
517.3060, 21173.00
518.4860, 21092.00
519.6660, 21422.00
520.8460, 21333.00
522.0260, 21311.00
523.2060, 21226.00
524.3850, 21345.00
525.5650, 21477.00
526.7440, 21328.00
527.9230, 21344.00
529.1020, 21505.00
530.2810, 21422.00
531.4590, 21573.00
532.6380, 21408.00
533.8160, 21497.00
534.9940, 21682.00
536.1720, 21585.00
537.3500, 21798.00
538.5270, 21877.00
539.7050, 22115.00
540.8820, 22302.52
542.0590, 22450.00
543.2360, 22754.00
544.4130, 23031.82
545.5900, 23307.00
546.7660, 23766.00
547.9430, 24086.00
549.1190, 24453.00
550.2950, 24539.00
551.4710, 24715.00
552.6470, 24286.00
553.8220, 24112.00
554.9980, 23695.00
556.1730, 23498.00
557.3480, 23217.53
558.5230, 22871.00
559.6980, 22776.00
560.8730, 22559.00
562.0470, 22522.00
563.2220, 22453.00
564.3960, 22410.81
565.5700, 22506.00
566.7440, 22445.00
567.9170, 22492.00
569.0910, 22563.00
570.2640, 22468.00
571.4380, 22496.21
572.6110, 22669.00
573.7840, 22427.00
574.9570, 22534.00
576.1290, 22494.00
577.3020, 22723.00
578.4740, 22532.00
579.6460, 22738.00
580.8180, 22537.00
581.9900, 22826.00
583.1620, 22689.00
584.3330, 22677.00
585.5040, 22832.00
586.6760, 22912.00
587.8470, 22842.00
589.0180, 22811.00
590.1880, 22823.00
591.3590, 22713.00
592.5290, 22953.00
593.7000, 22998.00
594.8700, 22818.00
596.0400, 23018.00
597.2090, 23123.00
598.3790, 23221.00
599.5490, 23003.00
600.7180, 23254.00
601.8870, 23134.00
603.0560, 23232.00
604.2250, 23423.00
605.3940, 23487.00
606.5620, 23379.00
607.7300, 23456.00
608.8990, 23622.00
610.0670, 23450.00
611.2350, 23633.00
612.4020, 23453.00
613.5700, 23505.00
614.7370, 23664.00
615.9050, 23356.00
617.0720, 23719.00
618.2390, 23625.00
619.4060, 23737.00
620.5720, 23725.00
621.7390, 23634.00
622.9050, 23521.00
624.0710, 23515.00
625.2370, 23675.00
626.4030, 23787.00
627.5690, 23753.00
628.7340, 23791.00
629.9000, 23664.00
631.0650, 23720.00
632.2300, 23721.00
633.3950, 23881.00
634.5600, 23881.00
635.7240, 24037.00
636.8890, 24135.00
638.0530, 24248.00
639.2170, 24246.00
640.3810, 24305.52
641.5450, 24285.00
642.7080, 24352.00
643.8720, 24371.00
645.0350, 24429.00
646.1980, 24380.35
647.3610, 24239.00
648.5240, 24257.00
649.6870, 24306.00
650.8490, 24241.00
652.0120, 24480.00
653.1740, 24531.00
654.3360, 24577.00
655.4980, 24512.00
656.6600, 24626.00
657.8210, 24690.00
658.9830, 24760.00
660.1440, 24996.00
661.3050, 25178.00
662.4660, 25141.00
663.6270, 24982.00
664.7870, 24985.00
665.9480, 24962.00
667.1080, 24978.00
668.2680, 24985.00
669.4280, 25159.00
670.5880, 25095.00
671.7480, 25193.00
672.9070, 25182.00
674.0670, 25359.00
675.2260, 25365.00
676.3850, 25510.00
677.5440, 25593.00
678.7030, 25578.00
679.8610, 25649.00
681.0200, 25727.00
682.1780, 25834.00
683.3360, 25879.06
684.4940, 25858.00
685.6520, 25966.00
686.8090, 25956.09
687.9670, 26120.46
689.1240, 25978.00
690.2810, 26053.00
691.4380, 26042.00
692.5950, 25960.00
693.7520, 25994.00
694.9080, 25865.00
696.0650, 25883.00
697.2210, 26304.00
698.3770, 26260.00
699.5330, 26283.00
700.6880, 26238.00
701.8440, 26463.00
702.9990, 26430.00
704.1550, 26295.00
705.3100, 26684.00
706.4650, 27063.00
707.6190, 27108.00
708.7740, 27069.00
709.9290, 27410.00
711.0830, 27514.00
712.2370, 27707.00
713.3910, 27850.00
714.5450, 27918.00
715.6980, 27932.00
716.8520, 27725.00
718.0050, 27799.00
719.1580, 27392.00
720.3110, 27125.00
721.4640, 26839.00
722.6170, 26574.00
723.7700, 26575.00
724.9220, 26386.00
726.0740, 26235.00
727.2260, 26144.00
728.3780, 26024.00
729.5300, 26149.00
730.6810, 26226.00
731.8330, 26151.00
732.9840, 26252.00
734.1350, 26233.00
735.2860, 26248.00
736.4370, 26181.00
737.5880, 26466.00
738.7380, 26463.00
739.8880, 26524.00
741.0390, 26420.00
742.1890, 26577.00
743.3380, 26347.00
744.4880, 26494.00
745.6380, 26522.00
746.7870, 26571.00
747.9360, 26786.00
749.0850, 26357.00
750.2340, 26458.00
751.3830, 26555.00
752.5310, 26685.00
753.6800, 26595.00
754.8280, 26588.00
755.9760, 26732.00
757.1240, 26745.00
758.2720, 26623.00
759.4190, 26764.00
760.5670, 26723.00
761.7140, 26846.00
762.8610, 27026.00
764.0080, 26879.00
765.1550, 26986.00
766.3020, 26944.00
767.4480, 26882.00
768.5950, 26874.00
769.7410, 26999.00
770.8870, 26842.00
772.0330, 27060.00
773.1780, 26874.00
774.3240, 26937.00
775.4690, 27057.00
776.6140, 27131.00
777.7590, 27191.55
778.9040, 27261.31
780.0490, 27267.00
781.1940, 27338.00
782.3380, 27303.00
783.4820, 27289.00
784.6260, 27258.00
785.7700, 27360.75
786.9140, 27598.00
788.0580, 27593.00
789.2010, 27699.00
790.3450, 27805.00
791.4880, 27900.00
792.6310, 28001.00
793.7730, 27829.00
794.9160, 27917.00
796.0590, 27868.00
797.2010, 27891.00
798.3430, 27657.00
799.4850, 27755.00
800.6270, 28048.00
801.7690, 27923.00
802.9100, 28336.00
804.0520, 28263.00
805.1930, 28513.00
806.3340, 28549.00
807.4750, 28301.00
808.6160, 28091.00
809.7560, 28380.00
810.8970, 28449.00
812.0370, 28126.00
813.1770, 28165.00
814.3170, 28106.00
815.4570, 28018.00
816.5960, 28344.00
817.7360, 28329.00
818.8750, 28292.00
820.0140, 28147.00
821.1530, 28171.00
822.2920, 28084.00
823.4310, 28328.00
824.5690, 28404.00
825.7070, 28522.00
826.8460, 28627.55
827.9840, 28656.59
829.1220, 28741.00
830.2590, 28753.00
831.3970, 28753.00
832.5340, 28889.00
833.6710, 28972.00
834.8080, 28884.00
835.9450, 29004.00
837.0820, 29100.00
838.2190, 28789.00
839.3550, 28934.00
840.4910, 28961.00
841.6270, 28803.00
842.7630, 28685.00
843.8990, 28757.00
845.0350, 28699.00
846.1700, 28878.00
847.3060, 28907.00
848.4410, 29150.00
849.5760, 29114.00
850.7100, 29154.00
851.8450, 28891.00
852.9800, 29138.00
854.1140, 29015.00
855.2480, 29234.00
856.3820, 29192.00
857.5160, 29358.00
858.6500, 29043.00
859.7830, 29361.00
860.9170, 29189.00
862.0500, 29280.00
863.1830, 29550.00
864.3160, 29503.00
865.4480, 29422.00
866.5810, 29481.00
867.7130, 29431.00
868.8460, 29674.00
869.9780, 29683.00
871.1100, 29782.00
872.2410, 29601.00
873.3730, 29801.00
874.5050, 29980.00
875.6360, 29836.00
876.7670, 29908.00
877.8980, 29925.00
879.0290, 30086.00
880.1590, 30002.00
881.2900, 30024.00
882.4200, 30075.00
883.5500, 30265.00
884.6800, 30107.00
885.8100, 30319.00
886.9400, 30413.00
888.0690, 30430.00
889.1990, 30567.00
890.3280, 30770.00
891.4570, 30934.00
892.5860, 31015.48
893.7140, 30949.00
894.8430, 31203.00
895.9710, 31197.00
897.1000, 31370.00
898.2280, 31352.00
899.3560, 31759.00
900.4830, 31940.00
901.6110, 32329.00
902.7380, 32815.00
903.8660, 33430.00
904.9930, 33786.00
906.1200, 34431.00
907.2460, 34936.00
908.3730, 36534.00
909.5000, 37749.00
910.6260, 40113.00
911.7520, 43075.00
912.8780, 46697.00
914.0040, 50750.00
915.1290, 55617.00
916.2550, 59915.00
917.3800, 62719.00
918.5050, 63428.00
919.6300, 61549.00
920.7550, 57491.00
921.8800, 52976.00
923.0040, 49174.00
924.1290, 46420.00
925.2530, 44408.00
926.3770, 42580.00
927.5010, 41332.00
928.6250, 40250.00
929.7480, 39108.00
930.8720, 38080.00
931.9950, 36918.00
933.1180, 36095.00
934.2410, 35396.00
935.3640, 34752.00
936.4860, 34243.00
937.6090, 34006.00
938.7310, 33557.84
939.8530, 33393.00
940.9750, 33013.00
942.0970, 32880.00
943.2180, 32717.00
944.3400, 32777.00
945.4610, 32577.00
946.5820, 32599.00
947.7030, 32603.00
948.8240, 32715.00
949.9450, 32475.00
951.0650, 32405.00
952.1860, 32352.00
953.3060, 32387.00
954.4260, 32294.00
955.5460, 32555.00
956.6650, 32294.00
957.7850, 32202.00
958.9040, 32556.00
960.0230, 32227.00
961.1420, 32309.00
962.2610, 32361.00
963.3800, 32133.00
964.4990, 32181.00
965.6170, 32138.66
966.7350, 32099.00
967.8530, 32146.00
968.9710, 32168.00
970.0890, 32233.00
971.2070, 32286.00
972.3240, 32355.00
973.4410, 32419.00
974.5580, 32455.00
975.6750, 32487.06
976.7920, 32530.02
977.9090, 32522.00
979.0250, 32577.00
980.1410, 32604.00
981.2580, 32586.00
982.3740, 32724.00
983.4890, 32683.00
984.6050, 32702.00
985.7200, 32682.00
986.8360, 32591.00
987.9510, 32691.00
989.0660, 32784.00
990.1810, 32919.00
991.2950, 32784.00
992.4100, 32736.00
993.5240, 33050.00
994.6390, 32943.00
995.7530, 33075.00
996.8660, 33107.00
997.9800, 33013.00
999.0940, 33086.00
1000.207, 33150.00
1001.320, 33251.00
1002.433, 33340.00
1003.546, 33258.00
1004.659, 33323.00
1005.772, 33429.00
1006.884, 33257.00
1007.996, 33447.00
1009.108, 33589.00
1010.220, 33482.00
1011.332, 33801.00
1012.444, 33822.00
1013.555, 33969.00
1014.666, 34092.00
1015.777, 34457.00
1016.888, 34464.00
1017.999, 34555.00
1019.110, 34537.00
1020.220, 34401.00
1021.331, 34731.00
1022.441, 34446.00
1023.551, 34616.00
1024.661, 34162.00
1025.770, 34323.00
1026.880, 34276.00
1027.989, 34237.00
1029.098, 34219.00
1030.207, 34234.00
1031.316, 34144.00
1032.425, 34286.00
1033.533, 34234.00
1034.642, 34218.00
1035.750, 33917.00
1036.858, 34262.00
1037.966, 34165.00
1039.073, 34090.00
1040.181, 34417.00
1041.288, 34481.00
1042.396, 34356.00
1043.503, 34312.00
1044.610, 34313.00
1045.716, 34380.00
1046.823, 34594.00
1047.929, 34760.00
1049.036, 34642.00
1050.142, 34535.00
1051.248, 34545.00
1052.353, 34888.00
1053.459, 34911.00
1054.564, 34922.00
1055.670, 35312.00
1056.775, 35298.00
1057.880, 35315.00
1058.985, 35530.00
1060.089, 35869.00
1061.194, 36209.00
1062.298, 36397.96
1063.402, 36543.69
1064.506, 36744.00
1065.610, 36584.00
1066.713, 36560.00
1067.817, 36378.00
1068.920, 36077.00
1070.023, 35687.00
1071.126, 36092.00
1072.229, 35553.00
1073.332, 35509.00
1074.435, 35428.00
1075.537, 35869.00
1076.639, 35703.00
1077.741, 35391.00
1078.843, 35723.00
1079.945, 35656.00
1081.046, 35523.00
1082.148, 35660.00
1083.249, 35847.00
1084.350, 35840.00
1085.451, 35824.00
1086.551, 35849.00
1087.652, 36114.00
1088.752, 36005.00
1089.853, 35989.00
1090.953, 35834.00
1092.053, 35982.00
1093.152, 35922.00
1094.252, 35952.00
1095.351, 35830.00
1096.451, 36044.00
1097.550, 35970.00
1098.649, 36135.00
1099.748, 36000.00
1100.846, 36104.00
1101.945, 36126.00
1103.043, 36007.00
1104.141, 36272.00
1105.239, 36162.00
1106.337, 36275.00
1107.434, 36267.00
1108.532, 36428.00
1109.629, 36401.34
1110.726, 36407.00
1111.823, 36370.00
1112.920, 36418.00
1114.017, 36369.00
1115.113, 36630.00
1116.210, 36453.00
1117.306, 36473.00
1118.402, 36740.00
1119.498, 36846.00
1120.593, 36978.00
1121.689, 37085.00
1122.784, 37126.00
1123.879, 37090.00
1124.974, 37224.00
1126.069, 37156.61
1127.164, 37028.00
1128.259, 37042.00
1129.353, 37039.00
1130.447, 36885.00
1131.541, 36738.00
1132.635, 36919.00
1133.729, 36785.00
1134.822, 36871.00
1135.916, 36922.00
1137.009, 37082.00
1138.102, 37157.00
1139.195, 37169.00
1140.288, 37089.00
1141.380, 37237.00
1142.473, 37128.00
1143.565, 37150.01
1144.657, 37062.00
1145.749, 37125.00
1146.841, 37281.00
1147.932, 37285.00
1149.024, 37288.00
1150.115, 37458.00
1151.206, 37440.00
1152.297, 37409.00
1153.388, 37468.92
1154.479, 37501.00
1155.569, 37448.00
1156.659, 37500.00
1157.750, 37439.00
1158.839, 37544.00
1159.929, 37586.00
1161.019, 37622.00
1162.108, 37622.00
1163.198, 37747.00
1164.287, 37458.00
1165.376, 37600.00
1166.465, 37855.00
1167.553, 37684.00
1168.642, 37963.00
1169.730, 38151.00
1170.818, 37798.00
1171.906, 37782.00
1172.994, 38116.00
1174.082, 37915.00
1175.170, 38105.00
1176.257, 38069.00
1177.344, 37979.00
1178.431, 37855.00
1179.518, 37839.00
1180.605, 37998.00
1181.691, 38131.00
1182.778, 38603.00
1183.864, 38426.00
1184.950, 38619.00
1186.036, 38554.00
1187.122, 38535.00
1188.207, 38581.00
1189.292, 38396.00
1190.378, 38343.00
1191.463, 38409.00
1192.548, 38522.00
1193.632, 38391.00
1194.717, 38826.00
1195.801, 38759.00
1196.886, 38796.00
1197.970, 38606.00
1199.054, 38783.00
1200.137, 38756.00
1201.221, 38964.00
1202.305, 38881.00
1203.388, 38885.00
1204.471, 39016.00
1205.554, 38904.00
1206.637, 39162.00
1207.719, 39011.00
1208.802, 39007.00
1209.884, 39126.00
1210.966, 39328.00
1212.048, 39481.00
1213.130, 39252.00
1214.212, 39303.00
1215.293, 39439.00
1216.374, 39144.00
1217.456, 39459.00
1218.536, 39099.00
1219.617, 39524.00
1220.698, 39542.00
1221.778, 39746.00
1222.859, 39571.00
1223.939, 39575.00
1225.019, 39671.00
1226.099, 39984.00
1227.178, 39575.00
1228.258, 39970.00
1229.337, 40104.00
1230.417, 40000.00
1231.496, 40091.00
1232.574, 40124.34
1233.653, 40172.00
1234.732, 40255.00
1235.810, 40280.00
1236.888, 40436.93
1237.966, 40452.00
1239.044, 40502.00
1240.122, 40274.00
1241.199, 40174.00
1242.277, 40372.00
1243.354, 40659.00
1244.431, 40544.00
1245.508, 40570.00
1246.585, 40556.00
1247.661, 40450.00
1248.738, 40826.00
1249.814, 40615.00
1250.890, 40714.00
1251.966, 40713.00
1253.042, 40577.00
1254.117, 40841.00
1255.193, 40862.00
1256.268, 40951.00
1257.343, 40738.00
1258.418, 40958.00
1259.493, 40787.00
1260.567, 40796.00
1261.642, 41051.00
1262.716, 41048.00
1263.790, 40880.00
1264.864, 40998.00
1265.938, 40797.00
1267.011, 40985.00
1268.085, 41070.00
1269.158, 41032.00
1270.231, 41004.00
1271.304, 41093.00
1272.377, 41094.00
1273.450, 41061.00
1274.522, 41164.00
1275.594, 41098.00
1276.666, 41010.00
1277.738, 41505.00
1278.810, 41414.00
1279.882, 40918.00
1280.953, 41421.00
1282.025, 41201.00
1283.096, 41264.00
1284.167, 41518.00
1285.238, 41462.00
1286.308, 41344.00
1287.379, 41548.00
1288.449, 41443.00
1289.519, 41581.00
1290.589, 41518.00
1291.659, 41666.00
1292.729, 41727.76
1293.798, 41804.00
1294.868, 41901.00
1295.937, 41943.00
1297.006, 42017.00
1298.075, 41928.00
1299.143, 41963.00
1300.212, 41809.00
1301.280, 41910.56
1302.348, 42153.00
1303.416, 42116.00
1304.484, 42138.00
1305.552, 42327.00
1306.620, 42243.00
1307.687, 42351.00
1308.754, 42423.95
1309.821, 42567.00
1310.888, 42533.00
1311.955, 42489.00
1313.021, 42455.00
1314.088, 42580.00
1315.154, 42449.00
1316.220, 42399.00
1317.286, 42607.00
1318.352, 42473.00
1319.417, 42351.00
1320.483, 42871.00
1321.548, 42575.00
1322.613, 42757.00
1323.678, 42680.00
1324.743, 42917.00
1325.807, 42447.00
1326.872, 42724.00
1327.936, 42930.00
1329.000, 42623.00
1330.064, 42801.00
1331.128, 42917.00
1332.191, 43008.00
1333.255, 43086.77
1334.318, 42872.00
1335.381, 43085.00
1336.444, 43174.00
1337.507, 42984.00
1338.569, 43090.00
1339.632, 42939.00
1340.694, 43133.00
1341.756, 43396.00
1342.818, 43098.00
1343.880, 43157.00
1344.941, 43104.00
1346.003, 43358.00
1347.064, 43433.00
1348.125, 43398.00
1349.186, 43210.00
1350.247, 43361.00
1351.308, 43222.00
1352.368, 43349.00
1353.428, 43289.00
1354.489, 43474.00
1355.549, 43428.00
1356.608, 43512.00
1357.668, 43591.68
1358.727, 43306.00
1359.787, 43693.00
1360.846, 43547.00
1361.905, 43511.00
1362.964, 43751.00
1364.022, 43386.00
1365.081, 43441.00
1366.139, 43548.00
1367.197, 43491.00
1368.255, 43470.00
1369.313, 43527.00
1370.371, 43602.00
1371.428, 43638.00
1372.486, 43597.00
1373.543, 43475.00
1374.600, 43655.00
1375.657, 43406.00
1376.713, 43483.00
1377.770, 43751.00
1378.826, 43795.00
1379.882, 43553.00
1380.938, 43888.00
1381.994, 43733.00
1383.050, 43660.00
1384.106, 43631.00
1385.161, 43741.00
1386.216, 43773.00
1387.271, 43957.00
1388.326, 44030.00
1389.381, 43866.00
1390.435, 43771.00
1391.490, 43818.58
1392.544, 43891.00
1393.598, 43887.00
1394.652, 43965.00
1395.705, 44061.00
1396.759, 44236.00
1397.812, 44126.00
1398.866, 44279.00
1399.919, 43990.00
1400.972, 44094.00
1402.024, 43813.00
1403.077, 44271.00
1404.129, 44119.00
1405.181, 44324.00
1406.233, 44335.00
1407.285, 44414.00
1408.337, 44528.00
1409.389, 44503.05
1410.440, 44572.09
1411.491, 44472.00
1412.542, 44593.00
1413.593, 44532.00
1414.644, 44479.00
1415.695, 44524.00
1416.745, 44677.00
1417.795, 44577.00
1418.845, 44800.00
1419.895, 44695.00
1420.945, 44754.00
1421.995, 44673.00
1423.044, 44796.00
1424.093, 44801.29
1425.142, 44778.00
1426.191, 44852.00
1427.240, 45004.00
1428.289, 44954.00
1429.337, 45122.46
1430.385, 45287.00
1431.433, 45343.00
1432.481, 45432.00
1433.529, 45490.03
1434.577, 45046.00
1435.624, 45312.00
1436.672, 45316.00
1437.719, 45151.00
1438.766, 45465.00
1439.812, 45304.00
1440.859, 45584.00
1441.905, 45175.00
1442.952, 45827.00
1443.998, 45581.00
1445.044, 45304.00
1446.090, 45632.00
1447.135, 45417.00
1448.181, 45848.00
1449.226, 45994.00
1450.271, 45844.00
1451.316, 45676.00
1452.361, 45795.00
1453.405, 45865.00
1454.450, 45866.00
1455.494, 45884.00
1456.538, 45951.00
1457.582, 45588.00
1458.626, 45773.00
1459.670, 46186.00
1460.713, 45751.00
1461.757, 46029.00
1462.800, 46144.00
1463.843, 45807.00
1464.886, 46027.00
1465.928, 45788.00
1466.971, 46394.00
1468.013, 45991.00
1469.055, 46366.00
1470.097, 46117.00
1471.139, 46384.00
1472.181, 46372.00
1473.222, 46147.00
1474.263, 46284.00
1475.305, 46155.00
1476.346, 46737.00
1477.386, 46490.00
1478.427, 46707.00
1479.468, 46674.00
1480.508, 46465.00
1481.548, 46622.00
1482.588, 46429.00
1483.628, 46770.00
1484.668, 46659.00
1485.707, 46796.00
1486.747, 46768.00
1487.786, 46783.00
1488.825, 46797.00
1489.864, 46830.00
1490.902, 47131.00
1491.941, 46852.00
1492.979, 47110.00
1494.017, 46928.00
1495.055, 47160.00
1496.093, 47077.00
1497.131, 47228.00
1498.168, 47200.00
1499.206, 46863.00
1500.243, 47240.00
1501.280, 47085.00
1502.317, 47304.00
1503.354, 47184.00
1504.390, 47240.00
1505.426, 47348.02
1506.463, 47424.00
1507.499, 47454.00
1508.535, 47559.00
1509.570, 47459.00
1510.606, 47636.00
1511.641, 47515.00
1512.676, 47804.00
1513.711, 47548.00
1514.746, 47326.00
1515.781, 47785.00
1516.816, 47871.00
1517.850, 47904.00
1518.884, 47592.00
1519.918, 48029.00
1520.952, 48099.00
1521.986, 47778.00
1523.019, 48210.00
1524.053, 47884.00
1525.086, 47839.00
1526.119, 48350.00
1527.152, 48248.00
1528.185, 48220.00
1529.217, 48169.00
1530.250, 48029.00
1531.282, 48136.00
1532.314, 48200.00
1533.346, 48133.00
1534.377, 48487.00
1535.409, 48708.00
1536.440, 48567.00
1537.472, 48333.00
1538.503, 48783.00
1539.534, 48709.00
1540.564, 48825.00
1541.595, 48804.00
1542.625, 48805.88
1543.656, 48804.00
1544.686, 48809.00
1545.716, 48787.00
1546.745, 48793.00
1547.775, 48858.00
1548.804, 48867.00
1549.834, 49050.00
1550.863, 49230.00
1551.892, 49192.00
1552.920, 49379.00
1553.949, 49416.00
1554.977, 49418.00
1556.006, 49201.00
1557.034, 49089.00
1558.062, 49176.00
1559.089, 49323.00
1560.117, 49400.00
1561.144, 49489.00
1562.172, 49713.00
1563.199, 49603.00
1564.226, 49689.00
1565.252, 49772.00
1566.279, 49590.00
1567.305, 49936.00
1568.332, 49754.00
1569.358, 49961.00
1570.384, 49713.00
##END=



