##NAMES=Andalusite
##RRUFFID=R050561
##IDEAL CHEMISTRY=Al_2_SiO_5_
##LOCALITY=Cargo Muchacho Mountain, Imperial County, California
##OWNER=RRUFF
##SOURCE=Dave Bunk Minerals
##DESCRIPTION=Brown coarsely crystalline massive
##STATUS=The identification of this mineral has been confirmed by X-ray diffraction and chemical analysis
##URL=rruff.info/R050561
##MEASURED CHEMISTRY=(Al_1.98_Fe^3+^_0.02_)_Î£=2_Si_1.00_O_5_
##PIN_ID=M00245
##ORIENTATION=Laser parallel to -b* (0 -1 0). Fiducial mark perpendicular to laser is parallel to -c [0 0 -1]
157.4550, 8090.000
158.6810, 8042.000
159.9080, 8177.000
161.1340, 8193.000
162.3590, 8383.000
163.5850, 8381.000
164.8110, 8640.000
166.0360, 8751.000
167.2610, 8801.000
168.4860, 8795.000
169.7110, 8975.000
170.9360, 9071.000
172.1610, 8947.000
173.3850, 8925.000
174.6100, 8980.000
175.8340, 9003.000
177.0580, 9144.000
178.2820, 9204.793
179.5050, 9302.000
180.7290, 9424.000
181.9520, 9430.000
183.1760, 9579.000
184.3990, 9616.000
185.6220, 9851.000
186.8450, 10158.00
188.0670, 10412.00
189.2900, 10550.00
190.5120, 11076.00
191.7340, 11400.00
192.9560, 11574.00
194.1780, 11570.00
195.4000, 11605.00
196.6220, 11560.00
197.8430, 11683.00
199.0640, 11700.00
200.2860, 11851.00
201.5070, 12088.00
202.7270, 12291.00
203.9480, 12130.00
205.1690, 11492.00
206.3890, 11096.00
207.6090, 11014.00
208.8290, 10888.00
210.0490, 10684.00
211.2690, 10547.00
212.4890, 10689.00
213.7080, 10600.00
214.9280, 10726.00
216.1470, 10604.00
217.3660, 10648.00
218.5850, 10775.00
219.8030, 10762.00
221.0220, 10810.00
222.2400, 10815.00
223.4590, 10935.00
224.6770, 10877.00
225.8950, 11101.00
227.1120, 10983.00
228.3300, 11237.00
229.5480, 11305.00
230.7650, 11362.00
231.9820, 11451.00
233.1990, 11514.00
234.4160, 11727.00
235.6330, 11784.00
236.8490, 11990.00
238.0660, 12212.00
239.2820, 12384.00
240.4980, 12704.00
241.7140, 12820.00
242.9300, 12910.00
244.1460, 12879.00
245.3610, 12757.00
246.5770, 12611.00
247.7920, 12303.00
249.0070, 12072.00
250.2220, 11947.00
251.4370, 11651.00
252.6510, 11617.00
253.8660, 11535.00
255.0800, 11333.00
256.2940, 11502.00
257.5080, 11529.00
258.7220, 11624.00
259.9360, 11663.71
261.1490, 11665.61
262.3630, 11671.00
263.5760, 11652.00
264.7890, 11586.00
266.0020, 11578.00
267.2150, 11677.41
268.4270, 11831.00
269.6400, 12010.00
270.8520, 12193.00
272.0640, 12536.00
273.2760, 12928.00
274.4880, 13272.00
275.7000, 14040.00
276.9120, 14647.00
278.1230, 15537.00
279.3340, 16317.00
280.5450, 17406.00
281.7560, 18633.00
282.9670, 20041.47
284.1780, 22234.00
285.3880, 23357.00
286.5980, 25406.00
287.8090, 27336.00
289.0190, 30202.00
290.2290, 32641.00
291.4380, 34919.00
292.6480, 35583.00
293.8570, 34717.00
295.0670, 32129.00
296.2760, 28470.00
297.4850, 24608.00
298.6930, 21065.00
299.9020, 18642.00
301.1110, 16518.00
302.3190, 15229.00
303.5270, 14252.00
304.7350, 13698.00
305.9430, 13458.00
307.1510, 13492.00
308.3580, 13669.00
309.5660, 14473.00
310.7730, 15576.00
311.9800, 16822.00
313.1870, 18119.00
314.3940, 19255.00
315.6010, 20852.00
316.8070, 22889.00
318.0130, 25775.00
319.2200, 28879.00
320.4260, 31887.00
321.6310, 33783.00
322.8370, 33685.00
324.0430, 31369.00
325.2480, 28389.00
326.4540, 24659.00
327.6590, 21617.00
328.8640, 19168.00
330.0680, 17307.00
331.2730, 16169.00
332.4780, 15227.00
333.6820, 14738.00
334.8860, 14376.00
336.0900, 14456.00
337.2940, 14159.00
338.4980, 14185.00
339.7010, 14226.00
340.9050, 14434.00
342.1080, 14554.00
343.3110, 14916.00
344.5140, 15225.00
345.7170, 15982.00
346.9200, 16614.00
348.1220, 17673.00
349.3240, 18783.00
350.5270, 20000.00
351.7290, 21601.00
352.9310, 23181.00
354.1320, 24980.00
355.3340, 27238.00
356.5350, 29328.00
357.7370, 31290.00
358.9380, 32488.00
360.1390, 32598.00
361.3400, 31400.00
362.5400, 29191.00
363.7410, 26724.00
364.9410, 24059.00
366.1410, 21845.00
367.3410, 19939.00
368.5410, 18584.00
369.7410, 17407.00
370.9400, 16655.00
372.1400, 16112.00
373.3390, 15608.00
374.5380, 15301.00
375.7370, 14926.00
376.9360, 14616.00
378.1350, 14339.64
379.3330, 14131.00
380.5310, 13832.00
381.7300, 13649.00
382.9280, 13439.00
384.1260, 13556.00
385.3230, 13492.00
386.5210, 13586.00
387.7180, 13695.00
388.9160, 13737.00
390.1130, 13841.00
391.3100, 14132.00
392.5060, 14080.61
393.7030, 14139.00
394.9000, 14106.00
396.0960, 13870.00
397.2920, 13835.00
398.4880, 13686.00
399.6840, 13671.00
400.8800, 13692.00
402.0750, 13679.00
403.2710, 13779.00
404.4660, 14000.00
405.6610, 14190.00
406.8560, 14487.00
408.0510, 14825.00
409.2450, 14974.00
410.4400, 15337.00
411.6340, 15627.00
412.8280, 15961.00
414.0220, 16367.00
415.2160, 16986.00
416.4100, 17422.00
417.6030, 17876.00
418.7970, 18300.00
419.9900, 18470.00
421.1830, 18284.00
422.3760, 18012.00
423.5690, 17695.00
424.7610, 17385.00
425.9540, 17040.00
427.1460, 17016.00
428.3380, 16962.00
429.5300, 16749.00
430.7220, 16984.00
431.9140, 17054.00
433.1050, 17232.00
434.2970, 17189.00
435.4880, 17341.00
436.6790, 17507.00
437.8700, 17611.00
439.0610, 17739.00
440.2510, 17868.00
441.4420, 18264.00
442.6320, 18314.00
443.8220, 18429.00
445.0120, 18652.00
446.2020, 18434.00
447.3910, 18616.00
448.5810, 18732.00
449.7700, 18737.00
450.9600, 19007.00
452.1490, 19095.00
453.3370, 18888.00
454.5260, 18027.00
455.7150, 17407.00
456.9030, 16674.00
458.0910, 15926.00
459.2800, 15482.00
460.4670, 15308.00
461.6550, 15007.00
462.8430, 14946.00
464.0300, 14700.00
465.2180, 14810.00
466.4050, 14548.00
467.5920, 14431.00
468.7790, 14411.00
469.9650, 14329.00
471.1520, 14357.35
472.3380, 14453.00
473.5250, 14457.00
474.7110, 14568.00
475.8970, 14649.00
477.0820, 14817.00
478.2680, 15004.00
479.4540, 15088.00
480.6390, 15177.00
481.8240, 15104.00
483.0090, 14957.00
484.1940, 14840.00
485.3780, 14682.00
486.5630, 14425.57
487.7470, 14396.00
488.9320, 13875.00
490.1160, 13600.00
491.3000, 13342.00
492.4830, 13160.00
493.6670, 12968.00
494.8500, 12893.00
496.0340, 12698.00
497.2170, 12685.00
498.4000, 12668.00
499.5820, 12742.00
500.7650, 12821.00
501.9480, 12862.00
503.1300, 13071.00
504.3120, 13222.00
505.4940, 13216.00
506.6760, 13483.00
507.8580, 13609.00
509.0390, 13760.00
510.2210, 13998.00
511.4020, 14084.00
512.5830, 14128.00
513.7640, 14199.00
514.9450, 14266.00
516.1250, 14163.00
517.3060, 14237.00
518.4860, 14142.00
519.6660, 14035.00
520.8460, 13934.00
522.0260, 13823.00
523.2060, 13865.00
524.3850, 13594.00
525.5650, 13719.00
526.7440, 13830.00
527.9230, 13681.00
529.1020, 13579.00
530.2810, 13819.00
531.4590, 13801.00
532.6380, 13972.00
533.8160, 14196.00
534.9940, 14144.00
536.1720, 14387.00
537.3500, 14531.00
538.5270, 14825.00
539.7050, 15090.00
540.8820, 15208.00
542.0590, 15669.00
543.2360, 16379.00
544.4130, 16615.00
545.5900, 16908.00
546.7660, 17664.00
547.9430, 18080.00
549.1190, 18595.00
550.2950, 18947.00
551.4710, 19278.00
552.6470, 19301.00
553.8220, 19296.00
554.9980, 18464.00
556.1730, 18276.00
557.3480, 17676.00
558.5230, 17135.00
559.6980, 16761.00
560.8730, 16572.00
562.0470, 16398.00
563.2220, 16404.00
564.3960, 16234.00
565.5700, 16316.00
566.7440, 16194.00
567.9170, 16499.00
569.0910, 16582.00
570.2640, 16626.00
571.4380, 16829.00
572.6110, 16812.00
573.7840, 16875.00
574.9570, 16909.00
576.1290, 16823.00
577.3020, 17015.00
578.4740, 17035.00
579.6460, 16963.00
580.8180, 17081.00
581.9900, 17188.00
583.1620, 17291.00
584.3330, 17120.00
585.5040, 17297.00
586.6760, 17337.00
587.8470, 17513.00
589.0180, 17598.00
590.1880, 17792.96
591.3590, 18127.00
592.5290, 18346.00
593.7000, 18489.00
594.8700, 19049.00
596.0400, 18977.00
597.2090, 19563.00
598.3790, 19895.00
599.5490, 19981.00
600.7180, 20661.00
601.8870, 20850.00
603.0560, 21317.00
604.2250, 21441.00
605.3940, 21820.00
606.5620, 21861.00
607.7300, 22173.00
608.8990, 22267.00
610.0670, 22193.00
611.2350, 22184.00
612.4020, 22024.00
613.5700, 21956.00
614.7370, 21790.00
615.9050, 21441.00
617.0720, 21328.00
618.2390, 21049.00
619.4060, 20566.00
620.5720, 20620.00
621.7390, 20137.00
622.9050, 19880.00
624.0710, 19579.00
625.2370, 19386.00
626.4030, 18870.00
627.5690, 18601.00
628.7340, 18434.00
629.9000, 18037.00
631.0650, 17905.00
632.2300, 17785.00
633.3950, 17457.00
634.5600, 17271.95
635.7240, 16865.00
636.8890, 16756.00
638.0530, 16603.00
639.2170, 16390.00
640.3810, 16357.00
641.5450, 16138.00
642.7080, 16099.00
643.8720, 15831.00
645.0350, 15887.00
646.1980, 15672.00
647.3610, 15561.00
648.5240, 15367.00
649.6870, 15178.00
650.8490, 14966.00
652.0120, 14506.00
653.1740, 14456.00
654.3360, 14192.00
655.4980, 14182.00
656.6600, 13975.00
657.8210, 14157.00
658.9830, 14029.00
660.1440, 14193.00
661.3050, 14312.00
662.4660, 14236.00
663.6270, 14316.00
664.7870, 14345.00
665.9480, 13908.00
667.1080, 13674.00
668.2680, 13413.00
669.4280, 13248.00
670.5880, 13090.00
671.7480, 13090.00
672.9070, 13091.00
674.0670, 13114.00
675.2260, 13053.00
676.3850, 13202.00
677.5440, 13310.00
678.7030, 13163.00
679.8610, 13307.00
681.0200, 13218.00
682.1780, 13318.00
683.3360, 13297.00
684.4940, 13334.00
685.6520, 13272.00
686.8090, 13534.00
687.9670, 13437.00
689.1240, 13468.00
690.2810, 13389.00
691.4380, 13440.00
692.5950, 13352.00
693.7520, 13479.00
694.9080, 13333.00
696.0650, 13418.00
697.2210, 13389.00
698.3770, 13281.00
699.5330, 13162.00
700.6880, 13234.00
701.8440, 13190.35
702.9990, 13255.00
704.1550, 13272.00
705.3100, 13308.00
706.4650, 13383.00
707.6190, 13434.79
708.7740, 13630.00
709.9290, 13621.00
711.0830, 13689.00
712.2370, 13861.00
713.3910, 13787.00
714.5450, 13726.00
715.6980, 13831.00
716.8520, 13711.00
718.0050, 13593.00
719.1580, 13341.00
720.3110, 12869.00
721.4640, 12710.00
722.6170, 12242.00
723.7700, 11872.00
724.9220, 11512.00
726.0740, 11421.00
727.2260, 11203.00
728.3780, 11061.00
729.5300, 11018.00
730.6810, 10874.00
731.8330, 11020.00
732.9840, 11091.00
734.1350, 10931.00
735.2860, 11166.00
736.4370, 11096.00
737.5880, 11129.00
738.7380, 11294.00
739.8880, 11339.00
741.0390, 11368.00
742.1890, 11433.00
743.3380, 11381.00
744.4880, 11525.00
745.6380, 11451.00
746.7870, 11540.00
747.9360, 11431.00
749.0850, 11240.00
750.2340, 11356.00
751.3830, 11044.00
752.5310, 11043.00
753.6800, 11128.00
754.8280, 11036.00
755.9760, 11071.00
757.1240, 10849.00
758.2720, 10696.00
759.4190, 10678.00
760.5670, 10668.00
761.7140, 10597.00
762.8610, 10458.00
764.0080, 10526.00
765.1550, 10517.00
766.3020, 10360.00
767.4480, 10328.00
768.5950, 10417.00
769.7410, 10249.00
770.8870, 10328.00
772.0330, 10306.00
773.1780, 10401.00
774.3240, 10479.00
775.4690, 10347.00
776.6140, 10365.00
777.7590, 10434.00
778.9040, 10336.00
780.0490, 10526.00
781.1940, 10442.00
782.3380, 10468.00
783.4820, 10360.00
784.6260, 10345.00
785.7700, 10559.00
786.9140, 10597.00
788.0580, 10629.00
789.2010, 10636.00
790.3450, 10691.82
791.4880, 10721.13
792.6310, 10815.00
793.7730, 10832.00
794.9160, 10951.00
796.0590, 11071.00
797.2010, 11325.00
798.3430, 11630.00
799.4850, 11787.00
800.6270, 12042.00
801.7690, 12231.00
802.9100, 12515.00
804.0520, 12820.00
805.1930, 13261.00
806.3340, 13266.00
807.4750, 13374.00
808.6160, 13660.00
809.7560, 13561.00
810.8970, 13742.00
812.0370, 13594.00
813.1770, 13586.00
814.3170, 13641.00
815.4570, 13719.00
816.5960, 13789.00
817.7360, 13845.00
818.8750, 14027.00
820.0140, 14007.00
821.1530, 14016.00
822.2920, 13828.00
823.4310, 13733.00
824.5690, 13604.00
825.7070, 13369.00
826.8460, 13108.00
827.9840, 12873.00
829.1220, 12727.00
830.2590, 12675.00
831.3970, 12616.00
832.5340, 12381.00
833.6710, 12274.00
834.8080, 12003.00
835.9450, 11876.00
837.0820, 11579.00
838.2190, 11337.00
839.3550, 10942.00
840.4910, 10910.00
841.6270, 10632.00
842.7630, 10446.00
843.8990, 10489.00
845.0350, 10195.00
846.1700, 10272.00
847.3060, 10111.00
848.4410, 10075.00
849.5760, 9926.000
850.7100, 9951.000
851.8450, 9996.000
852.9800, 10084.00
854.1140, 10020.00
855.2480, 9841.000
856.3820, 10025.00
857.5160, 9936.000
858.6500, 9999.000
859.7830, 9968.000
860.9170, 9904.000
862.0500, 10007.00
863.1830, 10122.00
864.3160, 10044.00
865.4480, 10101.00
866.5810, 10162.00
867.7130, 10294.00
868.8460, 10196.00
869.9780, 10324.00
871.1100, 10375.00
872.2410, 10311.00
873.3730, 10487.00
874.5050, 10436.00
875.6360, 10424.00
876.7670, 10410.00
877.8980, 10584.00
879.0290, 10639.00
880.1590, 10685.00
881.2900, 10736.00
882.4200, 10824.82
883.5500, 10728.00
884.6800, 10964.00
885.8100, 10987.00
886.9400, 10950.00
888.0690, 11167.00
889.1990, 11238.00
890.3280, 11356.00
891.4570, 11469.00
892.5860, 11669.00
893.7140, 11902.00
894.8430, 11986.00
895.9710, 12300.00
897.1000, 12465.00
898.2280, 12873.00
899.3560, 13326.00
900.4830, 13632.00
901.6110, 14410.00
902.7380, 14710.00
903.8660, 15560.00
904.9930, 16375.00
906.1200, 17525.00
907.2460, 19042.00
908.3730, 21132.00
909.5000, 23860.00
910.6260, 27436.00
911.7520, 31542.00
912.8780, 36563.00
914.0040, 42126.00
915.1290, 48070.00
916.2550, 54559.00
917.3800, 60215.00
918.5050, 64491.00
919.6300, 65535.00
920.7550, 63527.00
921.8800, 58973.00
923.0040, 52762.00
924.1290, 46945.00
925.2530, 42720.00
926.3770, 39456.00
927.5010, 36658.00
928.6250, 34460.00
929.7480, 31947.00
930.8720, 29227.00
931.9950, 26524.00
933.1180, 23982.00
934.2410, 21951.00
935.3640, 20174.00
936.4860, 18724.00
937.6090, 17615.00
938.7310, 16706.00
939.8530, 16123.00
940.9750, 15590.00
942.0970, 14973.00
943.2180, 14828.00
944.3400, 14498.00
945.4610, 14332.00
946.5820, 14326.00
947.7030, 14255.00
948.8240, 14242.00
949.9450, 14065.00
951.0650, 13898.00
952.1860, 13676.00
953.3060, 13406.00
954.4260, 13242.00
955.5460, 12950.00
956.6650, 12482.00
957.7850, 12142.84
958.9040, 12272.44
960.0230, 12295.37
961.1420, 12217.36
962.2610, 11736.11
963.3800, 11620.00
964.4990, 11559.00
965.6170, 11514.00
966.7350, 11349.00
967.8530, 11398.21
968.9710, 11420.84
970.0890, 11495.00
971.2070, 11456.00
972.3240, 11612.00
973.4410, 11344.00
974.5580, 11621.00
975.6750, 11563.00
976.7920, 11529.00
977.9090, 11621.00
979.0250, 11607.00
980.1410, 11501.00
981.2580, 11718.00
982.3740, 11600.00
983.4890, 11412.00
984.6050, 11479.00
985.7200, 11467.00
986.8360, 11411.00
987.9510, 11566.00
989.0660, 11639.00
990.1810, 11610.00
991.2950, 11639.00
992.4100, 11666.00
993.5240, 11858.00
994.6390, 11720.00
995.7530, 11987.00
996.8660, 12263.00
997.9800, 12385.00
999.0940, 12809.00
1000.207, 13278.00
1001.320, 13657.00
1002.433, 13967.00
1003.546, 14293.00
1004.659, 14606.00
1005.772, 14666.00
1006.884, 14868.00
1007.996, 14807.00
1009.108, 14737.00
1010.220, 14729.00
1011.332, 14772.00
1012.444, 14883.00
1013.555, 14996.00
1014.666, 15119.00
1015.777, 15398.00
1016.888, 15760.00
1017.999, 16136.00
1019.110, 16163.00
1020.220, 16237.00
1021.331, 16017.00
1022.441, 15650.00
1023.551, 15085.00
1024.661, 14700.00
1025.770, 14296.00
1026.880, 13865.00
1027.989, 13569.79
1029.098, 13248.46
1030.207, 12999.00
1031.316, 12766.00
1032.425, 12539.00
1033.533, 12408.00
1034.642, 12272.00
1035.750, 12149.76
1036.858, 12060.00
1037.966, 12009.00
1039.073, 11979.00
1040.181, 11917.10
1041.288, 11866.01
1042.396, 11838.00
1043.503, 11755.00
1044.610, 11725.00
1045.716, 11685.00
1046.823, 11681.00
1047.929, 11636.00
1049.036, 11637.00
1050.142, 11753.01
1051.248, 11880.00
1052.353, 12045.00
1053.459, 12200.00
1054.564, 12374.00
1055.670, 12800.00
1056.775, 13304.00
1057.880, 13854.00
1058.985, 14532.00
1060.089, 15295.00
1061.194, 16193.00
1062.298, 16843.00
1063.402, 17307.00
1064.506, 17380.00
1065.610, 17111.00
1066.713, 16302.00
1067.817, 15559.00
1068.920, 14546.00
1070.023, 14067.00
1071.126, 13383.00
1072.229, 13083.00
1073.332, 12757.00
1074.435, 12383.00
1075.537, 12335.23
1076.639, 12236.00
1077.741, 12229.00
1078.843, 12127.00
1079.945, 12008.00
1081.046, 12034.00
1082.148, 11995.00
1083.249, 11995.00
1084.350, 12036.00
1085.451, 12041.20
1086.551, 12052.53
1087.652, 12108.00
1088.752, 12051.00
1089.853, 12074.00
1090.953, 12037.00
1092.053, 11999.00
1093.152, 11998.25
1094.252, 11977.35
1095.351, 11971.00
1096.451, 11969.00
1097.550, 11969.00
1098.649, 11970.00
1099.748, 12003.00
1100.846, 12022.00
1101.945, 12052.00
1103.043, 12285.00
1104.141, 12189.00
1105.239, 12471.00
1106.337, 12531.00
1107.434, 12663.00
1108.532, 12678.00
1109.629, 12632.00
1110.726, 12630.83
1111.823, 12430.00
1112.920, 12404.00
1114.017, 12205.00
1115.113, 12105.05
1116.210, 11791.00
1117.306, 11846.00
1118.402, 11666.00
1119.498, 11469.00
1120.593, 11572.00
1121.689, 11489.00
1122.784, 11547.00
1123.879, 11417.00
1124.974, 11410.00
1126.069, 11387.00
1127.164, 11367.00
1128.259, 11120.00
1129.353, 11260.00
1130.447, 11192.00
1131.541, 11314.00
1132.635, 11191.00
1133.729, 11241.00
1134.822, 11280.00
1135.916, 11056.00
1137.009, 11184.00
1138.102, 11118.00
1139.195, 11156.00
1140.288, 11276.00
1141.380, 11140.00
1142.473, 11300.00
1143.565, 11189.00
1144.657, 11252.00
1145.749, 11106.00
1146.841, 11286.00
1147.932, 11177.00
1149.024, 11172.00
1150.115, 11223.00
1151.206, 11197.00
1152.297, 11232.00
1153.388, 11197.00
1154.479, 11233.00
1155.569, 11191.00
1156.659, 11297.00
1157.750, 11235.00
1158.839, 11277.00
1159.929, 11239.00
1161.019, 11270.00
1162.108, 11302.00
1163.198, 11238.00
1164.287, 11253.40
1165.376, 11334.00
1166.465, 11217.00
1167.553, 11259.00
1168.642, 11262.00
1169.730, 11132.00
1170.818, 11200.00
1171.906, 11090.00
1172.994, 11114.80
1174.082, 11254.00
1175.170, 11181.00
1176.257, 11159.00
1177.344, 11247.00
1178.431, 11172.00
1179.518, 11161.00
1180.605, 11290.00
1181.691, 11212.00
1182.778, 11296.00
1183.864, 11311.00
1184.950, 11380.00
1186.036, 11399.12
1187.122, 11326.00
1188.207, 11395.00
1189.292, 11354.00
1190.378, 11267.00
1191.463, 11312.00
1192.548, 11295.00
1193.632, 11357.00
1194.717, 11309.00
1195.801, 11341.56
1196.886, 11335.60
1197.970, 11368.00
1199.054, 11325.00
1200.137, 11328.00
1201.221, 11333.00
1202.305, 11320.00
1203.388, 11357.00
1204.471, 11354.00
1205.554, 11370.00
1206.637, 11382.30
1207.719, 11324.00
1208.802, 11385.00
1209.884, 11297.00
1210.966, 11262.00
1212.048, 11283.00
1213.130, 11270.00
1214.212, 11274.00
1215.293, 11273.00
1216.374, 11276.00
1217.456, 11350.00
1218.536, 11295.00
1219.617, 11357.00
1220.698, 11280.00
1221.778, 11284.00
1222.859, 11276.00
1223.939, 11306.00
1225.019, 11406.00
1226.099, 11221.00
1227.178, 11233.00
1228.258, 11507.00
1229.337, 11427.00
1230.417, 11305.00
1231.496, 11348.00
1232.574, 11307.00
1233.653, 11346.00
1234.732, 11342.08
1235.810, 11394.00
1236.888, 11323.00
1237.966, 11356.00
1239.044, 11298.00
1240.122, 11282.00
1241.199, 11370.00
1242.277, 11447.00
1243.354, 11342.00
1244.431, 11326.00
1245.508, 11404.00
1246.585, 11338.01
1247.661, 11387.02
1248.738, 11316.00
1249.814, 11385.00
1250.890, 11367.00
1251.966, 11258.00
1253.042, 11364.00
1254.117, 11340.00
1255.193, 11433.00
1256.268, 11298.00
1257.343, 11412.00
1258.418, 11408.00
1259.493, 11434.00
1260.567, 11484.00
1261.642, 11424.00
1262.716, 11434.00
1263.790, 11459.00
1264.864, 11397.00
1265.938, 11433.00
1267.011, 11477.00
1268.085, 11423.09
1269.158, 11499.00
1270.231, 11405.00
1271.304, 11408.00
1272.377, 11490.00
1273.450, 11471.00
1274.522, 11404.00
1275.594, 11483.00
1276.666, 11538.00
1277.738, 11365.00
1278.810, 11442.00
1279.882, 11533.00
1280.953, 11297.00
1282.025, 11479.00
1283.096, 11546.00
1284.167, 11346.00
1285.238, 11474.00
1286.308, 11477.00
1287.379, 11445.00
1288.449, 11434.00
1289.519, 11565.00
1290.589, 11541.00
1291.659, 11596.00
1292.729, 11591.11
1293.798, 11424.00
1294.868, 11528.00
1295.937, 11504.00
1297.006, 11444.00
1298.075, 11621.00
1299.143, 11388.00
1300.212, 11514.00
1301.280, 11478.00
1302.348, 11502.00
1303.416, 11536.66
1304.484, 11473.00
1305.552, 11531.00
1306.620, 11454.00
1307.687, 11381.00
1308.754, 11315.00
1309.821, 11557.00
1310.888, 11579.00
1311.955, 11541.00
1313.021, 11543.00
1314.088, 11605.00
1315.154, 11591.77
1316.220, 11625.00
1317.286, 11619.00
1318.352, 11585.00
1319.417, 11565.00
1320.483, 11665.00
1321.548, 11578.00
1322.613, 11637.00
1323.678, 11559.00
1324.743, 11741.00
1325.807, 11685.00
1326.872, 11595.00
1327.936, 11501.00
1329.000, 11531.00
1330.064, 11578.00
1331.128, 11555.00
1332.191, 11592.88
1333.255, 11648.00
1334.318, 11643.00
1335.381, 11686.00
1336.444, 11750.00
1337.507, 11586.00
1338.569, 11615.00
1339.632, 11696.00
1340.694, 11665.00
1341.756, 11717.00
1342.818, 11696.00
1343.880, 11783.00
1344.941, 11685.00
1346.003, 11862.00
1347.064, 11967.00
1348.125, 11911.00
1349.186, 11923.00
1350.247, 11760.00
1351.308, 11738.00
1352.368, 11683.00
1353.428, 11733.00
1354.489, 11747.00
1355.549, 11743.00
1356.608, 11745.00
1357.668, 11763.00
1358.727, 11892.00
1359.787, 11857.00
1360.846, 11805.00
1361.905, 11924.00
1362.964, 11807.00
1364.022, 11858.00
1365.081, 11951.00
1366.139, 11826.00
1367.197, 12017.00
1368.255, 11877.00
1369.313, 11866.00
1370.371, 11914.00
1371.428, 12009.00
1372.486, 11961.00
1373.543, 12088.00
1374.600, 11835.00
1375.657, 12056.00
1376.713, 12038.00
1377.770, 11945.00
1378.826, 12015.00
1379.882, 11967.00
1380.938, 12060.00
1381.994, 12003.00
1383.050, 11916.00
1384.106, 12001.00
1385.161, 11998.00
1386.216, 12073.00
1387.271, 11985.00
1388.326, 12029.00
1389.381, 12030.00
1390.435, 12109.00
1391.490, 11995.00
1392.544, 12000.00
1393.598, 12048.00
1394.652, 12065.00
1395.705, 12029.00
1396.759, 12103.00
1397.812, 11973.00
1398.866, 11848.00
1399.919, 12003.00
1400.972, 11905.00
1402.024, 12064.00
1403.077, 11985.00
1404.129, 12044.00
1405.181, 12034.00
1406.233, 12028.00
1407.285, 12069.07
1408.337, 12043.00
1409.389, 12090.00
1410.440, 12118.00
1411.491, 12062.00
1412.542, 12146.00
1413.593, 12086.00
1414.644, 12104.00
1415.695, 11953.00
1416.745, 12042.00
1417.795, 12031.00
1418.845, 12056.00
1419.895, 12138.00
1420.945, 12115.00
1421.995, 12074.00
1423.044, 12011.00
1424.093, 12160.00
1425.142, 12233.00
1426.191, 12097.00
1427.240, 12049.00
1428.289, 12166.00
1429.337, 12111.00
1430.385, 12154.00
1431.433, 12177.00
1432.481, 12142.69
1433.529, 12221.00
1434.577, 12157.00
1435.624, 12157.00
1436.672, 12277.00
1437.719, 12225.00
1438.766, 12424.00
1439.812, 12271.00
1440.859, 12270.00
1441.905, 12380.00
1442.952, 12341.00
1443.998, 12370.00
1445.044, 12402.00
1446.090, 12330.00
1447.135, 12365.00
1448.181, 12448.00
1449.226, 12411.00
1450.271, 12512.00
1451.316, 12478.00
1452.361, 12538.00
1453.405, 12462.00
1454.450, 12395.00
1455.494, 12487.00
1456.538, 12593.00
1457.582, 12569.00
1458.626, 12485.00
1459.670, 12695.00
1460.713, 12407.00
1461.757, 12591.00
1462.800, 12452.00
1463.843, 12390.00
1464.886, 12444.00
1465.928, 12491.00
1466.971, 12364.00
1468.013, 12612.00
1469.055, 12468.00
1470.097, 12579.00
1471.139, 12423.00
1472.181, 12483.00
1473.222, 12603.00
1474.263, 12393.00
1475.305, 12434.00
1476.346, 12367.00
1477.386, 12446.00
1478.427, 12471.00
1479.468, 12418.00
1480.508, 12479.04
1481.548, 12502.00
1482.588, 12528.00
1483.628, 12536.23
1484.668, 12467.00
1485.707, 12515.00
1486.747, 12519.00
1487.786, 12486.00
1488.825, 12636.00
1489.864, 12487.00
1490.902, 12363.00
1491.941, 12355.00
1492.979, 12548.00
1494.017, 12532.00
1495.055, 12602.00
1496.093, 12453.00
1497.131, 12624.00
1498.168, 12591.00
1499.206, 12478.00
1500.243, 12524.00
1501.280, 12503.15
1502.317, 12626.00
1503.354, 12575.00
1504.390, 12594.00
1505.426, 12685.00
1506.463, 12552.00
1507.499, 12610.00
1508.535, 12576.00
1509.570, 12681.00
1510.606, 12583.00
1511.641, 12528.00
1512.676, 12763.00
1513.711, 12768.00
1514.746, 12725.00
1515.781, 12592.00
1516.816, 12723.00
1517.850, 12745.00
1518.884, 12650.00
1519.918, 12746.00
1520.952, 12716.00
1521.986, 12822.00
1523.019, 12814.00
1524.053, 12803.00
1525.086, 12828.00
1526.119, 12798.60
1527.152, 12765.00
1528.185, 12769.15
1529.217, 12805.00
1530.250, 12815.00
1531.282, 12818.47
1532.314, 12747.00
1533.346, 12816.00
1534.377, 12794.00
1535.409, 12784.00
1536.440, 12878.00
1537.472, 12927.00
1538.503, 12981.00
1539.534, 13017.00
1540.564, 12956.00
1541.595, 12927.00
1542.625, 12827.00
1543.656, 13079.00
1544.686, 12923.00
1545.716, 13106.00
1546.745, 12939.00
1547.775, 13128.00
1548.804, 13119.00
1549.834, 13126.00
1550.863, 13318.00
1551.892, 13288.00
1552.920, 13379.00
1553.949, 13528.00
1554.977, 13426.00
1556.006, 13397.00
1557.034, 13181.00
1558.062, 13197.00
1559.089, 13208.00
1560.117, 13217.00
1561.144, 13148.00
1562.172, 13232.00
1563.199, 13130.00
1564.226, 13029.00
1565.252, 13300.00
1566.279, 13097.00
1567.305, 13150.00
1568.332, 13166.00
1569.358, 13099.00
1570.384, 13343.00
##END=



