##NAMES=Andalusite
##RRUFFID=R050258
##IDEAL CHEMISTRY=Al_2_SiO_5_
##LOCALITY=Bautista Canyon, near Hemet, Riverside County, California, USA
##OWNER=RRUFF
##SOURCE=Marcus Origlieri
##DESCRIPTION=Brown fragment
##STATUS=The identification of this mineral has been confirmed by X-ray diffraction and chemical analysis
##URL=rruff.info/R050258
##MEASURED CHEMISTRY=Al_2.00_Si_1.00_O_5_
##PIN_ID=M00208
##ORIENTATION=Laser parallel to -c* (0 0 -1). Fiducial mark perpendicular to laser is parallel to a [1 0 0]
99.64900, 5023.815
100.8830, 5246.000
102.1160, 5104.000
103.3490, 5241.000
104.5820, 5333.000
105.8150, 5653.000
107.0470, 6054.000
108.2800, 6273.000
109.5120, 6798.000
110.7440, 6512.000
111.9760, 5883.000
113.2080, 5836.000
114.4400, 5891.000
115.6710, 6216.000
116.9030, 6092.000
118.1340, 5984.000
119.3650, 6020.000
120.5960, 5928.000
121.8270, 6001.000
123.0580, 6119.000
124.2880, 6196.000
125.5190, 6035.000
126.7490, 6072.000
127.9790, 6162.000
129.2090, 6292.000
130.4390, 6352.000
131.6680, 6367.000
132.8980, 6289.000
134.1270, 6312.000
135.3560, 6517.000
136.5850, 6384.000
137.8140, 6578.000
139.0430, 6752.000
140.2710, 6730.000
141.5000, 6680.000
142.7280, 6542.000
143.9560, 6458.000
145.1840, 6458.000
146.4120, 6469.000
147.6390, 6477.000
148.8670, 6491.000
150.0940, 6546.000
151.3210, 6520.000
152.5490, 6563.000
153.7750, 6565.000
155.0020, 6680.000
156.2290, 6605.000
157.4550, 6600.000
158.6810, 6498.000
159.9080, 6572.000
161.1340, 6609.000
162.3590, 6611.000
163.5850, 6706.000
164.8110, 6783.000
166.0360, 6898.000
167.2610, 7037.000
168.4860, 6943.000
169.7110, 7056.000
170.9360, 7064.000
172.1610, 6987.000
173.3850, 7031.000
174.6100, 6983.000
175.8340, 7008.740
177.0580, 7076.000
178.2820, 7115.000
179.5050, 7152.000
180.7290, 7306.000
181.9520, 7378.000
183.1760, 7464.000
184.3990, 7623.000
185.6220, 7813.000
186.8450, 8114.000
188.0670, 8305.000
189.2900, 8421.000
190.5120, 8365.000
191.7340, 8393.000
192.9560, 8554.000
194.1780, 8533.000
195.4000, 8602.000
196.6220, 8580.000
197.8430, 8693.000
199.0640, 8666.000
200.2860, 8780.000
201.5070, 9027.000
202.7270, 9026.000
203.9480, 8780.000
205.1690, 8282.000
206.3890, 7911.000
207.6090, 7631.000
208.8290, 7414.000
210.0490, 7422.000
211.2690, 7353.000
212.4890, 7386.000
213.7080, 7387.000
214.9280, 7404.000
216.1470, 7356.000
217.3660, 7416.000
218.5850, 7360.000
219.8030, 7428.000
221.0220, 7519.000
222.2400, 7370.000
223.4590, 7526.000
224.6770, 7415.000
225.8950, 7473.000
227.1120, 7460.000
228.3300, 7494.000
229.5480, 7606.000
230.7650, 7616.000
231.9820, 7680.000
233.1990, 7874.000
234.4160, 7887.000
235.6330, 7920.000
236.8490, 8040.000
238.0660, 8081.000
239.2820, 8338.000
240.4980, 8298.000
241.7140, 8286.000
242.9300, 8176.000
244.1460, 8124.000
245.3610, 8052.000
246.5770, 8023.000
247.7920, 8079.000
249.0070, 7867.000
250.2220, 7973.000
251.4370, 7985.000
252.6510, 7920.000
253.8660, 7952.000
255.0800, 7924.231
256.2940, 8027.483
257.5080, 8000.000
258.7220, 8188.000
259.9360, 8460.000
261.1490, 8372.000
262.3630, 8029.000
263.5760, 8218.000
264.7890, 8113.000
266.0020, 8254.000
267.2150, 8339.000
268.4270, 8490.000
269.6400, 8555.000
270.8520, 8721.000
272.0640, 8921.000
273.2760, 9167.000
274.4880, 9322.000
275.7000, 9838.000
276.9120, 10300.00
278.1230, 10786.00
279.3340, 11741.00
280.5450, 13330.00
281.7560, 14883.00
282.9670, 16906.00
284.1780, 18838.00
285.3880, 20649.00
286.5980, 22123.00
287.8090, 23307.00
289.0190, 24178.00
290.2290, 23704.00
291.4380, 22119.00
292.6480, 19971.00
293.8570, 17912.00
295.0670, 15945.00
296.2760, 14117.00
297.4850, 12879.00
298.6930, 11657.00
299.9020, 10632.00
301.1110, 10024.00
302.3190, 9689.000
303.5270, 9453.000
304.7350, 9448.000
305.9430, 9507.000
307.1510, 10008.00
308.3580, 10560.00
309.5660, 11830.00
310.7730, 13898.00
311.9800, 16182.00
313.1870, 18928.00
314.3940, 21179.00
315.6010, 23142.00
316.8070, 25634.00
318.0130, 27149.00
319.2200, 26856.00
320.4260, 25332.00
321.6310, 23034.00
322.8370, 20490.00
324.0430, 17660.00
325.2480, 15465.00
326.4540, 13965.00
327.6590, 12506.00
328.8640, 11589.00
330.0680, 10884.00
331.2730, 10352.00
332.4780, 10152.00
333.6820, 9949.000
334.8860, 9871.000
336.0900, 9754.210
337.2940, 9825.000
338.4980, 9708.000
339.7010, 9866.000
340.9050, 10022.00
342.1080, 10104.00
343.3110, 10397.00
344.5140, 10833.00
345.7170, 11617.00
346.9200, 12463.00
348.1220, 14088.00
349.3240, 15916.00
350.5270, 17851.00
351.7290, 19838.00
352.9310, 21684.00
354.1320, 23015.00
355.3340, 24349.00
356.5350, 24646.00
357.7370, 24378.00
358.9380, 23098.00
360.1390, 21478.00
361.3400, 19835.00
362.5400, 18120.00
363.7410, 16762.00
364.9410, 15546.00
366.1410, 14538.00
367.3410, 13813.00
368.5410, 13197.00
369.7410, 12748.00
370.9400, 12472.00
372.1400, 11917.00
373.3390, 11665.00
374.5380, 11446.00
375.7370, 11174.00
376.9360, 10955.00
378.1350, 10929.00
379.3330, 11000.00
380.5310, 10704.00
381.7300, 10834.00
382.9280, 10854.00
384.1260, 10865.00
385.3230, 10881.00
386.5210, 11008.00
387.7180, 11113.00
388.9160, 11312.00
390.1130, 11382.00
391.3100, 11367.00
392.5060, 11139.00
393.7030, 11046.00
394.9000, 10959.00
396.0960, 10725.00
397.2920, 10758.00
398.4880, 10708.00
399.6840, 10650.00
400.8800, 10586.00
402.0750, 10681.00
403.2710, 10719.68
404.4660, 10813.16
405.6610, 10905.00
406.8560, 11147.00
408.0510, 11183.00
409.2450, 11520.00
410.4400, 11700.00
411.6340, 12023.00
412.8280, 12136.00
414.0220, 12412.00
415.2160, 12541.00
416.4100, 12437.00
417.6030, 12334.00
418.7970, 11996.00
419.9900, 11868.00
421.1830, 11480.00
422.3760, 11082.00
423.5690, 10892.00
424.7610, 10670.00
425.9540, 10589.00
427.1460, 10461.00
428.3380, 10516.00
429.5300, 10355.00
430.7220, 10312.00
431.9140, 10201.00
433.1050, 10364.00
434.2970, 10392.00
435.4880, 10312.00
436.6790, 10423.00
437.8700, 10471.00
439.0610, 10710.00
440.2510, 10698.00
441.4420, 10864.00
442.6320, 11326.00
443.8220, 11384.00
445.0120, 11803.00
446.2020, 11769.00
447.3910, 12002.00
448.5810, 12143.00
449.7700, 12085.00
450.9600, 11819.00
452.1490, 11507.00
453.3370, 11145.00
454.5260, 10761.00
455.7150, 10521.00
456.9030, 10347.00
458.0910, 10167.52
459.2800, 10101.00
460.4670, 10026.00
461.6550, 10059.00
462.8430, 10122.00
464.0300, 9973.000
465.2180, 10091.00
466.4050, 9958.000
467.5920, 10114.00
468.7790, 10079.00
469.9650, 10273.00
471.1520, 10285.00
472.3380, 10283.00
473.5250, 10437.00
474.7110, 10559.00
475.8970, 10402.00
477.0820, 10640.00
478.2680, 10689.00
479.4540, 10815.00
480.6390, 10886.00
481.8240, 10858.00
483.0090, 10936.00
484.1940, 10869.00
485.3780, 10924.00
486.5630, 10689.00
487.7470, 10765.00
488.9320, 10741.00
490.1160, 10726.00
491.3000, 10786.00
492.4830, 10748.00
493.6670, 10704.00
494.8500, 10896.00
496.0340, 10952.00
497.2170, 11090.00
498.4000, 11153.00
499.5820, 11135.00
500.7650, 11423.00
501.9480, 11511.00
503.1300, 11526.00
504.3120, 11667.00
505.4940, 11745.00
506.6760, 11937.00
507.8580, 11971.00
509.0390, 12043.00
510.2210, 12286.00
511.4020, 12162.00
512.5830, 12104.00
513.7640, 12251.00
514.9450, 12051.00
516.1250, 11959.00
517.3060, 12233.00
518.4860, 12176.00
519.6660, 12083.00
520.8460, 12064.00
522.0260, 12076.00
523.2060, 12134.53
524.3850, 12215.67
525.5650, 12365.00
526.7440, 12443.00
527.9230, 12602.00
529.1020, 12703.00
530.2810, 12878.00
531.4590, 13005.00
532.6380, 13142.00
533.8160, 13267.00
534.9940, 13517.00
536.1720, 13915.00
537.3500, 14214.00
538.5270, 14494.00
539.7050, 14836.00
540.8820, 15437.00
542.0590, 15800.00
543.2360, 16449.00
544.4130, 16881.00
545.5900, 17526.00
546.7660, 17867.00
547.9430, 18206.00
549.1190, 18447.00
550.2950, 18484.00
551.4710, 18416.00
552.6470, 17811.00
553.8220, 17294.00
554.9980, 16855.00
556.1730, 16595.00
557.3480, 16089.00
558.5230, 15793.00
559.6980, 15358.00
560.8730, 15264.00
562.0470, 15180.00
563.2220, 15136.00
564.3960, 15032.00
565.5700, 15005.00
566.7440, 15025.00
567.9170, 15218.00
569.0910, 15185.00
570.2640, 15174.67
571.4380, 15003.00
572.6110, 14994.00
573.7840, 14809.00
574.9570, 14587.00
576.1290, 14460.00
577.3020, 14369.00
578.4740, 14148.00
579.6460, 14171.00
580.8180, 13864.00
581.9900, 13862.00
583.1620, 13783.00
584.3330, 13615.00
585.5040, 13565.00
586.6760, 13417.00
587.8470, 13430.00
589.0180, 13343.00
590.1880, 13281.00
591.3590, 13158.00
592.5290, 13330.00
593.7000, 13242.00
594.8700, 13151.00
596.0400, 13533.00
597.2090, 13177.00
598.3790, 13257.00
599.5490, 13471.00
600.7180, 13620.00
601.8870, 13711.00
603.0560, 13785.00
604.2250, 13799.00
605.3940, 14022.00
606.5620, 14359.00
607.7300, 14348.00
608.8990, 14536.00
610.0670, 14690.00
611.2350, 14745.00
612.4020, 15036.00
613.5700, 15058.00
614.7370, 15203.00
615.9050, 15365.00
617.0720, 15506.00
618.2390, 15485.00
619.4060, 15553.00
620.5720, 15652.00
621.7390, 15783.00
622.9050, 15761.00
624.0710, 15878.00
625.2370, 15983.00
626.4030, 15974.00
627.5690, 16221.00
628.7340, 16147.00
629.9000, 16025.00
631.0650, 16327.00
632.2300, 16149.00
633.3950, 16014.00
634.5600, 16031.00
635.7240, 15887.00
636.8890, 16039.00
638.0530, 15800.00
639.2170, 15863.00
640.3810, 15653.00
641.5450, 15745.00
642.7080, 15645.00
643.8720, 15789.00
645.0350, 15685.00
646.1980, 15689.00
647.3610, 15331.00
648.5240, 15452.00
649.6870, 15059.00
650.8490, 14860.00
652.0120, 14710.00
653.1740, 14497.00
654.3360, 14201.00
655.4980, 14215.00
656.6600, 14128.00
657.8210, 14102.00
658.9830, 13894.00
660.1440, 13883.00
661.3050, 13714.00
662.4660, 13498.00
663.6270, 13334.00
664.7870, 13058.00
665.9480, 12804.00
667.1080, 12762.00
668.2680, 12608.00
669.4280, 12641.00
670.5880, 12592.00
671.7480, 12341.00
672.9070, 12544.00
674.0670, 12463.00
675.2260, 12387.00
676.3850, 12503.00
677.5440, 12495.00
678.7030, 12433.00
679.8610, 12586.00
681.0200, 12469.00
682.1780, 12320.00
683.3360, 12539.00
684.4940, 12454.00
685.6520, 12379.00
686.8090, 12473.00
687.9670, 12474.00
689.1240, 12468.00
690.2810, 12590.00
691.4380, 12694.00
692.5950, 12549.00
693.7520, 12791.00
694.9080, 12714.00
696.0650, 12825.00
697.2210, 13017.00
698.3770, 12995.00
699.5330, 13108.00
700.6880, 13183.00
701.8440, 13383.00
702.9990, 13385.00
704.1550, 13482.00
705.3100, 13668.00
706.4650, 13781.00
707.6190, 14132.00
708.7740, 14378.00
709.9290, 14722.00
711.0830, 15072.00
712.2370, 15268.00
713.3910, 15563.00
714.5450, 15726.00
715.6980, 15636.00
716.8520, 15361.00
718.0050, 15067.00
719.1580, 14782.00
720.3110, 14524.00
721.4640, 14113.00
722.6170, 13852.00
723.7700, 13625.00
724.9220, 13412.62
726.0740, 13364.00
727.2260, 13204.00
728.3780, 13177.00
729.5300, 13251.00
730.6810, 13104.00
731.8330, 13293.00
732.9840, 13174.00
734.1350, 13294.00
735.2860, 13304.00
736.4370, 13146.00
737.5880, 13253.00
738.7380, 13053.00
739.8880, 13028.00
741.0390, 13123.00
742.1890, 13137.00
743.3380, 13127.00
744.4880, 13175.00
745.6380, 13101.00
746.7870, 13023.00
747.9360, 13147.00
749.0850, 13106.00
750.2340, 13231.00
751.3830, 13164.00
752.5310, 13248.00
753.6800, 13280.00
754.8280, 13177.00
755.9760, 13124.00
757.1240, 13143.00
758.2720, 13290.00
759.4190, 13185.00
760.5670, 13293.00
761.7140, 13125.00
762.8610, 13194.00
764.0080, 13145.00
765.1550, 13261.00
766.3020, 13162.00
767.4480, 13325.00
768.5950, 13341.00
769.7410, 13279.00
770.8870, 13387.00
772.0330, 13415.00
773.1780, 13474.00
774.3240, 13503.80
775.4690, 13613.00
776.6140, 13514.00
777.7590, 13643.00
778.9040, 13616.00
780.0490, 13645.00
781.1940, 13777.00
782.3380, 13773.00
783.4820, 13973.00
784.6260, 14021.00
785.7700, 14077.66
786.9140, 14183.00
788.0580, 14191.00
789.2010, 14205.00
790.3450, 14286.00
791.4880, 14452.00
792.6310, 14479.00
793.7730, 14635.62
794.9160, 14742.00
796.0590, 14875.00
797.2010, 15037.00
798.3430, 15105.00
799.4850, 15257.00
800.6270, 15496.00
801.7690, 15695.00
802.9100, 15787.00
804.0520, 16043.00
805.1930, 16327.85
806.3340, 16664.13
807.4750, 17064.00
808.6160, 17342.00
809.7560, 17850.00
810.8970, 17885.00
812.0370, 18453.00
813.1770, 18748.00
814.3170, 19148.00
815.4570, 19377.00
816.5960, 19568.49
817.7360, 19891.00
818.8750, 19716.00
820.0140, 19739.00
821.1530, 19533.00
822.2920, 19180.00
823.4310, 18950.00
824.5690, 18557.00
825.7070, 17958.00
826.8460, 17611.00
827.9840, 17310.00
829.1220, 16954.00
830.2590, 16785.00
831.3970, 16577.00
832.5340, 16377.00
833.6710, 16249.00
834.8080, 16020.38
835.9450, 15861.22
837.0820, 15631.00
838.2190, 15480.00
839.3550, 15325.00
840.4910, 15075.00
841.6270, 15005.00
842.7630, 14870.00
843.8990, 14867.00
845.0350, 14860.00
846.1700, 14638.00
847.3060, 14626.00
848.4410, 14605.00
849.5760, 14569.00
850.7100, 14559.95
851.8450, 14526.24
852.9800, 14549.00
854.1140, 14486.00
855.2480, 14522.00
856.3820, 14543.00
857.5160, 14492.00
858.6500, 14695.00
859.7830, 14524.00
860.9170, 14659.00
862.0500, 14724.00
863.1830, 14745.00
864.3160, 14691.00
865.4480, 14912.00
866.5810, 14855.00
867.7130, 14789.00
868.8460, 15013.00
869.9780, 14949.00
871.1100, 14957.00
872.2410, 14945.00
873.3730, 15129.00
874.5050, 15211.00
875.6360, 15196.00
876.7670, 15301.00
877.8980, 15264.00
879.0290, 15520.00
880.1590, 15371.00
881.2900, 15617.00
882.4200, 15553.00
883.5500, 15703.00
884.6800, 15813.00
885.8100, 15950.00
886.9400, 15887.00
888.0690, 16046.00
889.1990, 16092.00
890.3280, 16403.00
891.4570, 16538.00
892.5860, 16848.00
893.7140, 16806.00
894.8430, 17182.00
895.9710, 17531.00
897.1000, 17725.00
898.2280, 18207.00
899.3560, 18693.00
900.4830, 18997.00
901.6110, 19659.00
902.7380, 20436.00
903.8660, 20824.00
904.9930, 21877.00
906.1200, 22844.00
907.2460, 24308.00
908.3730, 26271.00
909.5000, 28943.00
910.6260, 32543.00
911.7520, 37149.00
912.8780, 42809.00
914.0040, 49135.00
915.1290, 54695.00
916.2550, 58985.00
917.3800, 60460.00
918.5050, 59738.00
919.6300, 56005.00
920.7550, 50755.00
921.8800, 46293.00
923.0040, 42204.00
924.1290, 39101.00
925.2530, 36535.00
926.3770, 34127.00
927.5010, 32127.00
928.6250, 30232.00
929.7480, 28463.00
930.8720, 26678.00
931.9950, 25180.00
933.1180, 23905.00
934.2410, 22877.00
935.3640, 22249.00
936.4860, 21256.00
937.6090, 21052.00
938.7310, 20501.00
939.8530, 20169.00
940.9750, 20043.00
942.0970, 19860.00
943.2180, 19832.00
944.3400, 19929.00
945.4610, 20146.00
946.5820, 20353.00
947.7030, 20293.00
948.8240, 20343.00
949.9450, 20289.00
951.0650, 20139.00
952.1860, 19858.00
953.3060, 19562.00
954.4260, 19117.00
955.5460, 18867.00
956.6650, 18709.00
957.7850, 18412.00
958.9040, 18406.00
960.0230, 18168.00
961.1420, 18291.00
962.2610, 18045.00
963.3800, 17968.00
964.4990, 18177.00
965.6170, 18126.00
966.7350, 18205.00
967.8530, 18042.00
968.9710, 18085.00
970.0890, 18034.00
971.2070, 18237.00
972.3240, 18283.00
973.4410, 18279.00
974.5580, 18254.00
975.6750, 18407.00
976.7920, 18351.00
977.9090, 18356.00
979.0250, 18331.00
980.1410, 18435.00
981.2580, 18369.00
982.3740, 18612.00
983.4890, 18610.71
984.6050, 18646.00
985.7200, 18782.00
986.8360, 18671.00
987.9510, 18832.00
989.0660, 18880.00
990.1810, 18992.00
991.2950, 18992.00
992.4100, 19152.00
993.5240, 19458.00
994.6390, 19647.00
995.7530, 20165.00
996.8660, 20488.00
997.9800, 20886.00
999.0940, 21653.00
1000.207, 22298.00
1001.320, 23129.00
1002.433, 23351.00
1003.546, 23664.00
1004.659, 23593.00
1005.772, 23311.00
1006.884, 23008.00
1007.996, 22548.00
1009.108, 22024.00
1010.220, 21499.00
1011.332, 21132.00
1012.444, 20952.00
1013.555, 20985.00
1014.666, 20980.00
1015.777, 20721.00
1016.888, 21075.00
1017.999, 20790.00
1019.110, 20739.00
1020.220, 20634.00
1021.331, 20543.00
1022.441, 20398.00
1023.551, 20248.00
1024.661, 20010.00
1025.770, 19939.00
1026.880, 19851.00
1027.989, 19955.00
1029.098, 19721.00
1030.207, 19783.00
1031.316, 19756.00
1032.425, 19598.00
1033.533, 19827.00
1034.642, 19934.00
1035.750, 19804.00
1036.858, 19651.00
1037.966, 19807.00
1039.073, 19624.00
1040.181, 19578.00
1041.288, 19582.00
1042.396, 19502.00
1043.503, 19642.00
1044.610, 19592.00
1045.716, 19410.00
1046.823, 19400.00
1047.929, 19558.00
1049.036, 19638.00
1050.142, 19737.00
1051.248, 19608.00
1052.353, 19742.00
1053.459, 19760.00
1054.564, 19748.00
1055.670, 20068.00
1056.775, 20370.00
1057.880, 20500.00
1058.985, 20790.00
1060.089, 21282.00
1061.194, 21886.00
1062.298, 22140.00
1063.402, 22285.00
1064.506, 22290.00
1065.610, 22006.00
1066.713, 21677.00
1067.817, 21508.00
1068.920, 21215.00
1070.023, 21012.00
1071.126, 20570.00
1072.229, 20423.00
1073.332, 20407.00
1074.435, 20386.00
1075.537, 20338.00
1076.639, 20268.00
1077.741, 20221.00
1078.843, 20420.00
1079.945, 20309.00
1081.046, 20288.00
1082.148, 20027.00
1083.249, 20288.00
1084.350, 20129.00
1085.451, 20151.00
1086.551, 20157.00
1087.652, 20166.00
1088.752, 20273.00
1089.853, 20348.00
1090.953, 20218.00
1092.053, 20031.00
1093.152, 20179.00
1094.252, 20163.00
1095.351, 20305.00
1096.451, 20252.00
1097.550, 20167.00
1098.649, 20321.00
1099.748, 20359.00
1100.846, 20178.00
1101.945, 20452.00
1103.043, 20502.00
1104.141, 20586.00
1105.239, 20494.00
1106.337, 20620.00
1107.434, 20636.00
1108.532, 20772.00
1109.629, 20895.00
1110.726, 20819.00
1111.823, 20912.00
1112.920, 20894.23
1114.017, 20714.00
1115.113, 20873.00
1116.210, 20792.00
1117.306, 20791.00
1118.402, 20984.00
1119.498, 21016.00
1120.593, 21228.00
1121.689, 21311.00
1122.784, 21426.00
1123.879, 21674.00
1124.974, 21427.00
1126.069, 21524.00
1127.164, 21571.00
1128.259, 21288.00
1129.353, 21384.00
1130.447, 21176.00
1131.541, 20976.00
1132.635, 20869.00
1133.729, 20893.00
1134.822, 20973.00
1135.916, 20872.00
1137.009, 21025.00
1138.102, 20964.00
1139.195, 20795.00
1140.288, 21016.00
1141.380, 20987.00
1142.473, 21002.00
1143.565, 21176.00
1144.657, 21157.00
1145.749, 21149.00
1146.841, 21002.00
1147.932, 21039.00
1149.024, 21170.00
1150.115, 21360.00
1151.206, 21194.00
1152.297, 21270.00
1153.388, 21343.00
1154.479, 21444.00
1155.569, 21378.00
1156.659, 21419.00
1157.750, 21378.00
1158.839, 21392.00
1159.929, 21498.00
1161.019, 21436.00
1162.108, 21599.00
1163.198, 21595.00
1164.287, 21583.00
1165.376, 21548.00
1166.465, 21691.00
1167.553, 21772.00
1168.642, 21626.00
1169.730, 21795.00
1170.818, 21790.00
1171.906, 21642.00
1172.994, 21773.00
1174.082, 21890.00
1175.170, 21788.00
1176.257, 21807.00
1177.344, 21884.00
1178.431, 21795.00
1179.518, 21971.00
1180.605, 21915.00
1181.691, 22038.00
1182.778, 21912.00
1183.864, 21958.00
1184.950, 22070.00
1186.036, 21972.00
1187.122, 22246.00
1188.207, 22342.00
1189.292, 22205.00
1190.378, 22057.00
1191.463, 21997.00
1192.548, 22159.00
1193.632, 22255.00
1194.717, 22262.00
1195.801, 22107.00
1196.886, 22319.00
1197.970, 22255.00
1199.054, 22439.00
1200.137, 22177.00
1201.221, 22299.00
1202.305, 22352.00
1203.388, 22277.00
1204.471, 22290.00
1205.554, 22308.00
1206.637, 22557.00
1207.719, 22450.00
1208.802, 22222.00
1209.884, 22491.00
1210.966, 22556.00
1212.048, 22458.00
1213.130, 22626.00
1214.212, 22623.00
1215.293, 22469.00
1216.374, 22464.00
1217.456, 22373.00
1218.536, 22554.00
1219.617, 22572.00
1220.698, 22660.00
1221.778, 22670.00
1222.859, 22492.00
1223.939, 22821.00
1225.019, 22772.00
1226.099, 22537.00
1227.178, 22646.00
1228.258, 22727.00
1229.337, 22501.00
1230.417, 22710.00
1231.496, 22765.00
1232.574, 22748.00
1233.653, 22997.00
1234.732, 23111.00
1235.810, 23056.00
1236.888, 23020.00
1237.966, 23002.00
1239.044, 22913.89
1240.122, 23023.00
1241.199, 22844.00
1242.277, 22877.00
1243.354, 23052.00
1244.431, 23168.00
1245.508, 23002.00
1246.585, 23149.00
1247.661, 23275.00
1248.738, 23369.00
1249.814, 23191.00
1250.890, 23221.00
1251.966, 23152.00
1253.042, 23408.00
1254.117, 23161.00
1255.193, 23454.00
1256.268, 23486.00
1257.343, 23233.00
1258.418, 23533.00
1259.493, 23402.00
1260.567, 23506.00
1261.642, 23224.00
1262.716, 23641.00
1263.790, 23559.00
1264.864, 23487.00
1265.938, 23649.00
1267.011, 23508.00
1268.085, 23762.00
1269.158, 23646.00
1270.231, 23634.00
1271.304, 23766.00
1272.377, 23674.00
1273.450, 23621.00
1274.522, 23808.00
1275.594, 23821.00
1276.666, 23662.00
1277.738, 23790.00
1278.810, 23715.00
1279.882, 23758.00
1280.953, 24019.00
1282.025, 23867.00
1283.096, 23645.00
1284.167, 24077.00
1285.238, 23874.00
1286.308, 24082.00
1287.379, 24044.00
1288.449, 23893.00
1289.519, 23808.00
1290.589, 24007.00
1291.659, 23996.00
1292.729, 24077.00
1293.798, 24064.00
1294.868, 24047.00
1295.937, 24037.00
1297.006, 24178.00
1298.075, 24103.00
1299.143, 24262.00
1300.212, 24302.00
1301.280, 24133.00
1302.348, 24258.00
1303.416, 24317.00
1304.484, 24293.00
1305.552, 24284.00
1306.620, 24413.00
1307.687, 24474.00
1308.754, 24143.00
1309.821, 24469.00
1310.888, 24293.00
1311.955, 24286.00
1313.021, 24355.00
1314.088, 24475.00
1315.154, 24318.00
1316.220, 24441.00
1317.286, 24608.00
1318.352, 24573.00
1319.417, 24479.00
1320.483, 24664.00
1321.548, 24682.00
1322.613, 24801.00
1323.678, 24660.00
1324.743, 24741.00
1325.807, 24693.00
1326.872, 24761.00
1327.936, 24629.00
1329.000, 25062.00
1330.064, 24918.00
1331.128, 24746.00
1332.191, 25388.00
1333.255, 25086.30
1334.318, 25276.00
1335.381, 25157.00
1336.444, 25024.00
1337.507, 25314.00
1338.569, 25124.00
1339.632, 25033.00
1340.694, 25137.00
1341.756, 25123.00
1342.818, 25174.00
1343.880, 25430.00
1344.941, 25281.00
1346.003, 25662.00
1347.064, 25355.00
1348.125, 25428.00
1349.186, 25265.00
1350.247, 25278.75
1351.308, 25457.00
1352.368, 25459.00
1353.428, 25542.00
1354.489, 25826.00
1355.549, 25609.00
1356.608, 25593.00
1357.668, 25772.00
1358.727, 25696.00
1359.787, 25862.00
1360.846, 25894.00
1361.905, 25786.00
1362.964, 25763.00
1364.022, 25900.00
1365.081, 25827.00
1366.139, 26081.00
1367.197, 25975.00
1368.255, 25982.00
1369.313, 25963.00
1370.371, 25884.00
1371.428, 25975.00
1372.486, 26158.00
1373.543, 26178.00
1374.600, 26316.00
1375.657, 26317.98
1376.713, 26179.00
1377.770, 26242.00
1378.826, 26276.00
1379.882, 26126.00
1380.938, 26320.00
1381.994, 26104.00
1383.050, 26395.00
1384.106, 26309.00
1385.161, 26514.00
1386.216, 26280.00
1387.271, 26251.00
1388.326, 26307.00
1389.381, 26521.00
1390.435, 26460.00
1391.490, 26468.00
1392.544, 26341.00
1393.598, 26460.00
1394.652, 26518.00
1395.705, 26602.00
1396.759, 26715.00
1397.812, 26670.00
1398.866, 26733.09
1399.919, 26434.00
1400.972, 26788.00
1402.024, 26620.00
1403.077, 26716.00
1404.129, 26779.00
1405.181, 26819.00
1406.233, 26852.00
1407.285, 26873.90
1408.337, 26814.00
1409.389, 26861.00
1410.440, 26813.00
1411.491, 26734.00
1412.542, 26875.00
1413.593, 27027.00
1414.644, 26888.00
1415.695, 26968.00
1416.745, 27059.00
1417.795, 27071.00
1418.845, 27167.00
1419.895, 27083.00
1420.945, 27093.00
1421.995, 27017.00
1423.044, 27131.00
1424.093, 27127.87
1425.142, 27125.00
1426.191, 27203.00
1427.240, 27287.00
1428.289, 27284.00
1429.337, 27397.00
1430.385, 27241.00
1431.433, 27384.00
1432.481, 27494.00
1433.529, 27373.00
1434.577, 27336.00
1435.624, 27447.00
1436.672, 27505.00
1437.719, 27730.00
1438.766, 27528.00
1439.812, 27785.00
1440.859, 27602.00
1441.905, 27779.00
1442.952, 27827.00
1443.998, 28021.00
1445.044, 27832.00
1446.090, 27953.00
1447.135, 27756.00
1448.181, 27716.00
1449.226, 28032.00
1450.271, 28083.00
1451.316, 27953.00
1452.361, 27860.00
1453.405, 27920.00
1454.450, 28114.00
1455.494, 28040.00
1456.538, 28093.00
1457.582, 28088.00
1458.626, 28092.76
1459.670, 28107.00
1460.713, 28100.00
1461.757, 28209.00
1462.800, 28152.00
1463.843, 28056.00
1464.886, 28152.00
1465.928, 28380.00
1466.971, 28146.00
1468.013, 28239.00
1469.055, 28508.00
1470.097, 28539.00
1471.139, 28161.00
1472.181, 28334.00
1473.222, 28403.00
1474.263, 28504.00
1475.305, 28521.00
1476.346, 28391.00
1477.386, 28378.00
1478.427, 28501.00
1479.468, 28658.00
1480.508, 28487.00
1481.548, 28700.00
1482.588, 28454.00
1483.628, 28468.00
1484.668, 28604.00
1485.707, 28968.00
1486.747, 28709.00
1487.786, 28775.00
1488.825, 28640.00
1489.864, 28845.00
1490.902, 28951.00
1491.941, 28785.00
1492.979, 28796.00
1494.017, 28965.00
1495.055, 29161.00
1496.093, 28799.00
1497.131, 28846.00
1498.168, 29012.00
1499.206, 29486.00
1500.243, 29267.59
1501.280, 29164.00
1502.317, 29140.00
1503.354, 29066.00
1504.390, 29218.00
1505.426, 29297.00
1506.463, 29283.00
1507.499, 29115.00
1508.535, 29314.00
1509.570, 29436.00
1510.606, 29222.00
1511.641, 29480.00
1512.676, 29319.00
1513.711, 29431.00
1514.746, 29421.00
1515.781, 29292.00
1516.816, 29442.00
1517.850, 29627.00
1518.884, 29610.00
1519.918, 29554.00
1520.952, 29546.00
1521.986, 29665.00
1523.019, 29674.00
1524.053, 29789.00
1525.086, 29677.00
1526.119, 29917.00
1527.152, 29691.00
1528.185, 29785.00
1529.217, 29653.00
1530.250, 29824.00
1531.282, 29815.00
1532.314, 29865.00
1533.346, 29995.00
1534.377, 30047.00
1535.409, 30007.00
1536.440, 29985.00
1537.472, 29931.00
1538.503, 30120.00
1539.534, 30206.00
1540.564, 30189.00
1541.595, 30229.00
1542.625, 30447.00
1543.656, 30034.00
1544.686, 30213.00
1545.716, 30334.00
1546.745, 30473.00
1547.775, 30540.29
1548.804, 30508.00
1549.834, 30571.00
1550.863, 30509.00
1551.892, 30376.00
1552.920, 30768.00
1553.949, 30751.00
1554.977, 31033.00
1556.006, 30613.00
1557.034, 30754.00
1558.062, 30676.00
1559.089, 30655.00
1560.117, 30697.00
1561.144, 30752.00
1562.172, 30586.00
1563.199, 30694.00
1564.226, 30718.00
1565.252, 30731.00
1566.279, 30841.00
1567.305, 30771.00
1568.332, 30967.00
1569.358, 30900.00
1570.384, 31113.00
##END=



