##NAMES=Andalusite
##RRUFFID=R060197
##IDEAL CHEMISTRY=Al_2_SiO_5_
##LOCALITY=Brazil
##OWNER=RRUFF
##SOURCE=Marcus Origlieri
##DESCRIPTION=Green colored water worn pebble
##STATUS=The identification of this mineral has been confirmed by X-ray diffraction and chemical analysis
##URL=rruff.info/R060197
##MEASURED CHEMISTRY=(Al_1.97_Mn^3+^_0.03_)_Î£=2_Si_1.00_O_5_
##PIN_ID=L01138
##ORIENTATION=Laser parallel to -b* (0 -1 0). Fiducial mark perpendicular to laser is parallel to -c [0 0 -1]
123.0580, 9240.000
124.2880, 9404.000
125.5190, 9367.000
126.7490, 9330.000
127.9790, 9466.000
129.2090, 9427.000
130.4390, 9619.000
131.6680, 9611.000
132.8980, 9514.000
134.1270, 9586.000
135.3560, 9636.000
136.5850, 9613.000
137.8140, 9804.000
139.0430, 9773.000
140.2710, 9982.000
141.5000, 9905.000
142.7280, 9754.000
143.9560, 9883.000
145.1840, 9857.000
146.4120, 9824.000
147.6390, 9912.000
148.8670, 9855.000
150.0940, 10023.00
151.3210, 9940.000
152.5490, 10025.00
153.7750, 10127.00
155.0020, 10057.00
156.2290, 10057.00
157.4550, 10101.00
158.6810, 10107.00
159.9080, 10155.00
161.1340, 10167.00
162.3590, 10219.00
163.5850, 10387.00
164.8110, 10445.00
166.0360, 10393.00
167.2610, 10610.00
168.4860, 10477.00
169.7110, 10620.00
170.9360, 10663.00
172.1610, 10637.00
173.3850, 10569.00
174.6100, 10560.00
175.8340, 10679.00
177.0580, 10665.00
178.2820, 10670.00
179.5050, 10774.00
180.7290, 10749.00
181.9520, 10923.00
183.1760, 10806.00
184.3990, 10745.00
185.6220, 10832.00
186.8450, 11072.00
188.0670, 11226.00
189.2900, 11347.00
190.5120, 11428.00
191.7340, 11561.00
192.9560, 11803.00
194.1780, 11913.00
195.4000, 12064.00
196.6220, 11872.00
197.8430, 11846.00
199.0640, 11683.00
200.2860, 11740.00
201.5070, 11769.00
202.7270, 11731.00
203.9480, 11758.00
205.1690, 11453.00
206.3890, 11166.00
207.6090, 11023.00
208.8290, 11157.00
210.0490, 10996.00
211.2690, 11149.00
212.4890, 11485.00
213.7080, 11420.00
214.9280, 11532.00
216.1470, 11311.00
217.3660, 11316.00
218.5850, 11357.00
219.8030, 11267.00
221.0220, 11239.00
222.2400, 11198.00
223.4590, 11264.00
224.6770, 11277.00
225.8950, 11320.00
227.1120, 11299.00
228.3300, 11348.46
229.5480, 11453.00
230.7650, 11460.00
231.9820, 11451.00
233.1990, 11585.00
234.4160, 11433.00
235.6330, 11611.00
236.8490, 11453.00
238.0660, 11468.00
239.2820, 11566.00
240.4980, 11644.00
241.7140, 11664.92
242.9300, 11704.00
244.1460, 11758.00
245.3610, 11846.00
246.5770, 11962.00
247.7920, 11968.00
249.0070, 11987.00
250.2220, 12180.00
251.4370, 12283.00
252.6510, 12395.00
253.8660, 12551.00
255.0800, 12641.00
256.2940, 13028.00
257.5080, 13392.00
258.7220, 13908.00
259.9360, 14170.68
261.1490, 14397.03
262.3630, 14636.00
263.5760, 14615.00
264.7890, 14539.00
266.0020, 14468.00
267.2150, 14818.00
268.4270, 15135.00
269.6400, 15715.00
270.8520, 16315.00
272.0640, 17058.61
273.2760, 18134.00
274.4880, 18850.00
275.7000, 19873.00
276.9120, 20938.00
278.1230, 22571.00
279.3340, 24602.00
280.5450, 27062.00
281.7560, 29933.00
282.9670, 33353.00
284.1780, 37095.00
285.3880, 40969.00
286.5980, 43815.00
287.8090, 46069.00
289.0190, 46327.00
290.2290, 44554.00
291.4380, 41670.00
292.6480, 37882.00
293.8570, 33885.00
295.0670, 30500.00
296.2760, 26978.00
297.4850, 24674.00
298.6930, 22546.00
299.9020, 20999.00
301.1110, 19812.00
302.3190, 18883.00
303.5270, 18233.00
304.7350, 17873.00
305.9430, 17523.00
307.1510, 17595.00
308.3580, 17872.00
309.5660, 18537.00
310.7730, 19540.00
311.9800, 20462.00
313.1870, 22180.00
314.3940, 23647.00
315.6010, 25625.00
316.8070, 27084.00
318.0130, 27482.00
319.2200, 26978.00
320.4260, 25589.00
321.6310, 24038.00
322.8370, 22645.00
324.0430, 21182.00
325.2480, 20031.00
326.4540, 19305.00
327.6590, 18647.00
328.8640, 18109.00
330.0680, 17885.00
331.2730, 17593.00
332.4780, 17586.00
333.6820, 17329.00
334.8860, 17128.00
336.0900, 17306.00
337.2940, 17189.00
338.4980, 17042.00
339.7010, 17080.00
340.9050, 17144.00
342.1080, 17217.58
343.3110, 17431.00
344.5140, 17581.00
345.7170, 17918.00
346.9200, 18254.00
348.1220, 18762.00
349.3240, 19318.00
350.5270, 19911.00
351.7290, 20501.00
352.9310, 21095.00
354.1320, 21664.00
355.3340, 22047.00
356.5350, 22046.00
357.7370, 21689.00
358.9380, 20806.00
360.1390, 20144.00
361.3400, 19194.00
362.5400, 18622.00
363.7410, 17900.00
364.9410, 17555.00
366.1410, 16991.00
367.3410, 16589.00
368.5410, 16444.00
369.7410, 16446.00
370.9400, 16003.00
372.1400, 16092.00
373.3390, 15984.00
374.5380, 16149.00
375.7370, 16242.00
376.9360, 16223.00
378.1350, 16192.00
379.3330, 16214.00
380.5310, 16085.00
381.7300, 15745.00
382.9280, 15612.00
384.1260, 15569.00
385.3230, 15405.00
386.5210, 15405.00
387.7180, 15379.00
388.9160, 15206.00
390.1130, 15037.00
391.3100, 15376.00
392.5060, 15163.00
393.7030, 15147.00
394.9000, 14872.00
396.0960, 15110.00
397.2920, 14999.00
398.4880, 14897.00
399.6840, 15034.00
400.8800, 15024.00
402.0750, 15134.00
403.2710, 14942.00
404.4660, 15014.00
405.6610, 14935.00
406.8560, 15078.00
408.0510, 15034.00
409.2450, 15190.00
410.4400, 15140.00
411.6340, 15288.00
412.8280, 15387.00
414.0220, 15448.00
415.2160, 15521.00
416.4100, 15688.00
417.6030, 15636.00
418.7970, 15533.00
419.9900, 15641.00
421.1830, 15540.00
422.3760, 15610.00
423.5690, 15604.00
424.7610, 15521.17
425.9540, 15322.00
427.1460, 15374.00
428.3380, 15382.00
429.5300, 15314.00
430.7220, 15479.00
431.9140, 15519.00
433.1050, 15495.38
434.2970, 15406.00
435.4880, 15427.00
436.6790, 15527.00
437.8700, 15425.00
439.0610, 15646.00
440.2510, 15629.00
441.4420, 15811.00
442.6320, 15916.00
443.8220, 16141.00
445.0120, 16389.00
446.2020, 16526.00
447.3910, 17073.00
448.5810, 17690.00
449.7700, 17770.00
450.9600, 17311.00
452.1490, 16900.00
453.3370, 16422.00
454.5260, 16294.00
455.7150, 16166.00
456.9030, 16208.00
458.0910, 16092.00
459.2800, 16045.00
460.4670, 16354.00
461.6550, 16393.00
462.8430, 16437.00
464.0300, 16519.00
465.2180, 16632.00
466.4050, 16669.00
467.5920, 16735.00
468.7790, 17086.00
469.9650, 17278.00
471.1520, 17284.00
472.3380, 17344.00
473.5250, 17452.00
474.7110, 17513.00
475.8970, 17632.00
477.0820, 17583.00
478.2680, 17581.00
479.4540, 17518.42
480.6390, 17370.00
481.8240, 17246.00
483.0090, 17059.00
484.1940, 16773.00
485.3780, 16789.00
486.5630, 16634.00
487.7470, 16422.00
488.9320, 16396.00
490.1160, 16278.00
491.3000, 16198.00
492.4830, 16187.75
493.6670, 16098.00
494.8500, 16179.00
496.0340, 16170.69
497.2170, 16348.00
498.4000, 16285.00
499.5820, 16368.00
500.7650, 16508.00
501.9480, 16434.00
503.1300, 16520.00
504.3120, 16618.00
505.4940, 16793.00
506.6760, 16859.71
507.8580, 16941.00
509.0390, 17018.00
510.2210, 17123.00
511.4020, 17134.00
512.5830, 17172.70
513.7640, 17184.57
514.9450, 17191.00
516.1250, 17154.00
517.3060, 17178.00
518.4860, 17139.00
519.6660, 17085.00
520.8460, 17080.00
522.0260, 17201.00
523.2060, 17336.00
524.3850, 17164.00
525.5650, 17405.00
526.7440, 17415.00
527.9230, 17370.00
529.1020, 17448.00
530.2810, 17565.00
531.4590, 17583.00
532.6380, 17658.00
533.8160, 17989.00
534.9940, 18005.00
536.1720, 18308.00
537.3500, 18531.00
538.5270, 19014.00
539.7050, 19536.00
540.8820, 19988.00
542.0590, 20583.00
543.2360, 21745.00
544.4130, 22467.00
545.5900, 23297.00
546.7660, 23771.00
547.9430, 23876.00
549.1190, 23536.00
550.2950, 22982.00
551.4710, 22208.00
552.6470, 21197.00
553.8220, 20477.00
554.9980, 19935.00
556.1730, 19184.00
557.3480, 18986.00
558.5230, 18745.00
559.6980, 18621.00
560.8730, 18576.00
562.0470, 18398.00
563.2220, 18430.00
564.3960, 18396.00
565.5700, 18370.62
566.7440, 18421.00
567.9170, 18410.00
569.0910, 18452.00
570.2640, 18503.00
571.4380, 18580.00
572.6110, 18562.00
573.7840, 18484.00
574.9570, 18502.38
576.1290, 18405.00
577.3020, 18449.00
578.4740, 18439.00
579.6460, 18432.00
580.8180, 18537.00
581.9900, 18227.00
583.1620, 18296.00
584.3330, 18628.00
585.5040, 18319.00
586.6760, 18504.00
587.8470, 18472.00
589.0180, 18593.00
590.1880, 18607.00
591.3590, 18712.00
592.5290, 18669.00
593.7000, 18897.00
594.8700, 18875.00
596.0400, 18845.00
597.2090, 19150.00
598.3790, 19066.00
599.5490, 18985.00
600.7180, 18937.00
601.8870, 18988.00
603.0560, 19001.00
604.2250, 18800.00
605.3940, 18818.00
606.5620, 19100.00
607.7300, 18929.00
608.8990, 19403.00
610.0670, 18803.00
611.2350, 18646.00
612.4020, 18633.00
613.5700, 18781.00
614.7370, 18742.00
615.9050, 18634.00
617.0720, 18633.00
618.2390, 18725.00
619.4060, 18651.00
620.5720, 18628.00
621.7390, 18577.00
622.9050, 18586.00
624.0710, 18492.00
625.2370, 18434.00
626.4030, 18438.00
627.5690, 18394.00
628.7340, 18487.00
629.9000, 18446.00
631.0650, 18308.00
632.2300, 18384.00
633.3950, 18205.00
634.5600, 18301.00
635.7240, 18172.00
636.8890, 18539.00
638.0530, 18598.00
639.2170, 18568.00
640.3810, 18591.00
641.5450, 18432.00
642.7080, 18542.00
643.8720, 18557.00
645.0350, 18545.00
646.1980, 18638.00
647.3610, 18545.00
648.5240, 18684.00
649.6870, 18502.00
650.8490, 18666.00
652.0120, 18577.00
653.1740, 18708.00
654.3360, 18717.00
655.4980, 18805.00
656.6600, 18836.00
657.8210, 18888.00
658.9830, 19131.00
660.1440, 19159.00
661.3050, 19363.00
662.4660, 19215.00
663.6270, 19308.00
664.7870, 19215.00
665.9480, 19175.00
667.1080, 19005.00
668.2680, 19017.00
669.4280, 19095.00
670.5880, 19090.29
671.7480, 19309.00
672.9070, 19319.00
674.0670, 19387.00
675.2260, 19655.00
676.3850, 19645.00
677.5440, 19466.00
678.7030, 19569.00
679.8610, 19754.00
681.0200, 19893.00
682.1780, 19897.00
683.3360, 19938.00
684.4940, 19857.00
685.6520, 20060.00
686.8090, 20165.00
687.9670, 20365.00
689.1240, 20387.00
690.2810, 20438.00
691.4380, 20553.00
692.5950, 20480.00
693.7520, 20547.00
694.9080, 20758.00
696.0650, 20758.00
697.2210, 20817.00
698.3770, 20946.00
699.5330, 20991.00
700.6880, 21093.00
701.8440, 21234.00
702.9990, 21273.00
704.1550, 21562.00
705.3100, 21767.00
706.4650, 21740.00
707.6190, 21744.00
708.7740, 21611.00
709.9290, 21616.23
711.0830, 21548.00
712.2370, 21569.00
713.3910, 21462.65
714.5450, 21348.30
715.6980, 21217.00
716.8520, 21047.00
718.0050, 20832.00
719.1580, 20668.00
720.3110, 20446.00
721.4640, 20170.00
722.6170, 20233.00
723.7700, 19808.00
724.9220, 19740.00
726.0740, 19780.00
727.2260, 19728.00
728.3780, 19770.00
729.5300, 19781.98
730.6810, 19841.00
731.8330, 19833.00
732.9840, 19749.00
734.1350, 19771.00
735.2860, 20096.00
736.4370, 20185.00
737.5880, 20127.00
738.7380, 20258.00
739.8880, 20338.00
741.0390, 20582.00
742.1890, 20718.00
743.3380, 20981.00
744.4880, 20838.00
745.6380, 20986.00
746.7870, 21137.00
747.9360, 21183.00
749.0850, 21249.00
750.2340, 21267.00
751.3830, 21345.00
752.5310, 21315.13
753.6800, 21335.52
754.8280, 21357.00
755.9760, 21305.00
757.1240, 21541.00
758.2720, 21510.00
759.4190, 21499.00
760.5670, 21358.00
761.7140, 21481.00
762.8610, 21351.00
764.0080, 21337.30
765.1550, 21288.00
766.3020, 21302.00
767.4480, 21342.00
768.5950, 21412.00
769.7410, 21363.00
770.8870, 21356.00
772.0330, 21447.00
773.1780, 21545.00
774.3240, 21643.00
775.4690, 21855.00
776.6140, 22120.00
777.7590, 22316.35
778.9040, 22613.00
780.0490, 22913.00
781.1940, 23322.00
782.3380, 23832.00
783.4820, 24278.00
784.6260, 24711.00
785.7700, 25444.00
786.9140, 25644.00
788.0580, 26296.00
789.2010, 26519.00
790.3450, 26830.00
791.4880, 26592.00
792.6310, 26393.00
793.7730, 26169.00
794.9160, 25768.00
796.0590, 25156.00
797.2010, 24629.00
798.3430, 24398.00
799.4850, 23979.00
800.6270, 23458.00
801.7690, 23392.00
802.9100, 23087.00
804.0520, 22778.00
805.1930, 22553.00
806.3340, 22266.00
807.4750, 22052.00
808.6160, 21864.00
809.7560, 21820.00
810.8970, 21818.00
812.0370, 21886.00
813.1770, 21488.00
814.3170, 21562.00
815.4570, 21160.00
816.5960, 21695.00
817.7360, 21456.97
818.8750, 21553.00
820.0140, 21391.00
821.1530, 21459.00
822.2920, 21418.00
823.4310, 21599.00
824.5690, 21607.00
825.7070, 21513.00
826.8460, 21743.00
827.9840, 21851.00
829.1220, 21729.00
830.2590, 21779.00
831.3970, 21936.00
832.5340, 21688.00
833.6710, 21740.00
834.8080, 21755.00
835.9450, 21720.00
837.0820, 21467.00
838.2190, 21627.00
839.3550, 21427.00
840.4910, 21348.00
841.6270, 21384.00
842.7630, 21337.00
843.8990, 21331.00
845.0350, 21276.00
846.1700, 21457.00
847.3060, 21266.00
848.4410, 21224.00
849.5760, 21416.00
850.7100, 21285.00
851.8450, 21475.00
852.9800, 21375.00
854.1140, 21626.00
855.2480, 21663.00
856.3820, 21621.00
857.5160, 21769.00
858.6500, 21723.00
859.7830, 21957.00
860.9170, 22105.00
862.0500, 22137.00
863.1830, 22089.00
864.3160, 22224.00
865.4480, 22440.00
866.5810, 22220.00
867.7130, 22322.00
868.8460, 22568.00
869.9780, 22500.00
871.1100, 22477.00
872.2410, 22399.00
873.3730, 22422.00
874.5050, 22451.00
875.6360, 22634.00
876.7670, 22771.00
877.8980, 22601.00
879.0290, 22644.00
880.1590, 22564.00
881.2900, 22698.00
882.4200, 22544.00
883.5500, 22778.00
884.6800, 22565.00
885.8100, 22609.00
886.9400, 22718.00
888.0690, 22737.00
889.1990, 22888.00
890.3280, 22901.62
891.4570, 23044.50
892.5860, 23059.00
893.7140, 23298.00
894.8430, 23595.00
895.9710, 23700.00
897.1000, 23852.00
898.2280, 24139.00
899.3560, 24293.00
900.4830, 24368.00
901.6110, 24992.00
902.7380, 25538.00
903.8660, 25925.00
904.9930, 26699.00
906.1200, 27803.00
907.2460, 29131.00
908.3730, 30824.00
909.5000, 33005.00
910.6260, 36075.00
911.7520, 39761.00
912.8780, 44252.00
914.0040, 48951.00
915.1290, 53742.00
916.2550, 56907.00
917.3800, 57398.00
918.5050, 55522.00
919.6300, 51893.00
920.7550, 47230.00
921.8800, 43698.00
923.0040, 40429.00
924.1290, 38102.00
925.2530, 36244.00
926.3770, 34714.00
927.5010, 33544.00
928.6250, 32271.00
929.7480, 31035.00
930.8720, 30017.00
931.9950, 29177.00
933.1180, 28457.00
934.2410, 27830.81
935.3640, 27232.00
936.4860, 26973.00
937.6090, 26706.00
938.7310, 26581.00
939.8530, 26098.00
940.9750, 26229.00
942.0970, 26091.00
943.2180, 26056.00
944.3400, 26301.00
945.4610, 25999.00
946.5820, 26383.00
947.7030, 26351.00
948.8240, 26239.00
949.9450, 26151.00
951.0650, 26058.00
952.1860, 25921.00
953.3060, 25795.79
954.4260, 25673.00
955.5460, 25489.00
956.6650, 25387.00
957.7850, 25352.01
958.9040, 25396.00
960.0230, 25388.00
961.1420, 25400.00
962.2610, 25523.00
963.3800, 25452.00
964.4990, 25662.00
965.6170, 25740.00
966.7350, 25749.00
967.8530, 25627.00
968.9710, 25782.00
970.0890, 25815.00
971.2070, 25763.00
972.3240, 25798.00
973.4410, 25603.00
974.5580, 25413.00
975.6750, 25129.00
976.7920, 25126.00
977.9090, 25179.00
979.0250, 25019.00
980.1410, 24928.00
981.2580, 24698.00
982.3740, 24748.00
983.4890, 24653.00
984.6050, 24455.00
985.7200, 24610.00
986.8360, 24492.00
987.9510, 24548.00
989.0660, 24440.64
990.1810, 24477.57
991.2950, 24153.00
992.4100, 24575.00
993.5240, 24430.00
994.6390, 24535.00
995.7530, 24230.00
996.8660, 24572.00
997.9800, 24590.00
999.0940, 24513.00
1000.207, 24641.00
1001.320, 24802.00
1002.433, 25042.00
1003.546, 25242.00
1004.659, 25100.00
1005.772, 25311.00
1006.884, 25296.00
1007.996, 25755.00
1009.108, 26116.00
1010.220, 26452.00
1011.332, 26692.00
1012.444, 27193.00
1013.555, 27783.00
1014.666, 27955.00
1015.777, 28313.00
1016.888, 28503.00
1017.999, 28589.00
1019.110, 28277.00
1020.220, 28255.00
1021.331, 28157.00
1022.441, 27903.00
1023.551, 27672.00
1024.661, 27456.00
1025.770, 27352.00
1026.880, 27232.00
1027.989, 27031.07
1029.098, 26911.00
1030.207, 26628.00
1031.316, 26614.00
1032.425, 26342.00
1033.533, 26213.00
1034.642, 26251.00
1035.750, 26350.00
1036.858, 26008.00
1037.966, 26199.00
1039.073, 26080.00
1040.181, 26181.00
1041.288, 26217.00
1042.396, 26519.00
1043.503, 26550.00
1044.610, 26579.00
1045.716, 26802.00
1046.823, 26906.00
1047.929, 27109.00
1049.036, 27362.00
1050.142, 27805.00
1051.248, 28484.00
1052.353, 29655.00
1053.459, 30324.00
1054.564, 31727.00
1055.670, 33176.00
1056.775, 34315.00
1057.880, 35151.00
1058.985, 35442.00
1060.089, 34882.00
1061.194, 33948.00
1062.298, 32871.00
1063.402, 31474.00
1064.506, 30528.00
1065.610, 29945.00
1066.713, 29242.00
1067.817, 28758.00
1068.920, 28136.00
1070.023, 27987.00
1071.126, 27651.00
1072.229, 27476.00
1073.332, 27454.00
1074.435, 27448.00
1075.537, 27194.00
1076.639, 27269.00
1077.741, 27052.00
1078.843, 27097.00
1079.945, 27092.00
1081.046, 27072.00
1082.148, 26912.00
1083.249, 27088.00
1084.350, 26970.00
1085.451, 27242.00
1086.551, 27032.00
1087.652, 27093.00
1088.752, 27096.00
1089.853, 27013.00
1090.953, 27121.00
1092.053, 27122.00
1093.152, 27045.00
1094.252, 27164.00
1095.351, 27214.00
1096.451, 27373.00
1097.550, 27461.00
1098.649, 27560.00
1099.748, 27674.00
1100.846, 28099.00
1101.945, 27962.00
1103.043, 28324.00
1104.141, 28371.00
1105.239, 28300.00
1106.337, 28500.00
1107.434, 28440.00
1108.532, 28357.00
1109.629, 28314.52
1110.726, 28068.00
1111.823, 27986.00
1112.920, 27729.00
1114.017, 27431.00
1115.113, 27335.00
1116.210, 27243.00
1117.306, 26973.00
1118.402, 27118.00
1119.498, 27327.00
1120.593, 27150.00
1121.689, 27103.00
1122.784, 26995.00
1123.879, 27057.00
1124.974, 27140.00
1126.069, 26892.00
1127.164, 27191.00
1128.259, 26863.00
1129.353, 26844.00
1130.447, 26820.00
1131.541, 26744.00
1132.635, 26838.00
1133.729, 26754.00
1134.822, 26876.00
1135.916, 26774.00
1137.009, 26643.00
1138.102, 26853.00
1139.195, 26781.00
1140.288, 26708.00
1141.380, 26954.00
1142.473, 26758.00
1143.565, 26786.00
1144.657, 26857.00
1145.749, 26702.00
1146.841, 26751.00
1147.932, 26736.00
1149.024, 26683.00
1150.115, 26820.00
1151.206, 27014.00
1152.297, 26881.00
1153.388, 26820.00
1154.479, 26899.00
1155.569, 26767.00
1156.659, 26992.00
1157.750, 26838.00
1158.839, 26814.00
1159.929, 26738.00
1161.019, 26810.61
1162.108, 26912.00
1163.198, 27035.00
1164.287, 26941.00
1165.376, 27050.00
1166.465, 26975.00
1167.553, 26856.00
1168.642, 26771.00
1169.730, 26936.00
1170.818, 27009.00
1171.906, 27143.00
1172.994, 27004.00
1174.082, 27106.00
1175.170, 27144.00
1176.257, 27034.00
1177.344, 27426.00
1178.431, 27276.00
1179.518, 27241.00
1180.605, 27383.00
1181.691, 27320.00
1182.778, 27436.00
1183.864, 27490.00
1184.950, 27365.00
1186.036, 27445.00
1187.122, 28349.00
1188.207, 28300.00
1189.292, 28342.00
1190.378, 27781.00
1191.463, 27752.00
1192.548, 27566.00
1193.632, 27663.00
1194.717, 27905.00
1195.801, 27733.00
1196.886, 27967.00
1197.970, 27697.00
1199.054, 27764.00
1200.137, 27709.00
1201.221, 27913.00
1202.305, 28090.00
1203.388, 27956.00
1204.471, 28029.00
1205.554, 28226.00
1206.637, 28108.00
1207.719, 28201.00
1208.802, 28093.00
1209.884, 28075.00
1210.966, 28401.00
1212.048, 28496.00
1213.130, 28590.00
1214.212, 28584.00
1215.293, 28629.00
1216.374, 28738.00
1217.456, 28883.00
1218.536, 28928.00
1219.617, 29200.00
1220.698, 29234.00
1221.778, 29529.00
1222.859, 29680.00
1223.939, 29683.00
1225.019, 29765.00
1226.099, 30120.00
1227.178, 30486.00
1228.258, 30382.00
1229.337, 30581.00
1230.417, 30682.47
1231.496, 30929.00
1232.574, 30807.00
1233.653, 30975.00
1234.732, 30955.87
1235.810, 31254.00
1236.888, 31413.00
1237.966, 31399.00
1239.044, 31891.00
1240.122, 31668.00
1241.199, 31896.00
1242.277, 32164.00
1243.354, 32184.00
1244.431, 32276.00
1245.508, 32598.00
1246.585, 32584.00
1247.661, 32483.00
1248.738, 32503.00
1249.814, 32639.00
1250.890, 32606.00
1251.966, 32584.00
1253.042, 32589.00
1254.117, 32442.00
1255.193, 32510.00
1256.268, 32522.00
1257.343, 32113.00
1258.418, 32601.00
1259.493, 31914.00
1260.567, 32000.00
1261.642, 32168.00
1262.716, 32206.00
1263.790, 31867.00
1264.864, 31925.00
1265.938, 31689.00
1267.011, 31733.00
1268.085, 31511.00
1269.158, 31425.00
1270.231, 31340.00
1271.304, 31229.00
1272.377, 31421.00
1273.450, 30956.00
1274.522, 30832.00
1275.594, 31036.00
1276.666, 31079.00
1277.738, 30717.00
1278.810, 30938.00
1279.882, 30765.00
1280.953, 30693.00
1282.025, 30486.00
1283.096, 30789.00
1284.167, 30582.00
1285.238, 30514.00
1286.308, 30696.00
1287.379, 30596.00
1288.449, 30390.00
1289.519, 30481.00
1290.589, 30476.00
1291.659, 30557.00
1292.729, 30542.00
1293.798, 30631.00
1294.868, 30568.00
1295.937, 30514.00
1297.006, 30569.00
1298.075, 30594.00
1299.143, 30635.02
1300.212, 30516.00
1301.280, 30763.00
1302.348, 30782.00
1303.416, 30840.00
1304.484, 30635.00
1305.552, 30735.00
1306.620, 30642.00
1307.687, 30658.00
1308.754, 30682.83
1309.821, 30640.62
1310.888, 30718.00
1311.955, 30658.00
1313.021, 30677.00
1314.088, 30768.00
1315.154, 30941.00
1316.220, 30784.00
1317.286, 30995.00
1318.352, 31036.00
1319.417, 30900.00
1320.483, 30838.00
1321.548, 30977.00
1322.613, 31082.00
1323.678, 30996.00
1324.743, 31190.00
1325.807, 31014.00
1326.872, 31091.00
1327.936, 31123.00
1329.000, 31086.00
1330.064, 31040.00
1331.128, 31019.37
1332.191, 31101.00
1333.255, 30979.00
1334.318, 31224.00
1335.381, 31334.00
1336.444, 31171.00
1337.507, 31306.00
1338.569, 31226.00
1339.632, 31415.00
1340.694, 31416.00
1341.756, 31563.00
1342.818, 31429.00
1343.880, 31356.00
1344.941, 31555.00
1346.003, 31326.00
1347.064, 31450.00
1348.125, 31613.00
1349.186, 31440.00
1350.247, 31365.00
1351.308, 31581.00
1352.368, 31923.00
1353.428, 31618.00
1354.489, 31621.00
1355.549, 31773.00
1356.608, 31494.00
1357.668, 31710.00
1358.727, 31815.00
1359.787, 31681.00
1360.846, 31983.00
1361.905, 31901.00
1362.964, 32050.00
1364.022, 31816.00
1365.081, 31762.00
1366.139, 31852.00
1367.197, 31845.00
1368.255, 32103.00
1369.313, 32082.00
1370.371, 31845.00
1371.428, 32211.00
1372.486, 31701.00
1373.543, 32164.00
1374.600, 32038.00
1375.657, 32300.00
1376.713, 32255.00
1377.770, 32261.00
1378.826, 32325.00
1379.882, 32129.00
1380.938, 32304.00
1381.994, 32370.00
1383.050, 32220.00
1384.106, 32197.00
1385.161, 32342.00
1386.216, 32189.00
1387.271, 32266.00
1388.326, 32571.00
1389.381, 32198.00
1390.435, 32547.00
1391.490, 32485.00
1392.544, 32332.00
1393.598, 32389.00
1394.652, 32356.00
1395.705, 32433.00
1396.759, 32452.55
1397.812, 32558.00
1398.866, 32532.00
1399.919, 32513.00
1400.972, 32560.00
1402.024, 32738.00
1403.077, 32893.00
1404.129, 32771.00
1405.181, 32951.00
1406.233, 32984.00
1407.285, 32764.00
1408.337, 32712.00
1409.389, 32827.00
1410.440, 32970.00
1411.491, 32880.00
1412.542, 32883.00
1413.593, 32929.00
1414.644, 33142.00
1415.695, 32897.00
1416.745, 32919.00
1417.795, 33248.00
1418.845, 33180.00
1419.895, 33155.00
1420.945, 33150.00
1421.995, 33010.00
1423.044, 33282.00
1424.093, 33318.00
1425.142, 33317.00
1426.191, 33090.00
1427.240, 33292.00
1428.289, 32990.00
1429.337, 33349.00
1430.385, 33332.00
1431.433, 33396.00
1432.481, 33417.00
1433.529, 33445.66
1434.577, 33465.50
1435.624, 33489.00
1436.672, 33426.00
1437.719, 33381.00
1438.766, 33237.00
1439.812, 33373.00
1440.859, 33497.00
1441.905, 33386.00
1442.952, 33238.00
1443.998, 33355.00
1445.044, 33506.00
1446.090, 33422.00
1447.135, 33681.00
1448.181, 33441.00
1449.226, 33327.00
1450.271, 33621.00
1451.316, 33363.00
1452.361, 33290.00
1453.405, 33371.00
1454.450, 33359.00
1455.494, 33383.34
1456.538, 33392.00
1457.582, 33459.00
1458.626, 33555.00
1459.670, 33614.00
1460.713, 33500.00
1461.757, 33390.00
1462.800, 33454.00
1463.843, 33691.00
1464.886, 33421.00
1465.928, 33379.00
1466.971, 33768.00
1468.013, 33694.00
1469.055, 33471.00
1470.097, 33588.00
1471.139, 33647.00
1472.181, 33490.00
1473.222, 33537.00
1474.263, 33347.00
1475.305, 33445.00
1476.346, 33714.00
1477.386, 33851.00
1478.427, 33640.00
1479.468, 33783.00
1480.508, 33469.00
1481.548, 33953.00
1482.588, 33625.00
1483.628, 33851.00
1484.668, 33869.00
1485.707, 33839.00
1486.747, 33968.71
1487.786, 33941.46
1488.825, 34078.00
1489.864, 33962.00
1490.902, 33993.00
1491.941, 33979.00
1492.979, 33631.00
1494.017, 34018.00
1495.055, 33738.00
1496.093, 33953.00
1497.131, 33723.00
1498.168, 34237.00
1499.206, 34092.00
1500.243, 34196.00
1501.280, 34088.00
1502.317, 34123.00
1503.354, 34112.00
1504.390, 34301.00
1505.426, 34330.00
1506.463, 34253.00
1507.499, 34198.00
1508.535, 34099.00
1509.570, 34237.00
1510.606, 34417.00
1511.641, 34188.00
1512.676, 34409.00
1513.711, 34273.00
1514.746, 34325.00
1515.781, 34424.00
1516.816, 34474.00
1517.850, 34477.00
1518.884, 34546.00
1519.918, 34544.00
1520.952, 34446.00
1521.986, 34441.00
1523.019, 34475.80
1524.053, 34643.00
1525.086, 34603.00
1526.119, 34734.00
1527.152, 34845.00
1528.185, 34768.00
1529.217, 34768.00
1530.250, 34682.00
1531.282, 34704.80
1532.314, 34628.00
1533.346, 34812.00
1534.377, 34826.00
1535.409, 35025.00
1536.440, 34811.00
1537.472, 34920.00
1538.503, 35017.00
1539.534, 35177.00
1540.564, 35266.00
1541.595, 35299.65
1542.625, 35290.00
1543.656, 35341.00
1544.686, 35139.00
1545.716, 35177.00
1546.745, 35315.00
1547.775, 35451.00
1548.804, 35228.00
1549.834, 35412.00
1550.863, 35500.00
1551.892, 35382.00
1552.920, 35681.00
1553.949, 35624.00
1554.977, 35815.00
1556.006, 35804.00
1557.034, 35870.00
1558.062, 35610.00
1559.089, 35629.00
1560.117, 35789.00
1561.144, 35611.00
1562.172, 35790.00
1563.199, 36008.00
1564.226, 35818.00
1565.252, 36098.00
1566.279, 36105.00
1567.305, 36159.00
1568.332, 36142.00
1569.358, 36225.00
1570.384, 36371.00
##END=



