##NAMES=Andalusite
##RRUFFID=R050449
##IDEAL CHEMISTRY=Al_2_SiO_5_
##LOCALITY=Itinga, Minas Gerais, Brazil
##OWNER=RRUFF
##SOURCE=Marcus Origlieri
##DESCRIPTION=Green fragment
##STATUS=The identification of this mineral has been confirmed by X-ray diffraction and chemical analysis
##URL=rruff.info/R050449
##MEASURED CHEMISTRY=Al_2.00_Fe^3+^_0.01_Si_0.99_O_5_
##PIN_ID=L01352
##ORIENTATION=Laser parallel to -c* (0 0 -1). Fiducial mark perpendicular to laser is parallel to a [1 0 0]
92.24600, 5447.000
93.48000, 5614.000
94.71400, 5632.000
95.94800, 5658.000
97.18200, 5704.000
98.41600, 5638.000
99.64900, 5753.000
100.8830, 5879.000
102.1160, 5701.000
103.3490, 5752.000
104.5820, 5806.000
105.8150, 5849.000
107.0470, 5938.000
108.2800, 6221.000
109.5120, 6377.000
110.7440, 6704.000
111.9760, 6422.000
113.2080, 6161.000
114.4400, 6063.000
115.6710, 6206.000
116.9030, 6355.000
118.1340, 6273.000
119.3650, 6300.000
120.5960, 6160.000
121.8270, 6175.000
123.0580, 6152.000
124.2880, 6259.000
125.5190, 6190.000
126.7490, 6119.000
127.9790, 6057.000
129.2090, 6163.000
130.4390, 6241.000
131.6680, 6293.000
132.8980, 6269.000
134.1270, 6275.434
135.3560, 6272.690
136.5850, 6184.000
137.8140, 6276.000
139.0430, 6200.000
140.2710, 6264.000
141.5000, 6301.000
142.7280, 6324.000
143.9560, 6286.000
145.1840, 6219.000
146.4120, 6211.000
147.6390, 6268.000
148.8670, 6175.000
150.0940, 6218.000
151.3210, 6281.000
152.5490, 6248.000
153.7750, 6369.000
155.0020, 6271.000
156.2290, 6268.000
157.4550, 6206.000
158.6810, 6243.000
159.9080, 6230.000
161.1340, 6254.000
162.3590, 6265.000
163.5850, 6340.000
164.8110, 6402.000
166.0360, 6435.000
167.2610, 6545.000
168.4860, 6448.000
169.7110, 6473.000
170.9360, 6405.000
172.1610, 6427.262
173.3850, 6475.000
174.6100, 6444.000
175.8340, 6501.000
177.0580, 6427.000
178.2820, 6579.000
179.5050, 6452.000
180.7290, 6433.000
181.9520, 6527.000
183.1760, 6623.000
184.3990, 6654.000
185.6220, 6686.000
186.8450, 6790.000
188.0670, 6891.000
189.2900, 7033.000
190.5120, 7177.000
191.7340, 7254.000
192.9560, 7260.000
194.1780, 7132.000
195.4000, 7231.000
196.6220, 7237.000
197.8430, 7222.000
199.0640, 7217.000
200.2860, 7155.000
201.5070, 7370.000
202.7270, 8590.000
203.9480, 8614.000
205.1690, 9110.000
206.3890, 7428.000
207.6090, 6979.000
208.8290, 6833.000
210.0490, 6810.000
211.2690, 6630.000
212.4890, 6713.000
213.7080, 6685.000
214.9280, 6727.000
216.1470, 6754.000
217.3660, 6766.000
218.5850, 6781.263
219.8030, 6789.391
221.0220, 6773.000
222.2400, 6784.000
223.4590, 6749.000
224.6770, 6715.000
225.8950, 6853.000
227.1120, 6727.000
228.3300, 6745.000
229.5480, 6910.000
230.7650, 6762.000
231.9820, 6862.000
233.1990, 6842.000
234.4160, 6974.000
235.6330, 7127.000
236.8490, 7186.000
238.0660, 7271.000
239.2820, 7526.000
240.4980, 7493.000
241.7140, 7668.000
242.9300, 7619.000
244.1460, 7737.000
245.3610, 7605.000
246.5770, 7627.000
247.7920, 7602.000
249.0070, 7632.000
250.2220, 7446.000
251.4370, 7528.000
252.6510, 7483.000
253.8660, 7628.000
255.0800, 7462.000
256.2940, 7618.000
257.5080, 7812.000
258.7220, 7757.000
259.9360, 7816.000
261.1490, 8115.000
262.3630, 8189.000
263.5760, 8026.000
264.7890, 8136.000
266.0020, 8394.000
267.2150, 8440.000
268.4270, 8749.000
269.6400, 8980.000
270.8520, 9294.000
272.0640, 9735.000
273.2760, 10178.00
274.4880, 10921.00
275.7000, 11647.00
276.9120, 12394.00
278.1230, 12920.00
279.3340, 13879.00
280.5450, 15301.00
281.7560, 17403.00
282.9670, 20246.00
284.1780, 23620.00
285.3880, 27177.00
286.5980, 30887.00
287.8090, 35422.00
289.0190, 40762.00
290.2290, 45597.00
291.4380, 47721.00
292.6480, 46479.00
293.8570, 42171.00
295.0670, 36747.00
296.2760, 31217.00
297.4850, 25757.00
298.6930, 21136.00
299.9020, 17568.00
301.1110, 15113.00
302.3190, 13428.00
303.5270, 12247.00
304.7350, 11450.00
305.9430, 10880.00
307.1510, 10504.00
308.3580, 10392.00
309.5660, 10496.00
310.7730, 11153.00
311.9800, 12040.00
313.1870, 13222.00
314.3940, 14540.00
315.6010, 16118.00
316.8070, 18216.00
318.0130, 20912.00
319.2200, 24103.00
320.4260, 26004.00
321.6310, 25803.00
322.8370, 24501.00
324.0430, 22677.00
325.2480, 20178.00
326.4540, 17866.00
327.6590, 15818.00
328.8640, 14434.00
330.0680, 13481.00
331.2730, 12700.00
332.4780, 12441.00
333.6820, 11961.00
334.8860, 11728.00
336.0900, 11654.00
337.2940, 11475.00
338.4980, 11317.00
339.7010, 11137.00
340.9050, 10953.00
342.1080, 10727.00
343.3110, 10841.00
344.5140, 10578.00
345.7170, 10763.00
346.9200, 10907.00
348.1220, 11135.00
349.3240, 11673.00
350.5270, 12353.65
351.7290, 13266.00
352.9310, 14360.00
354.1320, 15622.00
355.3340, 17182.00
356.5350, 18444.00
357.7370, 19511.00
358.9380, 19771.00
360.1390, 19387.00
361.3400, 18139.00
362.5400, 16628.00
363.7410, 15472.00
364.9410, 14290.00
366.1410, 13225.80
367.3410, 11995.00
368.5410, 11467.00
369.7410, 10954.00
370.9400, 10387.00
372.1400, 10243.00
373.3390, 9796.000
374.5380, 9653.000
375.7370, 9584.000
376.9360, 9378.000
378.1350, 9235.000
379.3330, 9315.000
380.5310, 9268.000
381.7300, 9278.000
382.9280, 9159.000
384.1260, 9103.000
385.3230, 9078.000
386.5210, 8968.000
387.7180, 8862.000
388.9160, 8871.000
390.1130, 8961.000
391.3100, 8851.000
392.5060, 8914.000
393.7030, 8781.000
394.9000, 8734.000
396.0960, 8558.000
397.2920, 8579.000
398.4880, 8451.000
399.6840, 8399.000
400.8800, 8428.000
402.0750, 8271.000
403.2710, 8428.000
404.4660, 8536.000
405.6610, 8448.000
406.8560, 8460.000
408.0510, 8468.000
409.2450, 8461.000
410.4400, 8699.000
411.6340, 8729.000
412.8280, 8887.000
414.0220, 8922.000
415.2160, 9088.000
416.4100, 9322.000
417.6030, 9415.000
418.7970, 9535.000
419.9900, 9438.000
421.1830, 9176.000
422.3760, 9029.000
423.5690, 8914.000
424.7610, 8725.000
425.9540, 8508.000
427.1460, 8480.000
428.3380, 8434.000
429.5300, 8445.000
430.7220, 8392.000
431.9140, 8224.000
433.1050, 8345.000
434.2970, 8293.000
435.4880, 8254.000
436.6790, 8315.000
437.8700, 8283.000
439.0610, 8287.000
440.2510, 8503.000
441.4420, 8569.000
442.6320, 8607.000
443.8220, 8671.000
445.0120, 8935.000
446.2020, 9160.000
447.3910, 9340.000
448.5810, 9531.000
449.7700, 10173.00
450.9600, 10658.00
452.1490, 10787.00
453.3370, 10234.00
454.5260, 9654.000
455.7150, 9429.000
456.9030, 8968.000
458.0910, 8691.000
459.2800, 8609.000
460.4670, 8495.000
461.6550, 8484.000
462.8430, 8392.000
464.0300, 8452.000
465.2180, 8319.000
466.4050, 8453.000
467.5920, 8486.000
468.7790, 8524.000
469.9650, 8478.000
471.1520, 8614.000
472.3380, 8604.000
473.5250, 8696.000
474.7110, 8741.000
475.8970, 8653.000
477.0820, 8802.000
478.2680, 8753.000
479.4540, 8721.000
480.6390, 8727.000
481.8240, 8773.000
483.0090, 8829.000
484.1940, 8793.000
485.3780, 8876.000
486.5630, 8805.000
487.7470, 8789.000
488.9320, 8767.000
490.1160, 8738.000
491.3000, 8673.000
492.4830, 8640.000
493.6670, 8556.000
494.8500, 8670.000
496.0340, 8546.000
497.2170, 8671.000
498.4000, 8662.000
499.5820, 8706.000
500.7650, 8699.000
501.9480, 8734.000
503.1300, 8789.000
504.3120, 8941.000
505.4940, 8836.000
506.6760, 8914.000
507.8580, 8959.000
509.0390, 8902.000
510.2210, 8950.000
511.4020, 9094.000
512.5830, 9132.000
513.7640, 9084.000
514.9450, 9129.000
516.1250, 9092.000
517.3060, 9132.000
518.4860, 9067.000
519.6660, 9160.000
520.8460, 9097.000
522.0260, 8996.000
523.2060, 9218.000
524.3850, 9204.000
525.5650, 9150.000
526.7440, 9244.000
527.9230, 9222.000
529.1020, 9349.000
530.2810, 9357.000
531.4590, 9437.000
532.6380, 9480.000
533.8160, 9481.000
534.9940, 9737.000
536.1720, 9773.000
537.3500, 10039.00
538.5270, 10232.00
539.7050, 10650.00
540.8820, 11068.00
542.0590, 11486.80
543.2360, 11950.00
544.4130, 12548.00
545.5900, 13270.00
546.7660, 13977.00
547.9430, 14760.00
549.1190, 15410.00
550.2950, 15780.00
551.4710, 15905.00
552.6470, 15521.00
553.8220, 14968.00
554.9980, 14222.00
556.1730, 13390.00
557.3480, 12735.00
558.5230, 12081.00
559.6980, 11656.00
560.8730, 11116.00
562.0470, 10900.00
563.2220, 10795.00
564.3960, 10603.00
565.5700, 10576.00
566.7440, 10555.00
567.9170, 10378.00
569.0910, 10308.00
570.2640, 10431.00
571.4380, 10438.00
572.6110, 10434.00
573.7840, 10203.00
574.9570, 10181.00
576.1290, 10187.00
577.3020, 10144.00
578.4740, 10106.00
579.6460, 10027.00
580.8180, 9890.000
581.9900, 9807.000
583.1620, 9735.070
584.3330, 9675.270
585.5040, 9682.000
586.6760, 9645.000
587.8470, 9777.000
589.0180, 9860.000
590.1880, 9822.000
591.3590, 9573.000
592.5290, 9881.000
593.7000, 9717.000
594.8700, 9796.000
596.0400, 9925.000
597.2090, 9863.000
598.3790, 9829.000
599.5490, 9919.000
600.7180, 10045.00
601.8870, 10140.00
603.0560, 10226.00
604.2250, 10236.00
605.3940, 10337.00
606.5620, 10420.00
607.7300, 10311.00
608.8990, 10412.00
610.0670, 10240.00
611.2350, 10187.00
612.4020, 10243.00
613.5700, 10223.00
614.7370, 10215.00
615.9050, 10277.12
617.0720, 10229.00
618.2390, 10383.00
619.4060, 10412.31
620.5720, 10469.00
621.7390, 10459.00
622.9050, 10653.00
624.0710, 10544.00
625.2370, 10682.00
626.4030, 10880.00
627.5690, 10797.00
628.7340, 10931.00
629.9000, 10686.00
631.0650, 10704.46
632.2300, 10623.40
633.3950, 10601.00
634.5600, 10452.00
635.7240, 10446.00
636.8890, 10382.00
638.0530, 10369.00
639.2170, 10327.00
640.3810, 10257.00
641.5450, 10436.00
642.7080, 10405.00
643.8720, 10470.00
645.0350, 10474.00
646.1980, 10517.00
647.3610, 10555.00
648.5240, 10485.00
649.6870, 10553.00
650.8490, 10434.00
652.0120, 10272.00
653.1740, 10181.00
654.3360, 10217.00
655.4980, 10003.00
656.6600, 10119.00
657.8210, 10024.00
658.9830, 9920.000
660.1440, 10036.00
661.3050, 9920.000
662.4660, 10115.00
663.6270, 10237.00
664.7870, 9933.000
665.9480, 9758.000
667.1080, 9654.000
668.2680, 9442.000
669.4280, 9435.000
670.5880, 9504.000
671.7480, 9434.000
672.9070, 9420.000
674.0670, 9452.000
675.2260, 9428.000
676.3850, 9418.000
677.5440, 9466.000
678.7030, 9439.000
679.8610, 9441.000
681.0200, 9444.000
682.1780, 9514.000
683.3360, 9352.000
684.4940, 9490.000
685.6520, 9382.000
686.8090, 9619.000
687.9670, 9494.000
689.1240, 9390.000
690.2810, 9453.000
691.4380, 9625.000
692.5950, 9560.000
693.7520, 9554.000
694.9080, 9476.000
696.0650, 9570.000
697.2210, 9632.000
698.3770, 9708.000
699.5330, 9765.000
700.6880, 9795.224
701.8440, 9761.000
702.9990, 9844.000
704.1550, 9886.000
705.3100, 9922.000
706.4650, 9983.000
707.6190, 10106.00
708.7740, 10079.00
709.9290, 10310.00
711.0830, 10299.00
712.2370, 10577.00
713.3910, 10955.00
714.5450, 10986.00
715.6980, 11233.00
716.8520, 11272.00
718.0050, 11316.00
719.1580, 11259.00
720.3110, 11217.00
721.4640, 10879.00
722.6170, 10746.00
723.7700, 10479.00
724.9220, 10351.00
726.0740, 10222.00
727.2260, 10115.00
728.3780, 9849.000
729.5300, 9896.000
730.6810, 9935.000
731.8330, 9795.000
732.9840, 9918.000
734.1350, 9886.000
735.2860, 10036.00
736.4370, 9869.000
737.5880, 9919.000
738.7380, 9876.000
739.8880, 9863.000
741.0390, 9718.000
742.1890, 9860.000
743.3380, 9844.000
744.4880, 9760.000
745.6380, 9838.000
746.7870, 9788.000
747.9360, 9948.000
749.0850, 9890.000
750.2340, 9816.000
751.3830, 9924.000
752.5310, 10047.00
753.6800, 9925.000
754.8280, 9952.000
755.9760, 9879.000
757.1240, 9903.000
758.2720, 9943.000
759.4190, 9822.000
760.5670, 9968.000
761.7140, 9921.000
762.8610, 9848.000
764.0080, 9965.000
765.1550, 9968.000
766.3020, 9911.000
767.4480, 9974.000
768.5950, 9889.000
769.7410, 9927.000
770.8870, 10020.00
772.0330, 9838.000
773.1780, 10097.00
774.3240, 9969.000
775.4690, 9967.000
776.6140, 9951.000
777.7590, 9936.753
778.9040, 9997.000
780.0490, 10038.00
781.1940, 10019.00
782.3380, 10193.00
783.4820, 10090.00
784.6260, 10098.00
785.7700, 10153.00
786.9140, 10066.00
788.0580, 10236.00
789.2010, 10282.00
790.3450, 10318.00
791.4880, 10275.00
792.6310, 10479.00
793.7730, 10313.00
794.9160, 10463.00
796.0590, 10409.00
797.2010, 10479.00
798.3430, 10420.00
799.4850, 10578.00
800.6270, 10742.00
801.7690, 10922.00
802.9100, 11008.00
804.0520, 10975.00
805.1930, 11067.00
806.3340, 11209.00
807.4750, 11290.00
808.6160, 11457.00
809.7560, 11394.00
810.8970, 11406.00
812.0370, 11645.00
813.1770, 11644.00
814.3170, 11912.00
815.4570, 11993.00
816.5960, 12024.00
817.7360, 12233.00
818.8750, 12278.00
820.0140, 12274.00
821.1530, 12469.00
822.2920, 12309.00
823.4310, 12338.00
824.5690, 12249.00
825.7070, 12302.00
826.8460, 12114.00
827.9840, 12087.00
829.1220, 11970.00
830.2590, 11999.00
831.3970, 12010.14
832.5340, 12148.00
833.6710, 12077.00
834.8080, 12004.00
835.9450, 11950.00
837.0820, 11780.00
838.2190, 11674.00
839.3550, 11536.00
840.4910, 11387.00
841.6270, 11257.00
842.7630, 11124.31
843.8990, 10992.00
845.0350, 10893.00
846.1700, 10825.00
847.3060, 10764.00
848.4410, 10828.00
849.5760, 10700.00
850.7100, 10625.00
851.8450, 10757.00
852.9800, 10661.00
854.1140, 10647.00
855.2480, 10722.00
856.3820, 10853.00
857.5160, 10792.00
858.6500, 10801.00
859.7830, 10753.00
860.9170, 10780.00
862.0500, 10754.00
863.1830, 10776.92
864.3160, 10906.00
865.4480, 10844.00
866.5810, 10846.00
867.7130, 10902.00
868.8460, 10863.00
869.9780, 10957.00
871.1100, 10881.00
872.2410, 10856.00
873.3730, 10960.00
874.5050, 10842.00
875.6360, 10833.00
876.7670, 10966.00
877.8980, 11019.00
879.0290, 11113.00
880.1590, 11083.00
881.2900, 11084.00
882.4200, 11113.00
883.5500, 11241.00
884.6800, 11324.00
885.8100, 11168.00
886.9400, 11419.00
888.0690, 11520.00
889.1990, 11494.00
890.3280, 11727.00
891.4570, 11667.00
892.5860, 11778.00
893.7140, 12078.00
894.8430, 12005.00
895.9710, 12474.00
897.1000, 12562.00
898.2280, 12887.00
899.3560, 13029.00
900.4830, 13394.00
901.6110, 13898.00
902.7380, 14350.00
903.8660, 14722.00
904.9930, 15253.00
906.1200, 16077.00
907.2460, 17017.00
908.3730, 18395.00
909.5000, 19823.00
910.6260, 22031.00
911.7520, 25087.00
912.8780, 28741.00
914.0040, 33173.00
915.1290, 38545.00
916.2550, 44128.00
917.3800, 49815.00
918.5050, 53443.00
919.6300, 54450.00
920.7550, 51529.00
921.8800, 46467.00
923.0040, 40499.00
924.1290, 35205.00
925.2530, 31036.00
926.3770, 27914.00
927.5010, 25372.00
928.6250, 23738.00
929.7480, 22250.00
930.8720, 20643.00
931.9950, 19414.00
933.1180, 18239.00
934.2410, 17335.00
935.3640, 16634.00
936.4860, 16144.00
937.6090, 15809.00
938.7310, 15706.00
939.8530, 15564.00
940.9750, 15649.00
942.0970, 15865.00
943.2180, 16195.00
944.3400, 16769.00
945.4610, 17253.00
946.5820, 17911.00
947.7030, 18517.00
948.8240, 19286.00
949.9450, 19428.00
951.0650, 19326.00
952.1860, 18800.00
953.3060, 18186.00
954.4260, 17299.00
955.5460, 16258.00
956.6650, 15531.00
957.7850, 14787.00
958.9040, 14055.00
960.0230, 13613.00
961.1420, 13315.00
962.2610, 12929.00
963.3800, 12686.00
964.4990, 12634.00
965.6170, 12417.00
966.7350, 12489.00
967.8530, 12380.00
968.9710, 12147.00
970.0890, 12150.00
971.2070, 12161.00
972.3240, 12056.00
973.4410, 12104.00
974.5580, 11985.00
975.6750, 12026.00
976.7920, 12079.00
977.9090, 12030.00
979.0250, 11998.00
980.1410, 12089.00
981.2580, 12183.00
982.3740, 12100.00
983.4890, 11989.00
984.6050, 12006.00
985.7200, 11894.00
986.8360, 12013.00
987.9510, 12068.00
989.0660, 12255.00
990.1810, 12146.00
991.2950, 12083.00
992.4100, 12254.00
993.5240, 12302.00
994.6390, 12462.00
995.7530, 12406.00
996.8660, 12673.00
997.9800, 12817.00
999.0940, 13008.00
1000.207, 13276.00
1001.320, 13497.00
1002.433, 13692.00
1003.546, 14287.00
1004.659, 14462.00
1005.772, 14709.00
1006.884, 14655.00
1007.996, 14687.00
1009.108, 14792.00
1010.220, 14866.00
1011.332, 15205.00
1012.444, 15675.00
1013.555, 16424.00
1014.666, 17175.00
1015.777, 17895.00
1016.888, 18790.00
1017.999, 19129.00
1019.110, 19652.00
1020.220, 19787.00
1021.331, 19329.00
1022.441, 18752.00
1023.551, 17761.00
1024.661, 17060.00
1025.770, 16281.00
1026.880, 15683.00
1027.989, 15000.00
1029.098, 14640.00
1030.207, 14272.00
1031.316, 14115.00
1032.425, 13816.00
1033.533, 13693.00
1034.642, 13521.00
1035.750, 13336.00
1036.858, 13349.00
1037.966, 13419.00
1039.073, 13273.00
1040.181, 13120.00
1041.288, 13272.00
1042.396, 13082.00
1043.503, 13143.00
1044.610, 13129.00
1045.716, 13134.00
1046.823, 13200.00
1047.929, 13414.00
1049.036, 13337.00
1050.142, 13486.00
1051.248, 13823.00
1052.353, 13784.00
1053.459, 14071.00
1054.564, 14328.00
1055.670, 15004.00
1056.775, 15541.00
1057.880, 16333.00
1058.985, 17498.00
1060.089, 18940.00
1061.194, 20541.00
1062.298, 22244.00
1063.402, 23273.00
1064.506, 24254.00
1065.610, 23926.00
1066.713, 22885.00
1067.817, 21159.00
1068.920, 19744.00
1070.023, 18151.00
1071.126, 16889.00
1072.229, 16106.00
1073.332, 15355.00
1074.435, 14683.00
1075.537, 14269.00
1076.639, 14164.00
1077.741, 13874.00
1078.843, 13573.00
1079.945, 13317.00
1081.046, 13222.00
1082.148, 13061.88
1083.249, 13122.00
1084.350, 12971.00
1085.451, 13012.00
1086.551, 13096.00
1087.652, 12938.00
1088.752, 13017.00
1089.853, 12907.00
1090.953, 12923.00
1092.053, 13042.00
1093.152, 12960.00
1094.252, 13032.00
1095.351, 13056.00
1096.451, 13028.00
1097.550, 13072.00
1098.649, 13171.07
1099.748, 13275.58
1100.846, 13442.00
1101.945, 13631.00
1103.043, 13819.00
1104.141, 14090.00
1105.239, 14288.00
1106.337, 14704.00
1107.434, 14988.00
1108.532, 15130.00
1109.629, 15206.00
1110.726, 15165.00
1111.823, 15070.00
1112.920, 14713.00
1114.017, 14545.00
1115.113, 14301.00
1116.210, 13858.00
1117.306, 13733.00
1118.402, 13609.00
1119.498, 13315.00
1120.593, 13278.00
1121.689, 13195.00
1122.784, 13121.00
1123.879, 13203.00
1124.974, 13096.00
1126.069, 13100.00
1127.164, 13006.00
1128.259, 13045.00
1129.353, 12773.00
1130.447, 12791.00
1131.541, 12636.00
1132.635, 12599.00
1133.729, 12520.00
1134.822, 12552.00
1135.916, 12571.00
1137.009, 12615.00
1138.102, 12535.00
1139.195, 12635.00
1140.288, 12660.00
1141.380, 12667.00
1142.473, 12510.00
1143.565, 12560.29
1144.657, 12573.00
1145.749, 12520.00
1146.841, 12541.00
1147.932, 12484.00
1149.024, 12529.00
1150.115, 12456.00
1151.206, 12528.00
1152.297, 12516.00
1153.388, 12532.00
1154.479, 12512.00
1155.569, 12435.00
1156.659, 12572.00
1157.750, 12535.00
1158.839, 12515.00
1159.929, 12620.00
1161.019, 12354.00
1162.108, 12543.00
1163.198, 12490.00
1164.287, 12635.00
1165.376, 12578.00
1166.465, 12496.00
1167.553, 12531.00
1168.642, 12517.18
1169.730, 12601.00
1170.818, 12568.00
1171.906, 12613.00
1172.994, 12621.00
1174.082, 12677.00
1175.170, 12660.00
1176.257, 12621.00
1177.344, 12634.00
1178.431, 12640.54
1179.518, 12614.00
1180.605, 12702.00
1181.691, 12612.00
1182.778, 12661.00
1183.864, 12759.00
1184.950, 12717.73
1186.036, 12654.00
1187.122, 12735.00
1188.207, 12697.00
1189.292, 12688.00
1190.378, 12642.00
1191.463, 12719.00
1192.548, 12598.00
1193.632, 12660.00
1194.717, 12640.00
1195.801, 12777.00
1196.886, 12738.00
1197.970, 12699.00
1199.054, 12737.00
1200.137, 12704.58
1201.221, 12778.00
1202.305, 12702.00
1203.388, 12741.00
1204.471, 12751.00
1205.554, 12620.00
1206.637, 12791.00
1207.719, 12662.00
1208.802, 12729.00
1209.884, 12623.00
1210.966, 12739.00
1212.048, 12741.00
1213.130, 12735.00
1214.212, 12700.00
1215.293, 12743.66
1216.374, 12865.00
1217.456, 12829.00
1218.536, 12784.00
1219.617, 12846.00
1220.698, 12681.00
1221.778, 12911.00
1222.859, 12806.00
1223.939, 12757.00
1225.019, 12818.00
1226.099, 12793.00
1227.178, 12838.00
1228.258, 12849.95
1229.337, 12903.00
1230.417, 12861.00
1231.496, 12830.00
1232.574, 12796.00
1233.653, 12784.13
1234.732, 12760.29
1235.810, 12782.00
1236.888, 12789.00
1237.966, 12814.00
1239.044, 12959.00
1240.122, 12845.00
1241.199, 12764.00
1242.277, 12891.00
1243.354, 12974.00
1244.431, 12854.00
1245.508, 12897.00
1246.585, 12992.00
1247.661, 12900.00
1248.738, 12955.00
1249.814, 12911.00
1250.890, 12935.00
1251.966, 12928.65
1253.042, 12915.00
1254.117, 12897.00
1255.193, 12962.00
1256.268, 12925.00
1257.343, 13001.00
1258.418, 12985.00
1259.493, 12957.00
1260.567, 12836.00
1261.642, 13061.00
1262.716, 13131.00
1263.790, 13095.00
1264.864, 12910.00
1265.938, 13083.00
1267.011, 13348.00
1268.085, 13083.00
1269.158, 13149.00
1270.231, 13011.00
1271.304, 13082.00
1272.377, 13081.00
1273.450, 13140.00
1274.522, 13067.00
1275.594, 13319.00
1276.666, 13164.00
1277.738, 13244.00
1278.810, 13196.00
1279.882, 13172.00
1280.953, 13073.00
1282.025, 12977.00
1283.096, 13097.00
1284.167, 13131.00
1285.238, 13212.00
1286.308, 13125.00
1287.379, 13192.00
1288.449, 13313.00
1289.519, 13049.00
1290.589, 13075.00
1291.659, 13094.00
1292.729, 13032.00
1293.798, 13096.00
1294.868, 13282.00
1295.937, 13187.00
1297.006, 13245.00
1298.075, 13160.00
1299.143, 13333.00
1300.212, 13249.00
1301.280, 13176.00
1302.348, 13149.00
1303.416, 13278.00
1304.484, 13206.00
1305.552, 13252.00
1306.620, 13203.00
1307.687, 13221.00
1308.754, 13198.00
1309.821, 13252.00
1310.888, 13316.00
1311.955, 13276.00
1313.021, 13253.00
1314.088, 13320.00
1315.154, 13372.00
1316.220, 13369.00
1317.286, 13285.00
1318.352, 13324.00
1319.417, 13319.00
1320.483, 13297.00
1321.548, 13476.00
1322.613, 13182.00
1323.678, 13434.00
1324.743, 13394.00
1325.807, 13321.00
1326.872, 13296.00
1327.936, 13371.00
1329.000, 13269.00
1330.064, 13296.00
1331.128, 13201.00
1332.191, 13264.00
1333.255, 13299.00
1334.318, 13242.00
1335.381, 13236.00
1336.444, 13324.00
1337.507, 13279.00
1338.569, 13232.00
1339.632, 13355.00
1340.694, 13239.00
1341.756, 13197.00
1342.818, 13288.00
1343.880, 13323.00
1344.941, 13379.00
1346.003, 13247.00
1347.064, 13343.00
1348.125, 13419.00
1349.186, 13204.00
1350.247, 13282.00
1351.308, 13457.00
1352.368, 13524.00
1353.428, 13420.00
1354.489, 13380.00
1355.549, 13491.00
1356.608, 13365.00
1357.668, 13414.00
1358.727, 13575.00
1359.787, 13599.00
1360.846, 13438.00
1361.905, 13387.00
1362.964, 13366.00
1364.022, 13359.84
1365.081, 13477.00
1366.139, 13486.00
1367.197, 13501.00
1368.255, 13629.00
1369.313, 13539.00
1370.371, 13437.00
1371.428, 13565.00
1372.486, 13617.00
1373.543, 13619.00
1374.600, 13694.00
1375.657, 13705.04
1376.713, 13506.00
1377.770, 13682.00
1378.826, 13673.00
1379.882, 13513.00
1380.938, 13578.00
1381.994, 13673.00
1383.050, 13609.00
1384.106, 13599.00
1385.161, 13727.00
1386.216, 13772.00
1387.271, 13872.00
1388.326, 13727.00
1389.381, 13740.00
1390.435, 13694.00
1391.490, 13566.00
1392.544, 13569.00
1393.598, 13654.00
1394.652, 13761.00
1395.705, 13562.00
1396.759, 13607.00
1397.812, 13608.00
1398.866, 13603.00
1399.919, 13614.00
1400.972, 13745.00
1402.024, 13807.00
1403.077, 13797.66
1404.129, 13706.00
1405.181, 13750.00
1406.233, 13723.00
1407.285, 13650.00
1408.337, 13678.65
1409.389, 13646.00
1410.440, 13706.00
1411.491, 13670.00
1412.542, 13761.00
1413.593, 13652.00
1414.644, 13687.00
1415.695, 13695.00
1416.745, 13670.00
1417.795, 13729.00
1418.845, 13658.00
1419.895, 13717.00
1420.945, 13772.00
1421.995, 13674.00
1423.044, 13797.00
1424.093, 13844.00
1425.142, 13717.00
1426.191, 13859.00
1427.240, 13736.00
1428.289, 13860.00
1429.337, 13913.00
1430.385, 13938.00
1431.433, 13803.00
1432.481, 13924.00
1433.529, 14057.00
1434.577, 13851.00
1435.624, 13898.00
1436.672, 13897.00
1437.719, 14124.00
1438.766, 14109.00
1439.812, 14180.00
1440.859, 14177.00
1441.905, 14191.00
1442.952, 14248.00
1443.998, 14274.00
1445.044, 14319.00
1446.090, 14319.08
1447.135, 14275.00
1448.181, 14277.00
1449.226, 14276.82
1450.271, 14268.00
1451.316, 14298.00
1452.361, 14301.34
1453.405, 14394.00
1454.450, 14334.00
1455.494, 14396.00
1456.538, 14416.00
1457.582, 14294.00
1458.626, 14329.00
1459.670, 14373.00
1460.713, 14272.00
1461.757, 14318.00
1462.800, 14433.00
1463.843, 14369.00
1464.886, 14497.00
1465.928, 14360.00
1466.971, 14164.00
1468.013, 14189.00
1469.055, 14211.00
1470.097, 14307.00
1471.139, 14198.00
1472.181, 14334.00
1473.222, 14195.00
1474.263, 14115.00
1475.305, 14247.00
1476.346, 14243.00
1477.386, 14233.00
1478.427, 14172.00
1479.468, 14379.00
1480.508, 14364.00
1481.548, 14292.00
1482.588, 14158.00
1483.628, 14188.00
1484.668, 14243.00
1485.707, 14264.00
1486.747, 14209.00
1487.786, 14092.00
1488.825, 14162.00
1489.864, 14147.59
1490.902, 14160.36
1491.941, 14273.00
1492.979, 14208.00
1494.017, 14328.00
1495.055, 14304.00
1496.093, 14236.00
1497.131, 14218.00
1498.168, 14264.00
1499.206, 14245.00
1500.243, 14314.00
1501.280, 14317.00
1502.317, 14287.00
1503.354, 14296.00
1504.390, 14297.20
1505.426, 14294.00
1506.463, 14335.00
1507.499, 14295.00
1508.535, 14354.00
1509.570, 14342.00
1510.606, 14298.00
1511.641, 14390.00
1512.676, 14369.00
1513.711, 14291.00
1514.746, 14386.00
1515.781, 14393.00
1516.816, 14302.00
1517.850, 14371.00
1518.884, 14277.00
1519.918, 14452.00
1520.952, 14434.00
1521.986, 14443.00
1523.019, 14389.00
1524.053, 14553.00
1525.086, 14578.00
1526.119, 14536.00
1527.152, 14445.00
1528.185, 14537.79
1529.217, 14375.00
1530.250, 14587.00
1531.282, 14611.00
1532.314, 14440.00
1533.346, 14479.00
1534.377, 14573.00
1535.409, 14446.00
1536.440, 14626.00
1537.472, 14669.00
1538.503, 14666.00
1539.534, 14645.00
1540.564, 14565.00
1541.595, 14488.00
1542.625, 14541.00
1543.656, 14629.00
1544.686, 14559.00
1545.716, 14687.00
1546.745, 14605.00
1547.775, 14622.00
1548.804, 14576.00
1549.834, 14611.00
1550.863, 14723.00
1551.892, 14511.00
1552.920, 14761.00
1553.949, 14833.00
1554.977, 14641.00
1556.006, 14845.00
1557.034, 14764.00
1558.062, 14908.00
1559.089, 14827.00
1560.117, 14731.00
1561.144, 14778.00
1562.172, 14763.00
1563.199, 14813.00
1564.226, 14646.00
1565.252, 14816.00
1566.279, 14889.00
1567.305, 14742.00
1568.332, 14989.00
1569.358, 14683.00
1570.384, 14972.00
1571.409, 14871.00
##END=



