##NAMES=Andalusite
##RRUFFID=R050561
##IDEAL CHEMISTRY=Al_2_SiO_5_
##LOCALITY=Cargo Muchacho Mountain, Imperial County, California
##OWNER=RRUFF
##SOURCE=Dave Bunk Minerals
##DESCRIPTION=Brown coarsely crystalline massive
##STATUS=The identification of this mineral has been confirmed by X-ray diffraction and chemical analysis
##URL=rruff.info/R050561
##MEASURED CHEMISTRY=(Al_1.98_Fe^3+^_0.02_)_Î£=2_Si_1.00_O_5_
##PIN_ID=M00237
##ORIENTATION=Laser parallel to c* (0 0 1). Fiducial mark perpendicular to laser is parallel to 1 0 0
157.4550, 5073.000
158.6810, 5091.000
159.9080, 5118.000
161.1340, 5201.000
162.3590, 5222.000
163.5850, 5426.000
164.8110, 5632.000
166.0360, 5837.000
167.2610, 5808.000
168.4860, 5698.000
169.7110, 5848.000
170.9360, 5951.000
172.1610, 5736.000
173.3850, 5727.000
174.6100, 5655.000
175.8340, 5655.000
177.0580, 5668.631
178.2820, 5756.000
179.5050, 5746.000
180.7290, 5819.000
181.9520, 5898.000
183.1760, 5858.000
184.3990, 5950.000
185.6220, 6123.000
186.8450, 6372.000
188.0670, 6606.000
189.2900, 6805.000
190.5120, 6908.000
191.7340, 7102.000
192.9560, 7168.000
194.1780, 7270.000
195.4000, 7373.000
196.6220, 7470.000
197.8430, 7287.000
199.0640, 7311.000
200.2860, 7390.000
201.5070, 7706.000
202.7270, 7751.000
203.9480, 7236.000
205.1690, 6384.000
206.3890, 5843.000
207.6090, 5442.000
208.8290, 5417.000
210.0490, 5527.000
211.2690, 5392.000
212.4890, 5452.000
213.7080, 5450.000
214.9280, 5591.000
216.1470, 5542.000
217.3660, 5479.000
218.5850, 5371.000
219.8030, 5448.000
221.0220, 5378.000
222.2400, 5418.000
223.4590, 5471.000
224.6770, 5441.000
225.8950, 5603.000
227.1120, 5682.000
228.3300, 5845.000
229.5480, 6113.000
230.7650, 6300.000
231.9820, 6685.000
233.1990, 6979.000
234.4160, 7309.000
235.6330, 7728.000
236.8490, 8002.000
238.0660, 8151.000
239.2820, 8232.000
240.4980, 8130.000
241.7140, 8066.000
242.9300, 7995.000
244.1460, 7745.000
245.3610, 7658.000
246.5770, 7456.000
247.7920, 7487.000
249.0070, 7312.000
250.2220, 7362.000
251.4370, 7267.000
252.6510, 7317.000
253.8660, 7450.000
255.0800, 7436.000
256.2940, 7613.000
257.5080, 7698.000
258.7220, 8257.000
259.9360, 8262.024
261.1490, 9087.000
262.3630, 8708.000
263.5760, 9038.000
264.7890, 9634.000
266.0020, 10611.00
267.2150, 11197.64
268.4270, 12708.00
269.6400, 13053.00
270.8520, 13954.00
272.0640, 15371.00
273.2760, 16316.00
274.4880, 17413.00
275.7000, 18691.00
276.9120, 20418.00
278.1230, 22762.00
279.3340, 26407.00
280.5450, 30750.00
281.7560, 35780.00
282.9670, 41298.00
284.1780, 46272.00
285.3880, 50233.00
286.5980, 53726.00
287.8090, 56186.00
289.0190, 55855.00
290.2290, 54350.00
291.4380, 50774.00
292.6480, 46481.00
293.8570, 41816.00
295.0670, 35963.00
296.2760, 30730.00
297.4850, 25790.00
298.6930, 21805.00
299.9020, 18873.00
301.1110, 16742.00
302.3190, 15164.00
303.5270, 14101.00
304.7350, 13569.00
305.9430, 13526.00
307.1510, 13820.00
308.3580, 14649.00
309.5660, 16274.00
310.7730, 18600.00
311.9800, 20935.00
313.1870, 23213.00
314.3940, 25314.00
315.6010, 27188.00
316.8070, 29158.00
318.0130, 29645.00
319.2200, 29429.00
320.4260, 28443.00
321.6310, 26880.00
322.8370, 25390.00
324.0430, 23422.00
325.2480, 21429.00
326.4540, 19787.00
327.6590, 18503.00
328.8640, 17657.00
330.0680, 17104.00
331.2730, 16492.00
332.4780, 16291.00
333.6820, 16058.00
334.8860, 15587.00
336.0900, 15677.00
337.2940, 15370.00
338.4980, 15147.00
339.7010, 14971.00
340.9050, 14954.00
342.1080, 14968.00
343.3110, 15283.00
344.5140, 16023.00
345.7170, 17109.00
346.9200, 18606.00
348.1220, 20408.00
349.3240, 22566.00
350.5270, 24583.00
351.7290, 26744.00
352.9310, 28145.00
354.1320, 29821.00
355.3340, 29760.00
356.5350, 29324.00
357.7370, 28242.00
358.9380, 26510.00
360.1390, 24082.00
361.3400, 21765.00
362.5400, 19429.00
363.7410, 17147.00
364.9410, 15453.00
366.1410, 13817.00
367.3410, 12471.00
368.5410, 11559.00
369.7410, 10912.00
370.9400, 10247.00
372.1400, 9869.000
373.3390, 9463.000
374.5380, 9164.000
375.7370, 8919.000
376.9360, 8688.000
378.1350, 8643.000
379.3330, 8411.000
380.5310, 8247.000
381.7300, 8148.000
382.9280, 7963.000
384.1260, 7931.000
385.3230, 7684.000
386.5210, 7525.000
387.7180, 7430.000
388.9160, 7344.000
390.1130, 7288.000
391.3100, 7211.000
392.5060, 7070.000
393.7030, 6947.000
394.9000, 6825.000
396.0960, 6776.000
397.2920, 6692.000
398.4880, 6587.000
399.6840, 6613.000
400.8800, 6612.000
402.0750, 6442.000
403.2710, 6589.000
404.4660, 6592.000
405.6610, 6645.000
406.8560, 6851.000
408.0510, 6847.000
409.2450, 6875.000
410.4400, 6988.000
411.6340, 7069.000
412.8280, 7111.000
414.0220, 7161.000
415.2160, 7088.000
416.4100, 7085.000
417.6030, 7163.000
418.7970, 6975.000
419.9900, 7052.000
421.1830, 7004.000
422.3760, 6820.000
423.5690, 6631.000
424.7610, 6642.000
425.9540, 6628.000
427.1460, 6592.000
428.3380, 6579.000
429.5300, 6427.000
430.7220, 6471.000
431.9140, 6505.000
433.1050, 6627.000
434.2970, 6648.000
435.4880, 6625.000
436.6790, 6621.000
437.8700, 6737.000
439.0610, 6787.000
440.2510, 6959.000
441.4420, 7184.000
442.6320, 7605.000
443.8220, 7981.000
445.0120, 8129.000
446.2020, 8307.000
447.3910, 8535.000
448.5810, 8780.000
449.7700, 8728.000
450.9600, 8564.000
452.1490, 8262.000
453.3370, 8086.000
454.5260, 7669.000
455.7150, 7430.000
456.9030, 7300.000
458.0910, 7176.000
459.2800, 7084.000
460.4670, 7042.171
461.6550, 6982.000
462.8430, 7061.000
464.0300, 7043.000
465.2180, 7168.000
466.4050, 7198.000
467.5920, 7235.032
468.7790, 7283.000
469.9650, 7313.000
471.1520, 7370.000
472.3380, 7413.000
473.5250, 7463.000
474.7110, 7377.000
475.8970, 7530.000
477.0820, 7495.000
478.2680, 7642.000
479.4540, 7514.000
480.6390, 7472.000
481.8240, 7492.000
483.0090, 7357.000
484.1940, 7337.000
485.3780, 7226.000
486.5630, 7145.000
487.7470, 7046.000
488.9320, 6855.000
490.1160, 6896.000
491.3000, 6864.000
492.4830, 6713.000
493.6670, 6724.000
494.8500, 6674.000
496.0340, 6691.000
497.2170, 6813.000
498.4000, 6776.000
499.5820, 6862.000
500.7650, 6843.000
501.9480, 6836.000
503.1300, 6840.000
504.3120, 6897.000
505.4940, 7117.000
506.6760, 7044.000
507.8580, 7226.000
509.0390, 7304.000
510.2210, 7288.000
511.4020, 7321.000
512.5830, 7341.000
513.7640, 7346.513
514.9450, 7378.000
516.1250, 7370.000
517.3060, 7384.000
518.4860, 7388.000
519.6660, 7396.000
520.8460, 7472.000
522.0260, 7436.395
523.2060, 7456.000
524.3850, 7395.000
525.5650, 7448.000
526.7440, 7407.000
527.9230, 7579.000
529.1020, 7549.000
530.2810, 7787.000
531.4590, 7657.000
532.6380, 7937.000
533.8160, 8065.000
534.9940, 8355.000
536.1720, 8790.000
537.3500, 9274.000
538.5270, 10009.00
539.7050, 10881.00
540.8820, 11764.00
542.0590, 12752.00
543.2360, 13637.00
544.4130, 14283.00
545.5900, 14949.00
546.7660, 15130.00
547.9430, 15042.00
549.1190, 14843.00
550.2950, 14282.00
551.4710, 13671.00
552.6470, 13135.00
553.8220, 12344.00
554.9980, 11516.00
556.1730, 10802.00
557.3480, 10254.00
558.5230, 9755.000
559.6980, 9594.000
560.8730, 9481.000
562.0470, 9383.000
563.2220, 9387.000
564.3960, 9543.000
565.5700, 9614.000
566.7440, 9692.000
567.9170, 9673.000
569.0910, 9759.000
570.2640, 9817.000
571.4380, 9641.000
572.6110, 9442.000
573.7840, 9326.000
574.9570, 9235.000
576.1290, 9054.000
577.3020, 8861.000
578.4740, 8638.000
579.6460, 8538.000
580.8180, 8395.000
581.9900, 8300.624
583.1620, 8244.349
584.3330, 8181.000
585.5040, 8187.000
586.6760, 8171.000
587.8470, 8200.000
589.0180, 8273.000
590.1880, 8312.000
591.3590, 8211.000
592.5290, 8352.000
593.7000, 8538.000
594.8700, 8542.000
596.0400, 8807.000
597.2090, 8765.000
598.3790, 8948.000
599.5490, 8965.000
600.7180, 8899.000
601.8870, 9073.000
603.0560, 9068.000
604.2250, 8960.000
605.3940, 8829.000
606.5620, 8713.000
607.7300, 8582.369
608.8990, 8399.000
610.0670, 8312.000
611.2350, 8130.000
612.4020, 7980.000
613.5700, 7940.000
614.7370, 7853.849
615.9050, 7821.145
617.0720, 7819.000
618.2390, 7872.000
619.4060, 7901.000
620.5720, 8091.000
621.7390, 8022.000
622.9050, 7995.000
624.0710, 8087.000
625.2370, 7986.000
626.4030, 8017.000
627.5690, 7950.000
628.7340, 7825.000
629.9000, 7800.000
631.0650, 7667.000
632.2300, 7551.000
633.3950, 7525.000
634.5600, 7513.000
635.7240, 7416.000
636.8890, 7509.000
638.0530, 7442.000
639.2170, 7441.000
640.3810, 7437.000
641.5450, 7425.594
642.7080, 7576.000
643.8720, 7448.000
645.0350, 7525.000
646.1980, 7555.000
647.3610, 7419.000
648.5240, 7463.000
649.6870, 7250.000
650.8490, 7222.000
652.0120, 7216.000
653.1740, 7141.000
654.3360, 7191.000
655.4980, 7274.000
656.6600, 7226.000
657.8210, 7161.000
658.9830, 7185.000
660.1440, 7155.220
661.3050, 7287.000
662.4660, 7130.000
663.6270, 7167.000
664.7870, 7095.000
665.9480, 7555.000
667.1080, 7302.205
668.2680, 7344.000
669.4280, 7090.000
670.5880, 7169.000
671.7480, 7118.000
672.9070, 7268.000
674.0670, 7294.000
675.2260, 7424.000
676.3850, 7261.000
677.5440, 7294.000
678.7030, 7421.000
679.8610, 7476.000
681.0200, 7539.000
682.1780, 7562.590
683.3360, 7601.000
684.4940, 7592.000
685.6520, 7617.000
686.8090, 7703.000
687.9670, 7631.000
689.1240, 7661.000
690.2810, 7732.000
691.4380, 7773.000
692.5950, 7696.000
693.7520, 7810.000
694.9080, 7729.000
696.0650, 7889.000
697.2210, 7906.000
698.3770, 7873.000
699.5330, 7958.000
700.6880, 7970.000
701.8440, 8144.000
702.9990, 8219.000
704.1550, 8402.000
705.3100, 8227.000
706.4650, 8512.000
707.6190, 8692.000
708.7740, 9077.000
709.9290, 9202.000
711.0830, 9269.000
712.2370, 9514.000
713.3910, 9676.000
714.5450, 9596.000
715.6980, 9775.000
716.8520, 9419.000
718.0050, 9342.000
719.1580, 9052.000
720.3110, 8728.000
721.4640, 8587.000
722.6170, 8394.000
723.7700, 8082.000
724.9220, 7930.000
726.0740, 7777.000
727.2260, 7674.000
728.3780, 7609.000
729.5300, 7547.365
730.6810, 7484.000
731.8330, 7576.000
732.9840, 7520.000
734.1350, 7703.000
735.2860, 7681.000
736.4370, 7711.000
737.5880, 7677.000
738.7380, 7750.000
739.8880, 7757.000
741.0390, 7761.000
742.1890, 7729.000
743.3380, 7769.000
744.4880, 7704.000
745.6380, 7725.000
746.7870, 7726.000
747.9360, 7651.000
749.0850, 7609.000
750.2340, 7604.000
751.3830, 7559.000
752.5310, 7506.000
753.6800, 7462.000
754.8280, 7490.000
755.9760, 7428.000
757.1240, 7347.000
758.2720, 7376.000
759.4190, 7309.000
760.5670, 7352.000
761.7140, 7320.000
762.8610, 7241.000
764.0080, 7353.000
765.1550, 7266.000
766.3020, 7303.000
767.4480, 7348.000
768.5950, 7208.000
769.7410, 7230.000
770.8870, 7320.000
772.0330, 7282.000
773.1780, 7350.000
774.3240, 7318.000
775.4690, 7312.000
776.6140, 7375.000
777.7590, 7433.000
778.9040, 7397.000
780.0490, 7482.000
781.1940, 7532.000
782.3380, 7535.000
783.4820, 7638.000
784.6260, 7622.000
785.7700, 7655.000
786.9140, 7616.000
788.0580, 7766.000
789.2010, 7753.000
790.3450, 7835.000
791.4880, 8000.000
792.6310, 7966.000
793.7730, 8157.000
794.9160, 8213.000
796.0590, 8436.000
797.2010, 8653.000
798.3430, 8822.000
799.4850, 9073.000
800.6270, 9366.000
801.7690, 9537.000
802.9100, 9741.000
804.0520, 9901.000
805.1930, 9859.000
806.3340, 9655.000
807.4750, 9599.000
808.6160, 9415.000
809.7560, 9200.000
810.8970, 8965.000
812.0370, 8794.000
813.1770, 8543.000
814.3170, 8630.000
815.4570, 8296.000
816.5960, 8288.000
817.7360, 8301.000
818.8750, 8116.000
820.0140, 8187.000
821.1530, 8207.000
822.2920, 8287.000
823.4310, 8298.000
824.5690, 8489.000
825.7070, 8474.000
826.8460, 8726.000
827.9840, 8755.000
829.1220, 8921.000
830.2590, 8816.000
831.3970, 8811.000
832.5340, 8833.000
833.6710, 8762.000
834.8080, 8577.000
835.9450, 8528.000
837.0820, 8322.000
838.2190, 8108.000
839.3550, 8134.000
840.4910, 8026.000
841.6270, 7932.000
842.7630, 7842.000
843.8990, 7818.000
845.0350, 7759.000
846.1700, 7639.000
847.3060, 7713.000
848.4410, 7809.000
849.5760, 7713.000
850.7100, 7746.000
851.8450, 7750.000
852.9800, 7654.000
854.1140, 7716.000
855.2480, 7712.000
856.3820, 7744.000
857.5160, 7769.160
858.6500, 7857.000
859.7830, 7791.000
860.9170, 7796.000
862.0500, 7766.000
863.1830, 7889.000
864.3160, 7813.000
865.4480, 7946.000
866.5810, 7903.000
867.7130, 7989.000
868.8460, 8056.000
869.9780, 8101.000
871.1100, 7937.409
872.2410, 8149.108
873.3730, 8279.269
874.5050, 8332.252
875.6360, 8076.880
876.7670, 8219.657
877.8980, 8202.873
879.0290, 8280.000
880.1590, 8484.000
881.2900, 8514.000
882.4200, 8690.000
883.5500, 8604.000
884.6800, 8816.000
885.8100, 8860.000
886.9400, 8900.000
888.0690, 9048.000
889.1990, 9158.000
890.3280, 9376.000
891.4570, 9537.908
892.5860, 9693.000
893.7140, 9955.000
894.8430, 10172.00
895.9710, 10437.00
897.1000, 10653.00
898.2280, 11093.00
899.3560, 11547.00
900.4830, 12088.00
901.6110, 12885.00
902.7380, 13640.00
903.8660, 14513.00
904.9930, 15941.00
906.1200, 17614.00
907.2460, 20139.00
908.3730, 23543.00
909.5000, 27871.00
910.6260, 33696.00
911.7520, 40519.00
912.8780, 47704.00
914.0040, 53995.00
915.1290, 58787.00
916.2550, 60983.00
917.3800, 60577.00
918.5050, 58274.00
919.6300, 53400.00
920.7550, 47291.00
921.8800, 41591.00
923.0040, 35465.00
924.1290, 30965.00
925.2530, 27304.00
926.3770, 24197.00
927.5010, 22197.00
928.6250, 20768.00
929.7480, 19300.00
930.8720, 18363.00
931.9950, 17603.00
933.1180, 17002.00
934.2410, 16827.00
935.3640, 16771.37
936.4860, 17182.00
937.6090, 17589.00
938.7310, 18511.00
939.8530, 19770.00
940.9750, 21098.00
942.0970, 22788.00
943.2180, 25163.00
944.3400, 27673.00
945.4610, 29776.00
946.5820, 31488.00
947.7030, 32559.00
948.8240, 32766.00
949.9450, 31790.00
951.0650, 29774.00
952.1860, 27750.00
953.3060, 24919.00
954.4260, 22390.00
955.5460, 20058.00
956.6650, 18100.01
957.7850, 16410.00
958.9040, 14999.00
960.0230, 13811.00
961.1420, 12997.00
962.2610, 12319.00
963.3800, 11673.00
964.4990, 11265.00
965.6170, 10814.00
966.7350, 10572.00
967.8530, 10574.00
968.9710, 10243.00
970.0890, 10199.00
971.2070, 9791.000
972.3240, 9793.000
973.4410, 9888.000
974.5580, 9742.000
975.6750, 9532.000
976.7920, 9494.000
977.9090, 9475.000
979.0250, 9513.000
980.1410, 9330.000
981.2580, 9456.000
982.3740, 9403.000
983.4890, 9527.000
984.6050, 9472.000
985.7200, 9342.000
986.8360, 9395.000
987.9510, 9465.000
989.0660, 9434.000
990.1810, 9561.000
991.2950, 9639.000
992.4100, 9438.000
993.5240, 9567.000
994.6390, 9679.000
995.7530, 9792.000
996.8660, 9852.000
997.9800, 10117.00
999.0940, 10160.00
1000.207, 10374.00
1001.320, 10744.00
1002.433, 11207.00
1003.546, 11549.00
1004.659, 12030.00
1005.772, 12448.00
1006.884, 13389.00
1007.996, 14614.00
1009.108, 15866.00
1010.220, 17496.00
1011.332, 19374.00
1012.444, 21558.00
1013.555, 23654.00
1014.666, 25588.00
1015.777, 27055.00
1016.888, 27654.00
1017.999, 27635.00
1019.110, 26834.00
1020.220, 25456.00
1021.331, 23625.00
1022.441, 21802.00
1023.551, 20186.00
1024.661, 18676.30
1025.770, 17316.95
1026.880, 16123.00
1027.989, 15051.00
1029.098, 14290.00
1030.207, 13562.00
1031.316, 13078.00
1032.425, 12533.00
1033.533, 12099.00
1034.642, 11714.00
1035.750, 11491.00
1036.858, 11294.00
1037.966, 11188.00
1039.073, 11148.00
1040.181, 11037.00
1041.288, 10963.00
1042.396, 10927.00
1043.503, 10907.14
1044.610, 10920.60
1045.716, 11010.00
1046.823, 11043.00
1047.929, 11259.00
1049.036, 11433.00
1050.142, 11698.00
1051.248, 12112.00
1052.353, 12431.00
1053.459, 13375.00
1054.564, 14299.00
1055.670, 15907.00
1056.775, 17431.00
1057.880, 19567.00
1058.985, 22194.00
1060.089, 23158.00
1061.194, 24074.00
1062.298, 24305.00
1063.402, 23530.00
1064.506, 22272.00
1065.610, 20492.00
1066.713, 18730.00
1067.817, 17071.00
1068.920, 15549.00
1070.023, 14235.00
1071.126, 13421.00
1072.229, 12747.00
1073.332, 12140.00
1074.435, 11951.00
1075.537, 11529.00
1076.639, 11303.00
1077.741, 11100.00
1078.843, 11057.00
1079.945, 11028.00
1081.046, 10945.00
1082.148, 10864.00
1083.249, 10758.00
1084.350, 10713.00
1085.451, 10875.00
1086.551, 10795.00
1087.652, 10997.00
1088.752, 10906.00
1089.853, 10969.00
1090.953, 11111.00
1092.053, 11234.00
1093.152, 11304.00
1094.252, 11404.00
1095.351, 11687.00
1096.451, 12044.00
1097.550, 12373.00
1098.649, 12864.00
1099.748, 13321.00
1100.846, 13908.00
1101.945, 14490.00
1103.043, 15359.00
1104.141, 15861.00
1105.239, 16357.00
1106.337, 16479.31
1107.434, 16437.00
1108.532, 16190.00
1109.629, 15722.00
1110.726, 15138.00
1111.823, 14404.00
1112.920, 13559.00
1114.017, 12902.00
1115.113, 12299.00
1116.210, 11833.00
1117.306, 11257.00
1118.402, 10993.00
1119.498, 10639.00
1120.593, 10394.15
1121.689, 10411.00
1122.784, 10157.00
1123.879, 10174.00
1124.974, 10299.00
1126.069, 9950.000
1127.164, 9946.000
1128.259, 9702.000
1129.353, 9588.000
1130.447, 9600.000
1131.541, 9560.000
1132.635, 9613.000
1133.729, 9435.000
1134.822, 9443.000
1135.916, 9507.000
1137.009, 9441.000
1138.102, 9474.000
1139.195, 9425.000
1140.288, 9441.000
1141.380, 9418.000
1142.473, 9430.000
1143.565, 9439.080
1144.657, 9425.000
1145.749, 9460.000
1146.841, 9448.292
1147.932, 9393.000
1149.024, 9441.000
1150.115, 9431.847
1151.206, 9416.000
1152.297, 9447.000
1153.388, 9398.000
1154.479, 9309.000
1155.569, 9325.000
1156.659, 9244.000
1157.750, 9258.000
1158.839, 9371.000
1159.929, 9210.000
1161.019, 9389.000
1162.108, 9322.000
1163.198, 9401.000
1164.287, 9244.000
1165.376, 9289.000
1166.465, 9350.000
1167.553, 9280.000
1168.642, 9274.000
1169.730, 9308.000
1170.818, 9193.000
1171.906, 9306.000
1172.994, 9224.000
1174.082, 9338.000
1175.170, 9356.000
1176.257, 9318.000
1177.344, 9347.000
1178.431, 9231.000
1179.518, 9282.000
1180.605, 9275.000
1181.691, 9348.000
1182.778, 9332.000
1183.864, 9267.000
1184.950, 9337.000
1186.036, 9226.000
1187.122, 9332.000
1188.207, 9301.000
1189.292, 9379.000
1190.378, 9486.000
1191.463, 9455.000
1192.548, 9307.000
1193.632, 9376.000
1194.717, 9380.000
1195.801, 9376.000
1196.886, 9398.000
1197.970, 9211.000
1199.054, 9427.000
1200.137, 9368.000
1201.221, 9489.000
1202.305, 9285.000
1203.388, 9430.000
1204.471, 9354.000
1205.554, 9416.000
1206.637, 9431.000
1207.719, 9351.000
1208.802, 9348.000
1209.884, 9420.000
1210.966, 9371.000
1212.048, 9397.000
1213.130, 9460.000
1214.212, 9458.000
1215.293, 9360.000
1216.374, 9475.000
1217.456, 9568.000
1218.536, 9539.000
1219.617, 9382.000
1220.698, 9429.000
1221.778, 9405.000
1222.859, 9431.000
1223.939, 9440.000
1225.019, 9478.991
1226.099, 9569.000
1227.178, 9554.000
1228.258, 9575.819
1229.337, 9553.000
1230.417, 9569.000
1231.496, 9555.000
1232.574, 9662.000
1233.653, 9773.000
1234.732, 9671.000
1235.810, 9553.000
1236.888, 9512.000
1237.966, 9652.000
1239.044, 9484.000
1240.122, 9529.000
1241.199, 9810.000
1242.277, 9697.360
1243.354, 9680.000
1244.431, 9730.000
1245.508, 9614.000
1246.585, 9578.000
1247.661, 9568.000
1248.738, 9549.958
1249.814, 9512.000
1250.890, 9580.000
1251.966, 9607.000
1253.042, 9599.000
1254.117, 9591.000
1255.193, 9648.000
1256.268, 9743.000
1257.343, 9645.000
1258.418, 9736.000
1259.493, 9670.000
1260.567, 9574.000
1261.642, 9748.000
1262.716, 9755.000
1263.790, 9705.000
1264.864, 9670.000
1265.938, 9728.000
1267.011, 9747.000
1268.085, 9750.000
1269.158, 9719.000
1270.231, 9680.000
1271.304, 9806.000
1272.377, 9776.000
1273.450, 9872.000
1274.522, 9788.000
1275.594, 9784.000
1276.666, 9820.000
1277.738, 9806.000
1278.810, 9815.000
1279.882, 9833.204
1280.953, 9864.462
1282.025, 9885.000
1283.096, 9943.000
1284.167, 10023.00
1285.238, 10040.00
1286.308, 9944.000
1287.379, 9943.000
1288.449, 10032.00
1289.519, 9908.000
1290.589, 10007.00
1291.659, 10069.00
1292.729, 10068.00
1293.798, 10126.00
1294.868, 10133.00
1295.937, 10197.00
1297.006, 10111.00
1298.075, 10190.00
1299.143, 10146.00
1300.212, 10251.00
1301.280, 10108.00
1302.348, 10092.00
1303.416, 10154.00
1304.484, 10142.00
1305.552, 10019.00
1306.620, 10233.00
1307.687, 10134.00
1308.754, 10296.00
1309.821, 10171.00
1310.888, 10213.00
1311.955, 10152.00
1313.021, 10136.00
1314.088, 10165.00
1315.154, 10056.00
1316.220, 10086.92
1317.286, 10334.00
1318.352, 10110.00
1319.417, 10165.00
1320.483, 10252.00
1321.548, 10096.00
1322.613, 10213.00
1323.678, 10181.00
1324.743, 10302.00
1325.807, 10239.00
1326.872, 10269.00
1327.936, 10121.00
1329.000, 10199.00
1330.064, 10093.00
1331.128, 10142.95
1332.191, 10148.15
1333.255, 10185.00
1334.318, 10235.00
1335.381, 10240.82
1336.444, 10267.00
1337.507, 10267.00
1338.569, 10272.00
1339.632, 10266.00
1340.694, 10258.00
1341.756, 10267.00
1342.818, 10242.00
1343.880, 10269.00
1344.941, 10317.00
1346.003, 10299.00
1347.064, 10299.00
1348.125, 10262.00
1349.186, 10341.00
1350.247, 10459.00
1351.308, 10233.00
1352.368, 10327.00
1353.428, 10269.00
1354.489, 10454.00
1355.549, 10387.00
1356.608, 10410.00
1357.668, 10388.00
1358.727, 10425.00
1359.787, 10324.00
1360.846, 10446.00
1361.905, 10401.00
1362.964, 10399.00
1364.022, 10571.00
1365.081, 10563.00
1366.139, 10576.00
1367.197, 10496.00
1368.255, 10401.00
1369.313, 10472.00
1370.371, 10415.00
1371.428, 10477.00
1372.486, 10557.00
1373.543, 10472.00
1374.600, 10530.00
1375.657, 10553.00
1376.713, 10612.00
1377.770, 10448.00
1378.826, 10543.00
1379.882, 10554.00
1380.938, 10540.00
1381.994, 10621.00
1383.050, 10609.00
1384.106, 10614.50
1385.161, 10626.00
1386.216, 10599.00
1387.271, 10614.00
1388.326, 10604.00
1389.381, 10570.00
1390.435, 10461.00
1391.490, 10577.00
1392.544, 10645.00
1393.598, 10807.00
1394.652, 10654.00
1395.705, 10603.00
1396.759, 10628.00
1397.812, 10521.00
1398.866, 10509.00
1399.919, 10695.00
1400.972, 10632.00
1402.024, 10795.00
1403.077, 10757.00
1404.129, 10646.00
1405.181, 10838.00
1406.233, 10718.00
1407.285, 10767.00
1408.337, 10651.00
1409.389, 10739.00
1410.440, 10630.00
1411.491, 10800.00
1412.542, 10689.00
1413.593, 10765.00
1414.644, 10638.00
1415.695, 10763.00
1416.745, 10826.00
1417.795, 10834.00
1418.845, 10821.00
1419.895, 10880.00
1420.945, 10833.00
1421.995, 10830.00
1423.044, 10919.00
1424.093, 10836.00
1425.142, 10814.00
1426.191, 10978.00
1427.240, 10963.00
1428.289, 11092.00
1429.337, 11121.00
1430.385, 11108.00
1431.433, 11011.00
1432.481, 11089.00
1433.529, 11158.00
1434.577, 11141.00
1435.624, 11259.00
1436.672, 11150.00
1437.719, 11260.00
1438.766, 11226.00
1439.812, 11298.00
1440.859, 11336.00
1441.905, 11241.00
1442.952, 11361.00
1443.998, 11347.00
1445.044, 11248.00
1446.090, 11346.00
1447.135, 11453.00
1448.181, 11341.00
1449.226, 11433.00
1450.271, 11325.00
1451.316, 11183.00
1452.361, 11402.00
1453.405, 11254.00
1454.450, 11247.00
1455.494, 11337.00
1456.538, 11350.00
1457.582, 11447.00
1458.626, 11318.00
1459.670, 11282.00
1460.713, 11339.00
1461.757, 11207.00
1462.800, 11215.00
1463.843, 11240.00
1464.886, 11210.00
1465.928, 11247.25
1466.971, 11315.00
1468.013, 11285.00
1469.055, 11300.00
1470.097, 11295.61
1471.139, 11275.00
1472.181, 11312.00
1473.222, 11299.00
1474.263, 11272.00
1475.305, 11239.00
1476.346, 11251.78
1477.386, 11257.36
1478.427, 11304.00
1479.468, 11278.00
1480.508, 11366.00
1481.548, 11317.00
1482.588, 11342.00
1483.628, 11473.00
1484.668, 11355.78
1485.707, 11407.58
1486.747, 11270.00
1487.786, 11330.00
1488.825, 11420.00
1489.864, 11287.00
1490.902, 11472.00
1491.941, 11440.00
1492.979, 11293.00
1494.017, 11348.00
1495.055, 11359.00
1496.093, 11295.00
1497.131, 11331.00
1498.168, 11458.00
1499.206, 11314.00
1500.243, 11297.00
1501.280, 11469.00
1502.317, 11377.00
1503.354, 11398.00
1504.390, 11537.00
1505.426, 11440.00
1506.463, 11345.00
1507.499, 11478.00
1508.535, 11509.00
1509.570, 11445.00
1510.606, 11391.00
1511.641, 11588.00
1512.676, 11519.00
1513.711, 11530.88
1514.746, 11469.00
1515.781, 11459.00
1516.816, 11435.00
1517.850, 11358.00
1518.884, 11511.00
1519.918, 11451.00
1520.952, 11393.00
1521.986, 11534.00
1523.019, 11528.00
1524.053, 11472.00
1525.086, 11508.00
1526.119, 11379.00
1527.152, 11516.00
1528.185, 11602.00
1529.217, 11631.00
1530.250, 11590.00
1531.282, 11525.00
1532.314, 11554.00
1533.346, 11474.00
1534.377, 11557.00
1535.409, 11502.00
1536.440, 11477.00
1537.472, 11572.00
1538.503, 11525.00
1539.534, 11561.00
1540.564, 11514.00
1541.595, 11654.00
1542.625, 11598.00
1543.656, 11644.00
1544.686, 11540.00
1545.716, 11490.00
1546.745, 11610.00
1547.775, 11644.00
1548.804, 11593.00
1549.834, 11815.00
1550.863, 11806.00
1551.892, 11810.00
1552.920, 12049.00
1553.949, 12261.00
1554.977, 12158.00
1556.006, 11958.00
1557.034, 11756.00
1558.062, 11717.00
1559.089, 11708.00
1560.117, 11669.00
1561.144, 11758.00
1562.172, 11689.00
1563.199, 11749.00
1564.226, 11693.00
1565.252, 11697.00
1566.279, 11724.00
1567.305, 11888.00
1568.332, 11764.00
1569.358, 11773.00
1570.384, 11852.00
##END=



