##NAMES=Andalusite
##RRUFFID=R050449
##IDEAL CHEMISTRY=Al_2_SiO_5_
##LOCALITY=Itinga, Minas Gerais, Brazil
##OWNER=RRUFF
##SOURCE=Marcus Origlieri
##DESCRIPTION=Green fragment
##STATUS=The identification of this mineral has been confirmed by X-ray diffraction and chemical analysis
##URL=rruff.info/R050449
##MEASURED CHEMISTRY=Al_2.00_Fe^3+^_0.01_Si_0.99_O_5_
##PIN_ID=L00608
##ORIENTATION=Laser parallel to b* (0 1 0). Fiducial mark perpendicular to laser is parallel to -c [0 0 -1]
119.3650, 5519.000
120.5960, 5498.000
121.8270, 5555.000
123.0580, 5801.000
124.2880, 5892.000
125.5190, 5604.000
126.7490, 5475.000
127.9790, 5697.000
129.2090, 5846.000
130.4390, 6028.000
131.6680, 6041.000
132.8980, 5976.000
134.1270, 5984.000
135.3560, 6145.000
136.5850, 6255.000
137.8140, 6533.000
139.0430, 6651.218
140.2710, 6798.847
141.5000, 6935.000
142.7280, 7024.000
143.9560, 7063.000
145.1840, 7102.000
146.4120, 7116.000
147.6390, 7090.000
148.8670, 6787.000
150.0940, 6486.000
151.3210, 6633.000
152.5490, 6724.000
153.7750, 6685.000
155.0020, 6494.000
156.2290, 6371.000
157.4550, 6266.000
158.6810, 6227.000
159.9080, 6199.000
161.1340, 6244.489
162.3590, 6298.000
163.5850, 6477.000
164.8110, 6632.000
166.0360, 6900.000
167.2610, 6882.000
168.4860, 6938.000
169.7110, 6933.000
170.9360, 6916.297
172.1610, 7055.000
173.3850, 6929.000
174.6100, 6982.000
175.8340, 7124.000
177.0580, 7282.000
178.2820, 7300.000
179.5050, 7386.000
180.7290, 7461.000
181.9520, 7534.000
183.1760, 7643.000
184.3990, 7788.000
185.6220, 8008.000
186.8450, 8396.000
188.0670, 8721.000
189.2900, 8949.000
190.5120, 9349.000
191.7340, 9673.000
192.9560, 9956.000
194.1780, 10237.00
195.4000, 10284.00
196.6220, 10393.00
197.8430, 10400.00
199.0640, 10556.00
200.2860, 10820.00
201.5070, 10855.00
202.7270, 10651.10
203.9480, 10976.00
205.1690, 10025.00
206.3890, 9146.000
207.6090, 8780.000
208.8290, 8633.000
210.0490, 8521.000
211.2690, 8443.000
212.4890, 8411.000
213.7080, 8405.000
214.9280, 8351.878
216.1470, 8308.000
217.3660, 8347.000
218.5850, 8397.000
219.8030, 8398.292
221.0220, 8506.000
222.2400, 8482.000
223.4590, 8531.000
224.6770, 8633.000
225.8950, 8704.000
227.1120, 8855.000
228.3300, 8868.000
229.5480, 8964.000
230.7650, 8985.000
231.9820, 8952.000
233.1990, 8956.000
234.4160, 8999.000
235.6330, 8921.000
236.8490, 8736.000
238.0660, 8777.000
239.2820, 8706.000
240.4980, 8842.000
241.7140, 8903.000
242.9300, 8863.000
244.1460, 9041.000
245.3610, 9019.000
246.5770, 8897.000
247.7920, 8895.000
249.0070, 8945.000
250.2220, 8840.000
251.4370, 8944.000
252.6510, 8904.000
253.8660, 8973.000
255.0800, 8802.000
256.2940, 8855.000
257.5080, 8897.000
258.7220, 9065.000
259.9360, 9011.240
261.1490, 8944.782
262.3630, 8959.000
263.5760, 8709.000
264.7890, 8650.000
266.0020, 8617.000
267.2150, 8544.000
268.4270, 8721.000
269.6400, 8636.000
270.8520, 8768.000
272.0640, 8667.000
273.2760, 8861.000
274.4880, 8819.846
275.7000, 8768.000
276.9120, 8851.000
278.1230, 8977.000
279.3340, 9079.000
280.5450, 9319.000
281.7560, 9321.000
282.9670, 9776.000
284.1780, 10182.00
285.3880, 10775.00
286.5980, 11490.00
287.8090, 12477.00
289.0190, 13495.00
290.2290, 15138.00
291.4380, 16812.00
292.6480, 18397.00
293.8570, 18743.00
295.0670, 18366.00
296.2760, 17036.00
297.4850, 15259.00
298.6930, 13471.00
299.9020, 11841.00
301.1110, 10808.00
302.3190, 9966.000
303.5270, 9401.000
304.7350, 8997.000
305.9430, 8663.000
307.1510, 8458.000
308.3580, 8282.000
309.5660, 8489.000
310.7730, 8655.000
311.9800, 9231.000
313.1870, 9733.000
314.3940, 10560.00
315.6010, 11272.00
316.8070, 12495.00
318.0130, 14255.00
319.2200, 16713.00
320.4260, 19375.00
321.6310, 22492.00
322.8370, 23697.00
324.0430, 23900.00
325.2480, 21915.00
326.4540, 19138.00
327.6590, 15972.00
328.8640, 13546.00
330.0680, 11777.00
331.2730, 10626.00
332.4780, 10185.00
333.6820, 9816.000
334.8860, 9539.000
336.0900, 9418.000
337.2940, 9530.000
338.4980, 9567.000
339.7010, 9621.000
340.9050, 9716.000
342.1080, 9921.000
343.3110, 10121.00
344.5140, 10383.00
345.7170, 10674.00
346.9200, 10938.00
348.1220, 11513.00
349.3240, 11859.00
350.5270, 12573.00
351.7290, 13466.00
352.9310, 14464.00
354.1320, 15677.00
355.3340, 17311.00
356.5350, 19302.00
357.7370, 21403.00
358.9380, 23250.00
360.1390, 24542.00
361.3400, 25125.00
362.5400, 24204.00
363.7410, 22920.00
364.9410, 21056.00
366.1410, 19410.00
367.3410, 18048.00
368.5410, 17182.00
369.7410, 16287.00
370.9400, 15696.00
372.1400, 15579.00
373.3390, 15227.00
374.5380, 15156.00
375.7370, 14830.00
376.9360, 14674.00
378.1350, 14488.00
379.3330, 14268.00
380.5310, 14199.00
381.7300, 14091.00
382.9280, 14046.25
384.1260, 14021.95
385.3230, 14077.00
386.5210, 14119.00
387.7180, 14229.00
388.9160, 14509.00
390.1130, 14680.00
391.3100, 14816.12
392.5060, 15058.00
393.7030, 15063.00
394.9000, 15184.00
396.0960, 15260.00
397.2920, 15132.00
398.4880, 14990.00
399.6840, 14759.00
400.8800, 14812.00
402.0750, 14759.00
403.2710, 14268.00
404.4660, 14429.00
405.6610, 14483.00
406.8560, 14497.00
408.0510, 14643.00
409.2450, 14630.00
410.4400, 14702.00
411.6340, 14506.00
412.8280, 14592.00
414.0220, 14523.00
415.2160, 14640.00
416.4100, 14551.00
417.6030, 14851.00
418.7970, 15015.00
419.9900, 14938.00
421.1830, 14936.00
422.3760, 14954.00
423.5690, 14669.00
424.7610, 14655.00
425.9540, 14472.00
427.1460, 14164.00
428.3380, 14098.00
429.5300, 13910.00
430.7220, 13663.00
431.9140, 13796.00
433.1050, 13637.00
434.2970, 13491.00
435.4880, 13502.00
436.6790, 13432.00
437.8700, 13485.00
439.0610, 13586.00
440.2510, 13978.00
441.4420, 14017.00
442.6320, 14445.00
443.8220, 14891.00
445.0120, 15158.00
446.2020, 15358.00
447.3910, 15742.00
448.5810, 16014.00
449.7700, 16261.00
450.9600, 16761.00
452.1490, 17233.00
453.3370, 17569.00
454.5260, 17455.00
455.7150, 16502.00
456.9030, 15294.00
458.0910, 14226.00
459.2800, 13372.00
460.4670, 13045.00
461.6550, 12680.00
462.8430, 12330.00
464.0300, 11941.00
465.2180, 11910.00
466.4050, 11749.00
467.5920, 11835.00
468.7790, 11716.00
469.9650, 11592.00
471.1520, 11545.00
472.3380, 11613.00
473.5250, 11452.00
474.7110, 11459.00
475.8970, 11480.00
477.0820, 11388.00
478.2680, 11345.00
479.4540, 11323.00
480.6390, 11280.51
481.8240, 11254.00
483.0090, 11235.00
484.1940, 11226.00
485.3780, 11185.00
486.5630, 11103.00
487.7470, 11160.00
488.9320, 11221.00
490.1160, 11498.00
491.3000, 11612.00
492.4830, 11764.00
493.6670, 12156.00
494.8500, 12432.00
496.0340, 12722.00
497.2170, 13015.00
498.4000, 13518.00
499.5820, 13762.00
500.7650, 14189.00
501.9480, 14516.00
503.1300, 14860.00
504.3120, 15242.00
505.4940, 15575.00
506.6760, 16015.00
507.8580, 16339.00
509.0390, 16718.00
510.2210, 17136.00
511.4020, 17598.00
512.5830, 17669.00
513.7640, 18002.00
514.9450, 17954.00
516.1250, 17956.00
517.3060, 17998.00
518.4860, 17961.00
519.6660, 17536.00
520.8460, 17588.00
522.0260, 17495.00
523.2060, 17589.00
524.3850, 17472.00
525.5650, 17702.00
526.7440, 17689.00
527.9230, 17840.00
529.1020, 18064.00
530.2810, 18247.00
531.4590, 18454.00
532.6380, 18853.00
533.8160, 19289.00
534.9940, 19827.00
536.1720, 20397.64
537.3500, 20912.00
538.5270, 21703.00
539.7050, 22536.00
540.8820, 23269.00
542.0590, 23966.00
543.2360, 24834.00
544.4130, 25391.00
545.5900, 26017.00
546.7660, 26691.00
547.9430, 26979.00
549.1190, 27537.00
550.2950, 28007.00
551.4710, 28397.00
552.6470, 28816.00
553.8220, 29100.00
554.9980, 29245.00
556.1730, 28992.00
557.3480, 28657.00
558.5230, 28109.00
559.6980, 27686.00
560.8730, 27265.35
562.0470, 26620.00
563.2220, 26432.00
564.3960, 26130.00
565.5700, 25778.00
566.7440, 25655.00
567.9170, 25577.00
569.0910, 25729.00
570.2640, 25930.00
571.4380, 25881.00
572.6110, 26134.00
573.7840, 25943.00
574.9570, 25621.00
576.1290, 25601.00
577.3020, 25204.00
578.4740, 24929.00
579.6460, 24445.00
580.8180, 24009.00
581.9900, 23434.00
583.1620, 22861.00
584.3330, 22234.00
585.5040, 21691.00
586.6760, 21221.00
587.8470, 20795.00
589.0180, 20286.00
590.1880, 20119.00
591.3590, 19997.00
592.5290, 19584.00
593.7000, 19414.00
594.8700, 19113.00
596.0400, 19016.00
597.2090, 18850.00
598.3790, 18863.00
599.5490, 18755.00
600.7180, 18953.00
601.8870, 18935.00
603.0560, 19139.00
604.2250, 19287.00
605.3940, 19634.00
606.5620, 19907.00
607.7300, 20229.00
608.8990, 20687.00
610.0670, 21058.00
611.2350, 21679.00
612.4020, 22292.00
613.5700, 22948.00
614.7370, 23544.00
615.9050, 24150.56
617.0720, 24827.00
618.2390, 25311.00
619.4060, 25668.00
620.5720, 26176.00
621.7390, 26410.00
622.9050, 26718.00
624.0710, 26891.00
625.2370, 27241.00
626.4030, 27328.00
627.5690, 27645.00
628.7340, 27889.00
629.9000, 28182.00
631.0650, 28582.00
632.2300, 28610.00
633.3950, 28664.00
634.5600, 28645.00
635.7240, 28500.00
636.8890, 28185.00
638.0530, 27755.00
639.2170, 27432.00
640.3810, 26854.00
641.5450, 26478.00
642.7080, 26116.00
643.8720, 25764.77
645.0350, 25540.73
646.1980, 25252.00
647.3610, 25121.00
648.5240, 24959.00
649.6870, 24701.00
650.8490, 24422.00
652.0120, 23818.00
653.1740, 22977.00
654.3360, 21973.00
655.4980, 21039.00
656.6600, 19995.36
657.8210, 19064.64
658.9830, 18228.27
660.1440, 17299.00
661.3050, 16668.00
662.4660, 16089.00
663.6270, 15434.00
664.7870, 14882.00
665.9480, 14163.00
667.1080, 13622.00
668.2680, 13153.00
669.4280, 12842.00
670.5880, 12402.00
671.7480, 12086.00
672.9070, 12183.00
674.0670, 11850.00
675.2260, 11679.00
676.3850, 11675.00
677.5440, 11477.00
678.7030, 11285.00
679.8610, 11270.00
681.0200, 11254.00
682.1780, 11218.00
683.3360, 11061.00
684.4940, 11071.00
685.6520, 11044.00
686.8090, 10968.14
687.9670, 11021.92
689.1240, 10924.00
690.2810, 11033.00
691.4380, 11121.00
692.5950, 11011.00
693.7520, 11086.00
694.9080, 11272.00
696.0650, 11333.00
697.2210, 11438.00
698.3770, 11425.00
699.5330, 11473.00
700.6880, 11590.39
701.8440, 11742.00
702.9990, 11809.00
704.1550, 11882.00
705.3100, 11954.00
706.4650, 12028.61
707.6190, 12130.09
708.7740, 12210.00
709.9290, 12361.00
711.0830, 12519.00
712.2370, 12680.00
713.3910, 12908.00
714.5450, 12991.00
715.6980, 13278.00
716.8520, 13347.00
718.0050, 13306.00
719.1580, 13237.00
720.3110, 13177.00
721.4640, 12634.00
722.6170, 12096.00
723.7700, 11912.00
724.9220, 11534.00
726.0740, 11220.00
727.2260, 10960.00
728.3780, 11001.00
729.5300, 10942.00
730.6810, 11113.00
731.8330, 10956.00
732.9840, 11191.00
734.1350, 11208.00
735.2860, 11191.00
736.4370, 11402.00
737.5880, 11400.00
738.7380, 11317.00
739.8880, 11140.00
741.0390, 11317.00
742.1890, 11140.00
743.3380, 10831.00
744.4880, 10865.00
745.6380, 10711.00
746.7870, 10679.00
747.9360, 10651.00
749.0850, 10515.00
750.2340, 10628.00
751.3830, 10610.00
752.5310, 10563.00
753.6800, 10541.00
754.8280, 10652.00
755.9760, 10666.00
757.1240, 10741.00
758.2720, 10742.00
759.4190, 10722.00
760.5670, 10750.76
761.7140, 10649.00
762.8610, 10708.00
764.0080, 10581.00
765.1550, 10458.00
766.3020, 10445.00
767.4480, 10333.00
768.5950, 10362.00
769.7410, 10441.00
770.8870, 10495.00
772.0330, 10491.10
773.1780, 10477.00
774.3240, 10495.00
775.4690, 10557.00
776.6140, 10603.00
777.7590, 10792.00
778.9040, 10656.00
780.0490, 10913.00
781.1940, 10928.00
782.3380, 11146.00
783.4820, 11217.00
784.6260, 11260.00
785.7700, 11303.00
786.9140, 11531.00
788.0580, 11710.00
789.2010, 11945.00
790.3450, 12025.00
791.4880, 12343.00
792.6310, 12356.00
793.7730, 12570.00
794.9160, 12931.00
796.0590, 13140.00
797.2010, 13536.00
798.3430, 13826.00
799.4850, 14236.00
800.6270, 14423.00
801.7690, 14974.00
802.9100, 15571.00
804.0520, 16225.00
805.1930, 17011.05
806.3340, 17795.00
807.4750, 18752.00
808.6160, 19734.00
809.7560, 20719.00
810.8970, 21689.00
812.0370, 23018.00
813.1770, 24259.00
814.3170, 25962.00
815.4570, 27438.00
816.5960, 28998.00
817.7360, 30419.00
818.8750, 32120.00
820.0140, 33074.00
821.1530, 33627.00
822.2920, 33711.00
823.4310, 33183.00
824.5690, 32311.00
825.7070, 30787.00
826.8460, 29157.00
827.9840, 27251.00
829.1220, 25519.00
830.2590, 23792.00
831.3970, 22197.00
832.5340, 21006.00
833.6710, 19918.00
834.8080, 19009.00
835.9450, 18058.00
837.0820, 17333.00
838.2190, 16512.00
839.3550, 15625.00
840.4910, 14745.00
841.6270, 13979.00
842.7630, 13411.00
843.8990, 12847.00
845.0350, 12210.00
846.1700, 11765.00
847.3060, 11502.00
848.4410, 11261.00
849.5760, 10846.00
850.7100, 10646.00
851.8450, 10471.00
852.9800, 10291.00
854.1140, 10152.00
855.2480, 9953.000
856.3820, 9999.000
857.5160, 9805.000
858.6500, 9825.000
859.7830, 9939.000
860.9170, 9866.000
862.0500, 9894.000
863.1830, 9905.000
864.3160, 9922.000
865.4480, 9941.521
866.5810, 10083.00
867.7130, 9990.000
868.8460, 10107.00
869.9780, 10170.00
871.1100, 10157.00
872.2410, 10186.00
873.3730, 10424.00
874.5050, 10460.00
875.6360, 10495.00
876.7670, 10479.00
877.8980, 10509.14
879.0290, 10545.00
880.1590, 10543.00
881.2900, 10527.00
882.4200, 10570.00
883.5500, 10667.00
884.6800, 10793.00
885.8100, 10961.00
886.9400, 10999.00
888.0690, 11164.00
889.1990, 11178.00
890.3280, 11477.00
891.4570, 11544.00
892.5860, 11808.00
893.7140, 11935.00
894.8430, 12257.00
895.9710, 12620.00
897.1000, 12905.00
898.2280, 13498.00
899.3560, 14020.00
900.4830, 14550.00
901.6110, 15356.00
902.7380, 16062.00
903.8660, 16698.00
904.9930, 17558.00
906.1200, 18590.00
907.2460, 19529.00
908.3730, 20499.00
909.5000, 21874.00
910.6260, 23679.00
911.7520, 25514.00
912.8780, 27881.00
914.0040, 30724.00
915.1290, 33976.00
916.2550, 38200.00
917.3800, 42690.00
918.5050, 47357.00
919.6300, 51242.00
920.7550, 52698.00
921.8800, 51175.00
923.0040, 47411.00
924.1290, 42668.00
925.2530, 38432.00
926.3770, 35132.00
927.5010, 32721.00
928.6250, 31041.00
929.7480, 29250.00
930.8720, 27582.00
931.9950, 25443.00
933.1180, 23517.00
934.2410, 21967.00
935.3640, 20334.00
936.4860, 19137.00
937.6090, 18345.00
938.7310, 17332.00
939.8530, 16886.00
940.9750, 16410.00
942.0970, 15825.00
943.2180, 15669.00
944.3400, 15460.00
945.4610, 15231.00
946.5820, 15162.00
947.7030, 15052.00
948.8240, 15168.00
949.9450, 15123.00
951.0650, 15022.00
952.1860, 14944.00
953.3060, 14802.00
954.4260, 14708.44
955.5460, 14553.00
956.6650, 14476.00
957.7850, 14356.00
958.9040, 14219.00
960.0230, 14193.40
961.1420, 14172.29
962.2610, 14153.00
963.3800, 14237.00
964.4990, 14287.00
965.6170, 14335.00
966.7350, 14361.00
967.8530, 14461.27
968.9710, 14574.00
970.0890, 14641.00
971.2070, 14802.00
972.3240, 14862.00
973.4410, 14948.00
974.5580, 15103.00
975.6750, 15267.00
976.7920, 15488.00
977.9090, 15477.00
979.0250, 15630.00
980.1410, 15567.00
981.2580, 15566.00
982.3740, 15561.00
983.4890, 15548.00
984.6050, 15615.88
985.7200, 15754.00
986.8360, 15775.00
987.9510, 15926.00
989.0660, 16041.00
990.1810, 16278.20
991.2950, 16567.00
992.4100, 16880.00
993.5240, 17272.00
994.6390, 17680.00
995.7530, 18242.00
996.8660, 19136.00
997.9800, 20114.00
999.0940, 21701.00
1000.207, 23316.00
1001.320, 25591.00
1002.433, 28267.00
1003.546, 30903.00
1004.659, 33271.00
1005.772, 34645.00
1006.884, 35443.00
1007.996, 34894.00
1009.108, 32983.00
1010.220, 30613.00
1011.332, 27800.00
1012.444, 25212.00
1013.555, 23017.00
1014.666, 21390.00
1015.777, 19973.00
1016.888, 19157.00
1017.999, 18662.00
1019.110, 18007.00
1020.220, 17616.00
1021.331, 17326.00
1022.441, 16977.00
1023.551, 16825.00
1024.661, 16677.00
1025.770, 16560.00
1026.880, 16425.00
1027.989, 16357.00
1029.098, 16275.46
1030.207, 16288.00
1031.316, 16153.00
1032.425, 16106.00
1033.533, 16023.00
1034.642, 15953.35
1035.750, 16026.00
1036.858, 15870.00
1037.966, 16017.00
1039.073, 16056.00
1040.181, 15885.00
1041.288, 15654.00
1042.396, 15464.00
1043.503, 15324.00
1044.610, 15069.00
1045.716, 14860.30
1046.823, 14571.00
1047.929, 14401.00
1049.036, 14256.00
1050.142, 14093.00
1051.248, 14054.00
1052.353, 14003.00
1053.459, 14006.00
1054.564, 13975.00
1055.670, 14015.00
1056.775, 13952.00
1057.880, 13848.00
1058.985, 14034.00
1060.089, 14385.00
1061.194, 14393.00
1062.298, 14727.00
1063.402, 15085.00
1064.506, 15338.00
1065.610, 15487.00
1066.713, 15468.00
1067.817, 15420.00
1068.920, 14980.00
1070.023, 15048.00
1071.126, 14748.00
1072.229, 14751.00
1073.332, 14708.00
1074.435, 14801.00
1075.537, 14796.00
1076.639, 14926.00
1077.741, 14613.00
1078.843, 14494.00
1079.945, 14510.00
1081.046, 14660.00
1082.148, 14633.00
1083.249, 14608.00
1084.350, 14660.00
1085.451, 14534.00
1086.551, 14334.00
1087.652, 14340.00
1088.752, 14124.00
1089.853, 14210.00
1090.953, 14270.00
1092.053, 14064.00
1093.152, 14034.00
1094.252, 14015.00
1095.351, 13999.00
1096.451, 13906.00
1097.550, 13808.00
1098.649, 13777.00
1099.748, 13775.00
1100.846, 13647.00
1101.945, 13735.00
1103.043, 13739.00
1104.141, 13672.00
1105.239, 13708.83
1106.337, 13703.00
1107.434, 13682.00
1108.532, 13645.00
1109.629, 13629.00
1110.726, 13648.00
1111.823, 13643.00
1112.920, 13593.00
1114.017, 13520.00
1115.113, 13465.00
1116.210, 13444.00
1117.306, 13673.00
1118.402, 13622.00
1119.498, 13555.00
1120.593, 13707.00
1121.689, 13642.00
1122.784, 13727.00
1123.879, 13713.00
1124.974, 13613.00
1126.069, 13774.00
1127.164, 13751.00
1128.259, 13707.00
1129.353, 13653.00
1130.447, 13564.00
1131.541, 13597.32
1132.635, 13589.00
1133.729, 13653.00
1134.822, 13648.00
1135.916, 13672.00
1137.009, 13614.00
1138.102, 13637.00
1139.195, 13638.00
1140.288, 13778.00
1141.380, 13806.00
1142.473, 13789.00
1143.565, 13747.00
1144.657, 13976.00
1145.749, 13739.00
1146.841, 13915.00
1147.932, 14043.00
1149.024, 13897.00
1150.115, 13913.00
1151.206, 13991.00
1152.297, 13970.00
1153.388, 13878.00
1154.479, 14003.00
1155.569, 13920.00
1156.659, 14000.00
1157.750, 13936.00
1158.839, 14139.00
1159.929, 14014.00
1161.019, 14023.00
1162.108, 14151.00
1163.198, 14118.00
1164.287, 14187.00
1165.376, 14149.00
1166.465, 14249.00
1167.553, 14182.00
1168.642, 14069.00
1169.730, 14272.00
1170.818, 14244.00
1171.906, 14216.00
1172.994, 14245.00
1174.082, 14166.00
1175.170, 14283.00
1176.257, 14127.00
1177.344, 14285.00
1178.431, 14316.00
1179.518, 14303.00
1180.605, 14349.00
1181.691, 14424.00
1182.778, 14297.00
1183.864, 14351.00
1184.950, 14376.00
1186.036, 14303.00
1187.122, 14250.00
1188.207, 14368.00
1189.292, 14292.00
1190.378, 14454.00
1191.463, 14335.00
1192.548, 14326.00
1193.632, 14284.00
1194.717, 14307.00
1195.801, 14363.00
1196.886, 14358.00
1197.970, 14258.00
1199.054, 14322.00
1200.137, 14208.00
1201.221, 14145.00
1202.305, 14086.00
1203.388, 14074.87
1204.471, 14149.00
1205.554, 14082.00
1206.637, 14123.00
1207.719, 14084.46
1208.802, 14014.00
1209.884, 14020.00
1210.966, 13950.83
1212.048, 13853.00
1213.130, 13852.00
1214.212, 13779.00
1215.293, 13736.00
1216.374, 13767.00
1217.456, 13694.93
1218.536, 13531.00
1219.617, 13640.00
1220.698, 13540.00
1221.778, 13554.00
1222.859, 13515.30
1223.939, 13372.00
1225.019, 13371.00
1226.099, 13241.00
1227.178, 13104.00
1228.258, 13175.00
1229.337, 13188.00
1230.417, 13104.00
1231.496, 13136.00
1232.574, 13103.00
1233.653, 13081.14
1234.732, 13076.00
1235.810, 13036.00
1236.888, 13026.32
1237.966, 13040.00
1239.044, 13006.00
1240.122, 12981.00
1241.199, 13002.00
1242.277, 13001.00
1243.354, 13000.37
1244.431, 13027.00
1245.508, 13012.00
1246.585, 13036.00
1247.661, 13052.00
1248.738, 12961.00
1249.814, 13148.00
1250.890, 13035.00
1251.966, 13023.00
1253.042, 13170.00
1254.117, 13397.00
1255.193, 12963.00
1256.268, 12901.00
1257.343, 13017.00
1258.418, 13091.00
1259.493, 13103.00
1260.567, 13037.00
1261.642, 13121.00
1262.716, 12961.00
1263.790, 12984.00
1264.864, 12995.00
1265.938, 12893.00
1267.011, 12807.00
1268.085, 13004.00
1269.158, 12847.00
1270.231, 12938.00
1271.304, 12916.00
1272.377, 12749.00
1273.450, 12939.00
1274.522, 12789.00
1275.594, 12707.00
1276.666, 12758.00
1277.738, 12789.00
1278.810, 12729.00
1279.882, 12636.00
1280.953, 12609.00
1282.025, 12689.00
1283.096, 12705.00
1284.167, 12548.00
1285.238, 12532.00
1286.308, 12381.00
1287.379, 12386.00
1288.449, 12339.00
1289.519, 12150.00
1290.589, 12418.00
1291.659, 12321.00
1292.729, 12273.00
1293.798, 12411.00
1294.868, 12216.00
1295.937, 12087.00
1297.006, 12214.00
1298.075, 12091.00
1299.143, 12286.00
1300.212, 12212.00
1301.280, 12050.00
1302.348, 12069.00
1303.416, 12176.00
1304.484, 12081.00
1305.552, 12094.37
1306.620, 11815.00
1307.687, 12011.00
1308.754, 11970.00
1309.821, 11938.00
1310.888, 12127.00
1311.955, 11863.00
1313.021, 11979.00
1314.088, 12014.00
1315.154, 12018.00
1316.220, 12015.00
1317.286, 12037.22
1318.352, 11956.00
1319.417, 12055.00
1320.483, 12087.00
1321.548, 12086.00
1322.613, 12002.00
1323.678, 12223.00
1324.743, 12146.00
1325.807, 12177.00
1326.872, 12304.00
1327.936, 12351.00
1329.000, 12280.00
1330.064, 12329.00
1331.128, 12191.00
1332.191, 12418.00
1333.255, 12338.00
1334.318, 12364.00
1335.381, 12494.00
1336.444, 12397.00
1337.507, 12330.00
1338.569, 12360.00
1339.632, 12557.00
1340.694, 12427.00
1341.756, 12495.00
1342.818, 12529.00
1343.880, 12506.00
1344.941, 12434.00
1346.003, 12613.00
1347.064, 12551.00
1348.125, 12603.00
1349.186, 12706.00
1350.247, 12789.00
1351.308, 12747.00
1352.368, 12738.00
1353.428, 12764.00
1354.489, 12946.00
1355.549, 12949.00
1356.608, 12848.00
1357.668, 13160.00
1358.727, 13032.00
1359.787, 13150.00
1360.846, 13091.00
1361.905, 13180.00
1362.964, 13240.00
1364.022, 13240.00
1365.081, 13277.00
1366.139, 13150.00
1367.197, 13205.00
1368.255, 13383.00
1369.313, 13170.00
1370.371, 13252.00
1371.428, 13290.00
1372.486, 13246.00
1373.543, 13334.00
1374.600, 13315.00
1375.657, 13179.00
1376.713, 13244.00
1377.770, 13236.00
1378.826, 13233.00
1379.882, 13257.00
1380.938, 13348.00
1381.994, 13191.00
1383.050, 13219.00
1384.106, 13266.00
1385.161, 13353.00
1386.216, 13168.00
1387.271, 13092.00
1388.326, 13126.00
1389.381, 13030.00
1390.435, 13132.00
1391.490, 13080.00
1392.544, 13183.00
1393.598, 13086.00
1394.652, 13194.00
1395.705, 13068.00
1396.759, 13195.00
1397.812, 12935.00
1398.866, 12850.00
1399.919, 12941.00
1400.972, 13066.00
1402.024, 12979.00
1403.077, 13038.00
1404.129, 12881.00
1405.181, 13015.00
1406.233, 12923.00
1407.285, 12918.00
1408.337, 12990.00
1409.389, 12824.00
1410.440, 12740.00
1411.491, 12818.00
1412.542, 12984.00
1413.593, 12874.00
1414.644, 13030.00
1415.695, 12890.00
1416.745, 12936.00
1417.795, 12936.00
1418.845, 12851.00
1419.895, 12935.00
1420.945, 12918.00
1421.995, 12984.00
1423.044, 12996.00
1424.093, 12987.00
1425.142, 12978.00
1426.191, 13128.00
1427.240, 13242.00
1428.289, 13246.00
1429.337, 13366.00
1430.385, 13331.00
1431.433, 13287.00
1432.481, 13388.00
1433.529, 13378.00
1434.577, 13285.00
1435.624, 13346.00
1436.672, 13630.00
1437.719, 13428.00
1438.766, 13566.00
1439.812, 13655.00
1440.859, 13635.00
1441.905, 13581.00
1442.952, 13585.00
1443.998, 13885.00
1445.044, 13689.00
1446.090, 13893.00
1447.135, 13959.00
1448.181, 13924.59
1449.226, 13905.00
1450.271, 13920.00
1451.316, 13924.00
1452.361, 13835.00
1453.405, 13795.00
1454.450, 13774.00
1455.494, 13928.00
1456.538, 13809.00
1457.582, 13746.00
1458.626, 14024.00
1459.670, 13841.00
1460.713, 13791.00
1461.757, 13730.00
1462.800, 13651.91
1463.843, 13855.00
1464.886, 13576.00
1465.928, 13657.00
1466.971, 13644.00
1468.013, 13452.00
1469.055, 13728.00
1470.097, 13682.00
1471.139, 13438.00
1472.181, 13586.00
1473.222, 13461.00
1474.263, 13478.00
1475.305, 13310.00
1476.346, 13363.00
1477.386, 13230.00
1478.427, 13242.00
1479.468, 13332.00
1480.508, 13052.00
1481.548, 13035.00
1482.588, 12974.00
1483.628, 13208.00
1484.668, 12887.00
1485.707, 12992.00
1486.747, 13052.00
1487.786, 13028.00
1488.825, 12995.00
1489.864, 12917.00
1490.902, 12935.00
1491.941, 12824.00
1492.979, 13016.00
1494.017, 12963.00
1495.055, 12962.00
1496.093, 12770.00
1497.131, 12951.00
1498.168, 12822.00
1499.206, 12919.00
1500.243, 12835.00
1501.280, 12836.00
1502.317, 12927.00
1503.354, 12921.00
1504.390, 12827.00
1505.426, 13032.00
1506.463, 12915.00
1507.499, 12947.00
1508.535, 12981.00
1509.570, 13110.00
1510.606, 13049.00
1511.641, 12989.00
1512.676, 13091.00
1513.711, 12993.00
1514.746, 13233.00
1515.781, 13171.00
1516.816, 13299.00
1517.850, 13243.00
1518.884, 13174.00
1519.918, 13301.00
1520.952, 13274.00
1521.986, 13327.00
1523.019, 13370.00
1524.053, 13329.00
1525.086, 13500.00
1526.119, 13341.00
1527.152, 13458.00
1528.185, 13472.00
1529.217, 13549.00
1530.250, 13500.00
1531.282, 13433.00
1532.314, 13653.00
1533.346, 13590.51
1534.377, 13620.00
1535.409, 13757.00
1536.440, 13478.00
1537.472, 13727.00
1538.503, 13775.00
1539.534, 13846.00
1540.564, 13727.00
1541.595, 13822.98
1542.625, 13948.00
1543.656, 13890.00
##END=



