##NAMES=Andalusite
##RRUFFID=R060212
##IDEAL CHEMISTRY=Al_2_SiO_5_
##LOCALITY=Brazil
##OWNER=RRUFF
##SOURCE=Marcus Origlieri
##DESCRIPTION=Transparent yellow-green water-worn pebble
##STATUS=The identification of this mineral is confirmed by single-crystal X-ray diffraction and chemical analysis.
##URL=rruff.info/R060212
##MEASURED CHEMISTRY=(Al_1.98_Fe^3+^_0.02_)_Î£=2_Si_1.00_O_5_
##PIN_ID=M00278
##ORIENTATION=Laser parallel to c* (0 0 1). Fiducial mark perpendicular to laser is parallel to -a [-1 0 0]
99.64900, 5480.000
100.8830, 5395.000
102.1160, 5495.000
103.3490, 5409.000
104.5820, 5425.000
105.8150, 5619.000
107.0470, 5918.000
108.2800, 6281.000
109.5120, 6400.000
110.7440, 6008.000
111.9760, 5502.000
113.2080, 5459.000
114.4400, 5549.000
115.6710, 5778.000
116.9030, 5597.000
118.1340, 5533.000
119.3650, 5516.152
120.5960, 5370.000
121.8270, 5351.000
123.0580, 5316.414
124.2880, 5272.582
125.5190, 5299.000
126.7490, 5274.000
127.9790, 5298.000
129.2090, 5349.000
130.4390, 5377.000
131.6680, 5381.000
132.8980, 5306.000
134.1270, 5394.000
135.3560, 5320.000
136.5850, 5309.000
137.8140, 5343.000
139.0430, 5558.000
140.2710, 5480.000
141.5000, 5514.000
142.7280, 5403.000
143.9560, 5396.000
145.1840, 5325.000
146.4120, 5344.000
147.6390, 5299.000
148.8670, 5315.000
150.0940, 5383.000
151.3210, 5454.000
152.5490, 5475.000
153.7750, 5416.000
155.0020, 5420.000
156.2290, 5389.000
157.4550, 5332.000
158.6810, 5314.000
159.9080, 5352.000
161.1340, 5406.000
162.3590, 5556.000
163.5850, 5675.000
164.8110, 5677.000
166.0360, 5600.000
167.2610, 5634.000
168.4860, 5705.000
169.7110, 5770.000
170.9360, 5657.000
172.1610, 5656.000
173.3850, 5623.000
174.6100, 5530.000
175.8340, 5525.000
177.0580, 5456.000
178.2820, 5613.000
179.5050, 5737.000
180.7290, 5607.000
181.9520, 5560.000
183.1760, 5691.000
184.3990, 5858.000
185.6220, 5949.000
186.8450, 6092.000
188.0670, 6373.000
189.2900, 6524.000
190.5120, 6692.000
191.7340, 6574.000
192.9560, 6335.000
194.1780, 6513.000
195.4000, 6435.000
196.6220, 6377.000
197.8430, 6379.000
199.0640, 6395.000
200.2860, 6581.000
201.5070, 6782.000
202.7270, 6899.000
203.9480, 6533.000
205.1690, 6233.000
206.3890, 5885.000
207.6090, 5675.000
208.8290, 5583.000
210.0490, 5591.000
211.2690, 5451.000
212.4890, 5499.000
213.7080, 5453.000
214.9280, 5474.000
216.1470, 5531.000
217.3660, 5444.000
218.5850, 5483.000
219.8030, 5454.000
221.0220, 5418.000
222.2400, 5488.000
223.4590, 5431.000
224.6770, 5494.000
225.8950, 5537.000
227.1120, 5482.000
228.3300, 5587.000
229.5480, 5716.000
230.7650, 5811.000
231.9820, 5787.000
233.1990, 5947.000
234.4160, 6066.000
235.6330, 6276.000
236.8490, 6344.000
238.0660, 6534.000
239.2820, 6683.000
240.4980, 6688.000
241.7140, 6796.000
242.9300, 6599.000
244.1460, 6525.000
245.3610, 6479.000
246.5770, 6273.000
247.7920, 6157.000
249.0070, 6113.000
250.2220, 6215.000
251.4370, 6113.000
252.6510, 6154.000
253.8660, 6204.000
255.0800, 6179.000
256.2940, 6162.000
257.5080, 6291.000
258.7220, 6512.000
259.9360, 6754.000
261.1490, 6585.000
262.3630, 6434.000
263.5760, 6478.000
264.7890, 6516.000
266.0020, 6657.000
267.2150, 6710.000
268.4270, 6811.000
269.6400, 7054.000
270.8520, 7155.000
272.0640, 7510.000
273.2760, 7766.000
274.4880, 8008.000
275.7000, 8497.000
276.9120, 8927.000
278.1230, 9713.000
279.3340, 10536.00
280.5450, 11793.00
281.7560, 13270.00
282.9670, 14664.00
284.1780, 16607.00
285.3880, 18731.00
286.5980, 22947.00
287.8090, 23811.00
289.0190, 25992.00
290.2290, 26946.00
291.4380, 25927.00
292.6480, 23209.00
293.8570, 19791.00
295.0670, 16727.00
296.2760, 14404.00
297.4850, 12213.00
298.6930, 10866.00
299.9020, 9687.000
301.1110, 9023.000
302.3190, 8504.000
303.5270, 8293.000
304.7350, 8071.000
305.9430, 8208.000
307.1510, 8463.000
308.3580, 8971.000
309.5660, 9920.000
310.7730, 10908.00
311.9800, 12320.00
313.1870, 13768.00
314.3940, 15651.00
315.6010, 18291.00
316.8070, 21573.00
318.0130, 24952.00
319.2200, 26619.00
320.4260, 26004.00
321.6310, 23739.00
322.8370, 20584.00
324.0430, 17723.00
325.2480, 15071.00
326.4540, 13089.87
327.6590, 11251.00
328.8640, 10106.00
330.0680, 9511.000
331.2730, 8979.000
332.4780, 8753.000
333.6820, 8506.000
334.8860, 8477.000
336.0900, 8382.000
337.2940, 8269.000
338.4980, 8313.000
339.7010, 8356.206
340.9050, 8591.000
342.1080, 8642.000
343.3110, 8887.000
344.5140, 9160.000
345.7170, 9795.000
346.9200, 10612.03
348.1220, 11829.00
349.3240, 12898.00
350.5270, 14456.00
351.7290, 16131.00
352.9310, 17939.00
354.1320, 20125.00
355.3340, 21920.00
356.5350, 23326.00
357.7370, 23204.00
358.9380, 22409.00
360.1390, 20259.00
361.3400, 18225.00
362.5400, 16125.00
363.7410, 14393.00
364.9410, 13003.00
366.1410, 11797.00
367.3410, 11081.00
368.5410, 10339.00
369.7410, 9874.000
370.9400, 9495.000
372.1400, 9116.000
373.3390, 8899.000
374.5380, 8525.000
375.7370, 8262.000
376.9360, 8199.000
378.1350, 7985.000
379.3330, 7865.000
380.5310, 7818.000
381.7300, 7688.000
382.9280, 7716.000
384.1260, 7720.000
385.3230, 7658.000
386.5210, 7624.000
387.7180, 7631.000
388.9160, 7713.000
390.1130, 7904.000
391.3100, 7950.000
392.5060, 7721.000
393.7030, 7537.000
394.9000, 7359.000
396.0960, 7294.000
397.2920, 7237.000
398.4880, 7166.000
399.6840, 7208.000
400.8800, 7196.000
402.0750, 7335.000
403.2710, 7408.000
404.4660, 7327.000
405.6610, 7568.000
406.8560, 7607.000
408.0510, 7781.000
409.2450, 7816.000
410.4400, 8079.000
411.6340, 8310.000
412.8280, 8635.000
414.0220, 9006.000
415.2160, 9445.000
416.4100, 9748.000
417.6030, 9755.000
418.7970, 9428.000
419.9900, 9122.000
421.1830, 8541.000
422.3760, 8095.000
423.5690, 7799.000
424.7610, 7659.000
425.9540, 7441.000
427.1460, 7304.000
428.3380, 7250.000
429.5300, 7262.000
430.7220, 7168.000
431.9140, 7152.000
433.1050, 6984.000
434.2970, 6981.239
435.4880, 7030.000
436.6790, 6973.000
437.8700, 7079.000
439.0610, 7203.000
440.2510, 7091.000
441.4420, 7282.000
442.6320, 7353.000
443.8220, 7615.000
445.0120, 7604.000
446.2020, 7747.000
447.3910, 7944.000
448.5810, 8288.000
449.7700, 8649.000
450.9600, 8725.000
452.1490, 8304.000
453.3370, 8062.000
454.5260, 7699.000
455.7150, 7540.000
456.9030, 7498.000
458.0910, 7395.000
459.2800, 7366.000
460.4670, 7382.000
461.6550, 7314.000
462.8430, 7333.000
464.0300, 7570.000
465.2180, 7445.000
466.4050, 7581.000
467.5920, 7558.000
468.7790, 7847.000
469.9650, 7860.000
471.1520, 8007.000
472.3380, 8166.000
473.5250, 8193.000
474.7110, 8370.000
475.8970, 8538.000
477.0820, 8656.000
478.2680, 8672.000
479.4540, 8815.000
480.6390, 8853.000
481.8240, 8910.000
483.0090, 8986.000
484.1940, 8786.000
485.3780, 8576.000
486.5630, 8562.000
487.7470, 8378.000
488.9320, 8237.000
490.1160, 7949.000
491.3000, 8065.000
492.4830, 7837.000
493.6670, 7813.000
494.8500, 7693.000
496.0340, 7664.000
497.2170, 7609.000
498.4000, 7708.000
499.5820, 7686.521
500.7650, 7815.000
501.9480, 7727.000
503.1300, 7820.000
504.3120, 7799.000
505.4940, 7854.000
506.6760, 7921.000
507.8580, 7957.000
509.0390, 8014.468
510.2210, 7989.000
511.4020, 8079.000
512.5830, 8051.000
513.7640, 8006.000
514.9450, 7875.000
516.1250, 8050.000
517.3060, 8061.000
518.4860, 8003.000
519.6660, 7829.000
520.8460, 7945.000
522.0260, 7840.000
523.2060, 7858.000
524.3850, 7875.000
525.5650, 7873.000
526.7440, 7889.000
527.9230, 7886.850
529.1020, 7893.000
530.2810, 7881.000
531.4590, 7886.000
532.6380, 7879.000
533.8160, 8021.000
534.9940, 8074.000
536.1720, 7927.000
537.3500, 8193.000
538.5270, 8208.000
539.7050, 8372.000
540.8820, 8641.000
542.0590, 8938.000
543.2360, 9384.000
544.4130, 9710.000
545.5900, 10142.00
546.7660, 10785.00
547.9430, 11106.00
549.1190, 11396.00
550.2950, 11573.00
551.4710, 11450.00
552.6470, 11117.00
553.8220, 10466.00
554.9980, 9867.000
556.1730, 9550.000
557.3480, 9162.000
558.5230, 8935.000
559.6980, 8709.000
560.8730, 8642.000
562.0470, 8539.000
563.2220, 8509.000
564.3960, 8372.000
565.5700, 8388.000
566.7440, 8315.000
567.9170, 8380.000
569.0910, 8385.000
570.2640, 8392.000
571.4380, 8298.000
572.6110, 8190.000
573.7840, 8211.000
574.9570, 8205.000
576.1290, 8262.000
577.3020, 8166.000
578.4740, 8230.000
579.6460, 8070.000
580.8180, 8054.000
581.9900, 8113.000
583.1620, 8053.000
584.3330, 7972.000
585.5040, 8050.000
586.6760, 8061.000
587.8470, 8088.000
589.0180, 7981.000
590.1880, 8066.000
591.3590, 8124.000
592.5290, 8005.000
593.7000, 8248.000
594.8700, 8130.000
596.0400, 8098.000
597.2090, 8273.000
598.3790, 8254.000
599.5490, 8334.000
600.7180, 8309.000
601.8870, 8555.000
603.0560, 8538.000
604.2250, 8632.000
605.3940, 8571.000
606.5620, 8493.000
607.7300, 8515.000
608.8990, 8507.000
610.0670, 8472.323
611.2350, 8468.660
612.4020, 8430.000
613.5700, 8396.000
614.7370, 8367.000
615.9050, 8340.378
617.0720, 8324.000
618.2390, 8314.000
619.4060, 8271.000
620.5720, 8295.000
621.7390, 8177.000
622.9050, 8263.000
624.0710, 8309.000
625.2370, 8130.000
626.4030, 8156.000
627.5690, 8182.000
628.7340, 8180.000
629.9000, 8227.000
631.0650, 8175.000
632.2300, 8098.000
633.3950, 8126.000
634.5600, 8126.000
635.7240, 8256.000
636.8890, 8217.000
638.0530, 8271.000
639.2170, 8345.000
640.3810, 8397.000
641.5450, 8485.000
642.7080, 8530.000
643.8720, 8548.000
645.0350, 8475.000
646.1980, 8482.000
647.3610, 8447.271
648.5240, 8397.000
649.6870, 8351.000
650.8490, 8370.000
652.0120, 8251.000
653.1740, 8232.000
654.3360, 8443.000
655.4980, 8515.000
656.6600, 8768.000
657.8210, 8848.000
658.9830, 8988.000
660.1440, 9207.000
661.3050, 9333.000
662.4660, 9460.000
663.6270, 9238.000
664.7870, 9085.000
665.9480, 8853.000
667.1080, 8863.000
668.2680, 8692.000
669.4280, 8791.000
670.5880, 8798.000
671.7480, 8723.000
672.9070, 8883.000
674.0670, 8984.000
675.2260, 8946.000
676.3850, 9007.000
677.5440, 9113.000
678.7030, 8990.000
679.8610, 9038.000
681.0200, 9238.000
682.1780, 9128.000
683.3360, 9117.000
684.4940, 9148.000
685.6520, 9215.000
686.8090, 9370.000
687.9670, 9365.000
689.1240, 9410.020
690.2810, 9197.000
691.4380, 9400.000
692.5950, 9244.000
693.7520, 9199.000
694.9080, 9274.000
696.0650, 9221.000
697.2210, 9309.000
698.3770, 9396.000
699.5330, 9455.000
700.6880, 9377.000
701.8440, 9546.000
702.9990, 9608.000
704.1550, 9659.000
705.3100, 9802.000
706.4650, 10003.00
707.6190, 10256.00
708.7740, 10312.00
709.9290, 10548.00
711.0830, 10691.00
712.2370, 10982.00
713.3910, 11003.00
714.5450, 10947.00
715.6980, 11119.00
716.8520, 10886.00
718.0050, 10596.00
719.1580, 10311.00
720.3110, 9895.000
721.4640, 9755.000
722.6170, 9453.000
723.7700, 9085.000
724.9220, 9043.000
726.0740, 8883.000
727.2260, 8882.000
728.3780, 8750.000
729.5300, 8749.000
730.6810, 8655.000
731.8330, 8830.000
732.9840, 8630.000
734.1350, 8700.000
735.2860, 8813.000
736.4370, 8775.000
737.5880, 8863.000
738.7380, 8764.000
739.8880, 8818.000
741.0390, 8873.000
742.1890, 8948.000
743.3380, 8961.000
744.4880, 9047.000
745.6380, 9031.000
746.7870, 9063.000
747.9360, 9040.554
749.0850, 8959.000
750.2340, 8943.000
751.3830, 8886.000
752.5310, 8796.000
753.6800, 8820.000
754.8280, 8821.000
755.9760, 8853.000
757.1240, 8729.000
758.2720, 8720.000
759.4190, 8824.000
760.5670, 8751.000
761.7140, 8822.000
762.8610, 8793.000
764.0080, 8817.000
765.1550, 8747.000
766.3020, 8824.000
767.4480, 8790.000
768.5950, 8813.000
769.7410, 8883.000
770.8870, 8795.000
772.0330, 8776.000
773.1780, 8757.000
774.3240, 8847.000
775.4690, 8872.000
776.6140, 8797.000
777.7590, 8917.000
778.9040, 8887.000
780.0490, 8885.000
781.1940, 8924.000
782.3380, 8927.910
783.4820, 8944.000
784.6260, 9009.000
785.7700, 9035.000
786.9140, 9124.000
788.0580, 9235.000
789.2010, 9328.000
790.3450, 9362.000
791.4880, 9181.000
792.6310, 9331.000
793.7730, 9375.000
794.9160, 9339.000
796.0590, 9465.000
797.2010, 9262.000
798.3430, 9367.000
799.4850, 9474.000
800.6270, 9424.000
801.7690, 9522.000
802.9100, 9571.000
804.0520, 9585.000
805.1930, 9602.000
806.3340, 9562.267
807.4750, 9562.000
808.6160, 9435.000
809.7560, 9363.000
810.8970, 9270.068
812.0370, 9187.000
813.1770, 9144.000
814.3170, 9070.000
815.4570, 9074.000
816.5960, 9045.237
817.7360, 9098.000
818.8750, 9008.000
820.0140, 9111.000
821.1530, 9041.000
822.2920, 9041.000
823.4310, 9089.000
824.5690, 9278.000
825.7070, 9377.000
826.8460, 9348.000
827.9840, 9454.000
829.1220, 9443.000
830.2590, 9477.000
831.3970, 9576.000
832.5340, 9574.000
833.6710, 9534.000
834.8080, 9561.000
835.9450, 9486.000
837.0820, 9471.000
838.2190, 9361.000
839.3550, 9461.000
840.4910, 9210.000
841.6270, 9296.000
842.7630, 9305.000
843.8990, 9167.000
845.0350, 9104.000
846.1700, 9179.000
847.3060, 9306.000
848.4410, 9209.000
849.5760, 9153.000
850.7100, 9183.000
851.8450, 9188.000
852.9800, 9253.000
854.1140, 9313.000
855.2480, 9372.000
856.3820, 9378.000
857.5160, 9455.000
858.6500, 9331.000
859.7830, 9412.000
860.9170, 9508.000
862.0500, 9465.000
863.1830, 9592.000
864.3160, 9546.000
865.4480, 9596.000
866.5810, 9696.000
867.7130, 9827.000
868.8460, 9726.000
869.9780, 9711.000
871.1100, 9732.000
872.2410, 9691.000
873.3730, 9812.000
874.5050, 9862.000
875.6360, 9741.000
876.7670, 9880.000
877.8980, 9813.000
879.0290, 9871.000
880.1590, 9896.000
881.2900, 9952.000
882.4200, 9876.000
883.5500, 9971.000
884.6800, 9984.000
885.8100, 10073.00
886.9400, 10194.00
888.0690, 10303.00
889.1990, 10306.00
890.3280, 10354.00
891.4570, 10483.00
892.5860, 10685.00
893.7140, 10707.00
894.8430, 10999.00
895.9710, 11048.00
897.1000, 11386.00
898.2280, 11611.00
899.3560, 11814.00
900.4830, 12191.00
901.6110, 12549.00
902.7380, 12922.00
903.8660, 13544.00
904.9930, 14372.00
906.1200, 15300.00
907.2460, 16463.00
908.3730, 18274.00
909.5000, 20613.00
910.6260, 23713.00
911.7520, 27681.00
912.8780, 32379.00
914.0040, 38261.00
915.1290, 44096.00
916.2550, 50045.00
917.3800, 54211.00
918.5050, 54219.00
919.6300, 50591.00
920.7550, 44591.00
921.8800, 39274.00
923.0040, 34727.00
924.1290, 31320.00
925.2530, 29551.00
926.3770, 27713.00
927.5010, 26084.00
928.6250, 24187.00
929.7480, 22289.00
930.8720, 20394.00
931.9950, 18895.00
933.1180, 17406.00
934.2410, 16189.00
935.3640, 15317.00
936.4860, 14599.00
937.6090, 14074.00
938.7310, 13614.00
939.8530, 13160.00
940.9750, 12979.00
942.0970, 12717.00
943.2180, 12562.00
944.3400, 12583.00
945.4610, 12718.00
946.5820, 12671.00
947.7030, 12746.00
948.8240, 12748.00
949.9450, 12607.00
951.0650, 12350.00
952.1860, 11913.00
953.3060, 11882.00
954.4260, 11478.00
955.5460, 11273.00
956.6650, 10959.00
957.7850, 10772.00
958.9040, 10758.00
960.0230, 10574.00
961.1420, 10544.00
962.2610, 10494.00
963.3800, 10366.00
964.4990, 10374.00
965.6170, 10395.00
966.7350, 10352.00
967.8530, 10317.00
968.9710, 10265.00
970.0890, 10225.00
971.2070, 10227.00
972.3240, 10308.00
973.4410, 10299.00
974.5580, 10229.00
975.6750, 10308.00
976.7920, 10242.00
977.9090, 10170.00
979.0250, 10080.00
980.1410, 10222.00
981.2580, 10118.00
982.3740, 10240.00
983.4890, 10259.00
984.6050, 10296.00
985.7200, 10190.00
986.8360, 10406.00
987.9510, 10267.00
989.0660, 10112.00
990.1810, 10341.00
991.2950, 10303.00
992.4100, 10320.00
993.5240, 10321.00
994.6390, 10308.00
995.7530, 10361.26
996.8660, 10414.00
997.9800, 10444.00
999.0940, 10456.00
1000.207, 10460.00
1001.320, 10567.00
1002.433, 10746.00
1003.546, 10652.00
1004.659, 10597.00
1005.772, 10768.00
1006.884, 10793.00
1007.996, 10834.00
1009.108, 10979.00
1010.220, 11080.45
1011.332, 11333.00
1012.444, 11433.00
1013.555, 11701.00
1014.666, 11987.00
1015.777, 12249.00
1016.888, 12306.00
1017.999, 12519.00
1019.110, 12441.00
1020.220, 12338.00
1021.331, 12176.00
1022.441, 11894.00
1023.551, 11809.00
1024.661, 11697.00
1025.770, 11433.00
1026.880, 11426.00
1027.989, 11230.00
1029.098, 11278.00
1030.207, 11076.00
1031.316, 11090.00
1032.425, 11046.00
1033.533, 10990.00
1034.642, 10980.00
1035.750, 10794.00
1036.858, 10747.00
1037.966, 10735.00
1039.073, 10898.00
1040.181, 10830.00
1041.288, 10885.00
1042.396, 10959.00
1043.503, 10853.00
1044.610, 10852.00
1045.716, 10888.00
1046.823, 10745.00
1047.929, 10927.00
1049.036, 10879.00
1050.142, 11008.00
1051.248, 11055.00
1052.353, 11337.00
1053.459, 11378.00
1054.564, 11608.00
1055.670, 11593.00
1056.775, 12195.00
1057.880, 12463.00
1058.985, 13112.00
1060.089, 13638.00
1061.194, 14067.00
1062.298, 14655.00
1063.402, 14757.00
1064.506, 14534.00
1065.610, 14037.00
1066.713, 13408.00
1067.817, 13044.00
1068.920, 12593.00
1070.023, 12116.00
1071.126, 11821.00
1072.229, 11733.00
1073.332, 11575.00
1074.435, 11531.00
1075.537, 11495.00
1076.639, 11405.00
1077.741, 11356.00
1078.843, 11344.00
1079.945, 11236.00
1081.046, 11265.00
1082.148, 11345.00
1083.249, 11233.00
1084.350, 11322.00
1085.451, 11344.00
1086.551, 11204.00
1087.652, 11262.00
1088.752, 11300.00
1089.853, 11229.00
1090.953, 11211.00
1092.053, 11200.00
1093.152, 11145.00
1094.252, 11205.00
1095.351, 11387.00
1096.451, 11293.00
1097.550, 11307.00
1098.649, 11436.00
1099.748, 11395.00
1100.846, 11341.00
1101.945, 11430.00
1103.043, 11516.00
1104.141, 11601.00
1105.239, 11653.00
1106.337, 11670.00
1107.434, 11712.00
1108.532, 11861.00
1109.629, 11717.00
1110.726, 11783.00
1111.823, 11583.00
1112.920, 11405.00
1114.017, 11425.00
1115.113, 11317.00
1116.210, 11387.00
1117.306, 11578.00
1118.402, 11536.00
1119.498, 11645.00
1120.593, 11790.00
1121.689, 11703.00
1122.784, 11733.00
1123.879, 11735.00
1124.974, 11778.00
1126.069, 11712.00
1127.164, 11628.00
1128.259, 11450.00
1129.353, 11260.00
1130.447, 11332.00
1131.541, 11262.00
1132.635, 11133.00
1133.729, 11146.00
1134.822, 11120.00
1135.916, 10994.00
1137.009, 11052.00
1138.102, 11060.88
1139.195, 11122.00
1140.288, 11160.00
1141.380, 11128.00
1142.473, 11122.00
1143.565, 11140.00
1144.657, 11101.22
1145.749, 11139.00
1146.841, 11077.00
1147.932, 11079.00
1149.024, 11126.00
1150.115, 11070.00
1151.206, 11014.00
1152.297, 11017.00
1153.388, 10993.00
1154.479, 11002.00
1155.569, 11265.00
1156.659, 11055.00
1157.750, 11072.00
1158.839, 11152.00
1159.929, 11009.00
1161.019, 10990.00
1162.108, 11028.00
1163.198, 11168.00
1164.287, 11006.00
1165.376, 11038.00
1166.465, 11151.00
1167.553, 10981.00
1168.642, 11045.00
1169.730, 11147.00
1170.818, 11155.00
1171.906, 11185.00
1172.994, 11124.00
1174.082, 11026.00
1175.170, 11105.00
1176.257, 11019.00
1177.344, 11136.00
1178.431, 11066.00
1179.518, 11136.00
1180.605, 11178.00
1181.691, 11095.00
1182.778, 11231.00
1183.864, 11055.00
1184.950, 11123.00
1186.036, 11108.00
1187.122, 11127.00
1188.207, 11192.00
1189.292, 11147.00
1190.378, 11189.00
1191.463, 11198.00
1192.548, 11164.00
1193.632, 11184.00
1194.717, 11167.00
1195.801, 11095.00
1196.886, 11264.00
1197.970, 11139.00
1199.054, 11259.00
1200.137, 11215.00
1201.221, 11177.00
1202.305, 11099.00
1203.388, 11295.00
1204.471, 11132.00
1205.554, 11334.00
1206.637, 11259.00
1207.719, 11175.00
1208.802, 11497.00
1209.884, 11329.00
1210.966, 11375.00
1212.048, 11280.00
1213.130, 11359.00
1214.212, 11339.00
1215.293, 11308.00
1216.374, 11308.00
1217.456, 11338.47
1218.536, 11505.00
1219.617, 11452.00
1220.698, 11503.00
1221.778, 11606.00
1222.859, 11560.00
1223.939, 11566.00
1225.019, 11726.00
1226.099, 11679.00
1227.178, 11682.00
1228.258, 11909.00
1229.337, 11841.00
1230.417, 12013.00
1231.496, 12063.00
1232.574, 12075.00
1233.653, 12100.00
1234.732, 12127.00
1235.810, 12082.00
1236.888, 12084.00
1237.966, 11915.00
1239.044, 12036.00
1240.122, 12111.00
1241.199, 12008.00
1242.277, 12173.00
1243.354, 12214.00
1244.431, 12408.00
1245.508, 12441.00
1246.585, 12434.00
1247.661, 12339.00
1248.738, 12391.03
1249.814, 12372.92
1250.890, 12439.00
1251.966, 12400.00
1253.042, 12464.00
1254.117, 12468.00
1255.193, 12316.00
1256.268, 12294.00
1257.343, 12475.00
1258.418, 12300.00
1259.493, 12347.00
1260.567, 12306.00
1261.642, 12490.00
1262.716, 12448.00
1263.790, 12471.00
1264.864, 12408.00
1265.938, 12416.00
1267.011, 12399.00
1268.085, 12474.00
1269.158, 12413.00
1270.231, 12336.00
1271.304, 12186.00
1272.377, 12288.00
1273.450, 12240.00
1274.522, 12221.00
1275.594, 12162.00
1276.666, 12145.00
1277.738, 12188.00
1278.810, 12138.00
1279.882, 12028.00
1280.953, 12242.00
1282.025, 12156.00
1283.096, 12044.00
1284.167, 12139.00
1285.238, 12128.00
1286.308, 12133.00
1287.379, 12157.00
1288.449, 12181.99
1289.519, 12078.00
1290.589, 12211.00
1291.659, 12230.00
1292.729, 12134.00
1293.798, 12233.00
1294.868, 12337.00
1295.937, 12385.00
1297.006, 12404.76
1298.075, 12255.00
1299.143, 12353.00
1300.212, 12344.00
1301.280, 12250.00
1302.348, 12371.00
1303.416, 12342.00
1304.484, 12344.00
1305.552, 12319.00
1306.620, 12331.40
1307.687, 12381.00
1308.754, 12360.00
1309.821, 12438.23
1310.888, 12459.00
1311.955, 12546.00
1313.021, 12563.00
1314.088, 12630.00
1315.154, 12357.00
1316.220, 12566.00
1317.286, 12426.00
1318.352, 12564.00
1319.417, 12494.00
1320.483, 12504.00
1321.548, 12440.00
1322.613, 12450.00
1323.678, 12504.00
1324.743, 12376.00
1325.807, 12501.00
1326.872, 12522.00
1327.936, 12353.00
1329.000, 12398.00
1330.064, 12335.00
1331.128, 12394.00
1332.191, 12297.00
1333.255, 12208.00
1334.318, 12307.00
1335.381, 12287.00
1336.444, 12216.00
1337.507, 12376.00
1338.569, 12305.00
1339.632, 12301.00
1340.694, 12442.00
1341.756, 12243.00
1342.818, 12312.00
1343.880, 12238.00
1344.941, 12399.00
1346.003, 12360.00
1347.064, 12419.00
1348.125, 12436.00
1349.186, 12260.00
1350.247, 12401.00
1351.308, 12286.00
1352.368, 12446.00
1353.428, 12344.00
1354.489, 12292.00
1355.549, 12333.00
1356.608, 12198.00
1357.668, 12427.00
1358.727, 12360.00
1359.787, 12454.00
1360.846, 12361.00
1361.905, 12357.08
1362.964, 12348.41
1364.022, 12319.00
1365.081, 12302.00
1366.139, 12339.00
1367.197, 12339.00
1368.255, 12472.00
1369.313, 12480.00
1370.371, 12518.00
1371.428, 12597.00
1372.486, 12590.00
1373.543, 12392.00
1374.600, 12510.00
1375.657, 12534.00
1376.713, 12538.00
1377.770, 12635.00
1378.826, 12541.00
1379.882, 12573.00
1380.938, 12520.00
1381.994, 12527.00
1383.050, 12528.00
1384.106, 12486.00
1385.161, 12521.01
1386.216, 12487.00
1387.271, 12550.00
1388.326, 12561.00
1389.381, 12545.00
1390.435, 12514.00
1391.490, 12746.00
1392.544, 12636.00
1393.598, 12692.00
1394.652, 12662.00
1395.705, 12610.00
1396.759, 12586.00
1397.812, 12579.53
1398.866, 12550.77
1399.919, 12550.00
1400.972, 12623.00
1402.024, 12541.00
1403.077, 12577.11
1404.129, 12667.00
1405.181, 12630.00
1406.233, 12672.00
1407.285, 12821.00
1408.337, 12909.00
1409.389, 12849.00
1410.440, 12840.00
1411.491, 12704.00
1412.542, 12786.00
1413.593, 12804.00
1414.644, 12927.00
1415.695, 12741.00
1416.745, 12731.00
1417.795, 12708.00
1418.845, 12766.00
1419.895, 12780.00
1420.945, 12748.00
1421.995, 12806.00
1423.044, 12806.19
1424.093, 12835.00
1425.142, 12837.00
1426.191, 12763.00
1427.240, 12741.00
1428.289, 12913.00
1429.337, 12776.00
1430.385, 12802.00
1431.433, 12994.00
1432.481, 13119.00
1433.529, 12944.00
1434.577, 12999.00
1435.624, 13003.00
1436.672, 13059.00
1437.719, 13219.00
1438.766, 13146.00
1439.812, 13113.00
1440.859, 13241.00
1441.905, 13201.00
1442.952, 13214.00
1443.998, 13268.00
1445.044, 13380.00
1446.090, 13479.00
1447.135, 13493.00
1448.181, 13365.00
1449.226, 13300.00
1450.271, 13413.00
1451.316, 13649.00
1452.361, 13400.00
1453.405, 13532.00
1454.450, 13508.00
1455.494, 13499.00
1456.538, 13518.00
1457.582, 13615.00
1458.626, 13616.00
1459.670, 13353.00
1460.713, 13610.00
1461.757, 13448.00
1462.800, 13311.00
1463.843, 13403.00
1464.886, 13350.00
1465.928, 13327.00
1466.971, 13259.00
1468.013, 13245.00
1469.055, 13386.00
1470.097, 13347.00
1471.139, 13269.00
1472.181, 13138.00
1473.222, 13313.00
1474.263, 13087.00
1475.305, 13215.00
1476.346, 13242.00
1477.386, 13266.00
1478.427, 13365.00
1479.468, 13214.00
1480.508, 13299.00
1481.548, 13086.00
1482.588, 13106.00
1483.628, 13117.00
1484.668, 13097.00
1485.707, 13078.00
1486.747, 13004.00
1487.786, 13108.00
1488.825, 13018.00
1489.864, 13138.00
1490.902, 13191.00
1491.941, 13098.00
1492.979, 13017.00
1494.017, 13155.00
1495.055, 13086.00
1496.093, 13063.00
1497.131, 13098.00
1498.168, 13071.07
1499.206, 13213.00
1500.243, 13098.00
1501.280, 13179.00
1502.317, 13216.00
1503.354, 13108.00
1504.390, 13333.00
1505.426, 13304.00
1506.463, 13068.00
1507.499, 13222.00
1508.535, 13218.00
1509.570, 13196.00
1510.606, 13282.00
1511.641, 13250.00
1512.676, 13256.00
1513.711, 13415.00
1514.746, 13455.00
1515.781, 13459.50
1516.816, 13471.43
1517.850, 13406.00
1518.884, 13418.00
1519.918, 13313.00
1520.952, 13357.00
1521.986, 13284.00
1523.019, 13390.00
1524.053, 13309.00
1525.086, 13330.00
1526.119, 13312.00
1527.152, 13336.85
1528.185, 13382.00
1529.217, 13399.00
1530.250, 13470.00
1531.282, 13444.00
1532.314, 13499.00
1533.346, 13492.00
1534.377, 13473.00
1535.409, 13463.00
1536.440, 13509.00
1537.472, 13557.00
1538.503, 13525.00
1539.534, 13569.32
1540.564, 13483.00
1541.595, 13594.00
1542.625, 13570.00
1543.656, 13568.00
1544.686, 13503.00
1545.716, 13711.00
1546.745, 13450.00
1547.775, 13595.00
1548.804, 13659.00
1549.834, 13581.00
1550.863, 13723.00
1551.892, 13774.00
1552.920, 13750.00
1553.949, 13841.00
1554.977, 13716.00
1556.006, 13721.00
1557.034, 13701.00
1558.062, 13474.00
1559.089, 13559.00
1560.117, 13761.00
1561.144, 13571.00
1562.172, 13593.00
1563.199, 13609.00
1564.226, 13602.00
1565.252, 13662.00
1566.279, 13728.00
1567.305, 13561.00
1568.332, 13724.00
1569.358, 13683.00
1570.384, 13702.00
##END=



