##NAMES=Andalusite
##RRUFFID=R050258
##IDEAL CHEMISTRY=Al_2_SiO_5_
##LOCALITY=Bautista Canyon, near Hemet, Riverside County, California, USA
##OWNER=RRUFF
##SOURCE=Marcus Origlieri
##DESCRIPTION=Brown fragment
##STATUS=The identification of this mineral has been confirmed by X-ray diffraction and chemical analysis
##URL=rruff.info/R050258
##MEASURED CHEMISTRY=Al_2.00_Si_1.00_O_5_
##PIN_ID=M00208
##ORIENTATION=Laser parallel to -c* (0 0 -1). Fiducial mark perpendicular to laser is parallel to a [1 0 0]
99.64900, 13677.00
100.8830, 13781.00
102.1160, 13817.00
103.3490, 13930.00
104.5820, 14074.00
105.8150, 14241.00
107.0470, 14592.00
108.2800, 14889.00
109.5120, 15214.00
110.7440, 15084.00
111.9760, 14746.00
113.2080, 14661.00
114.4400, 14890.00
115.6710, 15024.00
116.9030, 14934.00
118.1340, 15232.00
119.3650, 15010.00
120.5960, 15016.00
121.8270, 15206.00
123.0580, 15292.00
124.2880, 15337.00
125.5190, 15451.00
126.7490, 15400.00
127.9790, 15341.00
129.2090, 15535.00
130.4390, 15685.00
131.6680, 15732.00
132.8980, 15733.00
134.1270, 15604.00
135.3560, 15662.00
136.5850, 15708.00
137.8140, 16020.00
139.0430, 16100.00
140.2710, 16135.00
141.5000, 16040.00
142.7280, 16089.00
143.9560, 16059.00
145.1840, 16058.00
146.4120, 16202.00
147.6390, 16272.00
148.8670, 16292.00
150.0940, 16262.00
151.3210, 16397.00
152.5490, 16396.00
153.7750, 16441.76
155.0020, 16355.00
156.2290, 16483.00
157.4550, 16495.00
158.6810, 16434.00
159.9080, 16661.00
161.1340, 16587.00
162.3590, 16581.00
163.5850, 16746.00
164.8110, 16784.00
166.0360, 16780.00
167.2610, 16872.00
168.4860, 16895.00
169.7110, 16996.00
170.9360, 17022.00
172.1610, 17003.00
173.3850, 17187.00
174.6100, 17082.00
175.8340, 17016.00
177.0580, 17104.00
178.2820, 17080.00
179.5050, 17138.43
180.7290, 17257.00
181.9520, 17269.00
183.1760, 17425.00
184.3990, 17501.00
185.6220, 17414.00
186.8450, 17740.00
188.0670, 17974.00
189.2900, 17941.00
190.5120, 18310.00
191.7340, 18095.00
192.9560, 18108.00
194.1780, 18086.00
195.4000, 18210.00
196.6220, 18169.00
197.8430, 18131.00
199.0640, 18067.00
200.2860, 18143.00
201.5070, 18367.00
202.7270, 18377.00
203.9480, 18295.00
205.1690, 18197.00
206.3890, 17989.00
207.6090, 17881.00
208.8290, 17815.00
210.0490, 17885.00
211.2690, 17817.00
212.4890, 17988.00
213.7080, 17873.00
214.9280, 18017.00
216.1470, 18057.00
217.3660, 18114.00
218.5850, 18210.00
219.8030, 18114.00
221.0220, 18146.00
222.2400, 18079.00
223.4590, 18192.00
224.6770, 18326.00
225.8950, 18177.00
227.1120, 18267.00
228.3300, 18233.00
229.5480, 18607.00
230.7650, 18584.00
231.9820, 18828.00
233.1990, 19056.00
234.4160, 19182.00
235.6330, 19564.00
236.8490, 20040.00
238.0660, 20283.00
239.2820, 20555.00
240.4980, 20759.00
241.7140, 20675.00
242.9300, 20517.00
244.1460, 20180.00
245.3610, 20043.00
246.5770, 19897.00
247.7920, 19932.00
249.0070, 19707.00
250.2220, 19799.00
251.4370, 19712.00
252.6510, 19794.00
253.8660, 19837.00
255.0800, 19799.00
256.2940, 19899.00
257.5080, 19810.00
258.7220, 20067.00
259.9360, 20246.00
261.1490, 20311.00
262.3630, 20250.00
263.5760, 20389.00
264.7890, 20545.00
266.0020, 20694.00
267.2150, 20727.00
268.4270, 21054.00
269.6400, 21331.00
270.8520, 21510.00
272.0640, 22029.00
273.2760, 22366.00
274.4880, 23007.00
275.7000, 23584.00
276.9120, 24028.00
278.1230, 24419.00
279.3340, 25361.00
280.5450, 26946.00
281.7560, 28572.00
282.9670, 31109.00
284.1780, 33629.00
285.3880, 36983.00
286.5980, 41157.00
287.8090, 45655.00
289.0190, 49939.00
290.2290, 52874.00
291.4380, 52359.00
292.6480, 48459.00
293.8570, 43382.00
295.0670, 37911.00
296.2760, 33464.00
297.4850, 30215.00
298.6930, 27223.00
299.9020, 25525.00
301.1110, 24471.00
302.3190, 23587.00
303.5270, 23074.00
304.7350, 22830.00
305.9430, 22323.00
307.1510, 22244.00
308.3580, 22072.00
309.5660, 22591.00
310.7730, 22939.00
311.9800, 23913.00
313.1870, 24687.00
314.3940, 25754.00
315.6010, 27636.00
316.8070, 29824.00
318.0130, 32495.00
319.2200, 34429.00
320.4260, 34845.00
321.6310, 33208.00
322.8370, 31138.00
324.0430, 28920.00
325.2480, 27444.00
326.4540, 26057.00
327.6590, 24895.00
328.8640, 24452.00
330.0680, 23963.00
331.2730, 24054.00
332.4780, 23794.00
333.6820, 23662.00
334.8860, 23643.00
336.0900, 23667.00
337.2940, 23487.00
338.4980, 23377.00
339.7010, 23384.00
340.9050, 23379.00
342.1080, 23443.00
343.3110, 23375.00
344.5140, 23526.00
345.7170, 24188.00
346.9200, 24549.00
348.1220, 25582.00
349.3240, 26773.00
350.5270, 28016.00
351.7290, 30433.00
352.9310, 32249.00
354.1320, 34669.00
355.3340, 37505.00
356.5350, 39313.00
357.7370, 39587.00
358.9380, 39029.00
360.1390, 37036.00
361.3400, 34423.00
362.5400, 31848.00
363.7410, 29813.00
364.9410, 28279.00
366.1410, 26893.00
367.3410, 26152.00
368.5410, 25230.00
369.7410, 24730.00
370.9400, 24144.00
372.1400, 24113.00
373.3390, 23499.00
374.5380, 23221.00
375.7370, 23248.00
376.9360, 22951.00
378.1350, 23316.00
379.3330, 23118.00
380.5310, 23199.00
381.7300, 23045.00
382.9280, 23083.00
384.1260, 22921.00
385.3230, 22817.00
386.5210, 22913.00
387.7180, 22995.00
388.9160, 22880.00
390.1130, 22897.00
391.3100, 23231.00
392.5060, 23094.00
393.7030, 22953.00
394.9000, 22909.00
396.0960, 22568.00
397.2920, 22682.00
398.4880, 22567.00
399.6840, 22698.00
400.8800, 22774.00
402.0750, 22871.00
403.2710, 22814.00
404.4660, 22896.04
405.6610, 22815.00
406.8560, 22937.00
408.0510, 22790.00
409.2450, 22754.00
410.4400, 22597.00
411.6340, 22691.73
412.8280, 22895.00
414.0220, 22969.00
415.2160, 22953.00
416.4100, 23232.00
417.6030, 23181.00
418.7970, 23075.00
419.9900, 23090.00
421.1830, 22950.00
422.3760, 23052.00
423.5690, 23191.00
424.7610, 22864.00
425.9540, 23056.00
427.1460, 23066.00
428.3380, 23160.00
429.5300, 23125.00
430.7220, 23123.00
431.9140, 23051.00
433.1050, 23197.00
434.2970, 23167.00
435.4880, 23176.00
436.6790, 23290.00
437.8700, 23271.00
439.0610, 23271.00
440.2510, 23464.00
441.4420, 23320.00
442.6320, 23669.00
443.8220, 23654.00
445.0120, 23709.00
446.2020, 24056.00
447.3910, 24297.00
448.5810, 24569.00
449.7700, 24696.06
450.9600, 25078.00
452.1490, 24735.00
453.3370, 24390.00
454.5260, 24076.00
455.7150, 24115.00
456.9030, 23770.00
458.0910, 23850.00
459.2800, 23933.00
460.4670, 23691.00
461.6550, 23963.00
462.8430, 23732.00
464.0300, 23926.00
465.2180, 23993.00
466.4050, 23991.00
467.5920, 23961.00
468.7790, 24160.00
469.9650, 23931.00
471.1520, 24213.00
472.3380, 24368.00
473.5250, 24345.00
474.7110, 24295.00
475.8970, 24367.00
477.0820, 24378.46
478.2680, 24507.00
479.4540, 24519.00
480.6390, 24527.00
481.8240, 24657.00
483.0090, 24570.00
484.1940, 24728.00
485.3780, 24587.00
486.5630, 24543.00
487.7470, 24584.00
488.9320, 24606.00
490.1160, 24537.00
491.3000, 24468.00
492.4830, 24586.00
493.6670, 24665.00
494.8500, 24637.00
496.0340, 24683.74
497.2170, 24685.71
498.4000, 24705.00
499.5820, 24640.00
500.7650, 24734.00
501.9480, 24631.00
503.1300, 24617.00
504.3120, 24771.00
505.4940, 24685.00
506.6760, 24551.00
507.8580, 24848.00
509.0390, 24984.00
510.2210, 24978.00
511.4020, 24843.00
512.5830, 24993.00
513.7640, 24826.00
514.9450, 24937.00
516.1250, 25038.00
517.3060, 24922.00
518.4860, 25102.00
519.6660, 24996.00
520.8460, 25114.00
522.0260, 25191.00
523.2060, 25137.00
524.3850, 25139.00
525.5650, 25318.00
526.7440, 25299.00
527.9230, 25278.00
529.1020, 25461.00
530.2810, 25449.00
531.4590, 25507.00
532.6380, 25563.00
533.8160, 25522.00
534.9940, 25731.00
536.1720, 25712.00
537.3500, 25792.00
538.5270, 25921.00
539.7050, 26239.00
540.8820, 26421.00
542.0590, 26693.00
543.2360, 26934.00
544.4130, 27312.00
545.5900, 27898.00
546.7660, 28507.00
547.9430, 28646.00
549.1190, 28932.00
550.2950, 28888.00
551.4710, 28698.00
552.6470, 28375.00
553.8220, 28381.00
554.9980, 27764.00
556.1730, 27543.00
557.3480, 27264.00
558.5230, 27027.00
559.6980, 26825.00
560.8730, 26686.00
562.0470, 26971.00
563.2220, 26447.00
564.3960, 26778.00
565.5700, 27220.00
566.7440, 27091.00
567.9170, 27413.00
569.0910, 27175.00
570.2640, 27401.00
571.4380, 27523.00
572.6110, 27302.00
573.7840, 27304.00
574.9570, 27295.00
576.1290, 26860.00
577.3020, 26847.00
578.4740, 26873.00
579.6460, 26853.00
580.8180, 26859.85
581.9900, 26627.00
583.1620, 26823.00
584.3330, 26742.00
585.5040, 26636.00
586.6760, 26832.00
587.8470, 26640.00
589.0180, 26823.00
590.1880, 26665.00
591.3590, 26713.00
592.5290, 27055.00
593.7000, 26876.00
594.8700, 26833.00
596.0400, 26961.00
597.2090, 26886.00
598.3790, 27198.00
599.5490, 27083.00
600.7180, 27183.00
601.8870, 27069.00
603.0560, 27151.03
604.2250, 27136.00
605.3940, 27333.00
606.5620, 27201.00
607.7300, 27355.00
608.8990, 27340.00
610.0670, 27265.37
611.2350, 27467.00
612.4020, 27200.00
613.5700, 27279.00
614.7370, 27422.00
615.9050, 27379.00
617.0720, 27620.00
618.2390, 27666.00
619.4060, 27425.00
620.5720, 27430.00
621.7390, 27596.00
622.9050, 27722.00
624.0710, 27624.00
625.2370, 27948.00
626.4030, 28047.00
627.5690, 28080.00
628.7340, 27928.00
629.9000, 27794.00
631.0650, 27958.00
632.2300, 27868.00
633.3950, 27771.00
634.5600, 27738.00
635.7240, 27661.00
636.8890, 27707.00
638.0530, 27728.58
639.2170, 27880.00
640.3810, 27798.00
641.5450, 28001.00
642.7080, 27918.00
643.8720, 28055.00
645.0350, 28121.00
646.1980, 28050.00
647.3610, 28254.00
648.5240, 27998.00
649.6870, 27990.00
650.8490, 28035.00
652.0120, 28010.00
653.1740, 28013.00
654.3360, 27967.00
655.4980, 28076.00
656.6600, 28043.00
657.8210, 27997.00
658.9830, 27912.00
660.1440, 28010.00
661.3050, 28279.00
662.4660, 28282.00
663.6270, 28254.00
664.7870, 28113.00
665.9480, 28031.00
667.1080, 28072.00
668.2680, 28302.00
669.4280, 28268.00
670.5880, 28348.00
671.7480, 28179.00
672.9070, 28316.00
674.0670, 28222.00
675.2260, 28384.00
676.3850, 28176.00
677.5440, 28440.00
678.7030, 28249.00
679.8610, 28320.00
681.0200, 28520.00
682.1780, 28482.00
683.3360, 28942.00
684.4940, 28314.00
685.6520, 28370.00
686.8090, 28635.00
687.9670, 28591.00
689.1240, 28541.00
690.2810, 28677.00
691.4380, 28450.00
692.5950, 28479.00
693.7520, 28892.00
694.9080, 28444.00
696.0650, 28883.00
697.2210, 28462.00
698.3770, 28577.00
699.5330, 28687.00
700.6880, 28796.00
701.8440, 28646.00
702.9990, 28895.00
704.1550, 29252.00
705.3100, 28878.00
706.4650, 29193.00
707.6190, 29027.00
708.7740, 29233.00
709.9290, 29169.00
711.0830, 29582.00
712.2370, 29519.00
713.3910, 29514.00
714.5450, 29886.00
715.6980, 29763.00
716.8520, 29886.00
718.0050, 29951.00
719.1580, 30178.00
720.3110, 29830.00
721.4640, 29675.00
722.6170, 29743.00
723.7700, 29728.00
724.9220, 29581.00
726.0740, 29545.00
727.2260, 29491.00
728.3780, 29283.00
729.5300, 29570.00
730.6810, 29539.00
731.8330, 29672.00
732.9840, 29426.00
734.1350, 29475.00
735.2860, 29336.00
736.4370, 29558.00
737.5880, 29555.00
738.7380, 29775.00
739.8880, 29572.00
741.0390, 29604.00
742.1890, 29614.00
743.3380, 29625.00
744.4880, 29805.00
745.6380, 29659.00
746.7870, 29833.00
747.9360, 29811.00
749.0850, 29780.00
750.2340, 29818.00
751.3830, 29774.00
752.5310, 29798.00
753.6800, 29883.00
754.8280, 29848.00
755.9760, 29806.00
757.1240, 29918.00
758.2720, 29871.00
759.4190, 29967.55
760.5670, 29900.00
761.7140, 30092.00
762.8610, 30124.00
764.0080, 30075.00
765.1550, 30205.00
766.3020, 30117.00
767.4480, 30142.00
768.5950, 30233.00
769.7410, 30209.00
770.8870, 30373.00
772.0330, 30396.00
773.1780, 30133.00
774.3240, 30462.00
775.4690, 30379.00
776.6140, 30237.00
777.7590, 30549.00
778.9040, 30519.00
780.0490, 30652.00
781.1940, 30507.00
782.3380, 30701.00
783.4820, 30529.00
784.6260, 30592.00
785.7700, 30529.00
786.9140, 30681.00
788.0580, 30804.00
789.2010, 30736.00
790.3450, 30670.00
791.4880, 30739.00
792.6310, 30829.00
793.7730, 30773.00
794.9160, 31006.00
796.0590, 30725.00
797.2010, 30820.00
798.3430, 31282.00
799.4850, 30924.00
800.6270, 30973.00
801.7690, 31010.00
802.9100, 31205.00
804.0520, 31202.00
805.1930, 31343.00
806.3340, 31398.00
807.4750, 31115.00
808.6160, 31410.00
809.7560, 31290.00
810.8970, 31438.00
812.0370, 31241.00
813.1770, 31461.00
814.3170, 31513.00
815.4570, 31466.00
816.5960, 31722.00
817.7360, 31621.00
818.8750, 31605.00
820.0140, 31831.00
821.1530, 31798.00
822.2920, 31820.00
823.4310, 31891.00
824.5690, 31749.00
825.7070, 31853.00
826.8460, 31765.00
827.9840, 31713.00
829.1220, 31866.00
830.2590, 31899.00
831.3970, 32018.00
832.5340, 32093.24
833.6710, 31962.00
834.8080, 32190.00
835.9450, 31973.00
837.0820, 31894.00
838.2190, 32015.00
839.3550, 31908.00
840.4910, 32050.00
841.6270, 31801.00
842.7630, 32026.00
843.8990, 31911.00
845.0350, 32008.00
846.1700, 31913.00
847.3060, 31801.00
848.4410, 32138.00
849.5760, 32169.00
850.7100, 31918.00
851.8450, 32236.00
852.9800, 32171.00
854.1140, 32347.00
855.2480, 32135.00
856.3820, 32238.00
857.5160, 32376.00
858.6500, 32325.00
859.7830, 32482.00
860.9170, 32563.00
862.0500, 32328.00
863.1830, 32416.00
864.3160, 32398.00
865.4480, 32388.00
866.5810, 32611.00
867.7130, 32387.00
868.8460, 32538.00
869.9780, 32563.00
871.1100, 32767.00
872.2410, 32611.00
873.3730, 32779.00
874.5050, 32681.00
875.6360, 32867.00
876.7670, 32871.00
877.8980, 33149.00
879.0290, 32849.00
880.1590, 32758.00
881.2900, 32930.00
882.4200, 33070.00
883.5500, 33045.00
884.6800, 33141.86
885.8100, 33392.00
886.9400, 33237.00
888.0690, 33210.00
889.1990, 33373.00
890.3280, 33636.00
891.4570, 33305.00
892.5860, 33648.00
893.7140, 33713.00
894.8430, 33754.00
895.9710, 34132.00
897.1000, 34286.00
898.2280, 34442.00
899.3560, 34379.00
900.4830, 34781.00
901.6110, 35068.00
902.7380, 35104.00
903.8660, 35408.00
904.9930, 35914.00
906.1200, 36357.00
907.2460, 37021.00
908.3730, 37799.00
909.5000, 38856.00
910.6260, 40086.00
911.7520, 42091.00
912.8780, 44735.00
914.0040, 47962.00
915.1290, 51932.00
916.2550, 55954.00
917.3800, 59209.00
918.5050, 60601.00
919.6300, 59033.00
920.7550, 55934.00
921.8800, 51781.00
923.0040, 47795.00
924.1290, 44718.00
925.2530, 42689.00
926.3770, 41417.00
927.5010, 40122.00
928.6250, 39599.00
929.7480, 38577.00
930.8720, 38485.00
931.9950, 38185.00
933.1180, 37667.00
934.2410, 37651.00
935.3640, 37763.00
936.4860, 37882.00
937.6090, 38127.00
938.7310, 38517.00
939.8530, 38966.00
940.9750, 40089.00
942.0970, 40906.00
943.2180, 41732.00
944.3400, 43361.00
945.4610, 45243.00
946.5820, 47127.00
947.7030, 49419.00
948.8240, 50694.00
949.9450, 50917.00
951.0650, 50873.00
952.1860, 48944.00
953.3060, 47137.00
954.4260, 44617.00
955.5460, 42676.00
956.6650, 41059.00
957.7850, 39827.00
958.9040, 38827.00
960.0230, 37937.00
961.1420, 37551.00
962.2610, 37005.00
963.3800, 36704.00
964.4990, 36681.00
965.6170, 36227.00
966.7350, 35823.00
967.8530, 36079.00
968.9710, 35997.00
970.0890, 35771.00
971.2070, 35684.00
972.3240, 35670.00
973.4410, 35523.00
974.5580, 35642.00
975.6750, 35581.20
976.7920, 35565.00
977.9090, 35565.00
979.0250, 35473.00
980.1410, 35404.00
981.2580, 35633.00
982.3740, 35650.00
983.4890, 35490.00
984.6050, 35365.00
985.7200, 35428.00
986.8360, 35481.00
987.9510, 35434.00
989.0660, 35494.00
990.1810, 35598.00
991.2950, 35868.00
992.4100, 35747.00
993.5240, 35929.00
994.6390, 35888.00
995.7530, 35934.00
996.8660, 35908.00
997.9800, 36193.00
999.0940, 36010.00
1000.207, 36083.00
1001.320, 36312.00
1002.433, 36274.00
1003.546, 36449.00
1004.659, 36741.00
1005.772, 36829.00
1006.884, 36615.00
1007.996, 36633.00
1009.108, 37009.00
1010.220, 37229.00
1011.332, 37840.00
1012.444, 38142.00
1013.555, 38162.00
1014.666, 38933.00
1015.777, 39551.00
1016.888, 40162.00
1017.999, 40373.00
1019.110, 40635.00
1020.220, 40391.00
1021.331, 39957.00
1022.441, 39360.00
1023.551, 39024.00
1024.661, 38481.00
1025.770, 38025.00
1026.880, 38023.00
1027.989, 37604.00
1029.098, 37384.00
1030.207, 37482.00
1031.316, 37309.00
1032.425, 37178.00
1033.533, 36955.00
1034.642, 36768.00
1035.750, 37111.00
1036.858, 37098.00
1037.966, 37023.00
1039.073, 37242.00
1040.181, 37022.00
1041.288, 36935.00
1042.396, 36805.00
1043.503, 37027.00
1044.610, 37341.00
1045.716, 37106.00
1046.823, 37329.00
1047.929, 37149.00
1049.036, 37472.00
1050.142, 37317.00
1051.248, 37510.00
1052.353, 37815.00
1053.459, 37629.00
1054.564, 37980.00
1055.670, 38284.00
1056.775, 38699.00
1057.880, 39113.00
1058.985, 39633.00
1060.089, 40286.00
1061.194, 41092.00
1062.298, 41942.00
1063.402, 42656.00
1064.506, 42871.00
1065.610, 42532.00
1066.713, 41756.00
1067.817, 40950.00
1068.920, 40398.00
1070.023, 39804.00
1071.126, 39222.00
1072.229, 39009.00
1073.332, 38481.00
1074.435, 38292.00
1075.537, 38214.00
1076.639, 38077.00
1077.741, 38089.00
1078.843, 37801.00
1079.945, 37825.00
1081.046, 37908.00
1082.148, 37834.00
1083.249, 38150.00
1084.350, 37563.00
1085.451, 38076.00
1086.551, 37846.00
1087.652, 37881.00
1088.752, 37824.00
1089.853, 37766.00
1090.953, 38072.00
1092.053, 38007.00
1093.152, 38027.00
1094.252, 38202.00
1095.351, 38124.00
1096.451, 38235.43
1097.550, 38389.00
1098.649, 38379.00
1099.748, 38428.00
1100.846, 38543.00
1101.945, 38800.00
1103.043, 38889.00
1104.141, 39088.09
1105.239, 39329.00
1106.337, 39494.00
1107.434, 39619.00
1108.532, 39751.18
1109.629, 39753.00
1110.726, 39824.00
1111.823, 39794.00
1112.920, 39599.79
1114.017, 39594.00
1115.113, 39307.00
1116.210, 39154.00
1117.306, 39166.00
1118.402, 39197.00
1119.498, 39294.00
1120.593, 39300.00
1121.689, 39343.00
1122.784, 39188.00
1123.879, 39292.00
1124.974, 38937.00
1126.069, 39266.00
1127.164, 39175.00
1128.259, 38973.00
1129.353, 38967.00
1130.447, 38944.00
1131.541, 38842.00
1132.635, 38945.00
1133.729, 38956.00
1134.822, 39059.00
1135.916, 38650.00
1137.009, 38581.00
1138.102, 39217.00
1139.195, 38747.00
1140.288, 39075.00
1141.380, 39092.00
1142.473, 39126.00
1143.565, 39128.00
1144.657, 39134.00
1145.749, 38997.00
1146.841, 39305.00
1147.932, 39022.00
1149.024, 39127.00
1150.115, 39428.00
1151.206, 39452.00
1152.297, 39159.00
1153.388, 39243.00
1154.479, 39237.00
1155.569, 39165.00
1156.659, 39139.00
1157.750, 39344.00
1158.839, 39347.00
1159.929, 39104.00
1161.019, 39130.00
1162.108, 39419.00
1163.198, 39495.00
1164.287, 39216.00
1165.376, 39652.00
1166.465, 39528.00
1167.553, 39402.00
1168.642, 39529.00
1169.730, 39684.00
1170.818, 39625.00
1171.906, 39885.00
1172.994, 39766.00
1174.082, 39623.00
1175.170, 39784.00
1176.257, 39803.00
1177.344, 39641.00
1178.431, 39656.00
1179.518, 39797.00
1180.605, 39807.44
1181.691, 39867.96
1182.778, 39983.00
1183.864, 40003.00
1184.950, 39964.00
1186.036, 40125.00
1187.122, 40098.73
1188.207, 40078.00
1189.292, 40126.00
1190.378, 40134.00
1191.463, 40077.00
1192.548, 40180.00
1193.632, 40127.66
1194.717, 40150.00
1195.801, 40156.00
1196.886, 40194.00
1197.970, 40334.00
1199.054, 40413.00
1200.137, 40425.02
1201.221, 40434.00
1202.305, 40421.00
1203.388, 40425.00
1204.471, 40383.00
1205.554, 40474.00
1206.637, 40301.00
1207.719, 40401.00
1208.802, 40455.00
1209.884, 40831.00
1210.966, 40446.00
1212.048, 40839.00
1213.130, 40571.00
1214.212, 40620.00
1215.293, 40655.00
1216.374, 40636.00
1217.456, 40746.00
1218.536, 40938.00
1219.617, 40953.00
1220.698, 40927.00
1221.778, 40760.00
1222.859, 40791.00
1223.939, 40899.00
1225.019, 40841.42
1226.099, 40918.05
1227.178, 40892.00
1228.258, 40972.00
1229.337, 41000.00
1230.417, 40983.00
1231.496, 41057.00
1232.574, 41114.52
1233.653, 41132.09
1234.732, 41255.00
1235.810, 41172.00
1236.888, 41162.00
1237.966, 41115.16
1239.044, 41267.00
1240.122, 41065.00
1241.199, 41373.00
1242.277, 41317.00
1243.354, 41640.00
1244.431, 41566.00
1245.508, 41604.00
1246.585, 41510.00
1247.661, 41693.00
1248.738, 41527.00
1249.814, 41419.00
1250.890, 41781.00
1251.966, 41717.00
1253.042, 41844.00
1254.117, 41852.00
1255.193, 41858.38
1256.268, 41811.00
1257.343, 41906.00
1258.418, 42003.00
1259.493, 42090.00
1260.567, 42030.00
1261.642, 42270.00
1262.716, 41923.00
1263.790, 42075.00
1264.864, 42141.00
1265.938, 42051.00
1267.011, 42083.00
1268.085, 42080.00
1269.158, 42006.00
1270.231, 42076.39
1271.304, 42443.00
1272.377, 42210.00
1273.450, 42358.00
1274.522, 42541.00
1275.594, 42387.00
1276.666, 42502.00
1277.738, 42485.00
1278.810, 42263.00
1279.882, 42669.00
1280.953, 42381.00
1282.025, 42539.00
1283.096, 42524.00
1284.167, 42596.00
1285.238, 42687.00
1286.308, 42687.00
1287.379, 42872.00
1288.449, 42899.58
1289.519, 42697.00
1290.589, 42995.00
1291.659, 42749.00
1292.729, 42678.00
1293.798, 42964.00
1294.868, 42804.00
1295.937, 42942.00
1297.006, 42897.00
1298.075, 42993.00
1299.143, 43196.00
1300.212, 42998.00
1301.280, 43055.00
1302.348, 42943.00
1303.416, 42904.52
1304.484, 43103.00
1305.552, 42959.00
1306.620, 42988.00
1307.687, 43257.00
1308.754, 43149.00
1309.821, 43264.00
1310.888, 43333.00
1311.955, 43167.00
1313.021, 43265.00
1314.088, 43575.00
1315.154, 43285.00
1316.220, 43777.00
1317.286, 43522.00
1318.352, 43462.00
1319.417, 43490.00
1320.483, 43364.00
1321.548, 43397.00
1322.613, 43628.00
1323.678, 43307.00
1324.743, 43720.00
1325.807, 43755.00
1326.872, 43811.00
1327.936, 43747.00
1329.000, 43823.00
1330.064, 43728.00
1331.128, 43632.00
1332.191, 43644.00
1333.255, 43739.00
1334.318, 43874.00
1335.381, 43928.00
1336.444, 43920.95
1337.507, 43896.00
1338.569, 43889.00
1339.632, 43883.00
1340.694, 43980.00
1341.756, 43967.00
1342.818, 44161.00
1343.880, 44096.00
1344.941, 44008.00
1346.003, 44339.00
1347.064, 43803.00
1348.125, 44331.00
1349.186, 44189.00
1350.247, 44366.00
1351.308, 44370.00
1352.368, 44251.00
1353.428, 44151.00
1354.489, 44501.00
1355.549, 44597.00
1356.608, 44492.00
1357.668, 44364.00
1358.727, 44426.00
1359.787, 44628.00
1360.846, 44558.00
1361.905, 44683.00
1362.964, 44603.00
1364.022, 44527.00
1365.081, 44601.00
1366.139, 44710.00
1367.197, 44819.00
1368.255, 44568.00
1369.313, 44691.00
1370.371, 44582.00
1371.428, 44577.53
1372.486, 44583.00
1373.543, 44639.00
1374.600, 44679.77
1375.657, 44905.00
1376.713, 44851.00
1377.770, 45011.00
1378.826, 45183.00
1379.882, 45078.00
1380.938, 45004.00
1381.994, 45227.00
1383.050, 44940.00
1384.106, 45425.00
1385.161, 45113.00
1386.216, 45154.00
1387.271, 45395.00
1388.326, 45336.00
1389.381, 45106.00
1390.435, 45085.00
1391.490, 45132.00
1392.544, 45304.00
1393.598, 45328.00
1394.652, 45379.00
1395.705, 45338.00
1396.759, 45470.00
1397.812, 45236.00
1398.866, 45312.00
1399.919, 45443.00
1400.972, 45554.00
1402.024, 45606.00
1403.077, 45612.00
1404.129, 45676.00
1405.181, 45904.00
1406.233, 45615.00
1407.285, 45971.00
1408.337, 45476.00
1409.389, 45729.00
1410.440, 45727.00
1411.491, 45671.00
1412.542, 45707.00
1413.593, 45986.00
1414.644, 46059.00
1415.695, 45746.00
1416.745, 45916.00
1417.795, 45683.00
1418.845, 46047.00
1419.895, 45669.00
1420.945, 46154.00
1421.995, 46099.00
1423.044, 46061.00
1424.093, 46501.00
1425.142, 45829.00
1426.191, 46247.00
1427.240, 46363.00
1428.289, 46123.00
1429.337, 46233.00
1430.385, 46593.00
1431.433, 46337.00
1432.481, 46336.00
1433.529, 46561.00
1434.577, 46388.00
1435.624, 46585.00
1436.672, 46634.00
1437.719, 46623.00
1438.766, 46590.00
1439.812, 46538.00
1440.859, 46621.00
1441.905, 46617.00
1442.952, 46642.94
1443.998, 46758.00
1445.044, 46707.00
1446.090, 46915.00
1447.135, 46964.00
1448.181, 46686.00
1449.226, 46991.00
1450.271, 47279.00
1451.316, 47107.00
1452.361, 46953.00
1453.405, 47040.00
1454.450, 46787.00
1455.494, 47136.00
1456.538, 47361.00
1457.582, 47257.00
1458.626, 47118.00
1459.670, 47596.00
1460.713, 47297.00
1461.757, 47107.00
1462.800, 47262.00
1463.843, 47447.00
1464.886, 47005.00
1465.928, 47592.00
1466.971, 47444.00
1468.013, 47236.00
1469.055, 47666.00
1470.097, 47622.00
1471.139, 47242.00
1472.181, 47518.00
1473.222, 47728.00
1474.263, 47414.00
1475.305, 47616.00
1476.346, 47855.00
1477.386, 47682.00
1478.427, 47990.00
1479.468, 47573.00
1480.508, 47726.00
1481.548, 48033.00
1482.588, 47959.00
1483.628, 47659.00
1484.668, 47984.00
1485.707, 47803.00
1486.747, 48105.00
1487.786, 48107.00
1488.825, 48274.00
1489.864, 48127.00
1490.902, 48107.00
1491.941, 48082.00
1492.979, 48152.00
1494.017, 48260.00
1495.055, 48165.00
1496.093, 48199.00
1497.131, 48301.00
1498.168, 48114.00
1499.206, 48405.00
1500.243, 48577.00
1501.280, 48554.00
1502.317, 48469.00
1503.354, 48717.00
1504.390, 48418.00
1505.426, 48374.00
1506.463, 48626.00
1507.499, 48456.00
1508.535, 48734.00
1509.570, 48578.00
1510.606, 48806.00
1511.641, 48611.00
1512.676, 48794.00
1513.711, 48620.00
1514.746, 48768.00
1515.781, 48859.00
1516.816, 48700.00
1517.850, 48901.00
1518.884, 49017.00
1519.918, 49055.00
1520.952, 49108.04
1521.986, 49140.78
1523.019, 49155.52
1524.053, 49155.00
1525.086, 49158.00
1526.119, 49145.00
1527.152, 49118.00
1528.185, 49440.00
1529.217, 48966.00
1530.250, 49450.00
1531.282, 49431.00
1532.314, 49123.00
1533.346, 49305.00
1534.377, 49179.00
1535.409, 49537.00
1536.440, 49615.00
1537.472, 49763.00
1538.503, 49782.00
1539.534, 49768.35
1540.564, 49500.00
1541.595, 49668.00
1542.625, 49569.00
1543.656, 49551.00
1544.686, 49720.00
1545.716, 49523.00
1546.745, 49453.00
1547.775, 49607.00
1548.804, 49768.00
1549.834, 49719.89
1550.863, 49705.00
1551.892, 49741.00
1552.920, 49906.00
1553.949, 49960.00
1554.977, 49935.00
1556.006, 50005.00
1557.034, 49950.06
1558.062, 49874.00
1559.089, 49860.00
1560.117, 49943.00
1561.144, 49930.00
1562.172, 49967.34
1563.199, 50188.00
1564.226, 49987.00
1565.252, 50165.00
1566.279, 50108.00
1567.305, 50288.00
1568.332, 50280.00
1569.358, 50313.00
1570.384, 50760.00
##END=



