##NAMES=Andalusite
##RRUFFID=R050258
##IDEAL CHEMISTRY=Al_2_SiO_5_
##LOCALITY=Bautista Canyon, near Hemet, Riverside County, California, USA
##OWNER=RRUFF
##SOURCE=Marcus Origlieri
##DESCRIPTION=Brown fragment
##STATUS=The identification of this mineral has been confirmed by X-ray diffraction and chemical analysis
##URL=rruff.info/R050258
##MEASURED CHEMISTRY=Al_2.00_Si_1.00_O_5_
##PIN_ID=M00252
##ORIENTATION=Laser parallel to b* (0 1 0). Fiducial mark perpendicular to laser is parallel to c [0 0 1]
111.9760, 11374.00
113.2080, 11499.00
114.4400, 11463.00
115.6710, 11744.00
116.9030, 11883.00
118.1340, 11803.00
119.3650, 11798.00
120.5960, 11757.00
121.8270, 11867.00
123.0580, 12040.00
124.2880, 12064.00
125.5190, 12055.00
126.7490, 12061.00
127.9790, 12113.00
129.2090, 12340.00
130.4390, 12415.00
131.6680, 12365.00
132.8980, 12448.00
134.1270, 12345.00
135.3560, 12524.00
136.5850, 12490.00
137.8140, 12554.00
139.0430, 12697.00
140.2710, 12811.00
141.5000, 12852.00
142.7280, 12853.00
143.9560, 12852.77
145.1840, 12852.62
146.4120, 12784.00
147.6390, 12819.00
148.8670, 12835.00
150.0940, 12809.00
151.3210, 12861.00
152.5490, 13051.00
153.7750, 12934.00
155.0020, 12985.00
156.2290, 12971.00
157.4550, 12878.00
158.6810, 13070.00
159.9080, 13006.00
161.1340, 13049.00
162.3590, 12988.00
163.5850, 13182.00
164.8110, 13182.00
166.0360, 13276.00
167.2610, 13430.00
168.4860, 13276.00
169.7110, 13322.00
170.9360, 13481.00
172.1610, 13399.00
173.3850, 13592.00
174.6100, 13467.00
175.8340, 13603.00
177.0580, 13386.00
178.2820, 13611.00
179.5050, 13693.00
180.7290, 13625.00
181.9520, 13772.00
183.1760, 13825.00
184.3990, 14087.00
185.6220, 14019.00
186.8450, 14214.00
188.0670, 14345.00
189.2900, 14589.00
190.5120, 14286.00
191.7340, 14414.00
192.9560, 14478.00
194.1780, 14517.00
195.4000, 14502.00
196.6220, 14379.00
197.8430, 14489.00
199.0640, 14435.00
200.2860, 14462.00
201.5070, 14661.00
202.7270, 14553.00
203.9480, 14664.00
205.1690, 14537.00
206.3890, 14481.00
207.6090, 14442.00
208.8290, 14305.00
210.0490, 14454.00
211.2690, 14232.00
212.4890, 14441.00
213.7080, 14438.00
214.9280, 14440.00
216.1470, 14392.00
217.3660, 14599.00
218.5850, 14646.00
219.8030, 14615.00
221.0220, 14739.00
222.2400, 14667.00
223.4590, 14616.00
224.6770, 14715.00
225.8950, 14664.00
227.1120, 14803.00
228.3300, 14737.00
229.5480, 14994.00
230.7650, 14780.00
231.9820, 14776.00
233.1990, 14933.00
234.4160, 15017.00
235.6330, 14994.00
236.8490, 15117.00
238.0660, 15193.00
239.2820, 15249.00
240.4980, 15235.00
241.7140, 15241.00
242.9300, 15276.00
244.1460, 15309.00
245.3610, 15291.29
246.5770, 15200.00
247.7920, 15237.00
249.0070, 15248.00
250.2220, 15173.00
251.4370, 15301.00
252.6510, 15062.00
253.8660, 15374.00
255.0800, 15209.00
256.2940, 15203.00
257.5080, 15290.00
258.7220, 15285.00
259.9360, 15575.00
261.1490, 15391.00
262.3630, 15521.00
263.5760, 15630.00
264.7890, 15564.00
266.0020, 15496.00
267.2150, 15683.00
268.4270, 15805.00
269.6400, 15655.00
270.8520, 15745.00
272.0640, 15957.00
273.2760, 16041.00
274.4880, 16135.00
275.7000, 16476.00
276.9120, 16503.00
278.1230, 16686.00
279.3340, 16949.00
280.5450, 17333.00
281.7560, 18048.00
282.9670, 19051.00
284.1780, 20309.00
285.3880, 20830.00
286.5980, 21190.00
287.8090, 21620.00
289.0190, 22184.00
290.2290, 22466.00
291.4380, 22082.00
292.6480, 21088.00
293.8570, 20329.00
295.0670, 19536.00
296.2760, 18749.00
297.4850, 18199.96
298.6930, 17371.00
299.9020, 17208.00
301.1110, 16870.00
302.3190, 16524.00
303.5270, 16650.00
304.7350, 16436.00
305.9430, 16493.00
307.1510, 16688.00
308.3580, 16814.00
309.5660, 17196.00
310.7730, 17730.00
311.9800, 18179.00
313.1870, 19117.00
314.3940, 19570.00
315.6010, 20472.00
316.8070, 21808.00
318.0130, 22755.00
319.2200, 22981.00
320.4260, 22541.00
321.6310, 21743.00
322.8370, 21012.00
324.0430, 19969.00
325.2480, 18977.00
326.4540, 18331.00
327.6590, 17940.00
328.8640, 17594.00
330.0680, 17570.00
331.2730, 17344.00
332.4780, 17315.00
333.6820, 17222.00
334.8860, 17285.00
336.0900, 17406.00
337.2940, 17351.00
338.4980, 17419.00
339.7010, 17571.00
340.9050, 17608.00
342.1080, 17641.00
343.3110, 17807.00
344.5140, 17911.00
345.7170, 18139.00
346.9200, 18531.00
348.1220, 19013.00
349.3240, 19469.00
350.5270, 20238.00
351.7290, 21048.00
352.9310, 21724.00
354.1320, 22454.00
355.3340, 23482.00
356.5350, 23855.00
357.7370, 23921.00
358.9380, 23136.00
360.1390, 22687.00
361.3400, 21992.00
362.5400, 21304.00
363.7410, 20572.00
364.9410, 20225.00
366.1410, 19749.00
367.3410, 19658.00
368.5410, 19493.00
369.7410, 19126.00
370.9400, 19103.00
372.1400, 19040.00
373.3390, 18676.00
374.5380, 18963.00
375.7370, 18807.00
376.9360, 18757.00
378.1350, 18638.00
379.3330, 18791.00
380.5310, 18761.00
381.7300, 18629.00
382.9280, 18866.00
384.1260, 18943.00
385.3230, 19300.00
386.5210, 19125.00
387.7180, 19248.00
388.9160, 19429.00
390.1130, 19189.00
391.3100, 19406.00
392.5060, 19282.00
393.7030, 19253.00
394.9000, 18974.00
396.0960, 18967.00
397.2920, 19127.00
398.4880, 18990.00
399.6840, 18999.00
400.8800, 19191.00
402.0750, 19280.00
403.2710, 19187.00
404.4660, 19382.00
405.6610, 19256.00
406.8560, 19308.00
408.0510, 19357.00
409.2450, 19447.00
410.4400, 19488.84
411.6340, 19512.00
412.8280, 19601.00
414.0220, 19808.00
415.2160, 19881.00
416.4100, 19912.00
417.6030, 19925.00
418.7970, 19861.00
419.9900, 19744.00
421.1830, 19614.00
422.3760, 19578.74
423.5690, 19434.00
424.7610, 19487.00
425.9540, 19492.00
427.1460, 19457.00
428.3380, 19484.00
429.5300, 19520.00
430.7220, 19470.00
431.9140, 19447.00
433.1050, 19670.00
434.2970, 19322.00
435.4880, 19710.00
436.6790, 19578.00
437.8700, 19725.00
439.0610, 19839.00
440.2510, 19808.00
441.4420, 19861.00
442.6320, 20152.00
443.8220, 20415.00
445.0120, 20364.00
446.2020, 20548.00
447.3910, 20605.00
448.5810, 20964.00
449.7700, 21075.00
450.9600, 20786.00
452.1490, 20363.00
453.3370, 20292.00
454.5260, 19962.00
455.7150, 20051.00
456.9030, 19868.00
458.0910, 19744.00
459.2800, 19809.00
460.4670, 19648.00
461.6550, 19759.00
462.8430, 19709.00
464.0300, 19756.00
465.2180, 19617.00
466.4050, 19742.00
467.5920, 19752.00
468.7790, 19775.00
469.9650, 19939.00
471.1520, 19959.00
472.3380, 19910.00
473.5250, 20071.00
474.7110, 20011.00
475.8970, 20150.00
477.0820, 20032.00
478.2680, 20094.00
479.4540, 20302.00
480.6390, 20262.00
481.8240, 20442.00
483.0090, 20250.00
484.1940, 20486.00
485.3780, 20213.00
486.5630, 20389.00
487.7470, 20406.00
488.9320, 20265.00
490.1160, 20394.00
491.3000, 20478.00
492.4830, 20452.00
493.6670, 20472.00
494.8500, 20638.00
496.0340, 20799.00
497.2170, 20771.00
498.4000, 21023.00
499.5820, 21059.00
500.7650, 21229.00
501.9480, 21184.00
503.1300, 21291.00
504.3120, 21407.00
505.4940, 21462.00
506.6760, 21667.00
507.8580, 21708.00
509.0390, 21806.00
510.2210, 21758.00
511.4020, 22015.00
512.5830, 21689.00
513.7640, 21840.00
514.9450, 21866.00
516.1250, 21689.00
517.3060, 21808.00
518.4860, 22012.00
519.6660, 21907.00
520.8460, 21817.00
522.0260, 22124.00
523.2060, 22042.00
524.3850, 22123.00
525.5650, 22343.00
526.7440, 22196.00
527.9230, 22425.00
529.1020, 22406.00
530.2810, 22575.00
531.4590, 22696.00
532.6380, 22861.00
533.8160, 23002.00
534.9940, 23064.00
536.1720, 23419.00
537.3500, 23601.00
538.5270, 23662.00
539.7050, 23977.00
540.8820, 24218.00
542.0590, 24439.00
543.2360, 24771.00
544.4130, 24666.00
545.5900, 24942.00
546.7660, 25271.00
547.9430, 25263.00
549.1190, 25675.00
550.2950, 25525.00
551.4710, 25790.00
552.6470, 25482.00
553.8220, 25198.00
554.9980, 25290.00
556.1730, 25069.00
557.3480, 24972.00
558.5230, 24585.00
559.6980, 24584.00
560.8730, 24582.00
562.0470, 24502.00
563.2220, 24618.00
564.3960, 24584.00
565.5700, 24713.00
566.7440, 24827.00
567.9170, 24608.00
569.0910, 24763.00
570.2640, 24771.00
571.4380, 24746.00
572.6110, 24886.00
573.7840, 24597.00
574.9570, 24428.00
576.1290, 24568.00
577.3020, 24677.00
578.4740, 24357.00
579.6460, 24330.00
580.8180, 24200.00
581.9900, 24156.00
583.1620, 23967.00
584.3330, 24060.00
585.5040, 23954.00
586.6760, 24074.00
587.8470, 23858.00
589.0180, 23900.00
590.1880, 23760.00
591.3590, 23846.00
592.5290, 23757.00
593.7000, 23763.00
594.8700, 23697.00
596.0400, 23876.00
597.2090, 23971.00
598.3790, 23926.00
599.5490, 23933.00
600.7180, 23882.00
601.8870, 24134.00
603.0560, 24497.00
604.2250, 24466.00
605.3940, 24708.91
606.5620, 24783.00
607.7300, 24919.00
608.8990, 25031.00
610.0670, 25076.00
611.2350, 25251.57
612.4020, 25228.00
613.5700, 25501.00
614.7370, 25559.00
615.9050, 25564.00
617.0720, 25774.00
618.2390, 25777.00
619.4060, 25903.00
620.5720, 25805.00
621.7390, 26111.00
622.9050, 26081.00
624.0710, 26224.00
625.2370, 26565.00
626.4030, 26428.00
627.5690, 26283.00
628.7340, 26663.00
629.9000, 26154.00
631.0650, 26326.00
632.2300, 26299.00
633.3950, 26408.00
634.5600, 26371.00
635.7240, 26304.00
636.8890, 26334.00
638.0530, 26394.00
639.2170, 26358.00
640.3810, 26219.00
641.5450, 26277.00
642.7080, 26384.00
643.8720, 26466.00
645.0350, 26300.00
646.1980, 26308.00
647.3610, 26161.00
648.5240, 26185.00
649.6870, 25933.00
650.8490, 25749.00
652.0120, 25695.00
653.1740, 25526.00
654.3360, 25223.00
655.4980, 25273.00
656.6600, 24997.00
657.8210, 25116.00
658.9830, 24953.00
660.1440, 24812.00
661.3050, 24921.00
662.4660, 24626.00
663.6270, 24660.00
664.7870, 24701.00
665.9480, 24443.00
667.1080, 24440.00
668.2680, 24341.00
669.4280, 24246.00
670.5880, 24362.00
671.7480, 24135.00
672.9070, 24059.00
674.0670, 24133.00
675.2260, 24187.00
676.3850, 24241.00
677.5440, 24279.00
678.7030, 24301.75
679.8610, 24320.00
681.0200, 24317.00
682.1780, 24305.00
683.3360, 24288.00
684.4940, 24308.00
685.6520, 24455.00
686.8090, 24361.00
687.9670, 24520.00
689.1240, 24293.00
690.2810, 24498.00
691.4380, 24524.00
692.5950, 24544.00
693.7520, 24447.00
694.9080, 24698.00
696.0650, 24693.00
697.2210, 25109.00
698.3770, 25043.00
699.5330, 24791.00
700.6880, 25063.00
701.8440, 24789.00
702.9990, 24918.00
704.1550, 25154.00
705.3100, 25255.00
706.4650, 25466.00
707.6190, 25363.00
708.7740, 25457.00
709.9290, 25709.00
711.0830, 25539.00
712.2370, 25933.00
713.3910, 25965.00
714.5450, 26087.00
715.6980, 26131.00
716.8520, 26194.00
718.0050, 25856.00
719.1580, 25819.00
720.3110, 25687.00
721.4640, 25828.00
722.6170, 25397.00
723.7700, 25735.00
724.9220, 25503.00
726.0740, 25511.00
727.2260, 25767.00
728.3780, 25558.00
729.5300, 25596.00
730.6810, 25636.00
731.8330, 25673.00
732.9840, 25633.00
734.1350, 25502.00
735.2860, 25536.69
736.4370, 25460.40
737.5880, 25538.00
738.7380, 25505.00
739.8880, 25572.00
741.0390, 25598.48
742.1890, 25623.00
743.3380, 25644.00
744.4880, 25738.00
745.6380, 25717.00
746.7870, 25907.00
747.9360, 25879.00
749.0850, 25998.00
750.2340, 25983.85
751.3830, 25862.00
752.5310, 25929.00
753.6800, 25941.00
754.8280, 25931.00
755.9760, 26016.00
757.1240, 25974.00
758.2720, 25974.00
759.4190, 25832.00
760.5670, 25983.00
761.7140, 26223.00
762.8610, 26209.00
764.0080, 26005.00
765.1550, 26209.00
766.3020, 26190.00
767.4480, 26163.00
768.5950, 26204.00
769.7410, 26143.00
770.8870, 26445.00
772.0330, 26526.00
773.1780, 26520.00
774.3240, 26509.00
775.4690, 26482.00
776.6140, 26581.00
777.7590, 26658.00
778.9040, 26777.00
780.0490, 26807.72
781.1940, 26875.00
782.3380, 26870.00
783.4820, 26929.00
784.6260, 26954.00
785.7700, 27058.00
786.9140, 27041.00
788.0580, 27129.00
789.2010, 27029.00
790.3450, 27377.00
791.4880, 27329.00
792.6310, 27563.00
793.7730, 27678.00
794.9160, 27425.00
796.0590, 27754.00
797.2010, 27714.00
798.3430, 27841.00
799.4850, 27857.00
800.6270, 28368.00
801.7690, 28501.00
802.9100, 28559.00
804.0520, 28649.00
805.1930, 29198.00
806.3340, 29215.00
807.4750, 29704.00
808.6160, 29691.00
809.7560, 30082.00
810.8970, 30406.00
812.0370, 30672.00
813.1770, 30917.00
814.3170, 31416.00
815.4570, 31520.00
816.5960, 31740.00
817.7360, 32004.00
818.8750, 31923.00
820.0140, 31966.00
821.1530, 31710.00
822.2920, 31510.47
823.4310, 31186.00
824.5690, 30957.00
825.7070, 30659.00
826.8460, 30480.00
827.9840, 30314.00
829.1220, 29985.00
830.2590, 29714.00
831.3970, 29867.00
832.5340, 29694.00
833.6710, 29437.00
834.8080, 29315.00
835.9450, 29012.00
837.0820, 29051.00
838.2190, 28826.00
839.3550, 28800.00
840.4910, 28742.00
841.6270, 28441.00
842.7630, 28561.00
843.8990, 28543.00
845.0350, 28440.00
846.1700, 28499.00
847.3060, 28393.00
848.4410, 28360.00
849.5760, 28249.00
850.7100, 28294.00
851.8450, 28143.00
852.9800, 28493.00
854.1140, 28331.00
855.2480, 28458.00
856.3820, 28675.00
857.5160, 28581.00
858.6500, 28635.00
859.7830, 28574.00
860.9170, 28851.00
862.0500, 28785.84
863.1830, 28826.00
864.3160, 28819.00
865.4480, 28777.00
866.5810, 28769.00
867.7130, 28901.00
868.8460, 28860.00
869.9780, 28979.00
871.1100, 29163.00
872.2410, 29064.00
873.3730, 29055.00
874.5050, 29117.00
875.6360, 28916.00
876.7670, 29162.00
877.8980, 29212.00
879.0290, 29232.00
880.1590, 29428.00
881.2900, 29646.00
882.4200, 29490.00
883.5500, 29656.00
884.6800, 29574.00
885.8100, 29609.00
886.9400, 29894.00
888.0690, 29665.00
889.1990, 29937.00
890.3280, 30029.00
891.4570, 30208.00
892.5860, 30378.00
893.7140, 30332.00
894.8430, 30452.00
895.9710, 30661.00
897.1000, 30833.00
898.2280, 30977.00
899.3560, 31394.00
900.4830, 31718.00
901.6110, 31589.00
902.7380, 32006.00
903.8660, 32392.00
904.9930, 32674.00
906.1200, 33051.00
907.2460, 33652.00
908.3730, 34220.00
909.5000, 35048.00
910.6260, 36431.00
911.7520, 37756.00
912.8780, 39465.00
914.0040, 41837.00
915.1290, 43607.00
916.2550, 45854.00
917.3800, 47033.00
918.5050, 47049.00
919.6300, 45987.00
920.7550, 44156.00
921.8800, 42362.00
923.0040, 40723.00
924.1290, 39430.00
925.2530, 38432.00
926.3770, 37584.00
927.5010, 37130.00
928.6250, 36493.00
929.7480, 35722.00
930.8720, 35139.00
931.9950, 34486.00
933.1180, 34336.00
934.2410, 34035.00
935.3640, 33769.00
936.4860, 33645.00
937.6090, 33540.00
938.7310, 33402.00
939.8530, 33374.55
940.9750, 33327.00
942.0970, 33402.00
943.2180, 33567.00
944.3400, 33756.00
945.4610, 33978.00
946.5820, 34266.00
947.7030, 34237.00
948.8240, 34608.00
949.9450, 34166.00
951.0650, 34410.00
952.1860, 34387.00
953.3060, 34015.00
954.4260, 33751.00
955.5460, 33437.00
956.6650, 33178.00
957.7850, 33287.00
958.9040, 32793.00
960.0230, 33129.00
961.1420, 33010.00
962.2610, 32889.00
963.3800, 33125.00
964.4990, 32835.00
965.6170, 32923.00
966.7350, 32995.00
967.8530, 32694.00
968.9710, 33135.00
970.0890, 33102.00
971.2070, 32943.00
972.3240, 33160.00
973.4410, 33381.00
974.5580, 33204.00
975.6750, 33272.00
976.7920, 33183.00
977.9090, 33371.00
979.0250, 33452.00
980.1410, 33527.00
981.2580, 33528.00
982.3740, 33297.00
983.4890, 33635.00
984.6050, 33454.00
985.7200, 33596.00
986.8360, 33795.00
987.9510, 33767.00
989.0660, 33657.00
990.1810, 34009.00
991.2950, 33922.00
992.4100, 34096.00
993.5240, 34201.00
994.6390, 34295.00
995.7530, 34796.00
996.8660, 35471.00
997.9800, 35744.00
999.0940, 36236.00
1000.207, 36578.00
1001.320, 37248.00
1002.433, 37823.00
1003.546, 37851.00
1004.659, 37837.00
1005.772, 37871.00
1006.884, 37340.00
1007.996, 37027.00
1009.108, 36475.00
1010.220, 36224.00
1011.332, 36067.00
1012.444, 35843.00
1013.555, 36108.00
1014.666, 35650.00
1015.777, 36006.00
1016.888, 35739.00
1017.999, 36056.00
1019.110, 35681.00
1020.220, 35634.00
1021.331, 35684.00
1022.441, 35613.00
1023.551, 35495.00
1024.661, 35337.00
1025.770, 35206.00
1026.880, 35376.00
1027.989, 35164.00
1029.098, 35470.00
1030.207, 35360.00
1031.316, 35240.00
1032.425, 35380.00
1033.533, 35187.00
1034.642, 35375.00
1035.750, 35476.00
1036.858, 35164.00
1037.966, 35478.00
1039.073, 35145.00
1040.181, 35318.00
1041.288, 35425.00
1042.396, 35266.00
1043.503, 35595.00
1044.610, 35134.00
1045.716, 35341.00
1046.823, 35469.00
1047.929, 35320.00
1049.036, 35445.00
1050.142, 35462.00
1051.248, 35399.00
1052.353, 35350.00
1053.459, 35642.00
1054.564, 35585.00
1055.670, 35951.00
1056.775, 35896.00
1057.880, 36097.00
1058.985, 36212.00
1060.089, 36367.00
1061.194, 36571.00
1062.298, 36771.00
1063.402, 36852.00
1064.506, 36986.00
1065.610, 37062.00
1066.713, 36707.00
1067.817, 37007.00
1068.920, 36535.00
1070.023, 36540.00
1071.126, 36496.00
1072.229, 36512.00
1073.332, 36536.16
1074.435, 36529.00
1075.537, 36504.73
1076.639, 36453.00
1077.741, 36425.00
1078.843, 36403.00
1079.945, 36362.00
1081.046, 36359.00
1082.148, 36373.00
1083.249, 36453.49
1084.350, 36367.00
1085.451, 36629.00
1086.551, 36652.00
1087.652, 36637.00
1088.752, 36672.00
1089.853, 36737.00
1090.953, 36665.00
1092.053, 36750.00
1093.152, 36735.00
1094.252, 36873.00
1095.351, 36913.70
1096.451, 36945.00
1097.550, 37061.00
1098.649, 36992.00
1099.748, 37065.00
1100.846, 37107.00
1101.945, 37136.00
1103.043, 37273.00
1104.141, 37282.00
1105.239, 37311.00
1106.337, 37465.00
1107.434, 37569.00
1108.532, 37576.00
1109.629, 37497.00
1110.726, 37486.00
1111.823, 37625.00
1112.920, 37463.00
1114.017, 37607.00
1115.113, 37782.00
1116.210, 37838.00
1117.306, 37805.00
1118.402, 37794.00
1119.498, 37730.00
1120.593, 37752.00
1121.689, 37814.00
1122.784, 37808.00
1123.879, 38000.00
1124.974, 37928.00
1126.069, 38171.00
1127.164, 38074.00
1128.259, 38192.00
1129.353, 37890.00
1130.447, 38185.00
1131.541, 38104.00
1132.635, 38032.00
1133.729, 38252.00
1134.822, 38188.00
1135.916, 38109.00
1137.009, 38532.00
1138.102, 38490.00
1139.195, 38161.00
1140.288, 38345.00
1141.380, 38488.00
1142.473, 38563.00
1143.565, 38432.00
1144.657, 38526.00
1145.749, 38591.00
1146.841, 38226.00
1147.932, 38996.00
1149.024, 38512.00
1150.115, 38704.00
1151.206, 38631.00
1152.297, 38794.00
1153.388, 38797.00
1154.479, 38818.00
1155.569, 39089.00
1156.659, 38602.00
1157.750, 38771.00
1158.839, 38994.00
1159.929, 38945.00
1161.019, 39223.00
1162.108, 39349.00
1163.198, 39397.00
1164.287, 39428.20
1165.376, 39182.00
1166.465, 39329.00
1167.553, 39348.00
1168.642, 39351.00
1169.730, 39613.00
1170.818, 39437.00
1171.906, 39985.00
1172.994, 39777.00
1174.082, 39795.00
1175.170, 39644.00
1176.257, 39741.00
1177.344, 39679.00
1178.431, 39895.00
1179.518, 39720.00
1180.605, 39938.00
1181.691, 40097.00
1182.778, 40006.00
1183.864, 39974.00
1184.950, 40173.00
1186.036, 40119.87
1187.122, 40146.00
1188.207, 40206.00
1189.292, 40254.00
1190.378, 40270.00
1191.463, 40397.00
1192.548, 40225.00
1193.632, 40628.00
1194.717, 40454.00
1195.801, 40607.00
1196.886, 40288.00
1197.970, 40629.00
1199.054, 40682.00
1200.137, 40570.00
1201.221, 40745.00
1202.305, 40610.00
1203.388, 40680.00
1204.471, 40600.00
1205.554, 40683.03
1206.637, 40714.00
1207.719, 40876.00
1208.802, 40807.00
1209.884, 40885.00
1210.966, 40985.00
1212.048, 40997.00
1213.130, 41093.00
1214.212, 40703.00
1215.293, 40896.00
1216.374, 41027.00
1217.456, 41255.00
1218.536, 41361.00
1219.617, 41303.00
1220.698, 41097.00
1221.778, 41409.00
1222.859, 41215.00
1223.939, 41419.00
1225.019, 41513.00
1226.099, 41383.00
1227.178, 41368.00
1228.258, 41527.00
1229.337, 41612.00
1230.417, 41623.00
1231.496, 41521.00
1232.574, 41644.00
1233.653, 41711.00
1234.732, 41609.00
1235.810, 41952.00
1236.888, 42021.00
1237.966, 41688.00
1239.044, 41840.00
1240.122, 41740.00
1241.199, 41776.00
1242.277, 41850.00
1243.354, 41975.00
1244.431, 42084.00
1245.508, 42087.00
1246.585, 42131.00
1247.661, 42256.00
1248.738, 42312.00
1249.814, 42302.00
1250.890, 42207.00
1251.966, 42576.00
1253.042, 42435.00
1254.117, 42217.00
1255.193, 42625.00
1256.268, 42475.00
1257.343, 42502.00
1258.418, 42717.00
1259.493, 42579.00
1260.567, 42685.00
1261.642, 42793.00
1262.716, 42749.00
1263.790, 42835.00
1264.864, 42840.44
1265.938, 42938.00
1267.011, 42866.00
1268.085, 42919.00
1269.158, 42951.00
1270.231, 42953.00
1271.304, 43014.00
1272.377, 43074.00
1273.450, 43084.51
1274.522, 43035.00
1275.594, 43101.00
1276.666, 43173.00
1277.738, 43120.27
1278.810, 43359.00
1279.882, 43287.00
1280.953, 43451.00
1282.025, 43775.00
1283.096, 43501.00
1284.167, 43612.00
1285.238, 43417.00
1286.308, 43760.00
1287.379, 43754.00
1288.449, 43535.00
1289.519, 43684.00
1290.589, 43666.00
1291.659, 43758.00
1292.729, 43889.00
1293.798, 44087.00
1294.868, 44057.34
1295.937, 43893.00
1297.006, 44050.00
1298.075, 43981.00
1299.143, 44009.00
1300.212, 44053.00
1301.280, 44041.00
1302.348, 44012.00
1303.416, 44304.00
1304.484, 44072.00
1305.552, 44316.00
1306.620, 44354.00
1307.687, 44382.00
1308.754, 44260.00
1309.821, 44319.38
1310.888, 44404.00
1311.955, 44365.00
1313.021, 44487.00
1314.088, 44598.00
1315.154, 44581.00
1316.220, 44848.00
1317.286, 44632.00
1318.352, 44920.00
1319.417, 44516.00
1320.483, 44696.00
1321.548, 45036.00
1322.613, 44578.00
1323.678, 45071.00
1324.743, 44792.00
1325.807, 44963.00
1326.872, 45174.00
1327.936, 44906.00
1329.000, 45280.00
1330.064, 44983.00
1331.128, 45356.00
1332.191, 45443.00
1333.255, 45168.00
1334.318, 45374.00
1335.381, 45394.00
1336.444, 45455.00
1337.507, 45647.00
1338.569, 45468.00
1339.632, 45694.00
1340.694, 45605.00
1341.756, 45923.00
1342.818, 45467.00
1343.880, 45938.00
1344.941, 45871.00
1346.003, 45863.00
1347.064, 45964.00
1348.125, 45997.93
1349.186, 46340.00
1350.247, 46221.00
1351.308, 46224.00
1352.368, 46380.00
1353.428, 46230.00
1354.489, 46546.00
1355.549, 46386.00
1356.608, 46248.00
1357.668, 46372.00
1358.727, 46375.00
1359.787, 46227.00
1360.846, 46582.00
1361.905, 46655.00
1362.964, 46734.00
1364.022, 46773.00
1365.081, 46741.00
1366.139, 46788.00
1367.197, 46889.00
1368.255, 46742.00
1369.313, 46934.00
1370.371, 46865.00
1371.428, 47137.00
1372.486, 46861.00
1373.543, 46921.00
1374.600, 46763.00
1375.657, 47007.00
1376.713, 47122.00
1377.770, 47132.00
1378.826, 47253.00
1379.882, 47323.00
1380.938, 47214.00
1381.994, 47145.00
1383.050, 47518.00
1384.106, 47417.00
1385.161, 47491.00
1386.216, 47464.00
1387.271, 47535.00
1388.326, 47673.00
1389.381, 47655.00
1390.435, 47721.89
1391.490, 47755.00
1392.544, 47726.00
1393.598, 47838.00
1394.652, 47760.00
1395.705, 47856.00
1396.759, 47686.00
1397.812, 48131.00
1398.866, 48029.00
1399.919, 47699.00
1400.972, 48263.00
1402.024, 48057.00
1403.077, 48421.00
1404.129, 48499.00
1405.181, 48220.00
1406.233, 48234.00
1407.285, 48397.00
1408.337, 48499.00
1409.389, 48306.00
1410.440, 48259.00
1411.491, 48391.00
1412.542, 48607.00
1413.593, 48644.00
1414.644, 48710.00
1415.695, 48499.00
1416.745, 48764.00
1417.795, 48772.00
1418.845, 48755.00
1419.895, 48949.00
1420.945, 48775.00
1421.995, 48922.00
1423.044, 49162.00
1424.093, 48803.00
1425.142, 48910.00
1426.191, 49266.00
1427.240, 49197.00
1428.289, 49191.00
1429.337, 49339.00
1430.385, 49331.47
1431.433, 49278.00
1432.481, 49392.00
1433.529, 49642.00
1434.577, 49516.00
1435.624, 49707.00
1436.672, 49780.00
1437.719, 49618.00
1438.766, 49656.00
1439.812, 49668.74
1440.859, 49655.00
1441.905, 49829.00
1442.952, 50103.00
1443.998, 50416.00
1445.044, 50120.00
1446.090, 50357.00
1447.135, 50354.00
1448.181, 50391.00
1449.226, 50192.00
1450.271, 50341.00
1451.316, 50200.00
1452.361, 50527.00
1453.405, 50562.00
1454.450, 50732.00
1455.494, 50597.00
1456.538, 50511.00
1457.582, 50920.00
1458.626, 50597.00
1459.670, 50554.00
1460.713, 50703.00
1461.757, 50621.00
1462.800, 50873.00
1463.843, 50892.00
1464.886, 50969.00
1465.928, 51039.00
1466.971, 50874.00
1468.013, 51105.00
1469.055, 50994.00
1470.097, 50998.00
1471.139, 51459.00
1472.181, 51227.00
1473.222, 51471.00
1474.263, 51212.00
1475.305, 51060.00
1476.346, 51675.00
1477.386, 51126.00
1478.427, 51165.00
1479.468, 51583.00
1480.508, 51414.00
1481.548, 51638.00
1482.588, 51588.00
1483.628, 51709.00
1484.668, 51806.00
1485.707, 51838.00
1486.747, 51469.00
1487.786, 52035.00
1488.825, 52185.00
1489.864, 51717.00
1490.902, 51878.00
1491.941, 52225.00
1492.979, 52037.00
1494.017, 52108.00
1495.055, 52235.00
1496.093, 52212.00
1497.131, 52237.00
1498.168, 52262.00
1499.206, 52276.98
1500.243, 52215.00
1501.280, 52398.00
1502.317, 52472.00
1503.354, 52668.00
1504.390, 52747.00
1505.426, 52912.00
1506.463, 52712.00
1507.499, 53069.00
1508.535, 52824.00
1509.570, 52984.00
1510.606, 52917.00
1511.641, 53113.00
1512.676, 52859.00
1513.711, 52937.00
1514.746, 53131.00
1515.781, 53221.00
1516.816, 53130.00
1517.850, 53457.00
1518.884, 53456.00
1519.918, 53568.00
1520.952, 53394.00
1521.986, 53461.00
1523.019, 53395.00
1524.053, 53553.00
1525.086, 53673.00
1526.119, 53629.00
1527.152, 53556.00
1528.185, 53917.00
1529.217, 53843.00
1530.250, 53931.00
1531.282, 54066.00
1532.314, 54150.00
1533.346, 54078.00
1534.377, 54163.00
1535.409, 54174.00
1536.440, 54408.00
1537.472, 54455.78
1538.503, 54279.00
1539.534, 54643.00
1540.564, 54468.00
1541.595, 54466.00
1542.625, 54703.00
1543.656, 54689.00
1544.686, 54961.00
1545.716, 54612.00
1546.745, 54920.00
1547.775, 54601.00
1548.804, 54834.00
1549.834, 55182.00
1550.863, 55054.00
1551.892, 54902.00
1552.920, 55315.00
1553.949, 55239.00
1554.977, 55372.00
1556.006, 55460.94
1557.034, 55320.00
1558.062, 55503.00
1559.089, 55485.00
1560.117, 55489.00
1561.144, 55399.00
1562.172, 55726.00
1563.199, 55627.00
1564.226, 55605.00
1565.252, 55806.00
1566.279, 55596.00
1567.305, 55911.00
1568.332, 55852.00
1569.358, 55839.00
1570.384, 56214.00
##END=



