##NAMES=Andalusite
##RRUFFID=R060212
##IDEAL CHEMISTRY=Al_2_SiO_5_
##LOCALITY=Brazil
##OWNER=RRUFF
##SOURCE=Marcus Origlieri
##DESCRIPTION=Transparent yellow-green water-worn pebble
##STATUS=The identification of this mineral is confirmed by single-crystal X-ray diffraction and chemical analysis.
##URL=rruff.info/R060212
##MEASURED CHEMISTRY=(Al_1.98_Fe^3+^_0.02_)_Î£=2_Si_1.00_O_5_
##PIN_ID=M00278
##ORIENTATION=Laser parallel to c* (0 0 1). Fiducial mark perpendicular to laser is parallel to -a [-1 0 0]
99.64900, 4639.625
100.8830, 4728.000
102.1160, 4677.000
103.3490, 4741.000
104.5820, 4787.000
105.8150, 4969.000
107.0470, 5401.000
108.2800, 5362.908
109.5120, 6032.000
110.7440, 5481.000
111.9760, 4913.000
113.2080, 4863.000
114.4400, 4988.000
115.6710, 5189.000
116.9030, 5016.000
118.1340, 4984.000
119.3650, 4822.000
120.5960, 4765.000
121.8270, 4763.000
123.0580, 4888.000
124.2880, 4898.000
125.5190, 4772.000
126.7490, 4713.000
127.9790, 4745.000
129.2090, 4749.000
130.4390, 4741.286
131.6680, 4884.000
132.8980, 4784.000
134.1270, 4876.000
135.3560, 4965.000
136.5850, 4969.000
137.8140, 5044.000
139.0430, 5198.000
140.2710, 5173.000
141.5000, 5174.000
142.7280, 5110.000
143.9560, 5065.000
145.1840, 5068.000
146.4120, 5110.000
147.6390, 4980.000
148.8670, 4979.000
150.0940, 4953.000
151.3210, 5020.000
152.5490, 5046.000
153.7750, 4938.000
155.0020, 5022.000
156.2290, 4837.000
157.4550, 4920.000
158.6810, 4830.000
159.9080, 4845.000
161.1340, 5022.000
162.3590, 4991.000
163.5850, 5033.000
164.8110, 5192.000
166.0360, 5246.000
167.2610, 5232.000
168.4860, 5299.000
169.7110, 5205.000
170.9360, 5276.000
172.1610, 5178.000
173.3850, 5176.000
174.6100, 5091.000
175.8340, 5094.000
177.0580, 5189.000
178.2820, 5216.000
179.5050, 5329.000
180.7290, 5272.000
181.9520, 5261.000
183.1760, 5303.000
184.3990, 5376.000
185.6220, 5645.000
186.8450, 5777.000
188.0670, 5972.000
189.2900, 6207.000
190.5120, 6229.000
191.7340, 6303.000
192.9560, 6338.283
194.1780, 6287.000
195.4000, 6300.000
196.6220, 6247.000
197.8430, 6318.865
199.0640, 6267.000
200.2860, 6483.000
201.5070, 6587.000
202.7270, 6696.000
203.9480, 6365.000
205.1690, 5902.000
206.3890, 5450.000
207.6090, 5217.000
208.8290, 5129.000
210.0490, 5124.000
211.2690, 5017.000
212.4890, 5087.000
213.7080, 5051.000
214.9280, 4945.000
216.1470, 4973.000
217.3660, 5012.000
218.5850, 4996.000
219.8030, 4982.000
221.0220, 4995.000
222.2400, 5000.275
223.4590, 5043.000
224.6770, 5038.000
225.8950, 5057.000
227.1120, 5078.000
228.3300, 5151.000
229.5480, 5223.000
230.7650, 5345.000
231.9820, 5338.000
233.1990, 5529.000
234.4160, 5606.000
235.6330, 5689.000
236.8490, 6010.000
238.0660, 6205.000
239.2820, 6278.000
240.4980, 6332.000
241.7140, 6419.000
242.9300, 6355.000
244.1460, 6234.000
245.3610, 6039.000
246.5770, 5968.000
247.7920, 5863.000
249.0070, 5871.000
250.2220, 5846.000
251.4370, 5859.000
252.6510, 5748.000
253.8660, 5802.000
255.0800, 5849.000
256.2940, 5865.000
257.5080, 6026.000
258.7220, 6266.000
259.9360, 6231.214
261.1490, 6416.000
262.3630, 6293.000
263.5760, 6381.000
264.7890, 6473.000
266.0020, 6604.000
267.2150, 6882.000
268.4270, 6971.000
269.6400, 7237.000
270.8520, 7559.000
272.0640, 8058.000
273.2760, 8689.000
274.4880, 9489.000
275.7000, 10069.00
276.9120, 10672.00
278.1230, 11490.00
279.3340, 13019.00
280.5450, 14932.00
281.7560, 17332.00
282.9670, 19879.00
284.1780, 22775.00
285.3880, 25983.00
286.5980, 29795.00
287.8090, 33880.00
289.0190, 37721.00
290.2290, 38769.00
291.4380, 37324.00
292.6480, 33589.00
293.8570, 28831.00
295.0670, 23986.00
296.2760, 19626.00
297.4850, 16235.00
298.6930, 13676.00
299.9020, 11898.00
301.1110, 10665.00
302.3190, 9859.000
303.5270, 9223.000
304.7350, 8981.000
305.9430, 8779.000
307.1510, 9029.000
308.3580, 9425.000
309.5660, 10382.00
310.7730, 11595.40
311.9800, 13401.00
313.1870, 15151.00
314.3940, 17384.00
315.6010, 20094.00
316.8070, 23738.00
318.0130, 27313.00
319.2200, 29326.00
320.4260, 28636.00
321.6310, 26660.00
322.8370, 23300.00
324.0430, 20061.00
325.2480, 17037.00
326.4540, 14482.00
327.6590, 12639.00
328.8640, 11447.00
330.0680, 10597.00
331.2730, 10107.00
332.4780, 9729.000
333.6820, 9487.000
334.8860, 9270.000
336.0900, 9213.000
337.2940, 8890.000
338.4980, 8913.000
339.7010, 8756.000
340.9050, 8872.000
342.1080, 9113.000
343.3110, 9103.000
344.5140, 9602.000
345.7170, 10017.00
346.9200, 10946.00
348.1220, 11932.00
349.3240, 13278.00
350.5270, 14840.00
351.7290, 16604.00
352.9310, 18553.00
354.1320, 20763.00
355.3340, 22656.00
356.5350, 24020.00
357.7370, 24002.00
358.9380, 23262.00
360.1390, 21406.00
361.3400, 19309.00
362.5400, 16894.00
363.7410, 15040.00
364.9410, 13393.00
366.1410, 12246.00
367.3410, 11235.00
368.5410, 10326.00
369.7410, 9788.000
370.9400, 9457.000
372.1400, 9067.000
373.3390, 8698.000
374.5380, 8408.000
375.7370, 8093.000
376.9360, 7873.000
378.1350, 7786.000
379.3330, 7701.000
380.5310, 7577.000
381.7300, 7469.000
382.9280, 7386.000
384.1260, 7261.000
385.3230, 7382.000
386.5210, 7209.000
387.7180, 7315.000
388.9160, 7385.000
390.1130, 7419.000
391.3100, 7277.000
392.5060, 7218.000
393.7030, 7122.000
394.9000, 6998.622
396.0960, 6799.000
397.2920, 6782.000
398.4880, 6697.000
399.6840, 6631.000
400.8800, 6618.000
402.0750, 6688.000
403.2710, 6818.000
404.4660, 6983.000
405.6610, 6961.000
406.8560, 7058.000
408.0510, 7244.000
409.2450, 7427.000
410.4400, 7481.000
411.6340, 7923.000
412.8280, 8148.000
414.0220, 8512.000
415.2160, 8646.000
416.4100, 8989.000
417.6030, 8932.000
418.7970, 8766.000
419.9900, 8364.000
421.1830, 7824.000
422.3760, 7444.000
423.5690, 7272.000
424.7610, 7111.000
425.9540, 6910.000
427.1460, 6739.000
428.3380, 6768.000
429.5300, 6543.000
430.7220, 6559.000
431.9140, 6520.000
433.1050, 6480.000
434.2970, 6411.000
435.4880, 6425.000
436.6790, 6603.000
437.8700, 6528.000
439.0610, 6623.000
440.2510, 6607.000
441.4420, 6818.000
442.6320, 6979.000
443.8220, 7126.000
445.0120, 7258.000
446.2020, 7391.000
447.3910, 7766.000
448.5810, 8176.000
449.7700, 8632.000
450.9600, 8530.000
452.1490, 8226.000
453.3370, 7773.000
454.5260, 7372.000
455.7150, 7166.000
456.9030, 6885.000
458.0910, 6764.000
459.2800, 6758.000
460.4670, 6813.000
461.6550, 6824.000
462.8430, 6855.000
464.0300, 6920.000
465.2180, 6928.000
466.4050, 7061.000
467.5920, 6985.000
468.7790, 7209.000
469.9650, 7232.000
471.1520, 7402.000
472.3380, 7417.000
473.5250, 7525.000
474.7110, 7696.000
475.8970, 7839.000
477.0820, 8079.000
478.2680, 8111.000
479.4540, 8189.000
480.6390, 8117.000
481.8240, 8147.000
483.0090, 8094.000
484.1940, 8035.000
485.3780, 8027.000
486.5630, 7732.000
487.7470, 7620.000
488.9320, 7493.000
490.1160, 7437.000
491.3000, 7311.506
492.4830, 7230.232
493.6670, 7091.000
494.8500, 7069.000
496.0340, 6939.000
497.2170, 6880.000
498.4000, 6969.000
499.5820, 6859.000
500.7650, 6987.000
501.9480, 7017.000
503.1300, 7069.000
504.3120, 7071.000
505.4940, 7194.000
506.6760, 7227.000
507.8580, 7215.000
509.0390, 7287.000
510.2210, 7246.000
511.4020, 7337.000
512.5830, 7503.000
513.7640, 7397.000
514.9450, 7321.000
516.1250, 7388.000
517.3060, 7288.000
518.4860, 7184.000
519.6660, 7369.000
520.8460, 7253.000
522.0260, 7212.000
523.2060, 7167.000
524.3850, 7191.000
525.5650, 7239.000
526.7440, 7301.000
527.9230, 7261.000
529.1020, 7233.000
530.2810, 7373.000
531.4590, 7201.000
532.6380, 7360.000
533.8160, 7386.000
534.9940, 7466.000
536.1720, 7603.000
537.3500, 7669.000
538.5270, 8032.000
539.7050, 8173.000
540.8820, 8592.000
542.0590, 9029.000
543.2360, 9630.000
544.4130, 10223.00
545.5900, 10783.00
546.7660, 11431.00
547.9430, 12192.00
549.1190, 12421.00
550.2950, 12532.00
551.4710, 12328.00
552.6470, 11757.00
553.8220, 11007.00
554.9980, 10182.00
556.1730, 9732.000
557.3480, 9119.000
558.5230, 8756.000
559.6980, 8402.000
560.8730, 8216.000
562.0470, 8081.000
563.2220, 7975.000
564.3960, 7852.000
565.5700, 7850.000
566.7440, 7764.000
567.9170, 7831.000
569.0910, 7887.000
570.2640, 7802.000
571.4380, 7892.000
572.6110, 7830.000
573.7840, 7807.000
574.9570, 7650.000
576.1290, 7719.000
577.3020, 7520.000
578.4740, 7596.000
579.6460, 7623.000
580.8180, 7520.000
581.9900, 7490.000
583.1620, 7336.000
584.3330, 7383.000
585.5040, 7343.558
586.6760, 7304.000
587.8470, 7346.000
589.0180, 7381.000
590.1880, 7355.000
591.3590, 7541.000
592.5290, 7556.000
593.7000, 7642.000
594.8700, 7509.000
596.0400, 7525.000
597.2090, 7617.000
598.3790, 7695.000
599.5490, 7726.000
600.7180, 7885.000
601.8870, 7841.000
603.0560, 7926.000
604.2250, 8075.000
605.3940, 8000.000
606.5620, 7982.000
607.7300, 8033.000
608.8990, 7981.000
610.0670, 7834.000
611.2350, 7871.000
612.4020, 7671.000
613.5700, 7729.000
614.7370, 7657.000
615.9050, 7675.000
617.0720, 7687.000
618.2390, 7790.000
619.4060, 7683.000
620.5720, 7645.000
621.7390, 7547.000
622.9050, 7486.000
624.0710, 7490.000
625.2370, 7602.000
626.4030, 7599.000
627.5690, 7612.000
628.7340, 7506.000
629.9000, 7505.000
631.0650, 7516.000
632.2300, 7414.000
633.3950, 7464.000
634.5600, 7435.000
635.7240, 7431.000
636.8890, 7425.000
638.0530, 7626.000
639.2170, 7533.000
640.3810, 7622.000
641.5450, 7656.000
642.7080, 7658.000
643.8720, 7690.000
645.0350, 7696.000
646.1980, 7687.000
647.3610, 7739.000
648.5240, 7641.000
649.6870, 7501.000
650.8490, 7529.000
652.0120, 7595.000
653.1740, 7558.000
654.3360, 7686.000
655.4980, 7736.000
656.6600, 7859.000
657.8210, 8097.000
658.9830, 8122.000
660.1440, 8416.000
661.3050, 8410.000
662.4660, 8491.000
663.6270, 8414.000
664.7870, 8124.000
665.9480, 8011.000
667.1080, 7949.000
668.2680, 7885.000
669.4280, 7829.000
670.5880, 7909.000
671.7480, 7892.000
672.9070, 8028.000
674.0670, 7928.000
675.2260, 8027.000
676.3850, 8013.000
677.5440, 8116.000
678.7030, 8042.000
679.8610, 8155.000
681.0200, 8189.000
682.1780, 8167.000
683.3360, 8199.000
684.4940, 8324.000
685.6520, 8270.000
686.8090, 8356.000
687.9670, 8292.000
689.1240, 8477.000
690.2810, 8452.000
691.4380, 8456.000
692.5950, 8411.000
693.7520, 8432.000
694.9080, 8219.000
696.0650, 8413.000
697.2210, 8492.000
698.3770, 8345.000
699.5330, 8494.000
700.6880, 8574.000
701.8440, 8701.000
702.9990, 8735.000
704.1550, 8805.000
705.3100, 8941.000
706.4650, 9056.501
707.6190, 9230.000
708.7740, 9386.000
709.9290, 9603.000
711.0830, 9803.000
712.2370, 10129.00
713.3910, 10294.00
714.5450, 10209.00
715.6980, 10287.00
716.8520, 10098.00
718.0050, 9921.000
719.1580, 9648.000
720.3110, 9316.000
721.4640, 8887.000
722.6170, 8647.000
723.7700, 8441.000
724.9220, 8112.000
726.0740, 8090.000
727.2260, 7974.000
728.3780, 7821.000
729.5300, 7872.000
730.6810, 7875.000
731.8330, 7724.000
732.9840, 7742.000
734.1350, 7789.000
735.2860, 7718.000
736.4370, 7934.000
737.5880, 7853.000
738.7380, 7922.000
739.8880, 7986.000
741.0390, 8063.000
742.1890, 8105.000
743.3380, 8075.000
744.4880, 8075.000
745.6380, 8035.000
746.7870, 7978.000
747.9360, 8026.000
749.0850, 8026.000
750.2340, 7942.000
751.3830, 8040.000
752.5310, 7958.000
753.6800, 7864.000
754.8280, 7873.000
755.9760, 7921.000
757.1240, 7921.000
758.2720, 7818.000
759.4190, 7822.000
760.5670, 7807.000
761.7140, 7832.000
762.8610, 7835.104
764.0080, 7758.000
765.1550, 7841.000
766.3020, 7829.000
767.4480, 7783.000
768.5950, 7855.000
769.7410, 7772.000
770.8870, 7881.000
772.0330, 7894.000
773.1780, 7813.000
774.3240, 7850.000
775.4690, 7859.000
776.6140, 7885.000
777.7590, 7917.157
778.9040, 7953.794
780.0490, 7986.000
781.1940, 8023.000
782.3380, 8068.000
783.4820, 8054.000
784.6260, 8197.000
785.7700, 8092.000
786.9140, 8382.000
788.0580, 8362.000
789.2010, 8433.000
790.3450, 8450.000
791.4880, 8478.000
792.6310, 8539.000
793.7730, 8473.000
794.9160, 8503.468
796.0590, 8403.000
797.2010, 8510.000
798.3430, 8507.000
799.4850, 8565.000
800.6270, 8667.000
801.7690, 8673.000
802.9100, 8774.000
804.0520, 8858.000
805.1930, 8816.000
806.3340, 8664.000
807.4750, 8721.000
808.6160, 8657.000
809.7560, 8597.000
810.8970, 8503.000
812.0370, 8440.000
813.1770, 8341.434
814.3170, 8187.000
815.4570, 8152.000
816.5960, 8081.000
817.7360, 8007.000
818.8750, 8194.000
820.0140, 8080.000
821.1530, 8200.000
822.2920, 8220.000
823.4310, 8314.000
824.5690, 8293.000
825.7070, 8326.000
826.8460, 8451.000
827.9840, 8456.000
829.1220, 8529.101
830.2590, 8639.000
831.3970, 8641.000
832.5340, 8641.000
833.6710, 8706.000
834.8080, 8664.000
835.9450, 8495.000
837.0820, 8450.000
838.2190, 8396.000
839.3550, 8205.000
840.4910, 8265.000
841.6270, 8195.000
842.7630, 8237.000
843.8990, 8153.000
845.0350, 8099.000
846.1700, 8175.000
847.3060, 8163.686
848.4410, 8128.120
849.5760, 8155.936
850.7100, 8066.000
851.8450, 8140.000
852.9800, 8151.000
854.1140, 8133.000
855.2480, 8338.000
856.3820, 8216.000
857.5160, 8321.000
858.6500, 8429.000
859.7830, 8342.000
860.9170, 8372.000
862.0500, 8356.000
863.1830, 8479.000
864.3160, 8422.000
865.4480, 8564.000
866.5810, 8580.000
867.7130, 8611.000
868.8460, 8537.000
869.9780, 8672.000
871.1100, 8643.000
872.2410, 8570.000
873.3730, 8616.000
874.5050, 8670.000
875.6360, 8730.000
876.7670, 8697.000
877.8980, 8825.000
879.0290, 8819.000
880.1590, 8677.000
881.2900, 8884.000
882.4200, 8823.000
883.5500, 8900.000
884.6800, 9059.000
885.8100, 9096.000
886.9400, 9097.000
888.0690, 9197.000
889.1990, 9259.000
890.3280, 9421.000
891.4570, 9506.000
892.5860, 9651.000
893.7140, 9841.000
894.8430, 10062.00
895.9710, 10261.00
897.1000, 10607.00
898.2280, 10846.00
899.3560, 11041.00
900.4830, 11504.00
901.6110, 11861.00
902.7380, 12640.00
903.8660, 12976.00
904.9930, 14025.00
906.1200, 15099.00
907.2460, 16713.00
908.3730, 18813.00
909.5000, 21583.00
910.6260, 25271.00
911.7520, 29958.00
912.8780, 35457.00
914.0040, 42084.00
915.1290, 49023.00
916.2550, 55430.00
917.3800, 59669.00
918.5050, 59695.00
919.6300, 56353.00
920.7550, 49938.00
921.8800, 45537.00
923.0040, 38477.00
924.1290, 33952.00
925.2530, 30962.00
926.3770, 28695.00
927.5010, 26746.00
928.6250, 24723.00
929.7480, 22410.00
930.8720, 20563.00
931.9950, 18781.00
933.1180, 17206.00
934.2410, 16063.00
935.3640, 15122.00
936.4860, 14265.00
937.6090, 13859.00
938.7310, 13314.00
939.8530, 13144.00
940.9750, 13009.00
942.0970, 12946.00
943.2180, 13141.00
944.3400, 13443.00
945.4610, 13834.00
946.5820, 14090.00
947.7030, 14501.00
948.8240, 14457.00
949.9450, 14280.00
951.0650, 14187.00
952.1860, 13405.00
953.3060, 12934.00
954.4260, 12224.00
955.5460, 11565.00
956.6650, 11153.00
957.7850, 10721.00
958.9040, 10430.00
960.0230, 10117.00
961.1420, 10015.00
962.2610, 9834.000
963.3800, 9680.000
964.4990, 9692.000
965.6170, 9531.000
966.7350, 9415.000
967.8530, 9464.000
968.9710, 9365.000
970.0890, 9263.000
971.2070, 9390.000
972.3240, 9307.000
973.4410, 9268.000
974.5580, 9251.000
975.6750, 9215.690
976.7920, 9233.000
977.9090, 9218.000
979.0250, 9190.191
980.1410, 9246.475
981.2580, 9150.000
982.3740, 9249.000
983.4890, 9188.000
984.6050, 9139.000
985.7200, 9085.000
986.8360, 9234.000
987.9510, 9191.000
989.0660, 9228.000
990.1810, 9092.000
991.2950, 9153.000
992.4100, 9177.000
993.5240, 9204.000
994.6390, 9236.144
995.7530, 9261.350
996.8660, 9284.000
997.9800, 9337.000
999.0940, 9372.000
1000.207, 9453.000
1001.320, 9559.000
1002.433, 9640.000
1003.546, 9670.000
1004.659, 9808.000
1005.772, 9851.000
1006.884, 10005.00
1007.996, 10234.00
1009.108, 10462.00
1010.220, 10901.00
1011.332, 11218.00
1012.444, 11683.00
1013.555, 12304.00
1014.666, 12798.00
1015.777, 13404.00
1016.888, 13831.00
1017.999, 14022.00
1019.110, 14131.00
1020.220, 13843.00
1021.331, 13245.00
1022.441, 12700.00
1023.551, 12429.00
1024.661, 11812.00
1025.770, 11433.00
1026.880, 11163.00
1027.989, 10983.00
1029.098, 10709.00
1030.207, 10438.00
1031.316, 10318.00
1032.425, 10239.00
1033.533, 10201.00
1034.642, 10146.00
1035.750, 10053.00
1036.858, 10085.00
1037.966, 9974.000
1039.073, 9924.000
1040.181, 9914.000
1041.288, 9930.000
1042.396, 9901.000
1043.503, 9952.000
1044.610, 9843.000
1045.716, 10081.00
1046.823, 10123.00
1047.929, 10031.00
1049.036, 10243.00
1050.142, 10393.00
1051.248, 10264.00
1052.353, 10595.00
1053.459, 10816.00
1054.564, 11166.00
1055.670, 11662.00
1056.775, 12172.00
1057.880, 13194.00
1058.985, 14051.00
1060.089, 15083.00
1061.194, 16128.00
1062.298, 16963.00
1063.402, 17225.00
1064.506, 16887.00
1065.610, 15809.00
1066.713, 14921.00
1067.817, 13785.00
1068.920, 13003.00
1070.023, 12171.00
1071.126, 11664.00
1072.229, 11263.00
1073.332, 10938.00
1074.435, 10836.00
1075.537, 10774.00
1076.639, 10381.00
1077.741, 10463.00
1078.843, 10294.00
1079.945, 10252.00
1081.046, 10294.00
1082.148, 10333.00
1083.249, 10326.00
1084.350, 10256.00
1085.451, 10246.00
1086.551, 10170.00
1087.652, 10255.00
1088.752, 10085.00
1089.853, 10264.00
1090.953, 10210.00
1092.053, 10131.00
1093.152, 10139.00
1094.252, 10111.00
1095.351, 10237.00
1096.451, 10171.00
1097.550, 10371.00
1098.649, 10425.00
1099.748, 10417.00
1100.846, 10487.00
1101.945, 10603.74
1103.043, 10786.00
1104.141, 10891.00
1105.239, 11102.00
1106.337, 11264.00
1107.434, 11299.00
1108.532, 11437.00
1109.629, 11418.00
1110.726, 11287.00
1111.823, 11005.00
1112.920, 10756.00
1114.017, 10708.00
1115.113, 10555.00
1116.210, 10474.00
1117.306, 10473.00
1118.402, 10512.00
1119.498, 10568.00
1120.593, 10621.00
1121.689, 10606.00
1122.784, 10628.00
1123.879, 10583.31
1124.974, 10519.29
1126.069, 10452.00
1127.164, 10299.00
1128.259, 10190.00
1129.353, 9980.000
1130.447, 9889.000
1131.541, 9636.000
1132.635, 9692.000
1133.729, 9577.000
1134.822, 9676.000
1135.916, 9393.000
1137.009, 9581.000
1138.102, 9570.801
1139.195, 9519.665
1140.288, 9701.000
1141.380, 9564.000
1142.473, 9585.000
1143.565, 9694.000
1144.657, 9608.000
1145.749, 9624.000
1146.841, 9642.000
1147.932, 9572.000
1149.024, 9421.000
1150.115, 9632.000
1151.206, 9693.000
1152.297, 9557.000
1153.388, 9656.000
1154.479, 9598.000
1155.569, 9643.000
1156.659, 9691.000
1157.750, 9557.000
1158.839, 9551.000
1159.929, 9570.000
1161.019, 9562.000
1162.108, 9585.000
1163.198, 9590.000
1164.287, 9538.000
1165.376, 9479.000
1166.465, 9500.706
1167.553, 9491.000
1168.642, 9526.000
1169.730, 9484.000
1170.818, 9506.000
1171.906, 9519.000
1172.994, 9588.000
1174.082, 9519.000
1175.170, 9550.000
1176.257, 9635.000
1177.344, 9325.140
1178.431, 9569.418
1179.518, 9710.617
1180.605, 9754.277
1181.691, 9408.247
1182.778, 9565.417
1183.864, 9520.924
1184.950, 9468.160
1186.036, 9596.000
1187.122, 9536.000
1188.207, 9637.000
1189.292, 9683.000
1190.378, 9602.000
1191.463, 9529.000
1192.548, 9645.000
1193.632, 9535.000
1194.717, 9564.000
1195.801, 9545.000
1196.886, 9620.000
1197.970, 9621.000
1199.054, 9625.000
1200.137, 9590.000
1201.221, 9604.056
1202.305, 9589.679
1203.388, 9606.000
1204.471, 9608.000
1205.554, 9605.000
1206.637, 9682.000
1207.719, 9513.000
1208.802, 9653.000
1209.884, 9546.000
1210.966, 9689.000
1212.048, 9737.000
1213.130, 9819.000
1214.212, 9852.080
1215.293, 9870.000
1216.374, 9845.000
1217.456, 9852.000
1218.536, 9781.000
1219.617, 10098.00
1220.698, 9872.000
1221.778, 9842.000
1222.859, 10024.00
1223.939, 9880.000
1225.019, 10031.00
1226.099, 10093.00
1227.178, 10137.00
1228.258, 10173.00
1229.337, 10252.00
1230.417, 10265.00
1231.496, 10450.00
1232.574, 10336.00
1233.653, 10422.00
1234.732, 10357.00
1235.810, 10328.00
1236.888, 10403.00
1237.966, 10405.00
1239.044, 10411.00
1240.122, 10339.00
1241.199, 10494.00
1242.277, 10370.00
1243.354, 10472.00
1244.431, 10578.00
1245.508, 10669.00
1246.585, 10646.00
1247.661, 10567.00
1248.738, 10581.00
1249.814, 10675.00
1250.890, 10784.00
1251.966, 10697.00
1253.042, 10700.00
1254.117, 10513.00
1255.193, 10539.00
1256.268, 10592.00
1257.343, 10645.00
1258.418, 10600.00
1259.493, 10453.00
1260.567, 10600.00
1261.642, 10638.00
1262.716, 10472.00
1263.790, 10598.00
1264.864, 10662.00
1265.938, 10561.00
1267.011, 10488.00
1268.085, 10474.00
1269.158, 10418.00
1270.231, 10384.00
1271.304, 10357.00
1272.377, 10441.00
1273.450, 10321.00
1274.522, 10277.00
1275.594, 10358.00
1276.666, 10303.00
1277.738, 10222.00
1278.810, 10338.00
1279.882, 10235.00
1280.953, 10157.00
1282.025, 10289.00
1283.096, 10280.00
1284.167, 10281.00
1285.238, 10241.00
1286.308, 10271.04
1287.379, 10267.00
1288.449, 10319.00
1289.519, 10353.00
1290.589, 10387.00
1291.659, 10386.38
1292.729, 10393.00
1293.798, 10380.00
1294.868, 10342.00
1295.937, 10370.00
1297.006, 10449.00
1298.075, 10298.00
1299.143, 10381.00
1300.212, 10412.00
1301.280, 10381.00
1302.348, 10371.00
1303.416, 10424.00
1304.484, 10410.00
1305.552, 10369.00
1306.620, 10402.00
1307.687, 10447.00
1308.754, 10435.00
1309.821, 10480.00
1310.888, 10459.00
1311.955, 10541.00
1313.021, 10569.00
1314.088, 10508.00
1315.154, 10637.00
1316.220, 10532.00
1317.286, 10455.00
1318.352, 10441.00
1319.417, 10378.00
1320.483, 10390.75
1321.548, 10664.00
1322.613, 10428.00
1323.678, 10578.00
1324.743, 10606.00
1325.807, 10373.00
1326.872, 10517.00
1327.936, 10416.00
1329.000, 10265.00
1330.064, 10313.00
1331.128, 10297.00
1332.191, 10312.00
1333.255, 10295.00
1334.318, 10356.00
1335.381, 10381.00
1336.444, 10465.00
1337.507, 10365.00
1338.569, 10449.00
1339.632, 10350.00
1340.694, 10368.00
1341.756, 10333.00
1342.818, 10310.00
1343.880, 10396.00
1344.941, 10368.00
1346.003, 10324.00
1347.064, 10426.00
1348.125, 10318.00
1349.186, 10372.00
1350.247, 10482.00
1351.308, 10464.00
1352.368, 10354.00
1353.428, 10355.00
1354.489, 10422.00
1355.549, 10390.00
1356.608, 10444.00
1357.668, 10410.00
1358.727, 10520.00
1359.787, 10416.00
1360.846, 10391.00
1361.905, 10344.00
1362.964, 10435.00
1364.022, 10456.00
1365.081, 10502.00
1366.139, 10484.00
1367.197, 10490.43
1368.255, 10516.00
1369.313, 10470.00
1370.371, 10460.00
1371.428, 10466.00
1372.486, 10453.00
1373.543, 10566.00
1374.600, 10439.00
1375.657, 10597.00
1376.713, 10572.00
1377.770, 10606.00
1378.826, 10539.00
1379.882, 10612.00
1380.938, 10651.00
1381.994, 10547.00
1383.050, 10549.00
1384.106, 10486.00
1385.161, 10530.00
1386.216, 10458.00
1387.271, 10457.00
1388.326, 10549.00
1389.381, 10567.00
1390.435, 10577.00
1391.490, 10637.57
1392.544, 10618.78
1393.598, 10706.00
1394.652, 10619.00
1395.705, 10625.00
1396.759, 10654.00
1397.812, 10582.00
1398.866, 10545.00
1399.919, 10697.00
1400.972, 10750.00
1402.024, 10557.00
1403.077, 10669.00
1404.129, 10721.00
1405.181, 10651.00
1406.233, 10766.00
1407.285, 10851.00
1408.337, 10754.00
1409.389, 10665.00
1410.440, 10771.00
1411.491, 10735.00
1412.542, 10780.00
1413.593, 10791.00
1414.644, 10753.00
1415.695, 10754.00
1416.745, 10693.00
1417.795, 10653.00
1418.845, 10765.00
1419.895, 10801.00
1420.945, 10737.00
1421.995, 10665.00
1423.044, 10680.15
1424.093, 10699.00
1425.142, 10674.00
1426.191, 10848.00
1427.240, 10895.00
1428.289, 10894.00
1429.337, 10800.00
1430.385, 10809.00
1431.433, 10876.00
1432.481, 10835.00
1433.529, 10873.00
1434.577, 10866.00
1435.624, 10873.00
1436.672, 10995.00
1437.719, 10947.00
1438.766, 10972.00
1439.812, 11046.00
1440.859, 10919.00
1441.905, 10990.00
1442.952, 11091.00
1443.998, 11108.00
1445.044, 10952.00
1446.090, 11213.00
1447.135, 11128.00
1448.181, 11282.00
1449.226, 11087.00
1450.271, 11199.00
1451.316, 11233.00
1452.361, 11169.00
1453.405, 11301.00
1454.450, 11276.00
1455.494, 11105.00
1456.538, 11167.00
1457.582, 11286.00
1458.626, 11127.00
1459.670, 11080.00
1460.713, 11098.00
1461.757, 11084.00
1462.800, 11066.00
1463.843, 10989.00
1464.886, 11095.00
1465.928, 10879.00
1466.971, 11168.00
1468.013, 11080.00
1469.055, 10994.00
1470.097, 11120.00
1471.139, 10940.00
1472.181, 11005.00
1473.222, 11018.00
1474.263, 11019.00
1475.305, 11065.25
1476.346, 10985.00
1477.386, 11114.00
1478.427, 11049.00
1479.468, 11047.00
1480.508, 10817.00
1481.548, 10983.00
1482.588, 10987.00
1483.628, 11048.00
1484.668, 10827.00
1485.707, 11019.00
1486.747, 10955.00
1487.786, 10997.00
1488.825, 11017.00
1489.864, 10905.00
1490.902, 11102.00
1491.941, 10927.00
1492.979, 11167.00
1494.017, 10889.00
1495.055, 10987.00
1496.093, 10868.00
1497.131, 11025.00
1498.168, 11032.00
1499.206, 10951.00
1500.243, 10926.00
1501.280, 11067.00
1502.317, 10824.00
1503.354, 10901.00
1504.390, 11081.00
1505.426, 11099.00
1506.463, 11086.00
1507.499, 11066.00
1508.535, 11091.00
1509.570, 11074.03
1510.606, 11057.10
1511.641, 11071.00
1512.676, 11049.00
1513.711, 11049.00
1514.746, 11127.00
1515.781, 11013.00
1516.816, 11134.00
1517.850, 11076.00
1518.884, 11148.00
1519.918, 10988.00
1520.952, 11175.00
1521.986, 10987.00
1523.019, 11165.00
1524.053, 11052.00
1525.086, 11067.00
1526.119, 11061.00
1527.152, 11138.00
1528.185, 11161.00
1529.217, 11232.00
1530.250, 11109.00
1531.282, 11007.00
1532.314, 11156.00
1533.346, 11150.00
1534.377, 11283.00
1535.409, 11143.00
1536.440, 11172.00
1537.472, 11125.00
1538.503, 11131.00
1539.534, 11238.00
1540.564, 11163.00
1541.595, 11089.00
1542.625, 11232.00
1543.656, 11311.00
1544.686, 11232.00
1545.716, 11186.00
1546.745, 11224.00
1547.775, 11217.00
1548.804, 11237.00
1549.834, 11242.00
1550.863, 11297.00
1551.892, 11341.00
1552.920, 11342.00
1553.949, 11395.00
1554.977, 11422.00
1556.006, 11390.00
1557.034, 11387.15
1558.062, 11326.00
1559.089, 11268.00
1560.117, 11287.00
1561.144, 11136.00
1562.172, 11089.00
1563.199, 11268.00
1564.226, 11313.00
1565.252, 11254.00
1566.279, 11372.00
1567.305, 11259.00
1568.332, 11281.00
1569.358, 11277.00
1570.384, 11348.00
##END=



