##NAMES=Andalusite
##RRUFFID=R050626
##IDEAL CHEMISTRY=Al_2_SiO_5_
##LOCALITY=Minas Gerais, Brazil
##OWNER=RRUFF
##SOURCE=Gemological Center
##DESCRIPTION=Grayish brown fragment
##STATUS=The identification of this mineral has been confirmed by X-ray diffraction and chemical analysis
##URL=rruff.info/R050626
##MEASURED CHEMISTRY=(Al_1.99_Fe^3+^_0.01_)_Î£=1_Si_1.00_O_5_
##PIN_ID=L01690
##ORIENTATION=Laser parallel to b* (0 1 0). Fiducial mark perpendicular to laser is parallel to c [0 0 1]
123.0580, 3630.000
124.2880, 3764.000
125.5190, 3869.000
126.7490, 3771.000
127.9790, 3738.000
129.2090, 3835.000
130.4390, 4007.000
131.6680, 3980.000
132.8980, 4042.000
134.1270, 3937.000
135.3560, 4126.000
136.5850, 4122.000
137.8140, 4192.000
139.0430, 4276.000
140.2710, 4414.000
141.5000, 4496.000
142.7280, 4324.000
143.9560, 4220.000
145.1840, 4176.000
146.4120, 4108.510
147.6390, 4068.651
148.8670, 4093.000
150.0940, 4050.000
151.3210, 4084.000
152.5490, 4160.000
153.7750, 4168.000
155.0020, 4093.000
156.2290, 4181.000
157.4550, 4007.000
158.6810, 4033.000
159.9080, 3988.000
161.1340, 4037.000
162.3590, 4112.000
163.5850, 4063.000
164.8110, 4259.000
166.0360, 4238.000
167.2610, 4400.000
168.4860, 4441.000
169.7110, 4420.000
170.9360, 4443.000
172.1610, 4453.000
173.3850, 4440.000
174.6100, 4448.000
175.8340, 4431.000
177.0580, 4439.000
178.2820, 4520.000
179.5050, 4697.000
180.7290, 4724.000
181.9520, 4793.000
183.1760, 4832.000
184.3990, 4927.040
185.6220, 4991.000
186.8450, 5133.000
188.0670, 5320.000
189.2900, 5437.673
190.5120, 5613.000
191.7340, 5666.000
192.9560, 5781.000
194.1780, 5841.000
195.4000, 6011.000
196.6220, 6062.000
197.8430, 6203.000
199.0640, 6212.000
200.2860, 6371.000
201.5070, 6455.000
202.7270, 6699.000
203.9480, 6748.000
205.1690, 6631.000
206.3890, 6166.000
207.6090, 5835.000
208.8290, 5673.000
210.0490, 5471.000
211.2690, 5415.000
212.4890, 5259.000
213.7080, 5216.000
214.9280, 5139.000
216.1470, 5277.000
217.3660, 5118.000
218.5850, 5204.000
219.8030, 5255.000
221.0220, 5229.000
222.2400, 5260.000
223.4590, 5249.000
224.6770, 5331.000
225.8950, 5285.000
227.1120, 5376.000
228.3300, 5454.000
229.5480, 5404.000
230.7650, 5424.000
231.9820, 5492.000
233.1990, 5557.000
234.4160, 5603.000
235.6330, 5655.000
236.8490, 5744.000
238.0660, 5777.000
239.2820, 5916.000
240.4980, 5901.000
241.7140, 5927.000
242.9300, 6064.000
244.1460, 5961.000
245.3610, 5931.000
246.5770, 5854.000
247.7920, 5853.000
249.0070, 5721.000
250.2220, 5601.000
251.4370, 5539.000
252.6510, 5641.000
253.8660, 5629.000
255.0800, 5566.000
256.2940, 5739.000
257.5080, 5736.545
258.7220, 5567.000
259.9360, 5832.000
261.1490, 6007.000
262.3630, 5944.000
263.5760, 5933.298
264.7890, 5652.000
266.0020, 5678.000
267.2150, 5836.000
268.4270, 5840.000
269.6400, 5933.000
270.8520, 6007.000
272.0640, 6204.000
273.2760, 6337.000
274.4880, 6575.000
275.7000, 6852.000
276.9120, 7303.000
278.1230, 7713.000
279.3340, 8328.000
280.5450, 9268.000
281.7560, 10494.00
282.9670, 12092.00
284.1780, 14009.00
285.3880, 16057.00
286.5980, 17997.00
287.8090, 20048.00
289.0190, 22535.00
290.2290, 24495.00
291.4380, 25535.00
292.6480, 25100.00
293.8570, 23764.00
295.0670, 21466.00
296.2760, 18508.00
297.4850, 15564.00
298.6930, 13137.00
299.9020, 10902.00
301.1110, 9495.000
302.3190, 8254.000
303.5270, 7738.000
304.7350, 7322.000
305.9430, 7088.000
307.1510, 7104.000
308.3580, 7418.000
309.5660, 8095.000
310.7730, 9264.000
311.9800, 10983.00
313.1870, 13074.00
314.3940, 15233.00
315.6010, 17090.00
316.8070, 19711.00
318.0130, 22377.00
319.2200, 24723.00
320.4260, 25975.00
321.6310, 26336.00
322.8370, 25341.00
324.0430, 23276.00
325.2480, 20619.00
326.4540, 17261.00
327.6590, 14438.00
328.8640, 12053.00
330.0680, 10329.00
331.2730, 9127.000
332.4780, 8333.000
333.6820, 8033.000
334.8860, 7634.000
336.0900, 7558.000
337.2940, 7443.000
338.4980, 7417.000
339.7010, 7403.000
340.9050, 7537.000
342.1080, 7614.000
343.3110, 7747.000
344.5140, 8087.000
345.7170, 8704.000
346.9200, 9411.000
348.1220, 10526.87
349.3240, 11717.00
350.5270, 13314.00
351.7290, 15160.00
352.9310, 16980.00
354.1320, 18921.00
355.3340, 20793.00
356.5350, 22636.00
357.7370, 23480.00
358.9380, 23991.00
360.1390, 23665.00
361.3400, 22465.00
362.5400, 20747.00
363.7410, 18860.00
364.9410, 17092.00
366.1410, 15364.00
367.3410, 14024.00
368.5410, 12901.00
369.7410, 12046.00
370.9400, 11488.00
372.1400, 10883.00
373.3390, 10469.00
374.5380, 10067.43
375.7370, 9876.000
376.9360, 9494.000
378.1350, 9336.000
379.3330, 9209.000
380.5310, 8941.000
381.7300, 9080.000
382.9280, 8884.000
384.1260, 8928.000
385.3230, 9101.000
386.5210, 8970.000
387.7180, 8944.000
388.9160, 9137.000
390.1130, 9176.000
391.3100, 9220.000
392.5060, 9234.000
393.7030, 9081.000
394.9000, 9138.000
396.0960, 8916.000
397.2920, 8840.000
398.4880, 8646.000
399.6840, 8655.000
400.8800, 8626.000
402.0750, 8550.000
403.2710, 8698.000
404.4660, 8832.000
405.6610, 8947.000
406.8560, 9001.000
408.0510, 9315.000
409.2450, 9470.000
410.4400, 9902.000
411.6340, 10255.00
412.8280, 10592.00
414.0220, 11040.00
415.2160, 11424.00
416.4100, 11704.00
417.6030, 11800.39
418.7970, 11749.67
419.9900, 11638.00
421.1830, 11243.00
422.3760, 10780.00
423.5690, 10255.00
424.7610, 9694.000
425.9540, 9067.000
427.1460, 8799.000
428.3380, 8489.000
429.5300, 8293.000
430.7220, 8138.519
431.9140, 8038.000
433.1050, 7985.000
434.2970, 7996.000
435.4880, 8057.000
436.6790, 8065.000
437.8700, 8043.000
439.0610, 8098.000
440.2510, 8379.000
441.4420, 8491.000
442.6320, 8761.000
443.8220, 9226.000
445.0120, 9663.000
446.2020, 9904.000
447.3910, 10111.00
448.5810, 10425.00
449.7700, 10920.00
450.9600, 11001.00
452.1490, 10824.00
453.3370, 10434.00
454.5260, 9778.000
455.7150, 9335.000
456.9030, 8724.000
458.0910, 8141.000
459.2800, 7760.000
460.4670, 7584.000
461.6550, 7407.000
462.8430, 7262.000
464.0300, 7192.000
465.2180, 7229.000
466.4050, 7239.000
467.5920, 7152.000
468.7790, 7088.000
469.9650, 7130.000
471.1520, 7221.000
472.3380, 7207.000
473.5250, 7300.000
474.7110, 7294.000
475.8970, 7442.000
477.0820, 7570.000
478.2680, 7519.000
479.4540, 7616.000
480.6390, 7565.000
481.8240, 7641.000
483.0090, 7637.000
484.1940, 7713.000
485.3780, 7717.000
486.5630, 7693.000
487.7470, 7752.000
488.9320, 7851.000
490.1160, 7857.000
491.3000, 7757.000
492.4830, 7790.000
493.6670, 7895.000
494.8500, 8060.000
496.0340, 8043.000
497.2170, 8240.000
498.4000, 8326.000
499.5820, 8359.000
500.7650, 8520.000
501.9480, 8730.000
503.1300, 8945.000
504.3120, 9051.000
505.4940, 9164.000
506.6760, 9414.000
507.8580, 9545.000
509.0390, 9608.000
510.2210, 9707.000
511.4020, 9829.000
512.5830, 9845.000
513.7640, 9786.000
514.9450, 9918.000
516.1250, 9876.000
517.3060, 9863.000
518.4860, 9862.000
519.6660, 9799.000
520.8460, 9823.000
522.0260, 9654.000
523.2060, 9865.000
524.3850, 9817.000
525.5650, 9970.000
526.7440, 9940.000
527.9230, 10047.00
529.1020, 10310.00
530.2810, 10375.00
531.4590, 10696.00
532.6380, 10845.00
533.8160, 11106.00
534.9940, 11410.00
536.1720, 11724.00
537.3500, 12212.00
538.5270, 12464.00
539.7050, 12973.00
540.8820, 13311.00
542.0590, 13858.00
543.2360, 14359.00
544.4130, 15042.00
545.5900, 15652.00
546.7660, 16145.00
547.9430, 16938.00
549.1190, 17377.00
550.2950, 17609.00
551.4710, 17939.00
552.6470, 17972.00
553.8220, 17833.00
554.9980, 17074.00
556.1730, 16551.00
557.3480, 15985.00
558.5230, 15268.00
559.6980, 14880.00
560.8730, 14321.00
562.0470, 14148.00
563.2220, 13835.00
564.3960, 13605.00
565.5700, 13523.00
566.7440, 13602.00
567.9170, 13595.00
569.0910, 13557.00
570.2640, 13646.00
571.4380, 13527.00
572.6110, 13491.00
573.7840, 13509.00
574.9570, 13271.00
576.1290, 13121.00
577.3020, 12793.00
578.4740, 12544.00
579.6460, 12545.00
580.8180, 12148.00
581.9900, 11942.00
583.1620, 11854.00
584.3330, 11508.00
585.5040, 11361.00
586.6760, 11110.00
587.8470, 11124.00
589.0180, 10785.00
590.1880, 10725.00
591.3590, 10753.00
592.5290, 10641.00
593.7000, 10531.00
594.8700, 10645.00
596.0400, 10440.00
597.2090, 10457.00
598.3790, 10694.00
599.5490, 10651.00
600.7180, 10698.00
601.8870, 10790.00
603.0560, 10896.00
604.2250, 11222.00
605.3940, 11389.00
606.5620, 11678.00
607.7300, 11822.00
608.8990, 12178.00
610.0670, 12223.00
611.2350, 12510.00
612.4020, 12772.00
613.5700, 12948.00
614.7370, 13142.00
615.9050, 13372.00
617.0720, 13463.00
618.2390, 13620.00
619.4060, 13829.00
620.5720, 13877.00
621.7390, 14042.00
622.9050, 14152.00
624.0710, 14128.00
625.2370, 14234.00
626.4030, 14373.00
627.5690, 14372.00
628.7340, 14622.00
629.9000, 14714.00
631.0650, 14737.00
632.2300, 14688.00
633.3950, 14457.00
634.5600, 14303.00
635.7240, 14282.00
636.8890, 14253.00
638.0530, 14098.00
639.2170, 14037.00
640.3810, 13666.00
641.5450, 13536.00
642.7080, 13436.00
643.8720, 13598.00
645.0350, 13448.00
646.1980, 13328.00
647.3610, 13182.00
648.5240, 13135.00
649.6870, 12707.00
650.8490, 12589.00
652.0120, 12279.00
653.1740, 11869.00
654.3360, 11384.00
655.4980, 11151.00
656.6600, 10994.00
657.8210, 10755.00
658.9830, 10494.00
660.1440, 10487.00
661.3050, 10353.00
662.4660, 10180.00
663.6270, 9982.000
664.7870, 9524.000
665.9480, 9244.000
667.1080, 8814.000
668.2680, 8448.000
669.4280, 8309.000
670.5880, 8074.000
671.7480, 7903.000
672.9070, 7688.000
674.0670, 7636.000
675.2260, 7615.000
676.3850, 7554.000
677.5440, 7497.000
678.7030, 7392.000
679.8610, 7430.000
681.0200, 7411.000
682.1780, 7382.000
683.3360, 7454.000
684.4940, 7382.000
685.6520, 7361.000
686.8090, 7262.000
687.9670, 7280.395
689.1240, 7434.000
690.2810, 7359.000
691.4380, 7379.000
692.5950, 7538.000
693.7520, 7564.000
694.9080, 7658.000
696.0650, 7673.000
697.2210, 7818.000
698.3770, 7703.000
699.5330, 7880.000
700.6880, 7877.000
701.8440, 7969.000
702.9990, 8154.000
704.1550, 8179.000
705.3100, 8345.000
706.4650, 8502.000
707.6190, 8595.000
708.7740, 8874.812
709.9290, 9256.000
711.0830, 9482.000
712.2370, 9832.000
713.3910, 10292.00
714.5450, 10331.00
715.6980, 10526.00
716.8520, 10521.00
718.0050, 10598.00
719.1580, 10307.00
720.3110, 9813.000
721.4640, 9368.000
722.6170, 9171.000
723.7700, 8692.000
724.9220, 8271.000
726.0740, 8297.000
727.2260, 8008.000
728.3780, 7840.000
729.5300, 7767.000
730.6810, 7797.000
731.8330, 7712.000
732.9840, 7798.000
734.1350, 7776.000
735.2860, 7814.000
736.4370, 7751.000
737.5880, 7654.000
738.7380, 7650.000
739.8880, 7591.953
741.0390, 7528.271
742.1890, 7521.000
743.3380, 7453.000
744.4880, 7391.000
745.6380, 7450.000
746.7870, 7473.000
747.9360, 7468.000
749.0850, 7424.000
750.2340, 7444.580
751.3830, 7439.244
752.5310, 7457.000
753.6800, 7474.000
754.8280, 7508.000
755.9760, 7557.000
757.1240, 7506.000
758.2720, 7451.000
759.4190, 7421.000
760.5670, 7470.000
761.7140, 7429.000
762.8610, 7437.000
764.0080, 7427.000
765.1550, 7391.627
766.3020, 7372.000
767.4480, 7355.000
768.5950, 7326.000
769.7410, 7363.000
770.8870, 7334.000
772.0330, 7358.000
773.1780, 7385.419
774.3240, 7429.608
775.4690, 7454.000
776.6140, 7565.000
777.7590, 7615.000
778.9040, 7690.000
780.0490, 7717.357
781.1940, 7727.000
782.3380, 7760.000
783.4820, 7783.000
784.6260, 7839.000
785.7700, 7956.000
786.9140, 8003.000
788.0580, 8096.000
789.2010, 8161.000
790.3450, 8246.000
791.4880, 8296.000
792.6310, 8419.000
793.7730, 8529.000
794.9160, 8644.000
796.0590, 8936.000
797.2010, 9074.000
798.3430, 9064.000
799.4850, 9446.000
800.6270, 9720.000
801.7690, 9917.000
802.9100, 10338.00
804.0520, 10522.00
805.1930, 10895.00
806.3340, 11245.00
807.4750, 11777.00
808.6160, 12410.00
809.7560, 12847.00
810.8970, 13217.00
812.0370, 13908.00
813.1770, 14638.00
814.3170, 15297.00
815.4570, 16059.00
816.5960, 16937.00
817.7360, 17020.00
818.8750, 17324.00
820.0140, 17530.00
821.1530, 17425.00
822.2920, 17065.00
823.4310, 16612.00
824.5690, 16204.00
825.7070, 15390.00
826.8460, 14954.00
827.9840, 14189.00
829.1220, 13723.00
830.2590, 13144.00
831.3970, 12751.00
832.5340, 12312.00
833.6710, 11989.00
834.8080, 11524.00
835.9450, 11152.00
837.0820, 10622.00
838.2190, 10345.00
839.3550, 9871.000
840.4910, 9495.000
841.6270, 9281.000
842.7630, 8859.000
843.8990, 8635.000
845.0350, 8445.000
846.1700, 8125.000
847.3060, 8091.000
848.4410, 7983.000
849.5760, 7854.000
850.7100, 7758.000
851.8450, 7694.000
852.9800, 7649.000
854.1140, 7508.000
855.2480, 7642.000
856.3820, 7583.000
857.5160, 7507.000
858.6500, 7429.000
859.7830, 7569.000
860.9170, 7683.000
862.0500, 7610.000
863.1830, 7652.000
864.3160, 7634.000
865.4480, 7788.000
866.5810, 7645.000
867.7130, 7781.000
868.8460, 7774.000
869.9780, 7969.000
871.1100, 7898.000
872.2410, 7946.000
873.3730, 7908.000
874.5050, 7911.000
875.6360, 7980.000
876.7670, 8113.000
877.8980, 8021.000
879.0290, 8224.000
880.1590, 8076.000
881.2900, 8220.000
882.4200, 8272.000
883.5500, 8531.000
884.6800, 8431.000
885.8100, 8643.000
886.9400, 8728.000
888.0690, 8717.000
889.1990, 8889.000
890.3280, 9042.000
891.4570, 9211.000
892.5860, 9457.000
893.7140, 9781.000
894.8430, 10102.00
895.9710, 10231.00
897.1000, 10874.00
898.2280, 11068.00
899.3560, 11685.00
900.4830, 12154.00
901.6110, 12813.00
902.7380, 13391.00
903.8660, 14293.00
904.9930, 15020.00
906.1200, 16166.00
907.2460, 17328.00
908.3730, 19169.00
909.5000, 21286.00
910.6260, 24258.00
911.7520, 28201.00
912.8780, 33399.00
914.0040, 39087.00
915.1290, 45716.00
916.2550, 52335.00
917.3800, 57674.00
918.5050, 61504.00
919.6300, 63125.00
920.7550, 61530.00
921.8800, 57849.00
923.0040, 52867.00
924.1290, 47581.00
925.2530, 43664.00
926.3770, 40012.00
927.5010, 36754.00
928.6250, 34752.00
929.7480, 32082.00
930.8720, 29319.00
931.9950, 26464.00
933.1180, 23520.00
934.2410, 21296.00
935.3640, 19140.00
936.4860, 17338.00
937.6090, 16198.00
938.7310, 15108.00
939.8530, 14300.00
940.9750, 13680.00
942.0970, 13205.00
943.2180, 12962.00
944.3400, 12695.00
945.4610, 12431.00
946.5820, 12326.00
947.7030, 12327.00
948.8240, 12165.00
949.9450, 12152.00
951.0650, 11950.00
952.1860, 11806.00
953.3060, 11599.00
954.4260, 11214.00
955.5460, 11111.00
956.6650, 10650.00
957.7850, 10588.00
958.9040, 10575.00
960.0230, 10344.00
961.1420, 10267.00
962.2610, 10354.00
963.3800, 10162.00
964.4990, 10102.00
965.6170, 10148.00
966.7350, 10236.00
967.8530, 10106.00
968.9710, 10305.00
970.0890, 10284.00
971.2070, 10278.00
972.3240, 10389.00
973.4410, 10552.00
974.5580, 10486.00
975.6750, 10456.00
976.7920, 10585.00
977.9090, 10570.00
979.0250, 10498.00
980.1410, 10509.00
981.2580, 10504.00
982.3740, 10557.00
983.4890, 10541.00
984.6050, 10611.00
985.7200, 10631.00
986.8360, 10733.00
987.9510, 10823.00
989.0660, 10920.00
990.1810, 10942.00
991.2950, 11039.00
992.4100, 11177.00
993.5240, 11492.00
994.6390, 11809.00
995.7530, 12200.00
996.8660, 12823.00
997.9800, 13436.00
999.0940, 14417.00
1000.207, 15221.00
1001.320, 16295.00
1002.433, 17308.00
1003.546, 18390.00
1004.659, 18573.00
1005.772, 18825.00
1006.884, 18546.00
1007.996, 17416.00
1009.108, 16766.00
1010.220, 15884.00
1011.332, 15102.00
1012.444, 14369.00
1013.555, 13798.00
1014.666, 13470.00
1015.777, 13158.00
1016.888, 13061.00
1017.999, 12910.00
1019.110, 12890.00
1020.220, 12952.00
1021.331, 12706.00
1022.441, 12524.00
1023.551, 12214.00
1024.661, 12093.00
1025.770, 11814.00
1026.880, 11676.00
1027.989, 11500.00
1029.098, 11338.72
1030.207, 11339.00
1031.316, 11156.00
1032.425, 11100.00
1033.533, 11186.00
1034.642, 11139.00
1035.750, 11056.00
1036.858, 11000.00
1037.966, 11019.00
1039.073, 10991.00
1040.181, 10837.00
1041.288, 10965.00
1042.396, 10893.00
1043.503, 10741.00
1044.610, 10573.00
1045.716, 10648.00
1046.823, 10470.00
1047.929, 10590.00
1049.036, 10514.00
1050.142, 10416.00
1051.248, 10509.00
1052.353, 10680.00
1053.459, 10702.00
1054.564, 10644.00
1055.670, 10990.00
1056.775, 11243.00
1057.880, 11715.00
1058.985, 12270.00
1060.089, 12847.00
1061.194, 13486.00
1062.298, 14328.00
1063.402, 15111.00
1064.506, 15689.00
1065.610, 15974.00
1066.713, 15707.00
1067.817, 15177.00
1068.920, 14174.00
1070.023, 13557.00
1071.126, 12876.00
1072.229, 12232.00
1073.332, 11852.00
1074.435, 11600.00
1075.537, 11441.00
1076.639, 11316.00
1077.741, 11191.00
1078.843, 10997.00
1079.945, 10852.00
1081.046, 10750.00
1082.148, 10647.46
1083.249, 10676.00
1084.350, 10520.00
1085.451, 10593.00
1086.551, 10546.00
1087.652, 10512.00
1088.752, 10435.00
1089.853, 10400.00
1090.953, 10409.00
1092.053, 10337.00
1093.152, 10322.00
1094.252, 10391.00
1095.351, 10084.00
1096.451, 10213.00
1097.550, 10123.00
1098.649, 10367.00
1099.748, 10328.00
1100.846, 10360.00
1101.945, 10284.00
1103.043, 10290.00
1104.141, 10383.00
1105.239, 10465.00
1106.337, 10602.00
1107.434, 10666.00
1108.532, 10596.00
1109.629, 10652.00
1110.726, 10665.00
1111.823, 10541.00
1112.920, 10487.00
1114.017, 10500.00
1115.113, 10455.00
1116.210, 10379.00
1117.306, 10460.00
1118.402, 10378.00
1119.498, 10414.00
1120.593, 10516.00
1121.689, 10584.00
1122.784, 10620.00
1123.879, 10592.00
1124.974, 10606.00
1126.069, 10612.00
1127.164, 10618.00
1128.259, 10524.00
1129.353, 10547.00
1130.447, 10438.00
1131.541, 10273.00
1132.635, 10253.00
1133.729, 10209.00
1134.822, 10175.00
1135.916, 10177.00
1137.009, 10176.53
1138.102, 10334.00
1139.195, 10243.00
1140.288, 10298.00
1141.380, 10389.00
1142.473, 10240.00
1143.565, 10450.00
1144.657, 10345.00
1145.749, 10375.00
1146.841, 10297.00
1147.932, 10322.00
1149.024, 10344.00
1150.115, 10348.00
1151.206, 10475.00
1152.297, 10497.00
1153.388, 10477.30
1154.479, 10522.00
1155.569, 10421.00
1156.659, 10480.00
1157.750, 10494.00
1158.839, 10602.00
1159.929, 10417.00
1161.019, 10411.00
1162.108, 10460.00
1163.198, 10470.00
1164.287, 10471.14
1165.376, 10327.00
1166.465, 10452.00
1167.553, 10501.00
1168.642, 10459.00
1169.730, 10599.00
1170.818, 10454.00
1171.906, 10559.00
1172.994, 10463.00
1174.082, 10608.00
1175.170, 10568.00
1176.257, 10646.00
1177.344, 10570.00
1178.431, 10489.00
1179.518, 10615.00
1180.605, 10535.00
1181.691, 10597.00
1182.778, 10650.00
1183.864, 10577.00
1184.950, 10558.00
1186.036, 10670.00
1187.122, 10667.00
1188.207, 10608.00
1189.292, 10590.00
1190.378, 10611.00
1191.463, 10772.00
1192.548, 10677.00
1193.632, 10640.00
1194.717, 10656.00
1195.801, 10527.00
1196.886, 10645.00
1197.970, 10559.00
1199.054, 10676.00
1200.137, 10605.00
1201.221, 10680.00
1202.305, 10507.00
1203.388, 10569.00
1204.471, 10531.00
1205.554, 10495.00
1206.637, 10493.00
1207.719, 10604.00
1208.802, 10401.00
1209.884, 10460.00
1210.966, 10384.00
1212.048, 10505.00
1213.130, 10358.00
1214.212, 10459.00
1215.293, 10444.00
1216.374, 10511.00
1217.456, 10437.00
1218.536, 10336.00
1219.617, 10430.00
1220.698, 10377.00
1221.778, 10424.00
1222.859, 10371.00
1223.939, 10375.00
1225.019, 10428.00
1226.099, 10402.00
1227.178, 10322.00
1228.258, 10312.00
1229.337, 10293.00
1230.417, 10304.00
1231.496, 10380.00
1232.574, 10329.00
1233.653, 10338.00
1234.732, 10292.00
1235.810, 10251.00
1236.888, 10280.00
1237.966, 10242.00
1239.044, 10258.00
1240.122, 10289.00
1241.199, 10221.00
1242.277, 10287.00
1243.354, 10301.00
1244.431, 10270.00
1245.508, 10283.00
1246.585, 10367.00
1247.661, 10248.00
1248.738, 10338.00
1249.814, 10227.00
1250.890, 10304.00
1251.966, 10247.00
1253.042, 10402.00
1254.117, 10410.00
1255.193, 10349.00
1256.268, 10292.00
1257.343, 10270.00
1258.418, 10242.28
1259.493, 10340.00
1260.567, 10240.00
1261.642, 10401.00
1262.716, 10451.00
1263.790, 10347.00
1264.864, 10309.00
1265.938, 10386.00
1267.011, 10269.00
1268.085, 10345.00
1269.158, 10261.00
1270.231, 10327.00
1271.304, 10314.00
1272.377, 10442.00
1273.450, 10249.00
1274.522, 10317.68
1275.594, 10336.00
1276.666, 10265.00
1277.738, 10381.00
1278.810, 10298.00
1279.882, 10285.00
1280.953, 10375.00
1282.025, 10214.00
1283.096, 10113.00
1284.167, 10406.00
1285.238, 10274.00
1286.308, 10227.00
1287.379, 10248.00
1288.449, 10268.00
1289.519, 10172.00
1290.589, 10268.00
1291.659, 10257.00
1292.729, 10377.00
1293.798, 10183.00
1294.868, 10132.00
1295.937, 10063.00
1297.006, 10169.00
1298.075, 10288.00
1299.143, 10236.00
1300.212, 10303.87
1301.280, 10280.12
1302.348, 10285.00
1303.416, 10197.00
1304.484, 10129.00
1305.552, 10047.00
1306.620, 10249.00
1307.687, 10196.00
1308.754, 10275.00
1309.821, 10188.00
1310.888, 10222.00
1311.955, 10110.00
1313.021, 10257.00
1314.088, 10304.00
1315.154, 10198.00
1316.220, 10162.00
1317.286, 10334.00
1318.352, 10238.00
1319.417, 10281.00
1320.483, 10302.00
1321.548, 10284.00
1322.613, 10257.00
1323.678, 10216.00
1324.743, 10259.00
1325.807, 10305.00
1326.872, 10331.00
1327.936, 10298.00
1329.000, 10432.00
1330.064, 10437.00
1331.128, 10223.00
1332.191, 10395.00
1333.255, 10423.00
1334.318, 10338.00
1335.381, 10527.00
1336.444, 10429.00
1337.507, 10479.00
1338.569, 10484.00
1339.632, 10463.00
1340.694, 10455.00
1341.756, 10558.00
1342.818, 10434.00
1343.880, 10592.00
1344.941, 10571.00
1346.003, 10571.00
1347.064, 10448.00
1348.125, 10502.69
1349.186, 10515.00
1350.247, 10564.00
1351.308, 10599.00
1352.368, 10663.00
1353.428, 10635.00
1354.489, 10728.00
1355.549, 10650.00
1356.608, 10704.00
1357.668, 10671.00
1358.727, 10786.00
1359.787, 10729.00
1360.846, 10772.00
1361.905, 10867.00
1362.964, 10842.00
1364.022, 11003.00
1365.081, 10779.00
1366.139, 10915.00
1367.197, 10864.00
1368.255, 10934.00
1369.313, 11027.00
1370.371, 10885.00
1371.428, 11051.00
1372.486, 10845.00
1373.543, 11040.00
1374.600, 10919.00
1375.657, 10924.00
1376.713, 11011.00
1377.770, 10965.00
1378.826, 10977.00
1379.882, 11113.00
1380.938, 11048.00
1381.994, 11107.00
1383.050, 10952.00
1384.106, 10993.00
1385.161, 10879.00
1386.216, 10861.00
1387.271, 10895.19
1388.326, 10960.00
1389.381, 10930.00
1390.435, 10954.88
1391.490, 11000.00
1392.544, 10956.00
1393.598, 10933.00
1394.652, 10956.00
1395.705, 11050.00
1396.759, 10970.00
1397.812, 11109.00
1398.866, 11090.89
1399.919, 10918.00
1400.972, 11118.00
1402.024, 11013.00
1403.077, 11020.00
1404.129, 10913.00
1405.181, 11022.00
1406.233, 10867.00
1407.285, 10925.00
1408.337, 11098.00
1409.389, 10946.00
1410.440, 10908.00
1411.491, 10920.00
1412.542, 10895.84
1413.593, 10917.00
1414.644, 10968.00
1415.695, 11019.00
1416.745, 11065.00
1417.795, 10969.00
1418.845, 11054.00
1419.895, 10946.00
1420.945, 10968.00
1421.995, 11000.13
1423.044, 11073.00
1424.093, 11034.00
1425.142, 11092.16
1426.191, 11039.57
1427.240, 11119.00
1428.289, 11100.00
1429.337, 11200.00
1430.385, 11307.00
1431.433, 11152.00
1432.481, 11205.00
1433.529, 11297.00
1434.577, 11301.00
1435.624, 11359.00
1436.672, 11341.00
1437.719, 11374.00
1438.766, 11387.00
1439.812, 11439.00
1440.859, 11448.44
1441.905, 11480.00
1442.952, 11519.00
1443.998, 11505.00
1445.044, 11617.00
1446.090, 11575.00
1447.135, 11470.00
1448.181, 11549.00
1449.226, 11548.00
1450.271, 11551.62
1451.316, 11535.00
1452.361, 11510.00
1453.405, 11620.00
1454.450, 11625.00
1455.494, 11634.00
1456.538, 11594.00
1457.582, 11554.00
1458.626, 11546.00
1459.670, 11597.00
1460.713, 11491.00
1461.757, 11443.00
1462.800, 11432.00
1463.843, 11528.00
1464.886, 11603.00
1465.928, 11600.36
1466.971, 11622.04
1468.013, 11586.00
1469.055, 11571.00
1470.097, 11476.00
1471.139, 11424.00
1472.181, 11589.00
1473.222, 11444.00
1474.263, 11570.00
1475.305, 11482.00
1476.346, 11301.00
1477.386, 11425.00
1478.427, 11425.00
1479.468, 11380.00
1480.508, 11291.00
1481.548, 11423.00
1482.588, 11492.00
1483.628, 11300.00
1484.668, 11406.00
1485.707, 11460.00
1486.747, 11399.00
1487.786, 11394.00
1488.825, 11403.00
1489.864, 11501.00
1490.902, 11342.00
1491.941, 11397.00
1492.979, 11540.00
1494.017, 11380.00
1495.055, 11334.00
1496.093, 11406.00
1497.131, 11382.00
1498.168, 11336.00
1499.206, 11422.00
1500.243, 11457.00
1501.280, 11334.00
1502.317, 11511.00
1503.354, 11482.00
1504.390, 11458.00
1505.426, 11495.00
1506.463, 11492.03
1507.499, 11451.00
1508.535, 11535.00
1509.570, 11512.00
1510.606, 11519.00
1511.641, 11588.00
1512.676, 11549.00
1513.711, 11562.00
1514.746, 11650.00
1515.781, 11607.00
1516.816, 11660.00
1517.850, 11639.00
1518.884, 11647.00
1519.918, 11600.00
1520.952, 11703.00
1521.986, 11615.00
1523.019, 11778.00
1524.053, 11633.00
1525.086, 11788.00
1526.119, 11847.00
1527.152, 11808.00
1528.185, 11832.00
1529.217, 11810.00
1530.250, 11799.31
1531.282, 11910.00
1532.314, 11830.00
1533.346, 11836.00
1534.377, 11966.00
1535.409, 11794.00
1536.440, 11916.00
1537.472, 11949.00
1538.503, 11934.00
1539.534, 11949.00
1540.564, 11950.00
1541.595, 12001.27
1542.625, 12098.00
1543.656, 12117.00
1544.686, 12145.00
1545.716, 12188.00
1546.745, 12212.92
1547.775, 12242.72
1548.804, 12286.00
1549.834, 12280.00
1550.863, 12328.00
1551.892, 12315.00
1552.920, 12391.00
1553.949, 12345.00
1554.977, 12465.00
1556.006, 12487.00
1557.034, 12399.00
1558.062, 12324.00
1559.089, 12352.00
1560.117, 12268.00
1561.144, 12349.00
1562.172, 12319.00
1563.199, 12272.00
1564.226, 12279.00
1565.252, 12320.00
1566.279, 12279.00
1567.305, 12425.00
1568.332, 12408.00
1569.358, 12260.00
1570.384, 12473.00
##END=



