##NAMES=Andalusite
##RRUFFID=R050626
##IDEAL CHEMISTRY=Al_2_SiO_5_
##LOCALITY=Minas Gerais, Brazil
##OWNER=RRUFF
##SOURCE=Gemological Center
##DESCRIPTION=Grayish brown fragment
##STATUS=The identification of this mineral has been confirmed by X-ray diffraction and chemical analysis
##URL=rruff.info/R050626
##MEASURED CHEMISTRY=(Al_1.99_Fe^3+^_0.01_)_Î£=1_Si_1.00_O_5_
##PIN_ID=L01690
##ORIENTATION=Laser parallel to b* (0 1 0). Fiducial mark perpendicular to laser is parallel to c [0 0 1]
123.0580, 3968.000
124.2880, 3997.000
125.5190, 3934.000
126.7490, 3954.000
127.9790, 3998.000
129.2090, 3888.000
130.4390, 4116.000
131.6680, 4045.000
132.8980, 4047.000
134.1270, 4030.000
135.3560, 4044.000
136.5850, 4049.000
137.8140, 4123.000
139.0430, 4169.000
140.2710, 4164.000
141.5000, 4152.000
142.7280, 4201.000
143.9560, 4101.000
145.1840, 4151.000
146.4120, 4131.000
147.6390, 4207.000
148.8670, 4187.000
150.0940, 4217.199
151.3210, 4245.000
152.5490, 4241.000
153.7750, 4258.341
155.0020, 4281.000
156.2290, 4255.000
157.4550, 4264.131
158.6810, 4241.000
159.9080, 4213.000
161.1340, 4209.000
162.3590, 4217.931
163.5850, 4268.000
164.8110, 4264.000
166.0360, 4364.000
167.2610, 4403.000
168.4860, 4323.000
169.7110, 4370.000
170.9360, 4317.000
172.1610, 4437.000
173.3850, 4430.000
174.6100, 4402.000
175.8340, 4417.000
177.0580, 4471.000
178.2820, 4430.000
179.5050, 4454.000
180.7290, 4510.000
181.9520, 4452.000
183.1760, 4551.000
184.3990, 4584.000
185.6220, 4563.000
186.8450, 4634.000
188.0670, 4652.000
189.2900, 4669.000
190.5120, 4764.000
191.7340, 4761.000
192.9560, 4770.000
194.1780, 4831.000
195.4000, 4897.000
196.6220, 4882.000
197.8430, 4909.000
199.0640, 5003.000
200.2860, 5008.000
201.5070, 5012.000
202.7270, 5059.000
203.9480, 5153.000
205.1690, 5018.000
206.3890, 4953.000
207.6090, 4920.000
208.8290, 4768.000
210.0490, 4857.000
211.2690, 4744.000
212.4890, 4828.000
213.7080, 4772.000
214.9280, 4800.000
216.1470, 4801.000
217.3660, 4719.000
218.5850, 4816.000
219.8030, 4824.000
221.0220, 4859.000
222.2400, 4788.000
223.4590, 4853.000
224.6770, 4778.000
225.8950, 4917.000
227.1120, 4842.000
228.3300, 4934.000
229.5480, 4821.000
230.7650, 4806.000
231.9820, 4845.000
233.1990, 4913.000
234.4160, 4806.000
235.6330, 4880.000
236.8490, 4846.000
238.0660, 4887.000
239.2820, 4917.208
240.4980, 4922.895
241.7140, 4997.000
242.9300, 4981.000
244.1460, 5059.000
245.3610, 5122.000
246.5770, 5195.000
247.7920, 5162.000
249.0070, 5270.000
250.2220, 5308.000
251.4370, 5252.000
252.6510, 5403.000
253.8660, 5455.000
255.0800, 5429.000
256.2940, 5500.000
257.5080, 5499.000
258.7220, 5710.000
259.9360, 5836.000
261.1490, 5923.000
262.3630, 6022.000
263.5760, 5954.000
264.7890, 6060.000
266.0020, 6200.000
267.2150, 6388.000
268.4270, 6526.000
269.6400, 6758.000
270.8520, 7156.000
272.0640, 7311.000
273.2760, 7733.000
274.4880, 8391.000
275.7000, 9033.000
276.9120, 10004.00
278.1230, 10929.00
279.3340, 12395.00
280.5450, 14353.00
281.7560, 16972.00
282.9670, 20509.00
284.1780, 25124.00
285.3880, 29338.00
286.5980, 33491.00
287.8090, 37739.00
289.0190, 43235.00
290.2290, 49358.00
291.4380, 55077.00
292.6480, 57878.00
293.8570, 56910.00
295.0670, 51547.00
296.2760, 44040.00
297.4850, 35678.00
298.6930, 27803.00
299.9020, 21605.00
301.1110, 16941.00
302.3190, 13966.00
303.5270, 12103.00
304.7350, 10917.00
305.9430, 9848.000
307.1510, 9372.000
308.3580, 9137.000
309.5660, 9210.000
310.7730, 9602.000
311.9800, 10605.00
313.1870, 12159.00
314.3940, 13926.00
315.6010, 15200.00
316.8070, 16761.00
318.0130, 18829.00
319.2200, 21761.00
320.4260, 24963.00
321.6310, 27271.00
322.8370, 27210.00
324.0430, 25614.00
325.2480, 22725.00
326.4540, 19319.00
327.6590, 16320.00
328.8640, 13936.00
330.0680, 12062.00
331.2730, 11046.00
332.4780, 10128.00
333.6820, 9801.000
334.8860, 9361.000
336.0900, 9019.000
337.2940, 8720.000
338.4980, 8597.000
339.7010, 8344.000
340.9050, 8020.000
342.1080, 7980.000
343.3110, 7792.000
344.5140, 7664.000
345.7170, 7708.000
346.9200, 7614.000
348.1220, 7815.000
349.3240, 8071.000
350.5270, 8431.000
351.7290, 9013.000
352.9310, 9697.000
354.1320, 10391.00
355.3340, 10998.00
356.5350, 12095.00
357.7370, 12983.00
358.9380, 13748.00
360.1390, 14059.00
361.3400, 13872.00
362.5400, 13321.00
363.7410, 12417.00
364.9410, 11244.00
366.1410, 10426.00
367.3410, 9724.000
368.5410, 9102.000
369.7410, 8574.000
370.9400, 8112.000
372.1400, 7867.000
373.3390, 7633.000
374.5380, 7359.000
375.7370, 7241.000
376.9360, 7190.000
378.1350, 7125.000
379.3330, 7061.000
380.5310, 7049.000
381.7300, 7186.000
382.9280, 7079.000
384.1260, 7098.000
385.3230, 6994.000
386.5210, 6914.000
387.7180, 6741.000
388.9160, 6637.576
390.1130, 6527.235
391.3100, 6376.000
392.5060, 6340.000
393.7030, 6226.000
394.9000, 6192.000
396.0960, 6150.000
397.2920, 6184.000
398.4880, 6087.000
399.6840, 6033.000
400.8800, 6075.000
402.0750, 5984.000
403.2710, 6037.000
404.4660, 6039.000
405.6610, 6097.000
406.8560, 6048.000
408.0510, 6118.000
409.2450, 6175.000
410.4400, 6249.171
411.6340, 6353.000
412.8280, 6479.000
414.0220, 6531.000
415.2160, 6664.000
416.4100, 6822.000
417.6030, 6783.000
418.7970, 6860.000
419.9900, 6855.000
421.1830, 6788.000
422.3760, 6648.000
423.5690, 6451.000
424.7610, 6315.000
425.9540, 6129.000
427.1460, 6088.000
428.3380, 6108.000
429.5300, 5985.000
430.7220, 5871.000
431.9140, 5997.000
433.1050, 6087.000
434.2970, 6002.000
435.4880, 5956.000
436.6790, 6005.000
437.8700, 5980.000
439.0610, 6056.000
440.2510, 6145.000
441.4420, 6114.000
442.6320, 6287.000
443.8220, 6517.000
445.0120, 6932.000
446.2020, 7222.000
447.3910, 7404.000
448.5810, 7605.000
449.7700, 8196.000
450.9600, 8856.000
452.1490, 9339.000
453.3370, 9254.000
454.5260, 8768.000
455.7150, 7935.000
456.9030, 7391.000
458.0910, 6801.000
459.2800, 6466.000
460.4670, 6363.000
461.6550, 6270.000
462.8430, 6110.000
464.0300, 6199.000
465.2180, 6098.000
466.4050, 6128.000
467.5920, 6084.000
468.7790, 6205.000
469.9650, 6188.000
471.1520, 6222.000
472.3380, 6286.000
473.5250, 6187.000
474.7110, 6184.000
475.8970, 6348.000
477.0820, 6142.000
478.2680, 6322.000
479.4540, 6214.000
480.6390, 6278.000
481.8240, 6316.000
483.0090, 6263.000
484.1940, 6279.000
485.3780, 6273.000
486.5630, 6283.000
487.7470, 6273.000
488.9320, 6228.000
490.1160, 6206.000
491.3000, 6207.000
492.4830, 6244.000
493.6670, 6177.000
494.8500, 6222.000
496.0340, 6190.000
497.2170, 6196.000
498.4000, 6229.000
499.5820, 6195.000
500.7650, 6158.000
501.9480, 6143.000
503.1300, 6244.000
504.3120, 6209.000
505.4940, 6229.000
506.6760, 6208.000
507.8580, 6184.000
509.0390, 6235.000
510.2210, 6272.000
511.4020, 6346.000
512.5830, 6346.000
513.7640, 6245.000
514.9450, 6280.000
516.1250, 6325.000
517.3060, 6385.000
518.4860, 6325.000
519.6660, 6369.000
520.8460, 6441.000
522.0260, 6336.000
523.2060, 6483.000
524.3850, 6471.000
525.5650, 6521.000
526.7440, 6362.000
527.9230, 6554.000
529.1020, 6438.000
530.2810, 6557.000
531.4590, 6751.000
532.6380, 6753.000
533.8160, 6863.000
534.9940, 6921.000
536.1720, 7004.000
537.3500, 7109.000
538.5270, 7340.000
539.7050, 7590.000
540.8820, 8013.000
542.0590, 8387.000
543.2360, 9010.000
544.4130, 9770.000
545.5900, 10512.00
546.7660, 11460.00
547.9430, 12413.00
549.1190, 13354.00
550.2950, 14051.00
551.4710, 14634.00
552.6470, 14963.00
553.8220, 14802.00
554.9980, 13949.00
556.1730, 12819.00
557.3480, 11741.00
558.5230, 10328.00
559.6980, 9481.000
560.8730, 8808.000
562.0470, 8421.000
563.2220, 8041.000
564.3960, 7658.000
565.5700, 7419.000
566.7440, 7356.000
567.9170, 7213.000
569.0910, 7244.000
570.2640, 7152.000
571.4380, 7081.000
572.6110, 6962.000
573.7840, 6995.000
574.9570, 6956.000
576.1290, 6918.000
577.3020, 6981.000
578.4740, 6796.000
579.6460, 6755.000
580.8180, 6839.000
581.9900, 6952.000
583.1620, 6762.000
584.3330, 6849.000
585.5040, 6814.000
586.6760, 6789.000
587.8470, 6824.000
589.0180, 6864.000
590.1880, 6797.000
591.3590, 6804.000
592.5290, 6761.000
593.7000, 6890.000
594.8700, 6784.000
596.0400, 6889.000
597.2090, 6953.000
598.3790, 6886.000
599.5490, 6988.000
600.7180, 7018.000
601.8870, 7079.000
603.0560, 7018.000
604.2250, 7066.000
605.3940, 7139.000
606.5620, 7190.000
607.7300, 7119.000
608.8990, 7131.000
610.0670, 7095.000
611.2350, 7067.000
612.4020, 7049.000
613.5700, 7141.000
614.7370, 7053.000
615.9050, 7003.000
617.0720, 6908.000
618.2390, 7025.000
619.4060, 6955.000
620.5720, 7000.000
621.7390, 7015.000
622.9050, 7064.000
624.0710, 7057.000
625.2370, 7104.429
626.4030, 7194.000
627.5690, 7168.000
628.7340, 7165.000
629.9000, 7167.385
631.0650, 7245.000
632.2300, 7160.000
633.3950, 7143.000
634.5600, 7117.000
635.7240, 7004.000
636.8890, 6985.000
638.0530, 7045.000
639.2170, 6969.000
640.3810, 6961.000
641.5450, 6938.000
642.7080, 7063.000
643.8720, 6984.000
645.0350, 7053.000
646.1980, 7018.000
647.3610, 6992.000
648.5240, 6945.000
649.6870, 6949.409
650.8490, 6945.000
652.0120, 6969.000
653.1740, 7046.000
654.3360, 7089.000
655.4980, 7113.000
656.6600, 7124.000
657.8210, 7188.000
658.9830, 7138.000
660.1440, 7172.000
661.3050, 7333.000
662.4660, 7311.000
663.6270, 7170.000
664.7870, 7366.000
665.9480, 7154.000
667.1080, 7169.000
668.2680, 7020.000
669.4280, 6918.000
670.5880, 6965.000
671.7480, 6955.000
672.9070, 7010.000
674.0670, 6931.000
675.2260, 7010.000
676.3850, 6939.000
677.5440, 7051.000
678.7030, 6929.000
679.8610, 7017.000
681.0200, 7082.000
682.1780, 7046.000
683.3360, 7125.000
684.4940, 7066.000
685.6520, 7064.000
686.8090, 7108.000
687.9670, 7107.658
689.1240, 7064.000
690.2810, 7170.000
691.4380, 7171.000
692.5950, 7179.000
693.7520, 7085.000
694.9080, 7171.000
696.0650, 7083.000
697.2210, 7298.000
698.3770, 7261.000
699.5330, 7240.000
700.6880, 7371.000
701.8440, 7369.000
702.9990, 7353.000
704.1550, 7340.000
705.3100, 7580.000
706.4650, 7468.000
707.6190, 7667.000
708.7740, 7666.000
709.9290, 7895.000
711.0830, 8052.000
712.2370, 8197.000
713.3910, 8434.000
714.5450, 8660.000
715.6980, 8762.000
716.8520, 8788.000
718.0050, 8849.000
719.1580, 8798.000
720.3110, 8819.000
721.4640, 8480.000
722.6170, 8332.000
723.7700, 8067.000
724.9220, 7857.000
726.0740, 7795.000
727.2260, 7606.000
728.3780, 7513.000
729.5300, 7504.000
730.6810, 7498.000
731.8330, 7365.000
732.9840, 7386.000
734.1350, 7367.000
735.2860, 7273.000
736.4370, 7414.000
737.5880, 7293.000
738.7380, 7395.000
739.8880, 7322.000
741.0390, 7293.000
742.1890, 7362.000
743.3380, 7309.000
744.4880, 7299.000
745.6380, 7336.000
746.7870, 7339.000
747.9360, 7325.000
749.0850, 7355.000
750.2340, 7378.000
751.3830, 7370.000
752.5310, 7382.000
753.6800, 7247.000
754.8280, 7368.000
755.9760, 7304.000
757.1240, 7382.000
758.2720, 7331.000
759.4190, 7330.000
760.5670, 7427.000
761.7140, 7504.000
762.8610, 7373.000
764.0080, 7389.000
765.1550, 7233.000
766.3020, 7440.000
767.4480, 7369.000
768.5950, 7471.000
769.7410, 7481.000
770.8870, 7406.000
772.0330, 7463.000
773.1780, 7374.000
774.3240, 7568.000
775.4690, 7456.000
776.6140, 7431.000
777.7590, 7510.000
778.9040, 7390.000
780.0490, 7460.000
781.1940, 7404.000
782.3380, 7421.000
783.4820, 7511.000
784.6260, 7555.000
785.7700, 7591.000
786.9140, 7464.000
788.0580, 7596.000
789.2010, 7627.000
790.3450, 7558.000
791.4880, 7648.000
792.6310, 7604.000
793.7730, 7694.000
794.9160, 7665.000
796.0590, 7610.000
797.2010, 7707.000
798.3430, 7619.000
799.4850, 7853.000
800.6270, 7798.000
801.7690, 7707.000
802.9100, 7984.000
804.0520, 7987.000
805.1930, 7948.000
806.3340, 7939.000
807.4750, 8090.000
808.6160, 8061.000
809.7560, 8060.000
810.8970, 8020.000
812.0370, 7977.000
813.1770, 8024.000
814.3170, 8077.000
815.4570, 8116.000
816.5960, 7997.000
817.7360, 8171.000
818.8750, 8122.000
820.0140, 8275.000
821.1530, 8294.000
822.2920, 8161.000
823.4310, 8298.000
824.5690, 8363.000
825.7070, 8487.000
826.8460, 8714.000
827.9840, 8713.000
829.1220, 8983.000
830.2590, 8925.000
831.3970, 9146.000
832.5340, 9274.000
833.6710, 9325.000
834.8080, 9397.000
835.9450, 9191.000
837.0820, 9241.000
838.2190, 9105.000
839.3550, 8727.000
840.4910, 8680.000
841.6270, 8578.000
842.7630, 8271.000
843.8990, 8219.000
845.0350, 8093.000
846.1700, 7936.000
847.3060, 8108.000
848.4410, 7984.000
849.5760, 7986.000
850.7100, 8013.000
851.8450, 7934.000
852.9800, 7870.000
854.1140, 7931.000
855.2480, 8033.000
856.3820, 7908.000
857.5160, 8039.000
858.6500, 8011.000
859.7830, 7949.000
860.9170, 8034.000
862.0500, 7982.000
863.1830, 8075.000
864.3160, 8555.000
865.4480, 8237.342
866.5810, 8705.000
867.7130, 7998.000
868.8460, 7956.000
869.9780, 8098.000
871.1100, 8131.000
872.2410, 8098.000
873.3730, 8131.000
874.5050, 8214.000
875.6360, 8076.000
876.7670, 8268.000
877.8980, 8305.000
879.0290, 8402.000
880.1590, 8368.000
881.2900, 8414.000
882.4200, 8412.000
883.5500, 8395.662
884.6800, 8503.145
885.8100, 8556.004
886.9400, 8711.000
888.0690, 8721.000
889.1990, 8834.000
890.3280, 8831.000
891.4570, 8950.000
892.5860, 9134.000
893.7140, 9260.000
894.8430, 9435.000
895.9710, 9549.000
897.1000, 9732.000
898.2280, 10155.00
899.3560, 10385.00
900.4830, 10782.00
901.6110, 11041.00
902.7380, 11392.00
903.8660, 12019.00
904.9930, 12712.00
906.1200, 13484.00
907.2460, 14355.00
908.3730, 15725.00
909.5000, 17630.00
910.6260, 20067.00
911.7520, 23450.00
912.8780, 27908.00
914.0040, 33506.00
915.1290, 39833.00
916.2550, 46451.00
917.3800, 52634.00
918.5050, 58035.00
919.6300, 61273.00
920.7550, 60483.00
921.8800, 55960.00
923.0040, 48713.00
924.1290, 41229.00
925.2530, 34305.00
926.3770, 29028.00
927.5010, 25006.00
928.6250, 22461.00
929.7480, 20068.00
930.8720, 18207.00
931.9950, 16854.00
933.1180, 15673.00
934.2410, 14529.00
935.3640, 13531.00
936.4860, 12905.00
937.6090, 12296.00
938.7310, 11975.00
939.8530, 11747.00
940.9750, 11632.00
942.0970, 11579.00
943.2180, 11832.00
944.3400, 12127.00
945.4610, 12392.00
946.5820, 12593.00
947.7030, 13006.00
948.8240, 13162.00
949.9450, 13454.00
951.0650, 13450.00
952.1860, 13134.00
953.3060, 12782.00
954.4260, 12303.00
955.5460, 11486.00
956.6650, 10932.00
957.7850, 10466.00
958.9040, 10053.00
960.0230, 9917.000
961.1420, 9547.000
962.2610, 9411.000
963.3800, 9273.000
964.4990, 9187.000
965.6170, 8988.000
966.7350, 8857.000
967.8530, 8896.000
968.9710, 8777.000
970.0890, 8768.000
971.2070, 8876.000
972.3240, 8605.000
973.4410, 8655.000
974.5580, 8689.000
975.6750, 8698.000
976.7920, 8694.000
977.9090, 8608.000
979.0250, 8615.000
980.1410, 8573.000
981.2580, 8647.000
982.3740, 8589.000
983.4890, 8651.000
984.6050, 8529.000
985.7200, 8570.000
986.8360, 8564.000
987.9510, 8650.000
989.0660, 8679.000
990.1810, 8634.000
991.2950, 8538.000
992.4100, 8611.000
993.5240, 8684.000
994.6390, 8753.000
995.7530, 8637.000
996.8660, 8746.000
997.9800, 8802.000
999.0940, 8802.000
1000.207, 9085.000
1001.320, 8967.000
1002.433, 9132.000
1003.546, 9134.000
1004.659, 9075.000
1005.772, 9325.000
1006.884, 9470.000
1007.996, 9461.000
1009.108, 9562.000
1010.220, 9837.000
1011.332, 10037.00
1012.444, 10369.00
1013.555, 10752.00
1014.666, 11130.00
1015.777, 11521.00
1016.888, 12016.00
1017.999, 12262.00
1019.110, 12619.00
1020.220, 12670.00
1021.331, 12625.00
1022.441, 12326.00
1023.551, 11941.00
1024.661, 11350.00
1025.770, 10956.00
1026.880, 10567.00
1027.989, 10320.00
1029.098, 10011.00
1030.207, 10019.00
1031.316, 9764.000
1032.425, 9835.000
1033.533, 9419.000
1034.642, 9447.000
1035.750, 9463.000
1036.858, 9445.000
1037.966, 9451.000
1039.073, 9468.000
1040.181, 9447.000
1041.288, 9462.000
1042.396, 9518.218
1043.503, 9548.000
1044.610, 9666.000
1045.716, 9722.000
1046.823, 9826.000
1047.929, 9942.000
1049.036, 9996.000
1050.142, 10201.00
1051.248, 10384.00
1052.353, 10646.00
1053.459, 10847.00
1054.564, 11411.00
1055.670, 12009.00
1056.775, 12746.00
1057.880, 13782.00
1058.985, 15197.00
1060.089, 17118.00
1061.194, 19193.00
1062.298, 21562.00
1063.402, 23713.00
1064.506, 25656.00
1065.610, 26292.00
1066.713, 26377.00
1067.817, 24628.00
1068.920, 22483.00
1070.023, 19785.00
1071.126, 17538.00
1072.229, 15601.00
1073.332, 14096.00
1074.435, 12842.00
1075.537, 12235.00
1076.639, 11614.00
1077.741, 11034.00
1078.843, 10803.00
1079.945, 10431.00
1081.046, 10192.00
1082.148, 10020.00
1083.249, 9792.000
1084.350, 9525.000
1085.451, 9543.000
1086.551, 9547.000
1087.652, 9409.000
1088.752, 9477.000
1089.853, 9420.000
1090.953, 9393.000
1092.053, 9324.000
1093.152, 9383.000
1094.252, 9310.000
1095.351, 9452.000
1096.451, 9225.000
1097.550, 9358.000
1098.649, 9487.000
1099.748, 9438.000
1100.846, 9629.000
1101.945, 9691.000
1103.043, 9661.000
1104.141, 9828.000
1105.239, 9913.000
1106.337, 10021.00
1107.434, 10203.00
1108.532, 10327.00
1109.629, 10448.00
1110.726, 10351.00
1111.823, 10259.00
1112.920, 10226.00
1114.017, 10252.00
1115.113, 9975.000
1116.210, 9743.000
1117.306, 9784.000
1118.402, 9489.000
1119.498, 9434.000
1120.593, 9477.000
1121.689, 9354.000
1122.784, 9264.000
1123.879, 9323.000
1124.974, 9297.000
1126.069, 9249.000
1127.164, 9234.233
1128.259, 9250.000
1129.353, 9130.000
1130.447, 9068.000
1131.541, 9005.000
1132.635, 9021.000
1133.729, 8939.000
1134.822, 8945.000
1135.916, 8986.000
1137.009, 8981.000
1138.102, 8907.000
1139.195, 9079.000
1140.288, 8956.000
1141.380, 8977.000
1142.473, 9066.000
1143.565, 8925.000
1144.657, 8893.000
1145.749, 8966.000
1146.841, 8873.000
1147.932, 9049.000
1149.024, 9084.000
1150.115, 8947.000
1151.206, 8951.000
1152.297, 8922.000
1153.388, 8923.300
1154.479, 8967.000
1155.569, 9006.000
1156.659, 8943.000
1157.750, 9000.000
1158.839, 9062.000
1159.929, 8949.000
1161.019, 8887.000
1162.108, 8862.000
1163.198, 8915.000
1164.287, 8881.000
1165.376, 8912.630
1166.465, 8907.190
1167.553, 8955.000
1168.642, 8912.000
1169.730, 8921.000
1170.818, 8963.000
1171.906, 8841.000
1172.994, 8967.000
1174.082, 9004.000
1175.170, 9030.000
1176.257, 8930.000
1177.344, 8844.000
1178.431, 8998.000
1179.518, 8818.000
1180.605, 9001.000
1181.691, 9033.000
1182.778, 8911.000
1183.864, 9059.000
1184.950, 8864.000
1186.036, 8924.000
1187.122, 8943.000
1188.207, 8976.000
1189.292, 8895.000
1190.378, 8865.000
1191.463, 9037.000
1192.548, 8936.000
1193.632, 9141.000
1194.717, 8990.000
1195.801, 8871.000
1196.886, 9013.000
1197.970, 9106.000
1199.054, 8869.000
1200.137, 9045.000
1201.221, 9021.000
1202.305, 8931.000
1203.388, 9060.000
1204.471, 9056.000
1205.554, 9033.000
1206.637, 8966.000
1207.719, 8971.000
1208.802, 8983.000
1209.884, 8993.000
1210.966, 8901.000
1212.048, 9032.000
1213.130, 9027.000
1214.212, 8945.000
1215.293, 9033.000
1216.374, 9049.000
1217.456, 8963.000
1218.536, 8935.000
1219.617, 9118.000
1220.698, 9032.000
1221.778, 8982.000
1222.859, 8937.000
1223.939, 9188.000
1225.019, 9026.000
1226.099, 9001.000
1227.178, 9031.000
1228.258, 8905.000
1229.337, 9135.000
1230.417, 8887.000
1231.496, 9018.000
1232.574, 9140.000
1233.653, 9079.000
1234.732, 9134.000
1235.810, 9128.000
1236.888, 9120.000
1237.966, 9163.000
1239.044, 9117.000
1240.122, 9047.000
1241.199, 9087.000
1242.277, 9160.000
1243.354, 8985.000
1244.431, 9166.000
1245.508, 9038.000
1246.585, 9142.000
1247.661, 9112.000
1248.738, 9080.000
1249.814, 9143.000
1250.890, 9063.000
1251.966, 9108.000
1253.042, 9009.000
1254.117, 9074.000
1255.193, 9131.000
1256.268, 9209.000
1257.343, 9241.000
1258.418, 9158.000
1259.493, 9118.000
1260.567, 9124.000
1261.642, 9168.000
1262.716, 9215.000
1263.790, 9030.000
1264.864, 9275.000
1265.938, 9170.000
1267.011, 9153.000
1268.085, 9251.000
1269.158, 9194.000
1270.231, 9050.000
1271.304, 9062.000
1272.377, 9071.323
1273.450, 9099.000
1274.522, 9151.000
1275.594, 9216.000
1276.666, 9181.000
1277.738, 9181.000
1278.810, 9204.000
1279.882, 9255.000
1280.953, 9184.000
1282.025, 9254.000
1283.096, 9217.000
1284.167, 9253.000
1285.238, 9230.000
1286.308, 9302.000
1287.379, 9272.000
1288.449, 9254.000
1289.519, 9305.000
1290.589, 9268.000
1291.659, 9333.000
1292.729, 9202.000
1293.798, 9170.000
1294.868, 9221.000
1295.937, 9205.000
1297.006, 9247.368
1298.075, 9132.000
1299.143, 9316.000
1300.212, 9275.000
1301.280, 9260.000
1302.348, 9398.000
1303.416, 9215.000
1304.484, 9280.000
1305.552, 9260.000
1306.620, 9291.000
1307.687, 9336.000
1308.754, 9391.000
1309.821, 9336.000
1310.888, 9329.000
1311.955, 9355.000
1313.021, 9458.000
1314.088, 9291.000
1315.154, 9318.000
1316.220, 9372.000
1317.286, 9302.000
1318.352, 9359.000
1319.417, 9309.000
1320.483, 9335.000
1321.548, 9225.000
1322.613, 9238.348
1323.678, 9201.242
1324.743, 9223.000
1325.807, 9184.000
1326.872, 9198.000
1327.936, 9274.000
1329.000, 9250.000
1330.064, 9297.000
1331.128, 9343.000
1332.191, 9306.000
1333.255, 9341.870
1334.318, 9335.000
1335.381, 9347.000
1336.444, 9358.000
1337.507, 9357.000
1338.569, 9362.000
1339.632, 9362.000
1340.694, 9360.207
1341.756, 9353.626
1342.818, 9367.000
1343.880, 9345.000
1344.941, 9372.000
1346.003, 9394.000
1347.064, 9397.000
1348.125, 9475.000
1349.186, 9350.000
1350.247, 9346.000
1351.308, 9399.000
1352.368, 9381.000
1353.428, 9382.000
1354.489, 9398.000
1355.549, 9341.000
1356.608, 9386.000
1357.668, 9375.000
1358.727, 9394.000
1359.787, 9429.000
1360.846, 9499.000
1361.905, 9494.085
1362.964, 9511.623
1364.022, 9503.000
1365.081, 9465.000
1366.139, 9449.000
1367.197, 9347.000
1368.255, 9378.215
1369.313, 9357.364
1370.371, 9378.000
1371.428, 9426.000
1372.486, 9374.000
1373.543, 9507.000
1374.600, 9463.000
1375.657, 9518.000
1376.713, 9495.000
1377.770, 9472.000
1378.826, 9496.504
1379.882, 9505.000
1380.938, 9526.000
1381.994, 9524.000
1383.050, 9582.000
1384.106, 9526.000
1385.161, 9528.000
1386.216, 9455.000
1387.271, 9542.000
1388.326, 9507.000
1389.381, 9527.000
1390.435, 9503.000
1391.490, 9588.000
1392.544, 9485.000
1393.598, 9477.000
1394.652, 9535.000
1395.705, 9602.000
1396.759, 9602.000
1397.812, 9527.000
1398.866, 9577.000
1399.919, 9521.000
1400.972, 9591.000
1402.024, 9524.000
1403.077, 9590.000
1404.129, 9529.000
1405.181, 9599.000
1406.233, 9620.000
1407.285, 9559.000
1408.337, 9535.000
1409.389, 9541.832
1410.440, 9608.000
1411.491, 9524.000
1412.542, 9641.000
1413.593, 9596.000
1414.644, 9650.000
1415.695, 9514.000
1416.745, 9670.000
1417.795, 9638.000
1418.845, 9580.000
1419.895, 9637.000
1420.945, 9625.000
1421.995, 9582.000
1423.044, 9583.000
1424.093, 9540.000
1425.142, 9613.000
1426.191, 9534.000
1427.240, 9779.000
1428.289, 9657.000
1429.337, 9603.000
1430.385, 9727.000
1431.433, 9672.000
1432.481, 9735.000
1433.529, 9736.000
1434.577, 9697.000
1435.624, 9565.000
1436.672, 9674.000
1437.719, 9629.624
1438.766, 9584.000
1439.812, 9700.000
1440.859, 9722.000
1441.905, 9801.000
1442.952, 9807.000
1443.998, 9827.000
1445.044, 9808.996
1446.090, 9895.000
1447.135, 9702.000
1448.181, 9715.000
1449.226, 9609.000
1450.271, 9775.000
1451.316, 9748.000
1452.361, 9655.000
1453.405, 9743.000
1454.450, 9764.000
1455.494, 9666.000
1456.538, 9852.000
1457.582, 9764.000
1458.626, 9590.000
1459.670, 9720.000
1460.713, 9826.000
1461.757, 9737.000
1462.800, 9823.000
1463.843, 9657.000
1464.886, 9815.000
1465.928, 9666.000
1466.971, 9762.000
1468.013, 9726.000
1469.055, 9730.000
1470.097, 9744.000
1471.139, 9906.000
1472.181, 9759.000
1473.222, 9888.000
1474.263, 9792.000
1475.305, 9797.000
1476.346, 9796.000
1477.386, 9933.000
1478.427, 9731.000
1479.468, 9827.000
1480.508, 9877.000
1481.548, 9736.000
1482.588, 9971.000
1483.628, 9834.000
1484.668, 9907.000
1485.707, 9888.000
1486.747, 9917.000
1487.786, 9948.896
1488.825, 9943.000
1489.864, 9937.000
1490.902, 9955.000
1491.941, 9814.000
1492.979, 9854.000
1494.017, 9960.000
1495.055, 9846.000
1496.093, 9938.000
1497.131, 9824.000
1498.168, 9898.000
1499.206, 9875.000
1500.243, 10012.00
1501.280, 9907.000
1502.317, 9946.000
1503.354, 10003.00
1504.390, 9884.000
1505.426, 10045.00
1506.463, 10044.00
1507.499, 10064.00
1508.535, 9948.000
1509.570, 9900.000
1510.606, 9894.000
1511.641, 10013.00
1512.676, 10023.00
1513.711, 10043.11
1514.746, 10049.00
1515.781, 10044.00
1516.816, 10016.00
1517.850, 9977.000
1518.884, 10063.00
1519.918, 10008.00
1520.952, 9998.000
1521.986, 10019.00
1523.019, 9957.000
1524.053, 9912.000
1525.086, 10033.00
1526.119, 10036.00
1527.152, 10047.00
1528.185, 10026.00
1529.217, 9981.000
1530.250, 9972.000
1531.282, 9990.455
1532.314, 10045.00
1533.346, 10059.00
1534.377, 10105.00
1535.409, 10151.00
1536.440, 10045.00
1537.472, 10075.00
1538.503, 10069.00
1539.534, 10178.00
1540.564, 10104.00
1541.595, 10237.00
1542.625, 10113.00
1543.656, 10116.00
1544.686, 10221.00
1545.716, 10091.00
1546.745, 10139.00
1547.775, 9982.000
1548.804, 10150.00
1549.834, 10137.00
1550.863, 10144.00
1551.892, 10163.00
1552.920, 10164.00
1553.949, 10209.00
1554.977, 10170.00
1556.006, 10300.00
1557.034, 10280.00
1558.062, 10209.00
1559.089, 10263.00
1560.117, 10166.00
1561.144, 10185.00
1562.172, 10232.00
1563.199, 10132.00
1564.226, 10117.00
1565.252, 10195.00
1566.279, 10151.00
1567.305, 10211.00
1568.332, 10247.00
1569.358, 10344.00
1570.384, 10164.00
##END=



