##NAMES=Andalusite
##RRUFFID=R050449
##IDEAL CHEMISTRY=Al_2_SiO_5_
##LOCALITY=Itinga, Minas Gerais, Brazil
##OWNER=RRUFF
##SOURCE=Marcus Origlieri
##DESCRIPTION=Green fragment
##STATUS=The identification of this mineral has been confirmed by X-ray diffraction and chemical analysis
##URL=rruff.info/R050449
##MEASURED CHEMISTRY=Al_2.00_Fe^3+^_0.01_Si_0.99_O_5_
##PIN_ID=L00614
##ORIENTATION=Laser parallel to a* (1 0 0). Fiducial mark perpendicular to laser is parallel to b [0 1 0]
118.1340, 6242.000
119.3650, 6121.000
120.5960, 6015.000
121.8270, 6122.000
123.0580, 6248.000
124.2880, 6256.000
125.5190, 6069.000
126.7490, 6004.000
127.9790, 6141.000
129.2090, 6262.000
130.4390, 6193.000
131.6680, 6274.000
132.8980, 6253.000
134.1270, 6249.000
135.3560, 6282.000
136.5850, 6323.000
137.8140, 6510.000
139.0430, 6606.000
140.2710, 6674.000
141.5000, 6644.000
142.7280, 6664.000
143.9560, 6590.000
145.1840, 6655.000
146.4120, 6516.000
147.6390, 6580.000
148.8670, 6362.000
150.0940, 6336.000
151.3210, 6353.000
152.5490, 6467.000
153.7750, 6493.000
155.0020, 6441.000
156.2290, 6365.000
157.4550, 6248.000
158.6810, 6240.000
159.9080, 6378.000
161.1340, 6329.000
162.3590, 6405.000
163.5850, 6623.000
164.8110, 6623.000
166.0360, 6716.000
167.2610, 6805.000
168.4860, 6820.000
169.7110, 6759.000
170.9360, 6827.000
172.1610, 6800.000
173.3850, 6653.000
174.6100, 6714.000
175.8340, 6715.000
177.0580, 6731.000
178.2820, 6818.000
179.5050, 6953.000
180.7290, 7049.000
181.9520, 7127.291
183.1760, 7181.000
184.3990, 7307.000
185.6220, 7458.000
186.8450, 7628.000
188.0670, 7890.000
189.2900, 8007.000
190.5120, 7920.000
191.7340, 8066.000
192.9560, 7972.000
194.1780, 7943.000
195.4000, 7831.000
196.6220, 7786.000
197.8430, 7799.000
199.0640, 7730.000
200.2860, 7772.000
201.5070, 7870.000
202.7270, 7860.000
203.9480, 7721.000
205.1690, 7230.000
206.3890, 6772.000
207.6090, 6541.000
208.8290, 6655.000
210.0490, 6598.000
211.2690, 6599.000
212.4890, 6561.000
213.7080, 6651.000
214.9280, 6712.000
216.1470, 6532.000
217.3660, 6621.000
218.5850, 6570.000
219.8030, 6572.000
221.0220, 6658.000
222.2400, 6654.000
223.4590, 6748.000
224.6770, 6720.000
225.8950, 6748.000
227.1120, 6908.000
228.3300, 7230.000
229.5480, 7531.000
230.7650, 7966.000
231.9820, 8336.247
233.1990, 8793.000
234.4160, 9187.000
235.6330, 9697.000
236.8490, 10146.00
238.0660, 10704.00
239.2820, 11261.00
240.4980, 11572.00
241.7140, 11702.00
242.9300, 11673.00
244.1460, 11227.00
245.3610, 10456.00
246.5770, 10063.00
247.7920, 9661.000
249.0070, 9382.000
250.2220, 9138.000
251.4370, 8990.000
252.6510, 8795.000
253.8660, 8720.000
255.0800, 8790.000
256.2940, 8748.000
257.5080, 8822.000
258.7220, 9022.000
259.9360, 9039.164
261.1490, 9409.000
262.3630, 9309.000
263.5760, 9206.000
264.7890, 9494.000
266.0020, 9512.000
267.2150, 9881.000
268.4270, 10103.00
269.6400, 10514.00
270.8520, 10754.00
272.0640, 11405.00
273.2760, 11982.00
274.4880, 12798.00
275.7000, 13824.00
276.9120, 15181.00
278.1230, 17148.00
279.3340, 19552.00
280.5450, 23213.00
281.7560, 27926.00
282.9670, 32688.00
284.1780, 36865.00
285.3880, 40667.00
286.5980, 43778.00
287.8090, 47670.00
289.0190, 51298.00
290.2290, 54836.00
291.4380, 57110.00
292.6480, 57027.00
293.8570, 53912.00
295.0670, 47429.00
296.2760, 39296.00
297.4850, 31503.00
298.6930, 24848.00
299.9020, 19944.00
301.1110, 16623.00
302.3190, 14399.00
303.5270, 12676.00
304.7350, 11841.00
305.9430, 11416.00
307.1510, 11248.00
308.3580, 11487.00
309.5660, 12454.00
310.7730, 13789.00
311.9800, 15804.00
313.1870, 17652.00
314.3940, 19149.00
315.6010, 20568.00
316.8070, 22076.00
318.0130, 23791.00
319.2200, 25828.00
320.4260, 27214.00
321.6310, 27908.00
322.8370, 27097.00
324.0430, 24487.00
325.2480, 21082.00
326.4540, 18095.00
327.6590, 15312.00
328.8640, 13601.00
330.0680, 12196.00
331.2730, 11581.00
332.4780, 11130.00
333.6820, 10719.00
334.8860, 10583.00
336.0900, 10574.00
337.2940, 10642.00
338.4980, 10584.00
339.7010, 10749.00
340.9050, 11106.00
342.1080, 11604.00
343.3110, 12360.00
344.5140, 13387.00
345.7170, 14903.00
346.9200, 16898.00
348.1220, 19632.00
349.3240, 22932.00
350.5270, 26076.00
351.7290, 29166.00
352.9310, 32157.00
354.1320, 34794.00
355.3340, 37933.00
356.5350, 40292.00
357.7370, 42319.00
358.9380, 43329.00
360.1390, 41990.00
361.3400, 39034.00
362.5400, 34751.00
363.7410, 30285.00
364.9410, 25752.00
366.1410, 22094.00
367.3410, 19028.00
368.5410, 16951.00
369.7410, 15429.00
370.9400, 14082.00
372.1400, 13218.00
373.3390, 12404.00
374.5380, 11915.00
375.7370, 11393.00
376.9360, 11057.00
378.1350, 10787.00
379.3330, 10623.00
380.5310, 10566.00
381.7300, 10509.00
382.9280, 10862.00
384.1260, 10673.00
385.3230, 10726.00
386.5210, 10748.00
387.7180, 10699.00
388.9160, 10546.00
390.1130, 10453.00
391.3100, 10173.00
392.5060, 9880.000
393.7030, 9853.000
394.9000, 9690.000
396.0960, 9302.000
397.2920, 9311.000
398.4880, 9268.000
399.6840, 9207.000
400.8800, 9174.000
402.0750, 9200.000
403.2710, 9099.000
404.4660, 8982.000
405.6610, 9160.000
406.8560, 8993.000
408.0510, 8921.000
409.2450, 8910.000
410.4400, 8833.000
411.6340, 8867.000
412.8280, 8863.000
414.0220, 8907.000
415.2160, 8837.000
416.4100, 8897.000
417.6030, 8848.912
418.7970, 8816.000
419.9900, 8794.000
421.1830, 8762.000
422.3760, 8768.000
423.5690, 8634.000
424.7610, 8661.915
425.9540, 8747.000
427.1460, 8638.000
428.3380, 8665.000
429.5300, 8641.000
430.7220, 8661.000
431.9140, 8663.000
433.1050, 8774.000
434.2970, 8644.000
435.4880, 8720.000
436.6790, 8720.000
437.8700, 8864.000
439.0610, 8875.000
440.2510, 9051.000
441.4420, 9097.000
442.6320, 9280.000
443.8220, 9434.027
445.0120, 9618.107
446.2020, 9815.000
447.3910, 10055.00
448.5810, 10317.00
449.7700, 10536.00
450.9600, 10744.00
452.1490, 10706.00
453.3370, 10647.00
454.5260, 10192.00
455.7150, 9921.000
456.9030, 9615.000
458.0910, 9079.000
459.2800, 9054.000
460.4670, 8868.000
461.6550, 8900.000
462.8430, 8884.000
464.0300, 8855.000
465.2180, 8836.000
466.4050, 8947.000
467.5920, 8883.000
468.7790, 9021.000
469.9650, 8884.000
471.1520, 9001.000
472.3380, 9146.000
473.5250, 9317.000
474.7110, 9436.657
475.8970, 9526.190
477.0820, 9654.000
478.2680, 9669.000
479.4540, 9653.000
480.6390, 9728.000
481.8240, 9634.000
483.0090, 9613.000
484.1940, 9517.000
485.3780, 9493.000
486.5630, 9455.000
487.7470, 9366.000
488.9320, 9342.050
490.1160, 9274.633
491.3000, 9246.000
492.4830, 9176.000
493.6670, 9116.000
494.8500, 9102.000
496.0340, 9158.000
497.2170, 9254.000
498.4000, 9309.000
499.5820, 9350.000
500.7650, 9427.000
501.9480, 9417.000
503.1300, 9455.000
504.3120, 9385.000
505.4940, 9479.000
506.6760, 9502.582
507.8580, 9652.000
509.0390, 9645.000
510.2210, 9602.000
511.4020, 9712.000
512.5830, 9768.000
513.7640, 9583.000
514.9450, 9824.000
516.1250, 9781.000
517.3060, 9779.000
518.4860, 9889.000
519.6660, 9880.000
520.8460, 9780.000
522.0260, 9870.000
523.2060, 9745.000
524.3850, 9999.000
525.5650, 9969.000
526.7440, 10002.00
527.9230, 10098.00
529.1020, 10066.00
530.2810, 10296.00
531.4590, 10279.00
532.6380, 10421.00
533.8160, 10550.00
534.9940, 10584.00
536.1720, 10888.00
537.3500, 10913.00
538.5270, 11293.00
539.7050, 11449.00
540.8820, 11850.00
542.0590, 12119.00
543.2360, 12550.00
544.4130, 12783.00
545.5900, 13329.00
546.7660, 13867.00
547.9430, 14148.00
549.1190, 14414.00
550.2950, 14584.00
551.4710, 14588.16
552.6470, 14578.00
553.8220, 14290.00
554.9980, 14006.00
556.1730, 13498.00
557.3480, 13191.00
558.5230, 12671.00
559.6980, 12475.00
560.8730, 12386.00
562.0470, 12328.00
563.2220, 12523.00
564.3960, 12587.00
565.5700, 12872.00
566.7440, 13002.00
567.9170, 13085.00
569.0910, 13555.00
570.2640, 13620.00
571.4380, 13702.00
572.6110, 13623.00
573.7840, 13300.00
574.9570, 13242.00
576.1290, 12838.00
577.3020, 12390.00
578.4740, 12009.00
579.6460, 11620.00
580.8180, 11447.00
581.9900, 11187.00
583.1620, 11194.00
584.3330, 10995.00
585.5040, 10899.00
586.6760, 10689.00
587.8470, 10750.00
589.0180, 10665.00
590.1880, 10649.00
591.3590, 10722.00
592.5290, 10719.00
593.7000, 10582.00
594.8700, 10542.00
596.0400, 10501.00
597.2090, 10525.00
598.3790, 10691.00
599.5490, 10633.00
600.7180, 10639.00
601.8870, 10758.00
603.0560, 10633.00
604.2250, 10796.00
605.3940, 10820.00
606.5620, 10765.00
607.7300, 10917.00
608.8990, 10973.00
610.0670, 11107.00
611.2350, 11097.00
612.4020, 11176.00
613.5700, 11357.00
614.7370, 11367.00
615.9050, 11459.00
617.0720, 11568.00
618.2390, 11596.00
619.4060, 11713.00
620.5720, 11747.00
621.7390, 11957.00
622.9050, 12115.00
624.0710, 12212.00
625.2370, 12419.00
626.4030, 12612.00
627.5690, 12552.00
628.7340, 12594.00
629.9000, 12634.00
631.0650, 12493.00
632.2300, 12315.00
633.3950, 12201.00
634.5600, 12199.00
635.7240, 12015.00
636.8890, 12023.00
638.0530, 11914.00
639.2170, 11867.00
640.3810, 11992.00
641.5450, 11871.00
642.7080, 11926.00
643.8720, 11820.00
645.0350, 11835.00
646.1980, 11527.00
647.3610, 11516.00
648.5240, 11410.00
649.6870, 11366.00
650.8490, 11181.00
652.0120, 10803.00
653.1740, 10813.00
654.3360, 10607.00
655.4980, 10578.00
656.6600, 10406.00
657.8210, 10319.00
658.9830, 10279.00
660.1440, 10192.25
661.3050, 10188.00
662.4660, 10127.00
663.6270, 10048.00
664.7870, 10048.00
665.9480, 10023.00
667.1080, 9990.000
668.2680, 9950.000
669.4280, 9961.000
670.5880, 9834.000
671.7480, 9891.000
672.9070, 9972.000
674.0670, 9862.000
675.2260, 9945.000
676.3850, 9920.000
677.5440, 9868.000
678.7030, 9949.000
679.8610, 10050.00
681.0200, 9843.000
682.1780, 9916.000
683.3360, 10006.00
684.4940, 9937.045
685.6520, 9855.000
686.8090, 9947.000
687.9670, 9973.000
689.1240, 9946.000
690.2810, 9828.000
691.4380, 9920.000
692.5950, 9892.000
693.7520, 10013.00
694.9080, 10084.00
696.0650, 10125.00
697.2210, 10079.00
698.3770, 9994.000
699.5330, 10179.00
700.6880, 10270.00
701.8440, 10206.00
702.9990, 10216.00
704.1550, 10177.00
705.3100, 10433.00
706.4650, 10489.00
707.6190, 10542.00
708.7740, 10562.00
709.9290, 10440.00
711.0830, 10730.00
712.2370, 10866.00
713.3910, 10965.00
714.5450, 10805.00
715.6980, 10857.00
716.8520, 10772.00
718.0050, 10686.00
719.1580, 10644.00
720.3110, 10628.00
721.4640, 10525.00
722.6170, 10496.50
723.7700, 10346.00
724.9220, 10426.00
726.0740, 10321.00
727.2260, 10360.00
728.3780, 10243.00
729.5300, 10226.00
730.6810, 10298.00
731.8330, 10285.00
732.9840, 10376.00
734.1350, 10369.00
735.2860, 10306.00
736.4370, 10328.00
737.5880, 10314.03
738.7380, 10686.05
739.8880, 10347.00
741.0390, 10420.65
742.1890, 10492.00
743.3380, 10305.00
744.4880, 10216.00
745.6380, 10410.00
746.7870, 10479.00
747.9360, 10368.00
749.0850, 10344.00
750.2340, 10427.00
751.3830, 10360.00
752.5310, 10434.00
753.6800, 10477.00
754.8280, 10433.00
755.9760, 10488.00
757.1240, 10448.00
758.2720, 10447.00
759.4190, 10404.00
760.5670, 10379.00
761.7140, 10388.55
762.8610, 10372.00
764.0080, 10370.00
765.1550, 10450.00
766.3020, 10369.00
767.4480, 10416.27
768.5950, 10341.00
769.7410, 10435.00
770.8870, 10424.00
772.0330, 10425.00
773.1780, 10428.00
774.3240, 10448.00
775.4690, 10523.00
776.6140, 10476.00
777.7590, 10631.00
778.9040, 10579.00
780.0490, 10633.00
781.1940, 10638.00
782.3380, 10693.00
783.4820, 10730.00
784.6260, 10670.00
785.7700, 10754.00
786.9140, 10792.00
788.0580, 10927.00
789.2010, 10903.00
790.3450, 10921.00
791.4880, 10910.00
792.6310, 10973.33
793.7730, 11059.00
794.9160, 11133.00
796.0590, 11218.00
797.2010, 11331.00
798.3430, 11481.00
799.4850, 11686.00
800.6270, 11682.00
801.7690, 11778.00
802.9100, 12023.00
804.0520, 12153.00
805.1930, 12273.00
806.3340, 12429.00
807.4750, 12535.00
808.6160, 12759.00
809.7560, 12929.00
810.8970, 12970.00
812.0370, 13249.00
813.1770, 13353.00
814.3170, 13490.00
815.4570, 13728.00
816.5960, 13786.00
817.7360, 13828.14
818.8750, 13858.69
820.0140, 13739.00
821.1530, 13708.00
822.2920, 13538.00
823.4310, 13295.00
824.5690, 13176.00
825.7070, 13055.00
826.8460, 12834.00
827.9840, 12657.00
829.1220, 12470.00
830.2590, 12551.00
831.3970, 12299.00
832.5340, 12417.00
833.6710, 12165.00
834.8080, 12045.00
835.9450, 11991.00
837.0820, 11902.00
838.2190, 11796.00
839.3550, 11597.00
840.4910, 11566.00
841.6270, 11492.00
842.7630, 11540.00
843.8990, 11300.00
845.0350, 11245.00
846.1700, 11295.00
847.3060, 11160.00
848.4410, 11076.00
849.5760, 11020.00
850.7100, 11137.00
851.8450, 11048.00
852.9800, 11097.00
854.1140, 11034.00
855.2480, 11079.00
856.3820, 11184.00
857.5160, 11067.00
858.6500, 11136.00
859.7830, 11236.00
860.9170, 11243.00
862.0500, 11149.00
863.1830, 11393.00
864.3160, 11075.00
865.4480, 11283.00
866.5810, 11296.00
867.7130, 11375.00
868.8460, 11381.00
869.9780, 11347.00
871.1100, 11374.00
872.2410, 11512.00
873.3730, 11505.00
874.5050, 11602.00
875.6360, 11620.00
876.7670, 11697.00
877.8980, 11616.00
879.0290, 11777.00
880.1590, 11714.00
881.2900, 11666.00
882.4200, 11841.00
883.5500, 11985.00
884.6800, 11911.00
885.8100, 11988.00
886.9400, 12225.00
888.0690, 12275.00
889.1990, 12487.00
890.3280, 12520.00
891.4570, 12678.00
892.5860, 12972.00
893.7140, 13024.00
894.8430, 13187.00
895.9710, 13570.00
897.1000, 13844.00
898.2280, 14350.00
899.3560, 14652.00
900.4830, 15203.00
901.6110, 15620.00
902.7380, 16192.00
903.8660, 16782.00
904.9930, 17744.00
906.1200, 18788.00
907.2460, 20282.00
908.3730, 22223.00
909.5000, 24491.00
910.6260, 27703.00
911.7520, 31966.00
912.8780, 36608.00
914.0040, 41825.00
915.1290, 46893.00
916.2550, 51214.00
917.3800, 54787.00
918.5050, 55865.00
919.6300, 55147.00
920.7550, 51235.00
921.8800, 45605.00
923.0040, 39564.00
924.1290, 33857.00
925.2530, 29493.00
926.3770, 26180.00
927.5010, 23897.00
928.6250, 22105.00
929.7480, 21040.00
930.8720, 20395.00
931.9950, 19838.00
933.1180, 19836.00
934.2410, 19751.00
935.3640, 20022.00
936.4860, 20296.00
937.6090, 20993.00
938.7310, 22090.00
939.8530, 23331.00
940.9750, 25253.00
942.0970, 27299.00
943.2180, 30373.00
944.3400, 33993.00
945.4610, 37624.00
946.5820, 41704.00
947.7030, 45247.00
948.8240, 48171.00
949.9450, 49691.00
951.0650, 49868.00
952.1860, 48193.00
953.3060, 44797.00
954.4260, 40274.00
955.5460, 35614.00
956.6650, 31305.00
957.7850, 27751.00
958.9040, 24746.00
960.0230, 22589.00
961.1420, 20626.00
962.2610, 19075.00
963.3800, 18113.00
964.4990, 17153.00
965.6170, 16649.00
966.7350, 16159.00
967.8530, 15638.00
968.9710, 15383.00
970.0890, 15008.00
971.2070, 14894.00
972.3240, 14403.00
973.4410, 14498.00
974.5580, 14246.00
975.6750, 14289.00
976.7920, 14193.00
977.9090, 13943.00
979.0250, 13778.00
980.1410, 13680.48
981.2580, 13567.80
982.3740, 13551.00
983.4890, 13475.00
984.6050, 13448.80
985.7200, 13426.87
986.8360, 13429.00
987.9510, 13401.00
989.0660, 13422.00
990.1810, 13427.00
991.2950, 13538.00
992.4100, 13445.00
993.5240, 13606.00
994.6390, 13762.00
995.7530, 13944.00
996.8660, 14206.00
997.9800, 14474.00
999.0940, 14968.00
1000.207, 15062.00
1001.320, 15438.00
1002.433, 15764.00
1003.546, 15769.00
1004.659, 15603.00
1005.772, 15449.00
1006.884, 15277.00
1007.996, 14829.00
1009.108, 14633.00
1010.220, 14527.00
1011.332, 14355.00
1012.444, 14211.00
1013.555, 14333.00
1014.666, 14459.00
1015.777, 14412.00
1016.888, 14525.00
1017.999, 14517.00
1019.110, 14575.00
1020.220, 14422.00
1021.331, 14433.00
1022.441, 14224.00
1023.551, 14103.00
1024.661, 13906.00
1025.770, 13888.00
1026.880, 13860.00
1027.989, 13747.00
1029.098, 13655.00
1030.207, 13552.00
1031.316, 13452.00
1032.425, 13654.00
1033.533, 13589.00
1034.642, 13668.00
1035.750, 13574.00
1036.858, 13459.00
1037.966, 13448.00
1039.073, 13350.00
1040.181, 13396.00
1041.288, 13432.00
1042.396, 13446.00
1043.503, 13571.00
1044.610, 13527.00
1045.716, 13569.00
1046.823, 13602.00
1047.929, 13556.00
1049.036, 13665.00
1050.142, 13946.00
1051.248, 13879.00
1052.353, 14299.00
1053.459, 14411.00
1054.564, 14817.00
1055.670, 15291.00
1056.775, 16063.00
1057.880, 16778.00
1058.985, 17622.00
1060.089, 18658.00
1061.194, 19680.00
1062.298, 20171.00
1063.402, 20806.00
1064.506, 20877.00
1065.610, 20434.00
1066.713, 19355.00
1067.817, 18306.00
1068.920, 17444.00
1070.023, 16493.00
1071.126, 15758.00
1072.229, 15203.00
1073.332, 14841.00
1074.435, 14529.00
1075.537, 14162.00
1076.639, 14007.00
1077.741, 13810.00
1078.843, 13657.00
1079.945, 13602.00
1081.046, 13499.14
1082.148, 13360.00
1083.249, 13439.00
1084.350, 13389.00
1085.451, 13425.00
1086.551, 13371.00
1087.652, 13361.00
1088.752, 13325.00
1089.853, 13178.00
1090.953, 13253.00
1092.053, 13159.00
1093.152, 13235.00
1094.252, 13090.00
1095.351, 13164.00
1096.451, 13314.00
1097.550, 13308.00
1098.649, 13224.00
1099.748, 13298.00
1100.846, 13288.00
1101.945, 13348.00
1103.043, 13436.00
1104.141, 13528.00
1105.239, 13432.00
1106.337, 13606.00
1107.434, 13673.00
1108.532, 13490.00
1109.629, 13595.00
1110.726, 13576.00
1111.823, 13626.00
1112.920, 13452.00
1114.017, 13493.00
1115.113, 13237.00
1116.210, 13274.00
1117.306, 13332.00
1118.402, 13323.00
1119.498, 13276.00
1120.593, 13314.00
1121.689, 13355.00
1122.784, 13283.00
1123.879, 13493.00
1124.974, 13334.00
1126.069, 13215.00
1127.164, 13266.00
1128.259, 13342.00
1129.353, 13121.00
1130.447, 13341.00
1131.541, 13326.00
1132.635, 13346.00
1133.729, 13350.00
1134.822, 13376.00
1135.916, 13252.00
1137.009, 13377.00
1138.102, 13338.00
1139.195, 13303.00
1140.288, 13497.00
1141.380, 13397.00
1142.473, 13351.00
1143.565, 13382.00
1144.657, 13366.00
1145.749, 13283.00
1146.841, 13487.00
1147.932, 13344.00
1149.024, 13514.00
1150.115, 13427.00
1151.206, 13642.00
1152.297, 13534.00
1153.388, 13478.00
1154.479, 13457.00
1155.569, 13424.00
1156.659, 13609.00
1157.750, 13666.00
1158.839, 13540.00
1159.929, 13486.00
1161.019, 13456.00
1162.108, 13481.00
1163.198, 13506.00
1164.287, 13489.00
1165.376, 13464.00
1166.465, 13478.00
1167.553, 13461.68
1168.642, 13426.00
1169.730, 13475.00
1170.818, 13413.00
1171.906, 13458.00
1172.994, 13507.00
1174.082, 13383.00
1175.170, 13602.00
1176.257, 13511.00
1177.344, 13465.00
1178.431, 13501.00
1179.518, 13491.00
1180.605, 13635.00
1181.691, 13635.00
1182.778, 13611.00
1183.864, 13590.00
1184.950, 13606.00
1186.036, 13543.00
1187.122, 13611.00
1188.207, 13678.00
1189.292, 13713.00
1190.378, 13666.00
1191.463, 13697.00
1192.548, 13649.00
1193.632, 13615.00
1194.717, 13574.00
1195.801, 13704.00
1196.886, 13682.00
1197.970, 13537.00
1199.054, 13734.00
1200.137, 13714.00
1201.221, 13551.00
1202.305, 13613.00
1203.388, 13751.00
1204.471, 13612.00
1205.554, 13759.00
1206.637, 13653.00
1207.719, 13640.00
1208.802, 13683.00
1209.884, 13625.00
1210.966, 13574.00
1212.048, 13516.00
1213.130, 13576.00
1214.212, 13591.00
1215.293, 13611.00
1216.374, 13550.00
1217.456, 13597.00
1218.536, 13540.00
1219.617, 13647.00
1220.698, 13720.00
1221.778, 13599.00
1222.859, 13650.00
1223.939, 13763.00
1225.019, 13600.00
1226.099, 13645.00
1227.178, 13675.00
1228.258, 13673.00
1229.337, 13727.00
1230.417, 13713.42
1231.496, 13715.91
1232.574, 13655.00
1233.653, 13721.00
1234.732, 13594.00
1235.810, 13642.00
1236.888, 13687.00
1237.966, 13618.00
1239.044, 13599.00
1240.122, 13594.60
1241.199, 13598.04
1242.277, 13600.00
1243.354, 13672.00
1244.431, 13761.00
1245.508, 13840.00
1246.585, 13787.00
1247.661, 13721.00
1248.738, 13762.00
1249.814, 13715.00
1250.890, 13780.00
1251.966, 13739.00
1253.042, 13752.00
1254.117, 13756.00
1255.193, 13767.00
1256.268, 13860.00
1257.343, 13786.00
1258.418, 13866.00
1259.493, 13759.00
1260.567, 13682.00
1261.642, 13767.00
1262.716, 13739.00
1263.790, 13839.00
1264.864, 13881.00
1265.938, 13842.00
1267.011, 13803.00
1268.085, 13770.00
1269.158, 13663.00
1270.231, 13801.00
1271.304, 13792.00
1272.377, 13668.00
1273.450, 13900.00
1274.522, 13912.00
1275.594, 13859.00
1276.666, 13997.00
1277.738, 13805.00
1278.810, 13830.00
1279.882, 13868.00
1280.953, 13948.00
1282.025, 13872.00
1283.096, 13875.00
1284.167, 13774.00
1285.238, 13778.28
1286.308, 13858.00
1287.379, 13801.00
1288.449, 13817.00
1289.519, 13912.00
1290.589, 13874.00
1291.659, 13918.00
1292.729, 13988.00
1293.798, 13883.00
1294.868, 14004.00
1295.937, 14070.00
1297.006, 13921.00
1298.075, 13950.00
1299.143, 14069.00
1300.212, 13958.00
1301.280, 14038.00
1302.348, 13885.00
1303.416, 14097.00
1304.484, 13888.00
1305.552, 13951.00
1306.620, 13848.00
1307.687, 13884.00
1308.754, 13915.00
1309.821, 13949.00
1310.888, 13987.05
1311.955, 13989.30
1313.021, 14063.00
1314.088, 14004.00
1315.154, 14032.00
1316.220, 14070.00
1317.286, 14043.48
1318.352, 13984.00
1319.417, 14035.00
1320.483, 14038.00
1321.548, 14019.00
1322.613, 14099.00
1323.678, 14099.59
1324.743, 14057.00
1325.807, 14144.00
1326.872, 14074.00
1327.936, 14044.00
1329.000, 14112.00
1330.064, 14026.00
1331.128, 14067.00
1332.191, 14126.00
1333.255, 14058.00
1334.318, 14077.00
1335.381, 14162.00
1336.444, 13966.00
1337.507, 14195.00
1338.569, 14139.00
1339.632, 14043.00
1340.694, 14063.00
1341.756, 14108.00
1342.818, 14107.00
1343.880, 14116.30
1344.941, 14153.19
1346.003, 14111.00
1347.064, 14205.00
1348.125, 14216.00
1349.186, 14222.00
1350.247, 14322.00
1351.308, 14339.00
1352.368, 14362.00
1353.428, 14119.00
1354.489, 14336.00
1355.549, 14283.00
1356.608, 14372.00
1357.668, 14417.00
1358.727, 14443.00
1359.787, 14407.00
1360.846, 14461.00
1361.905, 14362.00
1362.964, 14310.00
1364.022, 14386.00
1365.081, 14457.00
1366.139, 14559.00
1367.197, 14543.00
1368.255, 14581.00
1369.313, 14576.57
1370.371, 14623.00
1371.428, 14537.00
1372.486, 14550.00
1373.543, 14544.00
1374.600, 14375.00
1375.657, 14468.00
1376.713, 14621.00
1377.770, 14487.00
1378.826, 14509.00
1379.882, 14522.00
1380.938, 14608.00
1381.994, 14522.00
1383.050, 14598.00
1384.106, 14618.00
1385.161, 14620.00
1386.216, 14522.00
1387.271, 14518.00
1388.326, 14536.00
1389.381, 14494.00
1390.435, 14503.12
1391.490, 14495.41
1392.544, 14510.00
1393.598, 14461.00
1394.652, 14505.00
1395.705, 14437.27
1396.759, 14608.00
1397.812, 14494.00
1398.866, 14506.00
1399.919, 14622.00
1400.972, 14612.00
1402.024, 14558.00
1403.077, 14537.00
1404.129, 14612.00
1405.181, 14676.00
1406.233, 14481.00
1407.285, 14699.00
1408.337, 14488.00
1409.389, 14700.00
1410.440, 14714.00
1411.491, 14831.00
1412.542, 14577.00
1413.593, 14541.00
1414.644, 14659.00
1415.695, 14726.00
1416.745, 14652.00
1417.795, 14695.00
1418.845, 14763.00
1419.895, 14674.00
1420.945, 14707.00
1421.995, 14782.00
1423.044, 14713.00
1424.093, 14764.00
1425.142, 14789.00
1426.191, 14779.00
1427.240, 14853.00
1428.289, 14738.00
1429.337, 14902.00
1430.385, 14813.00
1431.433, 14770.00
1432.481, 14771.00
1433.529, 14873.00
1434.577, 14988.00
1435.624, 14970.00
1436.672, 14827.00
1437.719, 14958.00
1438.766, 14995.00
1439.812, 15105.00
1440.859, 14964.00
1441.905, 14996.00
1442.952, 14955.00
1443.998, 14953.63
1445.044, 14903.00
1446.090, 14999.00
1447.135, 15030.00
1448.181, 15043.00
1449.226, 15061.00
1450.271, 15089.03
1451.316, 15109.75
1452.361, 15110.00
1453.405, 15148.00
1454.450, 15094.00
1455.494, 15075.00
1456.538, 15183.00
1457.582, 15134.00
1458.626, 14965.00
1459.670, 14978.00
1460.713, 15065.00
1461.757, 15122.00
1462.800, 15268.00
1463.843, 15119.00
1464.886, 15097.00
1465.928, 15179.00
1466.971, 15188.00
1468.013, 15157.00
1469.055, 15093.00
1470.097, 15189.00
1471.139, 15372.00
1472.181, 15185.00
1473.222, 15262.00
1474.263, 15247.00
1475.305, 15117.00
1476.346, 15127.00
1477.386, 15204.00
1478.427, 15143.00
1479.468, 15188.00
1480.508, 15246.00
1481.548, 15078.00
1482.588, 15150.00
1483.628, 15098.00
1484.668, 15134.00
1485.707, 15125.53
1486.747, 15171.00
1487.786, 15113.00
1488.825, 15124.00
1489.864, 15143.00
1490.902, 15087.00
1491.941, 15223.00
1492.979, 15212.00
1494.017, 15087.00
1495.055, 15202.00
1496.093, 15136.00
1497.131, 15292.00
1498.168, 15268.00
1499.206, 15227.00
1500.243, 15155.00
1501.280, 15160.60
1502.317, 15221.00
1503.354, 15165.00
1504.390, 15281.00
1505.426, 15327.00
1506.463, 15401.00
1507.499, 15377.00
1508.535, 15307.00
1509.570, 15442.00
1510.606, 15477.00
1511.641, 15255.00
1512.676, 15272.00
1513.711, 15356.00
1514.746, 15334.00
1515.781, 15491.00
1516.816, 15390.00
1517.850, 15521.00
1518.884, 15427.38
1519.918, 15541.00
1520.952, 15310.00
1521.986, 15519.00
1523.019, 15632.00
1524.053, 15397.00
1525.086, 15341.00
1526.119, 15598.00
1527.152, 15528.00
1528.185, 15446.00
1529.217, 15573.00
1530.250, 15463.00
1531.282, 15518.00
1532.314, 15526.00
1533.346, 15522.00
1534.377, 15499.00
1535.409, 15558.00
1536.440, 15468.00
1537.472, 15553.00
1538.503, 15570.00
1539.534, 15620.00
1540.564, 15592.00
1541.595, 15522.00
1542.625, 15597.00
1543.656, 15549.00
1544.686, 15694.00
1545.716, 15381.00
1546.745, 15349.00
1547.775, 15536.00
1548.804, 15617.00
1549.834, 15717.00
1550.863, 15823.00
1551.892, 15808.00
1552.920, 15842.00
1553.949, 15816.00
1554.977, 15960.00
1556.006, 15710.00
1557.034, 15755.00
1558.062, 15574.00
1559.089, 15719.00
1560.117, 15760.00
1561.144, 15834.00
1562.172, 15666.00
1563.199, 15660.00
1564.226, 15623.00
1565.252, 15831.00
1566.279, 15689.00
1567.305, 15701.00
1568.332, 15649.00
1569.358, 15886.00
1570.384, 15808.00
##END=



