##NAMES=Andalusite
##RRUFFID=R050258
##IDEAL CHEMISTRY=Al_2_SiO_5_
##LOCALITY=Bautista Canyon, near Hemet, Riverside County, California, USA
##OWNER=RRUFF
##SOURCE=Marcus Origlieri
##DESCRIPTION=Brown fragment
##STATUS=The identification of this mineral has been confirmed by X-ray diffraction and chemical analysis
##URL=rruff.info/R050258
##MEASURED CHEMISTRY=Al_2.00_Si_1.00_O_5_
##PIN_ID=L01170
##ORIENTATION=Laser parallel to a* (1 0 0). Fiducial mark perpendicular to laser is parallel to -b [0 -1 0]
113.2080, 13797.00
114.4400, 13773.00
115.6710, 14071.00
116.9030, 13997.00
118.1340, 14134.00
119.3650, 14292.00
120.5960, 14166.00
121.8270, 14192.00
123.0580, 14385.00
124.2880, 14368.00
125.5190, 14646.00
126.7490, 14555.00
127.9790, 14638.00
129.2090, 14729.00
130.4390, 14786.00
131.6680, 14902.00
132.8980, 14924.00
134.1270, 15130.00
135.3560, 15107.00
136.5850, 15074.00
137.8140, 15186.00
139.0430, 15097.00
140.2710, 15344.00
141.5000, 15392.00
142.7280, 15279.00
143.9560, 15507.00
145.1840, 15414.00
146.4120, 15393.00
147.6390, 15503.00
148.8670, 15663.00
150.0940, 15637.00
151.3210, 15728.00
152.5490, 15708.00
153.7750, 15790.00
155.0020, 15794.15
156.2290, 15806.00
157.4550, 15813.00
158.6810, 15872.00
159.9080, 15892.00
161.1340, 16033.00
162.3590, 16037.00
163.5850, 15908.00
164.8110, 16080.00
166.0360, 16054.00
167.2610, 16247.00
168.4860, 16160.00
169.7110, 16251.00
170.9360, 16306.00
172.1610, 16205.00
173.3850, 16204.00
174.6100, 16295.00
175.8340, 16275.39
177.0580, 16459.00
178.2820, 16379.00
179.5050, 16411.00
180.7290, 16489.00
181.9520, 16626.00
183.1760, 16694.00
184.3990, 16495.00
185.6220, 16657.00
186.8450, 16697.00
188.0670, 16969.00
189.2900, 16892.00
190.5120, 16987.00
191.7340, 17020.00
192.9560, 17090.00
194.1780, 17096.00
195.4000, 17019.00
196.6220, 17196.00
197.8430, 17341.00
199.0640, 17220.00
200.2860, 17094.00
201.5070, 17161.00
202.7270, 17354.00
203.9480, 17394.00
205.1690, 17393.00
206.3890, 17406.00
207.6090, 17279.00
208.8290, 17382.00
210.0490, 17248.00
211.2690, 17044.00
212.4890, 17128.00
213.7080, 17238.00
214.9280, 17190.00
216.1470, 17387.00
217.3660, 17386.00
218.5850, 17564.00
219.8030, 17337.00
221.0220, 17310.00
222.2400, 17412.00
223.4590, 17386.00
224.6770, 17540.00
225.8950, 17418.00
227.1120, 17548.00
228.3300, 17505.00
229.5480, 17666.00
230.7650, 17755.00
231.9820, 17746.00
233.1990, 17878.00
234.4160, 17871.00
235.6330, 18057.00
236.8490, 18075.00
238.0660, 18194.00
239.2820, 18296.00
240.4980, 18249.00
241.7140, 18407.00
242.9300, 18312.00
244.1460, 18301.00
245.3610, 18363.00
246.5770, 18343.00
247.7920, 18386.00
249.0070, 18312.00
250.2220, 18494.00
251.4370, 18313.00
252.6510, 18272.00
253.8660, 18472.00
255.0800, 18379.00
256.2940, 18502.00
257.5080, 18549.00
258.7220, 18527.00
259.9360, 18540.00
261.1490, 18708.00
262.3630, 18927.00
263.5760, 18906.00
264.7890, 18899.00
266.0020, 18893.00
267.2150, 19022.00
268.4270, 19053.00
269.6400, 19267.00
270.8520, 19297.00
272.0640, 19493.00
273.2760, 19947.00
274.4880, 20106.00
275.7000, 20617.00
276.9120, 20986.00
278.1230, 21295.00
279.3340, 21547.00
280.5450, 21972.00
281.7560, 22818.00
282.9670, 23626.00
284.1780, 24983.00
285.3880, 26315.00
286.5980, 27848.00
287.8090, 29896.00
289.0190, 32001.00
290.2290, 34472.00
291.4380, 36549.00
292.6480, 36971.00
293.8570, 35446.00
295.0670, 33645.00
296.2760, 30871.00
297.4850, 28333.00
298.6930, 26259.00
299.9020, 24518.19
301.1110, 22973.00
302.3190, 22137.00
303.5270, 21513.00
304.7350, 21239.00
305.9430, 21084.00
307.1510, 20855.00
308.3580, 20569.00
309.5660, 20565.00
310.7730, 21068.00
311.9800, 21193.00
313.1870, 21727.00
314.3940, 22376.00
315.6010, 23059.00
316.8070, 23749.00
318.0130, 24999.00
319.2200, 26301.00
320.4260, 27756.00
321.6310, 28618.00
322.8370, 27980.00
324.0430, 27425.00
325.2480, 26291.00
326.4540, 25214.00
327.6590, 24196.00
328.8640, 23500.00
330.0680, 22780.00
331.2730, 22618.00
332.4780, 22375.00
333.6820, 22310.00
334.8860, 22278.00
336.0900, 22201.00
337.2940, 22160.00
338.4980, 22024.00
339.7010, 22253.00
340.9050, 22006.00
342.1080, 21918.00
343.3110, 21687.00
344.5140, 21806.00
345.7170, 21821.00
346.9200, 21798.00
348.1220, 22179.00
349.3240, 22034.00
350.5270, 22635.00
351.7290, 23045.00
352.9310, 23587.00
354.1320, 24265.00
355.3340, 25058.00
356.5350, 25867.00
357.7370, 26870.00
358.9380, 27051.00
360.1390, 27212.00
361.3400, 26708.00
362.5400, 25817.00
363.7410, 25316.00
364.9410, 24442.00
366.1410, 23682.00
367.3410, 23050.00
368.5410, 22697.00
369.7410, 22368.00
370.9400, 22176.00
372.1400, 22101.00
373.3390, 21878.00
374.5380, 21686.00
375.7370, 21756.00
376.9360, 21686.00
378.1350, 21581.00
379.3330, 21491.00
380.5310, 21494.00
381.7300, 21484.82
382.9280, 21377.00
384.1260, 21560.00
385.3230, 21573.00
386.5210, 21595.88
387.7180, 21600.73
388.9160, 21577.00
390.1130, 21528.00
391.3100, 21532.00
392.5060, 21555.00
393.7030, 21493.18
394.9000, 21477.58
396.0960, 21414.00
397.2920, 21434.00
398.4880, 21425.00
399.6840, 21508.00
400.8800, 21523.08
402.0750, 21583.89
403.2710, 21592.00
404.4660, 21682.00
405.6610, 21686.00
406.8560, 21668.00
408.0510, 21676.00
409.2450, 21831.00
410.4400, 21671.00
411.6340, 21878.00
412.8280, 22063.00
414.0220, 22085.00
415.2160, 22081.00
416.4100, 22236.00
417.6030, 22239.00
418.7970, 22465.00
419.9900, 22333.00
421.1830, 22464.00
422.3760, 22175.00
423.5690, 22085.00
424.7610, 22085.00
425.9540, 22272.00
427.1460, 22133.00
428.3380, 22224.00
429.5300, 22157.04
430.7220, 22135.80
431.9140, 22031.00
433.1050, 22049.00
434.2970, 22073.00
435.4880, 21921.00
436.6790, 22074.00
437.8700, 22109.00
439.0610, 22196.00
440.2510, 22178.00
441.4420, 22213.00
442.6320, 22192.00
443.8220, 22122.00
445.0120, 22474.00
446.2020, 22661.00
447.3910, 22566.00
448.5810, 22654.00
449.7700, 22688.00
450.9600, 23013.00
452.1490, 23050.00
453.3370, 23041.00
454.5260, 22927.00
455.7150, 22916.00
456.9030, 23008.00
458.0910, 22762.00
459.2800, 22718.00
460.4670, 22613.00
461.6550, 22715.00
462.8430, 22810.00
464.0300, 22753.00
465.2180, 22715.00
466.4050, 22753.00
467.5920, 22756.00
468.7790, 22964.00
469.9650, 23088.00
471.1520, 23082.00
472.3380, 23054.00
473.5250, 23043.00
474.7110, 23042.47
475.8970, 23019.00
477.0820, 23065.00
478.2680, 23194.00
479.4540, 23256.00
480.6390, 23149.00
481.8240, 23336.00
483.0090, 23307.00
484.1940, 23439.00
485.3780, 23363.00
486.5630, 23237.00
487.7470, 23406.00
488.9320, 23428.00
490.1160, 23214.00
491.3000, 23446.00
492.4830, 23382.00
493.6670, 23471.00
494.8500, 23608.00
496.0340, 23477.00
497.2170, 23379.00
498.4000, 23405.00
499.5820, 23510.00
500.7650, 23420.00
501.9480, 23617.00
503.1300, 23584.00
504.3120, 23463.00
505.4940, 23744.00
506.6760, 23716.00
507.8580, 24119.00
509.0390, 23728.00
510.2210, 23822.00
511.4020, 23988.00
512.5830, 23934.00
513.7640, 23761.00
514.9450, 24068.00
516.1250, 23857.00
517.3060, 24067.00
518.4860, 24033.00
519.6660, 24072.00
520.8460, 24079.00
522.0260, 24193.00
523.2060, 24177.29
524.3850, 24167.00
525.5650, 24168.00
526.7440, 24130.00
527.9230, 24057.00
529.1020, 24391.00
530.2810, 24233.00
531.4590, 24382.00
532.6380, 24338.00
533.8160, 24437.00
534.9940, 24464.00
536.1720, 24544.00
537.3500, 24591.00
538.5270, 24670.20
539.7050, 24805.00
540.8820, 24897.00
542.0590, 25220.00
543.2360, 25477.00
544.4130, 25524.00
545.5900, 25989.00
546.7660, 26774.00
547.9430, 27077.00
549.1190, 27256.00
550.2950, 27482.00
551.4710, 27501.68
552.6470, 27497.14
553.8220, 27358.00
554.9980, 27155.00
556.1730, 26865.00
557.3480, 26349.00
558.5230, 26001.00
559.6980, 25894.00
560.8730, 25787.00
562.0470, 25735.00
563.2220, 25801.00
564.3960, 25541.00
565.5700, 25697.00
566.7440, 25582.00
567.9170, 25605.00
569.0910, 25584.00
570.2640, 25602.00
571.4380, 25657.00
572.6110, 25667.00
573.7840, 25736.00
574.9570, 25885.00
576.1290, 25661.00
577.3020, 25722.00
578.4740, 25764.00
579.6460, 25637.00
580.8180, 25701.00
581.9900, 25768.00
583.1620, 25639.00
584.3330, 25531.00
585.5040, 25498.00
586.6760, 25629.00
587.8470, 25771.00
589.0180, 25768.00
590.1880, 25796.00
591.3590, 25824.96
592.5290, 25748.00
593.7000, 25798.00
594.8700, 25815.00
596.0400, 25762.00
597.2090, 25860.63
598.3790, 25902.00
599.5490, 26022.00
600.7180, 26135.00
601.8870, 26256.00
603.0560, 26342.88
604.2250, 26259.00
605.3940, 26461.00
606.5620, 26482.00
607.7300, 26428.00
608.8990, 26516.00
610.0670, 26547.00
611.2350, 26468.00
612.4020, 26393.00
613.5700, 26298.00
614.7370, 26347.00
615.9050, 26331.58
617.0720, 26403.05
618.2390, 26416.00
619.4060, 26586.00
620.5720, 26643.00
621.7390, 26701.00
622.9050, 26624.00
624.0710, 26637.00
625.2370, 26570.00
626.4030, 26508.00
627.5690, 26621.00
628.7340, 26884.00
629.9000, 26859.00
631.0650, 26923.00
632.2300, 26980.00
633.3950, 27034.00
634.5600, 26850.00
635.7240, 27103.00
636.8890, 26861.00
638.0530, 26921.00
639.2170, 26900.00
640.3810, 27032.00
641.5450, 27174.00
642.7080, 26879.00
643.8720, 26854.00
645.0350, 27271.00
646.1980, 27288.00
647.3610, 27073.00
648.5240, 27182.00
649.6870, 27287.00
650.8490, 27244.00
652.0120, 27323.00
653.1740, 27090.00
654.3360, 27480.00
655.4980, 27202.00
656.6600, 27403.00
657.8210, 27330.00
658.9830, 27279.00
660.1440, 27514.00
661.3050, 27699.00
662.4660, 27395.00
663.6270, 27652.00
664.7870, 27654.00
665.9480, 27521.00
667.1080, 27737.00
668.2680, 27507.00
669.4280, 27630.00
670.5880, 27735.00
671.7480, 27675.00
672.9070, 27630.00
674.0670, 27815.00
675.2260, 27508.00
676.3850, 27874.00
677.5440, 27627.00
678.7030, 27683.00
679.8610, 27807.00
681.0200, 27958.00
682.1780, 27737.00
683.3360, 27640.00
684.4940, 27925.00
685.6520, 27961.00
686.8090, 28258.00
687.9670, 28021.00
689.1240, 27990.00
690.2810, 28041.00
691.4380, 28211.00
692.5950, 28072.00
693.7520, 27967.00
694.9080, 28398.00
696.0650, 27979.00
697.2210, 28188.00
698.3770, 28405.00
699.5330, 28357.00
700.6880, 28622.00
701.8440, 28394.00
702.9990, 28591.00
704.1550, 28223.00
705.3100, 28586.00
706.4650, 28703.00
707.6190, 28803.00
708.7740, 28619.00
709.9290, 28719.00
711.0830, 28891.00
712.2370, 28967.00
713.3910, 29140.00
714.5450, 29401.00
715.6980, 29373.00
716.8520, 29542.00
718.0050, 29560.00
719.1580, 29626.00
720.3110, 29592.00
721.4640, 29538.00
722.6170, 29705.00
723.7700, 29505.00
724.9220, 29375.00
726.0740, 29369.00
727.2260, 29440.00
728.3780, 29247.00
729.5300, 29394.00
730.6810, 29302.00
731.8330, 29013.00
732.9840, 29116.00
734.1350, 29263.00
735.2860, 29289.00
736.4370, 29309.00
737.5880, 29287.00
738.7380, 29359.00
739.8880, 29562.00
741.0390, 29419.00
742.1890, 29705.00
743.3380, 29418.00
744.4880, 29409.00
745.6380, 29478.00
746.7870, 29446.00
747.9360, 29649.00
749.0850, 29422.00
750.2340, 29729.00
751.3830, 29693.00
752.5310, 29656.00
753.6800, 29768.00
754.8280, 29745.00
755.9760, 29747.35
757.1240, 29856.00
758.2720, 29759.00
759.4190, 29826.00
760.5670, 29914.00
761.7140, 30042.00
762.8610, 30011.00
764.0080, 30081.30
765.1550, 30009.00
766.3020, 30067.00
767.4480, 30082.00
768.5950, 29969.00
769.7410, 30112.00
770.8870, 30191.00
772.0330, 30098.00
773.1780, 30143.00
774.3240, 30198.00
775.4690, 30336.00
776.6140, 30192.00
777.7590, 30425.00
778.9040, 30610.00
780.0490, 30323.00
781.1940, 30589.00
782.3380, 30478.00
783.4820, 30594.00
784.6260, 30441.00
785.7700, 30717.00
786.9140, 30937.00
788.0580, 30736.00
789.2010, 30729.00
790.3450, 30799.00
791.4880, 30833.00
792.6310, 31053.00
793.7730, 31050.71
794.9160, 30976.00
796.0590, 31150.00
797.2010, 31054.00
798.3430, 31090.00
799.4850, 31177.00
800.6270, 31176.00
801.7690, 31250.00
802.9100, 31248.00
804.0520, 31295.00
805.1930, 31201.00
806.3340, 31251.00
807.4750, 31450.00
808.6160, 31619.00
809.7560, 31258.00
810.8970, 31417.00
812.0370, 31629.00
813.1770, 31520.00
814.3170, 31771.00
815.4570, 31618.00
816.5960, 31567.00
817.7360, 32064.00
818.8750, 31868.00
820.0140, 31651.00
821.1530, 31951.00
822.2920, 31862.00
823.4310, 31928.00
824.5690, 31835.00
825.7070, 32101.00
826.8460, 32018.00
827.9840, 32136.00
829.1220, 32201.00
830.2590, 32247.00
831.3970, 32285.00
832.5340, 32228.00
833.6710, 32380.00
834.8080, 32509.00
835.9450, 32228.00
837.0820, 32275.00
838.2190, 32590.00
839.3550, 32474.00
840.4910, 32253.00
841.6270, 32275.00
842.7630, 32493.00
843.8990, 32197.00
845.0350, 32461.00
846.1700, 32385.00
847.3060, 32207.00
848.4410, 32287.00
849.5760, 32256.59
850.7100, 32317.84
851.8450, 32385.00
852.9800, 32517.00
854.1140, 32650.00
855.2480, 32733.00
856.3820, 32593.00
857.5160, 32664.00
858.6500, 32762.00
859.7830, 32926.00
860.9170, 32746.00
862.0500, 32966.00
863.1830, 32823.00
864.3160, 32966.00
865.4480, 32839.00
866.5810, 32953.00
867.7130, 33139.00
868.8460, 33141.00
869.9780, 33041.00
871.1100, 33118.00
872.2410, 32987.00
873.3730, 33330.00
874.5050, 33276.00
875.6360, 33352.00
876.7670, 33313.00
877.8980, 33327.00
879.0290, 33425.00
880.1590, 33529.00
881.2900, 33390.00
882.4200, 33477.00
883.5500, 33706.00
884.6800, 33528.00
885.8100, 33644.00
886.9400, 33752.00
888.0690, 33783.00
889.1990, 34015.00
890.3280, 34150.00
891.4570, 34098.00
892.5860, 34233.00
893.7140, 34119.00
894.8430, 34495.00
895.9710, 34667.00
897.1000, 34487.00
898.2280, 34722.00
899.3560, 34681.00
900.4830, 35122.00
901.6110, 34873.00
902.7380, 35279.00
903.8660, 35458.00
904.9930, 35734.00
906.1200, 36035.00
907.2460, 36531.00
908.3730, 37034.00
909.5000, 37398.00
910.6260, 38411.00
911.7520, 39432.00
912.8780, 41051.00
914.0040, 43094.00
915.1290, 45156.00
916.2550, 47762.00
917.3800, 50453.00
918.5050, 53438.00
919.6300, 54644.00
920.7550, 54417.00
921.8800, 52715.00
923.0040, 50011.00
924.1290, 47307.00
925.2530, 45159.00
926.3770, 43807.00
927.5010, 42214.00
928.6250, 41547.00
929.7480, 40655.00
930.8720, 40198.00
931.9950, 39587.00
933.1180, 38979.00
934.2410, 38300.00
935.3640, 37834.00
936.4860, 38012.00
937.6090, 37495.00
938.7310, 37824.00
939.8530, 37564.00
940.9750, 38043.00
942.0970, 38160.00
943.2180, 38411.00
944.3400, 38939.00
945.4610, 39535.00
946.5820, 39959.00
947.7030, 40707.00
948.8240, 41413.00
949.9450, 41944.00
951.0650, 41983.00
952.1860, 42045.00
953.3060, 41580.00
954.4260, 40636.00
955.5460, 39930.00
956.6650, 39510.00
957.7850, 38736.00
958.9040, 38295.00
960.0230, 37884.00
961.1420, 37648.00
962.2610, 37174.00
963.3800, 37201.00
964.4990, 37160.00
965.6170, 36720.00
966.7350, 36960.00
967.8530, 36628.00
968.9710, 36428.00
970.0890, 36649.00
971.2070, 36849.00
972.3240, 36700.00
973.4410, 36822.00
974.5580, 36681.00
975.6750, 36988.00
976.7920, 36737.00
977.9090, 36697.00
979.0250, 36860.00
980.1410, 36567.00
981.2580, 36928.00
982.3740, 36730.00
983.4890, 36910.00
984.6050, 36861.00
985.7200, 37164.00
986.8360, 36961.00
987.9510, 37134.00
989.0660, 37193.00
990.1810, 37175.00
991.2950, 37148.00
992.4100, 37150.39
993.5240, 37270.00
994.6390, 37157.00
995.7530, 37142.00
996.8660, 37263.00
997.9800, 37247.71
999.0940, 37482.00
1000.207, 37449.00
1001.320, 37626.00
1002.433, 37877.00
1003.546, 37693.00
1004.659, 37738.00
1005.772, 37975.00
1006.884, 38126.00
1007.996, 38245.00
1009.108, 38533.89
1010.220, 38703.00
1011.332, 39012.00
1012.444, 39215.00
1013.555, 39579.50
1014.666, 39921.12
1015.777, 40405.00
1016.888, 40707.00
1017.999, 41258.00
1019.110, 41705.00
1020.220, 42055.00
1021.331, 42259.00
1022.441, 41524.00
1023.551, 41304.00
1024.661, 40874.00
1025.770, 40208.00
1026.880, 39902.00
1027.989, 39709.00
1029.098, 39392.00
1030.207, 39480.00
1031.316, 39350.00
1032.425, 39350.00
1033.533, 38952.00
1034.642, 39114.00
1035.750, 39011.00
1036.858, 38746.00
1037.966, 39312.00
1039.073, 39122.00
1040.181, 38932.00
1041.288, 39087.00
1042.396, 39061.00
1043.503, 39031.00
1044.610, 39187.00
1045.716, 39352.00
1046.823, 39171.00
1047.929, 39260.00
1049.036, 39505.00
1050.142, 39681.00
1051.248, 39573.00
1052.353, 39489.00
1053.459, 39755.00
1054.564, 39827.00
1055.670, 40083.00
1056.775, 40166.00
1057.880, 40739.00
1058.985, 41097.00
1060.089, 41452.00
1061.194, 42125.00
1062.298, 42590.00
1063.402, 43554.00
1064.506, 44085.00
1065.610, 44595.00
1066.713, 44663.00
1067.817, 44429.00
1068.920, 43542.00
1070.023, 42624.00
1071.126, 42354.00
1072.229, 41703.00
1073.332, 41212.00
1074.435, 41020.00
1075.537, 40791.00
1076.639, 40418.00
1077.741, 40480.00
1078.843, 40672.00
1079.945, 40506.00
1081.046, 40543.00
1082.148, 40593.00
1083.249, 40511.00
1084.350, 40430.00
1085.451, 40174.00
1086.551, 40409.00
1087.652, 40236.00
1088.752, 40321.00
1089.853, 40582.00
1090.953, 40837.00
1092.053, 40692.00
1093.152, 40549.00
1094.252, 40638.00
1095.351, 40597.38
1096.451, 40565.00
1097.550, 40757.00
1098.649, 40846.00
1099.748, 41018.00
1100.846, 41032.00
1101.945, 41328.00
1103.043, 41138.00
1104.141, 41488.00
1105.239, 41760.00
1106.337, 42086.00
1107.434, 42039.00
1108.532, 42150.00
1109.629, 42270.00
1110.726, 42592.00
1111.823, 42681.00
1112.920, 42527.00
1114.017, 42345.00
1115.113, 42147.00
1116.210, 42140.00
1117.306, 42009.00
1118.402, 41945.00
1119.498, 41736.00
1120.593, 41901.00
1121.689, 42081.00
1122.784, 41776.00
1123.879, 42013.00
1124.974, 41726.00
1126.069, 41562.00
1127.164, 41593.00
1128.259, 41815.00
1129.353, 41894.00
1130.447, 41803.00
1131.541, 41890.25
1132.635, 41876.00
1133.729, 41861.00
1134.822, 41861.00
1135.916, 41881.00
1137.009, 41821.00
1138.102, 42103.00
1139.195, 42024.00
1140.288, 42190.00
1141.380, 42159.00
1142.473, 42007.00
1143.565, 42182.00
1144.657, 42216.00
1145.749, 42147.00
1146.841, 42122.00
1147.932, 42083.00
1149.024, 42103.97
1150.115, 42318.00
1151.206, 42280.00
1152.297, 42414.13
1153.388, 42362.00
1154.479, 42587.00
1155.569, 42514.00
1156.659, 42549.00
1157.750, 42483.00
1158.839, 42480.00
1159.929, 42377.00
1161.019, 42500.54
1162.108, 42607.00
1163.198, 42773.00
1164.287, 42891.00
1165.376, 43081.00
1166.465, 42954.00
1167.553, 43037.00
1168.642, 42748.00
1169.730, 43120.00
1170.818, 42852.00
1171.906, 43173.00
1172.994, 43279.00
1174.082, 43351.00
1175.170, 43290.00
1176.257, 43427.00
1177.344, 43278.00
1178.431, 42972.00
1179.518, 43388.00
1180.605, 43357.00
1181.691, 43329.00
1182.778, 43583.00
1183.864, 43393.00
1184.950, 43446.00
1186.036, 43519.00
1187.122, 43690.00
1188.207, 43671.00
1189.292, 43818.00
1190.378, 43656.00
1191.463, 43625.00
1192.548, 43888.00
1193.632, 44037.00
1194.717, 43780.00
1195.801, 43707.00
1196.886, 43807.00
1197.970, 43899.00
1199.054, 44149.00
1200.137, 44198.00
1201.221, 44267.36
1202.305, 44313.00
1203.388, 44275.00
1204.471, 44312.00
1205.554, 44227.00
1206.637, 44289.00
1207.719, 44316.00
1208.802, 44254.00
1209.884, 44498.00
1210.966, 44383.00
1212.048, 44392.00
1213.130, 44603.00
1214.212, 44503.00
1215.293, 44515.00
1216.374, 44793.00
1217.456, 44555.00
1218.536, 44497.00
1219.617, 44631.00
1220.698, 44585.83
1221.778, 44730.00
1222.859, 44831.00
1223.939, 44898.00
1225.019, 45169.00
1226.099, 44820.00
1227.178, 44883.00
1228.258, 45045.00
1229.337, 45084.00
1230.417, 44973.00
1231.496, 45264.00
1232.574, 45298.00
1233.653, 45114.00
1234.732, 45147.00
1235.810, 45421.00
1236.888, 45418.00
1237.966, 45325.00
1239.044, 45501.00
1240.122, 45467.00
1241.199, 45685.00
1242.277, 45511.00
1243.354, 45578.00
1244.431, 45888.00
1245.508, 45567.00
1246.585, 45806.00
1247.661, 45542.00
1248.738, 45626.00
1249.814, 45980.00
1250.890, 45742.00
1251.966, 45862.00
1253.042, 45629.00
1254.117, 46061.00
1255.193, 45972.00
1256.268, 46098.00
1257.343, 46423.00
1258.418, 46156.00
1259.493, 46149.00
1260.567, 46169.00
1261.642, 46320.00
1262.716, 46150.00
1263.790, 46417.00
1264.864, 46484.00
1265.938, 46355.00
1267.011, 46601.00
1268.085, 46351.00
1269.158, 46685.00
1270.231, 46428.00
1271.304, 46638.00
1272.377, 46629.00
1273.450, 46781.00
1274.522, 46612.00
1275.594, 46708.00
1276.666, 46847.00
1277.738, 47065.00
1278.810, 46964.00
1279.882, 47089.00
1280.953, 46995.00
1282.025, 47172.00
1283.096, 47115.00
1284.167, 47032.00
1285.238, 47061.00
1286.308, 47220.00
1287.379, 47235.00
1288.449, 47066.00
1289.519, 47408.00
1290.589, 47317.00
1291.659, 47702.00
1292.729, 47191.00
1293.798, 47558.00
1294.868, 47634.00
1295.937, 47607.00
1297.006, 47835.00
1298.075, 47635.00
1299.143, 47843.00
1300.212, 47821.82
1301.280, 47782.00
1302.348, 47850.00
1303.416, 47877.00
1304.484, 47911.00
1305.552, 47809.00
1306.620, 47901.00
1307.687, 47908.00
1308.754, 48080.00
1309.821, 47923.00
1310.888, 48083.25
1311.955, 48080.00
1313.021, 48196.00
1314.088, 48280.00
1315.154, 48183.00
1316.220, 48252.00
1317.286, 48231.70
1318.352, 48327.00
1319.417, 48219.00
1320.483, 48304.00
1321.548, 48319.00
1322.613, 48217.00
1323.678, 48231.00
1324.743, 48411.00
1325.807, 48564.00
1326.872, 48616.00
1327.936, 48661.00
1329.000, 48522.00
1330.064, 48727.00
1331.128, 48908.00
1332.191, 48649.00
1333.255, 48667.00
1334.318, 48975.00
1335.381, 48784.00
1336.444, 48877.00
1337.507, 49086.00
1338.569, 49026.00
1339.632, 48865.00
1340.694, 48892.00
1341.756, 49163.00
1342.818, 49018.00
1343.880, 49354.00
1344.941, 48913.00
1346.003, 49169.00
1347.064, 49498.00
1348.125, 49245.00
1349.186, 49125.00
1350.247, 49436.00
1351.308, 49407.00
1352.368, 49389.00
1353.428, 49412.00
1354.489, 49401.37
1355.549, 49463.77
1356.608, 49415.00
1357.668, 49640.00
1358.727, 49655.00
1359.787, 49822.00
1360.846, 49725.00
1361.905, 49889.00
1362.964, 50014.00
1364.022, 50038.00
1365.081, 50117.66
1366.139, 50062.00
1367.197, 50188.00
1368.255, 50067.00
1369.313, 50139.68
1370.371, 50065.00
1371.428, 50086.00
1372.486, 50120.00
1373.543, 50181.00
1374.600, 50191.00
1375.657, 50247.79
1376.713, 50253.73
1377.770, 50344.00
1378.826, 50303.00
1379.882, 50351.00
1380.938, 50460.00
1381.994, 50542.00
1383.050, 50608.00
1384.106, 50566.00
1385.161, 50898.00
1386.216, 50818.00
1387.271, 50633.00
1388.326, 50780.00
1389.381, 50628.00
1390.435, 50766.00
1391.490, 50755.00
1392.544, 50536.00
1393.598, 50893.00
1394.652, 50845.00
1395.705, 50965.00
1396.759, 51359.00
1397.812, 51051.00
1398.866, 51020.00
1399.919, 51168.00
1400.972, 51257.00
1402.024, 51096.00
1403.077, 51279.00
1404.129, 51165.00
1405.181, 51136.00
1406.233, 51323.00
1407.285, 51627.00
1408.337, 51400.00
1409.389, 51524.00
1410.440, 51536.00
1411.491, 51545.00
1412.542, 51664.00
1413.593, 51542.00
1414.644, 51809.00
1415.695, 52035.00
1416.745, 51637.00
1417.795, 51552.00
1418.845, 51720.00
1419.895, 51823.00
1420.945, 51811.86
1421.995, 51780.00
1423.044, 51902.00
1424.093, 51945.00
1425.142, 52071.00
1426.191, 52008.00
1427.240, 52360.00
1428.289, 51933.00
1429.337, 52550.00
1430.385, 52101.00
1431.433, 52227.00
1432.481, 52560.00
1433.529, 52424.00
1434.577, 52501.00
1435.624, 52326.00
1436.672, 52229.00
1437.719, 52576.00
1438.766, 52576.00
1439.812, 52820.00
1440.859, 52835.00
1441.905, 52686.00
1442.952, 52931.00
1443.998, 52673.00
1445.044, 53011.00
1446.090, 52999.00
1447.135, 52941.00
1448.181, 53203.00
1449.226, 52980.00
1450.271, 52928.00
1451.316, 53212.00
1452.361, 53030.00
1453.405, 53027.00
1454.450, 53296.00
1455.494, 53193.00
1456.538, 53215.00
1457.582, 53310.00
1458.626, 53370.00
1459.670, 53406.78
1460.713, 53555.00
1461.757, 53457.00
1462.800, 53488.00
1463.843, 53445.00
1464.886, 53523.98
1465.928, 53538.52
1466.971, 53582.40
1468.013, 53633.00
1469.055, 53742.00
1470.097, 53816.00
1471.139, 53998.00
1472.181, 53889.00
1473.222, 53791.00
1474.263, 54028.00
1475.305, 54146.00
1476.346, 54050.00
1477.386, 54216.00
1478.427, 54243.36
1479.468, 54227.00
1480.508, 54323.00
1481.548, 54315.00
1482.588, 54225.00
1483.628, 54399.00
1484.668, 54377.00
1485.707, 54567.00
1486.747, 54810.00
1487.786, 54426.00
1488.825, 54683.00
1489.864, 54561.00
1490.902, 54491.00
1491.941, 54748.00
1492.979, 54820.00
1494.017, 54878.00
1495.055, 54782.00
1496.093, 55191.00
1497.131, 54839.00
1498.168, 54727.00
1499.206, 55123.00
1500.243, 55017.00
1501.280, 55137.00
1502.317, 55300.00
1503.354, 55239.00
1504.390, 55061.00
1505.426, 55229.00
1506.463, 55094.00
1507.499, 55397.00
1508.535, 55084.00
1509.570, 55405.00
1510.606, 55399.00
1511.641, 55191.00
1512.676, 55329.00
1513.711, 55441.00
1514.746, 55585.00
1515.781, 55903.00
1516.816, 55655.00
1517.850, 56022.00
1518.884, 55638.00
1519.918, 55808.00
1520.952, 55865.00
1521.986, 55934.00
1523.019, 55993.00
1524.053, 55912.00
1525.086, 55984.00
1526.119, 56128.00
1527.152, 56309.00
1528.185, 56279.00
1529.217, 56288.00
1530.250, 56361.00
1531.282, 56394.00
1532.314, 56294.00
1533.346, 56344.00
1534.377, 56543.00
1535.409, 56390.00
1536.440, 56449.00
1537.472, 56616.00
1538.503, 56439.00
1539.534, 56828.00
1540.564, 56540.00
1541.595, 56706.00
1542.625, 56759.00
1543.656, 56677.00
1544.686, 56970.00
1545.716, 56756.00
1546.745, 56845.00
1547.775, 56906.00
1548.804, 57009.00
1549.834, 57072.12
1550.863, 57096.00
1551.892, 57246.00
1552.920, 57279.00
1553.949, 57437.00
1554.977, 57284.00
1556.006, 57488.00
1557.034, 57512.00
1558.062, 57536.00
1559.089, 57732.00
1560.117, 57611.00
1561.144, 57619.00
1562.172, 57542.00
1563.199, 57763.00
1564.226, 57787.00
1565.252, 57856.00
1566.279, 57927.00
1567.305, 57950.00
1568.332, 57967.00
1569.358, 57910.00
1570.384, 58409.00
##END=



