##NAMES=Andalusite
##RRUFFID=R050626
##IDEAL CHEMISTRY=Al_2_SiO_5_
##LOCALITY=Minas Gerais, Brazil
##OWNER=RRUFF
##SOURCE=Gemological Center
##DESCRIPTION=Grayish brown fragment
##STATUS=The identification of this mineral has been confirmed by X-ray diffraction and chemical analysis
##URL=rruff.info/R050626
##MEASURED CHEMISTRY=(Al_1.99_Fe^3+^_0.01_)_Î£=1_Si_1.00_O_5_
##PIN_ID=L00621
##ORIENTATION=Laser parallel to -c* (0 0 -1). Fiducial mark perpendicular to laser is parallel to -a [-1 0 0]
132.8980, 6250.000
134.1270, 6149.000
135.3560, 6163.000
136.5850, 6290.000
137.8140, 6357.000
139.0430, 6518.314
140.2710, 6478.502
141.5000, 6452.164
142.7280, 6370.000
143.9560, 6320.000
145.1840, 6197.000
146.4120, 6244.000
147.6390, 6357.000
148.8670, 6284.000
150.0940, 6386.828
151.3210, 6272.000
152.5490, 6481.000
153.7750, 6436.000
155.0020, 6442.000
156.2290, 6411.000
157.4550, 6201.000
158.6810, 6161.000
159.9080, 6227.000
161.1340, 6292.000
162.3590, 6377.000
163.5850, 6651.000
164.8110, 6909.000
166.0360, 7017.000
167.2610, 7076.000
168.4860, 7129.000
169.7110, 7126.000
170.9360, 7131.531
172.1610, 7129.000
173.3850, 7038.000
174.6100, 7035.000
175.8340, 7018.435
177.0580, 6937.000
178.2820, 7016.000
179.5050, 7024.000
180.7290, 7036.000
181.9520, 7202.000
183.1760, 7164.000
184.3990, 7456.000
185.6220, 8464.000
186.8450, 8214.000
188.0670, 8883.000
189.2900, 9661.000
190.5120, 9882.000
191.7340, 9591.000
192.9560, 9406.000
194.1780, 9195.000
195.4000, 9093.000
196.6220, 8934.000
197.8430, 8897.000
199.0640, 8841.000
200.2860, 8953.000
201.5070, 9308.000
202.7270, 9342.000
203.9480, 8955.000
205.1690, 8102.000
206.3890, 7226.000
207.6090, 6794.000
208.8290, 6746.000
210.0490, 6639.000
211.2690, 6658.000
212.4890, 6636.000
213.7080, 6774.000
214.9280, 6876.000
216.1470, 6775.000
217.3660, 6808.000
218.5850, 6689.000
219.8030, 6713.000
221.0220, 6642.000
222.2400, 6759.000
223.4590, 6736.000
224.6770, 6792.000
225.8950, 6792.000
227.1120, 6839.000
228.3300, 6956.000
229.5480, 7119.000
230.7650, 7188.000
231.9820, 7368.000
233.1990, 7601.000
234.4160, 7884.000
235.6330, 8016.000
236.8490, 8474.000
238.0660, 9025.000
239.2820, 9358.000
240.4980, 9418.000
241.7140, 9453.000
242.9300, 9148.000
244.1460, 8745.000
245.3610, 8500.000
246.5770, 8281.000
247.7920, 8158.000
249.0070, 8011.000
250.2220, 7868.000
251.4370, 7863.000
252.6510, 7739.000
253.8660, 7798.000
255.0800, 7745.000
256.2940, 7663.000
257.5080, 7791.000
258.7220, 8028.000
259.9360, 8012.746
261.1490, 8044.606
262.3630, 8137.000
263.5760, 8005.000
264.7890, 7986.000
266.0020, 8103.000
267.2150, 8251.000
268.4270, 8388.000
269.6400, 8361.000
270.8520, 8719.000
272.0640, 8804.000
273.2760, 9263.000
274.4880, 9703.000
275.7000, 10173.00
276.9120, 10653.00
278.1230, 11257.00
279.3340, 12092.00
280.5450, 13436.00
281.7560, 15171.00
282.9670, 17376.00
284.1780, 19843.00
285.3880, 22480.00
286.5980, 25671.00
287.8090, 29718.00
289.0190, 33810.00
290.2290, 36412.00
291.4380, 36743.00
292.6480, 33205.00
293.8570, 28543.00
295.0670, 23813.00
296.2760, 19699.00
297.4850, 16757.00
298.6930, 14570.00
299.9020, 12611.00
301.1110, 11269.00
302.3190, 10426.00
303.5270, 9783.000
304.7350, 9409.000
305.9430, 9148.000
307.1510, 9197.000
308.3580, 9141.000
309.5660, 9653.000
310.7730, 10377.00
311.9800, 11006.00
313.1870, 12206.00
314.3940, 13465.00
315.6010, 15328.00
316.8070, 17964.00
318.0130, 20972.00
319.2200, 24066.00
320.4260, 24604.00
321.6310, 22886.00
322.8370, 19817.00
324.0430, 16928.00
325.2480, 14777.00
326.4540, 12793.00
327.6590, 11394.00
328.8640, 10691.00
330.0680, 10223.00
331.2730, 9781.000
332.4780, 9670.000
333.6820, 9441.000
334.8860, 9322.000
336.0900, 9320.000
337.2940, 9335.000
338.4980, 9424.000
339.7010, 9587.000
340.9050, 9602.000
342.1080, 9735.000
343.3110, 10036.00
344.5140, 10467.00
345.7170, 11207.00
346.9200, 11794.00
348.1220, 12827.00
349.3240, 14502.00
350.5270, 16252.00
351.7290, 18493.00
352.9310, 21043.00
354.1320, 23827.00
355.3340, 26990.00
356.5350, 29220.00
357.7370, 30005.00
358.9380, 28942.00
360.1390, 26786.00
361.3400, 23858.00
362.5400, 21230.00
363.7410, 18565.00
364.9410, 16648.00
366.1410, 15107.00
367.3410, 13766.00
368.5410, 12932.00
369.7410, 12180.00
370.9400, 11721.00
372.1400, 11454.00
373.3390, 10945.00
374.5380, 10970.00
375.7370, 10549.00
376.9360, 10456.00
378.1350, 10466.00
379.3330, 10330.00
380.5310, 10275.00
381.7300, 10427.00
382.9280, 10437.00
384.1260, 10557.00
385.3230, 10549.00
386.5210, 10754.00
387.7180, 11043.00
388.9160, 11257.00
390.1130, 11611.00
391.3100, 11601.98
392.5060, 11522.47
393.7030, 11452.00
394.9000, 11139.00
396.0960, 10762.00
397.2920, 10687.00
398.4880, 10469.00
399.6840, 10376.00
400.8800, 10489.00
402.0750, 10468.00
403.2710, 10462.00
404.4660, 10485.00
405.6610, 10591.00
406.8560, 10595.00
408.0510, 10493.00
409.2450, 10496.00
410.4400, 10308.00
411.6340, 10135.00
412.8280, 10163.00
414.0220, 10227.00
415.2160, 10232.00
416.4100, 10305.00
417.6030, 10203.00
418.7970, 10179.00
419.9900, 10128.00
421.1830, 9932.000
422.3760, 9749.000
423.5690, 9626.000
424.7610, 9554.000
425.9540, 9572.000
427.1460, 9459.000
428.3380, 9424.000
429.5300, 9257.000
430.7220, 9313.000
431.9140, 9231.000
433.1050, 9217.000
434.2970, 9254.000
435.4880, 9239.000
436.6790, 9352.000
437.8700, 9315.000
439.0610, 9421.000
440.2510, 9507.000
441.4420, 9652.000
442.6320, 9785.989
443.8220, 10030.00
445.0120, 10089.00
446.2020, 10226.00
447.3910, 10360.00
448.5810, 10775.00
449.7700, 11188.00
450.9600, 11454.00
452.1490, 11077.00
453.3370, 10480.00
454.5260, 10080.00
455.7150, 9747.000
456.9030, 9510.000
458.0910, 9253.000
459.2800, 9203.000
460.4670, 9046.000
461.6550, 8920.000
462.8430, 8819.000
464.0300, 9008.000
465.2180, 8958.000
466.4050, 9084.000
467.5920, 8979.000
468.7790, 9044.979
469.9650, 9159.000
471.1520, 9108.000
472.3380, 9267.000
473.5250, 9309.000
474.7110, 9372.000
475.8970, 9506.000
477.0820, 9562.000
478.2680, 9884.000
479.4540, 10088.00
480.6390, 10375.00
481.8240, 10450.00
483.0090, 10518.00
484.1940, 10312.00
485.3780, 10059.00
486.5630, 9793.000
487.7470, 9685.000
488.9320, 9594.000
490.1160, 9548.000
491.3000, 9529.203
492.4830, 9709.000
493.6670, 9569.000
494.8500, 9595.000
496.0340, 9647.000
497.2170, 9595.000
498.4000, 9748.000
499.5820, 9824.000
500.7650, 9902.000
501.9480, 10024.00
503.1300, 10144.00
504.3120, 10282.00
505.4940, 10295.00
506.6760, 10339.00
507.8580, 10485.00
509.0390, 10472.00
510.2210, 10571.00
511.4020, 10535.00
512.5830, 10684.00
513.7640, 10670.00
514.9450, 10573.00
516.1250, 10530.00
517.3060, 10610.00
518.4860, 10648.00
519.6660, 10571.00
520.8460, 10644.00
522.0260, 10604.00
523.2060, 10676.00
524.3850, 10735.00
525.5650, 10648.00
526.7440, 10725.00
527.9230, 10937.00
529.1020, 10980.00
530.2810, 11162.19
531.4590, 11297.76
532.6380, 11442.00
533.8160, 11567.00
534.9940, 11614.00
536.1720, 11707.00
537.3500, 11972.00
538.5270, 12313.00
539.7050, 12653.00
540.8820, 12976.00
542.0590, 13259.00
543.2360, 13518.00
544.4130, 13929.00
545.5900, 14271.00
546.7660, 14915.00
547.9430, 15359.00
549.1190, 15535.00
550.2950, 16079.00
551.4710, 16025.00
552.6470, 15759.00
553.8220, 15530.00
554.9980, 14974.00
556.1730, 14716.00
557.3480, 14296.00
558.5230, 13988.00
559.6980, 13797.00
560.8730, 13680.00
562.0470, 13552.53
563.2220, 13581.00
564.3960, 13527.00
565.5700, 13608.00
566.7440, 13779.00
567.9170, 13886.00
569.0910, 14162.00
570.2640, 14307.00
571.4380, 14336.00
572.6110, 14215.00
573.7840, 14009.00
574.9570, 13719.00
576.1290, 13390.00
577.3020, 13078.00
578.4740, 12940.00
579.6460, 12653.00
580.8180, 12328.00
581.9900, 12194.00
583.1620, 11969.00
584.3330, 11895.00
585.5040, 11805.00
586.6760, 11649.00
587.8470, 11575.00
589.0180, 11509.00
590.1880, 11349.00
591.3590, 11406.00
592.5290, 11234.00
593.7000, 11303.00
594.8700, 11249.00
596.0400, 11139.00
597.2090, 11295.00
598.3790, 11130.00
599.5490, 11396.00
600.7180, 11291.00
601.8870, 11378.00
603.0560, 11401.00
604.2250, 11524.00
605.3940, 11708.00
606.5620, 11806.00
607.7300, 11826.00
608.8990, 12090.00
610.0670, 12156.00
611.2350, 12189.00
612.4020, 12522.00
613.5700, 12686.00
614.7370, 12754.00
615.9050, 12901.00
617.0720, 13040.00
618.2390, 13136.14
619.4060, 13224.00
620.5720, 13354.00
621.7390, 13391.00
622.9050, 13475.75
624.0710, 13596.00
625.2370, 13694.00
626.4030, 13866.00
627.5690, 14003.00
628.7340, 14015.00
629.9000, 13939.00
631.0650, 14038.00
632.2300, 14078.00
633.3950, 13716.00
634.5600, 13838.00
635.7240, 13614.00
636.8890, 13481.00
638.0530, 13537.00
639.2170, 13428.00
640.3810, 13401.00
641.5450, 13587.00
642.7080, 13467.00
643.8720, 13748.00
645.0350, 13687.00
646.1980, 13652.00
647.3610, 13511.00
648.5240, 13308.74
649.6870, 12921.00
650.8490, 12731.00
652.0120, 12457.00
653.1740, 12017.00
654.3360, 11837.00
655.4980, 11601.00
656.6600, 11275.00
657.8210, 11157.00
658.9830, 11121.00
660.1440, 10907.00
661.3050, 10630.00
662.4660, 10663.00
663.6270, 10418.00
664.7870, 10354.00
665.9480, 10124.00
667.1080, 10040.00
668.2680, 9990.000
669.4280, 9914.000
670.5880, 9874.000
671.7480, 9835.000
672.9070, 9825.000
674.0670, 9822.911
675.2260, 9735.000
676.3850, 9833.000
677.5440, 9888.000
678.7030, 9859.674
679.8610, 9814.021
681.0200, 9782.000
682.1780, 9776.597
683.3360, 9758.883
684.4940, 9789.000
685.6520, 9750.000
686.8090, 9784.000
687.9670, 9770.000
689.1240, 9888.000
690.2810, 9918.000
691.4380, 9891.000
692.5950, 9845.000
693.7520, 9926.000
694.9080, 9929.000
696.0650, 10150.00
697.2210, 10043.00
698.3770, 10081.00
699.5330, 10012.00
700.6880, 10031.00
701.8440, 10124.00
702.9990, 10098.00
704.1550, 10246.00
705.3100, 10142.00
706.4650, 10454.00
707.6190, 10373.00
708.7740, 10623.00
709.9290, 10644.00
711.0830, 10754.00
712.2370, 10897.66
713.3910, 10982.64
714.5450, 11053.00
715.6980, 11211.00
716.8520, 11129.00
718.0050, 11184.00
719.1580, 11029.00
720.3110, 10708.00
721.4640, 10585.00
722.6170, 10289.00
723.7700, 10182.00
724.9220, 10074.00
726.0740, 9863.000
727.2260, 9910.000
728.3780, 9863.000
729.5300, 9750.000
730.6810, 9985.000
731.8330, 9871.000
732.9840, 10014.00
734.1350, 9906.000
735.2860, 9924.000
736.4370, 9962.000
737.5880, 10094.00
738.7380, 9801.000
739.8880, 9983.000
741.0390, 9902.000
742.1890, 9809.000
743.3380, 9816.000
744.4880, 9735.000
745.6380, 9762.000
746.7870, 9753.449
747.9360, 9805.000
749.0850, 9797.000
750.2340, 9834.000
751.3830, 9903.000
752.5310, 9923.000
753.6800, 9819.000
754.8280, 9897.000
755.9760, 9897.000
757.1240, 9882.000
758.2720, 9910.000
759.4190, 9815.000
760.5670, 9825.000
761.7140, 9734.000
762.8610, 9934.000
764.0080, 9827.000
765.1550, 9802.000
766.3020, 9926.000
767.4480, 9900.000
768.5950, 9968.204
769.7410, 9887.000
770.8870, 10031.00
772.0330, 9944.000
773.1780, 9861.000
774.3240, 9996.000
775.4690, 9928.000
776.6140, 9892.000
777.7590, 10071.00
778.9040, 10108.00
780.0490, 10061.00
781.1940, 10118.00
782.3380, 10098.00
783.4820, 10189.00
784.6260, 10165.00
785.7700, 10204.00
786.9140, 10227.00
788.0580, 10303.00
789.2010, 10437.00
790.3450, 10461.00
791.4880, 10595.00
792.6310, 10661.00
793.7730, 10709.05
794.9160, 10655.00
796.0590, 10831.00
797.2010, 10955.00
798.3430, 11075.00
799.4850, 11234.00
800.6270, 11390.00
801.7690, 11681.00
802.9100, 11764.00
804.0520, 11970.00
805.1930, 12327.00
806.3340, 12392.00
807.4750, 12711.00
808.6160, 13045.00
809.7560, 13344.00
810.8970, 13518.00
812.0370, 13917.00
813.1770, 14448.00
814.3170, 15005.00
815.4570, 15252.00
816.5960, 15567.00
817.7360, 15886.00
818.8750, 16179.00
820.0140, 16234.00
821.1530, 16197.00
822.2920, 15862.00
823.4310, 15702.00
824.5690, 15329.00
825.7070, 14636.00
826.8460, 14229.00
827.9840, 13838.00
829.1220, 13490.00
830.2590, 13273.00
831.3970, 12809.00
832.5340, 12701.00
833.6710, 12562.00
834.8080, 12266.00
835.9450, 12045.00
837.0820, 11795.00
838.2190, 11630.00
839.3550, 11495.00
840.4910, 11212.00
841.6270, 11056.00
842.7630, 10947.00
843.8990, 10818.00
845.0350, 10690.00
846.1700, 10560.00
847.3060, 10527.44
848.4410, 10433.00
849.5760, 10466.00
850.7100, 10396.00
851.8450, 10319.00
852.9800, 10395.00
854.1140, 10275.00
855.2480, 10377.00
856.3820, 10294.00
857.5160, 10488.00
858.6500, 10333.00
859.7830, 10335.00
860.9170, 10319.00
862.0500, 10405.00
863.1830, 10457.00
864.3160, 10418.00
865.4480, 10563.00
866.5810, 10524.00
867.7130, 10590.00
868.8460, 10569.00
869.9780, 10598.94
871.1100, 10658.00
872.2410, 10679.00
873.3730, 10722.00
874.5050, 10814.00
875.6360, 10769.00
876.7670, 10807.00
877.8980, 10883.00
879.0290, 10872.00
880.1590, 10977.00
881.2900, 11080.00
882.4200, 11097.00
883.5500, 11106.00
884.6800, 11159.00
885.8100, 11257.00
886.9400, 11256.00
888.0690, 11385.00
889.1990, 11481.00
890.3280, 11679.00
891.4570, 11815.00
892.5860, 11864.00
893.7140, 12024.00
894.8430, 12193.00
895.9710, 12432.00
897.1000, 12776.00
898.2280, 13115.00
899.3560, 13446.00
900.4830, 13901.35
901.6110, 14271.00
902.7380, 14872.00
903.8660, 15392.00
904.9930, 15967.00
906.1200, 16721.00
907.2460, 17493.00
908.3730, 18828.00
909.5000, 20830.00
910.6260, 22690.00
911.7520, 25648.00
912.8780, 29004.00
914.0040, 33363.00
915.1290, 38289.00
916.2550, 43774.00
917.3800, 48758.00
918.5050, 50811.00
919.6300, 49331.00
920.7550, 44392.00
921.8800, 38473.00
923.0040, 33443.00
924.1290, 29559.00
925.2530, 26518.00
926.3770, 24331.00
927.5010, 22927.00
928.6250, 21602.00
929.7480, 20338.00
930.8720, 19414.00
931.9950, 18628.00
933.1180, 18169.00
934.2410, 17903.00
935.3640, 17605.00
936.4860, 17568.00
937.6090, 17710.52
938.7310, 18177.00
939.8530, 18481.00
940.9750, 19145.00
942.0970, 19995.00
943.2180, 21364.00
944.3400, 23010.00
945.4610, 24677.00
946.5820, 27084.00
947.7030, 29174.00
948.8240, 31117.00
949.9450, 31634.00
951.0650, 31263.00
952.1860, 29655.00
953.3060, 27337.00
954.4260, 25078.00
955.5460, 22400.00
956.6650, 20558.00
957.7850, 19001.00
958.9040, 17730.00
960.0230, 16785.00
961.1420, 15878.00
962.2610, 15350.00
963.3800, 14924.00
964.4990, 14591.00
965.6170, 14259.00
966.7350, 14045.00
967.8530, 14000.00
968.9710, 13844.00
970.0890, 13760.00
971.2070, 13666.00
972.3240, 13493.00
973.4410, 13679.00
974.5580, 13656.00
975.6750, 13678.00
976.7920, 13473.00
977.9090, 13446.00
979.0250, 13523.00
980.1410, 13583.00
981.2580, 13561.00
982.3740, 13420.00
983.4890, 13414.00
984.6050, 13365.00
985.7200, 13477.00
986.8360, 13473.00
987.9510, 13501.00
989.0660, 13639.00
990.1810, 13639.00
991.2950, 13689.00
992.4100, 13787.00
993.5240, 13934.00
994.6390, 14079.00
995.7530, 14440.00
996.8660, 14723.00
997.9800, 15224.00
999.0940, 15738.00
1000.207, 16433.00
1001.320, 17151.00
1002.433, 18036.00
1003.546, 18730.00
1004.659, 19086.00
1005.772, 19123.00
1006.884, 18673.00
1007.996, 17865.00
1009.108, 17269.00
1010.220, 16682.00
1011.332, 16258.80
1012.444, 15827.00
1013.555, 15683.00
1014.666, 15641.00
1015.777, 15546.00
1016.888, 15613.00
1017.999, 15824.00
1019.110, 15785.00
1020.220, 15643.00
1021.331, 15342.00
1022.441, 15210.00
1023.551, 14732.00
1024.661, 14630.00
1025.770, 14564.00
1026.880, 14201.00
1027.989, 14301.00
1029.098, 14223.00
1030.207, 14106.00
1031.316, 14008.00
1032.425, 13966.00
1033.533, 14026.00
1034.642, 13816.00
1035.750, 13882.00
1036.858, 13932.00
1037.966, 13718.00
1039.073, 13799.00
1040.181, 13949.00
1041.288, 13881.00
1042.396, 13803.00
1043.503, 13517.00
1044.610, 13699.00
1045.716, 13782.00
1046.823, 13527.00
1047.929, 13613.00
1049.036, 13547.00
1050.142, 13640.00
1051.248, 13623.00
1052.353, 13717.00
1053.459, 13864.00
1054.564, 14012.00
1055.670, 14442.00
1056.775, 14554.00
1057.880, 14949.00
1058.985, 15411.00
1060.089, 16100.00
1061.194, 16723.00
1062.298, 17376.00
1063.402, 17819.00
1064.506, 18185.00
1065.610, 17678.00
1066.713, 16988.00
1067.817, 16420.00
1068.920, 15739.00
1070.023, 15186.00
1071.126, 14764.00
1072.229, 14636.00
1073.332, 14359.00
1074.435, 14053.00
1075.537, 14080.00
1076.639, 13808.00
1077.741, 13756.00
1078.843, 13772.00
1079.945, 13594.00
1081.046, 13660.00
1082.148, 13535.00
1083.249, 13592.00
1084.350, 13546.00
1085.451, 13475.00
1086.551, 13449.00
1087.652, 13428.00
1088.752, 13491.00
1089.853, 13508.00
1090.953, 13333.00
1092.053, 13274.00
1093.152, 13397.00
1094.252, 13329.00
1095.351, 13346.00
1096.451, 13448.00
1097.550, 13264.00
1098.649, 13413.00
1099.748, 13414.00
1100.846, 13540.00
1101.945, 13497.00
1103.043, 13599.00
1104.141, 13734.00
1105.239, 13727.00
1106.337, 13660.00
1107.434, 13861.00
1108.532, 13921.00
1109.629, 14002.00
1110.726, 13854.00
1111.823, 13818.00
1112.920, 13893.00
1114.017, 13943.00
1115.113, 13719.00
1116.210, 13875.00
1117.306, 13808.00
1118.402, 14025.00
1119.498, 14163.00
1120.593, 14285.00
1121.689, 14362.82
1122.784, 14304.00
1123.879, 14376.00
1124.974, 14494.00
1126.069, 14373.00
1127.164, 14162.00
1128.259, 14216.00
1129.353, 13873.00
1130.447, 13603.00
1131.541, 13451.00
1132.635, 13542.00
1133.729, 13296.00
1134.822, 13326.00
1135.916, 13479.00
1137.009, 13462.00
1138.102, 13444.09
1139.195, 13562.00
1140.288, 13376.00
1141.380, 13441.00
1142.473, 13535.00
1143.565, 13510.00
1144.657, 13439.00
1145.749, 13511.00
1146.841, 13527.00
1147.932, 13511.14
1149.024, 13536.87
1150.115, 13485.00
1151.206, 13543.00
1152.297, 13479.00
1153.388, 13505.00
1154.479, 13623.00
1155.569, 13551.00
1156.659, 13479.00
1157.750, 13599.00
1158.839, 13502.00
1159.929, 13440.00
1161.019, 13648.00
1162.108, 13552.00
1163.198, 13733.00
1164.287, 13672.00
1165.376, 13676.00
1166.465, 13696.10
1167.553, 13774.00
1168.642, 13638.00
1169.730, 13565.00
1170.818, 13520.00
1171.906, 13616.00
1172.994, 13614.00
1174.082, 13620.00
1175.170, 13763.00
1176.257, 13701.00
1177.344, 13597.00
1178.431, 13604.00
1179.518, 13798.00
1180.605, 13554.00
1181.691, 13732.00
1182.778, 13875.00
1183.864, 13813.00
1184.950, 13726.00
1186.036, 13579.00
1187.122, 13684.00
1188.207, 13669.00
1189.292, 13832.00
1190.378, 13915.00
1191.463, 13832.00
1192.548, 13873.00
1193.632, 13828.00
1194.717, 13782.00
1195.801, 13679.00
1196.886, 13853.00
1197.970, 13916.00
1199.054, 13850.00
1200.137, 13686.00
1201.221, 13805.00
1202.305, 13784.00
1203.388, 13781.00
1204.471, 13854.00
1205.554, 13833.00
1206.637, 13730.00
1207.719, 13764.00
1208.802, 13816.00
1209.884, 13873.00
1210.966, 13905.00
1212.048, 13756.00
1213.130, 13835.00
1214.212, 13800.00
1215.293, 13823.00
1216.374, 13816.00
1217.456, 13652.00
1218.536, 13787.00
1219.617, 13729.00
1220.698, 13657.00
1221.778, 13742.00
1222.859, 13844.00
1223.939, 13812.00
1225.019, 13859.00
1226.099, 13779.00
1227.178, 13808.00
1228.258, 13732.00
1229.337, 13802.00
1230.417, 13796.00
1231.496, 13843.00
1232.574, 13769.00
1233.653, 13708.00
1234.732, 13783.00
1235.810, 13608.00
1236.888, 13795.00
1237.966, 13782.00
1239.044, 13826.00
1240.122, 13859.00
1241.199, 13945.00
1242.277, 13844.00
1243.354, 13780.00
1244.431, 13834.00
1245.508, 13929.00
1246.585, 13905.00
1247.661, 13902.00
1248.738, 13989.00
1249.814, 13884.00
1250.890, 13970.00
1251.966, 13811.00
1253.042, 13908.00
1254.117, 13904.00
1255.193, 13909.00
1256.268, 13802.00
1257.343, 13841.00
1258.418, 13833.99
1259.493, 13850.24
1260.567, 13915.00
1261.642, 13910.00
1262.716, 14026.00
1263.790, 13997.00
1264.864, 14050.00
1265.938, 13992.00
1267.011, 13994.00
1268.085, 13945.00
1269.158, 13979.27
1270.231, 13973.21
1271.304, 14049.00
1272.377, 14005.00
1273.450, 14013.00
1274.522, 14040.00
1275.594, 13952.00
1276.666, 14037.00
1277.738, 14024.00
1278.810, 13948.00
1279.882, 14055.00
1280.953, 14087.00
1282.025, 13909.00
1283.096, 14057.00
1284.167, 13968.00
1285.238, 14033.00
1286.308, 14206.00
1287.379, 14026.00
1288.449, 14015.00
1289.519, 13970.00
1290.589, 13947.00
1291.659, 13926.00
1292.729, 14052.00
1293.798, 13991.00
1294.868, 14060.00
1295.937, 14058.00
1297.006, 13949.00
1298.075, 14169.00
1299.143, 14025.00
1300.212, 13895.00
1301.280, 13999.00
1302.348, 13976.00
1303.416, 14065.00
1304.484, 13926.00
1305.552, 14015.00
1306.620, 13992.00
1307.687, 14007.00
1308.754, 14041.88
1309.821, 14180.00
1310.888, 14107.00
1311.955, 14104.00
1313.021, 14193.00
1314.088, 14125.55
1315.154, 14255.00
1316.220, 14114.00
1317.286, 14125.00
1318.352, 14175.00
1319.417, 14152.00
1320.483, 14223.00
1321.548, 14273.00
1322.613, 14168.00
1323.678, 14192.00
1324.743, 14243.00
1325.807, 14257.00
1326.872, 14312.29
1327.936, 14257.00
1329.000, 14368.00
1330.064, 14157.00
1331.128, 14063.00
1332.191, 14356.00
1333.255, 14065.00
1334.318, 14310.00
1335.381, 14352.00
1336.444, 14204.00
1337.507, 14312.00
1338.569, 14256.00
1339.632, 14420.00
1340.694, 14476.00
1341.756, 14377.00
1342.818, 14262.00
1343.880, 14388.00
1344.941, 14293.00
1346.003, 14397.00
1347.064, 14427.00
1348.125, 14434.00
1349.186, 14440.00
1350.247, 14404.00
1351.308, 14440.00
1352.368, 14489.00
1353.428, 14468.00
1354.489, 14373.00
1355.549, 14563.00
1356.608, 14644.00
1357.668, 14549.00
1358.727, 14579.00
1359.787, 14498.00
1360.846, 14656.00
1361.905, 14631.00
1362.964, 14508.00
1364.022, 14697.00
1365.081, 14630.00
1366.139, 14697.00
1367.197, 14771.00
1368.255, 14629.00
1369.313, 14914.00
1370.371, 14766.00
1371.428, 14692.00
1372.486, 14791.00
1373.543, 14799.00
1374.600, 14786.00
1375.657, 14816.00
1376.713, 14801.00
1377.770, 14786.00
1378.826, 14737.00
1379.882, 14721.00
1380.938, 14739.00
1381.994, 14864.00
1383.050, 14695.00
1384.106, 14723.00
1385.161, 14917.00
1386.216, 14621.00
1387.271, 14776.00
1388.326, 14939.00
1389.381, 14716.00
1390.435, 14724.00
1391.490, 14593.00
1392.544, 14897.00
1393.598, 14704.00
1394.652, 14786.00
1395.705, 14820.00
1396.759, 14744.00
1397.812, 14715.00
1398.866, 14674.00
1399.919, 14898.00
1400.972, 14761.00
1402.024, 14866.00
1403.077, 14866.00
1404.129, 14720.00
1405.181, 14819.00
1406.233, 14950.00
1407.285, 14693.00
1408.337, 14840.00
1409.389, 14782.00
1410.440, 14902.00
1411.491, 14893.00
1412.542, 14863.33
1413.593, 14987.00
1414.644, 14807.00
1415.695, 14821.00
1416.745, 14835.00
1417.795, 14945.00
1418.845, 14663.00
1419.895, 15033.00
1420.945, 14788.00
1421.995, 15093.00
1423.044, 15145.00
1424.093, 14975.00
1425.142, 14969.00
1426.191, 15080.00
1427.240, 15095.00
1428.289, 15113.18
1429.337, 15054.00
1430.385, 15133.00
1431.433, 15014.00
1432.481, 15013.00
1433.529, 15121.00
1434.577, 15132.00
1435.624, 15206.00
1436.672, 15457.00
1437.719, 15290.00
1438.766, 15371.00
1439.812, 15166.00
1440.859, 15273.00
1441.905, 15404.00
1442.952, 15396.00
1443.998, 15371.00
1445.044, 15335.00
1446.090, 15381.00
1447.135, 15443.00
1448.181, 15499.00
1449.226, 15546.00
1450.271, 15464.00
1451.316, 15544.00
1452.361, 15481.00
1453.405, 15385.00
1454.450, 15400.00
1455.494, 15435.00
1456.538, 15430.00
1457.582, 15435.00
1458.626, 15403.68
1459.670, 15404.86
1460.713, 15349.00
1461.757, 15385.00
1462.800, 15437.00
1463.843, 15430.00
1464.886, 15375.00
1465.928, 15490.00
1466.971, 15366.00
1468.013, 15443.00
1469.055, 15326.00
1470.097, 15439.00
1471.139, 15444.00
1472.181, 15431.00
1473.222, 15440.00
1474.263, 15398.00
1475.305, 15560.00
1476.346, 15486.00
1477.386, 15304.00
1478.427, 15222.00
1479.468, 15617.00
1480.508, 15333.00
1481.548, 15397.00
1482.588, 15516.00
1483.628, 15358.00
1484.668, 15316.00
1485.707, 15358.00
1486.747, 15473.00
1487.786, 15354.00
1488.825, 15490.00
1489.864, 15300.00
1490.902, 15411.00
1491.941, 15443.00
1492.979, 15219.00
1494.017, 15387.00
1495.055, 15430.00
1496.093, 15284.00
1497.131, 15520.00
1498.168, 15412.00
1499.206, 15499.00
1500.243, 15380.00
1501.280, 15583.00
1502.317, 15526.00
1503.354, 15430.00
1504.390, 15627.00
1505.426, 15671.00
1506.463, 15636.00
1507.499, 15559.00
1508.535, 15660.00
1509.570, 15631.00
1510.606, 15668.27
1511.641, 15677.00
1512.676, 15649.00
1513.711, 15833.00
1514.746, 15621.00
1515.781, 15880.00
1516.816, 15676.00
1517.850, 15624.00
1518.884, 15941.00
1519.918, 15916.00
1520.952, 15987.95
1521.986, 15963.22
1523.019, 16002.00
1524.053, 15862.00
1525.086, 15724.00
1526.119, 15894.00
1527.152, 15883.00
1528.185, 16039.00
1529.217, 15878.00
1530.250, 15919.00
1531.282, 16043.00
1532.314, 16020.00
1533.346, 16104.00
1534.377, 15973.00
1535.409, 16007.00
1536.440, 15900.00
1537.472, 16155.00
1538.503, 16210.00
1539.534, 16117.00
1540.564, 16249.00
1541.595, 16118.00
1542.625, 16177.00
1543.656, 16133.00
1544.686, 16208.00
1545.716, 16341.00
1546.745, 16322.00
1547.775, 16397.29
1548.804, 16303.00
1549.834, 16445.00
1550.863, 16406.00
1551.892, 16393.00
1552.920, 16441.00
1553.949, 16758.00
1554.977, 16721.00
1556.006, 16672.00
1557.034, 16509.00
1558.062, 16483.00
1559.089, 16449.00
1560.117, 16531.00
1561.144, 16476.00
1562.172, 16512.00
1563.199, 16571.00
1564.226, 16450.00
1565.252, 16500.00
1566.279, 16598.00
1567.305, 16494.00
1568.332, 16640.00
1569.358, 16497.00
1570.384, 16559.00
##END=



