##NAMES=Andalusite
##RRUFFID=R050258
##IDEAL CHEMISTRY=Al_2_SiO_5_
##LOCALITY=Bautista Canyon, near Hemet, Riverside County, California, USA
##OWNER=RRUFF
##SOURCE=Marcus Origlieri
##DESCRIPTION=Brown fragment
##STATUS=The identification of this mineral has been confirmed by X-ray diffraction and chemical analysis
##URL=rruff.info/R050258
##MEASURED CHEMISTRY=Al_2.00_Si_1.00_O_5_
##PIN_ID=M00252
##ORIENTATION=Laser parallel to b* (0 1 0). Fiducial mark perpendicular to laser is parallel to c [0 0 1]
111.9760, 9735.000
113.2080, 9776.000
114.4400, 9935.000
115.6710, 10212.00
116.9030, 10137.00
118.1340, 10296.00
119.3650, 10154.00
120.5960, 10188.00
121.8270, 10416.00
123.0580, 10377.00
124.2880, 10474.00
125.5190, 10315.00
126.7490, 10503.00
127.9790, 10555.00
129.2090, 10609.00
130.4390, 10697.00
131.6680, 10868.00
132.8980, 10994.00
134.1270, 10992.00
135.3560, 11028.00
136.5850, 11205.00
137.8140, 11258.00
139.0430, 11302.00
140.2710, 11345.00
141.5000, 11205.00
142.7280, 11336.00
143.9560, 11353.00
145.1840, 11194.00
146.4120, 11323.00
147.6390, 11350.00
148.8670, 11215.00
150.0940, 11276.00
151.3210, 11352.00
152.5490, 11508.00
153.7750, 11362.00
155.0020, 11398.00
156.2290, 11446.00
157.4550, 11390.00
158.6810, 11427.00
159.9080, 11443.00
161.1340, 11450.00
162.3590, 11611.00
163.5850, 11521.00
164.8110, 11652.00
166.0360, 11675.00
167.2610, 11718.00
168.4860, 11718.00
169.7110, 11929.00
170.9360, 11689.00
172.1610, 11957.00
173.3850, 11956.00
174.6100, 11960.00
175.8340, 12139.00
177.0580, 12164.00
178.2820, 12196.00
179.5050, 12179.00
180.7290, 12269.00
181.9520, 12279.00
183.1760, 12378.00
184.3990, 12565.00
185.6220, 12479.00
186.8450, 12719.00
188.0670, 12791.00
189.2900, 12778.00
190.5120, 12884.00
191.7340, 12975.00
192.9560, 13008.00
194.1780, 13091.00
195.4000, 13343.00
196.6220, 13257.00
197.8430, 13390.00
199.0640, 13355.00
200.2860, 13181.00
201.5070, 13492.00
202.7270, 13327.00
203.9480, 13442.00
205.1690, 13219.00
206.3890, 13112.00
207.6090, 12976.00
208.8290, 13077.00
210.0490, 13042.00
211.2690, 13217.00
212.4890, 13204.00
213.7080, 13209.00
214.9280, 13192.00
216.1470, 13382.00
217.3660, 13315.00
218.5850, 13313.00
219.8030, 13426.00
221.0220, 13392.00
222.2400, 13375.00
223.4590, 13500.00
224.6770, 13546.00
225.8950, 13586.00
227.1120, 13458.00
228.3300, 13737.00
229.5480, 13686.00
230.7650, 13666.00
231.9820, 13815.00
233.1990, 13605.00
234.4160, 13706.00
235.6330, 13918.00
236.8490, 13936.00
238.0660, 13900.00
239.2820, 13979.00
240.4980, 14002.00
241.7140, 14054.00
242.9300, 13899.00
244.1460, 13893.00
245.3610, 13900.00
246.5770, 13991.00
247.7920, 14054.00
249.0070, 13866.00
250.2220, 13972.00
251.4370, 14029.00
252.6510, 13899.00
253.8660, 14003.00
255.0800, 14067.00
256.2940, 13936.00
257.5080, 13851.00
258.7220, 14026.00
259.9360, 14291.00
261.1490, 14130.00
262.3630, 14137.00
263.5760, 14151.00
264.7890, 14018.00
266.0020, 14175.00
267.2150, 14319.00
268.4270, 14382.00
269.6400, 14363.00
270.8520, 14462.00
272.0640, 14390.00
273.2760, 14587.00
274.4880, 14674.00
275.7000, 14855.00
276.9120, 14999.00
278.1230, 15291.00
279.3340, 15505.00
280.5450, 15800.00
281.7560, 16403.00
282.9670, 17114.00
284.1780, 17879.00
285.3880, 18476.00
286.5980, 19403.00
287.8090, 20174.00
289.0190, 20546.00
290.2290, 20424.00
291.4380, 19597.00
292.6480, 19076.00
293.8570, 17973.00
295.0670, 17145.00
296.2760, 16626.00
297.4850, 15891.00
298.6930, 15627.00
299.9020, 15285.00
301.1110, 15001.00
302.3190, 14952.00
303.5270, 15051.00
304.7350, 14987.00
305.9430, 15290.00
307.1510, 15451.00
308.3580, 15811.00
309.5660, 16231.00
310.7730, 17212.00
311.9800, 18134.00
313.1870, 19423.00
314.3940, 20770.00
315.6010, 22156.00
316.8070, 24012.00
318.0130, 25063.00
319.2200, 24826.00
320.4260, 23751.00
321.6310, 22054.00
322.8370, 20407.00
324.0430, 18988.00
325.2480, 17945.00
326.4540, 17363.00
327.6590, 16658.00
328.8640, 16402.00
330.0680, 16039.00
331.2730, 16021.00
332.4780, 15987.00
333.6820, 15899.00
334.8860, 16001.00
336.0900, 15886.00
337.2940, 15960.00
338.4980, 16133.00
339.7010, 16279.00
340.9050, 16383.00
342.1080, 16715.00
343.3110, 16770.00
344.5140, 17066.00
345.7170, 17570.00
346.9200, 18102.77
348.1220, 18900.00
349.3240, 19752.00
350.5270, 20822.00
351.7290, 22124.00
352.9310, 23429.00
354.1320, 24713.00
355.3340, 25617.00
356.5350, 25897.00
357.7370, 25790.00
358.9380, 24706.00
360.1390, 23816.00
361.3400, 22911.00
362.5400, 21794.00
363.7410, 21074.00
364.9410, 20495.00
366.1410, 20120.00
367.3410, 19633.00
368.5410, 19281.00
369.7410, 19139.00
370.9400, 19065.00
372.1400, 18908.00
373.3390, 18744.00
374.5380, 18699.00
375.7370, 18570.18
376.9360, 18438.00
378.1350, 18406.00
379.3330, 18367.00
380.5310, 18291.00
381.7300, 18286.00
382.9280, 18365.02
384.1260, 18611.00
385.3230, 18596.00
386.5210, 18733.00
387.7180, 18863.00
388.9160, 18879.00
390.1130, 19015.00
391.3100, 18820.00
392.5060, 19119.00
393.7030, 18947.00
394.9000, 18935.00
396.0960, 18699.00
397.2920, 18769.00
398.4880, 18848.00
399.6840, 18793.00
400.8800, 18803.00
402.0750, 18755.00
403.2710, 18859.00
404.4660, 18997.00
405.6610, 18916.00
406.8560, 18782.00
408.0510, 18921.00
409.2450, 19061.00
410.4400, 18849.00
411.6340, 18894.00
412.8280, 18841.00
414.0220, 19004.00
415.2160, 19064.00
416.4100, 19079.00
417.6030, 19116.00
418.7970, 19096.00
419.9900, 18945.00
421.1830, 19166.00
422.3760, 19137.00
423.5690, 18886.00
424.7610, 19007.00
425.9540, 18940.00
427.1460, 19041.00
428.3380, 18977.00
429.5300, 18929.00
430.7220, 18830.00
431.9140, 18883.00
433.1050, 18921.00
434.2970, 19046.00
435.4880, 19152.00
436.6790, 19279.00
437.8700, 19429.00
439.0610, 19500.00
440.2510, 19597.00
441.4420, 19643.00
442.6320, 20134.00
443.8220, 20277.00
445.0120, 20640.00
446.2020, 20664.00
447.3910, 21216.00
448.5810, 21524.00
449.7700, 21520.00
450.9600, 21047.00
452.1490, 20472.00
453.3370, 19859.00
454.5260, 19477.00
455.7150, 19207.61
456.9030, 19123.00
458.0910, 18922.00
459.2800, 18897.00
460.4670, 18809.00
461.6550, 18937.00
462.8430, 18708.00
464.0300, 18912.00
465.2180, 18593.00
466.4050, 18669.00
467.5920, 18638.00
468.7790, 18725.00
469.9650, 18609.00
471.1520, 18679.00
472.3380, 18725.00
473.5250, 18785.00
474.7110, 18926.00
475.8970, 18808.00
477.0820, 18920.00
478.2680, 18679.00
479.4540, 18875.00
480.6390, 18837.00
481.8240, 18910.00
483.0090, 18995.00
484.1940, 18923.00
485.3780, 18972.00
486.5630, 18945.00
487.7470, 19243.00
488.9320, 19268.00
490.1160, 19632.00
491.3000, 19594.00
492.4830, 19819.00
493.6670, 19812.00
494.8500, 19929.00
496.0340, 20180.00
497.2170, 20361.00
498.4000, 20501.00
499.5820, 20685.00
500.7650, 20797.00
501.9480, 20974.96
503.1300, 21332.00
504.3120, 21326.00
505.4940, 21579.00
506.6760, 21806.00
507.8580, 21716.00
509.0390, 21900.00
510.2210, 21910.00
511.4020, 22131.00
512.5830, 22012.00
513.7640, 21782.00
514.9450, 22041.00
516.1250, 22158.00
517.3060, 21968.00
518.4860, 22164.00
519.6660, 21973.00
520.8460, 21930.00
522.0260, 22142.00
523.2060, 22277.00
524.3850, 22420.00
525.5650, 22213.00
526.7440, 22455.00
527.9230, 22785.00
529.1020, 22708.00
530.2810, 23108.00
531.4590, 23379.00
532.6380, 23645.00
533.8160, 23776.00
534.9940, 24204.00
536.1720, 24476.00
537.3500, 24874.00
538.5270, 25089.00
539.7050, 25587.00
540.8820, 25572.00
542.0590, 26165.00
543.2360, 26381.00
544.4130, 26574.00
545.5900, 26884.00
546.7660, 27145.00
547.9430, 27509.00
549.1190, 27804.00
550.2950, 27932.00
551.4710, 27891.00
552.6470, 27724.00
553.8220, 27582.00
554.9980, 27329.00
556.1730, 27037.00
557.3480, 26849.00
558.5230, 26522.00
559.6980, 26372.00
560.8730, 26315.00
562.0470, 26126.00
563.2220, 26261.00
564.3960, 26410.00
565.5700, 26085.00
566.7440, 26131.00
567.9170, 26302.00
569.0910, 26425.00
570.2640, 26196.00
571.4380, 26398.00
572.6110, 26232.00
573.7840, 26077.00
574.9570, 25980.00
576.1290, 25657.00
577.3020, 25589.00
578.4740, 25477.00
579.6460, 25374.00
580.8180, 24910.00
581.9900, 25124.00
583.1620, 24836.00
584.3330, 24494.00
585.5040, 24598.00
586.6760, 24488.00
587.8470, 24302.00
589.0180, 24196.00
590.1880, 24171.00
591.3590, 24065.00
592.5290, 23984.00
593.7000, 23884.00
594.8700, 24136.00
596.0400, 24115.00
597.2090, 24069.00
598.3790, 24352.00
599.5490, 24205.00
600.7180, 24274.00
601.8870, 24429.00
603.0560, 24659.00
604.2250, 24699.00
605.3940, 24958.00
606.5620, 25312.00
607.7300, 25515.00
608.8990, 25851.00
610.0670, 26035.00
611.2350, 26360.00
612.4020, 26649.00
613.5700, 26891.00
614.7370, 27103.24
615.9050, 27293.00
617.0720, 27418.00
618.2390, 27566.72
619.4060, 27654.49
620.5720, 27800.00
621.7390, 27770.00
622.9050, 27845.00
624.0710, 27946.00
625.2370, 28173.00
626.4030, 28410.00
627.5690, 28525.00
628.7340, 28415.00
629.9000, 28593.00
631.0650, 28417.00
632.2300, 28473.00
633.3950, 28273.00
634.5600, 28198.00
635.7240, 28242.00
636.8890, 27838.00
638.0530, 27889.00
639.2170, 27976.00
640.3810, 27766.00
641.5450, 27560.00
642.7080, 27644.00
643.8720, 27308.00
645.0350, 27629.00
646.1980, 27424.00
647.3610, 27330.00
648.5240, 27084.00
649.6870, 26672.00
650.8490, 26375.00
652.0120, 25933.00
653.1740, 25705.00
654.3360, 25339.00
655.4980, 25140.00
656.6600, 24885.00
657.8210, 24524.00
658.9830, 24302.00
660.1440, 24241.00
661.3050, 24191.00
662.4660, 23876.00
663.6270, 23546.00
664.7870, 23499.00
665.9480, 23491.00
667.1080, 23096.00
668.2680, 23141.00
669.4280, 23008.00
670.5880, 23112.00
671.7480, 23165.00
672.9070, 23221.00
674.0670, 23194.28
675.2260, 23140.00
676.3850, 23090.00
677.5440, 23058.00
678.7030, 23010.00
679.8610, 23044.00
681.0200, 22823.00
682.1780, 23020.00
683.3360, 23093.00
684.4940, 23093.00
685.6520, 22925.00
686.8090, 23137.00
687.9670, 23273.00
689.1240, 23120.00
690.2810, 23219.00
691.4380, 23418.00
692.5950, 23145.00
693.7520, 23588.00
694.9080, 23532.00
696.0650, 23259.00
697.2210, 23638.00
698.3770, 23398.00
699.5330, 23726.00
700.6880, 23910.00
701.8440, 23833.00
702.9990, 24053.00
704.1550, 24214.00
705.3100, 24189.00
706.4650, 24409.00
707.6190, 24559.00
708.7740, 24767.00
709.9290, 24952.18
711.0830, 25035.00
712.2370, 25284.00
713.3910, 25575.00
714.5450, 25656.00
715.6980, 25311.00
716.8520, 25415.00
718.0050, 25200.00
719.1580, 24891.00
720.3110, 24621.00
721.4640, 24502.00
722.6170, 24406.00
723.7700, 24126.00
724.9220, 24216.00
726.0740, 24287.00
727.2260, 24443.00
728.3780, 24288.00
729.5300, 24327.00
730.6810, 24289.00
731.8330, 24410.00
732.9840, 24360.00
734.1350, 24322.00
735.2860, 24400.00
736.4370, 24227.00
737.5880, 24360.00
738.7380, 24252.00
739.8880, 24138.00
741.0390, 24248.00
742.1890, 24223.00
743.3380, 24216.00
744.4880, 24238.00
745.6380, 24106.00
746.7870, 24134.00
747.9360, 24249.00
749.0850, 24320.00
750.2340, 24168.00
751.3830, 24186.00
752.5310, 24439.00
753.6800, 24430.00
754.8280, 24617.00
755.9760, 24373.00
757.1240, 24543.00
758.2720, 24675.00
759.4190, 24461.00
760.5670, 24663.00
761.7140, 24558.00
762.8610, 24612.00
764.0080, 24444.00
765.1550, 24513.00
766.3020, 24594.00
767.4480, 24584.00
768.5950, 24771.00
769.7410, 24947.00
770.8870, 24777.00
772.0330, 24714.00
773.1780, 24981.00
774.3240, 24815.00
775.4690, 24865.00
776.6140, 24912.00
777.7590, 25067.00
778.9040, 25017.00
780.0490, 25088.00
781.1940, 25287.00
782.3380, 25445.00
783.4820, 25378.00
784.6260, 25742.00
785.7700, 25631.00
786.9140, 25779.00
788.0580, 25936.00
789.2010, 25922.00
790.3450, 26224.00
791.4880, 26120.00
792.6310, 26254.00
793.7730, 26555.00
794.9160, 26752.00
796.0590, 26835.00
797.2010, 27044.00
798.3430, 27159.00
799.4850, 27424.00
800.6270, 27672.00
801.7690, 28073.00
802.9100, 28374.00
804.0520, 28632.00
805.1930, 29043.00
806.3340, 29392.00
807.4750, 29891.00
808.6160, 30538.00
809.7560, 30964.00
810.8970, 31488.00
812.0370, 31888.00
813.1770, 32781.00
814.3170, 33321.00
815.4570, 33729.00
816.5960, 34061.95
817.7360, 34188.33
818.8750, 34195.00
820.0140, 34029.00
821.1530, 33754.00
822.2920, 33227.00
823.4310, 32854.00
824.5690, 31993.00
825.7070, 31783.00
826.8460, 31130.00
827.9840, 30442.00
829.1220, 30118.00
830.2590, 29962.00
831.3970, 29268.00
832.5340, 29120.00
833.6710, 28946.00
834.8080, 28613.00
835.9450, 28262.00
837.0820, 28069.00
838.2190, 27816.00
839.3550, 27517.00
840.4910, 27388.00
841.6270, 27074.00
842.7630, 27181.00
843.8990, 26795.00
845.0350, 26997.00
846.1700, 26604.00
847.3060, 26700.00
848.4410, 26792.00
849.5760, 26569.00
850.7100, 26664.86
851.8450, 26392.00
852.9800, 26611.00
854.1140, 26436.00
855.2480, 26373.00
856.3820, 26730.00
857.5160, 26736.00
858.6500, 26712.00
859.7830, 26832.00
860.9170, 26733.00
862.0500, 26722.00
863.1830, 26920.00
864.3160, 26976.00
865.4480, 26823.00
866.5810, 26967.00
867.7130, 27062.00
868.8460, 26946.00
869.9780, 26856.00
871.1100, 27123.00
872.2410, 27211.00
873.3730, 27048.00
874.5050, 27427.00
875.6360, 27267.00
876.7670, 27393.00
877.8980, 27207.00
879.0290, 27399.00
880.1590, 27669.00
881.2900, 27535.00
882.4200, 27480.00
883.5500, 27823.00
884.6800, 27687.00
885.8100, 27902.00
886.9400, 28101.00
888.0690, 28082.00
889.1990, 28184.00
890.3280, 28496.00
891.4570, 28615.00
892.5860, 28625.00
893.7140, 28894.00
894.8430, 29084.00
895.9710, 29631.00
897.1000, 29632.00
898.2280, 30224.00
899.3560, 30438.00
900.4830, 30704.00
901.6110, 31135.00
902.7380, 31532.00
903.8660, 31796.00
904.9930, 32464.00
906.1200, 33130.00
907.2460, 34027.00
908.3730, 35042.00
909.5000, 36146.00
910.6260, 38245.00
911.7520, 40106.00
912.8780, 43257.00
914.0040, 46037.00
915.1290, 49056.00
916.2550, 51670.00
917.3800, 52922.00
918.5050, 52093.00
919.6300, 49930.00
920.7550, 46517.00
921.8800, 43958.00
923.0040, 41368.00
924.1290, 39364.00
925.2530, 38091.00
926.3770, 37122.00
927.5010, 35969.00
928.6250, 35231.00
929.7480, 34221.00
930.8720, 33751.00
931.9950, 33175.00
933.1180, 32542.00
934.2410, 32281.00
935.3640, 32083.00
936.4860, 31858.00
937.6090, 31515.00
938.7310, 31267.00
939.8530, 31281.00
940.9750, 31051.00
942.0970, 31152.00
943.2180, 31282.00
944.3400, 31270.00
945.4610, 31476.00
946.5820, 31156.00
947.7030, 31486.00
948.8240, 31481.00
949.9450, 31178.00
951.0650, 31279.00
952.1860, 31353.00
953.3060, 31298.00
954.4260, 31203.00
955.5460, 31077.00
956.6650, 31115.00
957.7850, 31122.00
958.9040, 31089.00
960.0230, 31168.00
961.1420, 31160.00
962.2610, 31038.00
963.3800, 31405.00
964.4990, 31177.00
965.6170, 31403.00
966.7350, 31497.00
967.8530, 31654.00
968.9710, 31827.00
970.0890, 32042.00
971.2070, 31843.00
972.3240, 31572.00
973.4410, 31812.00
974.5580, 31949.00
975.6750, 32040.00
976.7920, 32075.00
977.9090, 31848.00
979.0250, 32048.00
980.1410, 32468.00
981.2580, 32531.00
982.3740, 32281.00
983.4890, 32477.00
984.6050, 32278.00
985.7200, 32780.00
986.8360, 32407.00
987.9510, 32712.00
989.0660, 32944.00
990.1810, 32840.00
991.2950, 33007.00
992.4100, 33235.00
993.5240, 33601.00
994.6390, 34051.93
995.7530, 34602.33
996.8660, 35286.00
997.9800, 36029.00
999.0940, 36947.00
1000.207, 37949.00
1001.320, 38921.00
1002.433, 39646.00
1003.546, 39853.00
1004.659, 39633.00
1005.772, 39159.00
1006.884, 38602.00
1007.996, 37615.00
1009.108, 36615.00
1010.220, 35935.00
1011.332, 35700.00
1012.444, 35112.00
1013.555, 34692.00
1014.666, 34771.00
1015.777, 33993.00
1016.888, 33965.00
1017.999, 34102.00
1019.110, 33888.00
1020.220, 34225.00
1021.331, 34019.00
1022.441, 33847.00
1023.551, 33968.00
1024.661, 33830.00
1025.770, 33849.00
1026.880, 33866.00
1027.989, 33908.00
1029.098, 33890.00
1030.207, 33882.00
1031.316, 33870.00
1032.425, 34100.00
1033.533, 33891.00
1034.642, 34046.00
1035.750, 34079.00
1036.858, 34046.00
1037.966, 33999.00
1039.073, 33955.00
1040.181, 33946.00
1041.288, 33908.04
1042.396, 33854.97
1043.503, 33824.00
1044.610, 33747.00
1045.716, 33620.00
1046.823, 33576.00
1047.929, 33650.00
1049.036, 33794.00
1050.142, 33786.00
1051.248, 33939.00
1052.353, 33655.00
1053.459, 33716.00
1054.564, 33966.00
1055.670, 33776.00
1056.775, 34067.00
1057.880, 34095.00
1058.985, 34134.00
1060.089, 34210.00
1061.194, 34386.00
1062.298, 34613.00
1063.402, 34574.00
1064.506, 34668.00
1065.610, 34620.00
1066.713, 34611.11
1067.817, 34647.00
1068.920, 34540.00
1070.023, 34449.00
1071.126, 34385.00
1072.229, 34913.00
1073.332, 34745.00
1074.435, 34794.00
1075.537, 34929.00
1076.639, 34864.00
1077.741, 34822.00
1078.843, 34806.00
1079.945, 34812.92
1081.046, 34825.43
1082.148, 34847.00
1083.249, 34904.00
1084.350, 34866.00
1085.451, 34925.00
1086.551, 34967.00
1087.652, 34938.00
1088.752, 34902.00
1089.853, 35067.00
1090.953, 35161.00
1092.053, 35030.00
1093.152, 34953.00
1094.252, 35037.00
1095.351, 34963.00
1096.451, 35233.00
1097.550, 35100.00
1098.649, 35334.00
1099.748, 35055.00
1100.846, 35307.00
1101.945, 35302.00
1103.043, 35249.00
1104.141, 35074.00
1105.239, 35442.00
1106.337, 35336.00
1107.434, 35055.00
1108.532, 35469.00
1109.629, 35318.00
1110.726, 35686.00
1111.823, 35477.00
1112.920, 35471.00
1114.017, 35581.00
1115.113, 35640.00
1116.210, 35644.00
1117.306, 35854.00
1118.402, 35668.00
1119.498, 36112.00
1120.593, 35796.00
1121.689, 35899.00
1122.784, 36169.00
1123.879, 36099.00
1124.974, 36203.00
1126.069, 36332.00
1127.164, 36329.00
1128.259, 36286.00
1129.353, 36327.00
1130.447, 36284.00
1131.541, 36044.00
1132.635, 36462.00
1133.729, 36215.00
1134.822, 36403.00
1135.916, 36397.00
1137.009, 36409.00
1138.102, 36430.00
1139.195, 36508.00
1140.288, 36721.00
1141.380, 36595.00
1142.473, 36662.00
1143.565, 36965.00
1144.657, 36883.00
1145.749, 36821.00
1146.841, 36995.00
1147.932, 36772.00
1149.024, 37026.00
1150.115, 36983.00
1151.206, 37136.00
1152.297, 37295.00
1153.388, 37326.00
1154.479, 37191.00
1155.569, 37225.00
1156.659, 37285.00
1157.750, 37393.00
1158.839, 37086.00
1159.929, 37534.00
1161.019, 37353.00
1162.108, 37162.00
1163.198, 37608.00
1164.287, 37482.00
1165.376, 37510.00
1166.465, 37784.00
1167.553, 37712.00
1168.642, 37815.00
1169.730, 37878.00
1170.818, 37879.00
1171.906, 37975.00
1172.994, 37720.00
1174.082, 37970.00
1175.170, 38092.00
1176.257, 37911.00
1177.344, 38033.00
1178.431, 38072.00
1179.518, 37971.00
1180.605, 37979.00
1181.691, 38215.00
1182.778, 38238.00
1183.864, 38370.00
1184.950, 38321.00
1186.036, 38430.00
1187.122, 38404.00
1188.207, 38398.00
1189.292, 38548.00
1190.378, 38378.00
1191.463, 38547.00
1192.548, 38490.00
1193.632, 38782.00
1194.717, 38755.00
1195.801, 38612.00
1196.886, 38623.00
1197.970, 38557.00
1199.054, 38523.56
1200.137, 38576.99
1201.221, 38474.00
1202.305, 38784.00
1203.388, 38750.00
1204.471, 39054.00
1205.554, 39167.00
1206.637, 38934.00
1207.719, 38990.00
1208.802, 38849.00
1209.884, 38902.00
1210.966, 38929.00
1212.048, 38854.00
1213.130, 39217.00
1214.212, 39298.00
1215.293, 39171.00
1216.374, 39119.00
1217.456, 39236.00
1218.536, 39154.00
1219.617, 39303.00
1220.698, 39102.00
1221.778, 39149.00
1222.859, 39300.00
1223.939, 39292.00
1225.019, 39367.00
1226.099, 39458.00
1227.178, 39291.00
1228.258, 39590.00
1229.337, 39330.00
1230.417, 39423.00
1231.496, 39646.00
1232.574, 39771.00
1233.653, 39768.00
1234.732, 39938.00
1235.810, 39504.00
1236.888, 39744.00
1237.966, 39702.00
1239.044, 39764.00
1240.122, 39766.00
1241.199, 39812.00
1242.277, 39898.00
1243.354, 40177.00
1244.431, 40044.00
1245.508, 39852.00
1246.585, 40059.00
1247.661, 39917.00
1248.738, 40263.00
1249.814, 40152.00
1250.890, 40194.00
1251.966, 40368.00
1253.042, 40273.00
1254.117, 40314.00
1255.193, 40412.00
1256.268, 40447.00
1257.343, 40371.00
1258.418, 40553.00
1259.493, 40596.00
1260.567, 40396.00
1261.642, 40652.00
1262.716, 40809.00
1263.790, 40857.00
1264.864, 40737.00
1265.938, 40973.00
1267.011, 40934.00
1268.085, 40778.00
1269.158, 40779.00
1270.231, 40829.00
1271.304, 40905.00
1272.377, 40980.00
1273.450, 40914.00
1274.522, 40937.00
1275.594, 41182.00
1276.666, 41242.00
1277.738, 41046.00
1278.810, 40926.00
1279.882, 41072.00
1280.953, 41395.00
1282.025, 41494.00
1283.096, 41338.00
1284.167, 41228.00
1285.238, 41222.00
1286.308, 41366.00
1287.379, 41450.00
1288.449, 41535.10
1289.519, 41583.53
1290.589, 41714.00
1291.659, 41584.00
1292.729, 41585.00
1293.798, 41480.00
1294.868, 41287.00
1295.937, 41538.00
1297.006, 41821.00
1298.075, 41372.00
1299.143, 41693.00
1300.212, 41826.00
1301.280, 41602.00
1302.348, 41764.00
1303.416, 41591.00
1304.484, 41821.00
1305.552, 41895.00
1306.620, 41896.00
1307.687, 42151.00
1308.754, 41904.00
1309.821, 42174.00
1310.888, 42100.00
1311.955, 42219.00
1313.021, 42120.00
1314.088, 42354.00
1315.154, 42319.00
1316.220, 42445.00
1317.286, 42294.00
1318.352, 42385.00
1319.417, 42512.00
1320.483, 42249.00
1321.548, 42379.00
1322.613, 42370.00
1323.678, 42535.00
1324.743, 42594.00
1325.807, 42625.00
1326.872, 42582.00
1327.936, 42604.00
1329.000, 42760.00
1330.064, 43042.00
1331.128, 42681.00
1332.191, 43140.00
1333.255, 43038.00
1334.318, 43073.00
1335.381, 43226.00
1336.444, 43184.00
1337.507, 43063.00
1338.569, 43152.00
1339.632, 42950.00
1340.694, 43401.00
1341.756, 43179.00
1342.818, 43716.00
1343.880, 43406.00
1344.941, 43687.00
1346.003, 43713.00
1347.064, 43738.00
1348.125, 43484.00
1349.186, 43930.00
1350.247, 43988.00
1351.308, 43681.00
1352.368, 43789.00
1353.428, 43576.00
1354.489, 43910.00
1355.549, 44114.00
1356.608, 44110.00
1357.668, 44257.00
1358.727, 44295.64
1359.787, 44437.00
1360.846, 44296.00
1361.905, 44316.00
1362.964, 44185.00
1364.022, 44182.47
1365.081, 44183.00
1366.139, 44185.00
1367.197, 44341.57
1368.255, 44394.53
1369.313, 44569.00
1370.371, 44730.00
1371.428, 44723.00
1372.486, 44792.00
1373.543, 44771.00
1374.600, 44610.00
1375.657, 44742.00
1376.713, 44822.00
1377.770, 45036.00
1378.826, 44834.00
1379.882, 44994.00
1380.938, 45165.00
1381.994, 44970.00
1383.050, 45177.00
1384.106, 45126.00
1385.161, 45036.00
1386.216, 45174.00
1387.271, 45390.00
1388.326, 45361.00
1389.381, 45383.00
1390.435, 45529.00
1391.490, 45166.00
1392.544, 45241.00
1393.598, 45209.00
1394.652, 45581.00
1395.705, 45539.00
1396.759, 45623.00
1397.812, 45719.00
1398.866, 45679.00
1399.919, 45536.00
1400.972, 45663.00
1402.024, 45803.00
1403.077, 45697.00
1404.129, 45797.00
1405.181, 45875.00
1406.233, 45709.00
1407.285, 45912.00
1408.337, 45951.00
1409.389, 45747.00
1410.440, 45926.00
1411.491, 46207.00
1412.542, 46158.00
1413.593, 46114.00
1414.644, 46271.00
1415.695, 45910.00
1416.745, 46329.00
1417.795, 46207.00
1418.845, 46444.00
1419.895, 46167.00
1420.945, 46445.00
1421.995, 46407.00
1423.044, 46488.00
1424.093, 46654.00
1425.142, 46877.00
1426.191, 46723.00
1427.240, 46569.00
1428.289, 46719.00
1429.337, 46928.00
1430.385, 46907.00
1431.433, 46886.00
1432.481, 46862.00
1433.529, 46968.00
1434.577, 47358.00
1435.624, 47059.00
1436.672, 47315.00
1437.719, 47197.00
1438.766, 47548.00
1439.812, 47627.00
1440.859, 47684.00
1441.905, 47642.00
1442.952, 47667.00
1443.998, 47578.00
1445.044, 47680.00
1446.090, 47955.00
1447.135, 47864.00
1448.181, 48072.00
1449.226, 48050.00
1450.271, 47968.00
1451.316, 48133.00
1452.361, 47966.00
1453.405, 48160.00
1454.450, 48218.00
1455.494, 48283.00
1456.538, 48088.00
1457.582, 48206.00
1458.626, 48375.00
1459.670, 48321.00
1460.713, 48504.00
1461.757, 48429.00
1462.800, 48613.00
1463.843, 48615.00
1464.886, 48729.00
1465.928, 48676.00
1466.971, 48701.46
1468.013, 48742.00
1469.055, 48637.00
1470.097, 48658.00
1471.139, 48534.00
1472.181, 48723.00
1473.222, 48716.00
1474.263, 48818.00
1475.305, 48941.00
1476.346, 48776.00
1477.386, 48926.00
1478.427, 49020.00
1479.468, 49090.00
1480.508, 49244.00
1481.548, 48957.00
1482.588, 49216.00
1483.628, 49128.00
1484.668, 49103.00
1485.707, 49321.00
1486.747, 49359.00
1487.786, 49737.00
1488.825, 49578.00
1489.864, 49262.00
1490.902, 49780.00
1491.941, 49561.00
1492.979, 49433.00
1494.017, 49590.00
1495.055, 49609.00
1496.093, 49893.00
1497.131, 49498.00
1498.168, 49503.00
1499.206, 49726.00
1500.243, 49810.00
1501.280, 49821.00
1502.317, 49979.00
1503.354, 49928.00
1504.390, 50157.00
1505.426, 50184.00
1506.463, 50294.00
1507.499, 50138.00
1508.535, 50551.00
1509.570, 50327.00
1510.606, 50398.00
1511.641, 50806.00
1512.676, 50527.00
1513.711, 50582.00
1514.746, 50899.00
1515.781, 50640.00
1516.816, 50645.00
1517.850, 50853.00
1518.884, 50623.00
1519.918, 50734.00
1520.952, 51073.00
1521.986, 51002.00
1523.019, 50917.00
1524.053, 51043.00
1525.086, 51089.00
1526.119, 51211.00
1527.152, 51153.00
1528.185, 51193.00
1529.217, 51506.00
1530.250, 51166.00
1531.282, 51752.00
1532.314, 51467.00
1533.346, 51565.00
1534.377, 51674.00
1535.409, 51718.00
1536.440, 51796.00
1537.472, 51998.00
1538.503, 52122.00
1539.534, 52156.45
1540.564, 52005.00
1541.595, 52146.00
1542.625, 52300.00
1543.656, 52173.00
1544.686, 52423.00
1545.716, 52291.00
1546.745, 52012.00
1547.775, 51970.00
1548.804, 52478.00
1549.834, 52196.00
1550.863, 52718.00
1551.892, 52541.00
1552.920, 52872.00
1553.949, 52617.00
1554.977, 52873.00
1556.006, 53074.00
1557.034, 52939.00
1558.062, 52809.00
1559.089, 52895.00
1560.117, 52908.00
1561.144, 53129.00
1562.172, 53165.00
1563.199, 53184.00
1564.226, 53007.00
1565.252, 52896.00
1566.279, 53089.00
1567.305, 53151.00
1568.332, 53071.00
1569.358, 53272.00
1570.384, 53711.00
##END=



