##NAMES=Andalusite
##RRUFFID=R050626
##IDEAL CHEMISTRY=Al_2_SiO_5_
##LOCALITY=Minas Gerais, Brazil
##OWNER=RRUFF
##SOURCE=Gemological Center
##DESCRIPTION=Grayish brown fragment
##STATUS=The identification of this mineral has been confirmed by X-ray diffraction and chemical analysis
##URL=rruff.info/R050626
##MEASURED CHEMISTRY=(Al_1.99_Fe^3+^_0.01_)_Î£=1_Si_1.00_O_5_
##PIN_ID=L00621
##ORIENTATION=Laser parallel to -c* (0 0 -1). Fiducial mark perpendicular to laser is parallel to -a [-1 0 0]
132.8980, 7093.000
134.1270, 7003.000
135.3560, 6893.000
136.5850, 6970.000
137.8140, 7055.000
139.0430, 7226.000
140.2710, 7414.000
141.5000, 7289.000
142.7280, 7087.000
143.9560, 6994.000
145.1840, 7074.000
146.4120, 7095.000
147.6390, 7261.000
148.8670, 7214.000
150.0940, 7100.000
151.3210, 7228.000
152.5490, 7440.000
153.7750, 7346.000
155.0020, 7273.000
156.2290, 7162.000
157.4550, 7180.000
158.6810, 7156.000
159.9080, 7147.000
161.1340, 7223.671
162.3590, 7270.000
163.5850, 7429.000
164.8110, 7586.000
166.0360, 7788.000
167.2610, 7740.000
168.4860, 7810.000
169.7110, 7690.000
170.9360, 7811.000
172.1610, 7730.000
173.3850, 7692.000
174.6100, 7717.000
175.8340, 7747.000
177.0580, 7849.000
178.2820, 7690.000
179.5050, 7836.000
180.7290, 7834.000
181.9520, 7944.000
183.1760, 7959.000
184.3990, 8008.000
185.6220, 8098.000
186.8450, 8235.848
188.0670, 8465.000
189.2900, 8593.000
190.5120, 8836.000
191.7340, 9033.000
192.9560, 9032.000
194.1780, 9134.000
195.4000, 9243.000
196.6220, 9244.000
197.8430, 9135.000
199.0640, 8987.000
200.2860, 9106.000
201.5070, 9261.000
202.7270, 9347.000
203.9480, 9001.000
205.1690, 8402.000
206.3890, 7908.000
207.6090, 7721.000
208.8290, 7588.000
210.0490, 7535.000
211.2690, 7637.000
212.4890, 7762.000
213.7080, 7712.000
214.9280, 7782.000
216.1470, 7812.000
217.3660, 7594.000
218.5850, 7710.000
219.8030, 7630.000
221.0220, 7662.000
222.2400, 7634.000
223.4590, 7861.000
224.6770, 7752.000
225.8950, 7935.000
227.1120, 7943.000
228.3300, 8145.000
229.5480, 8346.000
230.7650, 8600.000
231.9820, 8856.000
233.1990, 9382.000
234.4160, 9970.000
235.6330, 10779.00
236.8490, 11899.00
238.0660, 12684.00
239.2820, 13310.00
240.4980, 13419.00
241.7140, 13285.00
242.9300, 12732.00
244.1460, 12245.00
245.3610, 11568.00
246.5770, 11138.00
247.7920, 10676.00
249.0070, 10446.00
250.2220, 10142.00
251.4370, 10231.00
252.6510, 10089.00
253.8660, 10049.00
255.0800, 9958.000
256.2940, 9944.000
257.5080, 10055.00
258.7220, 10261.00
259.9360, 10250.29
261.1490, 10342.88
262.3630, 10391.00
263.5760, 10448.00
264.7890, 10603.00
266.0020, 10764.00
267.2150, 10931.00
268.4270, 11167.00
269.6400, 11379.00
270.8520, 11857.00
272.0640, 12032.00
273.2760, 12643.00
274.4880, 13413.00
275.7000, 14236.00
276.9120, 15201.00
278.1230, 16802.00
279.3340, 18633.00
280.5450, 21217.00
281.7560, 24712.00
282.9670, 29053.00
284.1780, 34303.00
285.3880, 39502.00
286.5980, 46276.00
287.8090, 54625.00
289.0190, 62597.00
290.2290, 65535.00
291.4380, 65535.00
292.6480, 64714.00
293.8570, 57499.00
295.0670, 48528.00
296.2760, 39777.00
297.4850, 32051.00
298.6930, 25868.00
299.9020, 21347.00
301.1110, 18547.00
302.3190, 15370.00
303.5270, 14143.00
304.7350, 13231.00
305.9430, 12654.00
307.1510, 12283.00
308.3580, 12321.00
309.5660, 12643.00
310.7730, 13447.00
311.9800, 14753.00
313.1870, 16177.00
314.3940, 18062.00
315.6010, 20519.00
316.8070, 24306.00
318.0130, 28618.00
319.2200, 32219.00
320.4260, 33241.00
321.6310, 31791.00
322.8370, 28680.00
324.0430, 25367.00
325.2480, 21629.00
326.4540, 18561.00
327.6590, 15901.00
328.8640, 14600.00
330.0680, 13480.00
331.2730, 12696.00
332.4780, 12215.00
333.6820, 12047.00
334.8860, 11832.00
336.0900, 11555.00
337.2940, 11580.00
338.4980, 11636.00
339.7010, 11722.00
340.9050, 11890.00
342.1080, 12385.00
343.3110, 12824.00
344.5140, 13872.00
345.7170, 14855.00
346.9200, 16469.00
348.1220, 18595.00
349.3240, 21109.00
350.5270, 24387.00
351.7290, 28530.00
352.9310, 33220.00
354.1320, 38465.00
355.3340, 44271.00
356.5350, 48683.00
357.7370, 50280.00
358.9380, 49483.00
360.1390, 46204.00
361.3400, 41505.00
362.5400, 36368.00
363.7410, 31105.00
364.9410, 26715.00
366.1410, 23053.00
367.3410, 20289.00
368.5410, 18084.00
369.7410, 16395.00
370.9400, 15292.00
372.1400, 14272.00
373.3390, 13586.00
374.5380, 13082.00
375.7370, 12606.00
376.9360, 12218.00
378.1350, 12216.00
379.3330, 12122.00
380.5310, 12108.00
381.7300, 11943.00
382.9280, 11869.48
384.1260, 11939.00
385.3230, 11679.00
386.5210, 11556.00
387.7180, 11524.00
388.9160, 11195.00
390.1130, 11248.00
391.3100, 11323.00
392.5060, 11180.00
393.7030, 11051.00
394.9000, 10979.00
396.0960, 11033.00
397.2920, 11018.00
398.4880, 10863.00
399.6840, 10921.30
400.8800, 10862.34
402.0750, 10927.00
403.2710, 10825.00
404.4660, 10863.00
405.6610, 10831.00
406.8560, 10749.00
408.0510, 10799.00
409.2450, 10642.00
410.4400, 10642.83
411.6340, 10500.00
412.8280, 10567.00
414.0220, 10418.00
415.2160, 10371.00
416.4100, 10347.00
417.6030, 10288.00
418.7970, 10157.00
419.9900, 10120.00
421.1830, 10216.00
422.3760, 10235.00
423.5690, 10106.00
424.7610, 10231.00
425.9540, 10259.00
427.1460, 10066.00
428.3380, 10045.00
429.5300, 10013.00
430.7220, 10051.00
431.9140, 10111.00
433.1050, 10101.00
434.2970, 10004.00
435.4880, 10107.13
436.6790, 10062.80
437.8700, 10138.00
439.0610, 10196.00
440.2510, 10245.28
441.4420, 10316.00
442.6320, 10459.00
443.8220, 10537.00
445.0120, 10761.00
446.2020, 10889.00
447.3910, 11197.00
448.5810, 11929.00
449.7700, 12311.00
450.9600, 12671.00
452.1490, 12300.00
453.3370, 11952.00
454.5260, 11364.00
455.7150, 11140.00
456.9030, 10651.00
458.0910, 10579.00
459.2800, 10390.00
460.4670, 10268.00
461.6550, 10258.00
462.8430, 10206.00
464.0300, 10206.00
465.2180, 10296.00
466.4050, 10111.00
467.5920, 10253.00
468.7790, 10387.00
469.9650, 10244.00
471.1520, 10289.00
472.3380, 10379.00
473.5250, 10367.00
474.7110, 10306.00
475.8970, 10230.00
477.0820, 10306.00
478.2680, 10443.00
479.4540, 10425.00
480.6390, 10531.00
481.8240, 10486.00
483.0090, 10479.00
484.1940, 10566.00
485.3780, 10507.00
486.5630, 10451.00
487.7470, 10425.00
488.9320, 10555.00
490.1160, 10467.00
491.3000, 10484.00
492.4830, 10389.00
493.6670, 10419.00
494.8500, 10376.00
496.0340, 10483.00
497.2170, 10438.00
498.4000, 10425.00
499.5820, 10361.00
500.7650, 10362.98
501.9480, 10358.00
503.1300, 10380.00
504.3120, 10394.00
505.4940, 10459.00
506.6760, 10526.00
507.8580, 10574.00
509.0390, 10501.00
510.2210, 10483.00
511.4020, 10558.00
512.5830, 10514.00
513.7640, 10574.00
514.9450, 10572.00
516.1250, 10648.00
517.3060, 10597.00
518.4860, 10523.00
519.6660, 10598.00
520.8460, 10672.00
522.0260, 10594.00
523.2060, 10624.00
524.3850, 10691.00
525.5650, 10645.00
526.7440, 10720.00
527.9230, 10712.00
529.1020, 10734.00
530.2810, 10736.00
531.4590, 10840.00
532.6380, 10849.00
533.8160, 11073.00
534.9940, 10948.00
536.1720, 11048.00
537.3500, 11236.00
538.5270, 11426.00
539.7050, 11497.00
540.8820, 11774.00
542.0590, 11936.36
543.2360, 12205.00
544.4130, 12566.00
545.5900, 12959.00
546.7660, 13736.00
547.9430, 14137.00
549.1190, 14669.00
550.2950, 15229.00
551.4710, 15242.00
552.6470, 15138.00
553.8220, 14732.00
554.9980, 14259.00
556.1730, 13814.00
557.3480, 13358.00
558.5230, 12958.00
559.6980, 12820.39
560.8730, 12649.45
562.0470, 12732.00
563.2220, 12673.00
564.3960, 12785.00
565.5700, 12971.00
566.7440, 13261.00
567.9170, 13527.00
569.0910, 13947.00
570.2640, 14257.00
571.4380, 14502.00
572.6110, 14482.00
573.7840, 14124.00
574.9570, 13822.00
576.1290, 13311.00
577.3020, 12933.00
578.4740, 12530.00
579.6460, 12323.00
580.8180, 11879.00
581.9900, 11732.00
583.1620, 11560.00
584.3330, 11632.00
585.5040, 11406.00
586.6760, 11456.00
587.8470, 11362.00
589.0180, 11416.00
590.1880, 11409.00
591.3590, 11303.00
592.5290, 11286.00
593.7000, 11467.00
594.8700, 11361.00
596.0400, 11428.00
597.2090, 11367.00
598.3790, 11410.00
599.5490, 11368.00
600.7180, 11335.00
601.8870, 11333.00
603.0560, 11276.00
604.2250, 11459.00
605.3940, 11303.00
606.5620, 11479.00
607.7300, 11306.00
608.8990, 11321.00
610.0670, 11297.00
611.2350, 11468.00
612.4020, 11372.00
613.5700, 11426.00
614.7370, 11510.00
615.9050, 11509.00
617.0720, 11602.74
618.2390, 11706.00
619.4060, 11745.00
620.5720, 11844.00
621.7390, 11907.00
622.9050, 12081.00
624.0710, 12214.00
625.2370, 12365.00
626.4030, 12569.00
627.5690, 12630.00
628.7340, 12705.00
629.9000, 12511.00
631.0650, 12326.00
632.2300, 12248.00
633.3950, 11974.00
634.5600, 11824.00
635.7240, 11724.00
636.8890, 11551.00
638.0530, 11509.00
639.2170, 11490.98
640.3810, 11557.00
641.5450, 11570.00
642.7080, 11614.00
643.8720, 11714.00
645.0350, 11714.00
646.1980, 11684.92
647.3610, 11528.00
648.5240, 11599.00
649.6870, 11511.00
650.8490, 11555.00
652.0120, 11666.00
653.1740, 11439.00
654.3360, 11630.00
655.4980, 11404.00
656.6600, 11436.00
657.8210, 11468.00
658.9830, 11457.00
660.1440, 11558.00
661.3050, 11389.00
662.4660, 11372.00
663.6270, 11480.00
664.7870, 11469.00
665.9480, 11464.00
667.1080, 11524.00
668.2680, 11522.00
669.4280, 11563.00
670.5880, 11677.00
671.7480, 11621.28
672.9070, 11510.00
674.0670, 11567.00
675.2260, 11640.00
676.3850, 11619.00
677.5440, 11665.00
678.7030, 11609.00
679.8610, 11632.00
681.0200, 11730.00
682.1780, 11572.00
683.3360, 11714.00
684.4940, 11820.00
685.6520, 11667.00
686.8090, 11818.00
687.9670, 11768.00
689.1240, 11739.00
690.2810, 11782.00
691.4380, 11707.00
692.5950, 11860.00
693.7520, 11851.00
694.9080, 11800.00
696.0650, 11770.00
697.2210, 11792.00
698.3770, 11792.00
699.5330, 11779.24
700.6880, 11770.00
701.8440, 11785.00
702.9990, 11785.00
704.1550, 11835.00
705.3100, 11898.00
706.4650, 11927.00
707.6190, 12017.00
708.7740, 12088.00
709.9290, 11994.00
711.0830, 12154.00
712.2370, 12082.00
713.3910, 12244.00
714.5450, 12508.00
715.6980, 12270.00
716.8520, 12334.00
718.0050, 12323.00
719.1580, 12226.00
720.3110, 12145.00
721.4640, 11991.00
722.6170, 12037.00
723.7700, 12072.00
724.9220, 11959.00
726.0740, 11746.00
727.2260, 11897.00
728.3780, 11796.00
729.5300, 11861.00
730.6810, 11722.00
731.8330, 11928.00
732.9840, 11953.00
734.1350, 11756.00
735.2860, 11893.00
736.4370, 11830.00
737.5880, 11820.00
738.7380, 11779.00
739.8880, 11743.66
741.0390, 11745.14
742.1890, 11705.00
743.3380, 11774.00
744.4880, 11819.00
745.6380, 11905.00
746.7870, 11876.00
747.9360, 11884.00
749.0850, 11967.00
750.2340, 12000.00
751.3830, 12016.87
752.5310, 12036.76
753.6800, 12046.00
754.8280, 12005.00
755.9760, 12013.00
757.1240, 11949.00
758.2720, 11954.00
759.4190, 11918.05
760.5670, 11981.00
761.7140, 11892.00
762.8610, 11952.00
764.0080, 12023.00
765.1550, 11957.00
766.3020, 12001.00
767.4480, 12088.00
768.5950, 11895.00
769.7410, 11933.00
770.8870, 11970.00
772.0330, 12093.00
773.1780, 11983.00
774.3240, 12075.00
775.4690, 12075.00
776.6140, 12176.00
777.7590, 12011.00
778.9040, 12177.00
780.0490, 12143.00
781.1940, 12262.00
782.3380, 12141.00
783.4820, 12264.00
784.6260, 12133.00
785.7700, 12173.00
786.9140, 12180.00
788.0580, 12109.00
789.2010, 12309.00
790.3450, 12302.00
791.4880, 12269.00
792.6310, 12288.00
793.7730, 12337.00
794.9160, 12349.00
796.0590, 12399.37
797.2010, 12396.00
798.3430, 12446.00
799.4850, 12428.00
800.6270, 12345.00
801.7690, 12643.00
802.9100, 12553.00
804.0520, 12485.00
805.1930, 12776.00
806.3340, 12860.00
807.4750, 12760.00
808.6160, 12568.00
809.7560, 12692.00
810.8970, 12673.00
812.0370, 12610.00
813.1770, 12648.00
814.3170, 12661.00
815.4570, 12699.00
816.5960, 12706.00
817.7360, 12869.00
818.8750, 12547.00
820.0140, 12746.00
821.1530, 12645.00
822.2920, 12758.00
823.4310, 12816.00
824.5690, 12771.00
825.7070, 12848.00
826.8460, 12867.00
827.9840, 12883.00
829.1220, 12858.00
830.2590, 12945.00
831.3970, 12907.00
832.5340, 12919.00
833.6710, 13077.00
834.8080, 13044.00
835.9450, 12936.00
837.0820, 13049.00
838.2190, 13024.00
839.3550, 12906.00
840.4910, 13030.00
841.6270, 12814.00
842.7630, 12886.00
843.8990, 12869.00
845.0350, 12739.00
846.1700, 12805.00
847.3060, 12852.00
848.4410, 12765.00
849.5760, 12765.00
850.7100, 12698.00
851.8450, 12860.00
852.9800, 12862.00
854.1140, 12832.00
855.2480, 12765.00
856.3820, 12779.00
857.5160, 12880.00
858.6500, 12838.00
859.7830, 12913.00
860.9170, 13001.00
862.0500, 12898.00
863.1830, 12951.00
864.3160, 12928.00
865.4480, 12935.00
866.5810, 13007.00
867.7130, 12989.00
868.8460, 13015.60
869.9780, 13037.00
871.1100, 13047.00
872.2410, 13007.00
873.3730, 13046.29
874.5050, 13086.89
875.6360, 13132.00
876.7670, 13235.00
877.8980, 13235.00
879.0290, 13349.00
880.1590, 13255.00
881.2900, 13269.00
882.4200, 13452.00
883.5500, 13644.00
884.6800, 13530.00
885.8100, 13783.00
886.9400, 13852.00
888.0690, 14011.00
889.1990, 13874.00
890.3280, 14083.00
891.4570, 14091.00
892.5860, 14251.00
893.7140, 14390.00
894.8430, 14590.00
895.9710, 14793.91
897.1000, 15079.00
898.2280, 15291.00
899.3560, 15533.00
900.4830, 15872.00
901.6110, 16303.93
902.7380, 16824.00
903.8660, 17414.00
904.9930, 18026.00
906.1200, 18818.00
907.2460, 19879.00
908.3730, 21437.00
909.5000, 23338.00
910.6260, 25922.00
911.7520, 29110.00
912.8780, 33555.00
914.0040, 39020.00
915.1290, 44994.00
916.2550, 51798.00
917.3800, 57470.00
918.5050, 59725.00
919.6300, 58893.00
920.7550, 53822.00
921.8800, 47077.00
923.0040, 40021.00
924.1290, 34028.00
925.2530, 29640.00
926.3770, 26124.00
927.5010, 24227.00
928.6250, 22509.00
929.7480, 21373.00
930.8720, 20753.00
931.9950, 20487.00
933.1180, 20328.00
934.2410, 20366.45
935.3640, 20616.00
936.4860, 21080.00
937.6090, 21776.00
938.7310, 22695.00
939.8530, 24027.00
940.9750, 25800.00
942.0970, 28028.00
943.2180, 30875.00
944.3400, 34893.00
945.4610, 39176.00
946.5820, 44386.00
947.7030, 49162.00
948.8240, 53568.00
949.9450, 56132.00
951.0650, 56048.00
952.1860, 53285.00
953.3060, 49244.00
954.4260, 43631.00
955.5460, 38351.00
956.6650, 33930.00
957.7850, 29760.00
958.9040, 26596.00
960.0230, 24147.00
961.1420, 22489.00
962.2610, 21006.00
963.3800, 19684.00
964.4990, 18823.00
965.6170, 18031.00
966.7350, 17493.00
967.8530, 17121.00
968.9710, 16549.00
970.0890, 16353.00
971.2070, 16121.00
972.3240, 15789.00
973.4410, 15647.00
974.5580, 15492.13
975.6750, 15384.00
976.7920, 15323.00
977.9090, 15202.00
979.0250, 15162.00
980.1410, 14986.00
981.2580, 14815.00
982.3740, 14947.00
983.4890, 14763.00
984.6050, 14691.00
985.7200, 14687.00
986.8360, 14673.00
987.9510, 14548.00
989.0660, 14553.00
990.1810, 14539.00
991.2950, 14502.27
992.4100, 14509.33
993.5240, 14507.00
994.6390, 14502.00
995.7530, 14539.00
996.8660, 14544.60
997.9800, 14466.00
999.0940, 14516.00
1000.207, 14522.00
1001.320, 14522.00
1002.433, 14559.00
1003.546, 14545.38
1004.659, 14572.00
1005.772, 14495.00
1006.884, 14580.00
1007.996, 14470.00
1009.108, 14613.00
1010.220, 14672.00
1011.332, 14811.00
1012.444, 14829.00
1013.555, 14962.00
1014.666, 15068.00
1015.777, 15233.00
1016.888, 15504.00
1017.999, 15678.00
1019.110, 15512.00
1020.220, 15587.00
1021.331, 15474.00
1022.441, 15501.00
1023.551, 15242.00
1024.661, 15131.00
1025.770, 15151.00
1026.880, 14945.00
1027.989, 14900.00
1029.098, 14805.00
1030.207, 14799.00
1031.316, 14728.00
1032.425, 14651.00
1033.533, 14877.00
1034.642, 14622.00
1035.750, 14937.00
1036.858, 14984.00
1037.966, 14775.00
1039.073, 14843.00
1040.181, 14816.00
1041.288, 14716.00
1042.396, 14783.00
1043.503, 14837.00
1044.610, 14877.00
1045.716, 14993.00
1046.823, 15140.00
1047.929, 15005.00
1049.036, 15247.00
1050.142, 15288.00
1051.248, 15475.00
1052.353, 15685.00
1053.459, 15898.00
1054.564, 16220.00
1055.670, 16492.00
1056.775, 17151.00
1057.880, 17674.00
1058.985, 18560.00
1060.089, 19634.00
1061.194, 21113.00
1062.298, 21805.00
1063.402, 23077.00
1064.506, 23442.00
1065.610, 22949.00
1066.713, 21967.00
1067.817, 20879.00
1068.920, 19604.00
1070.023, 18478.00
1071.126, 17503.00
1072.229, 16838.00
1073.332, 16165.00
1074.435, 15978.00
1075.537, 15605.00
1076.639, 15436.00
1077.741, 15206.00
1078.843, 15095.00
1079.945, 15067.00
1081.046, 14871.00
1082.148, 14952.00
1083.249, 14829.00
1084.350, 14724.00
1085.451, 14542.00
1086.551, 14585.00
1087.652, 14659.00
1088.752, 14653.00
1089.853, 14545.00
1090.953, 14487.00
1092.053, 14462.16
1093.152, 14621.00
1094.252, 14442.00
1095.351, 14538.00
1096.451, 14623.00
1097.550, 14605.00
1098.649, 14544.00
1099.748, 14552.00
1100.846, 14686.00
1101.945, 14767.00
1103.043, 14772.00
1104.141, 14814.00
1105.239, 14867.00
1106.337, 14836.00
1107.434, 14974.00
1108.532, 15069.00
1109.629, 15022.00
1110.726, 15019.00
1111.823, 15085.00
1112.920, 14928.00
1114.017, 14996.00
1115.113, 14852.00
1116.210, 14971.00
1117.306, 15015.00
1118.402, 15245.00
1119.498, 15275.00
1120.593, 15342.00
1121.689, 15412.00
1122.784, 15528.00
1123.879, 15405.00
1124.974, 15555.00
1126.069, 15335.00
1127.164, 15426.00
1128.259, 15139.00
1129.353, 14839.00
1130.447, 14824.00
1131.541, 14773.00
1132.635, 14508.00
1133.729, 14593.00
1134.822, 14678.00
1135.916, 14537.00
1137.009, 14549.00
1138.102, 14794.00
1139.195, 14774.00
1140.288, 14894.00
1141.380, 14737.00
1142.473, 14730.00
1143.565, 14623.00
1144.657, 14742.00
1145.749, 14582.00
1146.841, 14807.00
1147.932, 14764.00
1149.024, 14741.00
1150.115, 14647.00
1151.206, 14734.00
1152.297, 14781.00
1153.388, 14743.00
1154.479, 14771.00
1155.569, 14707.00
1156.659, 14754.00
1157.750, 14754.00
1158.839, 14666.00
1159.929, 14650.00
1161.019, 14677.00
1162.108, 14637.00
1163.198, 14761.00
1164.287, 14702.52
1165.376, 14599.00
1166.465, 14653.00
1167.553, 14721.00
1168.642, 14694.00
1169.730, 14707.00
1170.818, 14721.00
1171.906, 14690.00
1172.994, 14804.00
1174.082, 14556.00
1175.170, 14784.00
1176.257, 14664.00
1177.344, 14781.00
1178.431, 14769.00
1179.518, 14745.00
1180.605, 14758.05
1181.691, 14584.00
1182.778, 14703.00
1183.864, 14728.00
1184.950, 14721.00
1186.036, 14878.00
1187.122, 14744.00
1188.207, 14781.00
1189.292, 14841.00
1190.378, 14818.00
1191.463, 14845.66
1192.548, 14738.00
1193.632, 14813.00
1194.717, 14784.00
1195.801, 14693.00
1196.886, 14724.00
1197.970, 14731.00
1199.054, 14914.00
1200.137, 14740.00
1201.221, 14643.00
1202.305, 14822.00
1203.388, 14824.00
1204.471, 14880.00
1205.554, 14830.00
1206.637, 14801.00
1207.719, 14776.00
1208.802, 14835.00
1209.884, 14861.00
1210.966, 14764.00
1212.048, 14906.00
1213.130, 14740.00
1214.212, 14889.00
1215.293, 14922.00
1216.374, 14857.00
1217.456, 14920.00
1218.536, 14947.00
1219.617, 14912.00
1220.698, 14993.00
1221.778, 14807.00
1222.859, 15061.00
1223.939, 14944.00
1225.019, 15022.00
1226.099, 14866.00
1227.178, 14965.00
1228.258, 14929.00
1229.337, 14875.00
1230.417, 15063.00
1231.496, 15005.00
1232.574, 15003.00
1233.653, 15035.00
1234.732, 14983.00
1235.810, 14977.00
1236.888, 15054.00
1237.966, 14965.00
1239.044, 15061.00
1240.122, 15077.00
1241.199, 14969.00
1242.277, 15126.00
1243.354, 14906.00
1244.431, 15101.00
1245.508, 15101.00
1246.585, 15101.00
1247.661, 15132.00
1248.738, 15127.51
1249.814, 15087.00
1250.890, 15153.00
1251.966, 15055.00
1253.042, 15086.00
1254.117, 15064.00
1255.193, 15142.00
1256.268, 15070.00
1257.343, 15142.00
1258.418, 15171.00
1259.493, 15085.00
1260.567, 15037.00
1261.642, 15135.00
1262.716, 15176.00
1263.790, 15199.00
1264.864, 15240.72
1265.938, 15244.45
1267.011, 15268.00
1268.085, 15246.00
1269.158, 15245.62
1270.231, 15240.00
1271.304, 15170.00
1272.377, 15222.00
1273.450, 15180.00
1274.522, 15245.00
1275.594, 15393.00
1276.666, 15112.00
1277.738, 15373.00
1278.810, 15188.00
1279.882, 15249.00
1280.953, 15335.00
1282.025, 15266.00
1283.096, 15297.00
1284.167, 15400.00
1285.238, 15241.00
1286.308, 15311.00
1287.379, 15320.00
1288.449, 15346.00
1289.519, 15363.00
1290.589, 15393.68
1291.659, 15438.00
1292.729, 15444.00
1293.798, 15455.00
1294.868, 15442.00
1295.937, 15357.00
1297.006, 15404.00
1298.075, 15368.00
1299.143, 15574.00
1300.212, 15405.00
1301.280, 15477.00
1302.348, 15388.00
1303.416, 15545.00
1304.484, 15459.00
1305.552, 15596.00
1306.620, 15546.00
1307.687, 15529.00
1308.754, 15546.00
1309.821, 15495.91
1310.888, 15526.00
1311.955, 15527.00
1313.021, 15442.00
1314.088, 15651.00
1315.154, 15562.18
1316.220, 15593.00
1317.286, 15592.00
1318.352, 15613.45
1319.417, 15734.05
1320.483, 15802.00
1321.548, 15656.00
1322.613, 15657.00
1323.678, 15403.00
1324.743, 15586.00
1325.807, 15516.00
1326.872, 15651.00
1327.936, 15494.00
1329.000, 15543.00
1330.064, 15620.00
1331.128, 15657.00
1332.191, 15492.00
1333.255, 15568.00
1334.318, 15649.00
1335.381, 15476.00
1336.444, 15608.00
1337.507, 15667.00
1338.569, 15581.00
1339.632, 15663.00
1340.694, 15540.00
1341.756, 15729.00
1342.818, 15564.00
1343.880, 15530.00
1344.941, 15513.00
1346.003, 15499.00
1347.064, 15511.00
1348.125, 15519.00
1349.186, 15484.00
1350.247, 15541.00
1351.308, 15677.00
1352.368, 15507.00
1353.428, 15482.00
1354.489, 15607.00
1355.549, 15682.00
1356.608, 15673.00
1357.668, 15565.00
1358.727, 15612.00
1359.787, 15625.00
1360.846, 15650.00
1361.905, 15586.00
1362.964, 15640.00
1364.022, 15614.00
1365.081, 15597.00
1366.139, 15647.00
1367.197, 15641.00
1368.255, 15659.00
1369.313, 15569.00
1370.371, 15711.00
1371.428, 15659.00
1372.486, 15733.00
1373.543, 15746.00
1374.600, 15543.00
1375.657, 15851.00
1376.713, 15571.00
1377.770, 15755.00
1378.826, 15760.00
1379.882, 15776.00
1380.938, 15868.00
1381.994, 15734.00
1383.050, 15767.00
1384.106, 15694.00
1385.161, 15662.00
1386.216, 15665.00
1387.271, 15664.00
1388.326, 15789.00
1389.381, 15890.00
1390.435, 15738.00
1391.490, 15701.00
1392.544, 15658.00
1393.598, 15717.00
1394.652, 15795.00
1395.705, 15709.00
1396.759, 15743.00
1397.812, 15910.00
1398.866, 15720.00
1399.919, 15622.00
1400.972, 15770.00
1402.024, 15860.00
1403.077, 15704.00
1404.129, 15844.00
1405.181, 15816.00
1406.233, 15736.00
1407.285, 15676.00
1408.337, 15882.00
1409.389, 15717.00
1410.440, 15832.00
1411.491, 15809.00
1412.542, 15755.00
1413.593, 15819.00
1414.644, 15725.00
1415.695, 15699.00
1416.745, 15751.00
1417.795, 15891.00
1418.845, 15899.00
1419.895, 15710.00
1420.945, 15851.00
1421.995, 15813.00
1423.044, 15694.00
1424.093, 15739.00
1425.142, 15800.00
1426.191, 15705.00
1427.240, 15877.00
1428.289, 15832.00
1429.337, 15893.00
1430.385, 15869.00
1431.433, 15881.00
1432.481, 15838.00
1433.529, 15828.36
1434.577, 15915.00
1435.624, 15830.00
1436.672, 15879.00
1437.719, 15978.00
1438.766, 15990.00
1439.812, 16066.00
1440.859, 16199.00
1441.905, 16010.00
1442.952, 16019.00
1443.998, 15813.00
1445.044, 15983.00
1446.090, 16091.00
1447.135, 15952.00
1448.181, 15926.00
1449.226, 16018.00
1450.271, 16148.00
1451.316, 15936.00
1452.361, 15984.00
1453.405, 16064.00
1454.450, 16075.00
1455.494, 16168.00
1456.538, 16118.00
1457.582, 16007.00
1458.626, 16046.00
1459.670, 16202.00
1460.713, 15991.00
1461.757, 16099.00
1462.800, 16135.00
1463.843, 16080.00
1464.886, 16156.00
1465.928, 16057.00
1466.971, 16044.00
1468.013, 16228.00
1469.055, 16243.00
1470.097, 15963.00
1471.139, 16120.00
1472.181, 15991.00
1473.222, 15971.00
1474.263, 16170.00
1475.305, 16176.00
1476.346, 16345.00
1477.386, 16204.00
1478.427, 16200.00
1479.468, 16311.00
1480.508, 16094.00
1481.548, 16176.00
1482.588, 16243.00
1483.628, 16105.00
1484.668, 16406.00
1485.707, 16243.00
1486.747, 16321.00
1487.786, 16249.00
1488.825, 16311.00
1489.864, 16401.00
1490.902, 16286.00
1491.941, 16236.00
1492.979, 16351.00
1494.017, 16228.00
1495.055, 16473.00
1496.093, 16236.00
1497.131, 16359.00
1498.168, 16338.00
1499.206, 16414.00
1500.243, 16400.00
1501.280, 16537.00
1502.317, 16506.53
1503.354, 16439.00
1504.390, 16459.00
1505.426, 16381.00
1506.463, 16278.00
1507.499, 16328.00
1508.535, 16311.67
1509.570, 16353.00
1510.606, 16401.00
1511.641, 16443.00
1512.676, 16495.00
1513.711, 16462.00
1514.746, 16506.00
1515.781, 16530.86
1516.816, 16412.00
1517.850, 16519.00
1518.884, 16550.00
1519.918, 16380.00
1520.952, 16453.00
1521.986, 16429.00
1523.019, 16490.00
1524.053, 16346.00
1525.086, 16439.00
1526.119, 16480.00
1527.152, 16599.00
1528.185, 16515.00
1529.217, 16567.00
1530.250, 16622.00
1531.282, 16498.00
1532.314, 16530.00
1533.346, 16390.00
1534.377, 16511.00
1535.409, 16510.00
1536.440, 16577.00
1537.472, 16422.00
1538.503, 16578.00
1539.534, 16612.00
1540.564, 16512.00
1541.595, 16638.00
1542.625, 16572.00
1543.656, 16523.00
1544.686, 16552.00
1545.716, 16695.00
1546.745, 16649.00
1547.775, 16801.00
1548.804, 16765.00
1549.834, 16685.00
1550.863, 16737.00
1551.892, 16660.00
1552.920, 16676.00
1553.949, 16822.00
1554.977, 16816.00
1556.006, 16732.00
1557.034, 16610.00
1558.062, 16690.00
1559.089, 16663.00
1560.117, 16828.00
1561.144, 16710.00
1562.172, 16704.00
1563.199, 16797.00
1564.226, 16645.00
1565.252, 16748.00
1566.279, 16862.00
1567.305, 16943.00
1568.332, 17067.00
1569.358, 16823.00
1570.384, 16901.00
##END=



