##NAMES=Andalusite
##RRUFFID=R050449
##IDEAL CHEMISTRY=Al_2_SiO_5_
##LOCALITY=Itinga, Minas Gerais, Brazil
##OWNER=RRUFF
##SOURCE=Marcus Origlieri
##DESCRIPTION=Green fragment
##STATUS=The identification of this mineral has been confirmed by X-ray diffraction and chemical analysis
##URL=rruff.info/R050449
##MEASURED CHEMISTRY=Al_2.00_Fe^3+^_0.01_Si_0.99_O_5_
##PIN_ID=L00608
##ORIENTATION=Laser parallel to b* (0 1 0). Fiducial mark perpendicular to laser is parallel to -c [0 0 -1]
123.0580, 5357.863
124.2880, 5310.548
125.5190, 5399.000
126.7490, 5360.000
127.9790, 5410.000
129.2090, 5795.000
130.4390, 5934.000
131.6680, 5777.000
132.8980, 5756.000
134.1270, 5803.000
135.3560, 5926.000
136.5850, 5989.000
137.8140, 6378.000
139.0430, 6886.000
140.2710, 6920.000
141.5000, 6796.000
142.7280, 6694.000
143.9560, 6744.000
145.1840, 6887.000
146.4120, 6842.000
147.6390, 6845.000
148.8670, 6558.000
150.0940, 6599.701
151.3210, 6277.000
152.5490, 6489.000
153.7750, 6384.000
155.0020, 6278.000
156.2290, 5971.000
157.4550, 5730.000
158.6810, 5729.000
159.9080, 5809.000
161.1340, 5737.000
162.3590, 5932.000
163.5850, 6121.000
164.8110, 6268.000
166.0360, 6344.883
167.2610, 6559.000
168.4860, 6476.000
169.7110, 6581.000
170.9360, 6739.000
172.1610, 6644.000
173.3850, 6558.000
174.6100, 6621.000
175.8340, 6535.000
177.0580, 6815.000
178.2820, 6746.000
179.5050, 6855.000
180.7290, 6897.000
181.9520, 6941.000
183.1760, 6997.000
184.3990, 7233.000
185.6220, 7476.000
186.8450, 7761.000
188.0670, 8066.000
189.2900, 8399.000
190.5120, 8708.000
191.7340, 9125.000
192.9560, 9306.000
194.1780, 9543.000
195.4000, 9647.000
196.6220, 9663.000
197.8430, 9924.000
199.0640, 9818.000
200.2860, 10087.00
201.5070, 10498.00
202.7270, 10843.00
203.9480, 10372.00
205.1690, 9273.000
206.3890, 8556.000
207.6090, 8266.000
208.8290, 8108.000
210.0490, 7890.000
211.2690, 7657.000
212.4890, 7468.000
213.7080, 7453.000
214.9280, 7471.000
216.1470, 7343.000
217.3660, 7243.000
218.5850, 7308.000
219.8030, 7316.000
221.0220, 7302.000
222.2400, 7302.000
223.4590, 7352.748
224.6770, 7513.000
225.8950, 7475.000
227.1120, 7583.000
228.3300, 7667.000
229.5480, 7699.000
230.7650, 7733.000
231.9820, 7735.000
233.1990, 7638.000
234.4160, 7546.000
235.6330, 7646.000
236.8490, 7517.000
238.0660, 7490.000
239.2820, 7423.000
240.4980, 7383.000
241.7140, 7556.000
242.9300, 7653.000
244.1460, 7716.000
245.3610, 7629.000
246.5770, 7595.000
247.7920, 7541.000
249.0070, 7541.000
250.2220, 7638.000
251.4370, 7580.000
252.6510, 7680.000
253.8660, 7559.000
255.0800, 7518.000
256.2940, 7546.000
257.5080, 7725.000
258.7220, 7996.000
259.9360, 7918.743
261.1490, 7868.422
262.3630, 7927.000
263.5760, 7868.120
264.7890, 7708.000
266.0020, 7842.000
267.2150, 7692.000
268.4270, 7657.000
269.6400, 7695.000
270.8520, 7725.000
272.0640, 7870.000
273.2760, 7728.000
274.4880, 7881.000
275.7000, 8069.000
276.9120, 8318.000
278.1230, 8397.000
279.3340, 8594.000
280.5450, 8941.000
281.7560, 9418.000
282.9670, 10117.00
284.1780, 10861.00
285.3880, 11902.00
286.5980, 13445.00
287.8090, 15169.00
289.0190, 17481.00
290.2290, 19990.00
291.4380, 22536.00
292.6480, 24450.00
293.8570, 24781.00
295.0670, 23796.00
296.2760, 21417.00
297.4850, 18217.00
298.6930, 15188.00
299.9020, 13061.00
301.1110, 11112.00
302.3190, 10106.00
303.5270, 9278.000
304.7350, 8669.000
305.9430, 8189.362
307.1510, 8006.000
308.3580, 7823.000
309.5660, 7902.000
310.7730, 8230.000
311.9800, 8474.000
313.1870, 8986.000
314.3940, 9847.000
315.6010, 10969.00
316.8070, 12394.00
318.0130, 14343.00
319.2200, 16824.00
320.4260, 19627.00
321.6310, 22113.00
322.8370, 23522.00
324.0430, 23638.00
325.2480, 21655.00
326.4540, 19373.00
327.6590, 16253.00
328.8640, 13637.00
330.0680, 11729.00
331.2730, 10295.00
332.4780, 9537.000
333.6820, 9115.000
334.8860, 8766.000
336.0900, 8656.000
337.2940, 8593.000
338.4980, 8588.000
339.7010, 8731.000
340.9050, 8696.000
342.1080, 8873.000
343.3110, 9000.000
344.5140, 9079.000
345.7170, 9250.000
346.9200, 9601.000
348.1220, 9725.000
349.3240, 10267.00
350.5270, 10684.00
351.7290, 11463.00
352.9310, 12398.00
354.1320, 13567.00
355.3340, 14795.00
356.5350, 16575.00
357.7370, 18018.00
358.9380, 19255.00
360.1390, 20204.00
361.3400, 20256.00
362.5400, 19772.00
363.7410, 18242.00
364.9410, 17043.00
366.1410, 15935.00
367.3410, 14935.00
368.5410, 14077.00
369.7410, 13585.00
370.9400, 13179.00
372.1400, 12936.00
373.3390, 12968.00
374.5380, 12710.00
375.7370, 12476.00
376.9360, 12379.00
378.1350, 12007.00
379.3330, 11877.00
380.5310, 11818.00
381.7300, 11713.00
382.9280, 11643.00
384.1260, 11647.00
385.3230, 11809.00
386.5210, 11843.00
387.7180, 12002.00
388.9160, 12034.00
390.1130, 12092.00
391.3100, 12243.00
392.5060, 12415.00
393.7030, 12528.00
394.9000, 12441.00
396.0960, 12293.00
397.2920, 12321.00
398.4880, 12099.00
399.6840, 12191.00
400.8800, 12000.00
402.0750, 11901.00
403.2710, 11903.00
404.4660, 11906.93
405.6610, 11983.00
406.8560, 12132.00
408.0510, 12295.00
409.2450, 12532.00
410.4400, 12569.00
411.6340, 12552.00
412.8280, 12827.00
414.0220, 13039.00
415.2160, 13390.00
416.4100, 13775.00
417.6030, 14358.00
418.7970, 14964.00
419.9900, 15139.00
421.1830, 15021.00
422.3760, 14604.00
423.5690, 14075.00
424.7610, 13406.00
425.9540, 12848.00
427.1460, 12463.21
428.3380, 12221.00
429.5300, 11798.00
430.7220, 11672.00
431.9140, 11452.00
433.1050, 11348.00
434.2970, 11247.00
435.4880, 11198.00
436.6790, 11144.00
437.8700, 11212.00
439.0610, 11325.00
440.2510, 11353.00
441.4420, 11652.00
442.6320, 11906.00
443.8220, 12028.00
445.0120, 12566.00
446.2020, 12825.00
447.3910, 13010.00
448.5810, 13468.00
449.7700, 13567.00
450.9600, 14111.00
452.1490, 14645.00
453.3370, 14710.00
454.5260, 14406.00
455.7150, 13628.00
456.9030, 12750.00
458.0910, 11719.00
459.2800, 11073.00
460.4670, 10634.00
461.6550, 10405.00
462.8430, 10203.00
464.0300, 10055.00
465.2180, 9945.000
466.4050, 9952.000
467.5920, 9983.000
468.7790, 9886.000
469.9650, 9826.000
471.1520, 9675.000
472.3380, 9705.000
473.5250, 9697.000
474.7110, 9841.000
475.8970, 9838.000
477.0820, 9790.000
478.2680, 9864.000
479.4540, 9790.000
480.6390, 9755.000
481.8240, 9769.000
483.0090, 9819.000
484.1940, 9869.000
485.3780, 9854.000
486.5630, 9949.000
487.7470, 10007.00
488.9320, 9910.000
490.1160, 9972.000
491.3000, 10215.00
492.4830, 10236.00
493.6670, 10532.00
494.8500, 10641.00
496.0340, 10881.00
497.2170, 11048.00
498.4000, 11287.00
499.5820, 11481.00
500.7650, 11760.00
501.9480, 12001.93
503.1300, 12347.00
504.3120, 12580.00
505.4940, 12817.00
506.6760, 13209.00
507.8580, 13484.00
509.0390, 13796.00
510.2210, 14107.00
511.4020, 14184.00
512.5830, 14466.00
513.7640, 14565.00
514.9450, 14782.00
516.1250, 14539.00
517.3060, 14705.00
518.4860, 14977.00
519.6660, 14652.58
520.8460, 14786.00
522.0260, 14363.00
523.2060, 14265.00
524.3850, 14413.00
525.5650, 14518.00
526.7440, 14405.00
527.9230, 14686.00
529.1020, 14817.00
530.2810, 15004.00
531.4590, 15302.07
532.6380, 15557.00
533.8160, 15946.00
534.9940, 16235.00
536.1720, 16694.00
537.3500, 17228.00
538.5270, 17592.00
539.7050, 18500.00
540.8820, 19084.00
542.0590, 19495.00
543.2360, 20129.00
544.4130, 20721.00
545.5900, 21223.00
546.7660, 21851.00
547.9430, 22456.00
549.1190, 23022.00
550.2950, 23413.00
551.4710, 24133.00
552.6470, 24400.00
553.8220, 24913.00
554.9980, 24367.00
556.1730, 24139.00
557.3480, 23555.00
558.5230, 22887.00
559.6980, 22423.00
560.8730, 21904.00
562.0470, 21355.00
563.2220, 21132.00
564.3960, 20675.00
565.5700, 20652.00
566.7440, 20480.00
567.9170, 20376.00
569.0910, 20466.00
570.2640, 20733.00
571.4380, 20632.00
572.6110, 20617.00
573.7840, 20862.00
574.9570, 20395.00
576.1290, 20381.00
577.3020, 19981.00
578.4740, 19815.00
579.6460, 19384.00
580.8180, 18933.00
581.9900, 18464.00
583.1620, 18095.00
584.3330, 17596.00
585.5040, 17091.00
586.6760, 16959.00
587.8470, 16616.00
589.0180, 16167.00
590.1880, 16155.00
591.3590, 15946.00
592.5290, 15708.00
593.7000, 15547.00
594.8700, 15250.00
596.0400, 15296.00
597.2090, 15139.00
598.3790, 15089.00
599.5490, 15147.00
600.7180, 15265.00
601.8870, 15334.00
603.0560, 15525.00
604.2250, 15795.00
605.3940, 16022.00
606.5620, 16161.00
607.7300, 16602.00
608.8990, 17042.00
610.0670, 17271.00
611.2350, 17693.00
612.4020, 18150.00
613.5700, 18699.00
614.7370, 19060.00
615.9050, 19427.00
617.0720, 19957.00
618.2390, 20215.00
619.4060, 20652.00
620.5720, 20814.00
621.7390, 21079.00
622.9050, 20986.00
624.0710, 21390.00
625.2370, 21296.00
626.4030, 21633.00
627.5690, 21835.00
628.7340, 22089.00
629.9000, 22304.00
631.0650, 22454.00
632.2300, 22520.00
633.3950, 22658.00
634.5600, 22450.00
635.7240, 22286.00
636.8890, 22064.00
638.0530, 21905.00
639.2170, 21533.00
640.3810, 21287.32
641.5450, 20826.00
642.7080, 20681.00
643.8720, 20328.00
645.0350, 20070.00
646.1980, 19975.00
647.3610, 19721.00
648.5240, 19858.00
649.6870, 19623.00
650.8490, 19365.00
652.0120, 19041.00
653.1740, 18198.00
654.3360, 17509.00
655.4980, 16778.00
656.6600, 15997.00
657.8210, 15277.00
658.9830, 14763.00
660.1440, 14488.00
661.3050, 14142.00
662.4660, 13795.00
663.6270, 13534.00
664.7870, 13251.00
665.9480, 12667.00
667.1080, 12142.00
668.2680, 11571.00
669.4280, 11044.00
670.5880, 10668.00
671.7480, 10300.00
672.9070, 10200.00
674.0670, 10214.00
675.2260, 10064.00
676.3850, 9842.000
677.5440, 9804.000
678.7030, 9767.000
679.8610, 9521.000
681.0200, 9618.000
682.1780, 9495.000
683.3360, 9411.000
684.4940, 9472.000
685.6520, 9357.000
686.8090, 9465.000
687.9670, 9493.000
689.1240, 9398.000
690.2810, 9541.000
691.4380, 9414.000
692.5950, 9457.000
693.7520, 9583.000
694.9080, 9572.000
696.0650, 9624.000
697.2210, 9722.000
698.3770, 9682.000
699.5330, 9806.000
700.6880, 9890.535
701.8440, 9931.047
702.9990, 10144.00
704.1550, 10081.00
705.3100, 10243.00
706.4650, 10347.00
707.6190, 10236.00
708.7740, 10506.00
709.9290, 10641.00
711.0830, 10778.00
712.2370, 10865.00
713.3910, 11130.00
714.5450, 11383.00
715.6980, 11333.00
716.8520, 11674.00
718.0050, 11509.00
719.1580, 11494.00
720.3110, 11273.00
721.4640, 10944.00
722.6170, 10614.00
723.7700, 10291.00
724.9220, 9843.000
726.0740, 9721.000
727.2260, 9708.000
728.3780, 9373.000
729.5300, 9611.000
730.6810, 9521.126
731.8330, 9495.000
732.9840, 9679.000
734.1350, 9706.000
735.2860, 9925.000
736.4370, 9687.000
737.5880, 9807.000
738.7380, 9756.000
739.8880, 9852.000
741.0390, 9726.000
742.1890, 9533.000
743.3380, 9530.000
744.4880, 9402.863
745.6380, 9305.000
746.7870, 9277.000
747.9360, 9279.000
749.0850, 9256.000
750.2340, 9341.000
751.3830, 9371.000
752.5310, 9439.000
753.6800, 9429.000
754.8280, 9417.000
755.9760, 9387.000
757.1240, 9393.000
758.2720, 9363.000
759.4190, 9444.000
760.5670, 9366.000
761.7140, 9206.000
762.8610, 9347.000
764.0080, 9194.000
765.1550, 9298.000
766.3020, 9084.000
767.4480, 9205.000
768.5950, 9143.000
769.7410, 9163.000
770.8870, 9110.000
772.0330, 9159.000
773.1780, 9166.000
774.3240, 9231.000
775.4690, 9248.000
776.6140, 9267.000
777.7590, 9359.000
778.9040, 9409.983
780.0490, 9504.048
781.1940, 9576.000
782.3380, 9703.000
783.4820, 9791.000
784.6260, 9872.000
785.7700, 9923.000
786.9140, 10046.00
788.0580, 10140.00
789.2010, 10325.00
790.3450, 10380.00
791.4880, 10486.00
792.6310, 10760.00
793.7730, 10793.00
794.9160, 11054.00
796.0590, 11383.00
797.2010, 11462.00
798.3430, 11846.00
799.4850, 12051.00
800.6270, 12484.00
801.7690, 12834.00
802.9100, 13296.75
804.0520, 13938.00
805.1930, 14374.00
806.3340, 15141.00
807.4750, 15816.00
808.6160, 16464.00
809.7560, 17390.00
810.8970, 18279.00
812.0370, 19330.00
813.1770, 20390.00
814.3170, 21550.00
815.4570, 22761.00
816.5960, 24117.00
817.7360, 25335.00
818.8750, 26234.00
820.0140, 27025.00
821.1530, 27463.00
822.2920, 27326.00
823.4310, 27006.00
824.5690, 26369.00
825.7070, 25043.00
826.8460, 23671.00
827.9840, 22209.00
829.1220, 20730.00
830.2590, 19909.00
831.3970, 18563.00
832.5340, 17573.00
833.6710, 16827.00
834.8080, 16045.00
835.9450, 15236.00
837.0820, 14622.00
838.2190, 13858.00
839.3550, 13365.00
840.4910, 12715.00
841.6270, 12029.00
842.7630, 11425.00
843.8990, 11004.00
845.0350, 10602.00
846.1700, 10330.00
847.3060, 9904.000
848.4410, 9754.000
849.5760, 9438.000
850.7100, 9345.000
851.8450, 9072.000
852.9800, 9080.000
854.1140, 9124.000
855.2480, 8940.000
856.3820, 8931.000
857.5160, 8825.000
858.6500, 8729.000
859.7830, 8793.000
860.9170, 8863.000
862.0500, 8802.000
863.1830, 8857.000
864.3160, 8905.000
865.4480, 8834.000
866.5810, 8966.000
867.7130, 8997.000
868.8460, 9003.000
869.9780, 9112.000
871.1100, 9102.000
872.2410, 9144.000
873.3730, 9177.000
874.5050, 9215.000
875.6360, 9235.776
876.7670, 9281.000
877.8980, 9265.000
879.0290, 9344.000
880.1590, 9348.888
881.2900, 9361.000
882.4200, 9488.000
883.5500, 9539.000
884.6800, 9669.000
885.8100, 9915.000
886.9400, 9947.000
888.0690, 9953.000
889.1990, 10143.00
890.3280, 10416.00
891.4570, 10449.00
892.5860, 10684.00
893.7140, 11021.00
894.8430, 11113.00
895.9710, 11400.00
897.1000, 11854.00
898.2280, 12236.00
899.3560, 12687.00
900.4830, 13419.00
901.6110, 13814.00
902.7380, 14604.00
903.8660, 15348.00
904.9930, 16305.00
906.1200, 16974.00
907.2460, 17978.00
908.3730, 19134.00
909.5000, 20722.00
910.6260, 22405.00
911.7520, 24633.00
912.8780, 27499.00
914.0040, 31088.00
915.1290, 35153.00
916.2550, 40342.00
917.3800, 46164.00
918.5050, 51418.00
919.6300, 55492.00
920.7550, 56349.00
921.8800, 54150.00
923.0040, 50056.00
924.1290, 45204.00
925.2530, 41492.00
926.3770, 38562.00
927.5010, 36709.00
928.6250, 35350.00
929.7480, 33462.00
930.8720, 31191.00
931.9950, 28488.00
933.1180, 26136.00
934.2410, 23574.00
935.3640, 21576.00
936.4860, 19526.00
937.6090, 18160.00
938.7310, 16992.00
939.8530, 16348.00
940.9750, 15777.00
942.0970, 15217.00
943.2180, 14873.00
944.3400, 14792.00
945.4610, 14343.00
946.5820, 14375.00
947.7030, 14387.00
948.8240, 14263.00
949.9450, 14239.00
951.0650, 14344.00
952.1860, 14155.00
953.3060, 13989.00
954.4260, 13776.00
955.5460, 13547.00
956.6650, 13445.00
957.7850, 13175.00
958.9040, 13083.00
960.0230, 12789.00
961.1420, 12722.00
962.2610, 12685.00
963.3800, 12666.00
964.4990, 12722.00
965.6170, 12590.00
966.7350, 12770.00
967.8530, 12719.00
968.9710, 12754.00
970.0890, 12915.00
971.2070, 12959.00
972.3240, 13103.00
973.4410, 13297.00
974.5580, 13314.00
975.6750, 13313.00
976.7920, 13590.00
977.9090, 13518.00
979.0250, 13581.00
980.1410, 13524.00
981.2580, 13531.00
982.3740, 13639.00
983.4890, 13668.00
984.6050, 13546.00
985.7200, 13737.00
986.8360, 13656.00
987.9510, 13910.00
989.0660, 14021.00
990.1810, 14098.00
991.2950, 14227.00
992.4100, 14602.00
993.5240, 14889.00
994.6390, 15156.00
995.7530, 15857.00
996.8660, 16551.00
997.9800, 17458.00
999.0940, 18739.00
1000.207, 20251.00
1001.320, 22015.00
1002.433, 23885.00
1003.546, 26111.00
1004.659, 27817.00
1005.772, 29313.00
1006.884, 29290.00
1007.996, 28327.00
1009.108, 26880.00
1010.220, 24799.00
1011.332, 22726.00
1012.444, 20955.00
1013.555, 19282.00
1014.666, 18187.00
1015.777, 17437.00
1016.888, 16844.00
1017.999, 16313.00
1019.110, 16034.00
1020.220, 15916.00
1021.331, 15521.00
1022.441, 15380.00
1023.551, 15203.00
1024.661, 14823.00
1025.770, 14784.00
1026.880, 14533.00
1027.989, 14371.00
1029.098, 14363.00
1030.207, 14294.00
1031.316, 14155.00
1032.425, 14142.00
1033.533, 14182.00
1034.642, 14139.00
1035.750, 14232.00
1036.858, 14040.00
1037.966, 14152.00
1039.073, 14022.00
1040.181, 14022.00
1041.288, 13989.00
1042.396, 13717.00
1043.503, 13534.00
1044.610, 13477.00
1045.716, 13256.00
1046.823, 12975.00
1047.929, 12872.00
1049.036, 12752.00
1050.142, 12865.00
1051.248, 12873.00
1052.353, 12852.00
1053.459, 12819.00
1054.564, 12902.00
1055.670, 13018.00
1056.775, 13392.00
1057.880, 13753.00
1058.985, 14147.00
1060.089, 14791.00
1061.194, 15593.00
1062.298, 16471.99
1063.402, 17218.60
1064.506, 18060.00
1065.610, 18384.00
1066.713, 18018.00
1067.817, 17481.00
1068.920, 16748.00
1070.023, 15964.00
1071.126, 15221.00
1072.229, 14862.00
1073.332, 14260.00
1074.435, 14123.00
1075.537, 13911.00
1076.639, 13741.00
1077.741, 13600.00
1078.843, 13476.00
1079.945, 13355.00
1081.046, 13294.34
1082.148, 13347.00
1083.249, 13237.00
1084.350, 13121.00
1085.451, 13160.00
1086.551, 13054.00
1087.652, 12946.00
1088.752, 12868.00
1089.853, 12822.00
1090.953, 12825.00
1092.053, 12587.00
1093.152, 12683.00
1094.252, 12516.00
1095.351, 12492.00
1096.451, 12468.00
1097.550, 12377.51
1098.649, 12390.19
1099.748, 12310.00
1100.846, 12352.00
1101.945, 12401.00
1103.043, 12336.00
1104.141, 12352.00
1105.239, 12367.00
1106.337, 12376.00
1107.434, 12378.00
1108.532, 12334.00
1109.629, 12333.00
1110.726, 12320.47
1111.823, 12380.00
1112.920, 12311.00
1114.017, 12290.00
1115.113, 12298.00
1116.210, 12243.00
1117.306, 12294.00
1118.402, 12280.55
1119.498, 12226.00
1120.593, 12302.00
1121.689, 12233.00
1122.784, 12240.00
1123.879, 12405.00
1124.974, 12391.00
1126.069, 12258.00
1127.164, 12364.00
1128.259, 12283.00
1129.353, 12245.00
1130.447, 12146.00
1131.541, 12176.00
1132.635, 12168.00
1133.729, 12250.00
1134.822, 12208.00
1135.916, 12331.00
1137.009, 12142.00
1138.102, 12371.00
1139.195, 12255.00
1140.288, 12290.00
1141.380, 12045.00
1142.473, 12299.00
1143.565, 12190.00
1144.657, 12310.00
1145.749, 12372.00
1146.841, 12381.00
1147.932, 12383.00
1149.024, 12541.00
1150.115, 12480.00
1151.206, 12458.00
1152.297, 12495.00
1153.388, 12338.00
1154.479, 12469.00
1155.569, 12549.00
1156.659, 12451.00
1157.750, 12387.00
1158.839, 12597.00
1159.929, 12468.00
1161.019, 12495.00
1162.108, 12582.00
1163.198, 12558.00
1164.287, 12466.00
1165.376, 12568.00
1166.465, 12738.00
1167.553, 12630.00
1168.642, 12725.00
1169.730, 12639.00
1170.818, 12666.00
1171.906, 12643.00
1172.994, 12757.00
1174.082, 12678.00
1175.170, 12643.00
1176.257, 12763.00
1177.344, 12714.00
1178.431, 12687.00
1179.518, 12842.00
1180.605, 12761.00
1181.691, 12933.00
1182.778, 12832.00
1183.864, 12680.00
1184.950, 12765.00
1186.036, 12827.00
1187.122, 12738.00
1188.207, 12861.00
1189.292, 12920.00
1190.378, 12751.00
1191.463, 12623.00
1192.548, 12848.00
1193.632, 12733.00
1194.717, 12682.00
1195.801, 12901.00
1196.886, 12756.00
1197.970, 12881.00
1199.054, 12733.00
1200.137, 12697.00
1201.221, 12655.00
1202.305, 12755.00
1203.388, 12545.00
1204.471, 12576.00
1205.554, 12588.00
1206.637, 12520.00
1207.719, 12560.17
1208.802, 12426.00
1209.884, 12576.00
1210.966, 12473.00
1212.048, 12472.00
1213.130, 12405.00
1214.212, 12373.00
1215.293, 12395.00
1216.374, 12304.00
1217.456, 12265.00
1218.536, 12242.92
1219.617, 12191.88
1220.698, 12214.00
1221.778, 12115.00
1222.859, 12169.00
1223.939, 12097.00
1225.019, 12069.00
1226.099, 12094.00
1227.178, 11935.00
1228.258, 11922.00
1229.337, 11951.00
1230.417, 11969.00
1231.496, 11953.00
1232.574, 11955.00
1233.653, 11827.00
1234.732, 11835.00
1235.810, 11885.00
1236.888, 11948.00
1237.966, 11958.12
1239.044, 11760.00
1240.122, 11925.00
1241.199, 11911.00
1242.277, 11718.00
1243.354, 11793.00
1244.431, 11804.00
1245.508, 11839.00
1246.585, 11832.00
1247.661, 11856.00
1248.738, 11866.00
1249.814, 11810.00
1250.890, 11815.00
1251.966, 11922.00
1253.042, 11722.00
1254.117, 11750.00
1255.193, 11653.00
1256.268, 11783.00
1257.343, 11762.00
1258.418, 11936.00
1259.493, 11725.00
1260.567, 11751.00
1261.642, 11811.00
1262.716, 11852.00
1263.790, 11889.00
1264.864, 11910.00
1265.938, 11866.00
1267.011, 11936.00
1268.085, 11911.00
1269.158, 11781.00
1270.231, 11868.00
1271.304, 11731.00
1272.377, 11809.00
1273.450, 11797.00
1274.522, 11545.00
1275.594, 11709.00
1276.666, 11637.00
1277.738, 11627.00
1278.810, 11611.00
1279.882, 11637.00
1280.953, 11651.00
1282.025, 11627.77
1283.096, 11584.00
1284.167, 11565.00
1285.238, 11515.32
1286.308, 11467.06
1287.379, 11424.00
1288.449, 11378.00
1289.519, 11343.00
1290.589, 11345.26
1291.659, 11373.00
1292.729, 11279.00
1293.798, 11260.00
1294.868, 11195.00
1295.937, 11215.00
1297.006, 11525.00
1298.075, 11653.00
1299.143, 11231.00
1300.212, 11368.00
1301.280, 11158.00
1302.348, 11168.00
1303.416, 11238.00
1304.484, 11080.00
1305.552, 11112.00
1306.620, 11077.00
1307.687, 11069.00
1308.754, 11210.00
1309.821, 11135.00
1310.888, 11149.00
1311.955, 11163.00
1313.021, 11104.00
1314.088, 11256.00
1315.154, 11243.73
1316.220, 11306.00
1317.286, 11321.00
1318.352, 11237.00
1319.417, 11227.00
1320.483, 11210.00
1321.548, 11348.00
1322.613, 11357.00
1323.678, 11267.00
1324.743, 11182.00
1325.807, 11382.00
1326.872, 11453.00
1327.936, 11489.00
1329.000, 11534.00
1330.064, 11495.00
1331.128, 11422.00
1332.191, 11508.00
1333.255, 11409.00
1334.318, 11541.00
1335.381, 11587.00
1336.444, 11613.00
1337.507, 11630.00
1338.569, 11615.00
1339.632, 11666.92
1340.694, 11601.00
1341.756, 11751.00
1342.818, 11706.00
1343.880, 11743.00
1344.941, 11668.00
1346.003, 11843.00
1347.064, 11882.00
1348.125, 11795.00
1349.186, 11763.00
1350.247, 12068.00
1351.308, 12055.00
1352.368, 12147.00
1353.428, 12173.00
1354.489, 12136.00
1355.549, 11989.00
1356.608, 12073.00
1357.668, 12049.64
1358.727, 12142.00
1359.787, 12138.00
1360.846, 12294.00
1361.905, 12361.00
1362.964, 12413.00
1364.022, 12362.00
1365.081, 12302.00
1366.139, 12353.00
1367.197, 12366.00
1368.255, 12471.00
1369.313, 12392.00
1370.371, 12313.00
1371.428, 12434.00
1372.486, 12298.00
1373.543, 12424.00
1374.600, 12399.00
1375.657, 12424.00
1376.713, 12477.00
1377.770, 12493.00
1378.826, 12398.00
1379.882, 12401.20
1380.938, 12380.94
1381.994, 12329.00
1383.050, 12357.00
1384.106, 12395.00
1385.161, 12385.00
1386.216, 12288.00
1387.271, 12244.00
1388.326, 12327.00
1389.381, 12232.00
1390.435, 12261.00
1391.490, 12205.00
1392.544, 12257.00
1393.598, 12203.00
1394.652, 12180.00
1395.705, 12222.00
1396.759, 12183.00
1397.812, 12302.00
1398.866, 12186.00
1399.919, 12135.00
1400.972, 12031.00
1402.024, 12214.00
1403.077, 11996.00
1404.129, 12174.00
1405.181, 12100.00
1406.233, 12090.00
1407.285, 12136.00
1408.337, 12058.00
1409.389, 11991.00
1410.440, 12022.00
1411.491, 12126.00
1412.542, 12079.00
1413.593, 12118.00
1414.644, 12071.00
1415.695, 11992.00
1416.745, 12038.00
1417.795, 11989.00
1418.845, 12084.00
1419.895, 12078.00
1420.945, 12127.00
1421.995, 12225.00
1423.044, 12061.00
1424.093, 12151.00
1425.142, 12225.00
1426.191, 12255.00
1427.240, 12353.00
1428.289, 12418.00
1429.337, 12350.00
1430.385, 12343.00
1431.433, 12377.00
1432.481, 12451.00
1433.529, 12444.00
1434.577, 12568.00
1435.624, 12662.00
1436.672, 12663.00
1437.719, 12601.00
1438.766, 12676.00
1439.812, 12658.08
1440.859, 12724.00
1441.905, 12694.00
1442.952, 12776.00
1443.998, 12802.00
1445.044, 12866.00
1446.090, 12917.00
1447.135, 12932.93
1448.181, 12966.04
1449.226, 12969.19
1450.271, 12995.38
1451.316, 13016.00
1452.361, 13036.16
1453.405, 12933.00
1454.450, 13030.00
1455.494, 12972.00
1456.538, 12945.00
1457.582, 13045.00
1458.626, 12926.00
1459.670, 12943.00
1460.713, 12810.00
1461.757, 13046.00
1462.800, 12925.00
1463.843, 12891.00
1464.886, 12831.00
1465.928, 12765.00
1466.971, 12671.00
1468.013, 12835.00
1469.055, 12631.00
1470.097, 12810.00
1471.139, 12779.00
1472.181, 12681.00
1473.222, 12704.00
1474.263, 12560.00
1475.305, 12521.00
1476.346, 12594.00
1477.386, 12477.00
1478.427, 12586.00
1479.468, 12401.00
1480.508, 12404.00
1481.548, 12290.00
1482.588, 12378.00
1483.628, 12307.00
1484.668, 12248.00
1485.707, 12223.00
1486.747, 12211.00
1487.786, 12226.00
1488.825, 12188.69
1489.864, 12245.00
1490.902, 12163.00
1491.941, 12252.00
1492.979, 12306.00
1494.017, 12124.00
1495.055, 12003.00
1496.093, 12183.00
1497.131, 12157.00
1498.168, 12139.00
1499.206, 12225.00
1500.243, 12222.00
1501.280, 12214.00
1502.317, 12231.00
1503.354, 12292.00
1504.390, 12295.00
1505.426, 12147.00
1506.463, 12289.00
1507.499, 12182.00
1508.535, 12335.00
1509.570, 12250.00
1510.606, 12422.00
1511.641, 12436.22
1512.676, 12336.00
1513.711, 12488.00
1514.746, 12524.00
1515.781, 12478.00
1516.816, 12492.00
1517.850, 12504.00
1518.884, 12559.00
1519.918, 12720.00
1520.952, 12682.00
1521.986, 12659.00
1523.019, 12541.00
1524.053, 12573.00
1525.086, 12592.00
1526.119, 12586.00
1527.152, 12720.00
1528.185, 12629.00
1529.217, 12669.00
1530.250, 12701.00
1531.282, 12826.00
1532.314, 12830.00
1533.346, 12771.00
1534.377, 12883.00
1535.409, 12837.00
1536.440, 12884.47
1537.472, 13019.00
1538.503, 12968.00
1539.534, 13035.00
1540.564, 13096.00
1541.595, 13169.00
1542.625, 13234.00
1543.656, 13294.00
##END=



