##NAMES=Andalusite
##RRUFFID=R050626
##IDEAL CHEMISTRY=Al_2_SiO_5_
##LOCALITY=Minas Gerais, Brazil
##OWNER=RRUFF
##SOURCE=Gemological Center
##DESCRIPTION=Grayish brown fragment
##STATUS=The identification of this mineral has been confirmed by X-ray diffraction and chemical analysis
##URL=rruff.info/R050626
##MEASURED CHEMISTRY=(Al_1.99_Fe^3+^_0.01_)_Î£=1_Si_1.00_O_5_
##PIN_ID=L01690
##ORIENTATION=Laser parallel to b* (0 1 0). Fiducial mark perpendicular to laser is parallel to c [0 0 1]
123.0580, 3584.000
124.2880, 3692.000
125.5190, 3760.000
126.7490, 3616.000
127.9790, 3652.000
129.2090, 3756.000
130.4390, 3880.000
131.6680, 3897.000
132.8980, 4037.000
134.1270, 4060.000
135.3560, 4111.000
136.5850, 4228.000
137.8140, 4171.000
139.0430, 4413.000
140.2710, 4489.000
141.5000, 4556.000
142.7280, 4337.000
143.9560, 4298.000
145.1840, 4272.000
146.4120, 4222.000
147.6390, 4208.000
148.8670, 4139.000
150.0940, 4047.000
151.3210, 4104.000
152.5490, 4135.000
153.7750, 4169.000
155.0020, 4077.000
156.2290, 4101.000
157.4550, 4035.000
158.6810, 3987.000
159.9080, 4035.000
161.1340, 4040.000
162.3590, 3974.000
163.5850, 4111.000
164.8110, 4187.000
166.0360, 4277.000
167.2610, 4434.000
168.4860, 4408.000
169.7110, 4376.000
170.9360, 4463.000
172.1610, 4432.063
173.3850, 4471.000
174.6100, 4486.000
175.8340, 4505.000
177.0580, 4600.000
178.2820, 4638.333
179.5050, 4658.000
180.7290, 4778.000
181.9520, 4930.000
183.1760, 5005.000
184.3990, 5123.000
185.6220, 5231.018
186.8450, 5336.751
188.0670, 5427.000
189.2900, 5566.000
190.5120, 5648.000
191.7340, 5759.000
192.9560, 5840.000
194.1780, 6037.000
195.4000, 6119.000
196.6220, 6108.000
197.8430, 6356.000
199.0640, 6265.000
200.2860, 6312.000
201.5070, 6482.000
202.7270, 6662.000
203.9480, 6652.000
205.1690, 6400.000
206.3890, 6006.000
207.6090, 5847.000
208.8290, 5646.000
210.0490, 5553.000
211.2690, 5419.000
212.4890, 5524.000
213.7080, 5509.000
214.9280, 5439.000
216.1470, 5529.000
217.3660, 5523.000
218.5850, 5529.000
219.8030, 5590.000
221.0220, 5651.000
222.2400, 5637.000
223.4590, 5679.000
224.6770, 5657.000
225.8950, 5731.000
227.1120, 5697.000
228.3300, 5770.000
229.5480, 5775.000
230.7650, 5873.000
231.9820, 5951.000
233.1990, 6017.000
234.4160, 6108.000
235.6330, 6211.000
236.8490, 6167.000
238.0660, 6340.000
239.2820, 6421.000
240.4980, 6392.000
241.7140, 6444.000
242.9300, 6363.000
244.1460, 6368.000
245.3610, 6378.000
246.5770, 6177.000
247.7920, 6222.000
249.0070, 6005.000
250.2220, 6026.000
251.4370, 6119.000
252.6510, 5944.000
253.8660, 5926.000
255.0800, 5875.000
256.2940, 5857.000
257.5080, 5996.000
258.7220, 5889.000
259.9360, 6000.000
261.1490, 5970.663
262.3630, 6125.000
263.5760, 5966.000
264.7890, 5804.000
266.0020, 5869.000
267.2150, 6075.000
268.4270, 6018.000
269.6400, 6110.000
270.8520, 6121.000
272.0640, 6333.000
273.2760, 6498.000
274.4880, 6653.000
275.7000, 7008.000
276.9120, 7338.000
278.1230, 7819.000
279.3340, 8562.000
280.5450, 9584.000
281.7560, 10993.00
282.9670, 12757.00
284.1780, 14675.00
285.3880, 16323.00
286.5980, 17731.00
287.8090, 18745.00
289.0190, 19818.00
290.2290, 20448.00
291.4380, 20821.00
292.6480, 20319.00
293.8570, 19278.00
295.0670, 17626.00
296.2760, 15637.00
297.4850, 13608.00
298.6930, 11657.00
299.9020, 9916.000
301.1110, 8635.000
302.3190, 7875.000
303.5270, 7268.000
304.7350, 7187.000
305.9430, 7131.000
307.1510, 7286.000
308.3580, 7872.000
309.5660, 9045.000
310.7730, 10721.00
311.9800, 13255.00
313.1870, 16367.00
314.3940, 18962.00
315.6010, 21093.00
316.8070, 22655.00
318.0130, 24548.00
319.2200, 25758.00
320.4260, 26473.00
321.6310, 26072.00
322.8370, 24982.00
324.0430, 22819.00
325.2480, 20135.00
326.4540, 17261.00
327.6590, 14294.00
328.8640, 11827.00
330.0680, 10040.00
331.2730, 9263.000
332.4780, 8367.000
333.6820, 8079.000
334.8860, 7687.000
336.0900, 7497.000
337.2940, 7512.000
338.4980, 7535.000
339.7010, 7748.000
340.9050, 7780.000
342.1080, 8218.000
343.3110, 8359.000
344.5140, 9067.000
345.7170, 9846.000
346.9200, 11112.28
348.1220, 12527.00
349.3240, 14559.00
350.5270, 16937.00
351.7290, 19463.00
352.9310, 21725.00
354.1320, 23839.00
355.3340, 25296.00
356.5350, 26908.00
357.7370, 27498.00
358.9380, 27636.00
360.1390, 26952.00
361.3400, 25597.00
362.5400, 24055.00
363.7410, 21772.00
364.9410, 19525.00
366.1410, 17487.00
367.3410, 15824.00
368.5410, 14647.00
369.7410, 13803.00
370.9400, 12933.00
372.1400, 12176.00
373.3390, 11871.00
374.5380, 11367.00
375.7370, 11067.00
376.9360, 10679.00
378.1350, 10454.00
379.3330, 10276.00
380.5310, 10032.00
381.7300, 10135.00
382.9280, 9935.000
384.1260, 9920.000
385.3230, 10102.00
386.5210, 10142.00
387.7180, 10239.00
388.9160, 10330.00
390.1130, 10372.00
391.3100, 10327.00
392.5060, 10302.00
393.7030, 10211.00
394.9000, 10137.00
396.0960, 10021.00
397.2920, 9819.000
398.4880, 9838.000
399.6840, 9615.000
400.8800, 9602.000
402.0750, 9639.000
403.2710, 9534.000
404.4660, 9624.000
405.6610, 9671.000
406.8560, 9696.000
408.0510, 9812.000
409.2450, 9858.000
410.4400, 10170.00
411.6340, 10344.00
412.8280, 10538.00
414.0220, 10717.00
415.2160, 10726.00
416.4100, 10902.00
417.6030, 10937.00
418.7970, 10878.00
419.9900, 10715.00
421.1830, 10753.00
422.3760, 10582.00
423.5690, 10263.77
424.7610, 9998.000
425.9540, 9616.000
427.1460, 9334.000
428.3380, 9231.000
429.5300, 9061.000
430.7220, 8972.000
431.9140, 8916.000
433.1050, 8875.649
434.2970, 9018.000
435.4880, 8951.000
436.6790, 9104.000
437.8700, 9294.000
439.0610, 9315.000
440.2510, 9591.000
441.4420, 9733.000
442.6320, 10308.00
443.8220, 10775.00
445.0120, 11361.00
446.2020, 11708.00
447.3910, 11807.00
448.5810, 11976.00
449.7700, 12120.00
450.9600, 12243.00
452.1490, 12023.00
453.3370, 11724.00
454.5260, 11274.00
455.7150, 10433.00
456.9030, 9679.000
458.0910, 9083.000
459.2800, 8567.000
460.4670, 8217.000
461.6550, 8058.000
462.8430, 8007.000
464.0300, 7852.000
465.2180, 7862.000
466.4050, 7739.000
467.5920, 7686.000
468.7790, 7703.000
469.9650, 7788.000
471.1520, 7681.000
472.3380, 7873.000
473.5250, 7834.821
474.7110, 7702.000
475.8970, 7843.000
477.0820, 7848.000
478.2680, 7795.000
479.4540, 7892.000
480.6390, 7854.000
481.8240, 7819.000
483.0090, 7862.000
484.1940, 7904.000
485.3780, 7821.000
486.5630, 7902.000
487.7470, 8013.000
488.9320, 8147.000
490.1160, 8229.000
491.3000, 8365.962
492.4830, 8462.000
493.6670, 8636.000
494.8500, 8754.000
496.0340, 8928.000
497.2170, 9153.000
498.4000, 9326.000
499.5820, 9455.000
500.7650, 9708.000
501.9480, 9887.000
503.1300, 10155.00
504.3120, 10360.90
505.4940, 10595.00
506.6760, 10766.00
507.8580, 10946.00
509.0390, 11081.00
510.2210, 11192.00
511.4020, 11229.00
512.5830, 11237.00
513.7640, 11343.00
514.9450, 11419.00
516.1250, 11420.64
517.3060, 11189.00
518.4860, 11327.00
519.6660, 11292.00
520.8460, 10998.00
522.0260, 11023.00
523.2060, 11344.00
524.3850, 11290.00
525.5650, 11552.00
526.7440, 11493.00
527.9230, 11692.00
529.1020, 11938.00
530.2810, 12183.00
531.4590, 12479.00
532.6380, 12666.00
533.8160, 13184.00
534.9940, 13544.00
536.1720, 13724.00
537.3500, 14459.00
538.5270, 14861.00
539.7050, 15299.00
540.8820, 15983.00
542.0590, 16714.00
543.2360, 17102.00
544.4130, 17959.00
545.5900, 18596.00
546.7660, 19228.00
547.9430, 19635.00
549.1190, 20021.00
550.2950, 20329.00
551.4710, 20388.54
552.6470, 20452.00
553.8220, 20189.00
554.9980, 19787.00
556.1730, 19303.00
557.3480, 18725.00
558.5230, 18131.00
559.6980, 17445.00
560.8730, 17112.00
562.0470, 16800.00
563.2220, 16664.00
564.3960, 16551.00
565.5700, 16313.00
566.7440, 16374.00
567.9170, 16206.00
569.0910, 16265.00
570.2640, 16399.00
571.4380, 16210.00
572.6110, 16094.00
573.7840, 16162.00
574.9570, 15749.00
576.1290, 15586.00
577.3020, 15283.00
578.4740, 15116.00
579.6460, 14854.00
580.8180, 14523.00
581.9900, 14108.00
583.1620, 13758.00
584.3330, 13671.00
585.5040, 13268.00
586.6760, 13155.00
587.8470, 12724.00
589.0180, 12580.00
590.1880, 12511.00
591.3590, 12385.00
592.5290, 12338.00
593.7000, 12190.00
594.8700, 12195.64
596.0400, 12176.00
597.2090, 12221.00
598.3790, 12239.00
599.5490, 12302.00
600.7180, 12265.00
601.8870, 12467.00
603.0560, 12568.00
604.2250, 12760.00
605.3940, 13116.00
606.5620, 13327.00
607.7300, 13644.00
608.8990, 13935.00
610.0670, 14237.40
611.2350, 14589.34
612.4020, 14887.00
613.5700, 15267.00
614.7370, 15590.00
615.9050, 15856.00
617.0720, 16111.00
618.2390, 16398.00
619.4060, 16351.00
620.5720, 16739.00
621.7390, 16825.00
622.9050, 17063.00
624.0710, 16945.00
625.2370, 17373.00
626.4030, 17341.00
627.5690, 17436.00
628.7340, 17631.00
629.9000, 17704.00
631.0650, 17754.00
632.2300, 17685.00
633.3950, 17638.00
634.5600, 17431.00
635.7240, 17192.00
636.8890, 17059.44
638.0530, 16826.00
639.2170, 16685.00
640.3810, 16480.00
641.5450, 16296.00
642.7080, 16414.00
643.8720, 16086.00
645.0350, 16043.00
646.1980, 15750.00
647.3610, 15510.00
648.5240, 15352.00
649.6870, 14976.00
650.8490, 14575.00
652.0120, 13975.00
653.1740, 13572.00
654.3360, 12798.00
655.4980, 12597.00
656.6600, 12026.00
657.8210, 11612.00
658.9830, 11309.00
660.1440, 10884.89
661.3050, 10598.11
662.4660, 10258.00
663.6270, 10010.00
664.7870, 9783.000
665.9480, 9488.000
667.1080, 9061.000
668.2680, 8710.000
669.4280, 8579.000
670.5880, 8448.000
671.7480, 8226.000
672.9070, 8222.000
674.0670, 8051.000
675.2260, 7908.000
676.3850, 8023.000
677.5440, 7798.000
678.7030, 7755.000
679.8610, 7767.000
681.0200, 7668.000
682.1780, 7786.000
683.3360, 7687.000
684.4940, 7715.000
685.6520, 7612.000
686.8090, 7763.000
687.9670, 7624.000
689.1240, 7742.000
690.2810, 7780.000
691.4380, 7825.000
692.5950, 7859.000
693.7520, 7919.093
694.9080, 8057.000
696.0650, 8030.000
697.2210, 8199.000
698.3770, 8243.000
699.5330, 8279.000
700.6880, 8438.000
701.8440, 8399.000
702.9990, 8604.000
704.1550, 8725.000
705.3100, 8874.000
706.4650, 9233.000
707.6190, 9509.000
708.7740, 9837.000
709.9290, 10191.00
711.0830, 10447.00
712.2370, 11018.00
713.3910, 11310.00
714.5450, 11597.00
715.6980, 11707.00
716.8520, 11647.00
718.0050, 11272.00
719.1580, 10942.00
720.3110, 10645.00
721.4640, 10066.00
722.6170, 9672.000
723.7700, 9210.000
724.9220, 8791.000
726.0740, 8498.000
727.2260, 8356.000
728.3780, 8117.000
729.5300, 8043.000
730.6810, 8139.000
731.8330, 8079.000
732.9840, 8160.000
734.1350, 8148.000
735.2860, 8132.000
736.4370, 8089.000
737.5880, 7914.000
738.7380, 7934.000
739.8880, 7807.000
741.0390, 7782.000
742.1890, 7854.000
743.3380, 7738.000
744.4880, 7656.000
745.6380, 7675.000
746.7870, 7594.994
747.9360, 7558.000
749.0850, 7561.000
750.2340, 7540.000
751.3830, 7584.000
752.5310, 7482.000
753.6800, 7566.000
754.8280, 7545.000
755.9760, 7585.000
757.1240, 7600.000
758.2720, 7527.000
759.4190, 7447.000
760.5670, 7527.000
761.7140, 7518.000
762.8610, 7409.000
764.0080, 7249.000
765.1550, 7508.000
766.3020, 7493.000
767.4480, 7402.000
768.5950, 7317.000
769.7410, 7343.123
770.8870, 7462.000
772.0330, 7400.000
773.1780, 7479.000
774.3240, 7558.000
775.4690, 7523.000
776.6140, 7651.000
777.7590, 7640.000
778.9040, 7758.000
780.0490, 7794.000
781.1940, 7900.000
782.3380, 8040.000
783.4820, 8143.000
784.6260, 8097.000
785.7700, 8125.000
786.9140, 8251.000
788.0580, 8267.000
789.2010, 8381.000
790.3450, 8514.843
791.4880, 8776.000
792.6310, 8818.000
793.7730, 9045.000
794.9160, 9217.000
796.0590, 9341.000
797.2010, 9597.000
798.3430, 10009.00
799.4850, 10306.00
800.6270, 10591.00
801.7690, 10989.00
802.9100, 11362.48
804.0520, 11804.00
805.1930, 12255.00
806.3340, 12725.00
807.4750, 13277.00
808.6160, 13968.00
809.7560, 14702.00
810.8970, 15578.00
812.0370, 16443.00
813.1770, 17271.00
814.3170, 18209.00
815.4570, 19074.00
816.5960, 19807.00
817.7360, 20288.00
818.8750, 20677.00
820.0140, 20801.00
821.1530, 20742.00
822.2920, 20353.00
823.4310, 19645.00
824.5690, 18853.00
825.7070, 18000.00
826.8460, 17137.00
827.9840, 16048.00
829.1220, 15293.00
830.2590, 14631.00
831.3970, 14047.00
832.5340, 13445.00
833.6710, 12919.60
834.8080, 12367.00
835.9450, 11912.00
837.0820, 11389.00
838.2190, 10861.00
839.3550, 10258.00
840.4910, 9907.000
841.6270, 9386.000
842.7630, 9141.000
843.8990, 8738.000
845.0350, 8410.000
846.1700, 8218.000
847.3060, 8057.000
848.4410, 8009.000
849.5760, 7767.000
850.7100, 7649.000
851.8450, 7639.000
852.9800, 7456.000
854.1140, 7564.000
855.2480, 7422.000
856.3820, 7439.000
857.5160, 7570.000
858.6500, 7339.000
859.7830, 7574.000
860.9170, 7518.139
862.0500, 7496.000
863.1830, 7583.000
864.3160, 7496.000
865.4480, 7581.000
866.5810, 7608.000
867.7130, 7573.000
868.8460, 7647.000
869.9780, 7781.000
871.1100, 7788.000
872.2410, 7842.447
873.3730, 7851.000
874.5050, 7888.000
875.6360, 7907.000
876.7670, 7953.000
877.8980, 8010.000
879.0290, 7959.000
880.1590, 8195.000
881.2900, 8174.000
882.4200, 8317.000
883.5500, 8345.000
884.6800, 8384.000
885.8100, 8619.000
886.9400, 8600.000
888.0690, 8782.000
889.1990, 8921.000
890.3280, 9182.000
891.4570, 9433.000
892.5860, 9523.000
893.7140, 9822.000
894.8430, 10245.00
895.9710, 10687.00
897.1000, 10927.00
898.2280, 11587.00
899.3560, 12156.00
900.4830, 12754.00
901.6110, 13510.00
902.7380, 14417.00
903.8660, 15363.00
904.9930, 16174.00
906.1200, 17491.00
907.2460, 19147.00
908.3730, 21246.00
909.5000, 23636.00
910.6260, 27219.00
911.7520, 31937.00
912.8780, 38063.00
914.0040, 44990.00
915.1290, 51381.00
916.2550, 57117.00
917.3800, 61702.00
918.5050, 63742.00
919.6300, 63616.00
920.7550, 61186.00
921.8800, 57210.00
923.0040, 52051.00
924.1290, 45911.00
925.2530, 41050.00
926.3770, 36751.00
927.5010, 33435.00
928.6250, 30619.00
929.7480, 28305.00
930.8720, 25966.00
931.9950, 23651.00
933.1180, 21427.00
934.2410, 19735.00
935.3640, 17853.00
936.4860, 16445.00
937.6090, 15229.00
938.7310, 14399.00
939.8530, 13757.00
940.9750, 13077.00
942.0970, 12837.00
943.2180, 12377.00
944.3400, 12191.00
945.4610, 11802.00
946.5820, 11811.00
947.7030, 11608.00
948.8240, 11514.00
949.9450, 11497.00
951.0650, 11400.00
952.1860, 11281.00
953.3060, 11093.00
954.4260, 11063.00
955.5460, 10787.00
956.6650, 10623.00
957.7850, 10494.00
958.9040, 10593.00
960.0230, 10375.00
961.1420, 10327.00
962.2610, 10383.00
963.3800, 10284.00
964.4990, 10379.00
965.6170, 10345.00
966.7350, 10342.00
967.8530, 10500.00
968.9710, 10460.00
970.0890, 10692.00
971.2070, 10616.00
972.3240, 10733.00
973.4410, 10697.00
974.5580, 10820.00
975.6750, 10867.00
976.7920, 10944.00
977.9090, 10834.00
979.0250, 10944.00
980.1410, 10991.00
981.2580, 10925.00
982.3740, 11085.00
983.4890, 10957.00
984.6050, 11008.00
985.7200, 11119.00
986.8360, 11172.00
987.9510, 11283.76
989.0660, 11400.00
990.1810, 11546.00
991.2950, 11670.00
992.4100, 11891.00
993.5240, 12344.00
994.6390, 12812.19
995.7530, 13405.00
996.8660, 14206.00
997.9800, 15141.00
999.0940, 16204.00
1000.207, 17587.00
1001.320, 18965.00
1002.433, 20246.00
1003.546, 21229.00
1004.659, 21613.00
1005.772, 21693.00
1006.884, 21280.00
1007.996, 20084.00
1009.108, 19011.00
1010.220, 17764.00
1011.332, 16390.00
1012.444, 15475.00
1013.555, 14564.00
1014.666, 13848.00
1015.777, 13351.00
1016.888, 12893.00
1017.999, 12647.00
1019.110, 12392.00
1020.220, 12454.00
1021.331, 12195.00
1022.441, 12185.00
1023.551, 11923.00
1024.661, 11797.00
1025.770, 11648.00
1026.880, 11595.00
1027.989, 11519.10
1029.098, 11455.00
1030.207, 11469.00
1031.316, 11504.00
1032.425, 11544.00
1033.533, 11484.57
1034.642, 11414.00
1035.750, 11349.00
1036.858, 11397.00
1037.966, 11316.00
1039.073, 11239.00
1040.181, 11194.00
1041.288, 10984.00
1042.396, 10744.00
1043.503, 10796.00
1044.610, 10617.00
1045.716, 10620.00
1046.823, 10392.00
1047.929, 10476.00
1049.036, 10324.00
1050.142, 10244.00
1051.248, 10415.00
1052.353, 10362.00
1053.459, 10375.00
1054.564, 10451.00
1055.670, 10488.00
1056.775, 10561.00
1057.880, 10748.00
1058.985, 10988.00
1060.089, 11417.00
1061.194, 11726.00
1062.298, 12148.00
1063.402, 12406.00
1064.506, 12483.00
1065.610, 12765.00
1066.713, 12535.00
1067.817, 12398.00
1068.920, 12104.00
1070.023, 11868.00
1071.126, 11507.00
1072.229, 11224.00
1073.332, 11213.00
1074.435, 11059.00
1075.537, 10840.00
1076.639, 10906.00
1077.741, 10800.00
1078.843, 10709.00
1079.945, 10834.00
1081.046, 10554.00
1082.148, 10619.00
1083.249, 10587.00
1084.350, 10507.00
1085.451, 10526.00
1086.551, 10331.00
1087.652, 10340.00
1088.752, 10332.00
1089.853, 10213.00
1090.953, 10273.00
1092.053, 10216.00
1093.152, 10228.00
1094.252, 10116.00
1095.351, 10166.00
1096.451, 10201.00
1097.550, 10084.00
1098.649, 10183.00
1099.748, 10051.00
1100.846, 10025.00
1101.945, 9966.000
1103.043, 10003.00
1104.141, 10098.00
1105.239, 10059.00
1106.337, 10157.00
1107.434, 10176.10
1108.532, 10213.00
1109.629, 10217.00
1110.726, 10215.00
1111.823, 10181.00
1112.920, 10180.00
1114.017, 10173.00
1115.113, 10199.00
1116.210, 10133.00
1117.306, 10221.00
1118.402, 10134.00
1119.498, 10204.00
1120.593, 10183.00
1121.689, 10243.00
1122.784, 10267.00
1123.879, 10317.00
1124.974, 10331.17
1126.069, 10334.00
1127.164, 10288.00
1128.259, 10337.00
1129.353, 10181.00
1130.447, 10173.00
1131.541, 10190.00
1132.635, 10235.00
1133.729, 10133.00
1134.822, 10034.00
1135.916, 10242.00
1137.009, 10121.00
1138.102, 9989.000
1139.195, 10130.00
1140.288, 10161.00
1141.380, 10163.00
1142.473, 10212.00
1143.565, 10274.00
1144.657, 10331.00
1145.749, 10302.00
1146.841, 10290.00
1147.932, 10256.00
1149.024, 10298.00
1150.115, 10270.00
1151.206, 10310.00
1152.297, 10315.82
1153.388, 10325.35
1154.479, 10358.00
1155.569, 10343.00
1156.659, 10401.00
1157.750, 10384.00
1158.839, 10240.00
1159.929, 10388.00
1161.019, 10480.00
1162.108, 10341.00
1163.198, 10543.00
1164.287, 10499.00
1165.376, 10300.00
1166.465, 10530.00
1167.553, 10460.00
1168.642, 10363.00
1169.730, 10352.00
1170.818, 10443.00
1171.906, 10475.00
1172.994, 10460.00
1174.082, 10468.00
1175.170, 10467.00
1176.257, 10447.00
1177.344, 10490.00
1178.431, 10343.00
1179.518, 10405.00
1180.605, 10391.01
1181.691, 10550.00
1182.778, 10419.00
1183.864, 10486.00
1184.950, 10492.00
1186.036, 10537.00
1187.122, 10541.00
1188.207, 10571.80
1189.292, 10582.97
1190.378, 10599.00
1191.463, 10568.00
1192.548, 10520.00
1193.632, 10440.00
1194.717, 10510.00
1195.801, 10568.00
1196.886, 10534.00
1197.970, 10607.00
1199.054, 10544.00
1200.137, 10385.00
1201.221, 10403.00
1202.305, 10440.00
1203.388, 10497.00
1204.471, 10422.00
1205.554, 10374.00
1206.637, 10305.00
1207.719, 10340.00
1208.802, 10422.00
1209.884, 10367.00
1210.966, 10276.00
1212.048, 10193.00
1213.130, 10223.00
1214.212, 10190.00
1215.293, 10222.00
1216.374, 10218.00
1217.456, 10202.00
1218.536, 10076.00
1219.617, 10062.00
1220.698, 10098.00
1221.778, 10138.00
1222.859, 10098.00
1223.939, 10077.00
1225.019, 10098.57
1226.099, 10018.00
1227.178, 10092.00
1228.258, 10055.00
1229.337, 9992.000
1230.417, 9867.000
1231.496, 9971.000
1232.574, 9964.000
1233.653, 9991.000
1234.732, 10014.00
1235.810, 9903.000
1236.888, 9851.000
1237.966, 9920.000
1239.044, 9959.000
1240.122, 9847.000
1241.199, 9919.000
1242.277, 9820.000
1243.354, 9918.000
1244.431, 9871.000
1245.508, 9875.000
1246.585, 9882.000
1247.661, 9920.000
1248.738, 9902.000
1249.814, 9935.000
1250.890, 9925.045
1251.966, 9896.000
1253.042, 9924.000
1254.117, 9908.000
1255.193, 9942.000
1256.268, 9977.000
1257.343, 9897.000
1258.418, 9844.000
1259.493, 9903.000
1260.567, 9931.000
1261.642, 10019.00
1262.716, 9970.985
1263.790, 9935.000
1264.864, 9870.000
1265.938, 9928.000
1267.011, 9866.000
1268.085, 9903.000
1269.158, 9901.000
1270.231, 9915.000
1271.304, 9904.000
1272.377, 9854.000
1273.450, 9802.000
1274.522, 9824.000
1275.594, 9790.822
1276.666, 9763.000
1277.738, 9784.000
1278.810, 9763.000
1279.882, 9761.000
1280.953, 9797.000
1282.025, 9770.000
1283.096, 9711.000
1284.167, 9716.000
1285.238, 9639.000
1286.308, 9721.000
1287.379, 9657.000
1288.449, 9640.000
1289.519, 9639.000
1290.589, 9703.000
1291.659, 9693.000
1292.729, 9695.776
1293.798, 9552.000
1294.868, 9662.000
1295.937, 9550.000
1297.006, 9498.000
1298.075, 9505.000
1299.143, 9543.000
1300.212, 9452.000
1301.280, 9487.000
1302.348, 9505.000
1303.416, 9476.000
1304.484, 9528.000
1305.552, 9574.000
1306.620, 9424.000
1307.687, 9451.000
1308.754, 9493.000
1309.821, 9550.000
1310.888, 9522.000
1311.955, 9362.000
1313.021, 9568.000
1314.088, 9596.000
1315.154, 9515.000
1316.220, 9638.000
1317.286, 9502.000
1318.352, 9582.000
1319.417, 9461.000
1320.483, 9679.000
1321.548, 9549.000
1322.613, 9593.000
1323.678, 9588.000
1324.743, 9474.000
1325.807, 9578.000
1326.872, 9629.000
1327.936, 9664.000
1329.000, 9548.000
1330.064, 9550.000
1331.128, 9649.000
1332.191, 9642.000
1333.255, 9718.000
1334.318, 9738.793
1335.381, 9605.000
1336.444, 9755.000
1337.507, 9793.000
1338.569, 9753.000
1339.632, 9957.000
1340.694, 9781.000
1341.756, 9760.000
1342.818, 9892.000
1343.880, 9802.000
1344.941, 9705.000
1346.003, 9815.000
1347.064, 9933.000
1348.125, 9910.000
1349.186, 9991.000
1350.247, 9953.000
1351.308, 10049.00
1352.368, 10120.00
1353.428, 10059.00
1354.489, 10047.00
1355.549, 10172.00
1356.608, 10212.00
1357.668, 10209.00
1358.727, 10119.00
1359.787, 10147.00
1360.846, 10222.00
1361.905, 10249.00
1362.964, 10308.00
1364.022, 10292.00
1365.081, 10237.00
1366.139, 10238.00
1367.197, 10281.00
1368.255, 10252.24
1369.313, 10320.00
1370.371, 10251.00
1371.428, 10282.00
1372.486, 10274.00
1373.543, 10297.00
1374.600, 10276.00
1375.657, 10342.00
1376.713, 10355.00
1377.770, 10247.00
1378.826, 10394.00
1379.882, 10283.00
1380.938, 10320.00
1381.994, 10266.00
1383.050, 10370.00
1384.106, 10197.00
1385.161, 10299.00
1386.216, 10291.00
1387.271, 10356.00
1388.326, 10311.00
1389.381, 10242.00
1390.435, 10313.00
1391.490, 10197.00
1392.544, 10344.00
1393.598, 10230.00
1394.652, 10270.00
1395.705, 10254.00
1396.759, 10328.00
1397.812, 10346.00
1398.866, 10202.00
1399.919, 10187.00
1400.972, 10186.00
1402.024, 10112.00
1403.077, 10084.00
1404.129, 10205.00
1405.181, 10230.00
1406.233, 10077.00
1407.285, 10192.00
1408.337, 10170.00
1409.389, 10208.00
1410.440, 10199.00
1411.491, 10187.00
1412.542, 10224.00
1413.593, 10281.00
1414.644, 10161.00
1415.695, 10058.00
1416.745, 10182.00
1417.795, 10264.00
1418.845, 10121.00
1419.895, 10215.00
1420.945, 10338.00
1421.995, 10152.00
1423.044, 10337.00
1424.093, 10359.00
1425.142, 10338.00
1426.191, 10301.00
1427.240, 10294.00
1428.289, 10333.00
1429.337, 10511.00
1430.385, 10368.00
1431.433, 10526.00
1432.481, 10444.00
1433.529, 10443.00
1434.577, 10504.00
1435.624, 10612.00
1436.672, 10727.00
1437.719, 10645.00
1438.766, 10627.00
1439.812, 10684.00
1440.859, 10644.00
1441.905, 10693.00
1442.952, 10804.00
1443.998, 10715.00
1445.044, 10739.00
1446.090, 10787.00
1447.135, 10864.00
1448.181, 10838.37
1449.226, 10819.01
1450.271, 10811.00
1451.316, 10746.00
1452.361, 10739.00
1453.405, 10807.00
1454.450, 10869.00
1455.494, 10854.00
1456.538, 10746.00
1457.582, 10762.00
1458.626, 10850.00
1459.670, 10795.00
1460.713, 10845.00
1461.757, 10765.00
1462.800, 10803.00
1463.843, 10781.00
1464.886, 10691.00
1465.928, 10896.00
1466.971, 10847.00
1468.013, 10788.00
1469.055, 10760.00
1470.097, 10736.00
1471.139, 10679.00
1472.181, 10661.00
1473.222, 10661.00
1474.263, 10593.00
1475.305, 10672.00
1476.346, 10558.00
1477.386, 10541.00
1478.427, 10485.00
1479.468, 10506.00
1480.508, 10609.00
1481.548, 10518.00
1482.588, 10446.00
1483.628, 10560.00
1484.668, 10341.00
1485.707, 10380.00
1486.747, 10406.00
1487.786, 10440.00
1488.825, 10406.00
1489.864, 10428.68
1490.902, 10373.00
1491.941, 10419.00
1492.979, 10361.00
1494.017, 10336.00
1495.055, 10394.00
1496.093, 10364.47
1497.131, 10378.54
1498.168, 10413.00
1499.206, 10396.00
1500.243, 10472.00
1501.280, 10508.00
1502.317, 10398.00
1503.354, 10633.00
1504.390, 10445.00
1505.426, 10506.00
1506.463, 10479.00
1507.499, 10572.00
1508.535, 10567.00
1509.570, 10482.00
1510.606, 10707.00
1511.641, 10553.00
1512.676, 10654.00
1513.711, 10709.00
1514.746, 10675.00
1515.781, 10622.00
1516.816, 10655.00
1517.850, 10745.00
1518.884, 10583.00
1519.918, 10798.00
1520.952, 10787.00
1521.986, 10734.00
1523.019, 10811.00
1524.053, 10838.00
1525.086, 10717.00
1526.119, 10835.00
1527.152, 10755.00
1528.185, 10915.00
1529.217, 10720.00
1530.250, 10935.00
1531.282, 10990.00
1532.314, 10918.00
1533.346, 11033.00
1534.377, 10978.00
1535.409, 11077.00
1536.440, 10917.00
1537.472, 11022.00
1538.503, 11049.00
1539.534, 10950.00
1540.564, 10910.00
1541.595, 11076.00
1542.625, 11065.00
1543.656, 11181.00
1544.686, 11306.00
1545.716, 11221.00
1546.745, 11218.00
1547.775, 11182.00
1548.804, 11156.00
1549.834, 11165.00
1550.863, 11392.00
1551.892, 11462.00
1552.920, 11477.00
1553.949, 11645.00
1554.977, 11444.00
1556.006, 11440.00
1557.034, 11386.00
1558.062, 11335.00
1559.089, 11331.44
1560.117, 11452.00
1561.144, 11352.00
1562.172, 11353.00
1563.199, 11463.00
1564.226, 11311.00
1565.252, 11340.00
1566.279, 11403.00
1567.305, 11350.00
1568.332, 11289.00
1569.358, 11204.00
1570.384, 11426.00
##END=



