##NAMES=Andalusite
##RRUFFID=R050561
##IDEAL CHEMISTRY=Al_2_SiO_5_
##LOCALITY=Cargo Muchacho Mountain, Imperial County, California
##OWNER=RRUFF
##SOURCE=Dave Bunk Minerals
##DESCRIPTION=Brown coarsely crystalline massive
##STATUS=The identification of this mineral has been confirmed by X-ray diffraction and chemical analysis
##URL=rruff.info/R050561
##MEASURED CHEMISTRY=(Al_1.98_Fe^3+^_0.02_)_Î£=2_Si_1.00_O_5_
##PIN_ID=M00245
##ORIENTATION=Laser parallel to -b* (0 -1 0). Fiducial mark perpendicular to laser is parallel to -c [0 0 -1]
157.4550, 6068.000
158.6810, 6093.000
159.9080, 6023.000
161.1340, 6007.000
162.3590, 6074.000
163.5850, 6203.000
164.8110, 6252.000
166.0360, 6396.000
167.2610, 6386.000
168.4860, 6394.000
169.7110, 6358.000
170.9360, 6376.695
172.1610, 6380.895
173.3850, 6413.000
174.6100, 6434.000
175.8340, 6489.000
177.0580, 6569.000
178.2820, 6520.000
179.5050, 6578.000
180.7290, 6679.000
181.9520, 6609.000
183.1760, 6785.000
184.3990, 6799.000
185.6220, 6999.000
186.8450, 7570.000
188.0670, 8369.000
189.2900, 8611.000
190.5120, 8566.000
191.7340, 9612.000
192.9560, 7641.000
194.1780, 7525.000
195.4000, 7713.000
196.6220, 7792.000
197.8430, 7770.000
199.0640, 7861.000
200.2860, 7960.000
201.5070, 8046.000
202.7270, 7937.947
203.9480, 8017.000
205.1690, 7645.000
206.3890, 7504.000
207.6090, 7314.000
208.8290, 7316.000
210.0490, 7461.000
211.2690, 7487.000
212.4890, 7396.000
213.7080, 7431.000
214.9280, 7531.000
216.1470, 7481.000
217.3660, 7463.000
218.5850, 7618.000
219.8030, 7642.000
221.0220, 7595.000
222.2400, 7578.000
223.4590, 7636.000
224.6770, 7587.000
225.8950, 7628.000
227.1120, 7629.000
228.3300, 7621.000
229.5480, 7643.338
230.7650, 7719.000
231.9820, 7688.000
233.1990, 7648.000
234.4160, 7726.000
235.6330, 7768.000
236.8490, 7719.000
238.0660, 7788.000
239.2820, 7675.000
240.4980, 7770.000
241.7140, 7826.000
242.9300, 7888.000
244.1460, 7952.000
245.3610, 8003.161
246.5770, 8064.000
247.7920, 8096.000
249.0070, 8122.000
250.2220, 8140.000
251.4370, 8171.000
252.6510, 8135.000
253.8660, 8164.000
255.0800, 8191.000
256.2940, 8309.000
257.5080, 8394.000
258.7220, 8592.000
259.9360, 8610.291
261.1490, 8685.356
262.3630, 8745.000
263.5760, 8778.000
264.7890, 8959.000
266.0020, 9085.000
267.2150, 9421.000
268.4270, 9517.000
269.6400, 9936.000
270.8520, 10075.00
272.0640, 10494.00
273.2760, 10979.00
274.4880, 11748.00
275.7000, 12462.00
276.9120, 13574.00
278.1230, 14970.00
279.3340, 16554.00
280.5450, 18483.00
281.7560, 21150.00
282.9670, 24145.00
284.1780, 27228.00
285.3880, 30442.00
286.5980, 33861.00
287.8090, 37957.00
289.0190, 43240.00
290.2290, 47765.00
291.4380, 51758.00
292.6480, 53384.00
293.8570, 51989.00
295.0670, 47627.00
296.2760, 41301.00
297.4850, 33953.00
298.6930, 27737.00
299.9020, 23053.00
301.1110, 19222.00
302.3190, 16790.00
303.5270, 14856.00
304.7350, 13724.00
305.9430, 12884.00
307.1510, 12266.00
308.3580, 11968.00
309.5660, 12240.00
310.7730, 12715.00
311.9800, 13171.90
313.1870, 14058.00
314.3940, 14922.00
315.6010, 16092.00
316.8070, 17558.00
318.0130, 19397.00
319.2200, 21953.00
320.4260, 23961.00
321.6310, 25011.00
322.8370, 24901.00
324.0430, 23113.00
325.2480, 20791.00
326.4540, 18297.00
327.6590, 16008.00
328.8640, 14397.00
330.0680, 13197.00
331.2730, 12219.00
332.4780, 11816.00
333.6820, 11350.00
334.8860, 10867.00
336.0900, 10709.00
337.2940, 10602.00
338.4980, 10363.00
339.7010, 10344.00
340.9050, 10228.85
342.1080, 10087.00
343.3110, 10143.00
344.5140, 10057.00
345.7170, 10094.00
346.9200, 10144.00
348.1220, 10309.69
349.3240, 10554.00
350.5270, 10814.00
351.7290, 11190.00
352.9310, 11559.00
354.1320, 12148.00
355.3340, 12634.00
356.5350, 13272.00
357.7370, 13919.00
358.9380, 14391.00
360.1390, 14296.00
361.3400, 14088.00
362.5400, 13437.00
363.7410, 12910.00
364.9410, 12157.00
366.1410, 11475.00
367.3410, 10950.00
368.5410, 10670.00
369.7410, 10350.00
370.9400, 10145.00
372.1400, 9953.000
373.3390, 9887.000
374.5380, 9865.000
375.7370, 9772.000
376.9360, 9805.217
378.1350, 9770.000
379.3330, 9884.000
380.5310, 9953.000
381.7300, 10042.00
382.9280, 9816.000
384.1260, 9910.000
385.3230, 9687.000
386.5210, 9398.000
387.7180, 9290.000
388.9160, 9214.000
390.1130, 9160.000
391.3100, 9052.000
392.5060, 9028.000
393.7030, 8921.000
394.9000, 8876.000
396.0960, 8864.670
397.2920, 8882.000
398.4880, 8888.000
399.6840, 8890.000
400.8800, 8969.000
402.0750, 8934.000
403.2710, 8973.000
404.4660, 8986.000
405.6610, 9069.000
406.8560, 9048.000
408.0510, 9094.000
409.2450, 9326.000
410.4400, 9351.000
411.6340, 9371.000
412.8280, 9580.000
414.0220, 9596.000
415.2160, 9835.000
416.4100, 9747.000
417.6030, 10077.00
418.7970, 10184.00
419.9900, 10154.00
421.1830, 10262.00
422.3760, 10128.00
423.5690, 10368.00
424.7610, 10207.00
425.9540, 10096.00
427.1460, 10231.00
428.3380, 10120.00
429.5300, 10260.00
430.7220, 10373.00
431.9140, 10435.00
433.1050, 10458.00
434.2970, 10571.00
435.4880, 10608.00
436.6790, 10622.00
437.8700, 10836.00
439.0610, 10928.00
440.2510, 10965.00
441.4420, 11144.00
442.6320, 11213.00
443.8220, 11517.00
445.0120, 11744.00
446.2020, 11821.00
447.3910, 12007.00
448.5810, 12318.00
449.7700, 12751.00
450.9600, 13248.00
452.1490, 13469.00
453.3370, 13316.00
454.5260, 13033.00
455.7150, 12161.00
456.9030, 12625.00
458.0910, 10694.00
459.2800, 10441.00
460.4670, 10178.00
461.6550, 10103.00
462.8430, 9984.000
464.0300, 9840.000
465.2180, 9834.000
466.4050, 9713.000
467.5920, 9639.000
468.7790, 9570.000
469.9650, 9384.000
471.1520, 9213.000
472.3380, 9211.000
473.5250, 9116.000
474.7110, 9138.000
475.8970, 9083.000
477.0820, 8990.000
478.2680, 8876.000
479.4540, 8844.000
480.6390, 9004.000
481.8240, 8954.000
483.0090, 8902.000
484.1940, 8939.000
485.3780, 8772.000
486.5630, 8695.000
487.7470, 8974.000
488.9320, 8624.000
490.1160, 8677.000
491.3000, 8428.000
492.4830, 8541.000
493.6670, 8466.000
494.8500, 8412.000
496.0340, 8438.000
497.2170, 8434.000
498.4000, 8342.000
499.5820, 8394.000
500.7650, 8511.000
501.9480, 8426.000
503.1300, 8432.000
504.3120, 8366.000
505.4940, 8391.000
506.6760, 8518.000
507.8580, 8571.000
509.0390, 8538.000
510.2210, 8621.000
511.4020, 8659.000
512.5830, 8686.000
513.7640, 8606.000
514.9450, 8842.000
516.1250, 8704.000
517.3060, 8685.000
518.4860, 8895.000
519.6660, 8737.000
520.8460, 8602.000
522.0260, 8726.000
523.2060, 8689.000
524.3850, 8741.000
525.5650, 8661.000
526.7440, 8771.000
527.9230, 8699.000
529.1020, 8858.000
530.2810, 8758.000
531.4590, 8815.000
532.6380, 8879.000
533.8160, 9001.000
534.9940, 9039.000
536.1720, 9118.000
537.3500, 9329.000
538.5270, 9519.000
539.7050, 9683.000
540.8820, 9932.000
542.0590, 10453.00
543.2360, 10811.00
544.4130, 11416.00
545.5900, 11937.00
546.7660, 12547.00
547.9430, 13341.00
549.1190, 13933.00
550.2950, 14701.00
551.4710, 15232.00
552.6470, 15059.00
553.8220, 14809.00
554.9980, 14060.00
556.1730, 13192.00
557.3480, 12275.00
558.5230, 11803.00
559.6980, 11075.00
560.8730, 10782.00
562.0470, 10455.00
563.2220, 10246.00
564.3960, 10156.00
565.5700, 10048.00
566.7440, 10016.00
567.9170, 9962.000
569.0910, 9824.000
570.2640, 9797.000
571.4380, 9774.000
572.6110, 9928.000
573.7840, 9819.000
574.9570, 9994.000
576.1290, 9964.000
577.3020, 9823.000
578.4740, 10005.00
579.6460, 10113.00
580.8180, 10064.00
581.9900, 10166.00
583.1620, 10274.00
584.3330, 10218.00
585.5040, 10361.00
586.6760, 10362.00
587.8470, 10557.00
589.0180, 10717.00
590.1880, 10596.00
591.3590, 10773.00
592.5290, 10952.00
593.7000, 11039.00
594.8700, 11123.00
596.0400, 11267.00
597.2090, 11353.00
598.3790, 11489.00
599.5490, 11725.00
600.7180, 11789.00
601.8870, 12048.00
603.0560, 12094.00
604.2250, 12168.00
605.3940, 12343.00
606.5620, 12401.00
607.7300, 12487.00
608.8990, 12369.00
610.0670, 12449.00
611.2350, 12343.00
612.4020, 12295.00
613.5700, 12287.00
614.7370, 12291.00
615.9050, 12167.00
617.0720, 12058.00
618.2390, 12005.00
619.4060, 11951.00
620.5720, 11814.00
621.7390, 11899.00
622.9050, 11631.00
624.0710, 11521.00
625.2370, 11480.00
626.4030, 11466.00
627.5690, 11239.00
628.7340, 11051.00
629.9000, 11012.00
631.0650, 10925.00
632.2300, 10620.00
633.3950, 10637.00
634.5600, 10304.00
635.7240, 10212.00
636.8890, 10054.00
638.0530, 10101.00
639.2170, 9873.000
640.3810, 9867.000
641.5450, 9682.000
642.7080, 9738.000
643.8720, 9637.000
645.0350, 9385.000
646.1980, 9532.000
647.3610, 9485.000
648.5240, 9330.000
649.6870, 9241.000
650.8490, 9284.000
652.0120, 9336.000
653.1740, 9197.000
654.3360, 9129.000
655.4980, 9152.000
656.6600, 9259.000
657.8210, 9264.000
658.9830, 9178.000
660.1440, 9140.000
661.3050, 9197.000
662.4660, 9271.000
663.6270, 9337.000
664.7870, 9128.000
665.9480, 9281.000
667.1080, 9156.000
668.2680, 9153.000
669.4280, 9094.000
670.5880, 9108.000
671.7480, 9143.000
672.9070, 9136.437
674.0670, 9204.000
675.2260, 9176.000
676.3850, 9196.000
677.5440, 9202.000
678.7030, 9323.000
679.8610, 9311.000
681.0200, 9335.000
682.1780, 9322.000
683.3360, 9402.000
684.4940, 9287.000
685.6520, 9538.000
686.8090, 9329.000
687.9670, 9449.000
689.1240, 9474.000
690.2810, 9556.000
691.4380, 9479.000
692.5950, 9392.000
693.7520, 9488.000
694.9080, 9541.000
696.0650, 9409.000
697.2210, 9534.000
698.3770, 9346.000
699.5330, 9558.000
700.6880, 9559.000
701.8440, 9561.000
702.9990, 9602.000
704.1550, 9612.858
705.3100, 9658.000
706.4650, 9684.000
707.6190, 9754.000
708.7740, 9831.000
709.9290, 9863.001
711.0830, 9940.000
712.2370, 9993.000
713.3910, 10002.00
714.5450, 9989.862
715.6980, 9973.000
716.8520, 9889.000
718.0050, 9775.000
719.1580, 9694.000
720.3110, 9533.000
721.4640, 9321.000
722.6170, 9264.000
723.7700, 8962.000
724.9220, 8942.000
726.0740, 8732.000
727.2260, 8752.000
728.3780, 8742.000
729.5300, 8704.000
730.6810, 8592.000
731.8330, 8614.000
732.9840, 8506.000
734.1350, 8475.000
735.2860, 8528.000
736.4370, 8584.000
737.5880, 8526.000
738.7380, 8546.000
739.8880, 8607.000
741.0390, 8557.815
742.1890, 8607.000
743.3380, 8530.000
744.4880, 8533.000
745.6380, 8533.000
746.7870, 8705.000
747.9360, 8579.000
749.0850, 8659.000
750.2340, 8668.000
751.3830, 8598.000
752.5310, 8626.000
753.6800, 8494.000
754.8280, 8483.000
755.9760, 8623.000
757.1240, 8512.000
758.2720, 8523.000
759.4190, 8529.000
760.5670, 8482.000
761.7140, 8508.000
762.8610, 8493.491
764.0080, 8436.000
765.1550, 8494.000
766.3020, 8424.000
767.4480, 8424.000
768.5950, 8415.000
769.7410, 8397.000
770.8870, 8389.000
772.0330, 8411.482
773.1780, 8439.000
774.3240, 8476.000
775.4690, 8526.000
776.6140, 8577.000
777.7590, 8506.000
778.9040, 8422.000
780.0490, 8532.000
781.1940, 8565.000
782.3380, 8570.000
783.4820, 8621.000
784.6260, 8607.000
785.7700, 8668.000
786.9140, 8648.000
788.0580, 8669.000
789.2010, 8740.000
790.3450, 8761.910
791.4880, 8867.000
792.6310, 8884.000
793.7730, 9005.000
794.9160, 9101.000
796.0590, 9267.000
797.2010, 9222.000
798.3430, 9336.000
799.4850, 9691.000
800.6270, 9636.000
801.7690, 9938.000
802.9100, 10090.00
804.0520, 10393.00
805.1930, 10451.00
806.3340, 10577.00
807.4750, 10509.00
808.6160, 10521.00
809.7560, 10431.00
810.8970, 10103.00
812.0370, 9912.000
813.1770, 9811.000
814.3170, 9603.146
815.4570, 9593.000
816.5960, 9347.000
817.7360, 9364.000
818.8750, 9261.000
820.0140, 9177.000
821.1530, 9147.000
822.2920, 9193.000
823.4310, 9218.294
824.5690, 9225.000
825.7070, 9391.000
826.8460, 9430.000
827.9840, 9547.000
829.1220, 9467.000
830.2590, 9683.000
831.3970, 9741.000
832.5340, 9933.000
833.6710, 10000.00
834.8080, 9911.000
835.9450, 9698.000
837.0820, 9671.000
838.2190, 9419.000
839.3550, 9261.000
840.4910, 9176.000
841.6270, 8953.000
842.7630, 8940.000
843.8990, 8746.000
845.0350, 8851.000
846.1700, 8782.000
847.3060, 8739.000
848.4410, 8618.000
849.5760, 8842.000
850.7100, 8647.000
851.8450, 8695.000
852.9800, 8690.000
854.1140, 8583.000
855.2480, 8584.000
856.3820, 8601.000
857.5160, 8659.000
858.6500, 8687.000
859.7830, 8627.000
860.9170, 8675.000
862.0500, 8699.000
863.1830, 8729.000
864.3160, 8786.000
865.4480, 8821.000
866.5810, 8758.000
867.7130, 8805.000
868.8460, 8811.000
869.9780, 8873.000
871.1100, 8971.000
872.2410, 8840.000
873.3730, 8860.000
874.5050, 8952.000
875.6360, 8959.000
876.7670, 9015.000
877.8980, 9051.000
879.0290, 8979.000
880.1590, 9016.000
881.2900, 9065.000
882.4200, 9163.000
883.5500, 9137.000
884.6800, 9191.000
885.8100, 9273.000
886.9400, 9293.000
888.0690, 9327.000
889.1990, 9431.000
890.3280, 9513.000
891.4570, 9601.775
892.5860, 9684.000
893.7140, 9841.000
894.8430, 10016.00
895.9710, 10217.00
897.1000, 10328.00
898.2280, 10553.00
899.3560, 10848.00
900.4830, 11242.00
901.6110, 11375.00
902.7380, 11819.00
903.8660, 12537.00
904.9930, 13258.00
906.1200, 14069.00
907.2460, 15363.00
908.3730, 16992.00
909.5000, 19285.00
910.6260, 22255.00
911.7520, 25695.00
912.8780, 30122.00
914.0040, 34765.00
915.1290, 39933.00
916.2550, 45692.00
917.3800, 50518.00
918.5050, 53557.00
919.6300, 54132.00
920.7550, 51142.00
921.8800, 45342.00
923.0040, 38973.00
924.1290, 33115.00
925.2530, 28240.00
926.3770, 24719.00
927.5010, 22417.00
928.6250, 20633.00
929.7480, 18836.00
930.8720, 17471.00
931.9950, 16215.00
933.1180, 15184.00
934.2410, 14180.00
935.3640, 13499.00
936.4860, 12837.00
937.6090, 12354.00
938.7310, 12034.00
939.8530, 11653.00
940.9750, 11591.00
942.0970, 11454.00
943.2180, 11491.00
944.3400, 11530.00
945.4610, 11644.00
946.5820, 11525.00
947.7030, 11832.00
948.8240, 11893.00
949.9450, 11820.00
951.0650, 11717.00
952.1860, 11600.87
953.3060, 11433.00
954.4260, 11211.00
955.5460, 10823.00
956.6650, 10535.00
957.7850, 10412.00
958.9040, 10124.00
960.0230, 9895.000
961.1420, 9927.000
962.2610, 9720.000
963.3800, 9675.000
964.4990, 9511.000
965.6170, 9378.000
966.7350, 9387.000
967.8530, 9460.000
968.9710, 9249.000
970.0890, 9328.000
971.2070, 9252.000
972.3240, 9288.000
973.4410, 9396.000
974.5580, 9325.000
975.6750, 9320.000
976.7920, 9423.000
977.9090, 9370.000
979.0250, 9359.000
980.1410, 9306.000
981.2580, 9297.000
982.3740, 9395.000
983.4890, 9417.000
984.6050, 9397.000
985.7200, 9219.000
986.8360, 9310.000
987.9510, 9282.000
989.0660, 9331.000
990.1810, 9344.000
991.2950, 9357.000
992.4100, 9354.000
993.5240, 9341.000
994.6390, 9263.000
995.7530, 9263.000
996.8660, 9296.468
997.9800, 9367.000
999.0940, 9418.000
1000.207, 9539.000
1001.320, 9631.000
1002.433, 9625.000
1003.546, 9760.000
1004.659, 9843.000
1005.772, 10066.00
1006.884, 10229.00
1007.996, 10514.00
1009.108, 10753.00
1010.220, 10967.00
1011.332, 11275.00
1012.444, 11653.00
1013.555, 12006.00
1014.666, 12460.00
1015.777, 12747.00
1016.888, 13145.00
1017.999, 13310.00
1019.110, 13360.00
1020.220, 13402.00
1021.331, 13233.00
1022.441, 12921.00
1023.551, 12615.00
1024.661, 12266.00
1025.770, 11833.00
1026.880, 11562.00
1027.989, 11382.00
1029.098, 11268.00
1030.207, 10988.00
1031.316, 10712.00
1032.425, 10623.00
1033.533, 10531.00
1034.642, 10481.00
1035.750, 10404.00
1036.858, 10302.00
1037.966, 10327.00
1039.073, 10147.00
1040.181, 10285.00
1041.288, 10265.00
1042.396, 10419.00
1043.503, 10210.00
1044.610, 10356.00
1045.716, 10368.00
1046.823, 10554.00
1047.929, 10620.00
1049.036, 10754.00
1050.142, 10939.00
1051.248, 11324.00
1052.353, 11743.00
1053.459, 12262.00
1054.564, 12789.00
1055.670, 13640.00
1056.775, 15040.00
1057.880, 16533.00
1058.985, 17851.00
1060.089, 20071.00
1061.194, 21974.00
1062.298, 23954.00
1063.402, 25344.00
1064.506, 25631.00
1065.610, 24729.00
1066.713, 22980.00
1067.817, 20654.00
1068.920, 18316.00
1070.023, 16500.00
1071.126, 14834.00
1072.229, 13788.00
1073.332, 12917.00
1074.435, 12440.00
1075.537, 11897.00
1076.639, 11588.00
1077.741, 11273.00
1078.843, 10970.00
1079.945, 10912.00
1081.046, 10698.00
1082.148, 10667.00
1083.249, 10611.00
1084.350, 10604.00
1085.451, 10454.00
1086.551, 10317.00
1087.652, 10472.00
1088.752, 10428.00
1089.853, 10249.00
1090.953, 10266.00
1092.053, 10007.00
1093.152, 10029.00
1094.252, 10008.00
1095.351, 10056.00
1096.451, 10038.00
1097.550, 10094.00
1098.649, 10103.00
1099.748, 10096.00
1100.846, 10117.00
1101.945, 10159.92
1103.043, 10107.00
1104.141, 10278.00
1105.239, 10303.00
1106.337, 10380.00
1107.434, 10380.08
1108.532, 10423.00
1109.629, 10354.00
1110.726, 10271.00
1111.823, 10337.00
1112.920, 10046.00
1114.017, 10083.00
1115.113, 9903.000
1116.210, 9771.000
1117.306, 9733.000
1118.402, 9749.000
1119.498, 9708.000
1120.593, 9640.000
1121.689, 9679.000
1122.784, 9587.000
1123.879, 9719.000
1124.974, 9554.000
1126.069, 9640.000
1127.164, 9503.000
1128.259, 9485.000
1129.353, 9499.000
1130.447, 9560.000
1131.541, 9366.000
1132.635, 9394.000
1133.729, 9466.000
1134.822, 9571.000
1135.916, 9421.000
1137.009, 9501.000
1138.102, 9449.000
1139.195, 9484.000
1140.288, 9420.000
1141.380, 9354.000
1142.473, 9509.000
1143.565, 9396.000
1144.657, 9532.000
1145.749, 9516.000
1146.841, 9432.000
1147.932, 9429.000
1149.024, 9414.000
1150.115, 9483.000
1151.206, 9502.000
1152.297, 9385.000
1153.388, 9539.000
1154.479, 9330.000
1155.569, 9387.000
1156.659, 9466.000
1157.750, 9377.000
1158.839, 9405.000
1159.929, 9437.000
1161.019, 9417.000
1162.108, 9417.000
1163.198, 9525.000
1164.287, 9469.000
1165.376, 9515.000
1166.465, 9398.000
1167.553, 9345.000
1168.642, 9473.000
1169.730, 9497.000
1170.818, 9315.000
1171.906, 9388.000
1172.994, 9391.000
1174.082, 9485.000
1175.170, 9419.000
1176.257, 9378.000
1177.344, 9442.000
1178.431, 9357.000
1179.518, 9337.000
1180.605, 9461.000
1181.691, 9534.000
1182.778, 9367.000
1183.864, 9379.000
1184.950, 9449.000
1186.036, 9424.000
1187.122, 9478.000
1188.207, 9436.000
1189.292, 9448.711
1190.378, 9436.000
1191.463, 9430.000
1192.548, 9418.000
1193.632, 9375.000
1194.717, 9450.000
1195.801, 9507.000
1196.886, 9395.000
1197.970, 9316.000
1199.054, 9442.000
1200.137, 9494.000
1201.221, 9516.000
1202.305, 9610.927
1203.388, 9557.213
1204.471, 9553.104
1205.554, 9483.000
1206.637, 9469.000
1207.719, 9474.000
1208.802, 9459.000
1209.884, 9454.000
1210.966, 9476.000
1212.048, 9505.000
1213.130, 9468.000
1214.212, 9467.000
1215.293, 9504.000
1216.374, 9504.000
1217.456, 9385.000
1218.536, 9586.000
1219.617, 9477.000
1220.698, 9517.000
1221.778, 9600.000
1222.859, 9592.000
1223.939, 9516.000
1225.019, 9591.000
1226.099, 9539.000
1227.178, 9549.377
1228.258, 9566.000
1229.337, 9576.000
1230.417, 9610.000
1231.496, 9659.000
1232.574, 9663.000
1233.653, 9527.000
1234.732, 9558.000
1235.810, 9541.000
1236.888, 9617.000
1237.966, 9607.000
1239.044, 9583.000
1240.122, 9631.000
1241.199, 9610.000
1242.277, 9602.000
1243.354, 9479.000
1244.431, 9595.000
1245.508, 9495.000
1246.585, 9629.000
1247.661, 9496.000
1248.738, 9677.000
1249.814, 9473.000
1250.890, 9631.000
1251.966, 9617.000
1253.042, 9587.000
1254.117, 9666.000
1255.193, 9565.000
1256.268, 9662.000
1257.343, 9613.000
1258.418, 9673.000
1259.493, 9592.000
1260.567, 9656.000
1261.642, 9647.000
1262.716, 9703.000
1263.790, 9653.000
1264.864, 9755.000
1265.938, 9597.000
1267.011, 9711.000
1268.085, 9699.000
1269.158, 9729.000
1270.231, 9703.000
1271.304, 9785.000
1272.377, 9777.000
1273.450, 9632.000
1274.522, 9735.000
1275.594, 9666.000
1276.666, 9733.000
1277.738, 9696.000
1278.810, 9604.000
1279.882, 9873.000
1280.953, 9706.000
1282.025, 9757.000
1283.096, 9825.000
1284.167, 9826.000
1285.238, 9740.000
1286.308, 9761.000
1287.379, 9912.000
1288.449, 9903.000
1289.519, 9711.000
1290.589, 9873.000
1291.659, 9623.000
1292.729, 9880.000
1293.798, 9837.000
1294.868, 9948.000
1295.937, 9750.000
1297.006, 9747.000
1298.075, 9846.000
1299.143, 9805.000
1300.212, 9939.000
1301.280, 9795.000
1302.348, 9841.000
1303.416, 9865.000
1304.484, 9934.000
1305.552, 9937.164
1306.620, 9957.960
1307.687, 9933.000
1308.754, 9945.000
1309.821, 9892.000
1310.888, 9830.000
1311.955, 9884.000
1313.021, 9938.000
1314.088, 9851.000
1315.154, 9864.000
1316.220, 9859.000
1317.286, 9974.000
1318.352, 9911.000
1319.417, 9849.000
1320.483, 9794.000
1321.548, 9904.000
1322.613, 9864.000
1323.678, 9869.000
1324.743, 9839.000
1325.807, 9807.000
1326.872, 9902.000
1327.936, 9880.000
1329.000, 9817.000
1330.064, 9813.000
1331.128, 9902.000
1332.191, 9839.000
1333.255, 9806.000
1334.318, 9961.000
1335.381, 9919.000
1336.444, 9862.000
1337.507, 9767.000
1338.569, 9799.000
1339.632, 9838.000
1340.694, 9776.000
1341.756, 9905.000
1342.818, 9907.000
1343.880, 9840.000
1344.941, 9949.000
1346.003, 9825.000
1347.064, 9871.000
1348.125, 9936.000
1349.186, 9884.000
1350.247, 9896.000
1351.308, 9921.000
1352.368, 10032.00
1353.428, 9995.000
1354.489, 9934.000
1355.549, 9864.000
1356.608, 9950.000
1357.668, 10735.00
1358.727, 10720.00
1359.787, 10812.00
1360.846, 9900.000
1361.905, 9917.000
1362.964, 10007.00
1364.022, 9848.000
1365.081, 10094.00
1366.139, 9960.000
1367.197, 10007.00
1368.255, 10012.00
1369.313, 9998.000
1370.371, 9954.000
1371.428, 9973.588
1372.486, 9964.005
1373.543, 9995.000
1374.600, 10012.00
1375.657, 10042.00
1376.713, 10135.00
1377.770, 10153.00
1378.826, 10159.23
1379.882, 10196.00
1380.938, 10095.00
1381.994, 10207.00
1383.050, 10097.00
1384.106, 10074.00
1385.161, 10149.00
1386.216, 10001.00
1387.271, 10208.00
1388.326, 10028.00
1389.381, 10141.00
1390.435, 10006.00
1391.490, 10100.00
1392.544, 10023.00
1393.598, 10087.00
1394.652, 10163.00
1395.705, 10115.00
1396.759, 10038.00
1397.812, 9979.000
1398.866, 9980.455
1399.919, 9982.489
1400.972, 10000.00
1402.024, 10071.00
1403.077, 10092.00
1404.129, 10161.00
1405.181, 10056.00
1406.233, 10251.00
1407.285, 10122.00
1408.337, 10103.00
1409.389, 10110.00
1410.440, 10089.18
1411.491, 10156.00
1412.542, 10111.00
1413.593, 10130.00
1414.644, 10079.00
1415.695, 10106.00
1416.745, 10129.00
1417.795, 10089.00
1418.845, 10080.00
1419.895, 10179.00
1420.945, 10116.00
1421.995, 10118.00
1423.044, 10268.00
1424.093, 10123.00
1425.142, 10312.00
1426.191, 10133.00
1427.240, 10066.00
1428.289, 10121.00
1429.337, 10225.00
1430.385, 10179.00
1431.433, 10131.00
1432.481, 10217.00
1433.529, 10309.00
1434.577, 10372.00
1435.624, 10191.00
1436.672, 10202.00
1437.719, 10210.00
1438.766, 10303.00
1439.812, 10471.00
1440.859, 10247.00
1441.905, 10339.00
1442.952, 10343.00
1443.998, 10242.00
1445.044, 10386.00
1446.090, 10421.00
1447.135, 10506.00
1448.181, 10327.00
1449.226, 10422.00
1450.271, 10390.00
1451.316, 10246.00
1452.361, 10365.00
1453.405, 10341.00
1454.450, 10290.00
1455.494, 10456.00
1456.538, 10400.00
1457.582, 10261.00
1458.626, 10402.00
1459.670, 10447.00
1460.713, 10471.00
1461.757, 10415.00
1462.800, 10410.00
1463.843, 10369.00
1464.886, 10398.00
1465.928, 10422.00
1466.971, 10374.00
1468.013, 10333.00
1469.055, 10319.00
1470.097, 10367.00
1471.139, 10448.00
1472.181, 10495.00
1473.222, 10448.00
1474.263, 10465.48
1475.305, 10389.00
1476.346, 10406.00
1477.386, 10379.00
1478.427, 10361.00
1479.468, 10381.00
1480.508, 10419.00
1481.548, 10473.00
1482.588, 10431.00
1483.628, 10452.00
1484.668, 10369.00
1485.707, 10412.00
1486.747, 10513.00
1487.786, 10500.00
1488.825, 10398.00
1489.864, 10359.00
1490.902, 10511.00
1491.941, 10497.00
1492.979, 10554.00
1494.017, 10329.00
1495.055, 10382.00
1496.093, 10615.00
1497.131, 10437.00
1498.168, 10636.00
1499.206, 10475.00
1500.243, 10466.00
1501.280, 10396.00
1502.317, 10396.15
1503.354, 10626.00
1504.390, 10463.00
1505.426, 10520.00
1506.463, 10573.00
1507.499, 10470.00
1508.535, 10576.00
1509.570, 10540.00
1510.606, 10564.00
1511.641, 10504.00
1512.676, 10604.00
1513.711, 10518.00
1514.746, 10632.00
1515.781, 10591.00
1516.816, 10579.00
1517.850, 10563.00
1518.884, 10621.00
1519.918, 10556.00
1520.952, 10551.00
1521.986, 10658.00
1523.019, 10619.00
1524.053, 10595.00
1525.086, 10601.00
1526.119, 10536.00
1527.152, 10509.00
1528.185, 10575.00
1529.217, 10614.00
1530.250, 10575.00
1531.282, 10723.00
1532.314, 10557.00
1533.346, 10666.00
1534.377, 10503.00
1535.409, 10522.00
1536.440, 10672.00
1537.472, 10582.00
1538.503, 10621.00
1539.534, 10719.00
1540.564, 10657.00
1541.595, 10653.00
1542.625, 10678.00
1543.656, 10646.69
1544.686, 10693.00
1545.716, 10642.00
1546.745, 10605.00
1547.775, 10610.00
1548.804, 10751.00
1549.834, 10668.00
1550.863, 10827.00
1551.892, 10840.00
1552.920, 10878.00
1553.949, 10954.00
1554.977, 11009.00
1556.006, 10896.00
1557.034, 10803.00
1558.062, 10933.00
1559.089, 10740.00
1560.117, 10739.00
1561.144, 10798.00
1562.172, 10653.00
1563.199, 10685.00
1564.226, 10730.00
1565.252, 10860.00
1566.279, 10848.00
1567.305, 10855.00
1568.332, 10859.00
1569.358, 10879.00
1570.384, 10881.00
##END=



