##NAMES=Andalusite
##RRUFFID=R050449
##IDEAL CHEMISTRY=Al_2_SiO_5_
##LOCALITY=Itinga, Minas Gerais, Brazil
##OWNER=RRUFF
##SOURCE=Marcus Origlieri
##DESCRIPTION=Green fragment
##STATUS=The identification of this mineral has been confirmed by X-ray diffraction and chemical analysis
##URL=rruff.info/R050449
##MEASURED CHEMISTRY=Al_2.00_Fe^3+^_0.01_Si_0.99_O_5_
##PIN_ID=L01352
##ORIENTATION=Laser parallel to -c* (0 0 -1). Fiducial mark perpendicular to laser is parallel to a [1 0 0]
92.24600, 5663.000
93.48000, 5921.000
94.71400, 5845.000
95.94800, 6063.000
97.18200, 5945.000
98.41600, 5839.000
99.64900, 5982.000
100.8830, 6079.000
102.1160, 6101.000
103.3490, 6120.000
104.5820, 6053.000
105.8150, 6195.000
107.0470, 6447.000
108.2800, 6612.000
109.5120, 6996.000
110.7440, 7282.000
111.9760, 6980.000
113.2080, 6502.000
114.4400, 6498.000
115.6710, 6643.000
116.9030, 6759.000
118.1340, 6717.000
119.3650, 6658.000
120.5960, 6455.000
121.8270, 6440.000
123.0580, 6458.000
124.2880, 6449.000
125.5190, 6530.000
126.7490, 6584.000
127.9790, 6457.000
129.2090, 6568.000
130.4390, 6656.000
131.6680, 6684.000
132.8980, 6587.000
134.1270, 6565.000
135.3560, 6669.000
136.5850, 6723.000
137.8140, 6723.000
139.0430, 6803.000
140.2710, 6810.604
141.5000, 6819.000
142.7280, 6808.000
143.9560, 6784.000
145.1840, 6687.000
146.4120, 6757.000
147.6390, 6628.000
148.8670, 6755.000
150.0940, 6658.000
151.3210, 6574.000
152.5490, 6663.000
153.7750, 6726.000
155.0020, 6738.000
156.2290, 6652.000
157.4550, 6639.000
158.6810, 6572.000
159.9080, 6646.000
161.1340, 6696.000
162.3590, 6666.000
163.5850, 6727.000
164.8110, 6709.000
166.0360, 6786.000
167.2610, 6894.000
168.4860, 6865.000
169.7110, 6939.000
170.9360, 6887.000
172.1610, 7000.000
173.3850, 6902.000
174.6100, 6852.000
175.8340, 6912.000
177.0580, 6900.000
178.2820, 6894.000
179.5050, 7039.000
180.7290, 7001.000
181.9520, 7023.000
183.1760, 7080.000
184.3990, 7075.000
185.6220, 7316.000
186.8450, 7316.000
188.0670, 7535.000
189.2900, 7719.000
190.5120, 7736.000
191.7340, 7747.000
192.9560, 7849.000
194.1780, 7777.000
195.4000, 7734.000
196.6220, 7821.000
197.8430, 7885.000
199.0640, 7864.000
200.2860, 7787.000
201.5070, 8058.000
202.7270, 8091.000
203.9480, 8225.000
205.1690, 8061.000
206.3890, 7859.000
207.6090, 7621.000
208.8290, 7516.000
210.0490, 7341.000
211.2690, 7177.000
212.4890, 7310.000
213.7080, 7371.000
214.9280, 7322.000
216.1470, 7296.000
217.3660, 7309.000
218.5850, 7308.445
219.8030, 7251.000
221.0220, 7342.000
222.2400, 7372.000
223.4590, 7355.000
224.6770, 7434.000
225.8950, 7389.000
227.1120, 7553.000
228.3300, 7423.000
229.5480, 7528.000
230.7650, 7464.000
231.9820, 7661.000
233.1990, 7586.000
234.4160, 7617.000
235.6330, 7565.000
236.8490, 7723.000
238.0660, 7847.000
239.2820, 8020.000
240.4980, 8080.000
241.7140, 8230.000
242.9300, 8301.000
244.1460, 8202.000
245.3610, 8200.000
246.5770, 8162.000
247.7920, 7985.000
249.0070, 8098.000
250.2220, 8128.000
251.4370, 8015.000
252.6510, 8055.000
253.8660, 8109.000
255.0800, 8098.000
256.2940, 8172.000
257.5080, 8127.000
258.7220, 8281.000
259.9360, 8365.000
261.1490, 8352.208
262.3630, 8620.000
263.5760, 8428.000
264.7890, 8503.000
266.0020, 8681.000
267.2150, 8919.000
268.4270, 9242.000
269.6400, 9372.000
270.8520, 9480.000
272.0640, 9825.000
273.2760, 10301.00
274.4880, 10912.00
275.7000, 11517.00
276.9120, 12231.00
278.1230, 12642.00
279.3340, 13571.00
280.5450, 14878.00
281.7560, 16707.00
282.9670, 19126.00
284.1780, 22022.00
285.3880, 25632.00
286.5980, 28771.00
287.8090, 33217.00
289.0190, 38150.00
290.2290, 42571.00
291.4380, 44999.00
292.6480, 43891.00
293.8570, 39659.00
295.0670, 34265.00
296.2760, 28772.00
297.4850, 24127.00
298.6930, 19917.00
299.9020, 16867.00
301.1110, 14514.00
302.3190, 13150.00
303.5270, 12070.00
304.7350, 11493.00
305.9430, 10982.00
307.1510, 10603.00
308.3580, 10487.00
309.5660, 10799.00
310.7730, 11277.00
311.9800, 12218.00
313.1870, 13234.00
314.3940, 14633.00
315.6010, 16268.00
316.8070, 18547.00
318.0130, 21761.00
319.2200, 25230.00
320.4260, 27555.00
321.6310, 27423.00
322.8370, 25612.00
324.0430, 23030.00
325.2480, 20382.00
326.4540, 17778.00
327.6590, 15593.00
328.8640, 14451.00
330.0680, 13374.00
331.2730, 12717.00
332.4780, 12224.00
333.6820, 11988.00
334.8860, 11889.00
336.0900, 11620.00
337.2940, 11532.00
338.4980, 11310.00
339.7010, 11381.00
340.9050, 11180.00
342.1080, 11268.00
343.3110, 11118.00
344.5140, 11056.00
345.7170, 11026.00
346.9200, 11276.00
348.1220, 11588.00
349.3240, 12217.00
350.5270, 12912.00
351.7290, 13966.00
352.9310, 15202.00
354.1320, 16690.00
355.3340, 18373.00
356.5350, 19967.00
357.7370, 21135.00
358.9380, 21621.00
360.1390, 21055.00
361.3400, 19760.00
362.5400, 18240.00
363.7410, 16725.00
364.9410, 15313.00
366.1410, 14198.00
367.3410, 13122.00
368.5410, 12550.00
369.7410, 12088.00
370.9400, 11680.00
372.1400, 11222.00
373.3390, 11073.00
374.5380, 10800.00
375.7370, 10558.00
376.9360, 10459.00
378.1350, 10320.00
379.3330, 10331.00
380.5310, 10182.00
381.7300, 10091.00
382.9280, 10158.00
384.1260, 10171.00
385.3230, 10146.00
386.5210, 10106.00
387.7180, 10052.00
388.9160, 10231.00
390.1130, 10166.00
391.3100, 10173.00
392.5060, 10262.00
393.7030, 9996.000
394.9000, 9966.000
396.0960, 9700.000
397.2920, 9675.000
398.4880, 9687.000
399.6840, 9568.000
400.8800, 9479.000
402.0750, 9540.000
403.2710, 9462.000
404.4660, 9530.000
405.6610, 9600.000
406.8560, 9659.000
408.0510, 9730.000
409.2450, 9757.000
410.4400, 9756.000
411.6340, 9889.000
412.8280, 10118.00
414.0220, 10163.00
415.2160, 10507.00
416.4100, 10722.00
417.6030, 10884.00
418.7970, 11109.00
419.9900, 10679.00
421.1830, 10478.00
422.3760, 10133.00
423.5690, 9909.000
424.7610, 9832.000
425.9540, 9747.000
427.1460, 9522.000
428.3380, 9534.000
429.5300, 9462.000
430.7220, 9380.000
431.9140, 9304.000
433.1050, 9316.000
434.2970, 9297.000
435.4880, 9273.000
436.6790, 9302.000
437.8700, 9392.000
439.0610, 9327.000
440.2510, 9602.000
441.4420, 9659.000
442.6320, 9877.000
443.8220, 9817.000
445.0120, 10067.00
446.2020, 10354.00
447.3910, 10340.00
448.5810, 10648.00
449.7700, 11075.00
450.9600, 11405.00
452.1490, 11667.00
453.3370, 11091.00
454.5260, 10592.00
455.7150, 10131.00
456.9030, 9875.000
458.0910, 9617.000
459.2800, 9460.000
460.4670, 9390.000
461.6550, 9324.000
462.8430, 9214.000
464.0300, 9263.000
465.2180, 9230.000
466.4050, 9152.000
467.5920, 9206.000
468.7790, 9342.000
469.9650, 9272.000
471.1520, 9319.000
472.3380, 9400.000
473.5250, 9632.000
474.7110, 9471.000
475.8970, 9541.000
477.0820, 9505.000
478.2680, 9486.000
479.4540, 9603.000
480.6390, 9606.000
481.8240, 9619.000
483.0090, 9657.000
484.1940, 9668.000
485.3780, 9613.000
486.5630, 9630.000
487.7470, 9519.000
488.9320, 9558.000
490.1160, 9597.000
491.3000, 9389.000
492.4830, 9601.000
493.6670, 9559.000
494.8500, 9529.000
496.0340, 9608.000
497.2170, 9580.245
498.4000, 9680.000
499.5820, 9647.000
500.7650, 9817.000
501.9480, 9934.000
503.1300, 9781.000
504.3120, 10001.00
505.4940, 10096.00
506.6760, 10244.00
507.8580, 10277.00
509.0390, 10452.00
510.2210, 10508.00
511.4020, 10474.00
512.5830, 10539.00
513.7640, 10398.00
514.9450, 10563.00
516.1250, 10699.00
517.3060, 10560.00
518.4860, 10587.00
519.6660, 10602.00
520.8460, 10583.00
522.0260, 10597.57
523.2060, 10617.00
524.3850, 10604.00
525.5650, 10616.00
526.7440, 10643.00
527.9230, 10675.00
529.1020, 10820.00
530.2810, 10807.00
531.4590, 10976.00
532.6380, 11090.00
533.8160, 11331.00
534.9940, 11445.00
536.1720, 11643.00
537.3500, 11878.00
538.5270, 12118.00
539.7050, 12432.00
540.8820, 12727.00
542.0590, 13404.00
543.2360, 13977.00
544.4130, 14498.00
545.5900, 15397.00
546.7660, 15962.00
547.9430, 16895.00
549.1190, 17481.00
550.2950, 17745.00
551.4710, 18128.00
552.6470, 17853.00
553.8220, 17331.00
554.9980, 16268.00
556.1730, 15570.00
557.3480, 14857.00
558.5230, 14251.00
559.6980, 13759.00
560.8730, 13321.00
562.0470, 12988.00
563.2220, 12913.00
564.3960, 12932.00
565.5700, 12561.00
566.7440, 12632.00
567.9170, 12600.00
569.0910, 12626.00
570.2640, 12703.00
571.4380, 12702.00
572.6110, 12562.00
573.7840, 12535.00
574.9570, 12397.00
576.1290, 12278.09
577.3020, 12140.00
578.4740, 12012.00
579.6460, 11892.00
580.8180, 11764.00
581.9900, 11654.00
583.1620, 11610.00
584.3330, 11512.00
585.5040, 11410.00
586.6760, 11433.00
587.8470, 11444.00
589.0180, 11364.00
590.1880, 11334.00
591.3590, 11301.00
592.5290, 11295.79
593.7000, 11239.00
594.8700, 11321.00
596.0400, 11313.00
597.2090, 11320.00
598.3790, 11400.02
599.5490, 11502.00
600.7180, 11524.00
601.8870, 11582.00
603.0560, 11623.00
604.2250, 11761.00
605.3940, 11810.00
606.5620, 11874.64
607.7300, 11985.00
608.8990, 11985.00
610.0670, 12052.00
611.2350, 12110.00
612.4020, 12315.00
613.5700, 12247.00
614.7370, 12341.00
615.9050, 12457.00
617.0720, 12393.00
618.2390, 12636.00
619.4060, 12838.00
620.5720, 12784.00
621.7390, 12778.00
622.9050, 12764.00
624.0710, 12902.00
625.2370, 13155.00
626.4030, 13190.00
627.5690, 13156.00
628.7340, 13308.00
629.9000, 13329.00
631.0650, 13224.00
632.2300, 13106.00
633.3950, 13105.00
634.5600, 12934.00
635.7240, 12931.00
636.8890, 12898.00
638.0530, 12671.00
639.2170, 12605.00
640.3810, 12554.00
641.5450, 12508.80
642.7080, 12649.00
643.8720, 12581.00
645.0350, 12617.00
646.1980, 12738.00
647.3610, 12501.00
648.5240, 12677.00
649.6870, 12477.00
650.8490, 12476.00
652.0120, 12179.00
653.1740, 12133.00
654.3360, 11783.00
655.4980, 11689.00
656.6600, 11380.00
657.8210, 11410.00
658.9830, 11368.00
660.1440, 11306.00
661.3050, 11387.00
662.4660, 11236.00
663.6270, 11101.00
664.7870, 10826.00
665.9480, 10750.00
667.1080, 10391.00
668.2680, 10376.00
669.4280, 10255.00
670.5880, 10225.00
671.7480, 10168.00
672.9070, 10173.00
674.0670, 10172.00
675.2260, 10256.00
676.3850, 9839.000
677.5440, 10075.00
678.7030, 10021.00
679.8610, 9895.000
681.0200, 10044.00
682.1780, 10135.00
683.3360, 9967.000
684.4940, 9992.000
685.6520, 10039.00
686.8090, 10076.00
687.9670, 10025.00
689.1240, 10054.00
690.2810, 10104.00
691.4380, 10156.00
692.5950, 10133.00
693.7520, 10200.00
694.9080, 10188.00
696.0650, 10162.00
697.2210, 10282.00
698.3770, 10269.00
699.5330, 10364.00
700.6880, 10315.00
701.8440, 10390.00
702.9990, 10513.00
704.1550, 10608.00
705.3100, 10550.00
706.4650, 10708.00
707.6190, 10804.00
708.7740, 10860.00
709.9290, 11041.00
711.0830, 11168.00
712.2370, 11336.00
713.3910, 11559.00
714.5450, 11783.00
715.6980, 11890.00
716.8520, 11942.00
718.0050, 11953.00
719.1580, 12002.00
720.3110, 11787.00
721.4640, 11446.00
722.6170, 11159.00
723.7700, 10999.00
724.9220, 10717.00
726.0740, 10644.00
727.2260, 10456.00
728.3780, 10479.00
729.5300, 10430.00
730.6810, 10605.00
731.8330, 10831.00
732.9840, 10458.00
734.1350, 10391.00
735.2860, 10493.00
736.4370, 10269.00
737.5880, 10530.00
738.7380, 10453.00
739.8880, 10558.00
741.0390, 10445.00
742.1890, 10321.00
743.3380, 10382.00
744.4880, 10322.00
745.6380, 10350.00
746.7870, 10354.77
747.9360, 10327.00
749.0850, 10352.00
750.2340, 10341.00
751.3830, 10310.00
752.5310, 10346.31
753.6800, 10400.00
754.8280, 10388.00
755.9760, 10434.00
757.1240, 10448.00
758.2720, 10261.00
759.4190, 10371.00
760.5670, 10333.00
761.7140, 10314.00
762.8610, 10371.00
764.0080, 10358.00
765.1550, 10314.00
766.3020, 10392.00
767.4480, 10499.00
768.5950, 10410.00
769.7410, 10387.00
770.8870, 10470.00
772.0330, 10424.00
773.1780, 10391.00
774.3240, 10401.00
775.4690, 10403.00
776.6140, 10428.00
777.7590, 10407.00
778.9040, 10501.00
780.0490, 10595.00
781.1940, 10599.00
782.3380, 10553.00
783.4820, 11037.00
784.6260, 10743.00
785.7700, 10697.00
786.9140, 10481.00
788.0580, 10870.00
789.2010, 10785.00
790.3450, 10887.00
791.4880, 11019.00
792.6310, 10950.00
793.7730, 11006.00
794.9160, 11144.00
796.0590, 11320.00
797.2010, 11298.00
798.3430, 11495.00
799.4850, 11518.00
800.6270, 11660.00
801.7690, 11783.00
802.9100, 11947.00
804.0520, 12148.00
805.1930, 12325.00
806.3340, 12546.00
807.4750, 12724.27
808.6160, 12890.00
809.7560, 13106.00
810.8970, 13321.00
812.0370, 13532.00
813.1770, 13738.00
814.3170, 14128.00
815.4570, 14407.00
816.5960, 14761.00
817.7360, 14926.00
818.8750, 15148.00
820.0140, 15093.00
821.1530, 15419.00
822.2920, 15281.00
823.4310, 15119.00
824.5690, 14871.00
825.7070, 14531.00
826.8460, 14050.00
827.9840, 14011.00
829.1220, 13727.00
830.2590, 13482.00
831.3970, 13418.00
832.5340, 13335.00
833.6710, 13125.00
834.8080, 12972.00
835.9450, 12819.00
837.0820, 12733.00
838.2190, 12430.00
839.3550, 12238.00
840.4910, 11960.00
841.6270, 11866.00
842.7630, 11624.00
843.8990, 11573.00
845.0350, 11401.00
846.1700, 11400.00
847.3060, 11267.00
848.4410, 11159.00
849.5760, 11052.00
850.7100, 11011.00
851.8450, 10966.00
852.9800, 10933.33
854.1140, 10921.00
855.2480, 10930.00
856.3820, 11005.00
857.5160, 11051.00
858.6500, 11086.00
859.7830, 11235.00
860.9170, 11148.00
862.0500, 11076.00
863.1830, 11138.00
864.3160, 11189.00
865.4480, 11201.00
866.5810, 11272.00
867.7130, 11147.00
868.8460, 11150.00
869.9780, 11208.00
871.1100, 11287.00
872.2410, 11275.00
873.3730, 11261.00
874.5050, 11335.00
875.6360, 11270.00
876.7670, 11405.00
877.8980, 11345.00
879.0290, 11424.00
880.1590, 11501.00
881.2900, 11513.00
882.4200, 11607.00
883.5500, 11497.00
884.6800, 11766.00
885.8100, 11701.00
886.9400, 11857.00
888.0690, 12018.00
889.1990, 11922.00
890.3280, 12144.00
891.4570, 12201.00
892.5860, 12291.00
893.7140, 12552.00
894.8430, 12735.00
895.9710, 12883.00
897.1000, 13238.00
898.2280, 13452.00
899.3560, 13785.00
900.4830, 14162.00
901.6110, 14535.00
902.7380, 15095.00
903.8660, 15784.00
904.9930, 16235.00
906.1200, 17185.00
907.2460, 17949.00
908.3730, 19399.00
909.5000, 21300.00
910.6260, 23258.00
911.7520, 26263.00
912.8780, 29994.00
914.0040, 34272.00
915.1290, 39859.00
916.2550, 45801.00
917.3800, 51877.00
918.5050, 55717.00
919.6300, 56702.00
920.7550, 53473.00
921.8800, 47787.00
923.0040, 41739.00
924.1290, 36642.00
925.2530, 32876.00
926.3770, 29744.00
927.5010, 27530.00
928.6250, 25912.00
929.7480, 24253.00
930.8720, 22385.00
931.9950, 20681.00
933.1180, 19499.00
934.2410, 18445.00
935.3640, 17700.00
936.4860, 16938.00
937.6090, 16491.00
938.7310, 16371.00
939.8530, 16031.00
940.9750, 16049.00
942.0970, 16105.00
943.2180, 16079.00
944.3400, 16686.00
945.4610, 17108.00
946.5820, 17690.00
947.7030, 18206.00
948.8240, 18487.00
949.9450, 18747.00
951.0650, 18768.00
952.1860, 18284.00
953.3060, 17689.00
954.4260, 16964.00
955.5460, 16102.00
956.6650, 15599.00
957.7850, 14847.00
958.9040, 14515.00
960.0230, 13904.00
961.1420, 13682.00
962.2610, 13478.00
963.3800, 13228.00
964.4990, 13100.00
965.6170, 13009.00
966.7350, 13082.00
967.8530, 12921.00
968.9710, 13041.00
970.0890, 12875.00
971.2070, 12851.00
972.3240, 12944.00
973.4410, 13004.00
974.5580, 12767.00
975.6750, 12886.00
976.7920, 12794.00
977.9090, 12925.00
979.0250, 12915.00
980.1410, 12761.00
981.2580, 12771.00
982.3740, 12929.00
983.4890, 12858.00
984.6050, 13070.00
985.7200, 12776.00
986.8360, 13111.00
987.9510, 13066.00
989.0660, 12952.00
990.1810, 13032.00
991.2950, 13173.00
992.4100, 13207.00
993.5240, 13251.00
994.6390, 13633.00
995.7530, 13687.00
996.8660, 13815.00
997.9800, 14326.00
999.0940, 14633.00
1000.207, 15109.00
1001.320, 15788.00
1002.433, 16215.00
1003.546, 17010.00
1004.659, 17299.00
1005.772, 17502.00
1006.884, 17416.00
1007.996, 17191.00
1009.108, 16921.00
1010.220, 16714.00
1011.332, 16757.02
1012.444, 16910.00
1013.555, 17094.00
1014.666, 17546.00
1015.777, 18077.00
1016.888, 18611.00
1017.999, 19096.00
1019.110, 19611.00
1020.220, 19338.00
1021.331, 19124.00
1022.441, 18753.00
1023.551, 17794.00
1024.661, 17130.00
1025.770, 16534.00
1026.880, 15904.00
1027.989, 15443.00
1029.098, 15144.00
1030.207, 14863.00
1031.316, 14597.58
1032.425, 14613.00
1033.533, 14208.00
1034.642, 14118.00
1035.750, 13957.00
1036.858, 14153.00
1037.966, 13902.00
1039.073, 13955.00
1040.181, 13925.00
1041.288, 13821.00
1042.396, 13887.00
1043.503, 13750.00
1044.610, 13867.00
1045.716, 13794.00
1046.823, 13748.00
1047.929, 13941.00
1049.036, 13671.00
1050.142, 13935.00
1051.248, 14025.00
1052.353, 14302.00
1053.459, 14347.00
1054.564, 14769.00
1055.670, 15048.00
1056.775, 15729.00
1057.880, 16570.00
1058.985, 17460.00
1060.089, 18584.00
1061.194, 20130.00
1062.298, 21477.00
1063.402, 22590.00
1064.506, 23120.00
1065.610, 22972.00
1066.713, 21916.00
1067.817, 20373.00
1068.920, 19334.00
1070.023, 17845.00
1071.126, 16653.00
1072.229, 16314.00
1073.332, 15443.00
1074.435, 15176.00
1075.537, 14674.00
1076.639, 14578.00
1077.741, 14266.00
1078.843, 14110.00
1079.945, 13965.00
1081.046, 13824.18
1082.148, 13988.00
1083.249, 13693.00
1084.350, 13691.00
1085.451, 13706.00
1086.551, 13478.00
1087.652, 13577.00
1088.752, 13513.00
1089.853, 13407.00
1090.953, 13504.00
1092.053, 13562.00
1093.152, 13427.00
1094.252, 13454.00
1095.351, 13426.00
1096.451, 13611.00
1097.550, 13526.00
1098.649, 13654.00
1099.748, 13681.00
1100.846, 13934.00
1101.945, 13919.00
1103.043, 14199.00
1104.141, 14334.00
1105.239, 14595.00
1106.337, 14769.00
1107.434, 15139.00
1108.532, 15222.00
1109.629, 15386.00
1110.726, 15388.00
1111.823, 15280.00
1112.920, 14915.00
1114.017, 14808.00
1115.113, 14599.00
1116.210, 14347.00
1117.306, 14197.00
1118.402, 14047.00
1119.498, 13876.00
1120.593, 13680.00
1121.689, 13908.00
1122.784, 13747.00
1123.879, 13611.00
1124.974, 13739.00
1126.069, 13583.00
1127.164, 13674.00
1128.259, 13574.00
1129.353, 13558.00
1130.447, 13285.00
1131.541, 13253.00
1132.635, 13221.00
1133.729, 13045.00
1134.822, 13124.00
1135.916, 13097.00
1137.009, 13239.00
1138.102, 13031.00
1139.195, 13103.00
1140.288, 13321.00
1141.380, 13054.00
1142.473, 13071.00
1143.565, 13122.00
1144.657, 13132.00
1145.749, 13192.00
1146.841, 13214.00
1147.932, 13018.00
1149.024, 13241.00
1150.115, 13140.00
1151.206, 13263.00
1152.297, 13176.00
1153.388, 13153.00
1154.479, 13295.00
1155.569, 13023.00
1156.659, 13164.00
1157.750, 13072.00
1158.839, 13282.00
1159.929, 13271.00
1161.019, 13141.00
1162.108, 13402.00
1163.198, 13226.00
1164.287, 13264.00
1165.376, 13215.00
1166.465, 13229.00
1167.553, 13199.00
1168.642, 13147.00
1169.730, 13366.00
1170.818, 13300.00
1171.906, 13391.00
1172.994, 13280.00
1174.082, 13239.00
1175.170, 13331.00
1176.257, 13093.00
1177.344, 13122.00
1178.431, 13357.00
1179.518, 13297.00
1180.605, 13278.00
1181.691, 13180.00
1182.778, 13281.00
1183.864, 13385.00
1184.950, 13344.00
1186.036, 13352.00
1187.122, 13349.00
1188.207, 13273.00
1189.292, 13239.00
1190.378, 13342.00
1191.463, 13238.00
1192.548, 13181.00
1193.632, 13374.00
1194.717, 13344.00
1195.801, 13337.00
1196.886, 13294.00
1197.970, 13285.91
1199.054, 13285.00
1200.137, 13272.00
1201.221, 13321.00
1202.305, 13349.00
1203.388, 13417.00
1204.471, 13392.00
1205.554, 13361.00
1206.637, 13391.38
1207.719, 13361.11
1208.802, 13381.00
1209.884, 13341.00
1210.966, 13292.00
1212.048, 13276.00
1213.130, 13314.00
1214.212, 13367.00
1215.293, 13357.00
1216.374, 13353.00
1217.456, 13345.00
1218.536, 13246.00
1219.617, 13287.00
1220.698, 13314.00
1221.778, 13266.00
1222.859, 13354.00
1223.939, 13200.00
1225.019, 13397.00
1226.099, 13309.00
1227.178, 13327.00
1228.258, 13323.00
1229.337, 13410.00
1230.417, 13253.00
1231.496, 13331.00
1232.574, 13408.00
1233.653, 13407.00
1234.732, 13279.00
1235.810, 13395.00
1236.888, 13339.00
1237.966, 13446.00
1239.044, 13399.00
1240.122, 13387.00
1241.199, 13433.00
1242.277, 13252.00
1243.354, 13458.00
1244.431, 13571.00
1245.508, 13515.00
1246.585, 13348.00
1247.661, 13437.00
1248.738, 13420.00
1249.814, 13488.00
1250.890, 13564.00
1251.966, 13547.20
1253.042, 13538.00
1254.117, 13520.00
1255.193, 13488.00
1256.268, 13397.00
1257.343, 13505.00
1258.418, 13448.00
1259.493, 13540.00
1260.567, 13506.00
1261.642, 13536.04
1262.716, 13545.00
1263.790, 13574.00
1264.864, 13538.00
1265.938, 13525.00
1267.011, 13654.00
1268.085, 13554.00
1269.158, 13524.00
1270.231, 13679.00
1271.304, 13687.00
1272.377, 13488.00
1273.450, 13723.00
1274.522, 13701.00
1275.594, 13674.00
1276.666, 13471.00
1277.738, 13582.00
1278.810, 13521.00
1279.882, 13689.00
1280.953, 13635.00
1282.025, 13564.00
1283.096, 13538.00
1284.167, 13425.00
1285.238, 13545.00
1286.308, 13674.00
1287.379, 13690.00
1288.449, 13688.16
1289.519, 13626.00
1290.589, 13565.00
1291.659, 13559.00
1292.729, 13483.00
1293.798, 13504.00
1294.868, 13676.00
1295.937, 13644.00
1297.006, 13662.00
1298.075, 13561.00
1299.143, 13510.00
1300.212, 13584.00
1301.280, 13474.00
1302.348, 13660.00
1303.416, 13667.00
1304.484, 13641.00
1305.552, 13488.00
1306.620, 13607.00
1307.687, 13541.00
1308.754, 13586.00
1309.821, 13606.43
1310.888, 13673.00
1311.955, 13633.00
1313.021, 13668.00
1314.088, 13694.00
1315.154, 13764.00
1316.220, 13646.00
1317.286, 13727.00
1318.352, 13703.00
1319.417, 13705.00
1320.483, 13744.00
1321.548, 13720.65
1322.613, 13802.00
1323.678, 13700.00
1324.743, 13738.00
1325.807, 13705.00
1326.872, 13757.00
1327.936, 13766.00
1329.000, 13772.58
1330.064, 13773.50
1331.128, 13786.00
1332.191, 13732.00
1333.255, 13705.00
1334.318, 13660.00
1335.381, 13661.00
1336.444, 13713.00
1337.507, 13749.00
1338.569, 13726.00
1339.632, 13833.00
1340.694, 13792.00
1341.756, 13706.00
1342.818, 13735.00
1343.880, 13678.00
1344.941, 13818.00
1346.003, 13789.00
1347.064, 13778.00
1348.125, 13812.00
1349.186, 13795.00
1350.247, 13812.44
1351.308, 13822.00
1352.368, 13851.00
1353.428, 13866.00
1354.489, 13919.00
1355.549, 13836.00
1356.608, 13807.00
1357.668, 13886.00
1358.727, 13864.00
1359.787, 13881.00
1360.846, 13965.00
1361.905, 14032.00
1362.964, 13984.00
1364.022, 14082.00
1365.081, 13963.00
1366.139, 14051.00
1367.197, 14077.00
1368.255, 13911.00
1369.313, 14100.00
1370.371, 14187.00
1371.428, 14014.00
1372.486, 14121.00
1373.543, 14209.00
1374.600, 14119.00
1375.657, 14005.00
1376.713, 14060.00
1377.770, 14109.00
1378.826, 14138.00
1379.882, 14158.22
1380.938, 14201.04
1381.994, 14147.00
1383.050, 14206.00
1384.106, 14150.00
1385.161, 14007.00
1386.216, 14119.00
1387.271, 14062.00
1388.326, 14262.00
1389.381, 14105.00
1390.435, 14214.00
1391.490, 14193.00
1392.544, 14189.00
1393.598, 14109.00
1394.652, 14205.00
1395.705, 14260.00
1396.759, 14175.00
1397.812, 14127.00
1398.866, 14210.00
1399.919, 14152.00
1400.972, 14238.00
1402.024, 14244.00
1403.077, 14164.00
1404.129, 14069.00
1405.181, 14016.00
1406.233, 14215.00
1407.285, 14207.00
1408.337, 14076.00
1409.389, 13948.00
1410.440, 14124.00
1411.491, 14090.00
1412.542, 14173.00
1413.593, 14297.00
1414.644, 14105.00
1415.695, 14191.00
1416.745, 14277.00
1417.795, 14326.00
1418.845, 14272.00
1419.895, 14202.00
1420.945, 14366.00
1421.995, 14137.00
1423.044, 14293.00
1424.093, 14382.00
1425.142, 14147.00
1426.191, 14209.00
1427.240, 14238.00
1428.289, 14372.00
1429.337, 14383.80
1430.385, 14414.27
1431.433, 14450.00
1432.481, 14436.00
1433.529, 14446.00
1434.577, 14473.00
1435.624, 14502.00
1436.672, 14539.00
1437.719, 14577.00
1438.766, 14548.00
1439.812, 14581.00
1440.859, 14631.40
1441.905, 14694.00
1442.952, 14742.00
1443.998, 14760.00
1445.044, 14787.00
1446.090, 14554.00
1447.135, 14826.00
1448.181, 14643.00
1449.226, 14898.00
1450.271, 14754.00
1451.316, 14955.00
1452.361, 14874.00
1453.405, 14725.00
1454.450, 14804.00
1455.494, 14927.00
1456.538, 14934.00
1457.582, 14944.00
1458.626, 14815.00
1459.670, 14816.00
1460.713, 14924.00
1461.757, 14819.00
1462.800, 14872.00
1463.843, 14807.00
1464.886, 14915.00
1465.928, 14911.00
1466.971, 14827.00
1468.013, 14731.00
1469.055, 14688.00
1470.097, 14633.00
1471.139, 14750.00
1472.181, 14724.00
1473.222, 14753.00
1474.263, 14531.00
1475.305, 14812.00
1476.346, 14716.00
1477.386, 14497.00
1478.427, 14898.00
1479.468, 14654.00
1480.508, 14765.00
1481.548, 14707.00
1482.588, 14647.00
1483.628, 14683.00
1484.668, 14575.00
1485.707, 14651.00
1486.747, 14738.00
1487.786, 14607.00
1488.825, 14565.00
1489.864, 14774.00
1490.902, 14639.00
1491.941, 14591.00
1492.979, 14591.00
1494.017, 14692.00
1495.055, 14668.00
1496.093, 14751.00
1497.131, 14576.00
1498.168, 14729.00
1499.206, 14710.00
1500.243, 14621.00
1501.280, 14695.00
1502.317, 14759.00
1503.354, 14799.00
1504.390, 14684.00
1505.426, 14643.00
1506.463, 14736.00
1507.499, 14761.00
1508.535, 14871.00
1509.570, 14677.00
1510.606, 14776.00
1511.641, 14738.00
1512.676, 14704.00
1513.711, 14854.00
1514.746, 14866.00
1515.781, 14939.00
1516.816, 14741.00
1517.850, 14828.00
1518.884, 14754.00
1519.918, 14804.00
1520.952, 15011.00
1521.986, 14811.00
1523.019, 15000.00
1524.053, 14822.00
1525.086, 14982.00
1526.119, 14894.00
1527.152, 14900.00
1528.185, 14896.00
1529.217, 14917.00
1530.250, 14953.00
1531.282, 14863.00
1532.314, 15020.00
1533.346, 15117.00
1534.377, 14992.00
1535.409, 14865.00
1536.440, 15071.00
1537.472, 15106.00
1538.503, 15100.00
1539.534, 15068.00
1540.564, 15184.00
1541.595, 15239.00
1542.625, 15232.00
1543.656, 15080.00
1544.686, 15114.00
1545.716, 15145.00
1546.745, 15223.00
1547.775, 15162.00
1548.804, 15011.00
1549.834, 15239.00
1550.863, 15200.00
1551.892, 15186.00
1552.920, 15304.00
1553.949, 15406.00
1554.977, 15274.00
1556.006, 15225.00
1557.034, 15224.00
1558.062, 15182.18
1559.089, 15249.00
1560.117, 15199.00
1561.144, 15167.00
1562.172, 15189.00
1563.199, 15297.00
1564.226, 15288.00
1565.252, 15235.00
1566.279, 15309.00
1567.305, 15101.00
1568.332, 15411.00
1569.358, 15424.00
1570.384, 15212.00
1571.409, 15445.00
##END=



