##NAMES=Andalusite
##RRUFFID=R060212
##IDEAL CHEMISTRY=Al_2_SiO_5_
##LOCALITY=Brazil
##OWNER=RRUFF
##SOURCE=Marcus Origlieri
##DESCRIPTION=Transparent yellow-green water-worn pebble
##STATUS=The identification of this mineral is confirmed by single-crystal X-ray diffraction and chemical analysis.
##URL=rruff.info/R060212
##MEASURED CHEMISTRY=(Al_1.98_Fe^3+^_0.02_)_Î£=2_Si_1.00_O_5_
##PIN_ID=L00827
##ORIENTATION=Laser parallel to -b* (0 -1 0). Fiducial mark perpendicular to laser is parallel to c [0 0 1]
99.64900, 11721.00
100.8830, 11918.00
102.1160, 11926.00
103.3490, 12043.00
104.5820, 12102.00
105.8150, 12391.00
107.0470, 12645.00
108.2800, 12951.00
109.5120, 12966.25
110.7440, 13283.00
111.9760, 13019.00
113.2080, 12965.00
114.4400, 13132.00
115.6710, 13418.00
116.9030, 13355.00
118.1340, 13400.00
119.3650, 13428.00
120.5960, 13299.00
121.8270, 13329.00
123.0580, 13391.25
124.2880, 13569.00
125.5190, 13597.00
126.7490, 13663.00
127.9790, 13806.00
129.2090, 13894.00
130.4390, 14157.00
131.6680, 14320.00
132.8980, 14446.00
134.1270, 14758.00
135.3560, 14856.00
136.5850, 15089.00
137.8140, 15386.00
139.0430, 15697.00
140.2710, 15979.00
141.5000, 16025.86
142.7280, 16013.00
143.9560, 15978.00
145.1840, 15961.00
146.4120, 15801.00
147.6390, 15383.00
148.8670, 15340.00
150.0940, 14996.00
151.3210, 15062.00
152.5490, 15085.00
153.7750, 14885.00
155.0020, 14840.00
156.2290, 14920.00
157.4550, 14690.00
158.6810, 14897.00
159.9080, 14726.00
161.1340, 14823.00
162.3590, 14832.00
163.5850, 15107.00
164.8110, 14935.00
166.0360, 15262.00
167.2610, 15093.00
168.4860, 15174.00
169.7110, 15203.00
170.9360, 15201.00
172.1610, 15252.00
173.3850, 15243.00
174.6100, 15277.00
175.8340, 15275.00
177.0580, 15313.00
178.2820, 15360.00
179.5050, 15457.00
180.7290, 15473.00
181.9520, 15661.00
183.1760, 15730.00
184.3990, 15774.00
185.6220, 15814.00
186.8450, 15996.00
188.0670, 16070.00
189.2900, 16187.00
190.5120, 16489.00
191.7340, 16575.00
192.9560, 16502.00
194.1780, 16405.00
195.4000, 16506.00
196.6220, 16517.00
197.8430, 16769.00
199.0640, 16741.00
200.2860, 16625.00
201.5070, 16957.00
202.7270, 16814.00
203.9480, 16833.00
205.1690, 16615.00
206.3890, 16323.00
207.6090, 16181.00
208.8290, 16189.00
210.0490, 16035.00
211.2690, 16208.00
212.4890, 16085.00
213.7080, 16072.00
214.9280, 16306.00
216.1470, 16214.00
217.3660, 16139.00
218.5850, 16367.00
219.8030, 16339.00
221.0220, 16389.00
222.2400, 16457.00
223.4590, 16357.00
224.6770, 16277.00
225.8950, 16421.00
227.1120, 16603.00
228.3300, 16650.00
229.5480, 16699.00
230.7650, 16650.00
231.9820, 16776.00
233.1990, 16911.00
234.4160, 16992.00
235.6330, 17188.00
236.8490, 17156.00
238.0660, 17323.00
239.2820, 17398.00
240.4980, 17622.00
241.7140, 17479.00
242.9300, 17457.00
244.1460, 17285.00
245.3610, 17428.00
246.5770, 17272.00
247.7920, 17274.00
249.0070, 17205.00
250.2220, 17122.00
251.4370, 17355.00
252.6510, 17340.00
253.8660, 17480.00
255.0800, 17566.00
256.2940, 17643.85
257.5080, 17794.14
258.7220, 17795.00
259.9360, 18018.00
261.1490, 17992.00
262.3630, 17981.00
263.5760, 17874.00
264.7890, 18064.00
266.0020, 18010.00
267.2150, 18186.00
268.4270, 18273.19
269.6400, 18368.00
270.8520, 18522.00
272.0640, 18761.00
273.2760, 18963.00
274.4880, 19166.00
275.7000, 19714.00
276.9120, 19915.00
278.1230, 20158.00
279.3340, 20795.00
280.5450, 21449.00
281.7560, 22495.00
282.9670, 23735.00
284.1780, 25087.00
285.3880, 26259.00
286.5980, 27931.00
287.8090, 29624.00
289.0190, 31688.00
290.2290, 33069.00
291.4380, 32873.00
292.6480, 31850.00
293.8570, 29781.00
295.0670, 27056.00
296.2760, 24926.00
297.4850, 23506.00
298.6930, 22090.00
299.9020, 21572.00
301.1110, 20800.00
302.3190, 20540.00
303.5270, 20013.00
304.7350, 20103.00
305.9430, 20083.00
307.1510, 20083.00
308.3580, 20244.00
309.5660, 20604.00
310.7730, 21312.00
311.9800, 21887.00
313.1870, 22917.00
314.3940, 23704.00
315.6010, 25115.00
316.8070, 26747.00
318.0130, 28321.00
319.2200, 29867.00
320.4260, 30618.00
321.6310, 29914.00
322.8370, 28405.00
324.0430, 26596.00
325.2480, 25197.00
326.4540, 23499.00
327.6590, 22559.00
328.8640, 21809.00
330.0680, 21529.00
331.2730, 21167.00
332.4780, 21188.00
333.6820, 21054.00
334.8860, 20870.00
336.0900, 20848.00
337.2940, 20827.00
338.4980, 20842.00
339.7010, 20890.00
340.9050, 20900.00
342.1080, 20954.00
343.3110, 20915.00
344.5140, 21109.00
345.7170, 21479.00
346.9200, 21746.00
348.1220, 22246.00
349.3240, 22814.00
350.5270, 23456.00
351.7290, 24288.00
352.9310, 25253.00
354.1320, 26296.00
355.3340, 27129.00
356.5350, 28202.00
357.7370, 28501.00
358.9380, 28592.00
360.1390, 27349.00
361.3400, 26751.00
362.5400, 25465.00
363.7410, 24494.00
364.9410, 23943.00
366.1410, 23301.00
367.3410, 22994.00
368.5410, 22654.00
369.7410, 22314.00
370.9400, 22146.00
372.1400, 21879.00
373.3390, 21625.00
374.5380, 21697.00
375.7370, 21686.00
376.9360, 21695.00
378.1350, 21362.00
379.3330, 21487.00
380.5310, 21445.00
381.7300, 21410.00
382.9280, 21437.00
384.1260, 21516.00
385.3230, 21379.00
386.5210, 21389.00
387.7180, 21476.00
388.9160, 21679.00
390.1130, 21618.00
391.3100, 21716.00
392.5060, 21787.00
393.7030, 21749.00
394.9000, 21570.00
396.0960, 21567.00
397.2920, 21425.00
398.4880, 21428.00
399.6840, 21702.00
400.8800, 21782.00
402.0750, 21844.19
403.2710, 21786.00
404.4660, 21907.00
405.6610, 21903.00
406.8560, 21833.00
408.0510, 22163.00
409.2450, 22036.00
410.4400, 22524.00
411.6340, 22494.00
412.8280, 22848.00
414.0220, 22911.00
415.2160, 23385.00
416.4100, 23540.00
417.6030, 23734.00
418.7970, 23611.00
419.9900, 23496.00
421.1830, 22977.00
422.3760, 22810.00
423.5690, 22693.00
424.7610, 22452.00
425.9540, 22217.00
427.1460, 22171.23
428.3380, 22336.00
429.5300, 22113.00
430.7220, 22232.00
431.9140, 22351.00
433.1050, 22175.00
434.2970, 22213.00
435.4880, 22340.00
436.6790, 22378.00
437.8700, 22231.00
439.0610, 22643.00
440.2510, 22371.00
441.4420, 22533.00
442.6320, 22682.00
443.8220, 22882.00
445.0120, 23019.17
446.2020, 22965.00
447.3910, 23392.00
448.5810, 23490.00
449.7700, 23827.00
450.9600, 23833.00
452.1490, 23726.00
453.3370, 23379.00
454.5260, 23132.00
455.7150, 23097.00
456.9030, 23068.00
458.0910, 22960.00
459.2800, 23042.00
460.4670, 23272.00
461.6550, 23143.00
462.8430, 23288.00
464.0300, 23150.00
465.2180, 23218.67
466.4050, 23311.00
467.5920, 23344.00
468.7790, 23501.00
469.9650, 23646.00
471.1520, 23628.00
472.3380, 23908.00
473.5250, 23939.00
474.7110, 23966.00
475.8970, 24258.00
477.0820, 24084.00
478.2680, 24453.00
479.4540, 24288.00
480.6390, 24554.00
481.8240, 24681.00
483.0090, 24654.00
484.1940, 24370.00
485.3780, 24488.00
486.5630, 24459.00
487.7470, 24184.00
488.9320, 24308.00
490.1160, 24158.00
491.3000, 24158.00
492.4830, 23956.00
493.6670, 24100.00
494.8500, 24023.00
496.0340, 24042.00
497.2170, 24062.00
498.4000, 24098.00
499.5820, 24196.00
500.7650, 24214.00
501.9480, 24362.00
503.1300, 24267.00
504.3120, 24513.00
505.4940, 24472.00
506.6760, 24568.00
507.8580, 24741.00
509.0390, 24550.00
510.2210, 24925.00
511.4020, 24622.00
512.5830, 24812.00
513.7640, 24961.00
514.9450, 24890.00
516.1250, 24795.00
517.3060, 24982.00
518.4860, 24917.00
519.6660, 25097.00
520.8460, 24970.00
522.0260, 24905.00
523.2060, 24830.00
524.3850, 24962.00
525.5650, 24908.71
526.7440, 24996.68
527.9230, 25071.00
529.1020, 25055.00
530.2810, 25383.00
531.4590, 25203.00
532.6380, 25159.00
533.8160, 25961.00
534.9940, 25389.00
536.1720, 25673.00
537.3500, 25535.00
538.5270, 25582.00
539.7050, 25696.00
540.8820, 25932.00
542.0590, 26018.00
543.2360, 26409.00
544.4130, 26446.00
545.5900, 26926.00
546.7660, 27235.00
547.9430, 27576.00
549.1190, 28134.00
550.2950, 28189.00
551.4710, 28112.00
552.6470, 27907.00
553.8220, 27706.00
554.9980, 27310.00
556.1730, 27210.00
557.3480, 26814.00
558.5230, 26612.00
559.6980, 26426.00
560.8730, 26352.00
562.0470, 26182.00
563.2220, 26124.00
564.3960, 26255.00
565.5700, 26206.00
566.7440, 26209.00
567.9170, 26140.00
569.0910, 26316.00
570.2640, 26398.00
571.4380, 26288.00
572.6110, 26388.00
573.7840, 26353.00
574.9570, 26220.00
576.1290, 26659.00
577.3020, 26389.00
578.4740, 26495.00
579.6460, 26527.00
580.8180, 26523.00
581.9900, 26347.00
583.1620, 26597.00
584.3330, 26536.00
585.5040, 26409.00
586.6760, 26506.00
587.8470, 26578.00
589.0180, 26660.00
590.1880, 26552.00
591.3590, 26727.00
592.5290, 26885.00
593.7000, 26758.00
594.8700, 26855.00
596.0400, 26969.00
597.2090, 26814.00
598.3790, 26887.00
599.5490, 26860.00
600.7180, 27023.00
601.8870, 27171.00
603.0560, 27419.00
604.2250, 27454.50
605.3940, 27406.00
606.5620, 27479.00
607.7300, 27550.00
608.8990, 27388.00
610.0670, 27613.00
611.2350, 27512.00
612.4020, 27630.00
613.5700, 27296.00
614.7370, 27636.00
615.9050, 27508.00
617.0720, 27648.00
618.2390, 27578.00
619.4060, 27573.00
620.5720, 27666.00
621.7390, 27751.00
622.9050, 27680.00
624.0710, 27765.00
625.2370, 27766.00
626.4030, 27730.00
627.5690, 27759.00
628.7340, 27975.00
629.9000, 27866.00
631.0650, 28042.00
632.2300, 27892.00
633.3950, 27987.00
634.5600, 27832.00
635.7240, 28163.00
636.8890, 28283.00
638.0530, 28395.00
639.2170, 28537.04
640.3810, 28398.00
641.5450, 28652.00
642.7080, 28472.00
643.8720, 28448.00
645.0350, 28523.00
646.1980, 28292.00
647.3610, 28410.00
648.5240, 28485.00
649.6870, 28480.00
650.8490, 28591.00
652.0120, 28573.00
653.1740, 28693.00
654.3360, 28566.00
655.4980, 28782.00
656.6600, 29036.00
657.8210, 28755.00
658.9830, 29056.00
660.1440, 29465.00
661.3050, 29300.00
662.4660, 29649.00
663.6270, 29404.00
664.7870, 29525.00
665.9480, 28970.00
667.1080, 29365.00
668.2680, 29055.00
669.4280, 29141.00
670.5880, 29054.00
671.7480, 29093.00
672.9070, 29204.00
674.0670, 29360.00
675.2260, 29175.00
676.3850, 29387.00
677.5440, 29464.00
678.7030, 29382.00
679.8610, 29596.00
681.0200, 29373.00
682.1780, 29371.00
683.3360, 29602.00
684.4940, 29599.00
685.6520, 29721.00
686.8090, 29653.00
687.9670, 29575.00
689.1240, 29924.00
690.2810, 29982.00
691.4380, 29737.00
692.5950, 29825.00
693.7520, 29809.00
694.9080, 29855.00
696.0650, 30039.00
697.2210, 29978.00
698.3770, 30107.00
699.5330, 30204.00
700.6880, 30168.00
701.8440, 30202.00
702.9990, 30236.00
704.1550, 30302.00
705.3100, 30405.54
706.4650, 30499.52
707.6190, 30669.00
708.7740, 30781.00
709.9290, 30944.00
711.0830, 31168.00
712.2370, 31427.00
713.3910, 31465.00
714.5450, 31440.00
715.6980, 31662.00
716.8520, 31556.00
718.0050, 31232.00
719.1580, 31195.00
720.3110, 30981.00
721.4640, 30947.00
722.6170, 30853.00
723.7700, 30713.00
724.9220, 30898.00
726.0740, 30604.00
727.2260, 30373.00
728.3780, 30655.00
729.5300, 30410.00
730.6810, 30438.00
731.8330, 30697.00
732.9840, 30427.00
734.1350, 30810.00
735.2860, 30726.00
736.4370, 30945.00
737.5880, 30949.00
738.7380, 30989.00
739.8880, 30882.00
741.0390, 31161.00
742.1890, 30996.00
743.3380, 31094.00
744.4880, 31252.00
745.6380, 31191.00
746.7870, 31175.00
747.9360, 31366.00
749.0850, 31199.00
750.2340, 31362.00
751.3830, 31565.00
752.5310, 31315.00
753.6800, 31165.00
754.8280, 31322.00
755.9760, 31349.00
757.1240, 31180.00
758.2720, 31369.00
759.4190, 31333.00
760.5670, 31441.00
761.7140, 31417.00
762.8610, 31350.00
764.0080, 31339.00
765.1550, 31341.00
766.3020, 31461.00
767.4480, 31749.00
768.5950, 31385.00
769.7410, 31720.00
770.8870, 31611.00
772.0330, 31534.00
773.1780, 31849.00
774.3240, 31645.00
775.4690, 31903.00
776.6140, 32035.00
777.7590, 31933.00
778.9040, 31907.00
780.0490, 31686.00
781.1940, 32002.00
782.3380, 32245.00
783.4820, 32058.00
784.6260, 32066.00
785.7700, 31985.00
786.9140, 32071.00
788.0580, 32261.00
789.2010, 32291.72
790.3450, 32389.67
791.4880, 32534.00
792.6310, 32545.00
793.7730, 32671.00
794.9160, 32821.00
796.0590, 32720.00
797.2010, 32867.00
798.3430, 32722.00
799.4850, 32764.00
800.6270, 32868.00
801.7690, 32827.00
802.9100, 33030.00
804.0520, 33084.00
805.1930, 33285.00
806.3340, 33050.00
807.4750, 33179.00
808.6160, 33079.00
809.7560, 32879.00
810.8970, 32939.00
812.0370, 32923.00
813.1770, 32851.00
814.3170, 33147.00
815.4570, 32870.00
816.5960, 33168.00
817.7360, 33375.00
818.8750, 33123.00
820.0140, 33125.00
821.1530, 33300.00
822.2920, 33198.00
823.4310, 33200.00
824.5690, 33343.00
825.7070, 33630.00
826.8460, 33748.00
827.9840, 33558.00
829.1220, 33525.00
830.2590, 33641.00
831.3970, 33891.00
832.5340, 33963.00
833.6710, 34192.00
834.8080, 33863.00
835.9450, 34053.00
837.0820, 33750.00
838.2190, 34126.00
839.3550, 33882.00
840.4910, 34002.00
841.6270, 33822.00
842.7630, 33944.00
843.8990, 34139.00
845.0350, 33925.00
846.1700, 33876.00
847.3060, 33972.00
848.4410, 34069.00
849.5760, 33878.00
850.7100, 34050.00
851.8450, 34060.00
852.9800, 34047.00
854.1140, 34060.00
855.2480, 34136.00
856.3820, 34403.00
857.5160, 34410.00
858.6500, 34443.00
859.7830, 34433.00
860.9170, 34721.00
862.0500, 34409.00
863.1830, 34336.00
864.3160, 34742.00
865.4480, 34841.00
866.5810, 34837.00
867.7130, 34598.00
868.8460, 34859.00
869.9780, 34564.00
871.1100, 34923.00
872.2410, 35050.00
873.3730, 34961.00
874.5050, 34938.00
875.6360, 35099.00
876.7670, 35295.00
877.8980, 35193.00
879.0290, 35418.07
880.1590, 35239.00
881.2900, 35623.00
882.4200, 35423.00
883.5500, 35379.00
884.6800, 35375.00
885.8100, 35520.00
886.9400, 35653.00
888.0690, 35787.00
889.1990, 35769.00
890.3280, 35628.00
891.4570, 35905.00
892.5860, 36160.00
893.7140, 36081.00
894.8430, 36288.00
895.9710, 36398.00
897.1000, 36332.00
898.2280, 36806.00
899.3560, 36921.00
900.4830, 37219.00
901.6110, 37586.00
902.7380, 37781.00
903.8660, 37763.00
904.9930, 38366.00
906.1200, 39079.00
907.2460, 39464.00
908.3730, 40503.00
909.5000, 41286.00
910.6260, 43472.00
911.7520, 45487.00
912.8780, 48192.00
914.0040, 51361.00
915.1290, 54821.00
916.2550, 58317.00
917.3800, 61186.00
918.5050, 62143.00
919.6300, 61088.00
920.7550, 58559.00
921.8800, 55087.00
923.0040, 52380.00
924.1290, 50174.00
925.2530, 49110.00
926.3770, 48320.00
927.5010, 47582.00
928.6250, 46629.00
929.7480, 45294.00
930.8720, 44196.00
931.9950, 43364.00
933.1180, 42110.00
934.2410, 41099.00
935.3640, 40757.00
936.4860, 39979.00
937.6090, 39724.00
938.7310, 39335.00
939.8530, 39195.00
940.9750, 39023.00
942.0970, 38985.00
943.2180, 38962.00
944.3400, 38916.00
945.4610, 38895.00
946.5820, 39085.00
947.7030, 39300.00
948.8240, 38860.00
949.9450, 39210.00
951.0650, 39194.00
952.1860, 38841.00
953.3060, 38917.00
954.4260, 38757.00
955.5460, 38354.00
956.6650, 38450.00
957.7850, 38227.00
958.9040, 38090.00
960.0230, 38058.00
961.1420, 38166.00
962.2610, 37846.00
963.3800, 38155.00
964.4990, 38295.00
965.6170, 38163.00
966.7350, 38027.00
967.8530, 37967.00
968.9710, 38241.00
970.0890, 38196.00
971.2070, 38326.00
972.3240, 37976.00
973.4410, 38162.00
974.5580, 38316.00
975.6750, 38049.00
976.7920, 38335.00
977.9090, 38271.00
979.0250, 38625.00
980.1410, 38849.00
981.2580, 38657.00
982.3740, 38561.00
983.4890, 38632.00
984.6050, 38733.00
985.7200, 38770.00
986.8360, 38860.24
987.9510, 38911.00
989.0660, 38961.00
990.1810, 38977.00
991.2950, 38916.00
992.4100, 38942.00
993.5240, 39058.00
994.6390, 38993.00
995.7530, 39170.00
996.8660, 38907.00
997.9800, 39202.00
999.0940, 38971.00
1000.207, 39431.00
1001.320, 39227.00
1002.433, 39425.00
1003.546, 39300.00
1004.659, 39408.00
1005.772, 39318.00
1006.884, 39546.00
1007.996, 39529.00
1009.108, 39865.00
1010.220, 40029.00
1011.332, 40135.00
1012.444, 40294.00
1013.555, 40594.61
1014.666, 40818.22
1015.777, 41136.00
1016.888, 41511.00
1017.999, 41551.00
1019.110, 42066.00
1020.220, 41521.00
1021.331, 41207.00
1022.441, 41268.00
1023.551, 41273.00
1024.661, 41026.00
1025.770, 40993.00
1026.880, 41054.00
1027.989, 40688.00
1029.098, 40831.00
1030.207, 40525.00
1031.316, 40488.00
1032.425, 40602.00
1033.533, 40580.00
1034.642, 40667.00
1035.750, 40645.00
1036.858, 40559.00
1037.966, 40449.00
1039.073, 40511.66
1040.181, 40511.72
1041.288, 40636.00
1042.396, 40701.00
1043.503, 40811.00
1044.610, 40830.96
1045.716, 41020.00
1046.823, 40874.00
1047.929, 40970.00
1049.036, 41043.00
1050.142, 41346.00
1051.248, 41531.00
1052.353, 41431.00
1053.459, 41621.00
1054.564, 41775.00
1055.670, 41817.00
1056.775, 42209.00
1057.880, 42467.00
1058.985, 42930.00
1060.089, 43761.00
1061.194, 44135.00
1062.298, 44786.00
1063.402, 45127.00
1064.506, 45488.00
1065.610, 45094.00
1066.713, 44455.00
1067.817, 43982.00
1068.920, 43487.00
1070.023, 43265.00
1071.126, 42892.00
1072.229, 42751.00
1073.332, 42559.32
1074.435, 42239.00
1075.537, 42296.00
1076.639, 42188.00
1077.741, 42065.00
1078.843, 42284.00
1079.945, 42083.00
1081.046, 42564.00
1082.148, 42419.00
1083.249, 42283.00
1084.350, 42467.00
1085.451, 42771.00
1086.551, 42647.00
1087.652, 42585.00
1088.752, 42403.00
1089.853, 42517.00
1090.953, 42483.00
1092.053, 42365.00
1093.152, 42412.00
1094.252, 42345.00
1095.351, 42435.00
1096.451, 42616.00
1097.550, 42596.00
1098.649, 42636.00
1099.748, 42537.00
1100.846, 42868.00
1101.945, 42701.00
1103.043, 43146.00
1104.141, 43242.00
1105.239, 43030.00
1106.337, 42972.00
1107.434, 43579.00
1108.532, 43526.00
1109.629, 43483.00
1110.726, 43553.00
1111.823, 43306.00
1112.920, 43386.00
1114.017, 43308.00
1115.113, 43638.00
1116.210, 43652.00
1117.306, 43694.00
1118.402, 43650.00
1119.498, 43650.00
1120.593, 43566.00
1121.689, 43998.00
1122.784, 43695.00
1123.879, 43942.00
1124.974, 43761.00
1126.069, 43805.00
1127.164, 43818.00
1128.259, 43605.00
1129.353, 43666.00
1130.447, 43503.00
1131.541, 43526.00
1132.635, 43607.00
1133.729, 43561.02
1134.822, 43604.00
1135.916, 43695.00
1137.009, 43704.00
1138.102, 43933.00
1139.195, 43934.00
1140.288, 44003.00
1141.380, 43785.00
1142.473, 44114.00
1143.565, 43581.00
1144.657, 44047.00
1145.749, 44260.00
1146.841, 44174.00
1147.932, 43887.00
1149.024, 43914.00
1150.115, 44304.00
1151.206, 44168.00
1152.297, 44398.00
1153.388, 44424.00
1154.479, 44283.00
1155.569, 44184.00
1156.659, 44279.00
1157.750, 44265.00
1158.839, 44427.00
1159.929, 44376.00
1161.019, 44516.00
1162.108, 44694.00
1163.198, 44350.00
1164.287, 44699.00
1165.376, 44804.00
1166.465, 44998.00
1167.553, 44568.00
1168.642, 44895.00
1169.730, 44903.00
1170.818, 45149.00
1171.906, 44999.00
1172.994, 44974.00
1174.082, 44958.00
1175.170, 45130.00
1176.257, 44976.00
1177.344, 45235.00
1178.431, 45213.00
1179.518, 45399.00
1180.605, 45075.00
1181.691, 45557.00
1182.778, 45357.00
1183.864, 45455.00
1184.950, 45531.00
1186.036, 45560.00
1187.122, 45732.00
1188.207, 45606.00
1189.292, 45873.00
1190.378, 45836.00
1191.463, 45754.00
1192.548, 45825.00
1193.632, 45858.20
1194.717, 46016.00
1195.801, 45978.00
1196.886, 46133.00
1197.970, 46072.00
1199.054, 46041.00
1200.137, 46214.00
1201.221, 45993.00
1202.305, 46100.00
1203.388, 46423.00
1204.471, 46266.00
1205.554, 46140.00
1206.637, 46067.00
1207.719, 46370.00
1208.802, 46348.00
1209.884, 46563.00
1210.966, 46497.00
1212.048, 46646.00
1213.130, 46526.00
1214.212, 46494.00
1215.293, 46652.00
1216.374, 46783.00
1217.456, 46932.00
1218.536, 46936.26
1219.617, 46926.89
1220.698, 46883.00
1221.778, 46813.00
1222.859, 46728.00
1223.939, 46756.00
1225.019, 47182.00
1226.099, 47196.00
1227.178, 47239.00
1228.258, 47264.00
1229.337, 47253.10
1230.417, 47392.00
1231.496, 47217.00
1232.574, 47456.00
1233.653, 47445.00
1234.732, 47327.00
1235.810, 47309.00
1236.888, 47532.00
1237.966, 47708.00
1239.044, 47590.00
1240.122, 47519.00
1241.199, 47746.00
1242.277, 47541.00
1243.354, 47625.00
1244.431, 47906.00
1245.508, 48008.00
1246.585, 48027.00
1247.661, 47881.00
1248.738, 47984.00
1249.814, 48028.00
1250.890, 48090.00
1251.966, 48082.43
1253.042, 48006.00
1254.117, 48065.00
1255.193, 48157.00
1256.268, 48237.00
1257.343, 48301.00
1258.418, 48323.00
1259.493, 48380.00
1260.567, 48382.28
1261.642, 48350.00
1262.716, 48396.00
1263.790, 48441.42
1264.864, 48487.00
1265.938, 48516.00
1267.011, 48392.00
1268.085, 48384.00
1269.158, 48526.00
1270.231, 48440.42
1271.304, 48738.00
1272.377, 48504.00
1273.450, 48703.00
1274.522, 48893.00
1275.594, 48903.00
1276.666, 49023.42
1277.738, 49038.00
1278.810, 49098.00
1279.882, 49194.00
1280.953, 49215.54
1282.025, 49172.29
1283.096, 49133.00
1284.167, 49012.00
1285.238, 48890.00
1286.308, 48790.00
1287.379, 49588.00
1288.449, 49184.00
1289.519, 49324.00
1290.589, 49497.00
1291.659, 49289.00
1292.729, 49531.00
1293.798, 49550.00
1294.868, 49307.00
1295.937, 49708.00
1297.006, 49695.00
1298.075, 49902.00
1299.143, 50005.00
1300.212, 50026.00
1301.280, 49916.00
1302.348, 49731.00
1303.416, 49997.00
1304.484, 50003.00
1305.552, 49997.00
1306.620, 49719.00
1307.687, 49954.00
1308.754, 50081.00
1309.821, 50502.00
1310.888, 49956.00
1311.955, 50360.00
1313.021, 50230.00
1314.088, 50569.00
1315.154, 50555.00
1316.220, 50531.00
1317.286, 50690.14
1318.352, 50679.00
1319.417, 50730.00
1320.483, 50594.00
1321.548, 50427.00
1322.613, 50552.00
1323.678, 50765.00
1324.743, 50528.00
1325.807, 50987.00
1326.872, 50969.00
1327.936, 50883.00
1329.000, 51061.00
1330.064, 51066.39
1331.128, 50959.00
1332.191, 51155.00
1333.255, 51045.00
1334.318, 50868.00
1335.381, 51177.00
1336.444, 50859.00
1337.507, 51211.00
1338.569, 51340.00
1339.632, 51182.00
1340.694, 51268.00
1341.756, 51321.00
1342.818, 51255.54
1343.880, 51334.00
1344.941, 51215.00
1346.003, 51363.00
1347.064, 51336.00
1348.125, 51604.00
1349.186, 51350.00
1350.247, 51666.00
1351.308, 51644.00
1352.368, 51432.00
1353.428, 51860.00
1354.489, 51710.00
1355.549, 51617.00
1356.608, 51675.00
1357.668, 51600.00
1358.727, 51844.00
1359.787, 51506.00
1360.846, 51862.00
1361.905, 51857.00
1362.964, 51647.00
1364.022, 51870.00
1365.081, 51796.00
1366.139, 51748.00
1367.197, 51603.00
1368.255, 52044.00
1369.313, 51873.00
1370.371, 51768.00
1371.428, 52116.00
1372.486, 52029.00
1373.543, 52279.00
1374.600, 52129.00
1375.657, 51923.00
1376.713, 51917.00
1377.770, 51940.74
1378.826, 52398.00
1379.882, 52153.00
1380.938, 52257.00
1381.994, 52354.00
1383.050, 52081.00
1384.106, 52367.00
1385.161, 52546.00
1386.216, 52158.00
1387.271, 52238.00
1388.326, 52245.00
1389.381, 52502.00
1390.435, 52403.00
1391.490, 52442.00
1392.544, 52535.00
1393.598, 52473.00
1394.652, 52521.00
1395.705, 52561.60
1396.759, 52566.00
1397.812, 52605.00
1398.866, 52814.00
1399.919, 52760.00
1400.972, 52956.00
1402.024, 52767.00
1403.077, 52937.00
1404.129, 52976.00
1405.181, 52951.00
1406.233, 52995.00
1407.285, 53060.00
1408.337, 53215.00
1409.389, 53384.00
1410.440, 53277.00
1411.491, 53320.00
1412.542, 52965.00
1413.593, 53063.00
1414.644, 53023.00
1415.695, 53247.00
1416.745, 53426.00
1417.795, 53463.00
1418.845, 53505.00
1419.895, 53593.00
1420.945, 53585.64
1421.995, 53620.00
1423.044, 53486.00
1424.093, 53572.98
1425.142, 53528.00
1426.191, 53671.00
1427.240, 53728.00
1428.289, 53794.00
1429.337, 53986.00
1430.385, 53738.00
1431.433, 53621.00
1432.481, 54076.00
1433.529, 53845.00
1434.577, 53956.00
1435.624, 54205.00
1436.672, 54112.00
1437.719, 54100.00
1438.766, 53960.00
1439.812, 54397.00
1440.859, 54019.00
1441.905, 54286.00
1442.952, 54404.00
1443.998, 54347.00
1445.044, 54250.00
1446.090, 54451.00
1447.135, 54578.00
1448.181, 54464.00
1449.226, 54721.00
1450.271, 54451.00
1451.316, 54830.00
1452.361, 54481.00
1453.405, 54590.00
1454.450, 54670.00
1455.494, 54945.00
1456.538, 54769.00
1457.582, 54630.00
1458.626, 54699.00
1459.670, 55019.00
1460.713, 54972.00
1461.757, 54894.00
1462.800, 54806.00
1463.843, 55136.00
1464.886, 55048.00
1465.928, 55097.00
1466.971, 54831.00
1468.013, 55316.00
1469.055, 55545.00
1470.097, 55267.00
1471.139, 55556.00
1472.181, 55525.00
1473.222, 55395.00
1474.263, 55772.00
1475.305, 55432.00
1476.346, 55666.00
1477.386, 55418.00
1478.427, 55789.00
1479.468, 55748.00
1480.508, 55578.00
1481.548, 55626.00
1482.588, 55956.00
1483.628, 55867.00
1484.668, 56055.00
1485.707, 55954.00
1486.747, 56025.00
1487.786, 56105.00
1488.825, 56173.00
1489.864, 56082.00
1490.902, 56536.00
1491.941, 56115.00
1492.979, 56187.00
1494.017, 55872.00
1495.055, 56482.00
1496.093, 56283.00
1497.131, 56175.00
1498.168, 56602.00
1499.206, 56622.00
1500.243, 56478.00
1501.280, 56605.00
1502.317, 56724.00
1503.354, 56853.00
1504.390, 56491.00
1505.426, 56770.00
1506.463, 56520.00
1507.499, 56903.00
1508.535, 56821.00
1509.570, 57129.00
1510.606, 57014.00
1511.641, 56989.00
1512.676, 57134.00
1513.711, 57084.00
1514.746, 56836.00
1515.781, 56792.00
1516.816, 56904.84
1517.850, 57305.00
1518.884, 57207.00
1519.918, 57345.00
1520.952, 57421.00
1521.986, 57699.00
1523.019, 57637.00
1524.053, 57623.00
1525.086, 57693.00
1526.119, 57586.00
1527.152, 57605.00
1528.185, 57707.00
1529.217, 57769.00
1530.250, 58031.00
1531.282, 57643.00
1532.314, 57541.00
1533.346, 57878.00
1534.377, 57788.00
1535.409, 57988.00
1536.440, 58319.00
1537.472, 58220.00
1538.503, 58111.00
1539.534, 58047.00
1540.564, 58291.00
1541.595, 58417.00
1542.625, 58280.00
1543.656, 58659.00
1544.686, 58341.00
1545.716, 58283.00
1546.745, 58285.00
1547.775, 58385.00
1548.804, 58435.04
1549.834, 58687.00
1550.863, 58593.00
1551.892, 58980.00
1552.920, 58939.00
1553.949, 58809.00
1554.977, 59321.00
1556.006, 58998.00
1557.034, 58988.00
1558.062, 59177.00
1559.089, 58787.00
1560.117, 59192.00
1561.144, 59099.00
1562.172, 58994.00
1563.199, 59256.00
1564.226, 59105.00
1565.252, 59559.00
1566.279, 59456.00
1567.305, 59289.00
1568.332, 59680.00
1569.358, 59462.00
1570.384, 59925.00
##END=



