##NAMES=Andalusite
##RRUFFID=R050449
##IDEAL CHEMISTRY=Al_2_SiO_5_
##LOCALITY=Itinga, Minas Gerais, Brazil
##OWNER=RRUFF
##SOURCE=Marcus Origlieri
##DESCRIPTION=Green fragment
##STATUS=The identification of this mineral has been confirmed by X-ray diffraction and chemical analysis
##URL=rruff.info/R050449
##MEASURED CHEMISTRY=Al_2.00_Fe^3+^_0.01_Si_0.99_O_5_
##PIN_ID=L01352
##ORIENTATION=Laser parallel to -c* (0 0 -1). Fiducial mark perpendicular to laser is parallel to a [1 0 0]
92.24600, 4177.000
93.48000, 4365.000
94.71400, 4358.000
95.94800, 4458.000
97.18200, 4350.000
98.41600, 4319.000
99.64900, 4302.000
100.8830, 4383.000
102.1160, 4419.000
103.3490, 4367.000
104.5820, 4370.000
105.8150, 4439.000
107.0470, 4631.000
108.2800, 5063.000
109.5120, 5397.000
110.7440, 5840.000
111.9760, 5408.000
113.2080, 4980.000
114.4400, 5019.000
115.6710, 5196.000
116.9030, 5323.000
118.1340, 5352.000
119.3650, 5291.000
120.5960, 5152.000
121.8270, 5053.000
123.0580, 5018.000
124.2880, 5003.160
125.5190, 5024.809
126.7490, 5076.000
127.9790, 5135.000
129.2090, 5189.000
130.4390, 5233.000
131.6680, 5298.164
132.8980, 5405.000
134.1270, 5411.000
135.3560, 5438.000
136.5850, 5471.000
137.8140, 5596.000
139.0430, 5703.000
140.2710, 5897.000
141.5000, 5969.000
142.7280, 5904.000
143.9560, 5846.000
145.1840, 5679.000
146.4120, 5583.000
147.6390, 5573.000
148.8670, 5493.000
150.0940, 5424.000
151.3210, 5420.000
152.5490, 5491.000
153.7750, 5656.000
155.0020, 5537.000
156.2290, 5581.000
157.4550, 5484.000
158.6810, 5505.000
159.9080, 5427.000
161.1340, 5371.000
162.3590, 5384.000
163.5850, 5444.000
164.8110, 5601.000
166.0360, 5712.000
167.2610, 5756.000
168.4860, 5740.000
169.7110, 5767.000
170.9360, 5762.000
172.1610, 5816.000
173.3850, 5808.000
174.6100, 5794.527
175.8340, 5850.000
177.0580, 5859.000
178.2820, 5897.726
179.5050, 6079.000
180.7290, 6005.406
181.9520, 6051.788
183.1760, 6155.000
184.3990, 6080.000
185.6220, 6358.000
186.8450, 6462.000
188.0670, 6670.000
189.2900, 6933.000
190.5120, 7169.000
191.7340, 7196.000
192.9560, 7167.000
194.1780, 7069.000
195.4000, 7203.000
196.6220, 7228.000
197.8430, 7293.000
199.0640, 7311.000
200.2860, 7311.000
201.5070, 7450.000
202.7270, 7706.000
203.9480, 7866.000
205.1690, 7828.000
206.3890, 7309.000
207.6090, 6945.000
208.8290, 6693.000
210.0490, 6515.000
211.2690, 6411.000
212.4890, 6409.000
213.7080, 6521.000
214.9280, 6569.000
216.1470, 6637.000
217.3660, 6621.000
218.5850, 6579.000
219.8030, 6593.000
221.0220, 6575.000
222.2400, 6608.474
223.4590, 6620.000
224.6770, 6709.000
225.8950, 6700.000
227.1120, 6778.000
228.3300, 6746.000
229.5480, 6822.000
230.7650, 6684.000
231.9820, 6803.000
233.1990, 6707.000
234.4160, 6736.000
235.6330, 6764.000
236.8490, 6852.000
238.0660, 7062.000
239.2820, 7237.000
240.4980, 7390.000
241.7140, 7233.000
242.9300, 7347.000
244.1460, 7258.000
245.3610, 7156.000
246.5770, 7206.000
247.7920, 7120.000
249.0070, 6991.000
250.2220, 6975.000
251.4370, 6952.000
252.6510, 7030.000
253.8660, 6941.000
255.0800, 6844.000
256.2940, 6948.000
257.5080, 6881.000
258.7220, 6881.000
259.9360, 7083.000
261.1490, 7267.000
262.3630, 7200.000
263.5760, 7089.000
264.7890, 7026.000
266.0020, 6996.000
267.2150, 7195.000
268.4270, 7089.000
269.6400, 7199.000
270.8520, 7368.000
272.0640, 7417.000
273.2760, 7443.000
274.4880, 7706.000
275.7000, 7945.000
276.9120, 8229.000
278.1230, 8335.000
279.3340, 8695.000
280.5450, 9222.000
281.7560, 9921.000
282.9670, 10848.00
284.1780, 12080.00
285.3880, 13470.00
286.5980, 15541.00
287.8090, 18039.00
289.0190, 20935.00
290.2290, 24100.00
291.4380, 25579.00
292.6480, 24638.00
293.8570, 21969.00
295.0670, 18562.00
296.2760, 15523.00
297.4850, 13179.00
298.6930, 11505.00
299.9020, 10290.00
301.1110, 9389.000
302.3190, 8653.000
303.5270, 8254.000
304.7350, 7979.000
305.9430, 7781.000
307.1510, 7611.000
308.3580, 7619.000
309.5660, 7822.000
310.7730, 8436.000
311.9800, 9026.000
313.1870, 9929.000
314.3940, 10845.00
315.6010, 12485.00
316.8070, 14588.00
318.0130, 17897.00
319.2200, 21403.00
320.4260, 24173.00
321.6310, 24213.00
322.8370, 21846.00
324.0430, 18831.00
325.2480, 16003.00
326.4540, 13031.00
327.6590, 11423.00
328.8640, 10274.00
330.0680, 9472.000
331.2730, 8970.000
332.4780, 8761.000
333.6820, 8638.000
334.8860, 8449.000
336.0900, 8352.000
337.2940, 8298.000
338.4980, 8291.000
339.7010, 8337.000
340.9050, 8430.000
342.1080, 8436.000
343.3110, 8621.000
344.5140, 8760.000
345.7170, 9018.000
346.9200, 9305.000
348.1220, 9663.000
349.3240, 10154.00
350.5270, 11162.00
351.7290, 12198.00
352.9310, 13574.00
354.1320, 15437.00
355.3340, 17381.00
356.5350, 19583.00
357.7370, 21080.00
358.9380, 21235.00
360.1390, 20989.00
361.3400, 19273.00
362.5400, 17561.00
363.7410, 15747.00
364.9410, 14522.00
366.1410, 13355.00
367.3410, 12689.00
368.5410, 11955.00
369.7410, 11616.00
370.9400, 11295.00
372.1400, 11118.00
373.3390, 10843.00
374.5380, 10570.00
375.7370, 10523.00
376.9360, 10365.00
378.1350, 10037.00
379.3330, 9967.000
380.5310, 9850.000
381.7300, 9867.000
382.9280, 9882.000
384.1260, 9844.000
385.3230, 10131.00
386.5210, 10056.00
387.7180, 10236.00
388.9160, 10227.00
390.1130, 10566.00
391.3100, 10737.00
392.5060, 10754.00
393.7030, 10553.00
394.9000, 10488.00
396.0960, 10317.00
397.2920, 10151.00
398.4880, 10024.00
399.6840, 9873.000
400.8800, 9784.000
402.0750, 9926.000
403.2710, 9837.000
404.4660, 9974.000
405.6610, 10083.00
406.8560, 10058.00
408.0510, 10215.00
409.2450, 10204.00
410.4400, 10342.00
411.6340, 10372.00
412.8280, 10575.00
414.0220, 10702.00
415.2160, 11130.00
416.4100, 11419.00
417.6030, 11768.00
418.7970, 11739.00
419.9900, 11536.00
421.1830, 11095.00
422.3760, 10781.00
423.5690, 10350.00
424.7610, 10164.00
425.9540, 9952.000
427.1460, 9843.000
428.3380, 9730.000
429.5300, 9614.000
430.7220, 9537.000
431.9140, 9402.000
433.1050, 9327.000
434.2970, 9222.000
435.4880, 9281.000
436.6790, 9354.000
437.8700, 9393.000
439.0610, 9577.000
440.2510, 9628.000
441.4420, 9798.000
442.6320, 9918.000
443.8220, 10179.00
445.0120, 10130.00
446.2020, 10326.00
447.3910, 10398.00
448.5810, 10423.00
449.7700, 10564.00
450.9600, 10737.00
452.1490, 10618.00
453.3370, 10361.00
454.5260, 9985.000
455.7150, 9519.000
456.9030, 9306.000
458.0910, 9187.000
459.2800, 9172.000
460.4670, 8937.000
461.6550, 8718.000
462.8430, 8730.000
464.0300, 8672.000
465.2180, 8781.000
466.4050, 8694.000
467.5920, 8713.000
468.7790, 8617.000
469.9650, 8589.000
471.1520, 8574.000
472.3380, 8563.000
473.5250, 8670.000
474.7110, 8715.000
475.8970, 8824.000
477.0820, 8869.000
478.2680, 8963.000
479.4540, 8974.000
480.6390, 9073.000
481.8240, 9022.000
483.0090, 9106.000
484.1940, 9060.000
485.3780, 9040.000
486.5630, 9050.000
487.7470, 8978.000
488.9320, 9085.000
490.1160, 9115.000
491.3000, 9082.000
492.4830, 9333.000
493.6670, 9273.102
494.8500, 9301.000
496.0340, 9354.000
497.2170, 9640.000
498.4000, 9787.000
499.5820, 9934.000
500.7650, 10168.00
501.9480, 10220.00
503.1300, 10444.00
504.3120, 10486.00
505.4940, 10862.00
506.6760, 10892.00
507.8580, 11165.69
509.0390, 11224.00
510.2210, 11586.00
511.4020, 11605.00
512.5830, 11651.00
513.7640, 11612.00
514.9450, 11720.00
516.1250, 11500.00
517.3060, 11457.00
518.4860, 11477.00
519.6660, 11444.00
520.8460, 11440.00
522.0260, 11517.00
523.2060, 11553.00
524.3850, 11596.00
525.5650, 11605.00
526.7440, 11741.00
527.9230, 11654.00
529.1020, 11887.00
530.2810, 12006.00
531.4590, 12253.00
532.6380, 12471.00
533.8160, 12693.00
534.9940, 12996.00
536.1720, 13309.00
537.3500, 13745.00
538.5270, 13986.00
539.7050, 14525.00
540.8820, 14899.00
542.0590, 15321.00
543.2360, 15782.00
544.4130, 16304.00
545.5900, 16738.00
546.7660, 17226.51
547.9430, 17517.00
549.1190, 18164.00
550.2950, 18605.00
551.4710, 19057.00
552.6470, 18996.00
553.8220, 18656.00
554.9980, 18040.00
556.1730, 17603.00
557.3480, 17026.00
558.5230, 16758.00
559.6980, 16269.00
560.8730, 15985.00
562.0470, 15607.00
563.2220, 15375.00
564.3960, 15408.00
565.5700, 15434.00
566.7440, 15327.00
567.9170, 15491.00
569.0910, 15380.00
570.2640, 15651.00
571.4380, 15563.00
572.6110, 15556.00
573.7840, 15314.00
574.9570, 15302.00
576.1290, 15135.00
577.3020, 14875.00
578.4740, 14809.00
579.6460, 14242.00
580.8180, 14149.00
581.9900, 13777.00
583.1620, 13495.00
584.3330, 13350.00
585.5040, 13031.00
586.6760, 13090.00
587.8470, 12752.00
589.0180, 12704.00
590.1880, 12487.00
591.3590, 12404.00
592.5290, 12434.00
593.7000, 12255.00
594.8700, 12260.00
596.0400, 12106.00
597.2090, 12214.00
598.3790, 12226.00
599.5490, 12287.00
600.7180, 12217.00
601.8870, 12321.00
603.0560, 12533.00
604.2250, 12623.00
605.3940, 12822.00
606.5620, 13086.00
607.7300, 13299.00
608.8990, 13554.25
610.0670, 13841.00
611.2350, 14095.00
612.4020, 14329.00
613.5700, 14655.00
614.7370, 14757.00
615.9050, 14992.00
617.0720, 15443.00
618.2390, 15438.00
619.4060, 15667.00
620.5720, 15732.00
621.7390, 15755.00
622.9050, 15827.00
624.0710, 15935.21
625.2370, 16087.00
626.4030, 16184.00
627.5690, 16345.00
628.7340, 16478.00
629.9000, 16511.00
631.0650, 16608.00
632.2300, 16618.00
633.3950, 16666.00
634.5600, 16488.00
635.7240, 16489.00
636.8890, 16161.00
638.0530, 16199.00
639.2170, 15990.00
640.3810, 15651.00
641.5450, 15595.00
642.7080, 15575.00
643.8720, 15376.00
645.0350, 15520.00
646.1980, 15138.00
647.3610, 15221.00
648.5240, 15180.00
649.6870, 14960.00
650.8490, 14697.00
652.0120, 14143.00
653.1740, 13689.00
654.3360, 13274.00
655.4980, 12637.00
656.6600, 12357.00
657.8210, 12147.00
658.9830, 11799.00
660.1440, 11708.00
661.3050, 11586.00
662.4660, 11353.00
663.6270, 11044.00
664.7870, 10771.00
665.9480, 10348.00
667.1080, 9823.000
668.2680, 9819.000
669.4280, 9475.000
670.5880, 9417.000
671.7480, 9272.000
672.9070, 9154.000
674.0670, 9128.000
675.2260, 9120.000
676.3850, 9063.000
677.5440, 9129.000
678.7030, 8938.000
679.8610, 8845.000
681.0200, 8833.000
682.1780, 8929.000
683.3360, 8874.000
684.4940, 8873.000
685.6520, 8828.000
686.8090, 8853.000
687.9670, 8911.000
689.1240, 8835.000
690.2810, 8847.000
691.4380, 8891.000
692.5950, 8964.000
693.7520, 9022.000
694.9080, 9078.000
696.0650, 9055.000
697.2210, 9105.727
698.3770, 9155.000
699.5330, 9150.000
700.6880, 9258.000
701.8440, 9296.000
702.9990, 9325.000
704.1550, 9386.000
705.3100, 9498.000
706.4650, 9491.000
707.6190, 9741.000
708.7740, 9867.000
709.9290, 9820.000
711.0830, 9936.000
712.2370, 10296.00
713.3910, 10400.00
714.5450, 10603.00
715.6980, 10898.00
716.8520, 10760.00
718.0050, 10716.00
719.1580, 10571.00
720.3110, 10243.00
721.4640, 10039.00
722.6170, 9644.000
723.7700, 9317.000
724.9220, 9209.000
726.0740, 9214.000
727.2260, 8978.000
728.3780, 9033.000
729.5300, 8951.000
730.6810, 8995.000
731.8330, 9086.000
732.9840, 9000.000
734.1350, 9185.000
735.2860, 9051.000
736.4370, 9182.000
737.5880, 9119.000
738.7380, 9151.000
739.8880, 9074.000
741.0390, 9059.000
742.1890, 8987.000
743.3380, 8954.000
744.4880, 8902.000
745.6380, 8848.000
746.7870, 8912.000
747.9360, 8910.000
749.0850, 8897.000
750.2340, 8902.000
751.3830, 8898.000
752.5310, 8988.000
753.6800, 8948.000
754.8280, 8969.000
755.9760, 8960.000
757.1240, 8923.000
758.2720, 9041.000
759.4190, 8950.000
760.5670, 8991.000
761.7140, 8726.000
762.8610, 8920.000
764.0080, 8782.000
765.1550, 8751.000
766.3020, 8776.000
767.4480, 8754.000
768.5950, 8762.747
769.7410, 8745.000
770.8870, 8806.000
772.0330, 8777.000
773.1780, 8854.000
774.3240, 8818.000
775.4690, 8953.000
776.6140, 8978.000
777.7590, 8971.000
778.9040, 9110.000
780.0490, 9100.000
781.1940, 9077.000
782.3380, 9160.000
783.4820, 9307.000
784.6260, 9272.000
785.7700, 9467.000
786.9140, 9450.000
788.0580, 9445.000
789.2010, 9588.000
790.3450, 9721.000
791.4880, 9828.000
792.6310, 9826.000
793.7730, 10004.00
794.9160, 10169.00
796.0590, 10278.00
797.2010, 10585.00
798.3430, 10620.00
799.4850, 10890.00
800.6270, 11166.00
801.7690, 11328.00
802.9100, 11660.00
804.0520, 12023.00
805.1930, 12565.00
806.3340, 12817.00
807.4750, 13389.00
808.6160, 13867.00
809.7560, 14156.00
810.8970, 14748.00
812.0370, 15312.00
813.1770, 16164.00
814.3170, 16851.00
815.4570, 17773.00
816.5960, 18420.00
817.7360, 19069.00
818.8750, 19479.00
820.0140, 19812.00
821.1530, 19852.00
822.2920, 19584.00
823.4310, 18864.00
824.5690, 18365.00
825.7070, 17460.00
826.8460, 16644.00
827.9840, 16011.00
829.1220, 15131.00
830.2590, 14465.00
831.3970, 13896.00
832.5340, 13566.00
833.6710, 13071.00
834.8080, 12558.00
835.9450, 12303.00
837.0820, 11856.00
838.2190, 11575.00
839.3550, 11005.00
840.4910, 10754.00
841.6270, 10437.00
842.7630, 10149.00
843.8990, 9816.000
845.0350, 9730.000
846.1700, 9569.000
847.3060, 9550.000
848.4410, 9282.000
849.5760, 9187.000
850.7100, 9124.000
851.8450, 9042.000
852.9800, 8987.000
854.1140, 8929.000
855.2480, 8989.000
856.3820, 8743.000
857.5160, 8977.000
858.6500, 8786.000
859.7830, 8840.000
860.9170, 8841.000
862.0500, 8835.000
863.1830, 8869.000
864.3160, 8918.000
865.4480, 8986.000
866.5810, 8968.000
867.7130, 9045.000
868.8460, 9063.000
869.9780, 9126.000
871.1100, 9177.000
872.2410, 9195.000
873.3730, 9231.000
874.5050, 9275.000
875.6360, 9363.000
876.7670, 9384.000
877.8980, 9390.440
879.0290, 9385.000
880.1590, 9387.000
881.2900, 9398.000
882.4200, 9451.000
883.5500, 9539.000
884.6800, 9665.000
885.8100, 9785.000
886.9400, 9792.000
888.0690, 9862.000
889.1990, 10022.00
890.3280, 10181.00
891.4570, 10247.00
892.5860, 10302.00
893.7140, 10631.00
894.8430, 10819.00
895.9710, 11101.00
897.1000, 11400.00
898.2280, 11659.00
899.3560, 12111.00
900.4830, 12527.10
901.6110, 13154.00
902.7380, 13621.00
903.8660, 14146.00
904.9930, 14922.00
906.1200, 15437.00
907.2460, 16458.00
908.3730, 17658.00
909.5000, 19236.00
910.6260, 20956.00
911.7520, 23119.00
912.8780, 25834.00
914.0040, 29298.00
915.1290, 33877.00
916.2550, 39199.00
917.3800, 45005.00
918.5050, 49467.00
919.6300, 50465.00
920.7550, 47899.00
921.8800, 43038.00
923.0040, 38000.00
924.1290, 33828.00
925.2530, 31402.00
926.3770, 29727.00
927.5010, 28181.00
928.6250, 26719.00
929.7480, 25004.00
930.8720, 23003.00
931.9950, 21002.00
933.1180, 19327.00
934.2410, 17898.00
935.3640, 16725.00
936.4860, 15890.00
937.6090, 15052.00
938.7310, 14521.00
939.8530, 14114.00
940.9750, 13678.00
942.0970, 13332.00
943.2180, 13228.00
944.3400, 12751.00
945.4610, 12888.00
946.5820, 12935.00
947.7030, 12818.00
948.8240, 12726.00
949.9450, 12771.00
951.0650, 12453.00
952.1860, 12543.00
953.3060, 12351.00
954.4260, 12318.00
955.5460, 12149.00
956.6650, 11776.00
957.7850, 11691.00
958.9040, 11643.00
960.0230, 11392.00
961.1420, 11539.00
962.2610, 11521.00
963.3800, 11401.00
964.4990, 11454.00
965.6170, 11544.00
966.7350, 11407.00
967.8530, 11379.00
968.9710, 11589.00
970.0890, 11627.00
971.2070, 11527.00
972.3240, 11761.00
973.4410, 11939.00
974.5580, 11908.00
975.6750, 11930.00
976.7920, 12001.00
977.9090, 12025.00
979.0250, 12056.00
980.1410, 12069.10
981.2580, 12055.22
982.3740, 12073.00
983.4890, 12023.00
984.6050, 12035.00
985.7200, 12055.00
986.8360, 12100.03
987.9510, 12221.00
989.0660, 12312.00
990.1810, 12398.00
991.2950, 12647.00
992.4100, 12721.00
993.5240, 12880.00
994.6390, 13251.00
995.7530, 13703.00
996.8660, 14026.00
997.9800, 14816.00
999.0940, 15577.00
1000.207, 16684.00
1001.320, 17838.00
1002.433, 19087.00
1003.546, 20339.00
1004.659, 21434.00
1005.772, 21546.00
1006.884, 21428.00
1007.996, 20494.00
1009.108, 19028.00
1010.220, 18148.00
1011.332, 16775.00
1012.444, 15909.00
1013.555, 15397.00
1014.666, 15027.00
1015.777, 14636.00
1016.888, 14527.00
1017.999, 14480.00
1019.110, 14561.00
1020.220, 14340.00
1021.331, 14008.00
1022.441, 14025.00
1023.551, 13710.00
1024.661, 13529.00
1025.770, 13300.00
1026.880, 13264.00
1027.989, 12906.00
1029.098, 12904.00
1030.207, 12967.00
1031.316, 12814.00
1032.425, 12678.00
1033.533, 12626.00
1034.642, 12620.00
1035.750, 12616.00
1036.858, 12505.00
1037.966, 12662.00
1039.073, 12847.00
1040.181, 12588.00
1041.288, 12566.00
1042.396, 12259.00
1043.503, 12338.00
1044.610, 12047.00
1045.716, 11982.00
1046.823, 12052.00
1047.929, 12060.00
1049.036, 11899.00
1050.142, 11924.00
1051.248, 11913.00
1052.353, 11808.00
1053.459, 11826.00
1054.564, 11989.00
1055.670, 12033.00
1056.775, 12391.00
1057.880, 12525.00
1058.985, 12834.00
1060.089, 13725.00
1061.194, 13901.00
1062.298, 14517.00
1063.402, 15010.00
1064.506, 15331.00
1065.610, 15076.00
1066.713, 14879.00
1067.817, 14334.00
1068.920, 13802.00
1070.023, 13419.00
1071.126, 13032.00
1072.229, 12867.00
1073.332, 12627.00
1074.435, 12520.00
1075.537, 12422.00
1076.639, 12477.00
1077.741, 12369.00
1078.843, 12201.00
1079.945, 12135.00
1081.046, 12281.00
1082.148, 12171.00
1083.249, 12176.00
1084.350, 12041.00
1085.451, 11857.00
1086.551, 12025.00
1087.652, 11869.00
1088.752, 11884.00
1089.853, 11729.00
1090.953, 11769.00
1092.053, 11829.00
1093.152, 11829.00
1094.252, 11669.00
1095.351, 11717.00
1096.451, 11773.00
1097.550, 11639.00
1098.649, 11701.00
1099.748, 11681.00
1100.846, 11676.93
1101.945, 11728.00
1103.043, 11750.00
1104.141, 11827.00
1105.239, 11928.00
1106.337, 11945.00
1107.434, 11933.00
1108.532, 11810.00
1109.629, 12084.00
1110.726, 11953.00
1111.823, 11848.00
1112.920, 11976.00
1114.017, 11700.00
1115.113, 11758.00
1116.210, 11804.00
1117.306, 11852.00
1118.402, 11854.00
1119.498, 11817.00
1120.593, 11942.00
1121.689, 11887.00
1122.784, 12019.00
1123.879, 12082.00
1124.974, 12020.00
1126.069, 12075.00
1127.164, 12109.00
1128.259, 12003.00
1129.353, 12056.00
1130.447, 12176.40
1131.541, 12588.00
1132.635, 12373.00
1133.729, 12146.00
1134.822, 11942.00
1135.916, 11781.14
1137.009, 11673.82
1138.102, 11553.00
1139.195, 11549.00
1140.288, 11592.25
1141.380, 11578.20
1142.473, 11668.00
1143.565, 11609.00
1144.657, 11664.00
1145.749, 11742.00
1146.841, 11677.00
1147.932, 11652.00
1149.024, 11582.00
1150.115, 11732.00
1151.206, 11704.00
1152.297, 11745.00
1153.388, 11776.00
1154.479, 11707.00
1155.569, 11754.00
1156.659, 11764.00
1157.750, 11811.00
1158.839, 11696.00
1159.929, 11665.00
1161.019, 11703.00
1162.108, 11659.00
1163.198, 11924.00
1164.287, 11911.00
1165.376, 11908.00
1166.465, 11971.00
1167.553, 11931.00
1168.642, 11917.00
1169.730, 11977.00
1170.818, 11895.00
1171.906, 11896.00
1172.994, 11861.00
1174.082, 11912.00
1175.170, 11929.00
1176.257, 11935.47
1177.344, 11996.00
1178.431, 11978.00
1179.518, 11961.00
1180.605, 11998.00
1181.691, 12003.00
1182.778, 11950.00
1183.864, 12088.00
1184.950, 11959.00
1186.036, 12060.00
1187.122, 11977.00
1188.207, 12125.00
1189.292, 12022.00
1190.378, 11978.00
1191.463, 12018.00
1192.548, 11929.00
1193.632, 11984.00
1194.717, 12027.00
1195.801, 12042.00
1196.886, 12165.00
1197.970, 11904.00
1199.054, 12015.00
1200.137, 11907.00
1201.221, 11997.00
1202.305, 12015.00
1203.388, 11904.00
1204.471, 12365.00
1205.554, 12076.21
1206.637, 12187.00
1207.719, 11877.00
1208.802, 11940.00
1209.884, 12042.00
1210.966, 11890.00
1212.048, 11745.00
1213.130, 11853.00
1214.212, 11640.00
1215.293, 11751.00
1216.374, 11817.00
1217.456, 11702.00
1218.536, 11815.00
1219.617, 11880.00
1220.698, 11743.00
1221.778, 11802.00
1222.859, 11768.00
1223.939, 11630.00
1225.019, 11782.00
1226.099, 11739.00
1227.178, 11545.00
1228.258, 11568.00
1229.337, 11541.00
1230.417, 11617.00
1231.496, 11661.00
1232.574, 11686.00
1233.653, 11536.00
1234.732, 11585.00
1235.810, 11617.00
1236.888, 11480.00
1237.966, 11580.00
1239.044, 11476.00
1240.122, 11616.00
1241.199, 11587.00
1242.277, 11622.00
1243.354, 11655.30
1244.431, 11550.00
1245.508, 11656.00
1246.585, 11614.00
1247.661, 11575.00
1248.738, 11444.00
1249.814, 11618.00
1250.890, 11457.00
1251.966, 11626.00
1253.042, 11602.00
1254.117, 11660.00
1255.193, 11593.00
1256.268, 11614.00
1257.343, 11626.00
1258.418, 11583.00
1259.493, 11681.00
1260.567, 11670.00
1261.642, 11562.00
1262.716, 11686.00
1263.790, 11644.00
1264.864, 11696.00
1265.938, 11655.00
1267.011, 11603.00
1268.085, 11557.00
1269.158, 11695.00
1270.231, 11671.00
1271.304, 11634.00
1272.377, 11543.00
1273.450, 11618.00
1274.522, 11661.00
1275.594, 11583.00
1276.666, 11630.00
1277.738, 11604.00
1278.810, 11558.00
1279.882, 11471.00
1280.953, 11592.00
1282.025, 11436.00
1283.096, 11527.00
1284.167, 11597.00
1285.238, 11500.00
1286.308, 11432.00
1287.379, 11433.00
1288.449, 11368.13
1289.519, 11422.00
1290.589, 11312.00
1291.659, 11365.00
1292.729, 11349.00
1293.798, 11402.00
1294.868, 11352.00
1295.937, 11318.00
1297.006, 11306.00
1298.075, 11278.00
1299.143, 11274.01
1300.212, 11334.00
1301.280, 11262.00
1302.348, 11260.00
1303.416, 11234.89
1304.484, 11306.00
1305.552, 11266.00
1306.620, 11321.00
1307.687, 11358.00
1308.754, 11319.00
1309.821, 11458.00
1310.888, 11249.00
1311.955, 11434.00
1313.021, 11405.00
1314.088, 11323.00
1315.154, 11481.00
1316.220, 11445.00
1317.286, 11387.00
1318.352, 11373.00
1319.417, 11372.75
1320.483, 11306.00
1321.548, 11419.00
1322.613, 11452.00
1323.678, 11507.00
1324.743, 11469.00
1325.807, 11395.00
1326.872, 11438.00
1327.936, 11552.00
1329.000, 11393.00
1330.064, 11541.00
1331.128, 11441.00
1332.191, 11497.00
1333.255, 11624.00
1334.318, 11618.00
1335.381, 11504.00
1336.444, 11603.00
1337.507, 11537.00
1338.569, 11658.00
1339.632, 11689.00
1340.694, 11736.00
1341.756, 11527.00
1342.818, 11647.00
1343.880, 11577.00
1344.941, 11621.78
1346.003, 11788.00
1347.064, 11730.00
1348.125, 11813.00
1349.186, 11780.00
1350.247, 11873.00
1351.308, 11767.00
1352.368, 11809.00
1353.428, 11805.00
1354.489, 11931.00
1355.549, 11825.00
1356.608, 11839.00
1357.668, 11987.00
1358.727, 11930.00
1359.787, 12003.00
1360.846, 11992.00
1361.905, 12045.00
1362.964, 11943.00
1364.022, 12088.00
1365.081, 11878.00
1366.139, 12106.00
1367.197, 12051.00
1368.255, 12094.00
1369.313, 12153.00
1370.371, 12158.00
1371.428, 12146.00
1372.486, 12107.00
1373.543, 12217.00
1374.600, 11979.00
1375.657, 12184.00
1376.713, 12168.00
1377.770, 12087.00
1378.826, 12172.00
1379.882, 12124.00
1380.938, 12114.00
1381.994, 12153.00
1383.050, 12206.00
1384.106, 12096.00
1385.161, 12177.00
1386.216, 12257.00
1387.271, 12014.00
1388.326, 12058.00
1389.381, 12176.00
1390.435, 12131.00
1391.490, 12027.00
1392.544, 12147.00
1393.598, 12223.00
1394.652, 12006.00
1395.705, 12171.00
1396.759, 12239.00
1397.812, 12097.00
1398.866, 12178.00
1399.919, 12106.00
1400.972, 12146.00
1402.024, 12155.00
1403.077, 12071.00
1404.129, 12145.00
1405.181, 12101.00
1406.233, 12092.00
1407.285, 12125.00
1408.337, 12041.00
1409.389, 12171.00
1410.440, 12105.00
1411.491, 12053.00
1412.542, 12090.00
1413.593, 12009.00
1414.644, 12218.00
1415.695, 11963.00
1416.745, 12065.00
1417.795, 12164.00
1418.845, 12104.00
1419.895, 12142.00
1420.945, 11965.00
1421.995, 12280.00
1423.044, 12057.00
1424.093, 12269.00
1425.142, 12231.00
1426.191, 12220.00
1427.240, 12260.00
1428.289, 12226.00
1429.337, 12273.29
1430.385, 12309.86
1431.433, 12330.00
1432.481, 12394.00
1433.529, 12384.00
1434.577, 12383.00
1435.624, 12439.00
1436.672, 12410.00
1437.719, 12470.00
1438.766, 12536.00
1439.812, 12603.00
1440.859, 12464.00
1441.905, 12688.00
1442.952, 12593.00
1443.998, 12727.00
1445.044, 12651.00
1446.090, 12643.00
1447.135, 12748.00
1448.181, 12751.00
1449.226, 12853.00
1450.271, 12716.00
1451.316, 12735.00
1452.361, 12742.00
1453.405, 12704.00
1454.450, 12771.00
1455.494, 12758.00
1456.538, 12834.00
1457.582, 12904.00
1458.626, 12875.69
1459.670, 12839.00
1460.713, 12824.00
1461.757, 12743.00
1462.800, 12757.65
1463.843, 12654.00
1464.886, 12761.00
1465.928, 12743.00
1466.971, 12745.00
1468.013, 12805.00
1469.055, 12823.00
1470.097, 12639.00
1471.139, 12582.00
1472.181, 12619.00
1473.222, 12567.00
1474.263, 12715.00
1475.305, 12648.82
1476.346, 12564.00
1477.386, 12615.00
1478.427, 12498.00
1479.468, 12502.00
1480.508, 12568.00
1481.548, 12445.00
1482.588, 12363.00
1483.628, 12469.00
1484.668, 12368.00
1485.707, 12571.00
1486.747, 12254.00
1487.786, 12436.00
1488.825, 12464.00
1489.864, 12381.00
1490.902, 12347.00
1491.941, 12407.00
1492.979, 12372.00
1494.017, 12414.00
1495.055, 12348.00
1496.093, 12480.00
1497.131, 12434.84
1498.168, 12408.00
1499.206, 12420.00
1500.243, 12518.00
1501.280, 12510.00
1502.317, 12564.00
1503.354, 12547.14
1504.390, 12353.00
1505.426, 12523.00
1506.463, 12442.00
1507.499, 12504.00
1508.535, 12521.00
1509.570, 12493.03
1510.606, 12480.00
1511.641, 12534.00
1512.676, 12432.00
1513.711, 12568.00
1514.746, 12636.00
1515.781, 12507.00
1516.816, 12817.00
1517.850, 12591.00
1518.884, 12700.00
1519.918, 12811.00
1520.952, 12718.00
1521.986, 12823.00
1523.019, 12676.00
1524.053, 12707.00
1525.086, 12691.00
1526.119, 12642.51
1527.152, 12800.00
1528.185, 12655.00
1529.217, 12839.00
1530.250, 12960.00
1531.282, 12877.00
1532.314, 12938.00
1533.346, 12907.00
1534.377, 13010.00
1535.409, 12877.00
1536.440, 12852.00
1537.472, 12917.00
1538.503, 12947.00
1539.534, 12962.00
1540.564, 12963.00
1541.595, 12967.02
1542.625, 13059.00
1543.656, 13020.00
1544.686, 12998.00
1545.716, 13169.00
1546.745, 13102.00
1547.775, 13146.00
1548.804, 13141.00
1549.834, 13220.00
1550.863, 13264.00
1551.892, 13204.00
1552.920, 13353.00
1553.949, 13321.00
1554.977, 13388.00
1556.006, 13331.00
1557.034, 13346.11
1558.062, 13432.00
1559.089, 13344.00
1560.117, 13304.00
1561.144, 13314.00
1562.172, 13254.00
1563.199, 13286.00
1564.226, 13291.00
1565.252, 13282.00
1566.279, 13218.00
1567.305, 13204.00
1568.332, 13359.00
1569.358, 13255.00
1570.384, 13462.00
1571.409, 13301.00
##END=



