##NAMES=Andalusite
##RRUFFID=R060197
##IDEAL CHEMISTRY=Al_2_SiO_5_
##LOCALITY=Brazil
##OWNER=RRUFF
##SOURCE=Marcus Origlieri
##DESCRIPTION=Green colored water worn pebble
##STATUS=The identification of this mineral has been confirmed by X-ray diffraction and chemical analysis
##URL=rruff.info/R060197
##MEASURED CHEMISTRY=(Al_1.97_Mn^3+^_0.03_)_Î£=2_Si_1.00_O_5_
##PIN_ID=M00466
##ORIENTATION=Laser parallel to a* (1 0 0). Fiducial mark perpendicular to laser is parallel to -b [0 -1 0]
91.01200, 3525.000
92.24600, 3582.426
93.48000, 3727.000
94.71400, 3715.000
95.94800, 3974.000
97.18200, 3942.356
98.41600, 3940.000
99.64900, 4103.000
100.8830, 4087.000
102.1160, 4026.000
103.3490, 4135.000
104.5820, 4199.000
105.8150, 4390.000
107.0470, 4688.000
108.2800, 5082.000
109.5120, 5616.000
110.7440, 5280.000
111.9760, 4733.000
113.2080, 4549.000
114.4400, 4689.000
115.6710, 4787.000
116.9030, 4844.000
118.1340, 4782.000
119.3650, 4580.000
120.5960, 4618.000
121.8270, 4575.000
123.0580, 4776.000
124.2880, 4837.000
125.5190, 4829.000
126.7490, 4769.000
127.9790, 4702.000
129.2090, 4832.000
130.4390, 4929.000
131.6680, 4960.000
132.8980, 5015.000
134.1270, 5023.000
135.3560, 4966.000
136.5850, 5065.000
137.8140, 5113.000
139.0430, 5291.000
140.2710, 5391.000
141.5000, 5274.000
142.7280, 5367.000
143.9560, 5305.000
145.1840, 5327.000
146.4120, 5296.000
147.6390, 5267.000
148.8670, 5841.000
150.0940, 6152.000
151.3210, 6104.000
152.5490, 6032.000
153.7750, 6051.000
155.0020, 6394.000
156.2290, 6317.000
157.4550, 5803.000
158.6810, 6004.000
159.9080, 5360.000
161.1340, 5381.000
162.3590, 5371.000
163.5850, 5638.000
164.8110, 5618.000
166.0360, 5667.000
167.2610, 5787.000
168.4860, 5664.000
169.7110, 5757.000
170.9360, 5790.000
172.1610, 5765.000
173.3850, 5708.000
174.6100, 5674.000
175.8340, 5689.000
177.0580, 5753.000
178.2820, 5697.000
179.5050, 5750.000
180.7290, 5697.000
181.9520, 5654.000
183.1760, 5751.000
184.3990, 5743.000
185.6220, 5858.000
186.8450, 6028.000
188.0670, 6070.000
189.2900, 6299.000
190.5120, 6288.000
191.7340, 6423.000
192.9560, 6504.000
194.1780, 6572.000
195.4000, 6646.000
196.6220, 6678.000
197.8430, 6753.000
199.0640, 6629.000
200.2860, 6682.000
201.5070, 6784.000
202.7270, 6892.000
203.9480, 6645.000
205.1690, 6252.000
206.3890, 6054.000
207.6090, 5961.000
208.8290, 5846.000
210.0490, 5803.000
211.2690, 5877.000
212.4890, 5855.000
213.7080, 5913.000
214.9280, 5873.000
216.1470, 5933.000
217.3660, 5910.000
218.5850, 5936.000
219.8030, 5841.000
221.0220, 5878.000
222.2400, 5884.000
223.4590, 5964.000
224.6770, 5962.000
225.8950, 5859.000
227.1120, 5953.000
228.3300, 5970.000
229.5480, 6023.000
230.7650, 6100.000
231.9820, 6080.000
233.1990, 6174.000
234.4160, 6201.000
235.6330, 6269.000
236.8490, 6258.000
238.0660, 6427.000
239.2820, 6563.000
240.4980, 6635.000
241.7140, 6682.000
242.9300, 6510.000
244.1460, 6569.000
245.3610, 6477.000
246.5770, 6452.000
247.7920, 6477.000
249.0070, 6415.000
250.2220, 6621.000
251.4370, 6543.000
252.6510, 6658.000
253.8660, 6687.000
255.0800, 6806.000
256.2940, 6916.000
257.5080, 6922.000
258.7220, 7320.000
259.9360, 7658.000
261.1490, 7746.000
262.3630, 7632.000
263.5760, 7598.000
264.7890, 7642.000
266.0020, 7722.000
267.2150, 7724.000
268.4270, 7864.000
269.6400, 8001.000
270.8520, 8211.000
272.0640, 8734.000
273.2760, 9191.000
274.4880, 9568.000
275.7000, 10321.00
276.9120, 10985.00
278.1230, 11931.00
279.3340, 13089.00
280.5450, 14732.00
281.7560, 16463.00
282.9670, 18869.00
284.1780, 21174.00
285.3880, 23779.00
286.5980, 26738.00
287.8090, 29547.00
289.0190, 31034.00
290.2290, 31484.00
291.4380, 29877.00
292.6480, 27335.00
293.8570, 24288.00
295.0670, 21199.00
296.2760, 18389.00
297.4850, 16052.00
298.6930, 14343.00
299.9020, 12897.00
301.1110, 11965.00
302.3190, 11158.00
303.5270, 10778.00
304.7350, 10321.00
305.9430, 10292.00
307.1510, 10711.00
308.3580, 10950.00
309.5660, 11988.00
310.7730, 12881.00
311.9800, 14420.00
313.1870, 16075.00
314.3940, 18452.00
315.6010, 21298.00
316.8070, 24560.00
318.0130, 26792.00
319.2200, 27458.00
320.4260, 26402.00
321.6310, 24162.00
322.8370, 21858.00
324.0430, 19229.00
325.2480, 16914.00
326.4540, 15070.00
327.6590, 13520.00
328.8640, 12554.00
330.0680, 11915.00
331.2730, 11173.00
332.4780, 10692.00
333.6820, 10747.00
334.8860, 10462.00
336.0900, 10392.00
337.2940, 10280.00
338.4980, 10414.00
339.7010, 10427.00
340.9050, 10642.00
342.1080, 10692.00
343.3110, 11147.00
344.5140, 11335.00
345.7170, 11822.00
346.9200, 12607.00
348.1220, 13467.00
349.3240, 14433.00
350.5270, 15612.00
351.7290, 17070.00
352.9310, 18711.00
354.1320, 20215.00
355.3340, 21480.00
356.5350, 21872.00
357.7370, 21981.00
358.9380, 21327.00
360.1390, 19934.00
361.3400, 18570.00
362.5400, 16872.00
363.7410, 15326.00
364.9410, 14286.00
366.1410, 13073.00
367.3410, 12464.00
368.5410, 11934.00
369.7410, 11621.00
370.9400, 11057.00
372.1400, 10838.00
373.3390, 10518.00
374.5380, 10260.00
375.7370, 10038.00
376.9360, 9932.000
378.1350, 9811.000
379.3330, 9673.000
380.5310, 9595.466
381.7300, 9539.092
382.9280, 9472.000
384.1260, 9475.000
385.3230, 9513.000
386.5210, 9475.000
387.7180, 9581.000
388.9160, 9441.000
390.1130, 9463.000
391.3100, 9288.000
392.5060, 9354.000
393.7030, 9280.000
394.9000, 9213.000
396.0960, 9181.000
397.2920, 9185.000
398.4880, 9070.000
399.6840, 9165.000
400.8800, 9095.000
402.0750, 9135.000
403.2710, 9256.000
404.4660, 9198.000
405.6610, 9300.000
406.8560, 9448.000
408.0510, 9398.000
409.2450, 9783.000
410.4400, 9816.000
411.6340, 10119.00
412.8280, 10514.00
414.0220, 10606.00
415.2160, 10915.00
416.4100, 11106.00
417.6030, 11389.00
418.7970, 11519.00
419.9900, 11309.00
421.1830, 10955.00
422.3760, 10735.00
423.5690, 10347.00
424.7610, 10157.00
425.9540, 10015.00
427.1460, 9891.000
428.3380, 9794.458
429.5300, 9733.000
430.7220, 9648.000
431.9140, 9599.539
433.1050, 9576.000
434.2970, 9543.000
435.4880, 9533.000
436.6790, 9574.227
437.8700, 9713.000
439.0610, 9749.000
440.2510, 9840.000
441.4420, 9971.000
442.6320, 10006.00
443.8220, 10085.00
445.0120, 10089.00
446.2020, 10148.00
447.3910, 10037.00
448.5810, 10042.00
449.7700, 10189.00
450.9600, 10024.00
452.1490, 10042.00
453.3370, 9866.000
454.5260, 9956.000
455.7150, 9956.000
456.9030, 10055.00
458.0910, 10105.00
459.2800, 10187.00
460.4670, 10339.00
461.6550, 10523.00
462.8430, 10725.00
464.0300, 10944.60
465.2180, 11229.00
466.4050, 11444.00
467.5920, 11720.00
468.7790, 12008.00
469.9650, 12137.00
471.1520, 12358.00
472.3380, 12627.00
473.5250, 12787.00
474.7110, 13126.00
475.8970, 13260.00
477.0820, 13326.00
478.2680, 13582.00
479.4540, 13241.00
480.6390, 13232.00
481.8240, 12974.00
483.0090, 12599.00
484.1940, 12351.00
485.3780, 12003.00
486.5630, 11506.00
487.7470, 11240.00
488.9320, 11029.00
490.1160, 10745.00
491.3000, 10522.00
492.4830, 10272.00
493.6670, 10023.00
494.8500, 10002.00
496.0340, 10062.00
497.2170, 10093.00
498.4000, 10051.00
499.5820, 10165.00
500.7650, 10149.00
501.9480, 10242.00
503.1300, 10350.00
504.3120, 10606.00
505.4940, 10787.00
506.6760, 10844.00
507.8580, 10949.00
509.0390, 10991.00
510.2210, 11102.00
511.4020, 11139.00
512.5830, 11266.00
513.7640, 11316.00
514.9450, 11213.00
516.1250, 10946.00
517.3060, 10984.00
518.4860, 10886.00
519.6660, 10940.00
520.8460, 10761.00
522.0260, 10847.00
523.2060, 10601.00
524.3850, 10691.00
525.5650, 10579.00
526.7440, 10758.00
527.9230, 10619.00
529.1020, 10653.00
530.2810, 10627.00
531.4590, 10559.00
532.6380, 10635.00
533.8160, 10560.00
534.9940, 10576.00
536.1720, 10732.00
537.3500, 10925.00
538.5270, 11102.00
539.7050, 11305.00
540.8820, 11666.00
542.0590, 12119.00
543.2360, 12715.00
544.4130, 13418.00
545.5900, 14222.00
546.7660, 14952.00
547.9430, 15559.00
549.1190, 15792.00
550.2950, 15519.00
551.4710, 15316.00
552.6470, 14493.00
553.8220, 13745.00
554.9980, 13102.00
556.1730, 12571.22
557.3480, 12101.00
558.5230, 11831.00
559.6980, 11691.00
560.8730, 11643.00
562.0470, 11380.00
563.2220, 11300.00
564.3960, 11429.00
565.5700, 11436.00
566.7440, 11469.00
567.9170, 11637.00
569.0910, 11706.00
570.2640, 11699.00
571.4380, 11810.00
572.6110, 11832.00
573.7840, 11750.00
574.9570, 11715.00
576.1290, 11597.00
577.3020, 11813.00
578.4740, 11727.00
579.6460, 11689.00
580.8180, 11777.00
581.9900, 11639.00
583.1620, 11818.00
584.3330, 11766.00
585.5040, 11665.00
586.6760, 11718.00
587.8470, 12006.00
589.0180, 12099.00
590.1880, 12140.00
591.3590, 12233.00
592.5290, 12304.00
593.7000, 12297.00
594.8700, 12346.00
596.0400, 12449.00
597.2090, 12506.00
598.3790, 12448.00
599.5490, 12356.00
600.7180, 12485.00
601.8870, 12423.00
603.0560, 12499.00
604.2250, 12355.00
605.3940, 12306.00
606.5620, 12124.00
607.7300, 12293.00
608.8990, 12196.00
610.0670, 11894.00
611.2350, 11931.00
612.4020, 11730.00
613.5700, 11772.00
614.7370, 11644.00
615.9050, 11586.00
617.0720, 11678.00
618.2390, 11419.00
619.4060, 11463.00
620.5720, 11290.00
621.7390, 11072.00
622.9050, 11164.00
624.0710, 10892.00
625.2370, 10866.00
626.4030, 10960.00
627.5690, 10966.00
628.7340, 10754.00
629.9000, 10619.00
631.0650, 10666.00
632.2300, 10720.00
633.3950, 10702.00
634.5600, 10684.00
635.7240, 10691.00
636.8890, 10749.00
638.0530, 10771.00
639.2170, 10748.00
640.3810, 11097.00
641.5450, 10974.00
642.7080, 11114.00
643.8720, 11060.00
645.0350, 11118.00
646.1980, 11193.00
647.3610, 10893.00
648.5240, 11109.00
649.6870, 11010.00
650.8490, 11187.00
652.0120, 11235.00
653.1740, 11190.00
654.3360, 11305.00
655.4980, 11589.00
656.6600, 11799.00
657.8210, 11963.00
658.9830, 12245.00
660.1440, 12514.00
661.3050, 12819.00
662.4660, 12912.00
663.6270, 12951.00
664.7870, 12888.00
665.9480, 12588.00
667.1080, 12388.00
668.2680, 12508.00
669.4280, 12500.00
670.5880, 12645.00
671.7480, 12725.00
672.9070, 12868.00
674.0670, 13079.00
675.2260, 13236.00
676.3850, 13349.49
677.5440, 13546.00
678.7030, 13546.00
679.8610, 13681.00
681.0200, 13758.00
682.1780, 13737.00
683.3360, 13956.00
684.4940, 14112.00
685.6520, 14162.00
686.8090, 14330.00
687.9670, 14478.00
689.1240, 14703.00
690.2810, 14646.00
691.4380, 14688.00
692.5950, 14632.00
693.7520, 14971.00
694.9080, 14871.00
696.0650, 15073.00
697.2210, 15060.00
698.3770, 15045.00
699.5330, 15315.00
700.6880, 15332.00
701.8440, 15384.00
702.9990, 15588.00
704.1550, 15868.00
705.3100, 15986.00
706.4650, 16069.00
707.6190, 16034.00
708.7740, 16153.00
709.9290, 16271.00
711.0830, 16304.00
712.2370, 16179.00
713.3910, 16006.00
714.5450, 15769.06
715.6980, 15342.00
716.8520, 15040.00
718.0050, 14490.00
719.1580, 13922.00
720.3110, 13470.00
721.4640, 13085.00
722.6170, 12714.00
723.7700, 12352.24
724.9220, 11943.00
726.0740, 11723.00
727.2260, 11489.00
728.3780, 11254.00
729.5300, 11188.00
730.6810, 11233.00
731.8330, 11325.00
732.9840, 11337.00
734.1350, 11349.00
735.2860, 11481.00
736.4370, 11617.00
737.5880, 11627.00
738.7380, 11859.00
739.8880, 11912.00
741.0390, 12072.00
742.1890, 12334.00
743.3380, 12545.00
744.4880, 12641.00
745.6380, 12697.00
746.7870, 12722.00
747.9360, 12756.00
749.0850, 12866.00
750.2340, 12871.67
751.3830, 12954.00
752.5310, 12922.00
753.6800, 12900.00
754.8280, 12886.00
755.9760, 12975.00
757.1240, 12898.00
758.2720, 12816.00
759.4190, 12776.00
760.5670, 12666.00
761.7140, 12621.24
762.8610, 12563.00
764.0080, 12516.00
765.1550, 12499.34
766.3020, 12346.00
767.4480, 12457.00
768.5950, 12453.00
769.7410, 12392.00
770.8870, 12567.00
772.0330, 12535.00
773.1780, 12608.00
774.3240, 12621.00
775.4690, 12738.00
776.6140, 12796.00
777.7590, 12975.00
778.9040, 13402.00
780.0490, 13785.00
781.1940, 14022.00
782.3380, 14360.00
783.4820, 14938.00
784.6260, 15486.00
785.7700, 16108.00
786.9140, 16570.00
788.0580, 17276.00
789.2010, 17656.00
790.3450, 17944.00
791.4880, 17870.00
792.6310, 17804.00
793.7730, 17341.00
794.9160, 16817.00
796.0590, 16466.00
797.2010, 15857.00
798.3430, 15095.00
799.4850, 14673.00
800.6270, 14372.00
801.7690, 13941.00
802.9100, 13585.00
804.0520, 13274.00
805.1930, 12996.21
806.3340, 12756.85
807.4750, 12581.00
808.6160, 12353.00
809.7560, 12225.00
810.8970, 12034.00
812.0370, 11970.00
813.1770, 11747.00
814.3170, 11625.00
815.4570, 11692.00
816.5960, 11608.00
817.7360, 11334.00
818.8750, 11444.00
820.0140, 11281.00
821.1530, 11368.00
822.2920, 11341.00
823.4310, 11576.00
824.5690, 11215.00
825.7070, 11265.00
826.8460, 11436.00
827.9840, 11376.00
829.1220, 11421.00
830.2590, 11418.00
831.3970, 11406.49
832.5340, 11410.90
833.6710, 11384.00
834.8080, 11386.00
835.9450, 11333.00
837.0820, 11323.00
838.2190, 11352.00
839.3550, 11293.00
840.4910, 11274.00
841.6270, 11190.00
842.7630, 11306.00
843.8990, 11220.00
845.0350, 11358.00
846.1700, 11257.00
847.3060, 11383.00
848.4410, 11296.00
849.5760, 11575.00
850.7100, 11480.00
851.8450, 11556.00
852.9800, 11588.00
854.1140, 11633.00
855.2480, 11661.00
856.3820, 11763.22
857.5160, 11918.00
858.6500, 11989.00
859.7830, 12251.00
860.9170, 12400.00
862.0500, 12630.00
863.1830, 12670.00
864.3160, 12726.00
865.4480, 12918.00
866.5810, 13096.00
867.7130, 13044.00
868.8460, 13390.00
869.9780, 13252.00
871.1100, 13203.00
872.2410, 13250.00
873.3730, 13240.00
874.5050, 13163.00
875.6360, 13202.00
876.7670, 13143.00
877.8980, 13271.00
879.0290, 13042.00
880.1590, 13066.00
881.2900, 13152.00
882.4200, 12958.00
883.5500, 12901.00
884.6800, 12900.00
885.8100, 13108.00
886.9400, 13058.00
888.0690, 13104.00
889.1990, 13088.00
890.3280, 13163.00
891.4570, 13232.00
892.5860, 13407.00
893.7140, 13612.00
894.8430, 13722.00
895.9710, 13853.00
897.1000, 14001.00
898.2280, 14284.00
899.3560, 14592.00
900.4830, 14784.00
901.6110, 15388.00
902.7380, 15947.00
903.8660, 16791.00
904.9930, 17502.00
906.1200, 18606.00
907.2460, 20315.00
908.3730, 22099.00
909.5000, 24720.00
910.6260, 27976.00
911.7520, 32513.00
912.8780, 37651.00
914.0040, 43994.00
915.1290, 50798.00
916.2550, 57404.00
917.3800, 61362.00
918.5050, 61690.00
919.6300, 58719.00
920.7550, 53955.00
921.8800, 48461.00
923.0040, 44004.00
924.1290, 40576.00
925.2530, 38317.00
926.3770, 36178.00
927.5010, 34098.00
928.6250, 32101.00
929.7480, 29829.00
930.8720, 27576.00
931.9950, 25283.00
933.1180, 23224.00
934.2410, 21879.00
935.3640, 20455.00
936.4860, 19273.00
937.6090, 18408.00
938.7310, 17682.00
939.8530, 17074.00
940.9750, 16746.00
942.0970, 16528.00
943.2180, 15938.00
944.3400, 15870.00
945.4610, 15596.00
946.5820, 15679.00
947.7030, 15395.00
948.8240, 15233.00
949.9450, 15076.00
951.0650, 14890.00
952.1860, 14677.00
953.3060, 14704.00
954.4260, 14483.00
955.5460, 14361.00
956.6650, 14316.00
957.7850, 14400.00
958.9040, 14257.00
960.0230, 14257.00
961.1420, 14191.00
962.2610, 14033.00
963.3800, 14277.00
964.4990, 14316.00
965.6170, 14160.00
966.7350, 14193.00
967.8530, 14315.00
968.9710, 14262.00
970.0890, 14435.00
971.2070, 14318.00
972.3240, 14091.00
973.4410, 14151.00
974.5580, 14089.00
975.6750, 13984.91
976.7920, 14098.00
977.9090, 13886.00
979.0250, 13692.00
980.1410, 13739.00
981.2580, 13606.00
982.3740, 13613.00
983.4890, 13655.00
984.6050, 13678.00
985.7200, 13495.00
986.8360, 13465.00
987.9510, 13430.00
989.0660, 13449.00
990.1810, 13343.00
991.2950, 13472.00
992.4100, 13316.00
993.5240, 13268.00
994.6390, 13132.00
995.7530, 13204.00
996.8660, 13274.00
997.9800, 13384.00
999.0940, 13270.00
1000.207, 13424.00
1001.320, 13410.00
1002.433, 13430.00
1003.546, 13515.00
1004.659, 13600.00
1005.772, 13655.00
1006.884, 13868.00
1007.996, 13891.00
1009.108, 14095.00
1010.220, 14255.00
1011.332, 14411.00
1012.444, 14712.00
1013.555, 15000.00
1014.666, 15162.00
1015.777, 15240.00
1016.888, 15694.00
1017.999, 15691.00
1019.110, 15674.00
1020.220, 15755.00
1021.331, 15672.00
1022.441, 15544.00
1023.551, 15423.00
1024.661, 15185.00
1025.770, 15029.00
1026.880, 14961.00
1027.989, 14941.00
1029.098, 14874.00
1030.207, 14708.00
1031.316, 14590.00
1032.425, 14529.00
1033.533, 14501.00
1034.642, 14340.00
1035.750, 14409.00
1036.858, 14208.00
1037.966, 14253.00
1039.073, 14276.00
1040.181, 14247.00
1041.288, 14401.00
1042.396, 14295.00
1043.503, 14371.00
1044.610, 14278.00
1045.716, 14366.00
1046.823, 14414.00
1047.929, 14572.00
1049.036, 14738.00
1050.142, 14732.00
1051.248, 15095.00
1052.353, 15265.00
1053.459, 15800.00
1054.564, 16247.00
1055.670, 16608.00
1056.775, 17444.00
1057.880, 18087.00
1058.985, 18825.00
1060.089, 19199.00
1061.194, 19151.00
1062.298, 18765.00
1063.402, 18328.00
1064.506, 17618.00
1065.610, 17298.00
1066.713, 16602.00
1067.817, 16188.00
1068.920, 16110.00
1070.023, 15956.00
1071.126, 15671.00
1072.229, 15531.00
1073.332, 15435.00
1074.435, 15463.00
1075.537, 15514.00
1076.639, 15417.00
1077.741, 15495.00
1078.843, 15542.00
1079.945, 15536.00
1081.046, 15506.00
1082.148, 15522.00
1083.249, 15593.00
1084.350, 15640.00
1085.451, 15624.00
1086.551, 15601.00
1087.652, 15613.00
1088.752, 15637.00
1089.853, 15527.00
1090.953, 15733.00
1092.053, 15612.00
1093.152, 15534.00
1094.252, 15636.00
1095.351, 15641.00
1096.451, 15663.00
1097.550, 15703.00
1098.649, 15536.00
1099.748, 15611.00
1100.846, 15563.00
1101.945, 15542.86
1103.043, 15575.00
1104.141, 15598.00
1105.239, 15626.00
1106.337, 15761.00
1107.434, 15645.00
1108.532, 15696.00
1109.629, 15757.00
1110.726, 15518.00
1111.823, 15308.00
1112.920, 15353.00
1114.017, 15252.00
1115.113, 15139.00
1116.210, 15155.00
1117.306, 15030.00
1118.402, 14974.00
1119.498, 15215.00
1120.593, 15136.00
1121.689, 15260.00
1122.784, 15226.00
1123.879, 15195.00
1124.974, 15167.00
1126.069, 15031.00
1127.164, 14982.00
1128.259, 15024.00
1129.353, 14822.00
1130.447, 14762.00
1131.541, 14502.00
1132.635, 14662.00
1133.729, 14586.00
1134.822, 14626.00
1135.916, 14468.00
1137.009, 14454.00
1138.102, 14625.00
1139.195, 14536.00
1140.288, 14655.00
1141.380, 14436.00
1142.473, 14618.00
1143.565, 14580.00
1144.657, 14575.00
1145.749, 14551.00
1146.841, 14506.00
1147.932, 14450.00
1149.024, 14516.00
1150.115, 14450.70
1151.206, 14386.00
1152.297, 14471.00
1153.388, 14450.00
1154.479, 14611.00
1155.569, 14460.00
1156.659, 14535.00
1157.750, 14575.00
1158.839, 14484.00
1159.929, 14621.00
1161.019, 14537.00
1162.108, 14454.00
1163.198, 14565.00
1164.287, 14401.00
1165.376, 14512.00
1166.465, 14541.00
1167.553, 14487.00
1168.642, 14437.00
1169.730, 14489.77
1170.818, 14472.00
1171.906, 14544.00
1172.994, 14638.00
1174.082, 14614.00
1175.170, 14780.00
1176.257, 14576.00
1177.344, 14750.00
1178.431, 14682.00
1179.518, 14577.00
1180.605, 14625.00
1181.691, 14632.07
1182.778, 14663.88
1183.864, 14787.00
1184.950, 14787.00
1186.036, 14910.00
1187.122, 14959.00
1188.207, 14877.00
1189.292, 14997.00
1190.378, 15012.00
1191.463, 14950.00
1192.548, 14965.00
1193.632, 14992.64
1194.717, 14978.00
1195.801, 15078.00
1196.886, 15163.00
1197.970, 15213.00
1199.054, 15054.00
1200.137, 14997.00
1201.221, 15120.00
1202.305, 15165.00
1203.388, 15384.00
1204.471, 15253.00
1205.554, 15188.00
1206.637, 15353.00
1207.719, 15312.00
1208.802, 15570.00
1209.884, 15607.00
1210.966, 15641.00
1212.048, 15645.00
1213.130, 15656.00
1214.212, 15767.00
1215.293, 16085.00
1216.374, 16162.00
1217.456, 16419.00
1218.536, 16472.00
1219.617, 16807.00
1220.698, 16967.00
1221.778, 17383.00
1222.859, 17627.00
1223.939, 17998.00
1225.019, 18256.00
1226.099, 18765.00
1227.178, 19165.00
1228.258, 19506.00
1229.337, 19795.00
1230.417, 20209.00
1231.496, 20437.00
1232.574, 20830.00
1233.653, 20689.00
1234.732, 21079.00
1235.810, 21154.00
1236.888, 21419.00
1237.966, 21347.00
1239.044, 21620.00
1240.122, 21806.00
1241.199, 22168.00
1242.277, 22365.00
1243.354, 22827.00
1244.431, 23045.00
1245.508, 23273.00
1246.585, 23473.00
1247.661, 23400.00
1248.738, 23588.00
1249.814, 23447.00
1250.890, 23558.00
1251.966, 23494.00
1253.042, 23623.00
1254.117, 23411.00
1255.193, 23142.00
1256.268, 22924.00
1257.343, 22749.00
1258.418, 22717.00
1259.493, 22418.00
1260.567, 22339.00
1261.642, 22293.00
1262.716, 21963.00
1263.790, 21691.00
1264.864, 21679.00
1265.938, 21582.00
1267.011, 21200.00
1268.085, 20898.00
1269.158, 20425.00
1270.231, 20224.81
1271.304, 19986.10
1272.377, 19783.00
1273.450, 19631.00
1274.522, 19429.00
1275.594, 19195.00
1276.666, 19036.00
1277.738, 18627.00
1278.810, 18658.00
1279.882, 18353.00
1280.953, 18242.00
1282.025, 18101.00
1283.096, 18002.00
1284.167, 17859.00
1285.238, 17707.00
1286.308, 17867.00
1287.379, 17568.00
1288.449, 17432.00
1289.519, 17610.00
1290.589, 17344.00
1291.659, 17214.00
1292.729, 17273.00
1293.798, 17124.00
1294.868, 17082.00
1295.937, 16956.00
1297.006, 16972.00
1298.075, 16865.00
1299.143, 16959.00
1300.212, 17066.00
1301.280, 16956.00
1302.348, 17031.00
1303.416, 16976.00
1304.484, 16867.00
1305.552, 16865.00
1306.620, 16775.00
1307.687, 16786.00
1308.754, 16752.00
1309.821, 17044.00
1310.888, 16615.00
1311.955, 16924.00
1313.021, 16930.00
1314.088, 16792.00
1315.154, 16833.00
1316.220, 16961.00
1317.286, 17005.00
1318.352, 16991.00
1319.417, 16877.00
1320.483, 16863.00
1321.548, 16836.00
1322.613, 16785.00
1323.678, 16812.00
1324.743, 16848.00
1325.807, 16760.00
1326.872, 16789.00
1327.936, 16942.00
1329.000, 16973.00
1330.064, 16791.00
1331.128, 16994.00
1332.191, 16955.00
1333.255, 16896.00
1334.318, 16980.00
1335.381, 17140.00
1336.444, 17051.00
1337.507, 17053.00
1338.569, 17155.00
1339.632, 17062.00
1340.694, 17098.00
1341.756, 17134.88
1342.818, 17271.00
1343.880, 17191.00
1344.941, 17182.00
1346.003, 17172.00
1347.064, 17160.60
1348.125, 17383.00
1349.186, 17208.00
1350.247, 17261.00
1351.308, 17340.00
1352.368, 17184.00
1353.428, 17359.00
1354.489, 17430.00
1355.549, 17358.00
1356.608, 17426.00
1357.668, 17459.00
1358.727, 17551.00
1359.787, 17510.24
1360.846, 17451.00
1361.905, 17455.00
1362.964, 17394.12
1364.022, 17367.33
1365.081, 17341.00
1366.139, 17351.00
1367.197, 17403.00
1368.255, 17511.00
1369.313, 17578.00
1370.371, 17512.00
1371.428, 17584.00
1372.486, 17526.00
1373.543, 17532.00
1374.600, 17766.00
1375.657, 17621.00
1376.713, 17555.00
1377.770, 17531.00
1378.826, 17773.00
1379.882, 17702.00
1380.938, 17756.00
1381.994, 17704.00
1383.050, 17783.00
1384.106, 17855.00
1385.161, 17972.00
1386.216, 17885.00
1387.271, 17968.00
1388.326, 17987.00
1389.381, 18012.00
1390.435, 18192.00
1391.490, 18146.00
1392.544, 18183.00
1393.598, 18176.00
1394.652, 18309.00
1395.705, 18352.00
1396.759, 18439.00
1397.812, 18457.00
1398.866, 18495.00
1399.919, 18495.00
1400.972, 18670.00
1402.024, 18446.00
1403.077, 18569.00
1404.129, 18713.00
1405.181, 18825.00
1406.233, 18936.00
1407.285, 18822.00
1408.337, 18873.00
1409.389, 18872.00
1410.440, 19072.00
1411.491, 19076.00
1412.542, 19080.00
1413.593, 19140.00
1414.644, 18994.00
1415.695, 19216.00
1416.745, 19092.00
1417.795, 19144.00
1418.845, 19181.23
1419.895, 19232.00
1420.945, 19205.00
1421.995, 19059.00
1423.044, 19077.00
1424.093, 19127.00
1425.142, 19384.00
1426.191, 19178.00
1427.240, 19311.00
1428.289, 19285.00
1429.337, 19026.00
1430.385, 19340.00
1431.433, 19176.00
1432.481, 19185.00
1433.529, 19191.00
1434.577, 19313.00
1435.624, 19452.00
1436.672, 19266.00
1437.719, 19047.00
1438.766, 19176.00
1439.812, 19089.00
1440.859, 19014.00
1441.905, 18981.00
1442.952, 19066.00
1443.998, 19097.00
1445.044, 19124.00
1446.090, 18985.00
1447.135, 19161.00
1448.181, 18963.00
1449.226, 19061.00
1450.271, 19211.00
1451.316, 19163.00
1452.361, 18875.00
1453.405, 18868.00
1454.450, 18943.00
1455.494, 19050.00
1456.538, 18864.00
1457.582, 18795.00
1458.626, 18975.00
1459.670, 19039.00
1460.713, 18798.00
1461.757, 19284.00
1462.800, 18983.00
1463.843, 18855.00
1464.886, 19033.00
1465.928, 18941.00
1466.971, 18887.00
1468.013, 18963.00
1469.055, 18918.22
1470.097, 19010.00
1471.139, 18989.00
1472.181, 18918.00
1473.222, 19024.00
1474.263, 19001.00
1475.305, 18875.00
1476.346, 18922.00
1477.386, 19004.00
1478.427, 18821.00
1479.468, 19165.00
1480.508, 18957.00
1481.548, 18967.00
1482.588, 19023.00
1483.628, 18970.00
1484.668, 19022.00
1485.707, 18819.00
1486.747, 19083.00
1487.786, 19093.00
1488.825, 19150.00
1489.864, 18919.00
1490.902, 18840.00
1491.941, 19201.00
1492.979, 19056.00
1494.017, 19401.00
1495.055, 19232.00
1496.093, 19272.00
1497.131, 19201.00
1498.168, 19198.00
1499.206, 19131.00
1500.243, 19118.00
1501.280, 19310.00
1502.317, 19285.00
1503.354, 19399.00
1504.390, 19126.00
1505.426, 19296.00
1506.463, 19195.00
1507.499, 19142.00
1508.535, 19221.00
1509.570, 19230.00
1510.606, 19312.00
1511.641, 19255.00
1512.676, 19301.00
1513.711, 19206.00
1514.746, 19371.00
1515.781, 19471.00
1516.816, 19320.00
1517.850, 19308.00
1518.884, 19356.00
1519.918, 19414.00
1520.952, 19464.00
1521.986, 19367.00
1523.019, 19331.00
1524.053, 19382.00
1525.086, 19461.00
1526.119, 19436.00
1527.152, 19538.00
1528.185, 19511.00
1529.217, 19475.00
1530.250, 19644.00
1531.282, 19664.00
1532.314, 19562.00
1533.346, 19552.00
1534.377, 19542.00
1535.409, 19481.00
1536.440, 19489.00
1537.472, 19582.00
1538.503, 19625.00
1539.534, 19698.00
1540.564, 19645.00
1541.595, 19722.00
1542.625, 19690.00
1543.656, 19656.00
1544.686, 19718.00
1545.716, 19672.00
1546.745, 19688.00
1547.775, 19759.00
1548.804, 19737.00
1549.834, 19871.00
1550.863, 19824.00
1551.892, 19760.00
1552.920, 20184.00
1553.949, 20230.00
1554.977, 20056.00
1556.006, 19980.00
1557.034, 20079.00
1558.062, 19963.00
1559.089, 19875.00
1560.117, 20016.00
1561.144, 20047.00
1562.172, 20038.00
1563.199, 19871.00
1564.226, 19913.00
1565.252, 19928.00
1566.279, 20139.00
1567.305, 20005.00
1568.332, 20214.00
1569.358, 20325.00
1570.384, 20258.00
##END=



