##NAMES=Andalusite
##RRUFFID=R050561
##IDEAL CHEMISTRY=Al_2_SiO_5_
##LOCALITY=Cargo Muchacho Mountain, Imperial County, California
##OWNER=RRUFF
##SOURCE=Dave Bunk Minerals
##DESCRIPTION=Brown coarsely crystalline massive
##STATUS=The identification of this mineral has been confirmed by X-ray diffraction and chemical analysis
##URL=rruff.info/R050561
##MEASURED CHEMISTRY=(Al_1.98_Fe^3+^_0.02_)_Î£=2_Si_1.00_O_5_
##PIN_ID=M00245
##ORIENTATION=Laser parallel to -b* (0 -1 0). Fiducial mark perpendicular to laser is parallel to -c [0 0 -1]
157.4550, 7687.000
158.6810, 7600.000
159.9080, 7541.000
161.1340, 7800.000
162.3590, 7648.000
163.5850, 7784.516
164.8110, 7906.000
166.0360, 7857.000
167.2610, 8020.000
168.4860, 7898.000
169.7110, 7950.000
170.9360, 8045.000
172.1610, 7941.000
173.3850, 8049.000
174.6100, 7883.000
175.8340, 7962.000
177.0580, 7998.000
178.2820, 8074.000
179.5050, 8095.250
180.7290, 8105.000
181.9520, 8168.000
183.1760, 8139.000
184.3990, 8242.000
185.6220, 8353.000
186.8450, 8447.794
188.0670, 8676.000
189.2900, 8747.000
190.5120, 8963.000
191.7340, 9157.000
192.9560, 9185.000
194.1780, 9216.000
195.4000, 9275.000
196.6220, 9276.000
197.8430, 9365.000
199.0640, 9298.000
200.2860, 9404.000
201.5070, 9707.000
202.7270, 9819.000
203.9480, 9547.000
205.1690, 9184.000
206.3890, 9032.000
207.6090, 8797.000
208.8290, 8706.000
210.0490, 8639.000
211.2690, 8636.000
212.4890, 8564.000
213.7080, 8729.000
214.9280, 8766.000
216.1470, 8697.000
217.3660, 8856.000
218.5850, 8807.000
219.8030, 8591.000
221.0220, 8667.000
222.2400, 8686.000
223.4590, 8663.000
224.6770, 8861.000
225.8950, 8779.000
227.1120, 8715.000
228.3300, 8848.000
229.5480, 8710.000
230.7650, 8714.000
231.9820, 8832.000
233.1990, 8786.000
234.4160, 8860.000
235.6330, 9064.000
236.8490, 8926.000
238.0660, 9199.000
239.2820, 9251.000
240.4980, 9075.000
241.7140, 9286.000
242.9300, 9331.000
244.1460, 9359.000
245.3610, 9309.000
246.5770, 9271.000
247.7920, 9293.000
249.0070, 9260.762
250.2220, 9234.604
251.4370, 9257.000
252.6510, 9207.000
253.8660, 9216.000
255.0800, 9285.000
256.2940, 9303.000
257.5080, 9504.000
258.7220, 9626.000
259.9360, 9673.696
261.1490, 9971.000
262.3630, 9854.000
263.5760, 9831.000
264.7890, 10043.00
266.0020, 10164.00
267.2150, 10461.00
268.4270, 10725.00
269.6400, 11043.00
270.8520, 11204.00
272.0640, 11729.00
273.2760, 12241.00
274.4880, 12940.00
275.7000, 13741.00
276.9120, 14800.00
278.1230, 16190.00
279.3340, 17935.00
280.5450, 20150.00
281.7560, 22542.00
282.9670, 25373.00
284.1780, 28156.00
285.3880, 30431.00
286.5980, 32949.00
287.8090, 35520.00
289.0190, 37907.00
290.2290, 40450.00
291.4380, 41161.00
292.6480, 40331.00
293.8570, 38331.00
295.0670, 34867.00
296.2760, 30416.00
297.4850, 25809.00
298.6930, 22137.00
299.9020, 19146.00
301.1110, 16841.00
302.3190, 15127.00
303.5270, 14182.00
304.7350, 13496.00
305.9430, 13079.00
307.1510, 13175.00
308.3580, 13602.00
309.5660, 14359.00
310.7730, 15602.00
311.9800, 16866.00
313.1870, 18398.00
314.3940, 19274.00
315.6010, 20619.00
316.8070, 22214.00
318.0130, 23698.00
319.2200, 25422.00
320.4260, 26151.00
321.6310, 26539.00
322.8370, 25706.00
324.0430, 23779.00
325.2480, 21358.00
326.4540, 18980.00
327.6590, 17235.00
328.8640, 15601.00
330.0680, 14567.00
331.2730, 13825.00
332.4780, 13160.00
333.6820, 12870.00
334.8860, 12691.00
336.0900, 12492.00
337.2940, 12414.00
338.4980, 12342.00
339.7010, 12392.00
340.9050, 12386.05
342.1080, 12475.00
343.3110, 12671.00
344.5140, 13024.00
345.7170, 13590.00
346.9200, 14291.00
348.1220, 15095.00
349.3240, 16066.00
350.5270, 17063.00
351.7290, 17939.00
352.9310, 18904.00
354.1320, 19614.00
355.3340, 20583.00
356.5350, 21284.00
357.7370, 21600.00
358.9380, 21728.00
360.1390, 21228.00
361.3400, 20323.00
362.5400, 18855.00
363.7410, 17824.00
364.9410, 16426.00
366.1410, 15281.00
367.3410, 14415.00
368.5410, 13722.00
369.7410, 13143.01
370.9400, 12998.00
372.1400, 12488.00
373.3390, 12310.00
374.5380, 12249.00
375.7370, 12048.00
376.9360, 11881.00
378.1350, 11910.00
379.3330, 11669.00
380.5310, 11660.00
381.7300, 11739.00
382.9280, 11589.00
384.1260, 11527.00
385.3230, 11463.00
386.5210, 11459.00
387.7180, 11311.00
388.9160, 11400.00
390.1130, 11146.00
391.3100, 11048.00
392.5060, 11270.00
393.7030, 11144.00
394.9000, 11104.00
396.0960, 10972.00
397.2920, 10975.00
398.4880, 10947.00
399.6840, 10927.00
400.8800, 10959.03
402.0750, 10955.38
403.2710, 10975.00
404.4660, 11031.00
405.6610, 10937.00
406.8560, 11040.00
408.0510, 11163.00
409.2450, 11369.00
410.4400, 11469.00
411.6340, 11592.00
412.8280, 11766.00
414.0220, 11956.00
415.2160, 12229.00
416.4100, 12288.00
417.6030, 12322.00
418.7970, 12204.00
419.9900, 12143.07
421.1830, 12000.00
422.3760, 11821.00
423.5690, 11550.00
424.7610, 11277.00
425.9540, 11324.00
427.1460, 11170.00
428.3380, 11250.00
429.5300, 11222.00
430.7220, 11371.00
431.9140, 11423.00
433.1050, 11389.00
434.2970, 11540.00
435.4880, 11429.00
436.6790, 11757.00
437.8700, 11732.00
439.0610, 11803.00
440.2510, 12032.00
441.4420, 11908.00
442.6320, 12270.00
443.8220, 12240.00
445.0120, 12577.00
446.2020, 12351.00
447.3910, 12471.00
448.5810, 12639.00
449.7700, 13118.00
450.9600, 13248.00
452.1490, 13190.00
453.3370, 13280.00
454.5260, 13016.00
455.7150, 12514.00
456.9030, 12245.00
458.0910, 12041.00
459.2800, 11806.00
460.4670, 11757.00
461.6550, 11815.00
462.8430, 11935.00
464.0300, 11977.00
465.2180, 11976.00
466.4050, 11934.00
467.5920, 12044.00
468.7790, 11966.00
469.9650, 11731.00
471.1520, 11859.00
472.3380, 11782.00
473.5250, 11838.00
474.7110, 11853.00
475.8970, 11928.00
477.0820, 12099.00
478.2680, 12167.00
479.4540, 12077.00
480.6390, 12135.00
481.8240, 11964.00
483.0090, 12144.00
484.1940, 11991.00
485.3780, 11903.00
486.5630, 11888.00
487.7470, 11815.00
488.9320, 11661.30
490.1160, 11425.00
491.3000, 11337.00
492.4830, 11257.00
493.6670, 11129.00
494.8500, 11119.00
496.0340, 11050.00
497.2170, 11157.00
498.4000, 11066.00
499.5820, 11149.00
500.7650, 11263.00
501.9480, 11253.00
503.1300, 11456.00
504.3120, 11476.00
505.4940, 11516.00
506.6760, 11680.00
507.8580, 11825.00
509.0390, 11772.00
510.2210, 11808.00
511.4020, 11894.00
512.5830, 12029.00
513.7640, 12015.00
514.9450, 11949.00
516.1250, 12109.00
517.3060, 11976.00
518.4860, 11901.00
519.6660, 11862.00
520.8460, 11820.70
522.0260, 11807.38
523.2060, 11813.00
524.3850, 11816.00
525.5650, 11815.00
526.7440, 11833.00
527.9230, 11785.00
529.1020, 11850.00
530.2810, 11808.00
531.4590, 11817.00
532.6380, 11927.00
533.8160, 12002.64
534.9940, 12167.00
536.1720, 12282.00
537.3500, 12575.00
538.5270, 12733.00
539.7050, 13259.00
540.8820, 13445.00
542.0590, 13871.00
543.2360, 14477.00
544.4130, 14849.00
545.5900, 15365.00
546.7660, 15833.00
547.9430, 16271.00
549.1190, 16538.00
550.2950, 16852.00
551.4710, 16974.00
552.6470, 16834.00
553.8220, 16320.00
554.9980, 15814.00
556.1730, 15302.00
557.3480, 14723.00
558.5230, 14328.97
559.6980, 13907.10
560.8730, 13611.00
562.0470, 13254.00
563.2220, 13100.00
564.3960, 12916.00
565.5700, 12884.00
566.7440, 12940.00
567.9170, 12847.00
569.0910, 12779.00
570.2640, 12723.00
571.4380, 12655.40
572.6110, 12643.00
573.7840, 12534.00
574.9570, 12493.00
576.1290, 12408.05
577.3020, 12535.00
578.4740, 12331.00
579.6460, 12269.00
580.8180, 12308.00
581.9900, 12091.00
583.1620, 12124.00
584.3330, 12220.00
585.5040, 12002.00
586.6760, 12226.00
587.8470, 12052.00
589.0180, 12079.00
590.1880, 12080.00
591.3590, 12165.00
592.5290, 12189.00
593.7000, 12205.00
594.8700, 12281.00
596.0400, 12196.00
597.2090, 12317.00
598.3790, 12251.00
599.5490, 12446.00
600.7180, 12467.00
601.8870, 12721.00
603.0560, 12669.00
604.2250, 12772.00
605.3940, 13060.00
606.5620, 12908.00
607.7300, 13057.00
608.8990, 12992.00
610.0670, 13015.00
611.2350, 12934.00
612.4020, 13049.00
613.5700, 13100.00
614.7370, 13252.00
615.9050, 13074.00
617.0720, 13057.00
618.2390, 13044.00
619.4060, 13212.00
620.5720, 13092.00
621.7390, 13178.00
622.9050, 13185.00
624.0710, 13227.00
625.2370, 13269.05
626.4030, 13262.00
627.5690, 13281.00
628.7340, 13222.00
629.9000, 13104.00
631.0650, 13175.00
632.2300, 13009.00
633.3950, 13167.00
634.5600, 12861.00
635.7240, 13024.00
636.8890, 12880.00
638.0530, 12908.00
639.2170, 12815.00
640.3810, 12784.00
641.5450, 12723.00
642.7080, 12642.00
643.8720, 12746.00
645.0350, 12751.00
646.1980, 12807.00
647.3610, 12725.51
648.5240, 12557.00
649.6870, 12485.00
650.8490, 12318.00
652.0120, 12134.00
653.1740, 12147.00
654.3360, 12271.00
655.4980, 12195.00
656.6600, 12289.00
657.8210, 12259.00
658.9830, 12235.00
660.1440, 12449.00
661.3050, 12295.00
662.4660, 12234.00
663.6270, 12491.00
664.7870, 12300.00
665.9480, 12278.00
667.1080, 12063.00
668.2680, 12132.00
669.4280, 11933.00
670.5880, 11958.00
671.7480, 12006.00
672.9070, 12096.00
674.0670, 12074.00
675.2260, 12046.00
676.3850, 12214.00
677.5440, 12232.00
678.7030, 12159.00
679.8610, 12186.00
681.0200, 12387.00
682.1780, 12205.00
683.3360, 12364.00
684.4940, 12559.00
685.6520, 12457.00
686.8090, 12407.00
687.9670, 12510.00
689.1240, 12601.00
690.2810, 12508.00
691.4380, 12465.00
692.5950, 12639.00
693.7520, 12585.00
694.9080, 12509.00
696.0650, 12640.00
697.2210, 12586.00
698.3770, 12603.00
699.5330, 12606.00
700.6880, 12694.00
701.8440, 12707.00
702.9990, 12889.00
704.1550, 12892.00
705.3100, 13067.00
706.4650, 13064.22
707.6190, 13044.00
708.7740, 13093.00
709.9290, 13153.00
711.0830, 13232.00
712.2370, 13256.00
713.3910, 13260.00
714.5450, 13233.55
715.6980, 13198.00
716.8520, 13108.00
718.0050, 13059.00
719.1580, 12979.00
720.3110, 12612.00
721.4640, 12279.00
722.6170, 12255.00
723.7700, 12003.00
724.9220, 11774.00
726.0740, 11880.00
727.2260, 11765.00
728.3780, 11652.00
729.5300, 11684.00
730.6810, 11570.00
731.8330, 11476.00
732.9840, 11566.00
734.1350, 11665.00
735.2860, 11717.00
736.4370, 11720.00
737.5880, 11873.00
738.7380, 11923.00
739.8880, 11965.38
741.0390, 11886.00
742.1890, 12045.00
743.3380, 11992.00
744.4880, 12022.00
745.6380, 11889.00
746.7870, 12081.00
747.9360, 11919.00
749.0850, 12040.00
750.2340, 11976.00
751.3830, 11910.00
752.5310, 11847.00
753.6800, 11823.00
754.8280, 11727.00
755.9760, 11750.00
757.1240, 11775.00
758.2720, 11690.00
759.4190, 11730.00
760.5670, 11694.00
761.7140, 11597.00
762.8610, 11534.00
764.0080, 11548.80
765.1550, 11672.00
766.3020, 11569.00
767.4480, 11667.00
768.5950, 11636.00
769.7410, 11512.00
770.8870, 11629.00
772.0330, 11683.00
773.1780, 11586.00
774.3240, 11678.00
775.4690, 11649.00
776.6140, 11695.00
777.7590, 11680.00
778.9040, 11701.00
780.0490, 11747.24
781.1940, 11769.00
782.3380, 11844.00
783.4820, 11839.00
784.6260, 11889.00
785.7700, 11908.00
786.9140, 11931.80
788.0580, 11840.00
789.2010, 11972.00
790.3450, 12034.00
791.4880, 12026.00
792.6310, 12256.00
793.7730, 12273.00
794.9160, 12444.00
796.0590, 12531.00
797.2010, 12704.00
798.3430, 12974.00
799.4850, 13114.00
800.6270, 13275.00
801.7690, 13490.00
802.9100, 13819.00
804.0520, 13869.00
805.1930, 14173.00
806.3340, 14175.00
807.4750, 14324.00
808.6160, 14123.00
809.7560, 14141.00
810.8970, 13999.00
812.0370, 13961.00
813.1770, 13851.00
814.3170, 13940.00
815.4570, 13800.00
816.5960, 13757.00
817.7360, 13741.00
818.8750, 13634.00
820.0140, 13826.00
821.1530, 13677.00
822.2920, 13662.00
823.4310, 13522.00
824.5690, 13505.00
825.7070, 13406.00
826.8460, 13580.00
827.9840, 13440.00
829.1220, 13469.00
830.2590, 13395.00
831.3970, 13499.00
832.5340, 13463.00
833.6710, 13338.00
834.8080, 13260.00
835.9450, 13090.00
837.0820, 12710.00
838.2190, 12759.00
839.3550, 12425.00
840.4910, 12457.00
841.6270, 12101.00
842.7630, 12075.00
843.8990, 12040.00
845.0350, 12063.00
846.1700, 11995.00
847.3060, 11920.00
848.4410, 11861.00
849.5760, 11974.00
850.7100, 11912.00
851.8450, 11830.00
852.9800, 11986.00
854.1140, 11987.00
855.2480, 11797.00
856.3820, 11999.00
857.5160, 11987.00
858.6500, 11971.00
859.7830, 12071.00
860.9170, 12143.00
862.0500, 12099.00
863.1830, 12210.00
864.3160, 12012.00
865.4480, 12079.00
866.5810, 12179.00
867.7130, 12236.00
868.8460, 12301.00
869.9780, 12193.00
871.1100, 12262.00
872.2410, 12409.00
873.3730, 12517.00
874.5050, 12383.00
875.6360, 12484.00
876.7670, 12424.00
877.8980, 12527.00
879.0290, 12591.00
880.1590, 12623.00
881.2900, 12584.00
882.4200, 12711.00
883.5500, 12725.76
884.6800, 12747.00
885.8100, 12901.00
886.9400, 12987.00
888.0690, 13198.00
889.1990, 13088.00
890.3280, 13279.00
891.4570, 13338.00
892.5860, 13506.00
893.7140, 13765.00
894.8430, 14004.00
895.9710, 14146.00
897.1000, 14363.00
898.2280, 14509.00
899.3560, 14956.00
900.4830, 15378.00
901.6110, 15898.00
902.7380, 16494.00
903.8660, 17101.00
904.9930, 17902.00
906.1200, 19322.00
907.2460, 20913.00
908.3730, 23143.00
909.5000, 25909.00
910.6260, 29738.00
911.7520, 34579.00
912.8780, 39359.00
914.0040, 44676.00
915.1290, 49472.00
916.2550, 53672.00
917.3800, 56675.00
918.5050, 58052.00
919.6300, 56893.00
920.7550, 53673.00
921.8800, 48861.00
923.0040, 43284.00
924.1290, 38597.00
925.2530, 34803.00
926.3770, 31931.00
927.5010, 29608.00
928.6250, 27676.00
929.7480, 25847.00
930.8720, 24060.00
931.9950, 22282.00
933.1180, 20801.00
934.2410, 19732.00
935.3640, 18535.00
936.4860, 18056.00
937.6090, 17210.00
938.7310, 16715.00
939.8530, 16360.00
940.9750, 15971.00
942.0970, 15807.00
943.2180, 15993.00
944.3400, 15775.00
945.4610, 15955.00
946.5820, 15946.00
947.7030, 16061.00
948.8240, 15898.00
949.9450, 15891.00
951.0650, 15747.00
952.1860, 15479.00
953.3060, 15209.00
954.4260, 15073.00
955.5460, 14635.00
956.6650, 14338.00
957.7850, 14177.00
958.9040, 14034.00
960.0230, 13882.00
961.1420, 13718.00
962.2610, 13715.00
963.3800, 13593.00
964.4990, 13425.00
965.6170, 13469.00
966.7350, 13417.00
967.8530, 13488.00
968.9710, 13431.00
970.0890, 13424.00
971.2070, 13532.00
972.3240, 13493.00
973.4410, 13486.00
974.5580, 13695.00
975.6750, 13689.00
976.7920, 13705.00
977.9090, 13724.00
979.0250, 13710.00
980.1410, 13644.85
981.2580, 13539.00
982.3740, 13500.00
983.4890, 13460.00
984.6050, 13454.00
985.7200, 13563.00
986.8360, 13689.00
987.9510, 13622.00
989.0660, 13664.55
990.1810, 13562.00
991.2950, 13602.00
992.4100, 13635.00
993.5240, 13620.00
994.6390, 13778.00
995.7530, 13887.00
996.8660, 13796.00
997.9800, 14265.00
999.0940, 14466.00
1000.207, 14594.00
1001.320, 15131.00
1002.433, 15292.00
1003.546, 15817.00
1004.659, 15866.00
1005.772, 16374.00
1006.884, 16387.00
1007.996, 16958.00
1009.108, 17387.00
1010.220, 17565.00
1011.332, 17609.00
1012.444, 17664.00
1013.555, 17547.00
1014.666, 17591.00
1015.777, 17689.00
1016.888, 17892.00
1017.999, 18090.00
1019.110, 17883.00
1020.220, 17753.00
1021.331, 17617.00
1022.441, 17128.00
1023.551, 16793.00
1024.661, 16304.00
1025.770, 16174.00
1026.880, 15971.00
1027.989, 15568.00
1029.098, 15299.00
1030.207, 15091.96
1031.316, 15011.00
1032.425, 14743.00
1033.533, 14664.00
1034.642, 14606.00
1035.750, 14530.00
1036.858, 14393.00
1037.966, 14361.00
1039.073, 14403.00
1040.181, 14447.00
1041.288, 14265.00
1042.396, 14313.00
1043.503, 14302.00
1044.610, 14402.00
1045.716, 14334.00
1046.823, 14570.00
1047.929, 14573.00
1049.036, 14862.00
1050.142, 14806.00
1051.248, 15050.00
1052.353, 15364.00
1053.459, 15788.00
1054.564, 16222.00
1055.670, 17079.00
1056.775, 18043.00
1057.880, 19275.00
1058.985, 20350.00
1060.089, 21535.00
1061.194, 23122.00
1062.298, 23834.00
1063.402, 24412.00
1064.506, 24312.00
1065.610, 22995.00
1066.713, 21905.00
1067.817, 20517.00
1068.920, 19134.00
1070.023, 17990.00
1071.126, 17123.00
1072.229, 16622.00
1073.332, 15961.00
1074.435, 15830.00
1075.537, 15438.00
1076.639, 15263.00
1077.741, 15042.00
1078.843, 14860.00
1079.945, 14843.00
1081.046, 14830.00
1082.148, 14811.00
1083.249, 14696.00
1084.350, 14612.00
1085.451, 14774.00
1086.551, 14609.00
1087.652, 14608.00
1088.752, 14592.00
1089.853, 14482.00
1090.953, 14517.00
1092.053, 14422.00
1093.152, 14387.82
1094.252, 14449.00
1095.351, 14339.00
1096.451, 14451.00
1097.550, 14518.00
1098.649, 14485.00
1099.748, 14588.47
1100.846, 14532.00
1101.945, 14714.00
1103.043, 14707.00
1104.141, 14793.00
1105.239, 14693.00
1106.337, 14801.00
1107.434, 14969.00
1108.532, 15053.00
1109.629, 14965.00
1110.726, 14845.00
1111.823, 14680.00
1112.920, 14570.20
1114.017, 14415.53
1115.113, 14388.00
1116.210, 14117.00
1117.306, 14206.00
1118.402, 14071.00
1119.498, 14128.00
1120.593, 14110.00
1121.689, 14144.00
1122.784, 14130.73
1123.879, 14113.00
1124.974, 14089.00
1126.069, 14086.00
1127.164, 14056.00
1128.259, 13926.00
1129.353, 13903.00
1130.447, 13885.00
1131.541, 13890.00
1132.635, 13894.35
1133.729, 13881.90
1134.822, 13956.00
1135.916, 13861.00
1137.009, 13940.00
1138.102, 13923.00
1139.195, 13905.00
1140.288, 13932.00
1141.380, 13941.00
1142.473, 13950.00
1143.565, 13854.00
1144.657, 13991.00
1145.749, 13863.00
1146.841, 13866.00
1147.932, 13900.00
1149.024, 13860.00
1150.115, 13938.00
1151.206, 13925.00
1152.297, 13846.00
1153.388, 13889.00
1154.479, 13949.00
1155.569, 13951.00
1156.659, 14024.00
1157.750, 13930.00
1158.839, 13892.00
1159.929, 13928.00
1161.019, 13890.00
1162.108, 13935.03
1163.198, 13945.38
1164.287, 14012.00
1165.376, 13994.00
1166.465, 14006.00
1167.553, 14037.00
1168.642, 14024.00
1169.730, 14105.00
1170.818, 14067.00
1171.906, 13912.00
1172.994, 14071.00
1174.082, 13849.00
1175.170, 14104.00
1176.257, 13973.00
1177.344, 14047.00
1178.431, 14042.00
1179.518, 13898.00
1180.605, 14180.00
1181.691, 14031.00
1182.778, 14095.00
1183.864, 14028.00
1184.950, 14041.00
1186.036, 14042.00
1187.122, 14191.00
1188.207, 14197.00
1189.292, 14129.00
1190.378, 14043.00
1191.463, 14158.00
1192.548, 14043.00
1193.632, 14172.00
1194.717, 14021.00
1195.801, 14080.00
1196.886, 14117.00
1197.970, 14135.00
1199.054, 14042.00
1200.137, 14180.00
1201.221, 14050.00
1202.305, 14065.00
1203.388, 14197.00
1204.471, 14226.00
1205.554, 14195.00
1206.637, 14261.00
1207.719, 14146.00
1208.802, 14141.00
1209.884, 14066.00
1210.966, 14156.00
1212.048, 14157.00
1213.130, 14237.00
1214.212, 14313.00
1215.293, 14208.00
1216.374, 14371.00
1217.456, 14247.00
1218.536, 14380.00
1219.617, 14136.00
1220.698, 14149.00
1221.778, 14390.00
1222.859, 14274.00
1223.939, 14182.00
1225.019, 14231.00
1226.099, 14301.00
1227.178, 14225.00
1228.258, 14299.00
1229.337, 14172.00
1230.417, 14279.00
1231.496, 14296.00
1232.574, 14219.00
1233.653, 14410.00
1234.732, 14229.00
1235.810, 14406.00
1236.888, 14381.00
1237.966, 14304.00
1239.044, 14267.00
1240.122, 14387.00
1241.199, 14312.00
1242.277, 14384.00
1243.354, 14402.56
1244.431, 14210.00
1245.508, 14389.00
1246.585, 14345.00
1247.661, 14219.00
1248.738, 14320.00
1249.814, 14364.00
1250.890, 14380.00
1251.966, 14365.00
1253.042, 14390.00
1254.117, 14496.00
1255.193, 14444.00
1256.268, 14476.00
1257.343, 14441.00
1258.418, 14333.00
1259.493, 14447.00
1260.567, 14374.00
1261.642, 14510.00
1262.716, 14440.00
1263.790, 14486.00
1264.864, 14391.00
1265.938, 14522.00
1267.011, 14410.00
1268.085, 14348.00
1269.158, 14557.00
1270.231, 14518.00
1271.304, 14609.00
1272.377, 14566.00
1273.450, 14434.00
1274.522, 14462.00
1275.594, 14569.00
1276.666, 14507.00
1277.738, 14648.00
1278.810, 14506.00
1279.882, 14540.00
1280.953, 14657.00
1282.025, 14568.00
1283.096, 14568.00
1284.167, 14591.00
1285.238, 14595.00
1286.308, 14583.47
1287.379, 14606.00
1288.449, 14563.00
1289.519, 14687.00
1290.589, 14710.00
1291.659, 14477.00
1292.729, 14691.00
1293.798, 14604.00
1294.868, 14510.00
1295.937, 14552.00
1297.006, 14678.00
1298.075, 14560.00
1299.143, 14668.00
1300.212, 14553.00
1301.280, 14571.00
1302.348, 14616.00
1303.416, 14807.00
1304.484, 14674.00
1305.552, 14822.00
1306.620, 14694.00
1307.687, 14758.00
1308.754, 14809.00
1309.821, 14898.00
1310.888, 14802.00
1311.955, 14840.00
1313.021, 14748.00
1314.088, 14730.00
1315.154, 14773.00
1316.220, 14778.00
1317.286, 14791.00
1318.352, 14724.00
1319.417, 14815.00
1320.483, 14776.00
1321.548, 14877.00
1322.613, 14874.00
1323.678, 14832.00
1324.743, 14846.00
1325.807, 14760.00
1326.872, 14840.00
1327.936, 14774.00
1329.000, 14743.00
1330.064, 14799.00
1331.128, 14890.00
1332.191, 14762.00
1333.255, 14758.00
1334.318, 14715.00
1335.381, 14827.00
1336.444, 14831.00
1337.507, 14919.00
1338.569, 14898.00
1339.632, 14953.35
1340.694, 14818.00
1341.756, 14969.00
1342.818, 14916.00
1343.880, 14783.00
1344.941, 15019.00
1346.003, 14820.00
1347.064, 14958.00
1348.125, 14999.00
1349.186, 14977.00
1350.247, 14881.00
1351.308, 15057.00
1352.368, 14934.00
1353.428, 14942.00
1354.489, 14938.00
1355.549, 15013.00
1356.608, 15006.04
1357.668, 15075.00
1358.727, 15049.00
1359.787, 15010.00
1360.846, 15042.00
1361.905, 15114.00
1362.964, 15072.00
1364.022, 15062.00
1365.081, 15099.00
1366.139, 15016.00
1367.197, 15026.00
1368.255, 15081.00
1369.313, 15206.00
1370.371, 15232.00
1371.428, 15241.86
1372.486, 15192.00
1373.543, 15173.00
1374.600, 15081.00
1375.657, 14970.00
1376.713, 15154.00
1377.770, 15218.00
1378.826, 15294.00
1379.882, 15183.00
1380.938, 15194.44
1381.994, 15354.00
1383.050, 15110.00
1384.106, 15141.00
1385.161, 15191.00
1386.216, 15339.00
1387.271, 15213.00
1388.326, 15162.00
1389.381, 15325.00
1390.435, 15370.00
1391.490, 15202.00
1392.544, 15380.00
1393.598, 15305.00
1394.652, 15226.00
1395.705, 15251.00
1396.759, 15170.00
1397.812, 15287.00
1398.866, 15263.00
1399.919, 15195.00
1400.972, 15212.00
1402.024, 15323.00
1403.077, 15332.00
1404.129, 15341.00
1405.181, 15318.00
1406.233, 15395.00
1407.285, 15366.00
1408.337, 15363.00
1409.389, 15346.00
1410.440, 15404.00
1411.491, 15271.00
1412.542, 15373.00
1413.593, 15330.00
1414.644, 15474.00
1415.695, 15398.00
1416.745, 15294.00
1417.795, 15346.00
1418.845, 15382.00
1419.895, 15411.00
1420.945, 15387.00
1421.995, 15424.00
1423.044, 15375.00
1424.093, 15453.00
1425.142, 15485.00
1426.191, 15442.00
1427.240, 15471.00
1428.289, 15489.00
1429.337, 15455.60
1430.385, 15499.17
1431.433, 15453.00
1432.481, 15507.00
1433.529, 15481.00
1434.577, 15521.00
1435.624, 15465.00
1436.672, 15474.00
1437.719, 15503.62
1438.766, 15501.69
1439.812, 15671.00
1440.859, 15579.00
1441.905, 15701.00
1442.952, 15802.00
1443.998, 15783.00
1445.044, 15795.00
1446.090, 15834.03
1447.135, 15664.00
1448.181, 15820.00
1449.226, 15761.00
1450.271, 15641.00
1451.316, 15684.00
1452.361, 15762.00
1453.405, 15683.00
1454.450, 15667.00
1455.494, 15751.00
1456.538, 15787.00
1457.582, 15841.00
1458.626, 15838.01
1459.670, 15741.00
1460.713, 15827.00
1461.757, 15788.00
1462.800, 15831.00
1463.843, 15939.00
1464.886, 15829.00
1465.928, 15770.00
1466.971, 15808.00
1468.013, 15774.00
1469.055, 15731.00
1470.097, 15761.68
1471.139, 15644.00
1472.181, 15785.00
1473.222, 15818.00
1474.263, 15832.00
1475.305, 15764.00
1476.346, 15798.00
1477.386, 15762.00
1478.427, 15919.00
1479.468, 15771.00
1480.508, 15766.00
1481.548, 15741.00
1482.588, 15894.00
1483.628, 15847.00
1484.668, 16052.00
1485.707, 15801.00
1486.747, 15682.00
1487.786, 15888.00
1488.825, 16012.00
1489.864, 15719.00
1490.902, 16020.00
1491.941, 15863.00
1492.979, 15846.00
1494.017, 15983.00
1495.055, 16030.00
1496.093, 16141.00
1497.131, 15963.00
1498.168, 16025.00
1499.206, 15937.00
1500.243, 15859.00
1501.280, 16066.00
1502.317, 16054.00
1503.354, 16044.00
1504.390, 16135.00
1505.426, 16077.00
1506.463, 16088.68
1507.499, 16075.00
1508.535, 16060.00
1509.570, 16027.00
1510.606, 16035.00
1511.641, 16002.00
1512.676, 16084.00
1513.711, 16102.00
1514.746, 16047.00
1515.781, 16155.00
1516.816, 16099.00
1517.850, 16153.00
1518.884, 16201.00
1519.918, 16036.00
1520.952, 16111.00
1521.986, 16130.00
1523.019, 16169.00
1524.053, 16158.00
1525.086, 16203.00
1526.119, 16120.00
1527.152, 16274.00
1528.185, 16260.00
1529.217, 16385.00
1530.250, 16179.00
1531.282, 16296.00
1532.314, 16272.00
1533.346, 16141.00
1534.377, 16119.00
1535.409, 16206.00
1536.440, 16324.00
1537.472, 16174.00
1538.503, 16293.00
1539.534, 16267.00
1540.564, 16344.00
1541.595, 16458.00
1542.625, 16425.00
1543.656, 16514.00
1544.686, 16406.00
1545.716, 16504.00
1546.745, 16482.20
1547.775, 16374.00
1548.804, 16444.00
1549.834, 16450.00
1550.863, 16351.00
1551.892, 16638.00
1552.920, 16652.00
1553.949, 16869.00
1554.977, 16721.00
1556.006, 16569.00
1557.034, 16586.00
1558.062, 16510.00
1559.089, 16579.00
1560.117, 16656.00
1561.144, 16582.00
1562.172, 16687.00
1563.199, 16494.00
1564.226, 16424.00
1565.252, 16563.00
1566.279, 16638.00
1567.305, 16590.00
1568.332, 16591.00
1569.358, 16580.00
1570.384, 16799.00
##END=



