##NAMES=Andalusite
##RRUFFID=R060197
##IDEAL CHEMISTRY=Al_2_SiO_5_
##LOCALITY=Brazil
##OWNER=RRUFF
##SOURCE=Marcus Origlieri
##DESCRIPTION=Green colored water worn pebble
##STATUS=The identification of this mineral has been confirmed by X-ray diffraction and chemical analysis
##URL=rruff.info/R060197
##MEASURED CHEMISTRY=(Al_1.97_Mn^3+^_0.03_)_Î£=2_Si_1.00_O_5_
##PIN_ID=M00401
##ORIENTATION=Laser parallel to c* (0 0 1). Fiducial mark perpendicular to laser is parallel to a [1 0 0]
91.01200, 4132.000
92.24600, 4514.000
93.48000, 4331.000
94.71400, 4282.000
95.94800, 4461.000
97.18200, 4342.000
98.41600, 4443.000
99.64900, 4703.000
100.8830, 4703.000
102.1160, 4637.000
103.3490, 5026.000
104.5820, 5443.000
105.8150, 6058.000
107.0470, 6602.000
108.2800, 7475.000
109.5120, 8287.000
110.7440, 7687.000
111.9760, 6648.000
113.2080, 7288.000
114.4400, 6313.000
115.6710, 6429.000
116.9030, 6426.000
118.1340, 5515.000
119.3650, 5000.000
120.5960, 4769.000
121.8270, 4765.000
123.0580, 4960.000
124.2880, 4970.000
125.5190, 4620.000
126.7490, 4569.000
127.9790, 4592.000
129.2090, 4841.000
130.4390, 4936.000
131.6680, 4812.000
132.8980, 5061.000
134.1270, 4648.000
135.3560, 4755.000
136.5850, 4825.000
137.8140, 4802.000
139.0430, 4884.789
140.2710, 4842.788
141.5000, 4944.000
142.7280, 4779.000
143.9560, 4757.000
145.1840, 4745.000
146.4120, 4708.809
147.6390, 4736.404
148.8670, 4806.000
150.0940, 4862.000
151.3210, 5065.000
152.5490, 5296.000
153.7750, 5279.000
155.0020, 5224.000
156.2290, 5055.000
157.4550, 5036.000
158.6810, 5080.000
159.9080, 5190.000
161.1340, 5296.000
162.3590, 5540.000
163.5850, 5818.000
164.8110, 5988.000
166.0360, 6320.000
167.2610, 6316.000
168.4860, 6334.000
169.7110, 6443.000
170.9360, 6660.000
172.1610, 6533.000
173.3850, 6774.000
174.6100, 6767.000
175.8340, 6766.000
177.0580, 6766.000
178.2820, 6575.000
179.5050, 6569.000
180.7290, 6451.000
181.9520, 6435.000
183.1760, 6377.000
184.3990, 6551.000
185.6220, 6993.000
186.8450, 7324.000
188.0670, 7603.000
189.2900, 7775.000
190.5120, 8029.000
191.7340, 8332.000
192.9560, 8654.000
194.1780, 9188.000
195.4000, 9654.000
196.6220, 10019.00
197.8430, 9940.000
199.0640, 9604.000
200.2860, 9031.000
201.5070, 8526.000
202.7270, 8145.000
203.9480, 7625.000
205.1690, 6763.000
206.3890, 6299.000
207.6090, 6045.000
208.8290, 6139.000
210.0490, 5982.000
211.2690, 6081.000
212.4890, 6015.000
213.7080, 6338.000
214.9280, 6513.000
216.1470, 6518.000
217.3660, 6459.000
218.5850, 6488.000
219.8030, 6195.000
221.0220, 5958.000
222.2400, 5709.000
223.4590, 5566.000
224.6770, 5491.000
225.8950, 5472.000
227.1120, 5447.000
228.3300, 5578.000
229.5480, 5700.000
230.7650, 5828.000
231.9820, 6018.000
233.1990, 6141.000
234.4160, 6302.000
235.6330, 6591.000
236.8490, 6684.000
238.0660, 6941.000
239.2820, 7111.000
240.4980, 7094.000
241.7140, 7321.000
242.9300, 7375.000
244.1460, 7411.000
245.3610, 7493.000
246.5770, 7466.000
247.7920, 7578.000
249.0070, 7750.000
250.2220, 8205.455
251.4370, 8929.000
252.6510, 9448.000
253.8660, 10410.00
255.0800, 11295.00
256.2940, 11082.00
257.5080, 11412.00
258.7220, 12401.00
259.9360, 14385.00
261.1490, 15603.00
262.3630, 16658.00
263.5760, 18067.00
264.7890, 18724.00
266.0020, 18164.00
267.2150, 17010.00
268.4270, 15634.00
269.6400, 15321.00
270.8520, 15958.00
272.0640, 17202.00
273.2760, 18585.00
274.4880, 20621.00
275.7000, 23120.00
276.9120, 26292.00
278.1230, 29223.00
279.3340, 32847.00
280.5450, 36666.00
281.7560, 40242.00
282.9670, 43447.00
284.1780, 46006.00
285.3880, 47594.00
286.5980, 48793.00
287.8090, 49647.00
289.0190, 49873.00
290.2290, 49117.00
291.4380, 47077.00
292.6480, 44152.00
293.8570, 40232.00
295.0670, 35503.00
296.2760, 30700.00
297.4850, 26432.00
298.6930, 22854.00
299.9020, 19954.00
301.1110, 17955.00
302.3190, 16402.00
303.5270, 15715.00
304.7350, 15574.00
305.9430, 15587.00
307.1510, 16146.00
308.3580, 17583.00
309.5660, 19215.00
310.7730, 20932.00
311.9800, 22027.00
313.1870, 23206.00
314.3940, 23817.00
315.6010, 24608.00
316.8070, 25459.00
318.0130, 26031.00
319.2200, 26499.00
320.4260, 26060.00
321.6310, 25246.00
322.8370, 23624.00
324.0430, 21473.00
325.2480, 19538.00
326.4540, 17934.00
327.6590, 16681.00
328.8640, 15818.00
330.0680, 15193.00
331.2730, 14889.00
332.4780, 14630.00
333.6820, 14668.00
334.8860, 14516.00
336.0900, 14592.00
337.2940, 14591.00
338.4980, 14910.00
339.7010, 15319.00
340.9050, 15770.00
342.1080, 16513.00
343.3110, 17383.00
344.5140, 18535.00
345.7170, 20274.00
346.9200, 21912.00
348.1220, 23724.00
349.3240, 25939.00
350.5270, 27171.00
351.7290, 28591.00
352.9310, 29835.00
354.1320, 30537.00
355.3340, 30808.00
356.5350, 31401.00
357.7370, 30567.00
358.9380, 29611.00
360.1390, 28189.00
361.3400, 25921.00
362.5400, 23873.00
363.7410, 21109.00
364.9410, 19046.00
366.1410, 17035.00
367.3410, 15394.00
368.5410, 14381.00
369.7410, 13342.00
370.9400, 12750.00
372.1400, 12157.00
373.3390, 11703.00
374.5380, 11297.00
375.7370, 10921.00
376.9360, 10610.00
378.1350, 10398.00
379.3330, 10279.00
380.5310, 10100.00
381.7300, 10054.00
382.9280, 9810.000
384.1260, 9632.000
385.3230, 9446.000
386.5210, 9183.000
387.7180, 9159.000
388.9160, 8912.000
390.1130, 8861.000
391.3100, 8745.000
392.5060, 8590.000
393.7030, 8511.000
394.9000, 8337.000
396.0960, 8200.000
397.2920, 8067.000
398.4880, 7867.000
399.6840, 7744.000
400.8800, 7781.000
402.0750, 7627.000
403.2710, 7670.000
404.4660, 7652.000
405.6610, 7591.000
406.8560, 7598.000
408.0510, 7709.000
409.2450, 7742.000
410.4400, 7719.000
411.6340, 7773.000
412.8280, 7674.000
414.0220, 7671.000
415.2160, 7788.000
416.4100, 7803.000
417.6030, 7704.000
418.7970, 7762.000
419.9900, 7760.000
421.1830, 7739.000
422.3760, 7757.000
423.5690, 7689.000
424.7610, 7788.000
425.9540, 7709.000
427.1460, 7711.000
428.3380, 7727.000
429.5300, 7761.000
430.7220, 7736.000
431.9140, 7844.000
433.1050, 7806.000
434.2970, 7817.000
435.4880, 7989.000
436.6790, 8024.000
437.8700, 8129.000
439.0610, 8201.000
440.2510, 8360.000
441.4420, 8731.000
442.6320, 9002.000
443.8220, 9452.000
445.0120, 9458.000
446.2020, 9452.000
447.3910, 9486.000
448.5810, 9722.000
449.7700, 9821.000
450.9600, 9712.000
452.1490, 9880.000
453.3370, 9639.000
454.5260, 9490.000
455.7150, 8993.000
456.9030, 8667.000
458.0910, 8466.000
459.2800, 8358.000
460.4670, 8369.000
461.6550, 8493.000
462.8430, 8651.000
464.0300, 8652.000
465.2180, 8714.000
466.4050, 8905.000
467.5920, 8897.000
468.7790, 9036.000
469.9650, 9117.000
471.1520, 8999.000
472.3380, 9057.000
473.5250, 9050.000
474.7110, 9046.000
475.8970, 8948.000
477.0820, 9061.000
478.2680, 8858.000
479.4540, 8976.000
480.6390, 8863.000
481.8240, 8797.000
483.0090, 8750.000
484.1940, 8620.000
485.3780, 8553.000
486.5630, 8465.000
487.7470, 8379.000
488.9320, 8249.000
490.1160, 8116.000
491.3000, 8097.000
492.4830, 8019.000
493.6670, 7872.000
494.8500, 7950.000
496.0340, 8103.000
497.2170, 7887.000
498.4000, 8091.000
499.5820, 7842.000
500.7650, 8067.000
501.9480, 8059.000
503.1300, 8072.000
504.3120, 8205.000
505.4940, 8188.000
506.6760, 8357.000
507.8580, 8375.000
509.0390, 8389.000
510.2210, 8532.000
511.4020, 8529.000
512.5830, 8639.000
513.7640, 8574.000
514.9450, 8623.000
516.1250, 8628.000
517.3060, 8681.000
518.4860, 8640.000
519.6660, 8741.000
520.8460, 8680.000
522.0260, 8747.000
523.2060, 8640.000
524.3850, 8765.000
525.5650, 8838.000
526.7440, 8930.000
527.9230, 9014.000
529.1020, 9093.000
530.2810, 9069.000
531.4590, 9166.000
532.6380, 9368.000
533.8160, 9689.000
534.9940, 10078.11
536.1720, 10499.00
537.3500, 11124.00
538.5270, 11756.00
539.7050, 12424.00
540.8820, 13263.00
542.0590, 14166.00
543.2360, 14582.00
544.4130, 15324.00
545.5900, 15416.00
546.7660, 15636.00
547.9430, 15841.00
549.1190, 15704.00
550.2950, 15234.00
551.4710, 14784.00
552.6470, 13954.00
553.8220, 13167.00
554.9980, 12543.00
556.1730, 12082.00
557.3480, 11634.00
558.5230, 11282.00
559.6980, 11160.00
560.8730, 10989.00
562.0470, 11099.00
563.2220, 11262.00
564.3960, 11204.00
565.5700, 11353.00
566.7440, 11471.00
567.9170, 11534.00
569.0910, 11519.00
570.2640, 11654.00
571.4380, 11494.00
572.6110, 11268.00
573.7840, 11289.00
574.9570, 11011.00
576.1290, 10711.00
577.3020, 10587.00
578.4740, 10580.00
579.6460, 10195.00
580.8180, 10183.00
581.9900, 10042.00
583.1620, 10226.00
584.3330, 10068.00
585.5040, 10047.00
586.6760, 10192.00
587.8470, 10184.00
589.0180, 10244.00
590.1880, 10290.00
591.3590, 10340.13
592.5290, 10417.00
593.7000, 10478.00
594.8700, 10543.00
596.0400, 10622.78
597.2090, 10665.83
598.3790, 10711.00
599.5490, 10716.00
600.7180, 10705.00
601.8870, 10631.00
603.0560, 10631.46
604.2250, 10532.00
605.3940, 10550.00
606.5620, 10484.00
607.7300, 10380.00
608.8990, 10250.00
610.0670, 10179.00
611.2350, 10250.00
612.4020, 10140.00
613.5700, 10080.00
614.7370, 10237.00
615.9050, 10092.00
617.0720, 10031.00
618.2390, 10075.00
619.4060, 9993.000
620.5720, 10025.00
621.7390, 9981.000
622.9050, 9928.000
624.0710, 9940.000
625.2370, 9890.000
626.4030, 9778.000
627.5690, 9570.000
628.7340, 9621.000
629.9000, 9495.000
631.0650, 9529.000
632.2300, 9484.000
633.3950, 9526.000
634.5600, 9316.000
635.7240, 9401.000
636.8890, 9355.000
638.0530, 9478.000
639.2170, 9446.000
640.3810, 9443.000
641.5450, 9456.000
642.7080, 9551.000
643.8720, 9572.000
645.0350, 9563.000
646.1980, 9623.000
647.3610, 9461.000
648.5240, 9449.000
649.6870, 9352.000
650.8490, 9347.000
652.0120, 9237.000
653.1740, 9204.000
654.3360, 9259.000
655.4980, 9260.000
656.6600, 9198.000
657.8210, 9218.000
658.9830, 9222.215
660.1440, 9299.000
661.3050, 9300.000
662.4660, 9340.000
663.6270, 9453.000
664.7870, 9587.000
665.9480, 9490.000
667.1080, 9518.000
668.2680, 9447.000
669.4280, 9579.000
670.5880, 9624.268
671.7480, 9910.000
672.9070, 9827.000
674.0670, 9998.000
675.2260, 10102.00
676.3850, 10208.00
677.5440, 10291.00
678.7030, 10351.00
679.8610, 10409.00
681.0200, 10524.00
682.1780, 10535.00
683.3360, 10697.00
684.4940, 10741.00
685.6520, 10930.00
686.8090, 10917.00
687.9670, 11140.00
689.1240, 11140.00
690.2810, 11286.00
691.4380, 11420.00
692.5950, 11643.00
693.7520, 11855.00
694.9080, 12018.00
696.0650, 12268.00
697.2210, 12598.00
698.3770, 12956.00
699.5330, 13433.00
700.6880, 14041.00
701.8440, 14304.00
702.9990, 14879.00
704.1550, 15366.00
705.3100, 15816.00
706.4650, 16096.00
707.6190, 16148.00
708.7740, 16026.00
709.9290, 15692.00
711.0830, 15421.00
712.2370, 14832.00
713.3910, 14404.00
714.5450, 13699.00
715.6980, 13344.00
716.8520, 12725.00
718.0050, 12302.00
719.1580, 12040.00
720.3110, 11721.00
721.4640, 11135.00
722.6170, 10861.00
723.7700, 10506.00
724.9220, 10432.00
726.0740, 10199.00
727.2260, 10036.00
728.3780, 9844.000
729.5300, 9986.000
730.6810, 9722.000
731.8330, 9723.000
732.9840, 9912.000
734.1350, 9875.000
735.2860, 9964.000
736.4370, 9870.000
737.5880, 10091.00
738.7380, 10240.00
739.8880, 10263.00
741.0390, 10515.00
742.1890, 10443.00
743.3380, 10645.00
744.4880, 10681.00
745.6380, 10851.00
746.7870, 10994.00
747.9360, 11021.00
749.0850, 11059.00
750.2340, 11177.00
751.3830, 11091.00
752.5310, 11138.00
753.6800, 11148.00
754.8280, 11201.00
755.9760, 11157.00
757.1240, 11075.00
758.2720, 11142.00
759.4190, 11015.00
760.5670, 10986.00
761.7140, 10907.00
762.8610, 10897.00
764.0080, 10800.00
765.1550, 10857.00
766.3020, 10724.00
767.4480, 10868.00
768.5950, 10970.00
769.7410, 11025.00
770.8870, 11016.00
772.0330, 11132.00
773.1780, 11173.00
774.3240, 11420.00
775.4690, 11483.00
776.6140, 11816.00
777.7590, 12141.00
778.9040, 12427.00
780.0490, 12817.00
781.1940, 13203.00
782.3380, 13777.00
783.4820, 14355.00
784.6260, 14791.00
785.7700, 15289.00
786.9140, 15840.00
788.0580, 16339.00
789.2010, 16544.00
790.3450, 16599.00
791.4880, 16681.00
792.6310, 16164.00
793.7730, 15962.00
794.9160, 15911.00
796.0590, 15129.00
797.2010, 14641.00
798.3430, 14122.00
799.4850, 13698.00
800.6270, 13208.00
801.7690, 12950.00
802.9100, 12456.00
804.0520, 12366.00
805.1930, 11890.00
806.3340, 11669.00
807.4750, 11727.00
808.6160, 11508.00
809.7560, 11444.00
810.8970, 11429.00
812.0370, 11381.00
813.1770, 11274.00
814.3170, 11215.00
815.4570, 11254.00
816.5960, 11100.00
817.7360, 10837.00
818.8750, 10647.00
820.0140, 10690.00
821.1530, 10384.00
822.2920, 10237.00
823.4310, 10364.00
824.5690, 10325.00
825.7070, 10131.00
826.8460, 10288.00
827.9840, 10288.00
829.1220, 10387.00
830.2590, 10330.00
831.3970, 10267.00
832.5340, 10290.00
833.6710, 10415.00
834.8080, 10214.00
835.9450, 10310.00
837.0820, 10365.00
838.2190, 10288.00
839.3550, 10326.00
840.4910, 10290.00
841.6270, 10277.00
842.7630, 10234.00
843.8990, 10202.00
845.0350, 10037.00
846.1700, 9914.000
847.3060, 9902.000
848.4410, 9924.000
849.5760, 9946.000
850.7100, 10030.00
851.8450, 10054.00
852.9800, 10133.00
854.1140, 10118.00
855.2480, 10063.00
856.3820, 10235.00
857.5160, 10182.00
858.6500, 10259.00
859.7830, 10318.00
860.9170, 10340.00
862.0500, 10410.00
863.1830, 10475.00
864.3160, 10643.00
865.4480, 10684.00
866.5810, 10860.00
867.7130, 10835.00
868.8460, 10946.00
869.9780, 11002.00
871.1100, 10904.00
872.2410, 11006.00
873.3730, 11066.00
874.5050, 11149.00
875.6360, 11074.00
876.7670, 11111.00
877.8980, 11122.87
879.0290, 11168.00
880.1590, 11152.00
881.2900, 11151.00
882.4200, 11177.00
883.5500, 11379.00
884.6800, 11435.00
885.8100, 11457.00
886.9400, 11567.00
888.0690, 11592.00
889.1990, 11707.07
890.3280, 11760.00
891.4570, 11968.00
892.5860, 12109.00
893.7140, 12314.00
894.8430, 12610.00
895.9710, 12795.00
897.1000, 12941.00
898.2280, 13404.00
899.3560, 13720.00
900.4830, 14248.00
901.6110, 14657.00
902.7380, 15358.00
903.8660, 16367.00
904.9930, 17625.00
906.1200, 19281.00
907.2460, 21325.00
908.3730, 24117.00
909.5000, 27801.00
910.6260, 32250.00
911.7520, 37212.00
912.8780, 42274.00
914.0040, 46223.00
915.1290, 49354.00
916.2550, 51659.00
917.3800, 52696.00
918.5050, 52049.00
919.6300, 50135.00
920.7550, 46054.00
921.8800, 41721.00
923.0040, 36804.00
924.1290, 32472.00
925.2530, 29119.00
926.3770, 26376.00
927.5010, 24542.00
928.6250, 22859.00
929.7480, 21897.00
930.8720, 21036.00
931.9950, 20379.00
933.1180, 19881.00
934.2410, 19471.00
935.3640, 19628.00
936.4860, 19778.00
937.6090, 20065.00
938.7310, 20765.00
939.8530, 21608.00
940.9750, 22627.00
942.0970, 23909.00
943.2180, 25315.00
944.3400, 26569.00
945.4610, 27892.00
946.5820, 28650.00
947.7030, 29335.00
948.8240, 29479.00
949.9450, 29125.00
951.0650, 28460.00
952.1860, 27207.00
953.3060, 25872.00
954.4260, 24386.00
955.5460, 23072.00
956.6650, 21713.00
957.7850, 20648.00
958.9040, 19853.00
960.0230, 19130.00
961.1420, 18663.00
962.2610, 18152.00
963.3800, 17714.00
964.4990, 17450.00
965.6170, 17164.00
966.7350, 16979.00
967.8530, 16725.00
968.9710, 16558.00
970.0890, 16263.00
971.2070, 15935.00
972.3240, 15847.00
973.4410, 15292.00
974.5580, 15140.00
975.6750, 14731.00
976.7920, 14552.00
977.9090, 14211.00
979.0250, 13909.00
980.1410, 13705.00
981.2580, 13536.00
982.3740, 13460.00
983.4890, 13285.00
984.6050, 13319.00
985.7200, 13060.00
986.8360, 12934.00
987.9510, 12942.00
989.0660, 12941.00
990.1810, 12810.00
991.2950, 12759.00
992.4100, 12691.00
993.5240, 12777.00
994.6390, 12717.00
995.7530, 12819.00
996.8660, 12834.00
997.9800, 12860.00
999.0940, 12949.00
1000.207, 13157.00
1001.320, 13300.00
1002.433, 13599.00
1003.546, 13660.00
1004.659, 14112.00
1005.772, 14339.00
1006.884, 14805.00
1007.996, 15377.00
1009.108, 16290.00
1010.220, 16876.00
1011.332, 17713.00
1012.444, 18629.00
1013.555, 19371.00
1014.666, 19990.00
1015.777, 20656.00
1016.888, 20981.00
1017.999, 21171.00
1019.110, 20714.00
1020.220, 20548.00
1021.331, 19962.00
1022.441, 19323.00
1023.551, 18658.00
1024.661, 17969.00
1025.770, 17449.00
1026.880, 17105.00
1027.989, 16518.00
1029.098, 16253.00
1030.207, 15850.00
1031.316, 15430.00
1032.425, 15285.00
1033.533, 15038.00
1034.642, 14920.00
1035.750, 14691.00
1036.858, 14489.00
1037.966, 14604.00
1039.073, 14339.00
1040.181, 14483.00
1041.288, 14416.00
1042.396, 14532.00
1043.503, 14453.00
1044.610, 14567.00
1045.716, 14752.00
1046.823, 15043.00
1047.929, 15272.00
1049.036, 15735.00
1050.142, 16249.00
1051.248, 16953.00
1052.353, 17613.00
1053.459, 18451.00
1054.564, 19694.00
1055.670, 20746.00
1056.775, 21421.00
1057.880, 21933.00
1058.985, 22240.00
1060.089, 22072.00
1061.194, 22407.00
1062.298, 21093.00
1063.402, 20088.00
1064.506, 19366.00
1065.610, 18380.00
1066.713, 17792.00
1067.817, 16981.00
1068.920, 16772.00
1070.023, 16383.00
1071.126, 15964.00
1072.229, 15888.00
1073.332, 15601.00
1074.435, 15412.00
1075.537, 15301.00
1076.639, 15161.38
1077.741, 15019.00
1078.843, 15002.00
1079.945, 14946.00
1081.046, 14834.00
1082.148, 14886.00
1083.249, 14861.00
1084.350, 14821.00
1085.451, 14870.00
1086.551, 14945.00
1087.652, 15008.00
1088.752, 15007.00
1089.853, 14983.00
1090.953, 15108.00
1092.053, 15222.00
1093.152, 15230.00
1094.252, 15473.00
1095.351, 15724.00
1096.451, 15900.00
1097.550, 16090.00
1098.649, 16485.00
1099.748, 16852.00
1100.846, 17195.00
1101.945, 17660.00
1103.043, 18007.00
1104.141, 18184.00
1105.239, 18314.00
1106.337, 18179.00
1107.434, 18082.00
1108.532, 17702.00
1109.629, 17579.00
1110.726, 17154.00
1111.823, 16537.00
1112.920, 16161.00
1114.017, 15771.00
1115.113, 15314.00
1116.210, 15197.00
1117.306, 14993.00
1118.402, 14939.00
1119.498, 14908.00
1120.593, 14900.00
1121.689, 14813.00
1122.784, 14707.00
1123.879, 14828.00
1124.974, 14817.00
1126.069, 14631.00
1127.164, 14322.00
1128.259, 14423.00
1129.353, 13984.00
1130.447, 13754.00
1131.541, 13820.00
1132.635, 13479.00
1133.729, 13657.00
1134.822, 13468.00
1135.916, 13348.00
1137.009, 13445.00
1138.102, 13370.00
1139.195, 13468.00
1140.288, 13406.00
1141.380, 13352.00
1142.473, 13408.52
1143.565, 13362.71
1144.657, 13443.00
1145.749, 13364.00
1146.841, 13356.00
1147.932, 13364.00
1149.024, 13555.00
1150.115, 13191.00
1151.206, 13290.00
1152.297, 13073.00
1153.388, 13291.00
1154.479, 13299.00
1155.569, 13346.00
1156.659, 13154.00
1157.750, 13266.00
1158.839, 13109.00
1159.929, 13186.00
1161.019, 13160.00
1162.108, 13085.00
1163.198, 13046.00
1164.287, 13063.00
1165.376, 13064.00
1166.465, 13116.00
1167.553, 13102.69
1168.642, 13134.00
1169.730, 13123.00
1170.818, 13140.00
1171.906, 13202.00
1172.994, 13211.00
1174.082, 13214.00
1175.170, 13228.00
1176.257, 13219.00
1177.344, 13225.00
1178.431, 13236.65
1179.518, 13297.00
1180.605, 13287.00
1181.691, 13335.00
1182.778, 13419.00
1183.864, 13343.00
1184.950, 13301.00
1186.036, 13386.00
1187.122, 13402.00
1188.207, 13499.00
1189.292, 13445.00
1190.378, 13572.00
1191.463, 13446.00
1192.548, 13592.00
1193.632, 13466.00
1194.717, 13530.00
1195.801, 13535.00
1196.886, 13617.00
1197.970, 13753.00
1199.054, 13766.00
1200.137, 13718.00
1201.221, 13725.00
1202.305, 13680.00
1203.388, 13687.00
1204.471, 13791.00
1205.554, 13887.00
1206.637, 13890.00
1207.719, 14034.00
1208.802, 14026.00
1209.884, 14159.00
1210.966, 14126.00
1212.048, 14100.00
1213.130, 14371.00
1214.212, 14602.00
1215.293, 14615.00
1216.374, 14840.00
1217.456, 14987.37
1218.536, 15158.00
1219.617, 15349.00
1220.698, 15479.00
1221.778, 15702.00
1222.859, 16012.00
1223.939, 16391.00
1225.019, 16685.00
1226.099, 16857.00
1227.178, 17239.70
1228.258, 17489.00
1229.337, 17778.00
1230.417, 18153.00
1231.496, 18207.00
1232.574, 18489.00
1233.653, 18896.00
1234.732, 18967.00
1235.810, 19142.00
1236.888, 19204.00
1237.966, 19312.00
1239.044, 19837.00
1240.122, 19899.00
1241.199, 20116.00
1242.277, 20329.00
1243.354, 20536.00
1244.431, 20654.00
1245.508, 20908.00
1246.585, 20989.00
1247.661, 21015.00
1248.738, 21252.00
1249.814, 21406.00
1250.890, 21182.00
1251.966, 21171.00
1253.042, 21080.00
1254.117, 21212.00
1255.193, 20974.00
1256.268, 20952.00
1257.343, 20753.00
1258.418, 20671.00
1259.493, 20599.00
1260.567, 20386.00
1261.642, 20357.00
1262.716, 19978.00
1263.790, 19941.00
1264.864, 19740.00
1265.938, 19571.00
1267.011, 19336.00
1268.085, 19100.81
1269.158, 18915.00
1270.231, 18607.00
1271.304, 18282.00
1272.377, 18074.00
1273.450, 17863.20
1274.522, 17545.00
1275.594, 17532.00
1276.666, 17327.00
1277.738, 17128.00
1278.810, 17004.00
1279.882, 16881.00
1280.953, 16704.75
1282.025, 16598.28
1283.096, 16476.69
1284.167, 16364.00
1285.238, 16277.00
1286.308, 16191.23
1287.379, 16122.03
1288.449, 15964.00
1289.519, 15922.00
1290.589, 15776.00
1291.659, 15581.00
1292.729, 15673.00
1293.798, 15641.00
1294.868, 15463.00
1295.937, 15485.00
1297.006, 15516.00
1298.075, 15561.00
1299.143, 15496.00
1300.212, 15497.49
1301.280, 15358.00
1302.348, 15417.00
1303.416, 15425.00
1304.484, 15388.00
1305.552, 15511.00
1306.620, 15294.00
1307.687, 15272.00
1308.754, 15335.00
1309.821, 15326.00
1310.888, 15159.00
1311.955, 15347.00
1313.021, 15300.00
1314.088, 15416.00
1315.154, 15328.00
1316.220, 15224.00
1317.286, 15290.00
1318.352, 15278.00
1319.417, 15251.00
1320.483, 15379.00
1321.548, 15295.28
1322.613, 15351.00
1323.678, 15292.00
1324.743, 15237.00
1325.807, 15392.00
1326.872, 15252.00
1327.936, 15278.00
1329.000, 15309.00
1330.064, 15296.00
1331.128, 15332.00
1332.191, 15231.00
1333.255, 15359.00
1334.318, 15324.00
1335.381, 15411.00
1336.444, 15434.00
1337.507, 15402.00
1338.569, 15458.00
1339.632, 15478.00
1340.694, 15525.00
1341.756, 15457.00
1342.818, 15486.00
1343.880, 15334.00
1344.941, 15586.00
1346.003, 15516.00
1347.064, 15494.00
1348.125, 15643.00
1349.186, 15526.00
1350.247, 15690.00
1351.308, 15602.00
1352.368, 15632.00
1353.428, 15588.00
1354.489, 15766.00
1355.549, 15642.00
1356.608, 15644.00
1357.668, 15658.00
1358.727, 15554.00
1359.787, 15668.00
1360.846, 15767.00
1361.905, 15736.00
1362.964, 15695.00
1364.022, 15692.00
1365.081, 15721.21
1366.139, 15723.00
1367.197, 15819.00
1368.255, 15901.00
1369.313, 15953.00
1370.371, 15754.00
1371.428, 16090.00
1372.486, 15801.00
1373.543, 15992.00
1374.600, 15988.00
1375.657, 15754.00
1376.713, 15975.00
1377.770, 16141.00
1378.826, 16024.00
1379.882, 15954.00
1380.938, 16077.00
1381.994, 16129.00
1383.050, 16221.00
1384.106, 16202.00
1385.161, 16185.00
1386.216, 16332.00
1387.271, 16227.00
1388.326, 16451.00
1389.381, 16473.00
1390.435, 16546.00
1391.490, 16508.00
1392.544, 16633.00
1393.598, 16606.00
1394.652, 16630.00
1395.705, 16715.02
1396.759, 16784.00
1397.812, 16876.00
1398.866, 16902.00
1399.919, 17035.00
1400.972, 17036.00
1402.024, 16961.00
1403.077, 17144.00
1404.129, 17088.00
1405.181, 17055.00
1406.233, 17510.00
1407.285, 17217.00
1408.337, 17454.00
1409.389, 17463.00
1410.440, 17402.00
1411.491, 17489.00
1412.542, 17449.00
1413.593, 17574.00
1414.644, 17463.00
1415.695, 17682.00
1416.745, 17688.00
1417.795, 17595.00
1418.845, 17513.00
1419.895, 17741.00
1420.945, 17761.00
1421.995, 17675.00
1423.044, 17903.00
1424.093, 17711.00
1425.142, 17772.00
1426.191, 17787.00
1427.240, 17791.00
1428.289, 17820.00
1429.337, 17847.00
1430.385, 17795.00
1431.433, 17667.00
1432.481, 17787.00
1433.529, 17657.00
1434.577, 17829.00
1435.624, 17677.00
1436.672, 17623.00
1437.719, 17672.00
1438.766, 17596.75
1439.812, 17729.00
1440.859, 17639.00
1441.905, 17629.00
1442.952, 17771.00
1443.998, 17673.00
1445.044, 17695.00
1446.090, 17859.00
1447.135, 17743.51
1448.181, 17501.00
1449.226, 17555.00
1450.271, 17706.00
1451.316, 17397.00
1452.361, 17369.00
1453.405, 17402.00
1454.450, 17282.00
1455.494, 17396.00
1456.538, 17476.00
1457.582, 17573.00
1458.626, 17533.00
1459.670, 17481.00
1460.713, 17367.00
1461.757, 17412.00
1462.800, 17458.00
1463.843, 17501.00
1464.886, 17567.00
1465.928, 17620.44
1466.971, 17658.19
1468.013, 17698.00
1469.055, 17664.00
1470.097, 17594.00
1471.139, 17441.00
1472.181, 17771.00
1473.222, 17594.00
1474.263, 17495.00
1475.305, 17796.00
1476.346, 17632.00
1477.386, 17534.00
1478.427, 17726.00
1479.468, 17694.00
1480.508, 17605.00
1481.548, 17488.00
1482.588, 17699.00
1483.628, 17754.00
1484.668, 17719.00
1485.707, 17660.00
1486.747, 17690.96
1487.786, 17715.00
1488.825, 17703.00
1489.864, 17775.00
1490.902, 17811.00
1491.941, 17781.00
1492.979, 17845.00
1494.017, 17856.00
1495.055, 17881.00
1496.093, 17747.00
1497.131, 17792.00
1498.168, 17879.00
1499.206, 17995.00
1500.243, 17823.00
1501.280, 17905.00
1502.317, 17942.00
1503.354, 18116.00
1504.390, 17996.00
1505.426, 17996.00
1506.463, 17765.00
1507.499, 17812.00
1508.535, 17953.00
1509.570, 18029.00
1510.606, 17929.00
1511.641, 18023.00
1512.676, 18083.00
1513.711, 17855.00
1514.746, 17914.00
1515.781, 18013.00
1516.816, 18017.00
1517.850, 18079.00
1518.884, 18065.61
1519.918, 18105.00
1520.952, 18021.00
1521.986, 18035.00
1523.019, 18031.00
1524.053, 18149.00
1525.086, 18110.00
1526.119, 18181.94
1527.152, 18181.00
1528.185, 18262.00
1529.217, 18240.00
1530.250, 18237.00
1531.282, 18171.00
1532.314, 18243.00
1533.346, 18175.00
1534.377, 18271.00
1535.409, 18168.00
1536.440, 18186.00
1537.472, 18088.00
1538.503, 18249.00
1539.534, 18241.00
1540.564, 18144.00
1541.595, 18309.00
1542.625, 18181.00
1543.656, 18375.00
1544.686, 18364.00
1545.716, 18331.00
1546.745, 18427.00
1547.775, 18312.00
1548.804, 18370.00
1549.834, 18335.00
1550.863, 18612.00
1551.892, 18431.00
1552.920, 18672.00
1553.949, 18689.00
1554.977, 18852.00
1556.006, 18716.00
1557.034, 18785.00
1558.062, 18674.00
1559.089, 18744.00
1560.117, 18656.00
1561.144, 18508.00
1562.172, 18699.00
1563.199, 18522.00
1564.226, 18738.00
1565.252, 18778.00
1566.279, 18688.00
1567.305, 18651.00
1568.332, 18666.00
1569.358, 18815.00
1570.384, 18698.00
##END=



