##NAMES=Andalusite
##RRUFFID=R050449
##IDEAL CHEMISTRY=Al_2_SiO_5_
##LOCALITY=Itinga, Minas Gerais, Brazil
##OWNER=RRUFF
##SOURCE=Marcus Origlieri
##DESCRIPTION=Green fragment
##STATUS=The identification of this mineral has been confirmed by X-ray diffraction and chemical analysis
##URL=rruff.info/R050449
##MEASURED CHEMISTRY=Al_2.00_Fe^3+^_0.01_Si_0.99_O_5_
##PIN_ID=L01352
##ORIENTATION=Laser parallel to -c* (0 0 -1). Fiducial mark perpendicular to laser is parallel to a [1 0 0]
92.24600, 5383.000
93.48000, 5645.000
94.71400, 5537.000
95.94800, 5659.000
97.18200, 5606.000
98.41600, 5581.000
99.64900, 5641.000
100.8830, 5713.000
102.1160, 5658.000
103.3490, 5629.000
104.5820, 5550.000
105.8150, 5761.000
107.0470, 5942.000
108.2800, 6320.000
109.5120, 6611.000
110.7440, 7174.000
111.9760, 6727.000
113.2080, 6307.000
114.4400, 6246.000
115.6710, 6350.000
116.9030, 6558.000
118.1340, 6481.000
119.3650, 6301.000
120.5960, 6333.000
121.8270, 6189.000
123.0580, 6265.000
124.2880, 6321.000
125.5190, 6306.000
126.7490, 6282.000
127.9790, 6189.000
129.2090, 6328.000
130.4390, 6432.000
131.6680, 6364.000
132.8980, 6446.000
134.1270, 6442.000
135.3560, 6453.000
136.5850, 6476.000
137.8140, 6597.000
139.0430, 6631.000
140.2710, 6771.000
141.5000, 6916.000
142.7280, 6859.000
143.9560, 6807.000
145.1840, 6676.000
146.4120, 6622.000
147.6390, 6530.000
148.8670, 6529.000
150.0940, 6506.672
151.3210, 6483.000
152.5490, 6519.000
153.7750, 6628.000
155.0020, 6637.000
156.2290, 6574.000
157.4550, 6373.000
158.6810, 6505.000
159.9080, 6322.000
161.1340, 6435.000
162.3590, 6424.000
163.5850, 6588.000
164.8110, 6601.000
166.0360, 6570.000
167.2610, 6768.000
168.4860, 6785.000
169.7110, 6806.000
170.9360, 6853.000
172.1610, 6856.000
173.3850, 6877.000
174.6100, 6817.000
175.8340, 6833.000
177.0580, 6929.000
178.2820, 6844.000
179.5050, 6863.000
180.7290, 7036.000
181.9520, 6997.000
183.1760, 6984.000
184.3990, 7061.000
185.6220, 7156.000
186.8450, 7357.000
188.0670, 7594.000
189.2900, 7866.000
190.5120, 8050.000
191.7340, 8100.000
192.9560, 8037.000
194.1780, 8005.000
195.4000, 8017.000
196.6220, 8055.000
197.8430, 8172.000
199.0640, 8046.000
200.2860, 8195.000
201.5070, 8351.000
202.7270, 8546.000
203.9480, 8755.000
205.1690, 8661.000
206.3890, 8261.000
207.6090, 7681.000
208.8290, 7506.000
210.0490, 7290.000
211.2690, 7289.000
212.4890, 7344.000
213.7080, 7252.000
214.9280, 7278.000
216.1470, 7310.000
217.3660, 7339.000
218.5850, 7303.000
219.8030, 7257.000
221.0220, 7362.000
222.2400, 7418.000
223.4590, 7477.000
224.6770, 7323.000
225.8950, 7574.000
227.1120, 7493.000
228.3300, 7422.000
229.5480, 7540.000
230.7650, 7388.000
231.9820, 7589.000
233.1990, 7511.000
234.4160, 7599.000
235.6330, 7525.000
236.8490, 7659.000
238.0660, 7782.000
239.2820, 7930.000
240.4980, 7996.945
241.7140, 8034.000
242.9300, 8124.000
244.1460, 8055.000
245.3610, 8099.000
246.5770, 7932.000
247.7920, 7932.104
249.0070, 7860.000
250.2220, 7824.000
251.4370, 7827.000
252.6510, 7742.000
253.8660, 7770.000
255.0800, 7697.000
256.2940, 7666.000
257.5080, 7657.000
258.7220, 7895.000
259.9360, 7942.000
261.1490, 7948.878
262.3630, 8291.000
263.5760, 7882.000
264.7890, 7975.000
266.0020, 7853.000
267.2150, 7966.000
268.4270, 8207.000
269.6400, 8237.000
270.8520, 8321.000
272.0640, 8442.000
273.2760, 8770.000
274.4880, 8830.000
275.7000, 9242.000
276.9120, 9670.000
278.1230, 9902.000
279.3340, 10258.00
280.5450, 10749.00
281.7560, 11754.00
282.9670, 12847.00
284.1780, 14376.00
285.3880, 15999.00
286.5980, 17948.00
287.8090, 20755.00
289.0190, 23796.00
290.2290, 26746.00
291.4380, 28950.00
292.6480, 28438.00
293.8570, 26041.00
295.0670, 22461.00
296.2760, 19274.00
297.4850, 16676.00
298.6930, 14339.00
299.9020, 12661.00
301.1110, 11465.00
302.3190, 10650.00
303.5270, 9787.000
304.7350, 9541.000
305.9430, 9174.000
307.1510, 8960.000
308.3580, 8967.000
309.5660, 8984.000
310.7730, 9388.000
311.9800, 9900.000
313.1870, 10931.00
314.3940, 11618.00
315.6010, 12958.00
316.8070, 14940.00
318.0130, 17696.00
319.2200, 20471.00
320.4260, 23018.00
321.6310, 23363.00
322.8370, 21807.00
324.0430, 19671.00
325.2480, 17082.00
326.4540, 14618.00
327.6590, 12851.00
328.8640, 11617.00
330.0680, 10833.00
331.2730, 10476.00
332.4780, 10118.00
333.6820, 9772.000
334.8860, 9813.000
336.0900, 9552.000
337.2940, 9690.000
338.4980, 9617.000
339.7010, 9548.000
340.9050, 9695.000
342.1080, 9605.000
343.3110, 9649.000
344.5140, 9761.000
345.7170, 9831.000
346.9200, 10047.00
348.1220, 10301.00
349.3240, 10922.00
350.5270, 11666.00
351.7290, 12567.00
352.9310, 13685.00
354.1320, 14981.00
355.3340, 16585.00
356.5350, 18459.00
357.7370, 19659.00
358.9380, 20194.00
360.1390, 19593.00
361.3400, 18443.00
362.5400, 16826.00
363.7410, 15583.00
364.9410, 14516.00
366.1410, 13478.00
367.3410, 12735.00
368.5410, 12239.00
369.7410, 11784.00
370.9400, 11629.00
372.1400, 11384.00
373.3390, 11149.00
374.5380, 10918.00
375.7370, 10894.00
376.9360, 10557.00
378.1350, 10418.00
379.3330, 10431.00
380.5310, 10260.00
381.7300, 10259.00
382.9280, 10355.00
384.1260, 10474.00
385.3230, 10453.00
386.5210, 10474.00
387.7180, 10437.00
388.9160, 10747.00
390.1130, 10868.00
391.3100, 10872.00
392.5060, 11131.00
393.7030, 10975.00
394.9000, 10727.00
396.0960, 10473.00
397.2920, 10461.00
398.4880, 10283.00
399.6840, 10189.00
400.8800, 10119.00
402.0750, 10160.00
403.2710, 10163.05
404.4660, 10266.00
405.6610, 10333.00
406.8560, 10453.00
408.0510, 10644.00
409.2450, 10587.00
410.4400, 10692.00
411.6340, 10695.00
412.8280, 10872.00
414.0220, 11221.00
415.2160, 11574.00
416.4100, 11985.00
417.6030, 12172.00
418.7970, 12408.00
419.9900, 12031.00
421.1830, 11760.00
422.3760, 11240.00
423.5690, 10967.00
424.7610, 10653.00
425.9540, 10358.00
427.1460, 10335.00
428.3380, 10222.00
429.5300, 10025.00
430.7220, 9913.000
431.9140, 9877.000
433.1050, 9691.000
434.2970, 9873.000
435.4880, 9818.000
436.6790, 9730.000
437.8700, 9824.000
439.0610, 10025.00
440.2510, 10112.00
441.4420, 10179.00
442.6320, 10269.00
443.8220, 10407.73
445.0120, 10701.00
446.2020, 10682.00
447.3910, 10885.00
448.5810, 10973.00
449.7700, 11315.00
450.9600, 11575.00
452.1490, 11827.00
453.3370, 11258.00
454.5260, 10953.00
455.7150, 10339.00
456.9030, 10118.00
458.0910, 9887.000
459.2800, 9761.000
460.4670, 9602.000
461.6550, 9412.000
462.8430, 9419.000
464.0300, 9385.000
465.2180, 9397.000
466.4050, 9359.000
467.5920, 9366.534
468.7790, 9450.000
469.9650, 9436.000
471.1520, 9402.000
472.3380, 9566.000
473.5250, 9686.000
474.7110, 9611.000
475.8970, 9589.000
477.0820, 9735.000
478.2680, 9833.000
479.4540, 9882.000
480.6390, 9963.000
481.8240, 9955.000
483.0090, 10075.00
484.1940, 9985.000
485.3780, 9904.000
486.5630, 10053.00
487.7470, 9988.000
488.9320, 9924.000
490.1160, 9760.000
491.3000, 9910.000
492.4830, 9871.000
493.6670, 9940.000
494.8500, 9960.000
496.0340, 10100.00
497.2170, 10178.02
498.4000, 10297.00
499.5820, 10419.00
500.7650, 10548.00
501.9480, 10700.00
503.1300, 10813.00
504.3120, 11102.00
505.4940, 11071.00
506.6760, 11085.00
507.8580, 11442.00
509.0390, 11427.00
510.2210, 11719.00
511.4020, 11687.00
512.5830, 11787.00
513.7640, 11797.00
514.9450, 11832.00
516.1250, 11724.00
517.3060, 11744.00
518.4860, 11754.00
519.6660, 11701.00
520.8460, 11751.00
522.0260, 11733.00
523.2060, 11832.00
524.3850, 11860.00
525.5650, 11771.00
526.7440, 11766.00
527.9230, 11922.00
529.1020, 12051.00
530.2810, 12252.00
531.4590, 12408.00
532.6380, 12455.00
533.8160, 12699.00
534.9940, 12831.00
536.1720, 13115.00
537.3500, 13399.63
538.5270, 13845.00
539.7050, 14048.00
540.8820, 14456.00
542.0590, 14793.00
543.2360, 15321.00
544.4130, 15766.00
545.5900, 16155.00
546.7660, 16784.00
547.9430, 17281.00
549.1190, 17705.00
550.2950, 18050.00
551.4710, 18577.00
552.6470, 18441.00
553.8220, 18180.00
554.9980, 17561.00
556.1730, 17262.00
557.3480, 16646.00
558.5230, 16240.00
559.6980, 15844.00
560.8730, 15494.00
562.0470, 15190.00
563.2220, 14932.00
564.3960, 14866.00
565.5700, 14787.00
566.7440, 14745.00
567.9170, 14856.00
569.0910, 14825.00
570.2640, 14973.00
571.4380, 14959.00
572.6110, 14904.00
573.7840, 14799.00
574.9570, 14723.00
576.1290, 14612.00
577.3020, 14378.00
578.4740, 14235.00
579.6460, 14054.79
580.8180, 13858.02
581.9900, 13641.00
583.1620, 13484.00
584.3330, 13290.89
585.5040, 13143.12
586.6760, 12962.00
587.8470, 12822.00
589.0180, 12704.00
590.1880, 12457.00
591.3590, 12413.00
592.5290, 12471.00
593.7000, 12314.00
594.8700, 12432.00
596.0400, 12219.00
597.2090, 12391.00
598.3790, 12340.00
599.5490, 12291.00
600.7180, 12499.00
601.8870, 12586.00
603.0560, 12688.00
604.2250, 12767.00
605.3940, 12985.00
606.5620, 13172.00
607.7300, 13392.00
608.8990, 13611.00
610.0670, 13578.00
611.2350, 13759.00
612.4020, 13858.00
613.5700, 14133.00
614.7370, 14368.00
615.9050, 14504.00
617.0720, 14722.00
618.2390, 14929.00
619.4060, 14857.00
620.5720, 15022.00
621.7390, 15096.00
622.9050, 15166.00
624.0710, 15265.00
625.2370, 15388.00
626.4030, 15456.00
627.5690, 15543.62
628.7340, 15615.00
629.9000, 15641.00
631.0650, 15771.00
632.2300, 15730.00
633.3950, 15672.00
634.5600, 15673.00
635.7240, 15434.00
636.8890, 15397.00
638.0530, 15400.00
639.2170, 14986.00
640.3810, 15172.00
641.5450, 15120.00
642.7080, 14944.00
643.8720, 14941.00
645.0350, 14874.00
646.1980, 14811.00
647.3610, 14583.00
648.5240, 14748.00
649.6870, 14635.00
650.8490, 14350.00
652.0120, 13881.00
653.1740, 13621.00
654.3360, 13429.00
655.4980, 12861.00
656.6600, 12708.00
657.8210, 12374.00
658.9830, 12360.00
660.1440, 12341.00
661.3050, 12160.00
662.4660, 12021.00
663.6270, 11883.00
664.7870, 11546.00
665.9480, 11426.00
667.1080, 10933.00
668.2680, 10751.00
669.4280, 10669.00
670.5880, 10423.00
671.7480, 10420.00
672.9070, 10428.00
674.0670, 10399.00
675.2260, 10273.00
676.3850, 10271.00
677.5440, 10133.00
678.7030, 10106.00
679.8610, 10134.00
681.0200, 10154.00
682.1780, 10016.00
683.3360, 10008.00
684.4940, 9906.000
685.6520, 9900.000
686.8090, 9972.000
687.9670, 10115.00
689.1240, 10157.00
690.2810, 10068.00
691.4380, 10117.00
692.5950, 10059.00
693.7520, 10195.00
694.9080, 10134.00
696.0650, 10215.00
697.2210, 10244.00
698.3770, 10387.00
699.5330, 10309.00
700.6880, 10349.00
701.8440, 10445.00
702.9990, 10492.00
704.1550, 10444.00
705.3100, 10471.00
706.4650, 10600.00
707.6190, 10766.00
708.7740, 10831.00
709.9290, 10941.00
711.0830, 11208.00
712.2370, 11374.00
713.3910, 11524.00
714.5450, 11504.00
715.6980, 11727.00
716.8520, 11746.00
718.0050, 11874.00
719.1580, 11669.00
720.3110, 11483.00
721.4640, 11131.00
722.6170, 10882.00
723.7700, 10711.00
724.9220, 10567.00
726.0740, 10440.78
727.2260, 10340.00
728.3780, 10326.00
729.5300, 10266.00
730.6810, 10327.00
731.8330, 10376.00
732.9840, 10406.00
734.1350, 10561.00
735.2860, 10516.00
736.4370, 10531.00
737.5880, 10489.00
738.7380, 10438.00
739.8880, 10307.00
741.0390, 10196.00
742.1890, 10186.00
743.3380, 10307.00
744.4880, 10425.00
745.6380, 10357.00
746.7870, 10270.00
747.9360, 10298.00
749.0850, 10209.00
750.2340, 10224.75
751.3830, 10253.00
752.5310, 10261.00
753.6800, 10339.00
754.8280, 10401.00
755.9760, 10439.00
757.1240, 10408.00
758.2720, 10296.00
759.4190, 10395.00
760.5670, 10274.00
761.7140, 10248.00
762.8610, 10222.00
764.0080, 10202.63
765.1550, 10209.00
766.3020, 10211.00
767.4480, 10309.00
768.5950, 10282.00
769.7410, 10214.00
770.8870, 10359.00
772.0330, 10385.00
773.1780, 10328.00
774.3240, 10356.00
775.4690, 10383.00
776.6140, 10405.76
777.7590, 10437.10
778.9040, 10530.00
780.0490, 10512.00
781.1940, 10620.00
782.3380, 10696.00
783.4820, 10625.00
784.6260, 10751.00
785.7700, 10695.00
786.9140, 10869.00
788.0580, 10925.00
789.2010, 11025.00
790.3450, 10970.00
791.4880, 11155.00
792.6310, 11202.00
793.7730, 11183.00
794.9160, 11359.00
796.0590, 11579.00
797.2010, 11691.00
798.3430, 11882.00
799.4850, 12010.00
800.6270, 12104.00
801.7690, 12277.00
802.9100, 12760.00
804.0520, 12887.00
805.1930, 13352.00
806.3340, 13527.00
807.4750, 13938.00
808.6160, 14241.00
809.7560, 14659.00
810.8970, 14987.00
812.0370, 15555.00
813.1770, 16066.00
814.3170, 16622.00
815.4570, 17111.00
816.5960, 17742.00
817.7360, 18327.00
818.8750, 18756.00
820.0140, 19051.00
821.1530, 19223.00
822.2920, 18969.00
823.4310, 18641.00
824.5690, 17962.00
825.7070, 17360.00
826.8460, 16780.00
827.9840, 16222.00
829.1220, 15705.00
830.2590, 15184.00
831.3970, 14884.00
832.5340, 14624.00
833.6710, 14234.00
834.8080, 13738.00
835.9450, 13661.00
837.0820, 13321.00
838.2190, 12850.00
839.3550, 12585.00
840.4910, 12352.00
841.6270, 11904.00
842.7630, 11700.00
843.8990, 11632.00
845.0350, 11402.00
846.1700, 11177.00
847.3060, 11116.00
848.4410, 11013.00
849.5760, 11084.00
850.7100, 10882.00
851.8450, 10874.00
852.9800, 10808.00
854.1140, 10689.00
855.2480, 10837.00
856.3820, 10747.00
857.5160, 10682.00
858.6500, 10928.00
859.7830, 10862.00
860.9170, 10767.00
862.0500, 10756.00
863.1830, 10926.00
864.3160, 10888.00
865.4480, 11002.00
866.5810, 10765.00
867.7130, 10899.00
868.8460, 10966.00
869.9780, 11127.00
871.1100, 11233.00
872.2410, 11085.00
873.3730, 11087.00
874.5050, 11071.00
875.6360, 11085.00
876.7670, 11226.00
877.8980, 11262.00
879.0290, 11252.00
880.1590, 11312.00
881.2900, 11308.00
882.4200, 11368.00
883.5500, 11455.00
884.6800, 11531.00
885.8100, 11484.00
886.9400, 11603.00
888.0690, 11759.00
889.1990, 11654.00
890.3280, 11952.00
891.4570, 11965.00
892.5860, 12228.00
893.7140, 12499.00
894.8430, 12533.00
895.9710, 12701.00
897.1000, 13126.00
898.2280, 13402.00
899.3560, 13812.00
900.4830, 14085.00
901.6110, 14427.00
902.7380, 15054.00
903.8660, 15589.00
904.9930, 16227.00
906.1200, 16910.00
907.2460, 17616.00
908.3730, 18817.00
909.5000, 20292.00
910.6260, 21871.00
911.7520, 24253.00
912.8780, 26926.00
914.0040, 30591.00
915.1290, 34581.00
916.2550, 40043.00
917.3800, 45269.00
918.5050, 49503.00
919.6300, 51469.00
920.7550, 49372.00
921.8800, 45121.00
923.0040, 40564.00
924.1290, 36649.00
925.2530, 33519.00
926.3770, 31642.00
927.5010, 30285.00
928.6250, 28411.00
929.7480, 26787.00
930.8720, 25011.00
931.9950, 23074.00
933.1180, 21239.00
934.2410, 19896.00
935.3640, 18696.00
936.4860, 17923.00
937.6090, 16980.00
938.7310, 16553.00
939.8530, 16170.00
940.9750, 15749.00
942.0970, 15518.00
943.2180, 15595.00
944.3400, 15340.00
945.4610, 15455.00
946.5820, 15641.00
947.7030, 16288.00
948.8240, 15972.00
949.9450, 16050.00
951.0650, 15892.00
952.1860, 15775.00
953.3060, 15362.00
954.4260, 15230.00
955.5460, 14660.00
956.6650, 14254.00
957.7850, 14299.00
958.9040, 13879.00
960.0230, 13587.00
961.1420, 13643.00
962.2610, 13463.00
963.3800, 13330.00
964.4990, 13365.00
965.6170, 13375.00
966.7350, 13378.00
967.8530, 13271.00
968.9710, 13358.00
970.0890, 13274.00
971.2070, 13401.00
972.3240, 13463.00
973.4410, 13537.00
974.5580, 13556.01
975.6750, 13501.00
976.7920, 13565.00
977.9090, 13545.00
979.0250, 13583.00
980.1410, 13517.00
981.2580, 13527.00
982.3740, 13621.00
983.4890, 13581.32
984.6050, 13608.00
985.7200, 13649.00
986.8360, 13731.00
987.9510, 13871.00
989.0660, 13803.00
990.1810, 14023.00
991.2950, 13846.00
992.4100, 14262.00
993.5240, 14286.00
994.6390, 14443.00
995.7530, 14664.00
996.8660, 15131.00
997.9800, 15694.00
999.0940, 16297.00
1000.207, 17116.00
1001.320, 17982.00
1002.433, 19109.00
1003.546, 20099.00
1004.659, 21042.00
1005.772, 21322.00
1006.884, 21137.00
1007.996, 20398.00
1009.108, 19562.00
1010.220, 18652.00
1011.332, 18125.00
1012.444, 17525.00
1013.555, 17074.00
1014.666, 17028.00
1015.777, 17073.00
1016.888, 17211.00
1017.999, 17493.00
1019.110, 17487.00
1020.220, 17329.00
1021.331, 17306.00
1022.441, 16993.00
1023.551, 16565.00
1024.661, 16172.00
1025.770, 15765.00
1026.880, 15506.00
1027.989, 15098.00
1029.098, 15025.00
1030.207, 14811.00
1031.316, 14704.00
1032.425, 14731.00
1033.533, 14779.00
1034.642, 14695.00
1035.750, 14553.00
1036.858, 14514.00
1037.966, 14642.00
1039.073, 14467.00
1040.181, 14323.00
1041.288, 14413.00
1042.396, 14240.00
1043.503, 14119.00
1044.610, 14190.00
1045.716, 14062.00
1046.823, 14029.00
1047.929, 14059.00
1049.036, 14087.00
1050.142, 14093.00
1051.248, 14131.00
1052.353, 14238.00
1053.459, 14270.00
1054.564, 14526.00
1055.670, 14658.00
1056.775, 14880.00
1057.880, 15394.00
1058.985, 16044.00
1060.089, 16596.00
1061.194, 17528.00
1062.298, 18348.00
1063.402, 19235.00
1064.506, 19792.00
1065.610, 19728.00
1066.713, 19160.00
1067.817, 18488.00
1068.920, 17619.00
1070.023, 16827.00
1071.126, 16267.00
1072.229, 15715.00
1073.332, 15260.00
1074.435, 15076.00
1075.537, 14898.00
1076.639, 14811.00
1077.741, 14609.00
1078.843, 14539.00
1079.945, 14530.00
1081.046, 14407.00
1082.148, 14253.00
1083.249, 14228.00
1084.350, 14302.00
1085.451, 14062.00
1086.551, 14139.00
1087.652, 14114.00
1088.752, 14022.00
1089.853, 13903.00
1090.953, 13993.00
1092.053, 13966.00
1093.152, 13889.00
1094.252, 14004.00
1095.351, 13927.00
1096.451, 13860.00
1097.550, 13940.00
1098.649, 14087.00
1099.748, 14111.00
1100.846, 14262.00
1101.945, 14172.00
1103.043, 14152.00
1104.141, 14254.00
1105.239, 14327.00
1106.337, 14568.00
1107.434, 14588.00
1108.532, 14755.00
1109.629, 14762.38
1110.726, 14734.00
1111.823, 14678.00
1112.920, 14583.00
1114.017, 14411.00
1115.113, 14420.00
1116.210, 14400.00
1117.306, 14265.00
1118.402, 14032.00
1119.498, 14137.00
1120.593, 14159.00
1121.689, 14316.00
1122.784, 14156.00
1123.879, 14205.00
1124.974, 14300.00
1126.069, 14214.00
1127.164, 14201.00
1128.259, 14056.00
1129.353, 14029.13
1130.447, 14043.00
1131.541, 13914.00
1132.635, 13832.00
1133.729, 13753.00
1134.822, 13911.00
1135.916, 13928.00
1137.009, 13720.00
1138.102, 13818.00
1139.195, 13738.00
1140.288, 13772.00
1141.380, 13727.00
1142.473, 13786.00
1143.565, 13813.00
1144.657, 13741.00
1145.749, 13872.00
1146.841, 13948.00
1147.932, 13884.00
1149.024, 13946.00
1150.115, 13779.00
1151.206, 13885.00
1152.297, 13769.00
1153.388, 13901.00
1154.479, 13895.00
1155.569, 14096.00
1156.659, 14000.00
1157.750, 13977.00
1158.839, 13923.00
1159.929, 14072.00
1161.019, 13936.00
1162.108, 14015.00
1163.198, 14029.00
1164.287, 13969.00
1165.376, 14123.00
1166.465, 13915.00
1167.553, 14179.00
1168.642, 14056.00
1169.730, 13988.00
1170.818, 14113.00
1171.906, 14095.00
1172.994, 14046.00
1174.082, 14112.00
1175.170, 14088.00
1176.257, 14165.00
1177.344, 14207.00
1178.431, 14241.00
1179.518, 14171.00
1180.605, 14225.25
1181.691, 14137.00
1182.778, 14248.00
1183.864, 14157.00
1184.950, 14141.00
1186.036, 14351.00
1187.122, 14229.00
1188.207, 14274.00
1189.292, 14291.00
1190.378, 14114.00
1191.463, 14327.00
1192.548, 14186.00
1193.632, 14284.00
1194.717, 14298.00
1195.801, 14231.00
1196.886, 14346.00
1197.970, 14259.00
1199.054, 14289.00
1200.137, 14205.00
1201.221, 14216.00
1202.305, 14176.00
1203.388, 14222.00
1204.471, 14180.00
1205.554, 14171.00
1206.637, 14214.00
1207.719, 14120.00
1208.802, 14177.00
1209.884, 14286.00
1210.966, 14310.00
1212.048, 14267.00
1213.130, 14140.00
1214.212, 13943.00
1215.293, 14293.00
1216.374, 14092.00
1217.456, 14221.00
1218.536, 14056.00
1219.617, 14099.00
1220.698, 14160.00
1221.778, 14057.00
1222.859, 14000.00
1223.939, 13899.00
1225.019, 14134.00
1226.099, 14058.00
1227.178, 14090.00
1228.258, 14095.00
1229.337, 14063.38
1230.417, 14038.00
1231.496, 14058.00
1232.574, 14065.00
1233.653, 14111.00
1234.732, 13981.00
1235.810, 13948.00
1236.888, 13961.00
1237.966, 14152.00
1239.044, 14168.00
1240.122, 14159.00
1241.199, 14077.00
1242.277, 14114.00
1243.354, 14080.68
1244.431, 14177.00
1245.508, 14096.00
1246.585, 14155.00
1247.661, 14233.00
1248.738, 14287.00
1249.814, 14150.00
1250.890, 14156.00
1251.966, 14002.00
1253.042, 14161.00
1254.117, 14157.00
1255.193, 14336.00
1256.268, 14275.00
1257.343, 14086.00
1258.418, 14327.00
1259.493, 14263.00
1260.567, 14259.00
1261.642, 14285.00
1262.716, 14234.00
1263.790, 14238.62
1264.864, 14245.38
1265.938, 14229.00
1267.011, 14253.00
1268.085, 14302.00
1269.158, 14287.00
1270.231, 14278.84
1271.304, 14239.00
1272.377, 14224.00
1273.450, 14208.00
1274.522, 14196.00
1275.594, 14163.66
1276.666, 14207.00
1277.738, 14165.00
1278.810, 14357.00
1279.882, 14522.00
1280.953, 14397.00
1282.025, 14224.00
1283.096, 14518.00
1284.167, 14269.00
1285.238, 14226.00
1286.308, 14281.00
1287.379, 14246.00
1288.449, 14118.00
1289.519, 14265.00
1290.589, 14059.00
1291.659, 14211.00
1292.729, 14060.00
1293.798, 14189.00
1294.868, 14184.00
1295.937, 14285.00
1297.006, 14375.00
1298.075, 14180.00
1299.143, 14198.00
1300.212, 14172.00
1301.280, 14296.00
1302.348, 14190.00
1303.416, 14307.00
1304.484, 14227.00
1305.552, 14191.00
1306.620, 14232.00
1307.687, 14272.00
1308.754, 14244.00
1309.821, 14262.00
1310.888, 14300.67
1311.955, 14317.00
1313.021, 14361.00
1314.088, 14358.00
1315.154, 14336.00
1316.220, 14295.00
1317.286, 14383.00
1318.352, 14441.00
1319.417, 14272.00
1320.483, 14420.00
1321.548, 14342.00
1322.613, 14517.00
1323.678, 14384.00
1324.743, 14319.00
1325.807, 14588.00
1326.872, 14441.00
1327.936, 14433.00
1329.000, 14455.00
1330.064, 14415.00
1331.128, 14391.00
1332.191, 14480.00
1333.255, 14414.00
1334.318, 14351.00
1335.381, 14452.00
1336.444, 14526.00
1337.507, 14491.00
1338.569, 14538.82
1339.632, 14643.00
1340.694, 14504.00
1341.756, 14503.00
1342.818, 14432.00
1343.880, 14540.00
1344.941, 14660.00
1346.003, 14718.00
1347.064, 14721.00
1348.125, 14651.00
1349.186, 14630.00
1350.247, 14658.00
1351.308, 14647.00
1352.368, 14726.00
1353.428, 14603.00
1354.489, 14723.00
1355.549, 14707.00
1356.608, 14896.00
1357.668, 14881.17
1358.727, 14886.00
1359.787, 14953.00
1360.846, 14769.00
1361.905, 14874.00
1362.964, 14816.00
1364.022, 14965.00
1365.081, 14817.00
1366.139, 15031.00
1367.197, 14979.00
1368.255, 15101.00
1369.313, 14930.00
1370.371, 14847.00
1371.428, 14894.00
1372.486, 15092.00
1373.543, 14814.00
1374.600, 14969.00
1375.657, 15012.00
1376.713, 14930.00
1377.770, 15002.00
1378.826, 15233.00
1379.882, 15012.00
1380.938, 15180.00
1381.994, 14968.00
1383.050, 15015.00
1384.106, 15108.00
1385.161, 15117.00
1386.216, 14989.00
1387.271, 15113.00
1388.326, 15065.00
1389.381, 15183.00
1390.435, 15100.00
1391.490, 15126.00
1392.544, 15072.00
1393.598, 15190.00
1394.652, 15168.00
1395.705, 15073.00
1396.759, 15231.00
1397.812, 15076.00
1398.866, 15036.00
1399.919, 15221.00
1400.972, 15151.00
1402.024, 15182.00
1403.077, 14919.00
1404.129, 14992.00
1405.181, 15192.00
1406.233, 14942.00
1407.285, 15192.00
1408.337, 15077.00
1409.389, 15064.00
1410.440, 15215.00
1411.491, 15102.00
1412.542, 15093.00
1413.593, 15140.00
1414.644, 15151.00
1415.695, 15083.00
1416.745, 15193.00
1417.795, 15067.00
1418.845, 15201.00
1419.895, 15118.00
1420.945, 15257.00
1421.995, 15110.00
1423.044, 15153.00
1424.093, 15303.00
1425.142, 15311.00
1426.191, 15263.00
1427.240, 15313.00
1428.289, 15339.00
1429.337, 15540.00
1430.385, 15489.00
1431.433, 15363.00
1432.481, 15396.00
1433.529, 15613.00
1434.577, 15366.00
1435.624, 15572.00
1436.672, 15530.00
1437.719, 15422.00
1438.766, 15558.00
1439.812, 15652.00
1440.859, 15809.00
1441.905, 15686.00
1442.952, 15808.00
1443.998, 15706.00
1445.044, 15800.00
1446.090, 15822.00
1447.135, 15879.00
1448.181, 15967.00
1449.226, 15895.00
1450.271, 15901.00
1451.316, 16032.00
1452.361, 16089.00
1453.405, 15973.00
1454.450, 15976.00
1455.494, 15893.00
1456.538, 15928.00
1457.582, 16037.00
1458.626, 15958.00
1459.670, 15942.00
1460.713, 16026.00
1461.757, 16021.00
1462.800, 15896.00
1463.843, 15915.00
1464.886, 15811.00
1465.928, 15884.00
1466.971, 15789.00
1468.013, 16011.00
1469.055, 15917.00
1470.097, 15854.00
1471.139, 15691.00
1472.181, 15676.00
1473.222, 15732.00
1474.263, 15638.00
1475.305, 15710.61
1476.346, 15829.00
1477.386, 15823.00
1478.427, 15864.94
1479.468, 15771.00
1480.508, 15812.00
1481.548, 15781.00
1482.588, 15632.00
1483.628, 15633.00
1484.668, 15687.00
1485.707, 15696.00
1486.747, 15658.00
1487.786, 15776.00
1488.825, 15682.00
1489.864, 15673.00
1490.902, 15519.00
1491.941, 15819.00
1492.979, 15640.00
1494.017, 15703.00
1495.055, 15633.00
1496.093, 15553.00
1497.131, 15637.00
1498.168, 15653.00
1499.206, 15764.00
1500.243, 15780.00
1501.280, 15781.00
1502.317, 15710.00
1503.354, 15817.00
1504.390, 15781.00
1505.426, 15792.00
1506.463, 15727.00
1507.499, 15760.18
1508.535, 15830.00
1509.570, 15814.00
1510.606, 15857.00
1511.641, 15900.00
1512.676, 15899.18
1513.711, 15854.00
1514.746, 15908.00
1515.781, 15977.00
1516.816, 15948.00
1517.850, 16049.00
1518.884, 16009.21
1519.918, 15904.00
1520.952, 15952.00
1521.986, 16045.00
1523.019, 16014.00
1524.053, 16053.46
1525.086, 16028.00
1526.119, 16035.00
1527.152, 15996.00
1528.185, 15936.08
1529.217, 16078.00
1530.250, 15991.00
1531.282, 16153.00
1532.314, 16363.00
1533.346, 16292.00
1534.377, 16125.00
1535.409, 16203.00
1536.440, 16188.75
1537.472, 16202.57
1538.503, 16312.00
1539.534, 16322.00
1540.564, 16370.00
1541.595, 16457.00
1542.625, 16447.00
1543.656, 16495.88
1544.686, 16432.00
1545.716, 16536.00
1546.745, 16518.00
1547.775, 16530.00
1548.804, 16590.00
1549.834, 16602.00
1550.863, 16587.00
1551.892, 16659.00
1552.920, 16649.00
1553.949, 16670.00
1554.977, 16661.33
1556.006, 16704.00
1557.034, 16629.00
1558.062, 16629.00
1559.089, 16650.00
1560.117, 16709.00
1561.144, 16580.00
1562.172, 16603.00
1563.199, 16566.00
1564.226, 16483.00
1565.252, 16588.00
1566.279, 16696.00
1567.305, 16595.00
1568.332, 16747.00
1569.358, 16588.00
1570.384, 16706.00
1571.409, 16818.00
##END=



