##NAMES=Andalusite
##RRUFFID=R050449
##IDEAL CHEMISTRY=Al_2_SiO_5_
##LOCALITY=Itinga, Minas Gerais, Brazil
##OWNER=RRUFF
##SOURCE=Marcus Origlieri
##DESCRIPTION=Green fragment
##STATUS=The identification of this mineral has been confirmed by X-ray diffraction and chemical analysis
##URL=rruff.info/R050449
##MEASURED CHEMISTRY=Al_2.00_Fe^3+^_0.01_Si_0.99_O_5_
##PIN_ID=L00614
##ORIENTATION=Laser parallel to a* (1 0 0). Fiducial mark perpendicular to laser is parallel to b [0 1 0]
121.8270, 4745.000
123.0580, 4958.000
124.2880, 4981.000
125.5190, 4763.000
126.7490, 4869.000
127.9790, 4901.000
129.2090, 5079.000
130.4390, 5098.000
131.6680, 5199.000
132.8980, 5178.000
134.1270, 5281.000
135.3560, 5278.000
136.5850, 5404.000
137.8140, 5485.000
139.0430, 5639.000
140.2710, 5741.000
141.5000, 5572.000
142.7280, 5451.000
143.9560, 5479.000
145.1840, 5507.000
146.4120, 5350.000
147.6390, 5230.000
148.8670, 5247.000
150.0940, 5096.000
151.3210, 5231.000
152.5490, 5246.000
153.7750, 5303.000
155.0020, 5328.000
156.2290, 5165.000
157.4550, 5056.000
158.6810, 5128.000
159.9080, 5124.000
161.1340, 5139.000
162.3590, 5245.203
163.5850, 5333.150
164.8110, 5438.000
166.0360, 5563.000
167.2610, 5638.000
168.4860, 5652.000
169.7110, 5578.000
170.9360, 5702.000
172.1610, 5642.000
173.3850, 5708.000
174.6100, 5690.000
175.8340, 5632.000
177.0580, 5708.000
178.2820, 5648.000
179.5050, 5903.000
180.7290, 5994.000
181.9520, 6161.000
183.1760, 6199.000
184.3990, 6296.000
185.6220, 6469.000
186.8450, 6736.000
188.0670, 6747.000
189.2900, 6989.000
190.5120, 7061.000
191.7340, 7144.000
192.9560, 7142.000
194.1780, 7255.000
195.4000, 7267.000
196.6220, 7375.000
197.8430, 7131.000
199.0640, 7206.000
200.2860, 7196.000
201.5070, 7447.000
202.7270, 7418.000
203.9480, 7126.000
205.1690, 6615.000
206.3890, 6315.000
207.6090, 6125.000
208.8290, 6062.000
210.0490, 6111.000
211.2690, 6122.000
212.4890, 6077.000
213.7080, 6145.000
214.9280, 6164.000
216.1470, 6185.000
217.3660, 6204.000
218.5850, 6194.000
219.8030, 6175.000
221.0220, 6194.000
222.2400, 6297.000
223.4590, 6313.000
224.6770, 6482.000
225.8950, 6378.000
227.1120, 6543.000
228.3300, 6712.000
229.5480, 7012.000
230.7650, 7241.000
231.9820, 7458.000
233.1990, 7750.000
234.4160, 8106.000
235.6330, 8482.000
236.8490, 8885.000
238.0660, 9457.000
239.2820, 9881.000
240.4980, 10116.00
241.7140, 10474.00
242.9300, 10160.00
244.1460, 9826.000
245.3610, 9261.000
246.5770, 9057.000
247.7920, 8544.000
249.0070, 8336.000
250.2220, 8119.000
251.4370, 7968.000
252.6510, 7882.000
253.8660, 7870.000
255.0800, 7778.000
256.2940, 7617.000
257.5080, 7672.000
258.7220, 7986.000
259.9360, 7907.803
261.1490, 8332.000
262.3630, 8078.000
263.5760, 7999.000
264.7890, 8124.000
266.0020, 8409.000
267.2150, 8534.000
268.4270, 8728.000
269.6400, 9081.000
270.8520, 9285.000
272.0640, 9709.000
273.2760, 10269.00
274.4880, 10824.00
275.7000, 11801.00
276.9120, 12866.00
278.1230, 14540.00
279.3340, 16744.00
280.5450, 19747.00
281.7560, 23392.00
282.9670, 27558.00
284.1780, 31465.00
285.3880, 35118.00
286.5980, 38742.00
287.8090, 42337.00
289.0190, 45783.00
290.2290, 48187.00
291.4380, 49239.00
292.6480, 48727.00
293.8570, 46060.00
295.0670, 40694.00
296.2760, 33653.00
297.4850, 26779.00
298.6930, 21096.00
299.9020, 16688.00
301.1110, 14036.00
302.3190, 12133.00
303.5270, 10756.00
304.7350, 10173.00
305.9430, 9711.000
307.1510, 9799.000
308.3580, 10222.00
309.5660, 11362.00
310.7730, 13048.00
311.9800, 14846.00
313.1870, 17235.00
314.3940, 18980.00
315.6010, 20884.00
316.8070, 23282.00
318.0130, 25195.00
319.2200, 26414.00
320.4260, 26889.00
321.6310, 26675.00
322.8370, 25507.00
324.0430, 22867.00
325.2480, 19628.00
326.4540, 16382.00
327.6590, 13880.00
328.8640, 12197.00
330.0680, 11082.00
331.2730, 10198.00
332.4780, 9880.000
333.6820, 9570.000
334.8860, 9441.000
336.0900, 9483.000
337.2940, 9453.000
338.4980, 9398.000
339.7010, 9706.000
340.9050, 9984.000
342.1080, 10515.00
343.3110, 11090.00
344.5140, 12255.00
345.7170, 13667.00
346.9200, 15375.00
348.1220, 17915.00
349.3240, 20746.00
350.5270, 23883.00
351.7290, 27234.00
352.9310, 30285.00
354.1320, 33101.00
355.3340, 35683.00
356.5350, 38023.00
357.7370, 39445.00
358.9380, 39618.00
360.1390, 38420.00
361.3400, 35766.00
362.5400, 31796.00
363.7410, 27925.00
364.9410, 24232.00
366.1410, 20857.00
367.3410, 18556.00
368.5410, 16619.00
369.7410, 15033.00
370.9400, 13930.00
372.1400, 13174.00
373.3390, 12582.00
374.5380, 11953.00
375.7370, 11610.00
376.9360, 11233.00
378.1350, 10972.00
379.3330, 10782.00
380.5310, 10848.00
381.7300, 10840.00
382.9280, 10840.00
384.1260, 10906.00
385.3230, 10983.00
386.5210, 11159.00
387.7180, 11062.00
388.9160, 11022.00
390.1130, 10973.00
391.3100, 10692.00
392.5060, 10706.00
393.7030, 10502.00
394.9000, 10291.00
396.0960, 10174.00
397.2920, 9967.000
398.4880, 9890.000
399.6840, 9843.000
400.8800, 9679.000
402.0750, 9698.000
403.2710, 9730.000
404.4660, 9700.021
405.6610, 9760.493
406.8560, 9764.000
408.0510, 9781.000
409.2450, 9822.000
410.4400, 9681.000
411.6340, 9698.000
412.8280, 9811.000
414.0220, 9685.000
415.2160, 9649.000
416.4100, 9725.000
417.6030, 9755.000
418.7970, 9450.000
419.9900, 9547.000
421.1830, 9401.000
422.3760, 9582.000
423.5690, 9368.000
424.7610, 9209.000
425.9540, 9259.000
427.1460, 9031.000
428.3380, 8933.000
429.5300, 9029.000
430.7220, 8859.000
431.9140, 8899.000
433.1050, 8924.000
434.2970, 9103.000
435.4880, 9114.000
436.6790, 9214.000
437.8700, 9425.000
439.0610, 9498.000
440.2510, 9712.000
441.4420, 9783.000
442.6320, 10218.00
443.8220, 10474.00
445.0120, 10679.00
446.2020, 10831.00
447.3910, 10976.00
448.5810, 11289.00
449.7700, 11316.00
450.9600, 11153.00
452.1490, 11046.00
453.3370, 10719.00
454.5260, 10426.00
455.7150, 9884.000
456.9030, 9223.000
458.0910, 8904.000
459.2800, 8662.000
460.4670, 8587.000
461.6550, 8493.000
462.8430, 8422.000
464.0300, 8369.000
465.2180, 8421.000
466.4050, 8319.000
467.5920, 8329.000
468.7790, 8367.000
469.9650, 8287.000
471.1520, 8374.000
472.3380, 8411.000
473.5250, 8411.000
474.7110, 8554.000
475.8970, 8510.000
477.0820, 8650.000
478.2680, 8605.000
479.4540, 8753.000
480.6390, 8696.000
481.8240, 8714.000
483.0090, 8471.000
484.1940, 8751.000
485.3780, 8565.000
486.5630, 8658.000
487.7470, 8756.000
488.9320, 8682.000
490.1160, 8740.000
491.3000, 8862.000
492.4830, 8991.000
493.6670, 9121.184
494.8500, 9249.000
496.0340, 9404.000
497.2170, 9531.600
498.4000, 9673.000
499.5820, 9809.000
500.7650, 9938.000
501.9480, 10084.00
503.1300, 10244.00
504.3120, 10605.00
505.4940, 10628.00
506.6760, 10836.00
507.8580, 10774.00
509.0390, 10979.00
510.2210, 11055.00
511.4020, 11105.00
512.5830, 11204.00
513.7640, 11058.00
514.9450, 11025.00
516.1250, 11102.00
517.3060, 11138.00
518.4860, 10979.00
519.6660, 11051.00
520.8460, 11047.00
522.0260, 11197.00
523.2060, 11119.00
524.3850, 11239.00
525.5650, 11368.00
526.7440, 11422.00
527.9230, 11639.00
529.1020, 11846.00
530.2810, 12087.00
531.4590, 12382.13
532.6380, 12617.00
533.8160, 13035.00
534.9940, 13302.00
536.1720, 13671.00
537.3500, 14129.00
538.5270, 14463.00
539.7050, 14918.00
540.8820, 15505.00
542.0590, 15961.00
543.2360, 16419.00
544.4130, 16991.00
545.5900, 17584.00
546.7660, 18005.00
547.9430, 18445.00
549.1190, 18801.00
550.2950, 18942.00
551.4710, 19160.00
552.6470, 18931.00
553.8220, 18637.00
554.9980, 18321.00
556.1730, 17562.00
557.3480, 16926.00
558.5230, 16437.00
559.6980, 16088.00
560.8730, 15916.00
562.0470, 16063.00
563.2220, 15894.00
564.3960, 16135.00
565.5700, 16245.00
566.7440, 16482.00
567.9170, 16691.00
569.0910, 16791.00
570.2640, 16774.00
571.4380, 16790.00
572.6110, 16822.00
573.7840, 16691.00
574.9570, 16227.00
576.1290, 15670.00
577.3020, 15187.00
578.4740, 14779.00
579.6460, 14342.66
580.8180, 13951.75
581.9900, 13615.00
583.1620, 13262.00
584.3330, 12961.00
585.5040, 12748.00
586.6760, 12648.00
587.8470, 12463.00
589.0180, 12236.00
590.1880, 12043.00
591.3590, 11979.65
592.5290, 12098.00
593.7000, 11952.00
594.8700, 11984.00
596.0400, 12106.00
597.2090, 12017.00
598.3790, 11989.00
599.5490, 12182.00
600.7180, 12101.00
601.8870, 12362.00
603.0560, 12657.00
604.2250, 12578.00
605.3940, 12807.00
606.5620, 13053.00
607.7300, 13379.00
608.8990, 13551.00
610.0670, 13948.00
611.2350, 14138.00
612.4020, 14394.00
613.5700, 14650.00
614.7370, 14791.00
615.9050, 15146.00
617.0720, 15432.00
618.2390, 15291.00
619.4060, 15608.00
620.5720, 15609.00
621.7390, 15830.00
622.9050, 16065.00
624.0710, 16371.00
625.2370, 16485.00
626.4030, 16767.00
627.5690, 16820.00
628.7340, 17076.00
629.9000, 16914.00
631.0650, 16782.00
632.2300, 16873.00
633.3950, 16492.06
634.5600, 16269.00
635.7240, 15904.00
636.8890, 15716.00
638.0530, 15544.00
639.2170, 15389.00
640.3810, 15301.00
641.5450, 15296.00
642.7080, 15101.00
643.8720, 14909.00
645.0350, 14944.00
646.1980, 14645.00
647.3610, 14358.00
648.5240, 13881.00
649.6870, 13468.00
650.8490, 13177.00
652.0120, 12699.00
653.1740, 12198.00
654.3360, 11904.00
655.4980, 11449.00
656.6600, 11127.00
657.8210, 10827.00
658.9830, 10550.00
660.1440, 10172.00
661.3050, 9931.000
662.4660, 9716.000
663.6270, 9402.000
664.7870, 9238.000
665.9480, 9082.000
667.1080, 8983.000
668.2680, 8819.000
669.4280, 8814.000
670.5880, 8670.000
671.7480, 8583.000
672.9070, 8618.000
674.0670, 8654.000
675.2260, 8496.000
676.3850, 8477.000
677.5440, 8336.000
678.7030, 8440.000
679.8610, 8442.000
681.0200, 8383.000
682.1780, 8367.000
683.3360, 8386.000
684.4940, 8373.000
685.6520, 8406.000
686.8090, 8324.000
687.9670, 8470.000
689.1240, 8396.000
690.2810, 8475.000
691.4380, 8483.000
692.5950, 8639.000
693.7520, 8702.000
694.9080, 8718.000
696.0650, 8681.000
697.2210, 8699.000
698.3770, 8764.000
699.5330, 8738.000
700.6880, 8754.000
701.8440, 8856.000
702.9990, 8992.000
704.1550, 9020.000
705.3100, 8980.000
706.4650, 9149.000
707.6190, 9219.000
708.7740, 9295.000
709.9290, 9599.000
711.0830, 9586.000
712.2370, 9751.000
713.3910, 9754.000
714.5450, 9798.000
715.6980, 9819.000
716.8520, 9733.000
718.0050, 9531.000
719.1580, 9209.000
720.3110, 9236.000
721.4640, 8901.000
722.6170, 8689.000
723.7700, 8776.000
724.9220, 8605.000
726.0740, 8486.000
727.2260, 8591.000
728.3780, 8472.000
729.5300, 8630.000
730.6810, 8552.000
731.8330, 8543.000
732.9840, 8711.000
734.1350, 8593.000
735.2860, 8514.000
736.4370, 8615.000
737.5880, 8609.000
738.7380, 8513.000
739.8880, 8478.000
741.0390, 8505.000
742.1890, 8442.000
743.3380, 8403.000
744.4880, 8364.000
745.6380, 8372.000
746.7870, 8321.000
747.9360, 8332.000
749.0850, 8425.000
750.2340, 8370.000
751.3830, 8423.000
752.5310, 8342.000
753.6800, 8489.000
754.8280, 8430.000
755.9760, 8409.000
757.1240, 8325.000
758.2720, 8366.000
759.4190, 8345.000
760.5670, 8312.000
761.7140, 8252.000
762.8610, 8245.119
764.0080, 8240.938
765.1550, 8228.000
766.3020, 8246.000
767.4480, 8279.000
768.5950, 8236.000
769.7410, 8275.000
770.8870, 8180.000
772.0330, 8395.000
773.1780, 8404.000
774.3240, 8495.000
775.4690, 8406.000
776.6140, 8446.000
777.7590, 8508.000
778.9040, 8643.000
780.0490, 8717.000
781.1940, 8832.000
782.3380, 8778.000
783.4820, 8841.000
784.6260, 8858.000
785.7700, 8982.000
786.9140, 9112.000
788.0580, 9105.000
789.2010, 9269.000
790.3450, 9436.000
791.4880, 9615.000
792.6310, 9545.000
793.7730, 9896.000
794.9160, 9870.000
796.0590, 10249.00
797.2010, 10480.00
798.3430, 10757.00
799.4850, 10949.00
800.6270, 11268.00
801.7690, 11684.00
802.9100, 12025.00
804.0520, 12436.00
805.1930, 12810.00
806.3340, 13310.88
807.4750, 13849.00
808.6160, 14381.00
809.7560, 15028.00
810.8970, 15630.00
812.0370, 16321.00
813.1770, 17088.00
814.3170, 17794.00
815.4570, 18464.00
816.5960, 18854.00
817.7360, 18912.00
818.8750, 18943.00
820.0140, 18680.00
821.1530, 18401.00
822.2920, 17700.00
823.4310, 17068.00
824.5690, 16279.00
825.7070, 15511.00
826.8460, 14758.00
827.9840, 14227.00
829.1220, 13540.00
830.2590, 13004.00
831.3970, 12393.00
832.5340, 12123.00
833.6710, 12045.00
834.8080, 11494.00
835.9450, 11306.00
837.0820, 10734.00
838.2190, 10459.00
839.3550, 10045.00
840.4910, 9733.000
841.6270, 9656.000
842.7630, 9317.000
843.8990, 9239.000
845.0350, 8955.000
846.1700, 8768.000
847.3060, 8696.000
848.4410, 8547.866
849.5760, 8531.000
850.7100, 8438.000
851.8450, 8436.000
852.9800, 8444.000
854.1140, 8301.000
855.2480, 8466.000
856.3820, 8347.000
857.5160, 8262.000
858.6500, 8468.000
859.7830, 8431.000
860.9170, 8467.000
862.0500, 8481.000
863.1830, 8521.147
864.3160, 8563.208
865.4480, 8630.000
866.5810, 8628.000
867.7130, 8667.000
868.8460, 8632.000
869.9780, 8686.000
871.1100, 8868.000
872.2410, 8735.000
873.3730, 8803.000
874.5050, 8914.000
875.6360, 8861.000
876.7670, 9051.000
877.8980, 8891.000
879.0290, 9103.000
880.1590, 9198.000
881.2900, 9108.000
882.4200, 9360.000
883.5500, 9315.000
884.6800, 9526.000
885.8100, 9532.000
886.9400, 9696.000
888.0690, 9796.000
889.1990, 10045.00
890.3280, 10312.00
891.4570, 10401.00
892.5860, 10765.00
893.7140, 11037.00
894.8430, 11381.00
895.9710, 11740.00
897.1000, 12133.00
898.2280, 12583.00
899.3560, 13183.00
900.4830, 13866.00
901.6110, 14430.00
902.7380, 15201.00
903.8660, 16061.00
904.9930, 17285.00
906.1200, 18581.00
907.2460, 20259.00
908.3730, 22492.00
909.5000, 25041.00
910.6260, 28791.00
911.7520, 33464.00
912.8780, 38973.00
914.0040, 44969.00
915.1290, 50492.00
916.2550, 55011.00
917.3800, 57929.00
918.5050, 58718.00
919.6300, 56540.00
920.7550, 52508.00
921.8800, 46623.00
923.0040, 40278.00
924.1290, 34938.00
925.2530, 30237.00
926.3770, 26760.00
927.5010, 24272.00
928.6250, 22486.00
929.7480, 20813.00
930.8720, 19746.00
931.9950, 18893.00
933.1180, 18130.00
934.2410, 17932.00
935.3640, 17818.00
936.4860, 17851.00
937.6090, 18216.00
938.7310, 18739.00
939.8530, 19488.00
940.9750, 20896.00
942.0970, 22778.00
943.2180, 24761.00
944.3400, 27555.00
945.4610, 30777.00
946.5820, 33445.00
947.7030, 36370.00
948.8240, 38775.00
949.9450, 40108.00
951.0650, 40331.00
952.1860, 38770.00
953.3060, 35968.00
954.4260, 32807.00
955.5460, 29183.00
956.6650, 25635.00
957.7850, 22562.00
958.9040, 20407.00
960.0230, 18382.00
961.1420, 17116.00
962.2610, 15942.00
963.3800, 15129.00
964.4990, 14515.00
965.6170, 13851.00
966.7350, 13515.00
967.8530, 13213.00
968.9710, 13103.00
970.0890, 12888.00
971.2070, 12737.00
972.3240, 12617.00
973.4410, 12519.00
974.5580, 12462.00
975.6750, 12404.00
976.7920, 12306.00
977.9090, 12178.00
979.0250, 12181.00
980.1410, 12168.00
981.2580, 12141.00
982.3740, 11995.00
983.4890, 12013.00
984.6050, 12004.00
985.7200, 11934.00
986.8360, 12075.00
987.9510, 12052.00
989.0660, 12141.00
990.1810, 12337.00
991.2950, 12487.00
992.4100, 12817.00
993.5240, 13131.00
994.6390, 13524.00
995.7530, 14046.00
996.8660, 14853.00
997.9800, 15926.00
999.0940, 16984.00
1000.207, 18315.00
1001.320, 19259.00
1002.433, 19990.00
1003.546, 20292.00
1004.659, 19941.00
1005.772, 19488.00
1006.884, 18421.00
1007.996, 17501.00
1009.108, 16457.00
1010.220, 15322.00
1011.332, 14749.00
1012.444, 14328.00
1013.555, 13951.00
1014.666, 13694.00
1015.777, 13339.00
1016.888, 13399.00
1017.999, 13083.00
1019.110, 13063.00
1020.220, 13038.00
1021.331, 12744.00
1022.441, 12534.00
1023.551, 12595.00
1024.661, 12327.00
1025.770, 12296.00
1026.880, 12118.00
1027.989, 12047.00
1029.098, 12148.00
1030.207, 12021.32
1031.316, 12031.00
1032.425, 12030.00
1033.533, 11957.14
1034.642, 11957.00
1035.750, 11869.00
1036.858, 11789.00
1037.966, 11732.00
1039.073, 11736.00
1040.181, 11605.00
1041.288, 11399.00
1042.396, 11390.00
1043.503, 11240.00
1044.610, 11144.00
1045.716, 11243.00
1046.823, 11267.00
1047.929, 11256.00
1049.036, 11339.00
1050.142, 11322.00
1051.248, 11382.00
1052.353, 11564.00
1053.459, 11806.00
1054.564, 11970.00
1055.670, 12470.00
1056.775, 12858.00
1057.880, 13640.00
1058.985, 14363.00
1060.089, 15391.00
1061.194, 16043.00
1062.298, 16458.00
1063.402, 17019.00
1064.506, 17155.00
1065.610, 16695.00
1066.713, 16140.00
1067.817, 15061.00
1068.920, 14341.00
1070.023, 13625.00
1071.126, 13005.00
1072.229, 12612.00
1073.332, 12206.00
1074.435, 11817.00
1075.537, 11851.00
1076.639, 11496.00
1077.741, 11562.00
1078.843, 11283.00
1079.945, 11236.00
1081.046, 11211.00
1082.148, 11057.00
1083.249, 11026.00
1084.350, 10917.00
1085.451, 10949.00
1086.551, 10972.00
1087.652, 10977.00
1088.752, 10827.00
1089.853, 10729.00
1090.953, 10695.00
1092.053, 10711.00
1093.152, 10726.00
1094.252, 10748.00
1095.351, 10617.00
1096.451, 11253.00
1097.550, 11254.00
1098.649, 11231.00
1099.748, 10811.00
1100.846, 10658.00
1101.945, 10738.00
1103.043, 10618.00
1104.141, 10789.00
1105.239, 10769.00
1106.337, 10754.00
1107.434, 10730.00
1108.532, 10906.00
1109.629, 10766.00
1110.726, 10841.00
1111.823, 10708.00
1112.920, 10585.00
1114.017, 10684.00
1115.113, 10682.00
1116.210, 10612.00
1117.306, 10669.00
1118.402, 10620.31
1119.498, 10573.00
1120.593, 10563.00
1121.689, 10620.00
1122.784, 10568.00
1123.879, 10733.00
1124.974, 10662.00
1126.069, 10629.00
1127.164, 10658.00
1128.259, 10598.00
1129.353, 10605.00
1130.447, 10629.00
1131.541, 10722.00
1132.635, 10610.00
1133.729, 10763.00
1134.822, 10579.00
1135.916, 10525.00
1137.009, 10730.00
1138.102, 10752.00
1139.195, 10648.00
1140.288, 10769.00
1141.380, 10661.00
1142.473, 10675.00
1143.565, 10718.00
1144.657, 10816.00
1145.749, 10758.00
1146.841, 10662.00
1147.932, 10676.00
1149.024, 10671.88
1150.115, 10743.00
1151.206, 10752.00
1152.297, 10783.00
1153.388, 10842.00
1154.479, 10719.00
1155.569, 10639.00
1156.659, 10780.00
1157.750, 10842.00
1158.839, 10793.00
1159.929, 10844.00
1161.019, 10756.00
1162.108, 10882.00
1163.198, 10684.00
1164.287, 10926.00
1165.376, 10882.00
1166.465, 10863.00
1167.553, 10837.00
1168.642, 10979.00
1169.730, 11002.00
1170.818, 10816.00
1171.906, 10765.00
1172.994, 10928.00
1174.082, 10865.00
1175.170, 10879.00
1176.257, 10794.00
1177.344, 10839.00
1178.431, 10848.00
1179.518, 11008.00
1180.605, 10758.00
1181.691, 10898.00
1182.778, 10969.00
1183.864, 10849.00
1184.950, 10936.00
1186.036, 10896.00
1187.122, 10987.00
1188.207, 10873.00
1189.292, 10981.00
1190.378, 10895.00
1191.463, 10884.00
1192.548, 10976.00
1193.632, 10977.00
1194.717, 10910.00
1195.801, 10890.00
1196.886, 10871.00
1197.970, 10856.00
1199.054, 10976.00
1200.137, 10874.00
1201.221, 10835.00
1202.305, 10919.00
1203.388, 10720.00
1204.471, 10847.00
1205.554, 10834.00
1206.637, 10754.00
1207.719, 10677.00
1208.802, 10769.00
1209.884, 10765.00
1210.966, 10572.00
1212.048, 10608.00
1213.130, 10475.00
1214.212, 10586.00
1215.293, 10689.00
1216.374, 10620.00
1217.456, 10709.00
1218.536, 10555.00
1219.617, 10510.00
1220.698, 10547.00
1221.778, 10480.00
1222.859, 10413.00
1223.939, 10416.00
1225.019, 10394.00
1226.099, 10446.00
1227.178, 10430.00
1228.258, 10502.00
1229.337, 10391.00
1230.417, 10547.00
1231.496, 10555.00
1232.574, 10449.00
1233.653, 10431.00
1234.732, 10434.00
1235.810, 10403.00
1236.888, 10376.00
1237.966, 10375.69
1239.044, 10378.00
1240.122, 10370.00
1241.199, 10318.00
1242.277, 10326.00
1243.354, 10427.00
1244.431, 10329.00
1245.508, 10514.00
1246.585, 10517.00
1247.661, 10494.00
1248.738, 10441.00
1249.814, 10392.00
1250.890, 10368.00
1251.966, 10449.00
1253.042, 10423.00
1254.117, 10373.00
1255.193, 10423.00
1256.268, 10331.00
1257.343, 10420.00
1258.418, 10521.00
1259.493, 10365.00
1260.567, 10497.00
1261.642, 10483.00
1262.716, 10351.00
1263.790, 10301.00
1264.864, 10285.32
1265.938, 10334.00
1267.011, 10262.00
1268.085, 10371.00
1269.158, 10362.00
1270.231, 10398.00
1271.304, 10547.00
1272.377, 10275.00
1273.450, 10360.00
1274.522, 10497.00
1275.594, 10250.00
1276.666, 10239.00
1277.738, 10341.00
1278.810, 10277.00
1279.882, 10322.00
1280.953, 10245.00
1282.025, 10350.00
1283.096, 10322.98
1284.167, 10422.00
1285.238, 10342.00
1286.308, 10092.00
1287.379, 10095.00
1288.449, 10154.00
1289.519, 10066.00
1290.589, 10141.00
1291.659, 10152.00
1292.729, 10258.00
1293.798, 10175.00
1294.868, 10086.00
1295.937, 10026.00
1297.006, 10117.00
1298.075, 10071.00
1299.143, 10139.00
1300.212, 10050.00
1301.280, 9978.000
1302.348, 10028.00
1303.416, 10062.00
1304.484, 10138.00
1305.552, 9977.000
1306.620, 10000.00
1307.687, 10190.00
1308.754, 10061.00
1309.821, 10157.00
1310.888, 10132.00
1311.955, 10158.00
1313.021, 10099.00
1314.088, 10037.00
1315.154, 10144.00
1316.220, 10061.00
1317.286, 10200.00
1318.352, 10180.00
1319.417, 10188.00
1320.483, 10164.00
1321.548, 10077.00
1322.613, 10043.00
1323.678, 10141.00
1324.743, 10151.00
1325.807, 10223.00
1326.872, 10239.00
1327.936, 10215.00
1329.000, 10402.00
1330.064, 10209.00
1331.128, 10132.00
1332.191, 10306.00
1333.255, 10323.00
1334.318, 10270.00
1335.381, 10248.00
1336.444, 10226.00
1337.507, 10268.00
1338.569, 10260.00
1339.632, 10273.32
1340.694, 10200.00
1341.756, 10280.00
1342.818, 10340.00
1343.880, 10308.00
1344.941, 10400.00
1346.003, 10426.00
1347.064, 10392.00
1348.125, 10324.00
1349.186, 10466.00
1350.247, 10519.00
1351.308, 10590.00
1352.368, 10449.00
1353.428, 10429.00
1354.489, 10553.00
1355.549, 10469.00
1356.608, 10551.00
1357.668, 10543.00
1358.727, 10568.00
1359.787, 10658.00
1360.846, 10562.00
1361.905, 10696.00
1362.964, 10761.00
1364.022, 10544.00
1365.081, 10733.00
1366.139, 10576.00
1367.197, 10640.00
1368.255, 10832.00
1369.313, 10691.00
1370.371, 10555.00
1371.428, 10839.00
1372.486, 10695.00
1373.543, 10728.00
1374.600, 10780.00
1375.657, 10791.00
1376.713, 10730.00
1377.770, 10799.00
1378.826, 10641.00
1379.882, 10694.00
1380.938, 10662.00
1381.994, 10685.00
1383.050, 10695.00
1384.106, 10698.46
1385.161, 10705.48
1386.216, 10732.00
1387.271, 10694.00
1388.326, 10716.00
1389.381, 10688.00
1390.435, 10678.72
1391.490, 10778.00
1392.544, 10677.00
1393.598, 10704.00
1394.652, 10753.00
1395.705, 10661.00
1396.759, 10639.00
1397.812, 10546.00
1398.866, 10571.00
1399.919, 10629.00
1400.972, 10570.00
1402.024, 10578.00
1403.077, 10596.00
1404.129, 10582.00
1405.181, 10657.00
1406.233, 10663.00
1407.285, 10695.00
1408.337, 10719.57
1409.389, 10637.00
1410.440, 10752.00
1411.491, 10639.00
1412.542, 10656.00
1413.593, 10674.94
1414.644, 10594.00
1415.695, 10694.00
1416.745, 10629.00
1417.795, 10640.00
1418.845, 10721.00
1419.895, 10526.00
1420.945, 10678.00
1421.995, 10675.00
1423.044, 10720.00
1424.093, 10864.00
1425.142, 10739.00
1426.191, 10900.00
1427.240, 10722.00
1428.289, 10864.00
1429.337, 11005.00
1430.385, 10864.00
1431.433, 10864.00
1432.481, 10849.00
1433.529, 10944.00
1434.577, 11010.00
1435.624, 10930.00
1436.672, 10969.00
1437.719, 10950.00
1438.766, 11060.00
1439.812, 11046.00
1440.859, 11168.00
1441.905, 11072.00
1442.952, 11162.00
1443.998, 11131.00
1445.044, 11202.00
1446.090, 11241.00
1447.135, 11142.00
1448.181, 11203.00
1449.226, 11123.00
1450.271, 11289.00
1451.316, 11140.00
1452.361, 11259.00
1453.405, 11092.00
1454.450, 11181.00
1455.494, 11056.00
1456.538, 11285.00
1457.582, 11154.00
1458.626, 11074.00
1459.670, 11225.00
1460.713, 11009.00
1461.757, 11084.00
1462.800, 11133.00
1463.843, 11198.00
1464.886, 11192.00
1465.928, 11150.71
1466.971, 11115.00
1468.013, 11083.00
1469.055, 11028.00
1470.097, 11037.28
1471.139, 10931.00
1472.181, 11032.00
1473.222, 10979.00
1474.263, 10929.00
1475.305, 10862.00
1476.346, 10960.00
1477.386, 10829.00
1478.427, 10900.00
1479.468, 10851.00
1480.508, 10883.00
1481.548, 10861.00
1482.588, 10788.00
1483.628, 10801.00
1484.668, 10895.00
1485.707, 10773.00
1486.747, 10807.00
1487.786, 10841.00
1488.825, 10673.00
1489.864, 10775.00
1490.902, 10889.00
1491.941, 10851.00
1492.979, 10727.00
1494.017, 10775.00
1495.055, 10838.00
1496.093, 10898.00
1497.131, 10892.00
1498.168, 10814.00
1499.206, 10849.00
1500.243, 10802.00
1501.280, 10794.60
1502.317, 10842.00
1503.354, 10784.00
1504.390, 10870.00
1505.426, 10873.00
1506.463, 10857.00
1507.499, 11009.00
1508.535, 10875.00
1509.570, 10822.00
1510.606, 10880.00
1511.641, 10862.00
1512.676, 11024.00
1513.711, 10908.00
1514.746, 11001.00
1515.781, 10973.00
1516.816, 11023.00
1517.850, 11095.00
1518.884, 11092.00
1519.918, 11030.00
1520.952, 11113.00
1521.986, 11107.00
1523.019, 10983.00
1524.053, 11194.00
1525.086, 11164.00
1526.119, 11012.00
1527.152, 11095.00
1528.185, 11137.00
1529.217, 11223.00
1530.250, 11308.00
1531.282, 11226.00
1532.314, 11209.00
1533.346, 11275.00
1534.377, 11185.00
1535.409, 11097.00
1536.440, 11233.00
1537.472, 11256.00
1538.503, 11173.00
1539.534, 11209.00
1540.564, 11279.00
1541.595, 11322.00
1542.625, 11410.00
1543.656, 11389.00
1544.686, 11326.00
1545.716, 11419.00
1546.745, 11373.00
1547.775, 11361.00
##END=



