##NAMES=Andalusite
##RRUFFID=R050449
##IDEAL CHEMISTRY=Al_2_SiO_5_
##LOCALITY=Itinga, Minas Gerais, Brazil
##OWNER=RRUFF
##SOURCE=Marcus Origlieri
##DESCRIPTION=Green fragment
##STATUS=The identification of this mineral has been confirmed by X-ray diffraction and chemical analysis
##URL=rruff.info/R050449
##MEASURED CHEMISTRY=Al_2.00_Fe^3+^_0.01_Si_0.99_O_5_
##PIN_ID=L00614
##ORIENTATION=Laser parallel to a* (1 0 0). Fiducial mark perpendicular to laser is parallel to b [0 1 0]
121.8270, 5191.000
123.0580, 5445.000
124.2880, 5339.000
125.5190, 5317.000
126.7490, 5394.000
127.9790, 5556.000
129.2090, 5711.000
130.4390, 5916.000
131.6680, 6096.000
132.8980, 6099.000
134.1270, 6200.000
135.3560, 6260.000
136.5850, 6469.000
137.8140, 6532.000
139.0430, 6768.000
140.2710, 6785.000
141.5000, 6663.000
142.7280, 6477.000
143.9560, 6375.000
145.1840, 6302.439
146.4120, 6257.000
147.6390, 6207.000
148.8670, 6059.000
150.0940, 6006.000
151.3210, 6017.000
152.5490, 6144.000
153.7750, 6052.000
155.0020, 6093.000
156.2290, 6104.000
157.4550, 5877.000
158.6810, 5766.000
159.9080, 5893.000
161.1340, 5956.000
162.3590, 5992.000
163.5850, 6073.000
164.8110, 6252.000
166.0360, 6462.000
167.2610, 6454.000
168.4860, 6495.000
169.7110, 6616.000
170.9360, 6608.000
172.1610, 6762.000
173.3850, 6655.000
174.6100, 6737.000
175.8340, 6839.000
177.0580, 6908.000
178.2820, 7042.000
179.5050, 7238.000
180.7290, 7238.000
181.9520, 7467.000
183.1760, 7588.000
184.3990, 7678.000
185.6220, 7968.000
186.8450, 8103.000
188.0670, 8254.000
189.2900, 8571.000
190.5120, 8531.000
191.7340, 8775.000
192.9560, 8926.000
194.1780, 9227.000
195.4000, 9241.000
196.6220, 9465.000
197.8430, 9414.000
199.0640, 9463.000
200.2860, 9735.000
201.5070, 9876.000
202.7270, 10031.00
203.9480, 9532.000
205.1690, 8994.000
206.3890, 8555.000
207.6090, 8407.000
208.8290, 8389.000
210.0490, 8315.000
211.2690, 8307.000
212.4890, 8460.000
213.7080, 8433.000
214.9280, 8426.000
216.1470, 8533.000
217.3660, 8528.000
218.5850, 8654.000
219.8030, 8766.000
221.0220, 8709.000
222.2400, 8770.000
223.4590, 8810.000
224.6770, 8894.000
225.8950, 8821.000
227.1120, 8930.000
228.3300, 8795.000
229.5480, 8849.000
230.7650, 8808.000
231.9820, 8844.000
233.1990, 8795.000
234.4160, 8797.000
235.6330, 8867.000
236.8490, 8861.000
238.0660, 8881.000
239.2820, 8897.586
240.4980, 8878.082
241.7140, 8911.000
242.9300, 8886.000
244.1460, 8903.000
245.3610, 9000.000
246.5770, 8818.000
247.7920, 8818.000
249.0070, 8650.000
250.2220, 8790.000
251.4370, 8699.000
252.6510, 8770.000
253.8660, 8731.000
255.0800, 8611.000
256.2940, 8608.000
257.5080, 8595.000
258.7220, 8805.000
259.9360, 8688.221
261.1490, 8703.329
262.3630, 8623.000
263.5760, 8632.000
264.7890, 8682.000
266.0020, 8743.000
267.2150, 8692.000
268.4270, 8780.000
269.6400, 8856.000
270.8520, 8934.000
272.0640, 9125.000
273.2760, 9369.000
274.4880, 9371.000
275.7000, 9635.000
276.9120, 9995.000
278.1230, 10557.00
279.3340, 11399.00
280.5450, 12370.00
281.7560, 13771.00
282.9670, 15257.00
284.1780, 16785.00
285.3880, 17817.00
286.5980, 18944.00
287.8090, 19387.00
289.0190, 19605.89
290.2290, 19407.91
291.4380, 18957.00
292.6480, 17806.00
293.8570, 16508.00
295.0670, 14744.00
296.2760, 13488.00
297.4850, 12259.00
298.6930, 11027.00
299.9020, 10193.00
301.1110, 9570.000
302.3190, 9316.000
303.5270, 9144.000
304.7350, 8984.000
305.9430, 9179.000
307.1510, 9596.000
308.3580, 10190.00
309.5660, 11574.00
310.7730, 13345.00
311.9800, 15743.00
313.1870, 17768.00
314.3940, 19473.00
315.6010, 21099.00
316.8070, 22617.00
318.0130, 23319.00
319.2200, 23073.00
320.4260, 21946.00
321.6310, 20339.00
322.8370, 18592.00
324.0430, 16609.00
325.2480, 15026.00
326.4540, 13438.00
327.6590, 12167.00
328.8640, 11320.00
330.0680, 10640.00
331.2730, 10334.00
332.4780, 10223.00
333.6820, 10072.00
334.8860, 9978.000
336.0900, 10216.00
337.2940, 10329.00
338.4980, 10501.00
339.7010, 10656.00
340.9050, 10970.00
342.1080, 11122.00
343.3110, 11507.00
344.5140, 12296.00
345.7170, 12942.00
346.9200, 14129.00
348.1220, 15509.00
349.3240, 17223.00
350.5270, 18935.00
351.7290, 20637.00
352.9310, 21787.00
354.1320, 23225.00
355.3340, 24240.00
356.5350, 24414.00
357.7370, 24026.00
358.9380, 23334.00
360.1390, 22355.00
361.3400, 21345.00
362.5400, 20003.00
363.7410, 19051.00
364.9410, 18127.00
366.1410, 17264.00
367.3410, 16767.00
368.5410, 16344.00
369.7410, 15912.00
370.9400, 15595.00
372.1400, 15342.00
373.3390, 15035.00
374.5380, 14964.00
375.7370, 14714.00
376.9360, 14606.00
378.1350, 14518.00
379.3330, 14557.00
380.5310, 14729.00
381.7300, 14829.00
382.9280, 14993.00
384.1260, 15231.00
385.3230, 15394.00
386.5210, 15591.00
387.7180, 15604.00
388.9160, 15828.00
390.1130, 15655.00
391.3100, 15730.00
392.5060, 15653.00
393.7030, 15513.00
394.9000, 15533.00
396.0960, 15277.00
397.2920, 15090.00
398.4880, 15028.00
399.6840, 14830.00
400.8800, 15107.00
402.0750, 14794.00
403.2710, 14988.00
404.4660, 14893.00
405.6610, 14914.00
406.8560, 15136.00
408.0510, 15217.00
409.2450, 15145.00
410.4400, 15237.00
411.6340, 15102.00
412.8280, 15420.00
414.0220, 15296.00
415.2160, 15325.00
416.4100, 15426.00
417.6030, 15205.00
418.7970, 15181.00
419.9900, 15004.00
421.1830, 14849.00
422.3760, 14648.00
423.5690, 14630.00
424.7610, 14564.00
425.9540, 14219.00
427.1460, 14103.00
428.3380, 13874.00
429.5300, 13801.00
430.7220, 13744.00
431.9140, 13783.00
433.1050, 13922.00
434.2970, 13982.00
435.4880, 14162.63
436.6790, 14368.00
437.8700, 14573.00
439.0610, 14844.00
440.2510, 15121.00
441.4420, 15468.00
442.6320, 15940.00
443.8220, 16343.00
445.0120, 16527.00
446.2020, 16758.00
447.3910, 16613.00
448.5810, 16575.00
449.7700, 16212.00
450.9600, 16033.00
452.1490, 15254.00
453.3370, 14624.00
454.5260, 13898.00
455.7150, 13519.00
456.9030, 13151.00
458.0910, 12676.00
459.2800, 12454.00
460.4670, 12235.00
461.6550, 12192.00
462.8430, 11933.00
464.0300, 11894.00
465.2180, 11804.00
466.4050, 11792.00
467.5920, 11770.00
468.7790, 11679.00
469.9650, 11634.00
471.1520, 11612.00
472.3380, 11564.00
473.5250, 11541.00
474.7110, 11602.00
475.8970, 11491.00
477.0820, 11518.00
478.2680, 11621.00
479.4540, 11635.00
480.6390, 11346.00
481.8240, 11523.00
483.0090, 11454.00
484.1940, 11580.00
485.3780, 11728.00
486.5630, 11846.00
487.7470, 12047.00
488.9320, 12176.00
490.1160, 12453.00
491.3000, 12893.00
492.4830, 13114.00
493.6670, 13501.00
494.8500, 13833.00
496.0340, 14123.00
497.2170, 14553.22
498.4000, 14954.00
499.5820, 15387.00
500.7650, 15741.00
501.9480, 16188.00
503.1300, 16574.00
504.3120, 16915.00
505.4940, 17487.00
506.6760, 17757.00
507.8580, 18042.00
509.0390, 18188.00
510.2210, 18388.00
511.4020, 18186.00
512.5830, 18354.00
513.7640, 18320.00
514.9450, 18243.00
516.1250, 18188.00
517.3060, 17996.00
518.4860, 18117.00
519.6660, 18083.00
520.8460, 18024.00
522.0260, 18335.00
523.2060, 18386.00
524.3850, 18441.00
525.5650, 18770.00
526.7440, 19090.00
527.9230, 19411.00
529.1020, 19855.00
530.2810, 20599.00
531.4590, 21020.00
532.6380, 21516.00
533.8160, 22515.00
534.9940, 23001.00
536.1720, 23767.00
537.3500, 24677.00
538.5270, 25242.00
539.7050, 26099.00
540.8820, 26749.00
542.0590, 27390.00
543.2360, 28286.00
544.4130, 28493.00
545.5900, 29233.00
546.7660, 29615.00
547.9430, 30160.00
549.1190, 30369.00
550.2950, 30730.00
551.4710, 30500.00
552.6470, 30245.00
553.8220, 29917.00
554.9980, 29182.00
556.1730, 28825.00
557.3480, 28156.00
558.5230, 27767.00
559.6980, 27323.00
560.8730, 27290.00
562.0470, 27022.00
563.2220, 26897.00
564.3960, 26887.00
565.5700, 26891.00
566.7440, 26868.18
567.9170, 27086.00
569.0910, 26900.00
570.2640, 26939.00
571.4380, 26943.00
572.6110, 26365.00
573.7840, 26091.00
574.9570, 25612.00
576.1290, 24945.00
577.3020, 24719.00
578.4740, 24103.00
579.6460, 23586.00
580.8180, 23038.00
581.9900, 22516.00
583.1620, 21909.00
584.3330, 21493.93
585.5040, 21122.00
586.6760, 20698.00
587.8470, 20536.00
589.0180, 20273.00
590.1880, 19984.00
591.3590, 19647.00
592.5290, 19625.00
593.7000, 19499.00
594.8700, 19593.00
596.0400, 19592.00
597.2090, 19450.00
598.3790, 19891.00
599.5490, 19753.00
600.7180, 20164.00
601.8870, 20322.00
603.0560, 20928.00
604.2250, 21096.00
605.3940, 21971.00
606.5620, 22341.00
607.7300, 23101.00
608.8990, 23678.00
610.0670, 24345.00
611.2350, 24829.00
612.4020, 25583.00
613.5700, 26139.00
614.7370, 26622.00
615.9050, 27082.00
617.0720, 27358.00
618.2390, 27769.00
619.4060, 27865.00
620.5720, 28239.00
621.7390, 28502.00
622.9050, 28558.00
624.0710, 28869.00
625.2370, 29367.00
626.4030, 29287.00
627.5690, 29547.00
628.7340, 29815.00
629.9000, 29871.00
631.0650, 29762.76
632.2300, 29606.14
633.3950, 29250.00
634.5600, 28857.00
635.7240, 28481.00
636.8890, 27846.00
638.0530, 27640.00
639.2170, 27273.00
640.3810, 26845.00
641.5450, 26657.00
642.7080, 26312.00
643.8720, 26242.00
645.0350, 25805.00
646.1980, 25286.00
647.3610, 24856.00
648.5240, 24189.00
649.6870, 23067.00
650.8490, 22136.00
652.0120, 21210.00
653.1740, 20345.00
654.3360, 19457.00
655.4980, 18406.00
656.6600, 17625.00
657.8210, 16947.00
658.9830, 16047.00
660.1440, 15587.00
661.3050, 14864.00
662.4660, 14458.00
663.6270, 13948.00
664.7870, 13417.00
665.9480, 12914.00
667.1080, 12647.00
668.2680, 12375.00
669.4280, 12152.00
670.5880, 12028.00
671.7480, 11845.00
672.9070, 11828.00
674.0670, 11628.00
675.2260, 11521.00
676.3850, 11422.00
677.5440, 11189.00
678.7030, 11195.00
679.8610, 11189.00
681.0200, 11009.00
682.1780, 10979.00
683.3360, 10906.00
684.4940, 10878.59
685.6520, 10887.00
686.8090, 10928.00
687.9670, 11024.00
689.1240, 11132.00
690.2810, 11206.00
691.4380, 11271.80
692.5950, 11279.00
693.7520, 11373.00
694.9080, 11495.00
696.0650, 11546.00
697.2210, 11757.00
698.3770, 11714.00
699.5330, 11817.00
700.6880, 12020.00
701.8440, 11903.00
702.9990, 12168.00
704.1550, 12222.00
705.3100, 12332.00
706.4650, 12622.00
707.6190, 12647.00
708.7740, 12939.00
709.9290, 13063.00
711.0830, 13391.00
712.2370, 13436.00
713.3910, 13519.00
714.5450, 13473.00
715.6980, 13386.00
716.8520, 13010.00
718.0050, 12761.00
719.1580, 12429.00
720.3110, 12033.00
721.4640, 11567.00
722.6170, 11436.00
723.7700, 11159.00
724.9220, 11126.00
726.0740, 11128.00
727.2260, 11129.00
728.3780, 11051.00
729.5300, 11216.00
730.6810, 11268.00
731.8330, 11292.00
732.9840, 11272.00
734.1350, 11249.00
735.2860, 11271.00
736.4370, 11307.00
737.5880, 11058.00
738.7380, 10855.00
739.8880, 10733.00
741.0390, 10630.09
742.1890, 10548.00
743.3380, 10552.00
744.4880, 10553.00
745.6380, 10543.00
746.7870, 10565.00
747.9360, 10522.00
749.0850, 10681.00
750.2340, 10565.00
751.3830, 10672.00
752.5310, 10572.00
753.6800, 10691.00
754.8280, 10645.00
755.9760, 10595.00
757.1240, 10517.00
758.2720, 10473.26
759.4190, 10484.00
760.5670, 10371.00
761.7140, 10341.00
762.8610, 10307.00
764.0080, 10174.00
765.1550, 10320.00
766.3020, 10287.00
767.4480, 10427.00
768.5950, 10319.00
769.7410, 10187.00
770.8870, 10426.00
772.0330, 10502.00
773.1780, 10516.00
774.3240, 10762.00
775.4690, 10629.00
776.6140, 10834.00
777.7590, 10998.00
778.9040, 10965.00
780.0490, 11156.00
781.1940, 11214.00
782.3380, 11339.00
783.4820, 11512.00
784.6260, 11631.00
785.7700, 11820.00
786.9140, 11979.00
788.0580, 12183.65
789.2010, 12436.00
790.3450, 12683.00
791.4880, 12954.00
792.6310, 13340.00
793.7730, 13556.00
794.9160, 13903.00
796.0590, 14347.00
797.2010, 14892.00
798.3430, 15437.00
799.4850, 16114.00
800.6270, 16766.00
801.7690, 17501.00
802.9100, 18274.00
804.0520, 19231.49
805.1930, 20323.00
806.3340, 21382.00
807.4750, 22703.00
808.6160, 24008.00
809.7560, 25522.00
810.8970, 27028.00
812.0370, 28608.00
813.1770, 30235.00
814.3170, 31909.00
815.4570, 33048.00
816.5960, 34151.00
817.7360, 34611.00
818.8750, 34654.00
820.0140, 33948.00
821.1530, 32941.00
822.2920, 31571.00
823.4310, 30083.00
824.5690, 28123.00
825.7070, 26294.00
826.8460, 24742.00
827.9840, 23063.00
829.1220, 21634.00
830.2590, 20240.00
831.3970, 19385.00
832.5340, 18268.00
833.6710, 17393.00
834.8080, 16457.00
835.9450, 15714.00
837.0820, 14898.00
838.2190, 14212.00
839.3550, 13301.00
840.4910, 12955.00
841.6270, 12363.00
842.7630, 11695.00
843.8990, 11556.00
845.0350, 11110.00
846.1700, 10972.00
847.3060, 10652.00
848.4410, 10446.00
849.5760, 10207.00
850.7100, 9974.000
851.8450, 10034.00
852.9800, 9831.000
854.1140, 9868.000
855.2480, 9733.000
856.3820, 9766.000
857.5160, 9695.000
858.6500, 9679.000
859.7830, 9787.000
860.9170, 9807.000
862.0500, 9946.000
863.1830, 10204.00
864.3160, 10122.75
865.4480, 10320.00
866.5810, 10154.00
867.7130, 10041.00
868.8460, 10225.00
869.9780, 10314.00
871.1100, 10083.00
872.2410, 10275.00
873.3730, 10296.00
874.5050, 10122.00
875.6360, 10330.00
876.7670, 10393.00
877.8980, 10520.00
879.0290, 10573.00
880.1590, 10691.00
881.2900, 10572.00
882.4200, 10641.00
883.5500, 10870.00
884.6800, 11138.00
885.8100, 11260.00
886.9400, 11400.00
888.0690, 11570.00
889.1990, 11847.00
890.3280, 12028.00
891.4570, 12316.00
892.5860, 12741.00
893.7140, 13174.00
894.8430, 13525.00
895.9710, 14273.00
897.1000, 14710.00
898.2280, 15661.00
899.3560, 16451.00
900.4830, 17036.00
901.6110, 18124.00
902.7380, 19204.00
903.8660, 20113.00
904.9930, 21584.00
906.1200, 22978.00
907.2460, 24762.00
908.3730, 27074.00
909.5000, 30081.87
910.6260, 33231.00
911.7520, 37581.00
912.8780, 42538.00
914.0040, 47531.00
915.1290, 51985.00
916.2550, 54980.00
917.3800, 56222.00
918.5050, 54644.00
919.6300, 51680.00
920.7550, 47381.00
921.8800, 43782.00
923.0040, 39503.00
924.1290, 36435.00
925.2530, 33276.00
926.3770, 30537.00
927.5010, 28581.00
928.6250, 26861.00
929.7480, 24815.00
930.8720, 23003.00
931.9950, 21587.00
933.1180, 20174.00
934.2410, 19186.00
935.3640, 18213.00
936.4860, 17659.00
937.6090, 17042.00
938.7310, 16764.00
939.8530, 16349.00
940.9750, 15980.00
942.0970, 15814.00
943.2180, 15638.00
944.3400, 15744.00
945.4610, 15770.00
946.5820, 15631.00
947.7030, 15774.00
948.8240, 15756.00
949.9450, 15709.00
951.0650, 15490.00
952.1860, 15325.00
953.3060, 15238.00
954.4260, 15145.00
955.5460, 14883.00
956.6650, 14628.00
957.7850, 14507.00
958.9040, 14493.00
960.0230, 14483.00
961.1420, 14408.00
962.2610, 14405.00
963.3800, 14492.00
964.4990, 14412.00
965.6170, 14729.00
966.7350, 14770.00
967.8530, 14998.00
968.9710, 15078.00
970.0890, 15055.00
971.2070, 15389.00
972.3240, 15515.00
973.4410, 15461.00
974.5580, 15552.00
975.6750, 15578.83
976.7920, 15635.00
977.9090, 15650.00
979.0250, 15760.00
980.1410, 15823.07
981.2580, 15739.00
982.3740, 15888.00
983.4890, 15790.00
984.6050, 15815.00
985.7200, 16068.00
986.8360, 16282.00
987.9510, 16401.00
989.0660, 16797.00
990.1810, 17123.00
991.2950, 17688.00
992.4100, 18156.00
993.5240, 19193.00
994.6390, 20383.00
995.7530, 21911.00
996.8660, 23868.00
997.9800, 26240.00
999.0940, 28635.00
1000.207, 31230.00
1001.320, 33374.00
1002.433, 34985.00
1003.546, 35719.00
1004.659, 35023.00
1005.772, 33768.00
1006.884, 31733.00
1007.996, 29194.00
1009.108, 26974.00
1010.220, 24623.00
1011.332, 22898.00
1012.444, 21257.00
1013.555, 20303.00
1014.666, 19236.00
1015.777, 18925.00
1016.888, 18360.00
1017.999, 18052.00
1019.110, 17766.00
1020.220, 17432.00
1021.331, 17180.00
1022.441, 17073.00
1023.551, 16777.00
1024.661, 16700.00
1025.770, 16483.00
1026.880, 16397.00
1027.989, 16290.00
1029.098, 16092.00
1030.207, 16251.00
1031.316, 16131.00
1032.425, 16217.00
1033.533, 16219.00
1034.642, 16052.00
1035.750, 16006.00
1036.858, 15971.00
1037.966, 15910.00
1039.073, 15483.00
1040.181, 15308.00
1041.288, 14922.00
1042.396, 14906.00
1043.503, 14727.00
1044.610, 14422.00
1045.716, 14267.00
1046.823, 14070.00
1047.929, 13944.39
1049.036, 13861.00
1050.142, 13810.00
1051.248, 13717.00
1052.353, 13736.00
1053.459, 13720.00
1054.564, 13853.00
1055.670, 13969.00
1056.775, 14171.00
1057.880, 14287.00
1058.985, 14516.00
1060.089, 14539.00
1061.194, 14921.00
1062.298, 14953.00
1063.402, 15243.00
1064.506, 15004.00
1065.610, 14997.00
1066.713, 15074.00
1067.817, 14845.00
1068.920, 14776.00
1070.023, 14753.00
1071.126, 14660.00
1072.229, 14668.00
1073.332, 14601.00
1074.435, 14626.00
1075.537, 14602.00
1076.639, 14756.00
1077.741, 14589.00
1078.843, 14555.00
1079.945, 14404.00
1081.046, 14254.00
1082.148, 14193.00
1083.249, 14145.00
1084.350, 14167.00
1085.451, 14084.99
1086.551, 14103.00
1087.652, 13960.00
1088.752, 13951.00
1089.853, 13864.97
1090.953, 13828.00
1092.053, 13755.00
1093.152, 13795.00
1094.252, 13669.00
1095.351, 13652.00
1096.451, 13600.00
1097.550, 13767.00
1098.649, 13756.00
1099.748, 13620.00
1100.846, 13658.00
1101.945, 13570.00
1103.043, 13594.00
1104.141, 13521.00
1105.239, 13732.00
1106.337, 13587.00
1107.434, 13688.00
1108.532, 13569.00
1109.629, 13545.00
1110.726, 13704.00
1111.823, 13650.00
1112.920, 13516.00
1114.017, 13524.00
1115.113, 13388.00
1116.210, 13476.00
1117.306, 13426.00
1118.402, 13548.00
1119.498, 13512.00
1120.593, 13493.00
1121.689, 13374.00
1122.784, 13605.00
1123.879, 13606.00
1124.974, 13536.00
1126.069, 13554.00
1127.164, 13743.00
1128.259, 13633.00
1129.353, 13650.00
1130.447, 13555.00
1131.541, 13587.00
1132.635, 13612.00
1133.729, 13622.71
1134.822, 13652.00
1135.916, 13695.00
1137.009, 13774.00
1138.102, 13763.00
1139.195, 13621.00
1140.288, 13887.00
1141.380, 13789.00
1142.473, 13562.00
1143.565, 13869.00
1144.657, 13654.00
1145.749, 13737.00
1146.841, 13863.00
1147.932, 13784.00
1149.024, 13802.00
1150.115, 13809.00
1151.206, 13908.00
1152.297, 14014.00
1153.388, 13918.00
1154.479, 14017.00
1155.569, 13878.00
1156.659, 13994.00
1157.750, 14003.00
1158.839, 14075.00
1159.929, 14051.00
1161.019, 14048.00
1162.108, 14019.00
1163.198, 13931.00
1164.287, 14167.00
1165.376, 14243.00
1166.465, 14115.00
1167.553, 14117.00
1168.642, 14096.00
1169.730, 14167.00
1170.818, 14265.00
1171.906, 14362.00
1172.994, 14329.00
1174.082, 14388.64
1175.170, 14320.00
1176.257, 14395.00
1177.344, 14259.00
1178.431, 14236.00
1179.518, 14321.00
1180.605, 14116.00
1181.691, 14295.00
1182.778, 14461.00
1183.864, 14245.00
1184.950, 14287.00
1186.036, 14352.00
1187.122, 14167.00
1188.207, 14282.00
1189.292, 14203.00
1190.378, 14347.00
1191.463, 14335.00
1192.548, 14354.00
1193.632, 14309.00
1194.717, 14292.76
1195.801, 14303.00
1196.886, 14197.00
1197.970, 14259.00
1199.054, 14160.00
1200.137, 14134.00
1201.221, 14156.00
1202.305, 14163.00
1203.388, 13982.00
1204.471, 13983.00
1205.554, 13970.00
1206.637, 14024.00
1207.719, 14048.00
1208.802, 13915.00
1209.884, 13756.00
1210.966, 13718.00
1212.048, 13580.00
1213.130, 13686.00
1214.212, 13541.00
1215.293, 13671.00
1216.374, 13694.00
1217.456, 13500.00
1218.536, 13547.00
1219.617, 13426.00
1220.698, 13492.00
1221.778, 13479.00
1222.859, 13405.00
1223.939, 13355.00
1225.019, 13276.49
1226.099, 13188.55
1227.178, 13106.00
1228.258, 12999.00
1229.337, 12935.00
1230.417, 12845.00
1231.496, 12854.87
1232.574, 13056.00
1233.653, 12914.00
1234.732, 12966.00
1235.810, 13022.00
1236.888, 12866.00
1237.966, 12944.00
1239.044, 13005.00
1240.122, 12765.00
1241.199, 12797.00
1242.277, 12869.00
1243.354, 12940.00
1244.431, 12928.57
1245.508, 12919.00
1246.585, 12908.00
1247.661, 12895.00
1248.738, 12879.00
1249.814, 12982.00
1250.890, 12758.00
1251.966, 12684.00
1253.042, 13088.00
1254.117, 12853.00
1255.193, 13005.00
1256.268, 12850.00
1257.343, 12787.00
1258.418, 12963.00
1259.493, 12909.00
1260.567, 12902.00
1261.642, 13003.00
1262.716, 12795.00
1263.790, 12861.00
1264.864, 12605.00
1265.938, 12786.00
1267.011, 12890.00
1268.085, 12851.00
1269.158, 12674.00
1270.231, 12724.00
1271.304, 12747.00
1272.377, 12705.00
1273.450, 12667.00
1274.522, 12709.00
1275.594, 12654.00
1276.666, 12653.00
1277.738, 12511.00
1278.810, 12351.00
1279.882, 12525.00
1280.953, 12386.00
1282.025, 12363.00
1283.096, 12434.00
1284.167, 12399.00
1285.238, 12377.02
1286.308, 12092.00
1287.379, 12287.00
1288.449, 12097.00
1289.519, 12025.00
1290.589, 12141.00
1291.659, 12124.00
1292.729, 11957.00
1293.798, 12207.00
1294.868, 11965.00
1295.937, 12021.00
1297.006, 11970.00
1298.075, 11971.00
1299.143, 11909.00
1300.212, 11835.00
1301.280, 11882.00
1302.348, 11804.00
1303.416, 11833.00
1304.484, 11832.00
1305.552, 11684.00
1306.620, 11866.00
1307.687, 11704.00
1308.754, 11826.00
1309.821, 11891.00
1310.888, 11840.00
1311.955, 11754.00
1313.021, 11878.00
1314.088, 11861.00
1315.154, 11903.00
1316.220, 11910.00
1317.286, 11937.77
1318.352, 11981.17
1319.417, 11968.00
1320.483, 12038.00
1321.548, 11981.00
1322.613, 11934.00
1323.678, 12025.00
1324.743, 11997.00
1325.807, 11932.00
1326.872, 12068.00
1327.936, 12066.00
1329.000, 12224.00
1330.064, 12132.00
1331.128, 12188.00
1332.191, 12117.00
1333.255, 12199.00
1334.318, 12208.00
1335.381, 12370.00
1336.444, 12198.00
1337.507, 12312.00
1338.569, 12278.00
1339.632, 12313.00
1340.694, 12343.00
1341.756, 12467.00
1342.818, 12217.00
1343.880, 12479.00
1344.941, 12539.00
1346.003, 12828.00
1347.064, 12528.00
1348.125, 12601.00
1349.186, 12573.00
1350.247, 12680.00
1351.308, 12557.00
1352.368, 12660.00
1353.428, 12665.00
1354.489, 12720.00
1355.549, 12749.00
1356.608, 12881.00
1357.668, 12877.00
1358.727, 12961.00
1359.787, 12959.00
1360.846, 12972.24
1361.905, 13029.00
1362.964, 12990.00
1364.022, 12942.00
1365.081, 12977.00
1366.139, 12872.00
1367.197, 13095.00
1368.255, 13183.00
1369.313, 13063.00
1370.371, 13108.00
1371.428, 13196.00
1372.486, 13158.00
1373.543, 13241.00
1374.600, 13073.00
1375.657, 13186.00
1376.713, 13018.00
1377.770, 13109.00
1378.826, 13165.00
1379.882, 13094.00
1380.938, 13106.00
1381.994, 13247.00
1383.050, 13003.00
1384.106, 13126.00
1385.161, 13034.00
1386.216, 12912.00
1387.271, 12987.00
1388.326, 13068.00
1389.381, 12987.00
1390.435, 12898.00
1391.490, 12961.00
1392.544, 13001.00
1393.598, 12915.00
1394.652, 12973.00
1395.705, 13001.00
1396.759, 12872.00
1397.812, 12800.00
1398.866, 12805.00
1399.919, 12917.00
1400.972, 12954.00
1402.024, 12766.00
1403.077, 12970.00
1404.129, 12863.00
1405.181, 12654.00
1406.233, 12739.00
1407.285, 12665.00
1408.337, 12753.00
1409.389, 12804.00
1410.440, 12699.00
1411.491, 12594.00
1412.542, 12784.00
1413.593, 12790.00
1414.644, 12721.00
1415.695, 12641.00
1416.745, 12759.00
1417.795, 12803.00
1418.845, 12751.00
1419.895, 12666.00
1420.945, 13012.00
1421.995, 12816.00
1423.044, 12908.00
1424.093, 13010.00
1425.142, 12884.00
1426.191, 12859.00
1427.240, 12968.00
1428.289, 13018.00
1429.337, 13111.00
1430.385, 13225.00
1431.433, 13339.00
1432.481, 13318.00
1433.529, 13250.00
1434.577, 13207.00
1435.624, 13308.00
1436.672, 13397.00
1437.719, 13395.00
1438.766, 13426.00
1439.812, 13594.00
1440.859, 13494.00
1441.905, 13422.00
1442.952, 13533.00
1443.998, 13552.00
1445.044, 13681.00
1446.090, 13626.00
1447.135, 13742.00
1448.181, 13725.00
1449.226, 13777.00
1450.271, 13642.00
1451.316, 13734.00
1452.361, 13646.00
1453.405, 13737.00
1454.450, 13678.00
1455.494, 13597.00
1456.538, 13702.00
1457.582, 13819.00
1458.626, 13754.00
1459.670, 13587.00
1460.713, 13646.00
1461.757, 13550.00
1462.800, 13610.00
1463.843, 13384.00
1464.886, 13513.00
1465.928, 13399.00
1466.971, 13429.00
1468.013, 13268.00
1469.055, 13354.00
1470.097, 13450.00
1471.139, 13327.00
1472.181, 13202.00
1473.222, 13096.00
1474.263, 13097.00
1475.305, 13058.00
1476.346, 13155.00
1477.386, 13018.00
1478.427, 12990.00
1479.468, 12938.00
1480.508, 12872.00
1481.548, 12817.00
1482.588, 12815.00
1483.628, 12810.00
1484.668, 12772.00
1485.707, 12743.00
1486.747, 12737.00
1487.786, 12663.00
1488.825, 12674.00
1489.864, 12546.00
1490.902, 12720.00
1491.941, 12565.00
1492.979, 12660.00
1494.017, 12561.00
1495.055, 12502.00
1496.093, 12560.00
1497.131, 12618.00
1498.168, 12520.00
1499.206, 12575.00
1500.243, 12708.00
1501.280, 12554.00
1502.317, 12654.00
1503.354, 12707.00
1504.390, 12781.00
1505.426, 12817.00
1506.463, 12886.00
1507.499, 12757.00
1508.535, 12795.00
1509.570, 12784.00
1510.606, 12636.00
1511.641, 12797.00
1512.676, 12951.00
1513.711, 12774.00
1514.746, 13073.00
1515.781, 13033.00
1516.816, 13040.00
1517.850, 12930.00
1518.884, 12984.74
1519.918, 13170.00
1520.952, 13046.00
1521.986, 13129.00
1523.019, 13153.00
1524.053, 13189.00
1525.086, 13177.00
1526.119, 13249.00
1527.152, 13273.00
1528.185, 13341.00
1529.217, 13393.00
1530.250, 13415.97
1531.282, 13426.30
1532.314, 13443.00
1533.346, 13422.00
1534.377, 13378.00
1535.409, 13411.00
1536.440, 13526.00
1537.472, 13616.00
1538.503, 13456.00
1539.534, 13736.00
1540.564, 13660.00
1541.595, 13792.00
1542.625, 13758.00
1543.656, 13697.00
1544.686, 13890.00
1545.716, 13876.00
1546.745, 13813.00
1547.775, 13777.00
1548.804, 13824.00
1549.834, 13900.00
##END=



