##NAMES=Andalusite
##RRUFFID=R050626
##IDEAL CHEMISTRY=Al_2_SiO_5_
##LOCALITY=Minas Gerais, Brazil
##OWNER=RRUFF
##SOURCE=Gemological Center
##DESCRIPTION=Grayish brown fragment
##STATUS=The identification of this mineral has been confirmed by X-ray diffraction and chemical analysis
##URL=rruff.info/R050626
##MEASURED CHEMISTRY=(Al_1.99_Fe^3+^_0.01_)_Î£=1_Si_1.00_O_5_
##PIN_ID=L00621
##ORIENTATION=Laser parallel to -c* (0 0 -1). Fiducial mark perpendicular to laser is parallel to -a [-1 0 0]
132.8980, 6912.000
134.1270, 6967.000
135.3560, 6915.000
136.5850, 6956.000
137.8140, 7072.000
139.0430, 7426.000
140.2710, 7658.000
141.5000, 7412.000
142.7280, 7296.000
143.9560, 7127.000
145.1840, 6994.000
146.4120, 7026.000
147.6390, 7132.000
148.8670, 7035.000
150.0940, 6968.000
151.3210, 6978.000
152.5490, 7372.000
153.7750, 7338.000
155.0020, 7196.000
156.2290, 7138.000
157.4550, 6881.000
158.6810, 6814.000
159.9080, 6885.000
161.1340, 6938.000
162.3590, 7015.000
163.5850, 7326.000
164.8110, 7717.000
166.0360, 7910.000
167.2610, 7853.000
168.4860, 7975.000
169.7110, 7964.000
170.9360, 8023.000
172.1610, 7959.000
173.3850, 7960.000
174.6100, 7849.000
175.8340, 7706.000
177.0580, 7786.000
178.2820, 7713.000
179.5050, 7797.000
180.7290, 7745.000
181.9520, 7818.000
183.1760, 7946.000
184.3990, 8145.000
185.6220, 8442.000
186.8450, 8936.000
188.0670, 9485.000
189.2900, 10094.00
190.5120, 10645.00
191.7340, 10696.00
192.9560, 10675.00
194.1780, 10456.00
195.4000, 10310.00
196.6220, 10214.00
197.8430, 10066.00
199.0640, 9990.000
200.2860, 10050.00
201.5070, 10359.00
202.7270, 10487.00
203.9480, 10075.00
205.1690, 9131.000
206.3890, 7935.000
207.6090, 7676.000
208.8290, 7473.000
210.0490, 7405.000
211.2690, 7397.000
212.4890, 7433.000
213.7080, 7476.000
214.9280, 7585.000
216.1470, 7434.000
217.3660, 7420.000
218.5850, 7401.000
219.8030, 7476.000
221.0220, 7487.000
222.2400, 7458.000
223.4590, 7423.000
224.6770, 7546.000
225.8950, 7544.000
227.1120, 7575.000
228.3300, 7652.000
229.5480, 7655.000
230.7650, 7842.000
231.9820, 7877.000
233.1990, 8056.000
234.4160, 8227.000
235.6330, 8472.000
236.8490, 8939.000
238.0660, 9344.000
239.2820, 9781.000
240.4980, 10095.00
241.7140, 10125.00
242.9300, 10175.00
244.1460, 10108.05
245.3610, 9931.423
246.5770, 9679.920
247.7920, 9275.000
249.0070, 8837.000
250.2220, 8813.000
251.4370, 8619.000
252.6510, 8388.000
253.8660, 8503.000
255.0800, 8515.000
256.2940, 8328.000
257.5080, 8472.000
258.7220, 9305.000
259.9360, 8940.836
261.1490, 9791.000
262.3630, 8863.000
263.5760, 8551.000
264.7890, 8595.000
266.0020, 8547.000
267.2150, 8779.000
268.4270, 8832.000
269.6400, 8914.000
270.8520, 9129.000
272.0640, 9430.000
273.2760, 10144.00
274.4880, 10519.00
275.7000, 10901.00
276.9120, 11047.00
278.1230, 11336.00
279.3340, 11682.00
280.5450, 12583.00
281.7560, 13980.00
282.9670, 15626.00
284.1780, 17154.00
285.3880, 19338.00
286.5980, 21942.00
287.8090, 25427.00
289.0190, 29817.00
290.2290, 33412.00
291.4380, 35769.00
292.6480, 35439.00
293.8570, 32533.00
295.0670, 28390.00
296.2760, 24388.00
297.4850, 20487.00
298.6930, 17538.00
299.9020, 15224.00
301.1110, 13566.00
302.3190, 12224.00
303.5270, 11295.00
304.7350, 10834.00
305.9430, 10273.00
307.1510, 10154.00
308.3580, 10128.00
309.5660, 10249.00
310.7730, 10580.00
311.9800, 11121.00
313.1870, 11856.00
314.3940, 12863.00
315.6010, 14212.00
316.8070, 16239.00
318.0130, 19139.00
319.2200, 22344.00
320.4260, 24517.00
321.6310, 24455.00
322.8370, 22859.00
324.0430, 20192.00
325.2480, 17732.00
326.4540, 15433.00
327.6590, 13551.00
328.8640, 12319.00
330.0680, 11334.00
331.2730, 10690.00
332.4780, 10389.00
333.6820, 10170.00
334.8860, 10239.00
336.0900, 10145.00
337.2940, 10061.00
338.4980, 10113.00
339.7010, 10194.00
340.9050, 10314.00
342.1080, 11252.00
343.3110, 11115.00
344.5140, 11796.00
345.7170, 12178.00
346.9200, 13392.00
348.1220, 13052.00
349.3240, 13712.00
350.5270, 14897.00
351.7290, 16589.00
352.9310, 18890.00
354.1320, 21288.00
355.3340, 24335.00
356.5350, 27184.00
357.7370, 29342.00
358.9380, 30090.00
360.1390, 29216.00
361.3400, 27235.00
362.5400, 24551.00
363.7410, 21895.00
364.9410, 19508.00
366.1410, 17406.00
367.3410, 16023.00
368.5410, 14815.00
369.7410, 13998.00
370.9400, 13566.00
372.1400, 13055.00
373.3390, 12790.00
374.5380, 12586.00
375.7370, 12192.00
376.9360, 11947.00
378.1350, 11969.00
379.3330, 11951.00
380.5310, 11986.00
381.7300, 12034.00
382.9280, 12182.00
384.1260, 12180.00
385.3230, 12401.00
386.5210, 12655.00
387.7180, 12718.00
388.9160, 13135.00
390.1130, 13453.00
391.3100, 14006.00
392.5060, 14225.00
393.7030, 13972.00
394.9000, 13770.00
396.0960, 13530.00
397.2920, 13331.00
398.4880, 13117.00
399.6840, 12973.00
400.8800, 12854.00
402.0750, 12818.00
403.2710, 12768.00
404.4660, 12741.11
405.6610, 12783.00
406.8560, 12724.00
408.0510, 12570.00
409.2450, 12526.00
410.4400, 12318.00
411.6340, 12128.00
412.8280, 12062.00
414.0220, 12042.00
415.2160, 11951.00
416.4100, 11968.00
417.6030, 11838.00
418.7970, 11836.00
419.9900, 11574.00
421.1830, 11413.00
422.3760, 11220.00
423.5690, 11062.79
424.7610, 11063.00
425.9540, 10859.00
427.1460, 10778.00
428.3380, 10822.00
429.5300, 10654.00
430.7220, 10547.00
431.9140, 10500.00
433.1050, 10421.00
434.2970, 10346.00
435.4880, 10363.00
436.6790, 10469.00
437.8700, 10466.00
439.0610, 10393.00
440.2510, 10586.00
441.4420, 10634.00
442.6320, 10794.00
443.8220, 10891.00
445.0120, 11089.00
446.2020, 11151.80
447.3910, 11422.00
448.5810, 11388.00
449.7700, 12004.00
450.9600, 12353.00
452.1490, 12569.00
453.3370, 11953.00
454.5260, 11341.00
455.7150, 10873.00
456.9030, 10697.00
458.0910, 10273.00
459.2800, 10039.00
460.4670, 9975.000
461.6550, 9836.000
462.8430, 9741.832
464.0300, 9856.000
465.2180, 9672.000
466.4050, 9741.000
467.5920, 9864.000
468.7790, 9700.000
469.9650, 9736.000
471.1520, 9932.000
472.3380, 9956.000
473.5250, 9991.000
474.7110, 10116.00
475.8970, 10315.00
477.0820, 10379.00
478.2680, 10562.00
479.4540, 10895.00
480.6390, 11092.00
481.8240, 11155.00
483.0090, 11298.00
484.1940, 11027.00
485.3780, 11113.00
486.5630, 10872.00
487.7470, 10731.00
488.9320, 10577.00
490.1160, 10279.00
491.3000, 10222.00
492.4830, 10121.00
493.6670, 10302.00
494.8500, 10343.00
496.0340, 10267.00
497.2170, 10430.00
498.4000, 10458.00
499.5820, 10492.00
500.7650, 10622.00
501.9480, 10843.00
503.1300, 10795.00
504.3120, 10904.00
505.4940, 11085.00
506.6760, 10986.00
507.8580, 11192.00
509.0390, 11370.00
510.2210, 11437.00
511.4020, 11536.28
512.5830, 11581.93
513.7640, 11575.00
514.9450, 11583.00
516.1250, 11516.00
517.3060, 11508.75
518.4860, 11467.53
519.6660, 11448.00
520.8460, 11411.00
522.0260, 11387.00
523.2060, 11414.00
524.3850, 11409.00
525.5650, 11452.64
526.7440, 11472.43
527.9230, 11571.00
529.1020, 11579.00
530.2810, 11670.00
531.4590, 11827.00
532.6380, 12111.00
533.8160, 12227.00
534.9940, 12365.00
536.1720, 12503.00
537.3500, 12777.00
538.5270, 13076.00
539.7050, 13321.00
540.8820, 13676.00
542.0590, 13943.00
543.2360, 14450.00
544.4130, 14761.00
545.5900, 15050.00
546.7660, 15686.00
547.9430, 16123.00
549.1190, 16462.00
550.2950, 16795.60
551.4710, 17068.00
552.6470, 17135.00
553.8220, 16936.00
554.9980, 16864.00
556.1730, 16394.00
557.3480, 15798.00
558.5230, 15476.00
559.6980, 15254.00
560.8730, 14922.00
562.0470, 14810.00
563.2220, 14744.00
564.3960, 14801.00
565.5700, 14613.00
566.7440, 14705.00
567.9170, 14969.00
569.0910, 15029.00
570.2640, 15305.00
571.4380, 15462.00
572.6110, 15387.00
573.7840, 15276.00
574.9570, 14944.00
576.1290, 14739.00
577.3020, 14288.00
578.4740, 14188.00
579.6460, 13818.00
580.8180, 13581.00
581.9900, 13274.00
583.1620, 13054.00
584.3330, 12742.00
585.5040, 12563.00
586.6760, 12510.00
587.8470, 12323.00
589.0180, 12298.00
590.1880, 12172.00
591.3590, 12171.00
592.5290, 12030.00
593.7000, 12046.00
594.8700, 11841.00
596.0400, 11904.00
597.2090, 11862.00
598.3790, 11998.00
599.5490, 11961.00
600.7180, 11944.00
601.8870, 12122.00
603.0560, 12251.00
604.2250, 12265.00
605.3940, 12334.00
606.5620, 12560.00
607.7300, 12509.00
608.8990, 12686.00
610.0670, 12851.00
611.2350, 12880.00
612.4020, 13118.00
613.5700, 13311.00
614.7370, 13635.00
615.9050, 13603.00
617.0720, 13824.00
618.2390, 13922.00
619.4060, 14007.00
620.5720, 14243.00
621.7390, 14328.00
622.9050, 14432.00
624.0710, 14491.00
625.2370, 14548.00
626.4030, 14765.00
627.5690, 14768.00
628.7340, 14835.00
629.9000, 15081.00
631.0650, 15121.00
632.2300, 15018.00
633.3950, 14981.00
634.5600, 14833.00
635.7240, 14836.00
636.8890, 14666.00
638.0530, 14715.00
639.2170, 14518.00
640.3810, 14520.00
641.5450, 14522.00
642.7080, 14631.00
643.8720, 14684.00
645.0350, 14597.00
646.1980, 14643.00
647.3610, 14522.00
648.5240, 14310.00
649.6870, 14181.00
650.8490, 13810.00
652.0120, 13546.00
653.1740, 13183.00
654.3360, 12836.00
655.4980, 12565.00
656.6600, 12255.00
657.8210, 12150.00
658.9830, 11833.00
660.1440, 11830.00
661.3050, 11527.00
662.4660, 11413.00
663.6270, 11319.00
664.7870, 11069.00
665.9480, 10826.00
667.1080, 10710.00
668.2680, 10668.00
669.4280, 10597.00
670.5880, 10464.00
671.7480, 10374.00
672.9070, 10433.00
674.0670, 10378.00
675.2260, 10526.00
676.3850, 10421.00
677.5440, 10606.00
678.7030, 10449.00
679.8610, 10468.00
681.0200, 10283.00
682.1780, 10424.00
683.3360, 10300.00
684.4940, 10408.00
685.6520, 10442.00
686.8090, 10478.00
687.9670, 10435.00
689.1240, 10427.00
690.2810, 10495.00
691.4380, 10408.00
692.5950, 10374.00
693.7520, 10519.00
694.9080, 10503.00
696.0650, 10501.00
697.2210, 10542.00
698.3770, 10570.00
699.5330, 10608.00
700.6880, 10542.00
701.8440, 10660.00
702.9990, 10567.00
704.1550, 10554.00
705.3100, 10729.00
706.4650, 10825.00
707.6190, 10891.00
708.7740, 10770.00
709.9290, 10975.00
711.0830, 11114.00
712.2370, 11345.00
713.3910, 11432.00
714.5450, 11652.00
715.6980, 11672.00
716.8520, 11821.00
718.0050, 11945.00
719.1580, 11719.84
720.3110, 11490.00
721.4640, 11169.00
722.6170, 10971.00
723.7700, 10767.92
724.9220, 10428.00
726.0740, 10392.00
727.2260, 10337.00
728.3780, 10095.00
729.5300, 10328.00
730.6810, 9998.000
731.8330, 10231.00
732.9840, 10186.00
734.1350, 10185.00
735.2860, 10011.00
736.4370, 10162.00
737.5880, 10201.00
738.7380, 10145.00
739.8880, 10172.00
741.0390, 10005.00
742.1890, 9980.000
743.3380, 9965.000
744.4880, 9962.000
745.6380, 10036.00
746.7870, 10037.00
747.9360, 10028.00
749.0850, 10035.00
750.2340, 9893.000
751.3830, 9985.000
752.5310, 9957.000
753.6800, 9942.000
754.8280, 10005.00
755.9760, 9929.000
757.1240, 10013.00
758.2720, 9956.000
759.4190, 10032.00
760.5670, 10099.00
761.7140, 10044.00
762.8610, 9886.000
764.0080, 9867.000
765.1550, 9886.000
766.3020, 9983.000
767.4480, 9873.000
768.5950, 9948.000
769.7410, 9961.000
770.8870, 10014.00
772.0330, 10021.63
773.1780, 9936.000
774.3240, 10048.00
775.4690, 10026.00
776.6140, 10089.00
777.7590, 10143.00
778.9040, 10091.45
780.0490, 10230.32
781.1940, 10008.00
782.3380, 10354.00
783.4820, 10342.00
784.6260, 10198.00
785.7700, 10291.00
786.9140, 10358.00
788.0580, 10340.00
789.2010, 10497.00
790.3450, 10527.00
791.4880, 10505.00
792.6310, 10731.00
793.7730, 10649.00
794.9160, 10950.00
796.0590, 10870.00
797.2010, 10989.00
798.3430, 11226.00
799.4850, 11298.61
800.6270, 11537.00
801.7690, 11665.00
802.9100, 11856.00
804.0520, 12068.00
805.1930, 12300.00
806.3340, 12563.00
807.4750, 12984.00
808.6160, 13140.00
809.7560, 13407.00
810.8970, 13815.00
812.0370, 14318.00
813.1770, 14648.40
814.3170, 15076.00
815.4570, 15477.00
816.5960, 15977.00
817.7360, 16449.00
818.8750, 16843.00
820.0140, 16893.00
821.1530, 17087.00
822.2920, 16938.00
823.4310, 16557.00
824.5690, 15997.00
825.7070, 15625.00
826.8460, 15151.00
827.9840, 14821.00
829.1220, 14384.63
830.2590, 14083.00
831.3970, 13574.00
832.5340, 13213.00
833.6710, 12842.00
834.8080, 12744.00
835.9450, 12506.00
837.0820, 12209.00
838.2190, 12039.99
839.3550, 11802.32
840.4910, 11591.00
841.6270, 11364.00
842.7630, 11158.00
843.8990, 11012.92
845.0350, 10874.14
846.1700, 10784.00
847.3060, 10683.00
848.4410, 10647.00
849.5760, 10579.00
850.7100, 10502.00
851.8450, 10488.57
852.9800, 10522.00
854.1140, 10437.00
855.2480, 10480.00
856.3820, 10437.00
857.5160, 10382.00
858.6500, 10445.00
859.7830, 10450.00
860.9170, 10393.00
862.0500, 10356.00
863.1830, 10452.00
864.3160, 10425.00
865.4480, 10568.00
866.5810, 10489.00
867.7130, 10672.00
868.8460, 10586.00
869.9780, 10614.00
871.1100, 10643.00
872.2410, 10724.00
873.3730, 10720.00
874.5050, 10649.00
875.6360, 10829.00
876.7670, 10764.00
877.8980, 10762.00
879.0290, 10866.00
880.1590, 10751.00
881.2900, 11015.00
882.4200, 10925.00
883.5500, 11197.00
884.6800, 11018.00
885.8100, 11287.00
886.9400, 11279.00
888.0690, 11434.00
889.1990, 11390.00
890.3280, 11674.00
891.4570, 11720.00
892.5860, 11776.00
893.7140, 12034.00
894.8430, 12145.00
895.9710, 12483.00
897.1000, 12595.00
898.2280, 12927.00
899.3560, 13296.00
900.4830, 13632.00
901.6110, 14025.00
902.7380, 14508.00
903.8660, 14985.00
904.9930, 15509.00
906.1200, 16219.00
907.2460, 17021.00
908.3730, 18045.00
909.5000, 19553.00
910.6260, 21382.00
911.7520, 23401.00
912.8780, 26434.00
914.0040, 29922.00
915.1290, 34220.00
916.2550, 39767.00
917.3800, 45242.00
918.5050, 49341.00
919.6300, 50560.00
920.7550, 48105.00
921.8800, 43436.00
923.0040, 37851.00
924.1290, 32902.00
925.2530, 29300.00
926.3770, 26440.00
927.5010, 24113.00
928.6250, 22724.00
929.7480, 21397.00
930.8720, 20205.00
931.9950, 19355.00
933.1180, 18747.00
934.2410, 18195.00
935.3640, 17888.00
936.4860, 17709.16
937.6090, 17653.00
938.7310, 17826.00
939.8530, 17922.00
940.9750, 18336.00
942.0970, 18943.00
943.2180, 19934.35
944.3400, 21105.00
945.4610, 22716.00
946.5820, 24635.00
947.7030, 26721.00
948.8240, 28479.00
949.9450, 29865.00
951.0650, 30537.00
952.1860, 30212.00
953.3060, 28486.00
954.4260, 26546.00
955.5460, 24163.00
956.6650, 21974.00
957.7850, 20163.00
958.9040, 18526.00
960.0230, 17324.00
961.1420, 16591.00
962.2610, 15683.00
963.3800, 15183.00
964.4990, 14850.00
965.6170, 14426.00
966.7350, 14300.00
967.8530, 14273.00
968.9710, 13838.00
970.0890, 13921.00
971.2070, 13570.00
972.3240, 13721.00
973.4410, 13556.00
974.5580, 13574.00
975.6750, 13604.00
976.7920, 13494.00
977.9090, 13568.00
979.0250, 13478.00
980.1410, 13380.00
981.2580, 13416.00
982.3740, 13499.00
983.4890, 13477.00
984.6050, 13387.00
985.7200, 13470.00
986.8360, 13448.00
987.9510, 13558.00
989.0660, 13494.00
990.1810, 13659.00
991.2950, 13746.00
992.4100, 13636.00
993.5240, 13864.00
994.6390, 14157.00
995.7530, 14237.00
996.8660, 14588.00
997.9800, 14991.00
999.0940, 15688.00
1000.207, 16150.00
1001.320, 16926.00
1002.433, 17846.00
1003.546, 18576.00
1004.659, 19147.00
1005.772, 19455.00
1006.884, 19257.00
1007.996, 18829.00
1009.108, 18063.00
1010.220, 17609.00
1011.332, 16707.00
1012.444, 16291.00
1013.555, 15849.00
1014.666, 15760.00
1015.777, 15783.00
1016.888, 15624.00
1017.999, 15793.00
1019.110, 15703.00
1020.220, 15662.00
1021.331, 15481.00
1022.441, 15268.00
1023.551, 14964.00
1024.661, 14771.00
1025.770, 14655.00
1026.880, 14422.55
1027.989, 14308.00
1029.098, 14098.00
1030.207, 14019.00
1031.316, 13906.00
1032.425, 13825.00
1033.533, 13915.00
1034.642, 13859.00
1035.750, 13850.00
1036.858, 13747.00
1037.966, 13718.00
1039.073, 13722.00
1040.181, 13570.00
1041.288, 13650.00
1042.396, 13700.00
1043.503, 13466.00
1044.610, 13489.00
1045.716, 13426.00
1046.823, 13394.00
1047.929, 13348.00
1049.036, 13365.00
1050.142, 13462.00
1051.248, 13359.00
1052.353, 13449.00
1053.459, 13329.00
1054.564, 13590.00
1055.670, 13620.00
1056.775, 14010.00
1057.880, 14325.00
1058.985, 14701.00
1060.089, 15264.00
1061.194, 15835.00
1062.298, 16445.00
1063.402, 17057.00
1064.506, 17514.00
1065.610, 17274.00
1066.713, 16928.00
1067.817, 16442.00
1068.920, 15916.00
1070.023, 15338.00
1071.126, 14669.00
1072.229, 14519.00
1073.332, 14192.00
1074.435, 13927.00
1075.537, 13966.00
1076.639, 13718.00
1077.741, 13699.00
1078.843, 13737.00
1079.945, 13486.00
1081.046, 13279.00
1082.148, 13501.00
1083.249, 13306.00
1084.350, 13216.00
1085.451, 13310.00
1086.551, 13160.00
1087.652, 13227.00
1088.752, 13146.00
1089.853, 13310.00
1090.953, 13119.00
1092.053, 13233.00
1093.152, 13186.00
1094.252, 13334.00
1095.351, 13281.00
1096.451, 13241.00
1097.550, 13302.00
1098.649, 13218.00
1099.748, 13222.00
1100.846, 13298.00
1101.945, 13289.00
1103.043, 13389.00
1104.141, 13489.00
1105.239, 13538.00
1106.337, 13649.82
1107.434, 13629.00
1108.532, 13796.00
1109.629, 13848.00
1110.726, 13826.00
1111.823, 13818.00
1112.920, 13713.00
1114.017, 13532.00
1115.113, 13655.00
1116.210, 13606.00
1117.306, 13294.00
1118.402, 13481.00
1119.498, 13545.00
1120.593, 13280.00
1121.689, 13533.00
1122.784, 13384.00
1123.879, 13412.00
1124.974, 13467.00
1126.069, 13352.00
1127.164, 13453.00
1128.259, 13494.00
1129.353, 13349.00
1130.447, 13377.00
1131.541, 13456.00
1132.635, 13244.00
1133.729, 13276.00
1134.822, 13319.00
1135.916, 13386.00
1137.009, 13458.00
1138.102, 13360.00
1139.195, 13361.00
1140.288, 13345.00
1141.380, 13395.00
1142.473, 13339.00
1143.565, 13315.00
1144.657, 13469.00
1145.749, 13380.00
1146.841, 13501.00
1147.932, 13400.00
1149.024, 13417.00
1150.115, 13372.00
1151.206, 13361.00
1152.297, 13482.00
1153.388, 13532.00
1154.479, 13579.00
1155.569, 13442.00
1156.659, 13497.00
1157.750, 13458.00
1158.839, 13557.00
1159.929, 13404.00
1161.019, 13612.00
1162.108, 13388.00
1163.198, 13532.00
1164.287, 13568.00
1165.376, 13516.00
1166.465, 13452.00
1167.553, 13387.00
1168.642, 13704.00
1169.730, 13632.00
1170.818, 13633.00
1171.906, 13548.00
1172.994, 13731.00
1174.082, 13567.00
1175.170, 13490.00
1176.257, 13709.00
1177.344, 13565.00
1178.431, 13631.00
1179.518, 13681.79
1180.605, 13588.00
1181.691, 13703.00
1182.778, 13649.00
1183.864, 13560.00
1184.950, 13701.00
1186.036, 13618.00
1187.122, 13619.00
1188.207, 13854.00
1189.292, 13735.00
1190.378, 13723.00
1191.463, 13619.00
1192.548, 13651.00
1193.632, 13763.00
1194.717, 13650.00
1195.801, 13695.00
1196.886, 13688.00
1197.970, 13733.00
1199.054, 13799.00
1200.137, 13743.00
1201.221, 13745.00
1202.305, 13643.00
1203.388, 13786.00
1204.471, 13702.00
1205.554, 13859.00
1206.637, 13690.00
1207.719, 13673.00
1208.802, 13678.49
1209.884, 13649.24
1210.966, 13656.00
1212.048, 13667.00
1213.130, 13717.00
1214.212, 13645.00
1215.293, 13803.00
1216.374, 13807.00
1217.456, 13747.00
1218.536, 13778.00
1219.617, 13812.00
1220.698, 13762.00
1221.778, 13795.20
1222.859, 13786.28
1223.939, 13795.00
1225.019, 13792.00
1226.099, 13778.00
1227.178, 13796.00
1228.258, 13621.00
1229.337, 13667.00
1230.417, 13591.00
1231.496, 13810.00
1232.574, 13834.00
1233.653, 13780.00
1234.732, 13634.00
1235.810, 13708.00
1236.888, 13611.00
1237.966, 13635.18
1239.044, 13700.00
1240.122, 13684.00
1241.199, 13815.00
1242.277, 13833.00
1243.354, 13676.00
1244.431, 13788.00
1245.508, 13715.00
1246.585, 13762.00
1247.661, 13820.00
1248.738, 13737.00
1249.814, 13704.00
1250.890, 13864.00
1251.966, 13802.00
1253.042, 13870.00
1254.117, 13778.00
1255.193, 13780.00
1256.268, 13826.00
1257.343, 13865.00
1258.418, 13875.00
1259.493, 13766.00
1260.567, 13920.00
1261.642, 13904.00
1262.716, 13915.00
1263.790, 13729.00
1264.864, 13889.00
1265.938, 13970.00
1267.011, 13858.00
1268.085, 13975.00
1269.158, 13989.00
1270.231, 13946.00
1271.304, 13901.00
1272.377, 13881.00
1273.450, 13874.37
1274.522, 13858.53
1275.594, 13869.00
1276.666, 13906.00
1277.738, 13865.19
1278.810, 13996.00
1279.882, 13851.00
1280.953, 13951.00
1282.025, 14008.00
1283.096, 14001.00
1284.167, 14048.00
1285.238, 13973.00
1286.308, 13849.00
1287.379, 13994.00
1288.449, 13794.00
1289.519, 13947.00
1290.589, 14053.00
1291.659, 13997.00
1292.729, 13982.00
1293.798, 14081.00
1294.868, 13975.00
1295.937, 13958.00
1297.006, 14032.00
1298.075, 14147.00
1299.143, 14051.00
1300.212, 13948.00
1301.280, 14043.00
1302.348, 13935.00
1303.416, 14017.00
1304.484, 13919.00
1305.552, 13821.00
1306.620, 14153.00
1307.687, 13891.00
1308.754, 14002.00
1309.821, 14093.00
1310.888, 14063.00
1311.955, 14125.00
1313.021, 14189.00
1314.088, 14151.00
1315.154, 14066.00
1316.220, 14009.00
1317.286, 14205.00
1318.352, 14137.00
1319.417, 14279.00
1320.483, 14103.00
1321.548, 14219.00
1322.613, 14224.00
1323.678, 14100.00
1324.743, 14166.00
1325.807, 14029.00
1326.872, 14068.86
1327.936, 14160.00
1329.000, 14093.00
1330.064, 14228.00
1331.128, 14195.00
1332.191, 14212.00
1333.255, 14221.00
1334.318, 14149.00
1335.381, 14254.00
1336.444, 14189.00
1337.507, 14175.00
1338.569, 14242.75
1339.632, 14232.00
1340.694, 14317.00
1341.756, 14259.00
1342.818, 14246.00
1343.880, 14273.23
1344.941, 14168.00
1346.003, 14307.00
1347.064, 14288.00
1348.125, 14345.00
1349.186, 14273.00
1350.247, 14347.00
1351.308, 14245.00
1352.368, 14431.00
1353.428, 14317.00
1354.489, 14312.00
1355.549, 14227.00
1356.608, 14381.00
1357.668, 14335.00
1358.727, 14368.00
1359.787, 14323.00
1360.846, 14540.00
1361.905, 14565.00
1362.964, 14485.00
1364.022, 14393.00
1365.081, 14470.00
1366.139, 14505.00
1367.197, 14518.00
1368.255, 14449.00
1369.313, 14585.00
1370.371, 14465.00
1371.428, 14587.00
1372.486, 14656.00
1373.543, 14408.00
1374.600, 14725.00
1375.657, 14536.00
1376.713, 14458.00
1377.770, 14493.00
1378.826, 14556.00
1379.882, 14539.00
1380.938, 14614.75
1381.994, 14613.27
1383.050, 14676.00
1384.106, 14624.00
1385.161, 14532.00
1386.216, 14517.00
1387.271, 14468.00
1388.326, 14562.00
1389.381, 14551.00
1390.435, 14536.00
1391.490, 14568.00
1392.544, 14506.00
1393.598, 14444.00
1394.652, 14621.00
1395.705, 14593.00
1396.759, 14679.00
1397.812, 14451.00
1398.866, 14419.00
1399.919, 14525.00
1400.972, 14558.00
1402.024, 14424.00
1403.077, 14403.00
1404.129, 14556.00
1405.181, 14590.00
1406.233, 14490.00
1407.285, 14706.00
1408.337, 14536.00
1409.389, 14559.00
1410.440, 14556.00
1411.491, 14455.00
1412.542, 14411.00
1413.593, 14559.00
1414.644, 14504.00
1415.695, 14592.00
1416.745, 14544.00
1417.795, 14582.21
1418.845, 14576.00
1419.895, 14659.00
1420.945, 14587.00
1421.995, 14656.00
1423.044, 14570.00
1424.093, 14468.00
1425.142, 14610.00
1426.191, 14682.00
1427.240, 14797.00
1428.289, 14611.00
1429.337, 14758.00
1430.385, 14759.00
1431.433, 14811.00
1432.481, 14863.00
1433.529, 14781.00
1434.577, 14938.00
1435.624, 14937.00
1436.672, 14919.00
1437.719, 15085.00
1438.766, 14998.00
1439.812, 14931.00
1440.859, 15003.00
1441.905, 15024.00
1442.952, 15087.00
1443.998, 15068.00
1445.044, 15169.00
1446.090, 15014.00
1447.135, 15032.00
1448.181, 15139.00
1449.226, 15030.00
1450.271, 15070.00
1451.316, 15068.00
1452.361, 15186.00
1453.405, 15150.00
1454.450, 15263.00
1455.494, 15125.00
1456.538, 15178.00
1457.582, 15195.00
1458.626, 15117.00
1459.670, 15069.00
1460.713, 15112.00
1461.757, 15065.00
1462.800, 15043.00
1463.843, 15226.00
1464.886, 15169.00
1465.928, 15184.00
1466.971, 15245.00
1468.013, 15044.00
1469.055, 15180.00
1470.097, 15261.00
1471.139, 15074.00
1472.181, 15206.00
1473.222, 15140.00
1474.263, 15065.00
1475.305, 15071.00
1476.346, 15005.00
1477.386, 14933.00
1478.427, 15069.00
1479.468, 15245.00
1480.508, 15123.97
1481.548, 15155.27
1482.588, 15039.00
1483.628, 14995.00
1484.668, 15070.00
1485.707, 15018.00
1486.747, 15029.00
1487.786, 15033.03
1488.825, 15016.00
1489.864, 15040.00
1490.902, 14947.00
1491.941, 14992.00
1492.979, 14968.00
1494.017, 15049.00
1495.055, 15045.56
1496.093, 15056.00
1497.131, 15000.00
1498.168, 15118.00
1499.206, 14942.00
1500.243, 14924.00
1501.280, 15007.00
1502.317, 15103.00
1503.354, 15131.00
1504.390, 15035.00
1505.426, 15124.00
1506.463, 15092.00
1507.499, 15036.00
1508.535, 15206.00
1509.570, 15107.00
1510.606, 15328.00
1511.641, 15268.00
1512.676, 15180.00
1513.711, 15321.00
1514.746, 15429.00
1515.781, 15186.00
1516.816, 15336.00
1517.850, 15403.00
1518.884, 15218.00
1519.918, 15372.00
1520.952, 15402.00
1521.986, 15343.00
1523.019, 15477.00
1524.053, 15307.00
1525.086, 15408.00
1526.119, 15588.00
1527.152, 15502.00
1528.185, 15618.00
1529.217, 15357.00
1530.250, 15675.00
1531.282, 15647.00
1532.314, 15437.00
1533.346, 15568.00
1534.377, 15579.00
1535.409, 15825.00
1536.440, 15511.00
1537.472, 15707.00
1538.503, 15684.00
1539.534, 15680.00
1540.564, 15876.00
1541.595, 15883.00
1542.625, 15763.00
1543.656, 15782.00
1544.686, 15938.00
1545.716, 15843.00
1546.745, 16005.00
1547.775, 15890.00
1548.804, 15949.00
1549.834, 15923.00
1550.863, 16032.00
1551.892, 16049.00
1552.920, 16156.00
1553.949, 16249.00
1554.977, 16374.00
1556.006, 16407.00
1557.034, 16406.20
1558.062, 16305.00
1559.089, 16179.00
1560.117, 16167.51
1561.144, 16116.69
1562.172, 16092.00
1563.199, 16135.00
1564.226, 16126.00
1565.252, 16205.00
1566.279, 16133.00
1567.305, 16038.00
1568.332, 16150.00
1569.358, 16094.00
1570.384, 16184.00
##END=



