##NAMES=Andalusite
##RRUFFID=R050561
##IDEAL CHEMISTRY=Al_2_SiO_5_
##LOCALITY=Cargo Muchacho Mountain, Imperial County, California
##OWNER=RRUFF
##SOURCE=Dave Bunk Minerals
##DESCRIPTION=Brown coarsely crystalline massive
##STATUS=The identification of this mineral has been confirmed by X-ray diffraction and chemical analysis
##URL=rruff.info/R050561
##MEASURED CHEMISTRY=(Al_1.98_Fe^3+^_0.02_)_Î£=2_Si_1.00_O_5_
##PIN_ID=M00245
##ORIENTATION=Laser parallel to -b* (0 -1 0). Fiducial mark perpendicular to laser is parallel to -c [0 0 -1]
157.4550, 5447.000
158.6810, 5566.000
159.9080, 5452.000
161.1340, 5560.000
162.3590, 5637.000
163.5850, 5713.000
164.8110, 5823.000
166.0360, 5975.000
167.2610, 6113.000
168.4860, 6184.000
169.7110, 6138.000
170.9360, 6282.000
172.1610, 6148.000
173.3850, 6165.000
174.6100, 6166.000
175.8340, 6129.000
177.0580, 6185.000
178.2820, 6238.000
179.5050, 6279.000
180.7290, 6360.000
181.9520, 6348.000
183.1760, 6475.000
184.3990, 6573.000
185.6220, 6729.000
186.8450, 6874.000
188.0670, 7174.000
189.2900, 7473.000
190.5120, 7715.000
191.7340, 8059.000
192.9560, 8315.000
194.1780, 8263.000
195.4000, 8135.000
196.6220, 8083.000
197.8430, 8060.000
199.0640, 7960.000
200.2860, 8090.000
201.5070, 8321.000
202.7270, 8267.000
203.9480, 8057.000
205.1690, 7489.000
206.3890, 7162.000
207.6090, 6985.000
208.8290, 6994.000
210.0490, 6898.000
211.2690, 6896.000
212.4890, 6933.000
213.7080, 6951.000
214.9280, 6914.000
216.1470, 6860.000
217.3660, 6870.000
218.5850, 6902.000
219.8030, 6865.000
221.0220, 7019.000
222.2400, 6991.000
223.4590, 7062.000
224.6770, 7154.000
225.8950, 7039.000
227.1120, 7130.000
228.3300, 7171.000
229.5480, 7425.000
230.7650, 7405.000
231.9820, 7461.000
233.1990, 7696.000
234.4160, 7660.000
235.6330, 7921.000
236.8490, 8065.000
238.0660, 8555.000
239.2820, 8699.000
240.4980, 8979.000
241.7140, 9131.000
242.9300, 9390.000
244.1460, 9226.000
245.3610, 9173.000
246.5770, 8927.000
247.7920, 8651.000
249.0070, 8344.000
250.2220, 8244.000
251.4370, 8064.000
252.6510, 7902.000
253.8660, 7765.000
255.0800, 7924.000
256.2940, 7693.000
257.5080, 7888.000
258.7220, 7988.000
259.9360, 7907.955
261.1490, 7934.038
262.3630, 7924.000
263.5760, 7825.000
264.7890, 7894.000
266.0020, 7968.000
267.2150, 8056.000
268.4270, 8175.000
269.6400, 8336.000
270.8520, 8553.000
272.0640, 8629.000
273.2760, 8897.000
274.4880, 9378.000
275.7000, 9790.000
276.9120, 10399.00
278.1230, 11063.00
279.3340, 11894.00
280.5450, 12814.00
281.7560, 14093.00
282.9670, 15447.00
284.1780, 16792.00
285.3880, 18197.00
286.5980, 19595.00
287.8090, 21670.00
289.0190, 23630.00
290.2290, 25579.00
291.4380, 27477.00
292.6480, 28737.00
293.8570, 26930.00
295.0670, 24740.00
296.2760, 21648.00
297.4850, 18496.00
298.6930, 15613.00
299.9020, 13623.00
301.1110, 11867.00
302.3190, 11020.00
303.5270, 10199.00
304.7350, 9696.000
305.9430, 9603.000
307.1510, 9858.000
308.3580, 10217.00
309.5660, 10952.00
310.7730, 12217.00
311.9800, 13794.00
313.1870, 15129.00
314.3940, 16373.00
315.6010, 18027.00
316.8070, 19981.00
318.0130, 23054.00
319.2200, 26577.00
320.4260, 29163.00
321.6310, 30544.00
322.8370, 29921.00
324.0430, 27203.00
325.2480, 23448.00
326.4540, 19387.00
327.6590, 16504.00
328.8640, 14185.00
330.0680, 12570.00
331.2730, 11405.00
332.4780, 10731.00
333.6820, 10407.00
334.8860, 10094.00
336.0900, 9990.000
337.2940, 9866.000
338.4980, 9918.000
339.7010, 10116.00
340.9050, 10105.00
342.1080, 10539.00
343.3110, 10855.00
344.5140, 11141.00
345.7170, 12271.00
346.9200, 13163.00
348.1220, 14655.00
349.3240, 16086.00
350.5270, 17780.00
351.7290, 19505.00
352.9310, 21550.00
354.1320, 23649.00
355.3340, 26140.00
356.5350, 28740.00
357.7370, 31187.00
358.9380, 32609.00
360.1390, 32353.00
361.3400, 30777.00
362.5400, 27943.00
363.7410, 24976.00
364.9410, 22229.00
366.1410, 19571.00
367.3410, 17495.00
368.5410, 15858.00
369.7410, 14538.00
370.9400, 13592.00
372.1400, 12994.00
373.3390, 12160.00
374.5380, 11872.00
375.7370, 11405.00
376.9360, 11035.00
378.1350, 10748.00
379.3330, 10464.00
380.5310, 10303.00
381.7300, 10195.00
382.9280, 10098.00
384.1260, 10070.80
385.3230, 10075.01
386.5210, 10141.00
387.7180, 10181.00
388.9160, 10349.00
390.1130, 10440.00
391.3100, 10541.00
392.5060, 10611.00
393.7030, 10685.00
394.9000, 10669.00
396.0960, 10288.00
397.2920, 10089.00
398.4880, 10004.00
399.6840, 9858.000
400.8800, 9801.000
402.0750, 9822.000
403.2710, 9868.000
404.4660, 9857.000
405.6610, 10019.00
406.8560, 10157.00
408.0510, 10232.00
409.2450, 10456.00
410.4400, 10367.00
411.6340, 10448.00
412.8280, 10478.00
414.0220, 10666.00
415.2160, 10830.00
416.4100, 10894.00
417.6030, 11132.00
418.7970, 11266.00
419.9900, 11294.00
421.1830, 11274.00
422.3760, 11203.00
423.5690, 11246.00
424.7610, 11233.00
425.9540, 11140.00
427.1460, 11184.77
428.3380, 11324.00
429.5300, 11246.00
430.7220, 11281.00
431.9140, 11429.00
433.1050, 11409.48
434.2970, 11311.00
435.4880, 11505.00
436.6790, 11581.00
437.8700, 11608.00
439.0610, 11827.00
440.2510, 11911.00
441.4420, 12080.00
442.6320, 12393.00
443.8220, 12471.00
445.0120, 12487.00
446.2020, 12712.00
447.3910, 12712.00
448.5810, 12886.00
449.7700, 13214.00
450.9600, 13455.00
452.1490, 13669.00
453.3370, 13653.00
454.5260, 13275.00
455.7150, 12626.00
456.9030, 12009.00
458.0910, 11421.00
459.2800, 11142.00
460.4670, 11015.00
461.6550, 10822.00
462.8430, 10720.00
464.0300, 10526.00
465.2180, 10506.00
466.4050, 10322.00
467.5920, 10275.00
468.7790, 10253.00
469.9650, 10106.00
471.1520, 10026.00
472.3380, 10059.00
473.5250, 10006.00
474.7110, 10115.00
475.8970, 10198.00
477.0820, 10199.00
478.2680, 10159.00
479.4540, 10379.00
480.6390, 10520.00
481.8240, 10521.00
483.0090, 10468.00
484.1940, 10459.00
485.3780, 10325.00
486.5630, 10057.00
487.7470, 10065.00
488.9320, 9639.000
490.1160, 9584.000
491.3000, 9512.000
492.4830, 9255.000
493.6670, 9241.000
494.8500, 9108.000
496.0340, 9125.000
497.2170, 9207.000
498.4000, 9146.000
499.5820, 9155.000
500.7650, 9169.000
501.9480, 9391.000
503.1300, 9394.000
504.3120, 9611.000
505.4940, 9683.000
506.6760, 9761.000
507.8580, 9934.000
509.0390, 10103.00
510.2210, 10235.00
511.4020, 10262.00
512.5830, 10277.00
513.7640, 10453.00
514.9450, 10231.00
516.1250, 10182.00
517.3060, 10234.00
518.4860, 10125.00
519.6660, 10134.00
520.8460, 10073.00
522.0260, 10001.00
523.2060, 9968.000
524.3850, 9901.000
525.5650, 9932.000
526.7440, 9912.792
527.9230, 9937.751
529.1020, 9977.000
530.2810, 10058.00
531.4590, 10183.00
532.6380, 10344.00
533.8160, 10335.00
534.9940, 10488.00
536.1720, 10685.00
537.3500, 10882.00
538.5270, 11152.00
539.7050, 11416.00
540.8820, 11559.00
542.0590, 12024.00
543.2360, 12268.00
544.4130, 12574.00
545.5900, 13187.00
546.7660, 13602.00
547.9430, 13915.00
549.1190, 14438.00
550.2950, 14815.00
551.4710, 15060.00
552.6470, 14997.00
553.8220, 15040.00
554.9980, 14667.00
556.1730, 14388.00
557.3480, 13926.00
558.5230, 13511.00
559.6980, 13270.00
560.8730, 12937.00
562.0470, 12961.00
563.2220, 12817.00
564.3960, 12665.00
565.5700, 12731.00
566.7440, 12704.00
567.9170, 12707.00
569.0910, 12741.00
570.2640, 12895.00
571.4380, 12949.00
572.6110, 13070.00
573.7840, 13020.00
574.9570, 13005.00
576.1290, 12978.93
577.3020, 12873.00
578.4740, 12836.00
579.6460, 12606.00
580.8180, 12502.00
581.9900, 12539.00
583.1620, 12378.00
584.3330, 12409.43
585.5040, 12233.00
586.6760, 12385.00
587.8470, 12302.00
589.0180, 12211.00
590.1880, 12392.00
591.3590, 12436.00
592.5290, 12432.00
593.7000, 12464.00
594.8700, 12601.00
596.0400, 12688.00
597.2090, 12829.00
598.3790, 13060.00
599.5490, 13268.00
600.7180, 13405.00
601.8870, 13577.00
603.0560, 13755.00
604.2250, 14023.00
605.3940, 14056.00
606.5620, 14256.17
607.7300, 14318.00
608.8990, 14536.00
610.0670, 14605.00
611.2350, 14762.00
612.4020, 14688.00
613.5700, 14831.00
614.7370, 14833.00
615.9050, 14814.00
617.0720, 14864.00
618.2390, 14783.00
619.4060, 14696.00
620.5720, 14603.00
621.7390, 14442.00
622.9050, 14295.00
624.0710, 14199.00
625.2370, 14021.00
626.4030, 13958.00
627.5690, 13828.00
628.7340, 13656.00
629.9000, 13663.00
631.0650, 13417.00
632.2300, 13505.00
633.3950, 13361.00
634.5600, 13190.00
635.7240, 13181.00
636.8890, 13058.00
638.0530, 13045.00
639.2170, 12911.00
640.3810, 12907.00
641.5450, 12797.00
642.7080, 12556.00
643.8720, 12794.00
645.0350, 12507.00
646.1980, 12488.00
647.3610, 12220.00
648.5240, 12236.00
649.6870, 11756.00
650.8490, 11556.00
652.0120, 11444.00
653.1740, 11009.00
654.3360, 10786.00
655.4980, 10596.00
656.6600, 10401.00
657.8210, 10295.00
658.9830, 10115.00
660.1440, 10099.00
661.3050, 10054.00
662.4660, 10016.00
663.6270, 9973.000
664.7870, 9951.037
665.9480, 9935.000
667.1080, 9917.000
668.2680, 9822.000
669.4280, 9809.000
670.5880, 9904.000
671.7480, 9952.000
672.9070, 10053.00
674.0670, 10186.00
675.2260, 10229.00
676.3850, 10314.00
677.5440, 10301.00
678.7030, 10408.00
679.8610, 10324.00
681.0200, 10470.00
682.1780, 10430.00
683.3360, 10554.00
684.4940, 10635.00
685.6520, 10520.00
686.8090, 10610.00
687.9670, 10578.00
689.1240, 10722.00
690.2810, 10804.00
691.4380, 10839.00
692.5950, 10795.00
693.7520, 10803.90
694.9080, 10658.00
696.0650, 10706.00
697.2210, 10694.00
698.3770, 10606.00
699.5330, 10734.00
700.6880, 10602.00
701.8440, 10596.00
702.9990, 10725.00
704.1550, 10850.00
705.3100, 10751.00
706.4650, 10854.00
707.6190, 10861.00
708.7740, 10967.04
709.9290, 11138.00
711.0830, 11197.00
712.2370, 11248.00
713.3910, 11256.00
714.5450, 11312.00
715.6980, 11094.00
716.8520, 11075.00
718.0050, 10817.00
719.1580, 10648.00
720.3110, 10096.00
721.4640, 9646.000
722.6170, 9430.000
723.7700, 9090.000
724.9220, 8790.000
726.0740, 8682.000
727.2260, 8554.000
728.3780, 8246.000
729.5300, 8212.000
730.6810, 8206.000
731.8330, 8074.000
732.9840, 8038.000
734.1350, 8219.000
735.2860, 8160.000
736.4370, 8204.000
737.5880, 8204.000
738.7380, 8152.000
739.8880, 8234.000
741.0390, 8155.000
742.1890, 8230.000
743.3380, 8098.000
744.4880, 8205.000
745.6380, 8162.000
746.7870, 8189.000
747.9360, 7992.000
749.0850, 8078.000
750.2340, 8073.000
751.3830, 7840.000
752.5310, 7876.000
753.6800, 7951.000
754.8280, 7895.000
755.9760, 7763.000
757.1240, 7667.000
758.2720, 7768.000
759.4190, 7695.000
760.5670, 7654.000
761.7140, 7608.000
762.8610, 7548.361
764.0080, 7547.000
765.1550, 7476.000
766.3020, 7380.000
767.4480, 7413.000
768.5950, 7404.000
769.7410, 7428.000
770.8870, 7506.000
772.0330, 7473.000
773.1780, 7415.000
774.3240, 7360.000
775.4690, 7424.311
776.6140, 7411.382
777.7590, 7554.000
778.9040, 7511.000
780.0490, 7533.000
781.1940, 7634.000
782.3380, 7625.000
783.4820, 7695.000
784.6260, 7886.000
785.7700, 7838.000
786.9140, 7905.000
788.0580, 7853.000
789.2010, 8012.000
790.3450, 8136.000
791.4880, 8164.000
792.6310, 8312.000
793.7730, 8411.000
794.9160, 8456.000
796.0590, 8594.000
797.2010, 8801.000
798.3430, 9108.000
799.4850, 9220.000
800.6270, 9616.000
801.7690, 9765.000
802.9100, 10079.00
804.0520, 10547.00
805.1930, 10848.00
806.3340, 11102.00
807.4750, 11178.00
808.6160, 11360.00
809.7560, 11406.00
810.8970, 11400.00
812.0370, 11581.00
813.1770, 11705.00
814.3170, 11686.00
815.4570, 11879.00
816.5960, 12040.00
817.7360, 12028.00
818.8750, 12317.00
820.0140, 12238.00
821.1530, 12244.00
822.2920, 12184.00
823.4310, 11994.00
824.5690, 11787.00
825.7070, 11461.00
826.8460, 11196.00
827.9840, 10903.00
829.1220, 10569.00
830.2590, 10329.00
831.3970, 10140.00
832.5340, 9877.519
833.6710, 9693.755
834.8080, 9452.000
835.9450, 9304.000
837.0820, 9107.000
838.2190, 8905.000
839.3550, 8544.000
840.4910, 8394.000
841.6270, 8118.000
842.7630, 8027.000
843.8990, 7769.000
845.0350, 7866.000
846.1700, 7582.000
847.3060, 7574.000
848.4410, 7468.000
849.5760, 7388.000
850.7100, 7326.000
851.8450, 7365.000
852.9800, 7410.000
854.1140, 7361.000
855.2480, 7298.000
856.3820, 7377.000
857.5160, 7274.000
858.6500, 7298.000
859.7830, 7394.000
860.9170, 7346.000
862.0500, 7291.000
863.1830, 7394.000
864.3160, 7447.000
865.4480, 7381.000
866.5810, 7490.000
867.7130, 7502.000
868.8460, 7559.000
869.9780, 7614.865
871.1100, 7663.903
872.2410, 7685.000
873.3730, 7762.000
874.5050, 7754.000
875.6360, 7739.000
876.7670, 7782.000
877.8980, 7755.000
879.0290, 7890.000
880.1590, 7940.000
881.2900, 8056.000
882.4200, 8025.000
883.5500, 8138.000
884.6800, 8147.000
885.8100, 8265.000
886.9400, 8339.000
888.0690, 8442.000
889.1990, 8531.000
890.3280, 8604.000
891.4570, 8862.000
892.5860, 8935.000
893.7140, 9127.000
894.8430, 9390.000
895.9710, 9671.000
897.1000, 9959.015
898.2280, 10125.00
899.3560, 10630.00
900.4830, 11042.00
901.6110, 11445.00
902.7380, 12018.00
903.8660, 12854.00
904.9930, 13827.00
906.1200, 14930.00
907.2460, 16417.00
908.3730, 18319.00
909.5000, 21106.00
910.6260, 24591.00
911.7520, 28747.00
912.8780, 33399.00
914.0040, 38850.00
915.1290, 44326.00
916.2550, 50254.00
917.3800, 55418.00
918.5050, 58611.00
919.6300, 59547.00
920.7550, 56583.00
921.8800, 50543.00
923.0040, 43626.00
924.1290, 37218.00
925.2530, 31931.00
926.3770, 28268.00
927.5010, 25590.00
928.6250, 23310.00
929.7480, 21105.00
930.8720, 19369.00
931.9950, 17675.00
933.1180, 16341.00
934.2410, 15172.00
935.3640, 14166.00
936.4860, 13355.00
937.6090, 12862.00
938.7310, 12268.00
939.8530, 11650.00
940.9750, 11349.00
942.0970, 10994.00
943.2180, 10797.00
944.3400, 10529.00
945.4610, 10438.00
946.5820, 10408.00
947.7030, 10328.00
948.8240, 10249.00
949.9450, 10201.00
951.0650, 10167.00
952.1860, 9906.000
953.3060, 9830.000
954.4260, 9720.000
955.5460, 9527.000
956.6650, 9418.000
957.7850, 9173.000
958.9040, 9078.000
960.0230, 8894.000
961.1420, 8795.000
962.2610, 8778.000
963.3800, 8740.000
964.4990, 8711.000
965.6170, 8709.873
966.7350, 8734.000
967.8530, 8721.000
968.9710, 8737.666
970.0890, 8769.000
971.2070, 8766.000
972.3240, 8741.000
973.4410, 8807.000
974.5580, 8758.000
975.6750, 8717.000
976.7920, 8826.000
977.9090, 8879.000
979.0250, 8939.000
980.1410, 8819.000
981.2580, 8899.000
982.3740, 8911.000
983.4890, 8806.000
984.6050, 9041.000
985.7200, 8978.000
986.8360, 9008.000
987.9510, 8925.000
989.0660, 8970.000
990.1810, 9015.339
991.2950, 9195.000
992.4100, 9178.000
993.5240, 9340.000
994.6390, 9472.000
995.7530, 9610.000
996.8660, 9812.000
997.9800, 10119.38
999.0940, 10620.00
1000.207, 10928.00
1001.320, 11370.00
1002.433, 11995.00
1003.546, 12341.00
1004.659, 12591.00
1005.772, 12725.00
1006.884, 12633.00
1007.996, 12383.00
1009.108, 11970.00
1010.220, 11617.00
1011.332, 11333.00
1012.444, 11139.03
1013.555, 11031.00
1014.666, 10945.00
1015.777, 10947.00
1016.888, 10995.00
1017.999, 11049.00
1019.110, 11063.89
1020.220, 11178.00
1021.331, 11083.00
1022.441, 10893.00
1023.551, 10804.00
1024.661, 10535.00
1025.770, 10222.00
1026.880, 10069.00
1027.989, 9908.000
1029.098, 9824.000
1030.207, 9632.000
1031.316, 9679.000
1032.425, 9575.000
1033.533, 9445.000
1034.642, 9358.000
1035.750, 9292.000
1036.858, 9298.000
1037.966, 9334.000
1039.073, 9174.000
1040.181, 9179.000
1041.288, 9072.000
1042.396, 8991.000
1043.503, 9028.000
1044.610, 8941.000
1045.716, 8825.000
1046.823, 8863.000
1047.929, 8802.000
1049.036, 8816.000
1050.142, 8913.000
1051.248, 8857.000
1052.353, 8768.000
1053.459, 9014.000
1054.564, 9013.000
1055.670, 9340.000
1056.775, 9419.000
1057.880, 9611.000
1058.985, 9897.000
1060.089, 10021.00
1061.194, 10525.00
1062.298, 10815.00
1063.402, 10776.00
1064.506, 10974.00
1065.610, 10714.00
1066.713, 10484.00
1067.817, 10218.00
1068.920, 10014.00
1070.023, 9546.000
1071.126, 9439.000
1072.229, 9173.000
1073.332, 9209.000
1074.435, 9175.000
1075.537, 9072.000
1076.639, 9132.000
1077.741, 9163.000
1078.843, 9038.000
1079.945, 9094.000
1081.046, 9000.000
1082.148, 9042.000
1083.249, 9040.115
1084.350, 8961.000
1085.451, 9030.000
1086.551, 9123.000
1087.652, 9060.000
1088.752, 8976.000
1089.853, 8900.000
1090.953, 8932.000
1092.053, 9051.000
1093.152, 8931.000
1094.252, 9083.000
1095.351, 8981.000
1096.451, 9018.000
1097.550, 8827.000
1098.649, 8971.000
1099.748, 8879.000
1100.846, 9040.000
1101.945, 9007.000
1103.043, 8966.000
1104.141, 9055.000
1105.239, 9126.000
1106.337, 9178.000
1107.434, 9203.440
1108.532, 9212.714
1109.629, 9207.000
1110.726, 9167.000
1111.823, 9144.000
1112.920, 9075.000
1114.017, 9000.000
1115.113, 8979.000
1116.210, 8835.000
1117.306, 8696.000
1118.402, 8743.000
1119.498, 8654.374
1120.593, 8797.000
1121.689, 8652.000
1122.784, 8770.000
1123.879, 8825.000
1124.974, 8824.000
1126.069, 8735.000
1127.164, 8767.000
1128.259, 8670.000
1129.353, 8558.000
1130.447, 8633.000
1131.541, 8702.000
1132.635, 8585.000
1133.729, 8787.000
1134.822, 8636.000
1135.916, 8694.000
1137.009, 8630.000
1138.102, 8624.000
1139.195, 8689.000
1140.288, 8811.000
1141.380, 8767.000
1142.473, 8735.000
1143.565, 8790.000
1144.657, 8742.000
1145.749, 8737.000
1146.841, 8766.000
1147.932, 8771.000
1149.024, 8702.000
1150.115, 8810.000
1151.206, 8708.000
1152.297, 8795.000
1153.388, 8778.000
1154.479, 8718.000
1155.569, 8782.000
1156.659, 8921.000
1157.750, 8849.000
1158.839, 8832.000
1159.929, 8823.000
1161.019, 8745.000
1162.108, 8829.000
1163.198, 8725.000
1164.287, 8733.000
1165.376, 8729.012
1166.465, 8705.912
1167.553, 8720.000
1168.642, 8732.000
1169.730, 8764.000
1170.818, 8810.000
1171.906, 8874.000
1172.994, 8803.000
1174.082, 8829.000
1175.170, 8749.000
1176.257, 8736.000
1177.344, 8768.000
1178.431, 8783.000
1179.518, 8868.000
1180.605, 8801.000
1181.691, 8852.000
1182.778, 8742.000
1183.864, 8777.000
1184.950, 8857.000
1186.036, 8824.000
1187.122, 8845.000
1188.207, 8717.000
1189.292, 8699.000
1190.378, 8786.000
1191.463, 8812.000
1192.548, 8904.000
1193.632, 8790.000
1194.717, 8908.000
1195.801, 8849.876
1196.886, 8819.414
1197.970, 8805.000
1199.054, 8789.000
1200.137, 8817.000
1201.221, 8800.604
1202.305, 8842.000
1203.388, 8817.000
1204.471, 8837.000
1205.554, 8885.000
1206.637, 8825.000
1207.719, 8818.000
1208.802, 8988.000
1209.884, 8816.000
1210.966, 8833.000
1212.048, 8992.000
1213.130, 8794.000
1214.212, 8887.000
1215.293, 8637.000
1216.374, 8808.000
1217.456, 8783.000
1218.536, 8748.000
1219.617, 8713.000
1220.698, 8761.000
1221.778, 8779.000
1222.859, 8777.000
1223.939, 8806.000
1225.019, 8835.000
1226.099, 8754.000
1227.178, 8825.000
1228.258, 8709.000
1229.337, 8785.000
1230.417, 8783.000
1231.496, 8729.000
1232.574, 8713.000
1233.653, 8800.000
1234.732, 8698.000
1235.810, 8739.000
1236.888, 8814.000
1237.966, 8734.000
1239.044, 8876.000
1240.122, 8760.000
1241.199, 8774.000
1242.277, 8791.000
1243.354, 8765.000
1244.431, 8718.000
1245.508, 8843.000
1246.585, 8841.000
1247.661, 8793.000
1248.738, 8744.000
1249.814, 8825.000
1250.890, 8823.000
1251.966, 8828.000
1253.042, 8776.000
1254.117, 8755.000
1255.193, 8778.000
1256.268, 8829.000
1257.343, 8772.000
1258.418, 8802.968
1259.493, 8737.000
1260.567, 8772.000
1261.642, 8810.000
1262.716, 8741.000
1263.790, 8743.000
1264.864, 8854.000
1265.938, 8818.000
1267.011, 8875.000
1268.085, 8851.000
1269.158, 8802.000
1270.231, 8929.000
1271.304, 8920.000
1272.377, 8896.000
1273.450, 8915.000
1274.522, 8851.000
1275.594, 8783.000
1276.666, 8929.000
1277.738, 8904.000
1278.810, 8774.000
1279.882, 8930.000
1280.953, 8802.000
1282.025, 8869.000
1283.096, 8776.000
1284.167, 8866.000
1285.238, 8881.000
1286.308, 8857.000
1287.379, 8872.000
1288.449, 8868.000
1289.519, 8846.000
1290.589, 8816.000
1291.659, 8796.000
1292.729, 8775.000
1293.798, 8761.000
1294.868, 8915.000
1295.937, 8885.000
1297.006, 8882.000
1298.075, 8809.000
1299.143, 8762.000
1300.212, 8809.000
1301.280, 8924.000
1302.348, 8874.000
1303.416, 8893.000
1304.484, 8837.000
1305.552, 8851.000
1306.620, 8907.000
1307.687, 8734.000
1308.754, 8827.000
1309.821, 8856.000
1310.888, 8892.000
1311.955, 8955.000
1313.021, 8855.000
1314.088, 8954.000
1315.154, 8871.000
1316.220, 8978.000
1317.286, 8894.000
1318.352, 8818.000
1319.417, 8885.000
1320.483, 8816.000
1321.548, 8928.000
1322.613, 8964.000
1323.678, 8932.000
1324.743, 8879.000
1325.807, 8901.000
1326.872, 8963.000
1327.936, 8935.000
1329.000, 8938.000
1330.064, 8919.000
1331.128, 8880.000
1332.191, 8952.000
1333.255, 8891.000
1334.318, 8977.000
1335.381, 9052.000
1336.444, 8971.000
1337.507, 8971.000
1338.569, 8920.000
1339.632, 8849.000
1340.694, 9072.000
1341.756, 9036.000
1342.818, 9189.000
1343.880, 9007.000
1344.941, 9126.000
1346.003, 8998.000
1347.064, 9072.000
1348.125, 9040.000
1349.186, 9040.406
1350.247, 9020.000
1351.308, 9056.000
1352.368, 9147.000
1353.428, 9112.000
1354.489, 9267.000
1355.549, 9109.000
1356.608, 9111.000
1357.668, 9114.000
1358.727, 9187.000
1359.787, 9169.111
1360.846, 9181.000
1361.905, 9170.000
1362.964, 9189.618
1364.022, 9232.000
1365.081, 9244.000
1366.139, 9264.000
1367.197, 9313.000
1368.255, 9370.000
1369.313, 9270.000
1370.371, 9397.000
1371.428, 9234.000
1372.486, 9228.000
1373.543, 9295.000
1374.600, 9401.000
1375.657, 9223.000
1376.713, 9336.000
1377.770, 9242.000
1378.826, 9304.000
1379.882, 9230.000
1380.938, 9237.000
1381.994, 9167.000
1383.050, 9337.000
1384.106, 9341.000
1385.161, 9459.000
1386.216, 9280.000
1387.271, 9356.000
1388.326, 9232.000
1389.381, 9292.000
1390.435, 9265.000
1391.490, 9315.000
1392.544, 9400.000
1393.598, 9243.000
1394.652, 9232.000
1395.705, 9282.000
1396.759, 9301.000
1397.812, 9425.000
1398.866, 9450.000
1399.919, 9373.000
1400.972, 9360.000
1402.024, 9308.000
1403.077, 9388.000
1404.129, 9315.737
1405.181, 9357.000
1406.233, 9252.000
1407.285, 9301.000
1408.337, 9307.000
1409.389, 9343.000
1410.440, 9305.000
1411.491, 9261.000
1412.542, 9368.000
1413.593, 9328.000
1414.644, 9339.000
1415.695, 9311.000
1416.745, 9359.000
1417.795, 9335.000
1418.845, 9455.000
1419.895, 9363.000
1420.945, 9445.000
1421.995, 9443.000
1423.044, 9530.000
1424.093, 9427.000
1425.142, 9375.000
1426.191, 9400.000
1427.240, 9467.000
1428.289, 9510.000
1429.337, 9388.000
1430.385, 9460.000
1431.433, 9643.000
1432.481, 9439.000
1433.529, 9565.000
1434.577, 9524.000
1435.624, 9599.000
1436.672, 9509.000
1437.719, 9566.000
1438.766, 9638.000
1439.812, 9676.000
1440.859, 9709.000
1441.905, 9592.000
1442.952, 9719.000
1443.998, 9653.000
1445.044, 9706.000
1446.090, 9646.000
1447.135, 9708.000
1448.181, 9699.000
1449.226, 9791.000
1450.271, 9791.549
1451.316, 9814.595
1452.361, 9800.000
1453.405, 9791.000
1454.450, 9745.000
1455.494, 9734.852
1456.538, 9724.013
1457.582, 9683.000
1458.626, 9723.000
1459.670, 9686.000
1460.713, 9704.000
1461.757, 9763.000
1462.800, 9755.000
1463.843, 9759.309
1464.886, 9697.000
1465.928, 9701.000
1466.971, 9725.000
1468.013, 9633.000
1469.055, 9631.000
1470.097, 9676.000
1471.139, 9827.000
1472.181, 9733.000
1473.222, 9671.000
1474.263, 9712.000
1475.305, 9635.000
1476.346, 9732.000
1477.386, 9608.000
1478.427, 9723.000
1479.468, 9674.000
1480.508, 9756.000
1481.548, 9716.000
1482.588, 9730.000
1483.628, 9671.000
1484.668, 9679.000
1485.707, 9696.000
1486.747, 9648.000
1487.786, 9772.000
1488.825, 9813.000
1489.864, 9766.000
1490.902, 9815.208
1491.941, 9774.000
1492.979, 9775.000
1494.017, 9735.000
1495.055, 9669.000
1496.093, 9685.000
1497.131, 9776.000
1498.168, 9829.000
1499.206, 9751.000
1500.243, 9733.000
1501.280, 9655.000
1502.317, 9686.000
1503.354, 9761.000
1504.390, 9745.000
1505.426, 9842.000
1506.463, 9853.376
1507.499, 9839.000
1508.535, 9872.000
1509.570, 9905.000
1510.606, 9842.000
1511.641, 9889.728
1512.676, 9877.000
1513.711, 9905.000
1514.746, 9776.000
1515.781, 9744.000
1516.816, 9850.000
1517.850, 9969.000
1518.884, 9868.000
1519.918, 9848.000
1520.952, 9879.000
1521.986, 10055.00
1523.019, 9986.000
1524.053, 10016.00
1525.086, 10069.00
1526.119, 9861.000
1527.152, 9890.000
1528.185, 9990.000
1529.217, 10012.00
1530.250, 10084.00
1531.282, 10029.00
1532.314, 10061.00
1533.346, 10062.00
1534.377, 10063.00
1535.409, 10148.00
1536.440, 9964.000
1537.472, 9920.000
1538.503, 10026.00
1539.534, 10150.00
1540.564, 10163.00
1541.595, 10120.00
1542.625, 10193.00
1543.656, 10228.00
1544.686, 10111.00
1545.716, 10071.00
1546.745, 10145.00
1547.775, 10271.00
1548.804, 10309.00
1549.834, 10366.54
1550.863, 10332.00
1551.892, 10397.00
1552.920, 10450.00
1553.949, 10388.00
1554.977, 10576.00
1556.006, 10470.00
1557.034, 10285.00
1558.062, 10344.00
1559.089, 10248.00
1560.117, 10240.00
1561.144, 10206.00
1562.172, 10273.00
1563.199, 10261.00
1564.226, 10186.00
1565.252, 10266.00
1566.279, 10245.00
1567.305, 10265.00
1568.332, 10255.00
1569.358, 10473.00
1570.384, 10249.00
##END=



