##NAMES=Andalusite
##RRUFFID=R050561
##IDEAL CHEMISTRY=Al_2_SiO_5_
##LOCALITY=Cargo Muchacho Mountain, Imperial County, California
##OWNER=RRUFF
##SOURCE=Dave Bunk Minerals
##DESCRIPTION=Brown coarsely crystalline massive
##STATUS=The identification of this mineral has been confirmed by X-ray diffraction and chemical analysis
##URL=rruff.info/R050561
##MEASURED CHEMISTRY=(Al_1.98_Fe^3+^_0.02_)_Î£=2_Si_1.00_O_5_
##PIN_ID=M00237
##ORIENTATION=Laser parallel to c* (0 0 1). Fiducial mark perpendicular to laser is parallel to 1 0 0
157.4550, 4616.555
158.6810, 4604.122
159.9080, 4596.000
161.1340, 4585.000
162.3590, 4648.000
163.5850, 4648.000
164.8110, 4773.000
166.0360, 4911.000
167.2610, 4977.000
168.4860, 5041.355
169.7110, 5058.676
170.9360, 5055.000
172.1610, 5018.000
173.3850, 4908.000
174.6100, 4850.000
175.8340, 4886.000
177.0580, 4890.000
178.2820, 4957.000
179.5050, 4928.000
180.7290, 4909.000
181.9520, 4987.000
183.1760, 4967.000
184.3990, 5054.000
185.6220, 5103.000
186.8450, 5216.000
188.0670, 5295.000
189.2900, 5472.000
190.5120, 5555.000
191.7340, 5626.000
192.9560, 5715.000
194.1780, 5699.000
195.4000, 5770.000
196.6220, 5663.000
197.8430, 5751.000
199.0640, 5687.000
200.2860, 5785.000
201.5070, 5906.000
202.7270, 5894.000
203.9480, 5743.000
205.1690, 5381.000
206.3890, 5149.000
207.6090, 5048.000
208.8290, 5090.000
210.0490, 4893.000
211.2690, 4968.000
212.4890, 4946.000
213.7080, 5016.000
214.9280, 5040.000
216.1470, 4962.000
217.3660, 4957.000
218.5850, 5038.000
219.8030, 4997.000
221.0220, 5073.000
222.2400, 5055.000
223.4590, 5071.704
224.6770, 5097.089
225.8950, 5098.000
227.1120, 5147.000
228.3300, 5162.000
229.5480, 5241.000
230.7650, 5350.717
231.9820, 5598.000
233.1990, 5642.000
234.4160, 5939.000
235.6330, 6148.000
236.8490, 6378.000
238.0660, 6552.000
239.2820, 6794.000
240.4980, 7004.000
241.7140, 7220.000
242.9300, 7193.000
244.1460, 7091.000
245.3610, 7086.000
246.5770, 6889.000
247.7920, 6634.000
249.0070, 6629.000
250.2220, 6507.000
251.4370, 6531.000
252.6510, 6522.000
253.8660, 6541.000
255.0800, 6565.000
256.2940, 6770.000
257.5080, 6765.000
258.7220, 7040.000
259.9360, 7123.103
261.1490, 7363.000
262.3630, 7380.000
263.5760, 7651.000
264.7890, 7794.000
266.0020, 8219.000
267.2150, 8700.000
268.4270, 9143.000
269.6400, 9599.000
270.8520, 10023.00
272.0640, 10928.00
273.2760, 11754.00
274.4880, 12934.00
275.7000, 14223.00
276.9120, 15977.00
278.1230, 17798.00
279.3340, 20186.00
280.5450, 22726.00
281.7560, 26484.00
282.9670, 30387.00
284.1780, 34096.00
285.3880, 37970.00
286.5980, 41927.00
287.8090, 45730.00
289.0190, 49073.00
290.2290, 52238.00
291.4380, 53582.00
292.6480, 52628.00
293.8570, 49343.00
295.0670, 43500.00
296.2760, 36777.00
297.4850, 30364.00
298.6930, 24667.00
299.9020, 20268.00
301.1110, 17155.00
302.3190, 14961.00
303.5270, 13296.00
304.7350, 12437.00
305.9430, 11828.00
307.1510, 11538.00
308.3580, 11780.00
309.5660, 12789.00
310.7730, 13993.00
311.9800, 15312.00
313.1870, 16816.00
314.3940, 18167.00
315.6010, 19882.00
316.8070, 21544.00
318.0130, 23636.00
319.2200, 25762.00
320.4260, 27065.00
321.6310, 27387.00
322.8370, 26131.00
324.0430, 23706.00
325.2480, 20819.00
326.4540, 18146.00
327.6590, 15982.00
328.8640, 14338.00
330.0680, 13324.00
331.2730, 12559.00
332.4780, 12067.00
333.6820, 11703.00
334.8860, 11373.00
336.0900, 11262.00
337.2940, 11228.00
338.4980, 11119.00
339.7010, 11010.00
340.9050, 11067.00
342.1080, 11063.00
343.3110, 11278.00
344.5140, 11638.00
345.7170, 12213.00
346.9200, 13135.00
348.1220, 14160.00
349.3240, 15183.00
350.5270, 16883.00
351.7290, 18094.00
352.9310, 19463.00
354.1320, 21019.00
355.3340, 22539.00
356.5350, 23822.00
357.7370, 24721.00
358.9380, 24846.00
360.1390, 23896.00
361.3400, 22575.00
362.5400, 20293.00
363.7410, 17930.00
364.9410, 15851.00
366.1410, 13917.00
367.3410, 12609.00
368.5410, 11360.00
369.7410, 10703.00
370.9400, 10018.00
372.1400, 9518.000
373.3390, 9108.000
374.5380, 8914.000
375.7370, 8502.000
376.9360, 8237.000
378.1350, 8242.000
379.3330, 8056.000
380.5310, 8121.000
381.7300, 7871.000
382.9280, 7850.000
384.1260, 7693.000
385.3230, 7421.000
386.5210, 7388.000
387.7180, 7315.000
388.9160, 7184.000
390.1130, 7085.000
391.3100, 6953.000
392.5060, 6929.000
393.7030, 6781.000
394.9000, 6687.000
396.0960, 6760.000
397.2920, 6663.000
398.4880, 6529.000
399.6840, 6390.000
400.8800, 6393.000
402.0750, 6405.000
403.2710, 6517.000
404.4660, 6375.000
405.6610, 6517.000
406.8560, 6404.000
408.0510, 6479.000
409.2450, 6621.000
410.4400, 6748.000
411.6340, 6863.000
412.8280, 6811.000
414.0220, 6985.000
415.2160, 6872.000
416.4100, 6988.000
417.6030, 7029.000
418.7970, 7051.000
419.9900, 6930.000
421.1830, 6866.000
422.3760, 6768.000
423.5690, 6555.000
424.7610, 6522.000
425.9540, 6462.000
427.1460, 6278.000
428.3380, 6334.000
429.5300, 6321.000
430.7220, 6273.000
431.9140, 6227.000
433.1050, 6297.000
434.2970, 6157.000
435.4880, 6286.000
436.6790, 6262.000
437.8700, 6282.000
439.0610, 6335.000
440.2510, 6404.000
441.4420, 6692.000
442.6320, 6735.000
443.8220, 7163.000
445.0120, 7213.000
446.2020, 7405.000
447.3910, 7615.000
448.5810, 7696.000
449.7700, 8124.000
450.9600, 8375.000
452.1490, 8437.000
453.3370, 8377.000
454.5260, 8094.000
455.7150, 7614.000
456.9030, 7350.000
458.0910, 7076.000
459.2800, 6904.000
460.4670, 6906.000
461.6550, 6950.000
462.8430, 6843.000
464.0300, 7031.000
465.2180, 7009.000
466.4050, 7028.000
467.5920, 6994.000
468.7790, 7056.000
469.9650, 7026.000
471.1520, 7052.000
472.3380, 7031.000
473.5250, 7002.000
474.7110, 6999.000
475.8970, 7033.493
477.0820, 7089.000
478.2680, 7109.000
479.4540, 7117.000
480.6390, 7101.000
481.8240, 7142.000
483.0090, 7007.000
484.1940, 6887.000
485.3780, 6971.000
486.5630, 6904.000
487.7470, 6816.000
488.9320, 6734.000
490.1160, 6641.000
491.3000, 6511.000
492.4830, 6536.000
493.6670, 6475.000
494.8500, 6456.000
496.0340, 6514.000
497.2170, 6376.000
498.4000, 6487.000
499.5820, 6364.000
500.7650, 6475.000
501.9480, 6457.000
503.1300, 6419.000
504.3120, 6471.000
505.4940, 6570.000
506.6760, 6724.000
507.8580, 6661.000
509.0390, 6821.000
510.2210, 6868.000
511.4020, 6774.000
512.5830, 6916.000
513.7640, 6981.000
514.9450, 6897.000
516.1250, 6910.000
517.3060, 6936.000
518.4860, 6933.000
519.6660, 6953.435
520.8460, 6894.000
522.0260, 6955.000
523.2060, 6897.000
524.3850, 6838.000
525.5650, 7098.000
526.7440, 7093.000
527.9230, 7018.000
529.1020, 7043.000
530.2810, 6979.000
531.4590, 7113.000
532.6380, 7152.000
533.8160, 7373.000
534.9940, 7360.000
536.1720, 7590.000
537.3500, 7842.000
538.5270, 8103.000
539.7050, 8642.000
540.8820, 8950.000
542.0590, 9490.000
543.2360, 10351.00
544.4130, 10995.00
545.5900, 11641.00
546.7660, 12288.00
547.9430, 12891.00
549.1190, 13311.00
550.2950, 13451.00
551.4710, 13403.00
552.6470, 13678.00
553.8220, 12523.00
554.9980, 11498.00
556.1730, 10710.00
557.3480, 10024.00
558.5230, 9330.000
559.6980, 9050.000
560.8730, 8691.000
562.0470, 8477.000
563.2220, 8435.000
564.3960, 8335.000
565.5700, 8297.000
566.7440, 8286.000
567.9170, 8425.000
569.0910, 8462.000
570.2640, 8514.000
571.4380, 8693.000
572.6110, 8579.000
573.7840, 8590.000
574.9570, 8294.000
576.1290, 8270.000
577.3020, 8076.000
578.4740, 7936.000
579.6460, 7868.000
580.8180, 7639.000
581.9900, 7595.000
583.1620, 7540.000
584.3330, 7378.000
585.5040, 7344.000
586.6760, 7474.000
587.8470, 7430.000
589.0180, 7436.000
590.1880, 7410.000
591.3590, 7419.000
592.5290, 7494.000
593.7000, 7412.000
594.8700, 7385.000
596.0400, 7479.000
597.2090, 7587.000
598.3790, 7604.000
599.5490, 7626.000
600.7180, 7655.000
601.8870, 7623.000
603.0560, 7848.000
604.2250, 7847.000
605.3940, 7857.000
606.5620, 7750.000
607.7300, 7705.000
608.8990, 7714.000
610.0670, 7600.000
611.2350, 7462.000
612.4020, 7511.000
613.5700, 7483.000
614.7370, 7507.000
615.9050, 7509.304
617.0720, 7496.000
618.2390, 7508.000
619.4060, 7475.000
620.5720, 7470.000
621.7390, 7454.000
622.9050, 7553.000
624.0710, 7602.000
625.2370, 7589.000
626.4030, 7657.000
627.5690, 7606.000
628.7340, 7584.000
629.9000, 7544.000
631.0650, 7526.000
632.2300, 7373.000
633.3950, 7349.000
634.5600, 7259.000
635.7240, 7113.000
636.8890, 7087.000
638.0530, 7182.000
639.2170, 7131.000
640.3810, 7158.000
641.5450, 7154.000
642.7080, 7066.000
643.8720, 7140.000
645.0350, 7084.000
646.1980, 7123.000
647.3610, 7050.000
648.5240, 7060.000
649.6870, 7053.000
650.8490, 7038.000
652.0120, 6921.000
653.1740, 7033.000
654.3360, 6857.000
655.4980, 6902.000
656.6600, 6995.000
657.8210, 6990.000
658.9830, 6946.000
660.1440, 7025.000
661.3050, 7032.000
662.4660, 7058.000
663.6270, 7059.000
664.7870, 7091.000
665.9480, 7068.000
667.1080, 7000.000
668.2680, 6985.000
669.4280, 6864.000
670.5880, 7047.000
671.7480, 6992.000
672.9070, 7062.000
674.0670, 7177.000
675.2260, 7090.000
676.3850, 7200.000
677.5440, 7206.000
678.7030, 7232.000
679.8610, 7394.000
681.0200, 7307.000
682.1780, 7330.000
683.3360, 7393.000
684.4940, 7377.000
685.6520, 7455.000
686.8090, 7425.000
687.9670, 7410.000
689.1240, 7415.000
690.2810, 7510.000
691.4380, 7528.000
692.5950, 7389.000
693.7520, 7576.000
694.9080, 7562.000
696.0650, 7494.000
697.2210, 7616.000
698.3770, 7610.000
699.5330, 7598.000
700.6880, 7780.000
701.8440, 7717.000
702.9990, 7794.000
704.1550, 7855.000
705.3100, 7917.000
706.4650, 7966.000
707.6190, 8025.000
708.7740, 8140.000
709.9290, 8264.000
711.0830, 8377.000
712.2370, 8470.000
713.3910, 8430.000
714.5450, 8550.000
715.6980, 8518.000
716.8520, 8521.000
718.0050, 8353.000
719.1580, 8262.000
720.3110, 8094.000
721.4640, 7812.000
722.6170, 7718.000
723.7700, 7604.000
724.9220, 7350.000
726.0740, 7305.000
727.2260, 7122.000
728.3780, 7137.000
729.5300, 7087.000
730.6810, 7020.000
731.8330, 7089.000
732.9840, 7054.000
734.1350, 7037.000
735.2860, 7135.927
736.4370, 7005.382
737.5880, 7303.000
738.7380, 7190.000
739.8880, 7238.000
741.0390, 7309.804
742.1890, 7278.869
743.3380, 7335.000
744.4880, 7307.000
745.6380, 7293.000
746.7870, 7272.000
747.9360, 7248.783
749.0850, 7241.584
750.2340, 7240.000
751.3830, 7202.000
752.5310, 7273.000
753.6800, 7212.000
754.8280, 7095.000
755.9760, 7159.000
757.1240, 7122.000
758.2720, 7225.000
759.4190, 7178.000
760.5670, 7067.000
761.7140, 7039.000
762.8610, 7080.000
764.0080, 7041.000
765.1550, 7115.000
766.3020, 7038.000
767.4480, 6947.000
768.5950, 6994.000
769.7410, 7004.000
770.8870, 7050.000
772.0330, 7161.000
773.1780, 7101.000
774.3240, 7061.000
775.4690, 7167.000
776.6140, 7038.000
777.7590, 7197.000
778.9040, 7183.000
780.0490, 7219.000
781.1940, 7228.000
782.3380, 7171.000
783.4820, 7262.000
784.6260, 7289.000
785.7700, 7378.000
786.9140, 7377.000
788.0580, 7446.000
789.2010, 7519.000
790.3450, 7564.000
791.4880, 7621.609
792.6310, 7656.000
793.7730, 7741.000
794.9160, 7804.000
796.0590, 7921.000
797.2010, 8061.000
798.3430, 8186.000
799.4850, 8538.000
800.6270, 8719.000
801.7690, 8904.000
802.9100, 8969.000
804.0520, 9266.000
805.1930, 9310.000
806.3340, 9451.000
807.4750, 9125.000
808.6160, 9263.000
809.7560, 8928.000
810.8970, 8865.000
812.0370, 8609.000
813.1770, 8449.000
814.3170, 8386.000
815.4570, 8095.000
816.5960, 7946.000
817.7360, 7937.000
818.8750, 7912.000
820.0140, 7802.000
821.1530, 7751.000
822.2920, 7816.000
823.4310, 7823.000
824.5690, 7873.000
825.7070, 8050.000
826.8460, 8231.000
827.9840, 8267.737
829.1220, 8338.168
830.2590, 8376.000
831.3970, 8344.000
832.5340, 8353.000
833.6710, 8350.000
834.8080, 8245.000
835.9450, 8120.000
837.0820, 7976.000
838.2190, 7940.000
839.3550, 7705.000
840.4910, 7642.000
841.6270, 7505.000
842.7630, 7473.000
843.8990, 7447.000
845.0350, 7451.000
846.1700, 7470.000
847.3060, 7357.000
848.4410, 7279.000
849.5760, 7369.000
850.7100, 7423.000
851.8450, 7351.000
852.9800, 7493.000
854.1140, 7377.000
855.2480, 7363.000
856.3820, 7377.000
857.5160, 7413.000
858.6500, 7435.000
859.7830, 7381.000
860.9170, 7457.000
862.0500, 7392.000
863.1830, 7550.000
864.3160, 7490.000
865.4480, 7603.000
866.5810, 7530.000
867.7130, 7610.000
868.8460, 7683.000
869.9780, 7617.000
871.1100, 7597.000
872.2410, 7677.000
873.3730, 7722.000
874.5050, 7817.000
875.6360, 7817.000
876.7670, 7825.000
877.8980, 7895.858
879.0290, 7962.000
880.1590, 7987.000
881.2900, 8088.000
882.4200, 8114.000
883.5500, 8193.000
884.6800, 8228.717
885.8100, 8302.000
886.9400, 8337.000
888.0690, 8406.000
889.1990, 8560.000
890.3280, 8711.000
891.4570, 8881.000
892.5860, 8942.000
893.7140, 9193.000
894.8430, 9407.000
895.9710, 9729.000
897.1000, 9839.000
898.2280, 10127.00
899.3560, 10417.00
900.4830, 10905.00
901.6110, 11429.00
902.7380, 12025.00
903.8660, 12685.00
904.9930, 13713.00
906.1200, 15063.00
907.2460, 16638.00
908.3730, 19159.00
909.5000, 22246.00
910.6260, 26311.00
911.7520, 31258.00
912.8780, 36735.00
914.0040, 42230.00
915.1290, 47564.00
916.2550, 52685.00
917.3800, 56068.00
918.5050, 57276.00
919.6300, 55671.00
920.7550, 51146.00
921.8800, 44930.00
923.0040, 38399.00
924.1290, 32621.00
925.2530, 27858.00
926.3770, 24625.00
927.5010, 22188.00
928.6250, 20389.00
929.7480, 18803.00
930.8720, 17488.00
931.9950, 16490.00
933.1180, 15702.00
934.2410, 15067.00
935.3640, 14527.00
936.4860, 14307.00
937.6090, 14363.00
938.7310, 14544.08
939.8530, 15129.00
940.9750, 15664.00
942.0970, 16651.00
943.2180, 17768.00
944.3400, 19012.00
945.4610, 20402.00
946.5820, 21837.00
947.7030, 23235.00
948.8240, 24184.00
949.9450, 24587.00
951.0650, 24654.00
952.1860, 23543.00
953.3060, 22107.00
954.4260, 20657.00
955.5460, 18431.00
956.6650, 16595.00
957.7850, 14899.00
958.9040, 13786.00
960.0230, 12751.00
961.1420, 12104.00
962.2610, 11433.00
963.3800, 11149.00
964.4990, 10820.00
965.6170, 10610.00
966.7350, 10422.93
967.8530, 10244.00
968.9710, 10159.00
970.0890, 9980.055
971.2070, 9867.892
972.3240, 9698.000
973.4410, 9594.000
974.5580, 9458.000
975.6750, 9243.000
976.7920, 9128.000
977.9090, 9061.618
979.0250, 8966.199
980.1410, 9040.000
981.2580, 8862.000
982.3740, 8951.000
983.4890, 8865.000
984.6050, 8780.000
985.7200, 8780.000
986.8360, 8842.000
987.9510, 8852.000
989.0660, 8874.000
990.1810, 8692.000
991.2950, 8885.000
992.4100, 8690.000
993.5240, 8787.000
994.6390, 8724.000
995.7530, 8900.000
996.8660, 8906.000
997.9800, 8975.000
999.0940, 9027.000
1000.207, 9086.000
1001.320, 9246.000
1002.433, 9442.000
1003.546, 9553.000
1004.659, 9895.000
1005.772, 10123.00
1006.884, 10445.00
1007.996, 10935.00
1009.108, 11545.00
1010.220, 12193.00
1011.332, 12965.00
1012.444, 14008.00
1013.555, 15014.00
1014.666, 16027.00
1015.777, 16922.00
1016.888, 17908.00
1017.999, 18316.00
1019.110, 18441.00
1020.220, 18369.00
1021.331, 17685.00
1022.441, 16714.00
1023.551, 15848.00
1024.661, 14997.00
1025.770, 13894.00
1026.880, 13057.00
1027.989, 12728.00
1029.098, 11975.00
1030.207, 11567.00
1031.316, 11255.00
1032.425, 10808.00
1033.533, 10601.00
1034.642, 10401.00
1035.750, 10255.00
1036.858, 10015.00
1037.966, 9955.000
1039.073, 9925.000
1040.181, 9931.000
1041.288, 9741.000
1042.396, 9824.000
1043.503, 9800.000
1044.610, 9935.000
1045.716, 9991.000
1046.823, 9956.000
1047.929, 10133.00
1049.036, 10340.00
1050.142, 10585.00
1051.248, 10910.00
1052.353, 11223.00
1053.459, 11715.00
1054.564, 12433.00
1055.670, 13622.00
1056.775, 14866.00
1057.880, 16450.00
1058.985, 17906.00
1060.089, 19774.00
1061.194, 21111.00
1062.298, 22171.00
1063.402, 22288.84
1064.506, 22476.00
1065.610, 21046.00
1066.713, 19327.00
1067.817, 17279.00
1068.920, 15402.00
1070.023, 14136.00
1071.126, 12972.00
1072.229, 12252.00
1073.332, 11456.00
1074.435, 11147.00
1075.537, 10747.00
1076.639, 10464.00
1077.741, 10327.00
1078.843, 10265.00
1079.945, 10074.00
1081.046, 9890.000
1082.148, 9928.000
1083.249, 9916.000
1084.350, 9745.000
1085.451, 9850.000
1086.551, 9823.000
1087.652, 9822.000
1088.752, 9880.000
1089.853, 9873.000
1090.953, 9879.328
1092.053, 9929.000
1093.152, 9883.000
1094.252, 9874.000
1095.351, 9903.000
1096.451, 10051.00
1097.550, 10186.00
1098.649, 10343.00
1099.748, 10620.00
1100.846, 10721.00
1101.945, 11130.00
1103.043, 11285.00
1104.141, 11498.00
1105.239, 11797.00
1106.337, 12203.00
1107.434, 12293.00
1108.532, 12360.00
1109.629, 12214.00
1110.726, 12125.00
1111.823, 11726.00
1112.920, 11295.00
1114.017, 10957.00
1115.113, 10622.00
1116.210, 10306.00
1117.306, 10042.00
1118.402, 9635.000
1119.498, 9609.000
1120.593, 9409.000
1121.689, 9375.000
1122.784, 9128.000
1123.879, 9083.000
1124.974, 9138.000
1126.069, 9165.000
1127.164, 9082.000
1128.259, 8974.000
1129.353, 8959.000
1130.447, 8787.000
1131.541, 8960.000
1132.635, 8937.000
1133.729, 8836.000
1134.822, 8909.000
1135.916, 8802.000
1137.009, 8774.000
1138.102, 8835.000
1139.195, 8938.000
1140.288, 8826.000
1141.380, 8924.000
1142.473, 8892.000
1143.565, 8819.000
1144.657, 8801.000
1145.749, 8860.000
1146.841, 8890.000
1147.932, 8802.000
1149.024, 8873.000
1150.115, 8855.000
1151.206, 8821.000
1152.297, 8827.355
1153.388, 8812.000
1154.479, 8785.000
1155.569, 8734.000
1156.659, 8732.000
1157.750, 8706.218
1158.839, 8734.842
1159.929, 8695.000
1161.019, 8769.000
1162.108, 8800.000
1163.198, 8718.000
1164.287, 8891.000
1165.376, 8780.000
1166.465, 8943.000
1167.553, 8854.000
1168.642, 8823.000
1169.730, 8770.000
1170.818, 8653.000
1171.906, 8766.000
1172.994, 8908.000
1174.082, 8704.000
1175.170, 8734.000
1176.257, 8866.000
1177.344, 8714.000
1178.431, 8659.000
1179.518, 8710.000
1180.605, 8833.000
1181.691, 8804.000
1182.778, 8773.000
1183.864, 8769.000
1184.950, 8782.000
1186.036, 8761.413
1187.122, 8729.000
1188.207, 8780.000
1189.292, 8823.000
1190.378, 8908.000
1191.463, 8770.000
1192.548, 8708.000
1193.632, 8822.000
1194.717, 8762.275
1195.801, 8791.896
1196.886, 8821.000
1197.970, 8802.000
1199.054, 8820.000
1200.137, 8790.000
1201.221, 8842.000
1202.305, 8902.000
1203.388, 8850.000
1204.471, 8844.000
1205.554, 8896.000
1206.637, 8898.000
1207.719, 8884.474
1208.802, 8914.574
1209.884, 8837.000
1210.966, 8917.000
1212.048, 8890.000
1213.130, 8845.000
1214.212, 8951.000
1215.293, 8933.000
1216.374, 8997.000
1217.456, 9014.000
1218.536, 8850.000
1219.617, 8877.000
1220.698, 8850.000
1221.778, 8948.000
1222.859, 8965.000
1223.939, 8907.000
1225.019, 8808.000
1226.099, 8919.000
1227.178, 8949.000
1228.258, 8945.000
1229.337, 9024.000
1230.417, 9001.000
1231.496, 8963.000
1232.574, 9006.000
1233.653, 9012.000
1234.732, 9045.000
1235.810, 8930.000
1236.888, 9029.000
1237.966, 9000.000
1239.044, 9051.000
1240.122, 8910.000
1241.199, 9060.000
1242.277, 9088.000
1243.354, 8956.000
1244.431, 9131.000
1245.508, 9127.000
1246.585, 9027.000
1247.661, 9015.000
1248.738, 9124.000
1249.814, 9226.000
1250.890, 9139.000
1251.966, 9135.000
1253.042, 9060.000
1254.117, 9128.000
1255.193, 9047.000
1256.268, 9020.000
1257.343, 9146.000
1258.418, 9101.000
1259.493, 9048.000
1260.567, 9113.000
1261.642, 9101.000
1262.716, 9082.000
1263.790, 9090.000
1264.864, 9089.423
1265.938, 9159.000
1267.011, 9098.000
1268.085, 9151.000
1269.158, 9137.000
1270.231, 9154.000
1271.304, 9155.000
1272.377, 9140.000
1273.450, 9159.000
1274.522, 9289.000
1275.594, 9260.000
1276.666, 9314.000
1277.738, 9234.000
1278.810, 9230.000
1279.882, 9268.000
1280.953, 9175.000
1282.025, 9253.000
1283.096, 9185.000
1284.167, 9268.000
1285.238, 9232.000
1286.308, 9275.000
1287.379, 9336.000
1288.449, 9280.000
1289.519, 9229.000
1290.589, 9385.000
1291.659, 9326.000
1292.729, 9316.000
1293.798, 9272.000
1294.868, 9196.000
1295.937, 9281.000
1297.006, 9357.000
1298.075, 9343.000
1299.143, 9301.000
1300.212, 9346.000
1301.280, 9286.000
1302.348, 9314.986
1303.416, 9283.811
1304.484, 9366.000
1305.552, 9259.000
1306.620, 9310.000
1307.687, 9378.000
1308.754, 9420.000
1309.821, 9369.000
1310.888, 9427.000
1311.955, 9358.000
1313.021, 9388.000
1314.088, 9364.000
1315.154, 9355.000
1316.220, 9416.000
1317.286, 9365.000
1318.352, 9376.000
1319.417, 9392.000
1320.483, 9347.442
1321.548, 9371.000
1322.613, 9345.000
1323.678, 9351.000
1324.743, 9366.307
1325.807, 9370.742
1326.872, 9406.000
1327.936, 9423.000
1329.000, 9460.000
1330.064, 9521.000
1331.128, 9485.000
1332.191, 9473.000
1333.255, 9524.000
1334.318, 9498.000
1335.381, 9480.000
1336.444, 9499.702
1337.507, 9437.000
1338.569, 9512.000
1339.632, 9520.000
1340.694, 9541.000
1341.756, 9507.000
1342.818, 9445.000
1343.880, 9640.000
1344.941, 9563.000
1346.003, 9554.000
1347.064, 9429.000
1348.125, 9601.000
1349.186, 9475.000
1350.247, 9557.000
1351.308, 9623.000
1352.368, 9551.000
1353.428, 9553.000
1354.489, 9563.000
1355.549, 9539.000
1356.608, 9501.000
1357.668, 9538.000
1358.727, 9576.000
1359.787, 9598.000
1360.846, 9678.000
1361.905, 9702.000
1362.964, 9688.000
1364.022, 9696.000
1365.081, 9684.744
1366.139, 9728.000
1367.197, 9669.000
1368.255, 9624.000
1369.313, 9646.000
1370.371, 9582.045
1371.428, 10289.00
1372.486, 9793.000
1373.543, 9742.000
1374.600, 10456.00
1375.657, 9619.000
1376.713, 9835.000
1377.770, 9799.000
1378.826, 9648.000
1379.882, 9730.000
1380.938, 9849.000
1381.994, 9743.000
1383.050, 9711.000
1384.106, 9699.000
1385.161, 9699.964
1386.216, 9710.196
1387.271, 9764.000
1388.326, 9780.000
1389.381, 9788.000
1390.435, 9866.000
1391.490, 9684.000
1392.544, 9807.000
1393.598, 9676.000
1394.652, 9870.000
1395.705, 9838.000
1396.759, 9902.000
1397.812, 9894.900
1398.866, 9873.194
1399.919, 9829.000
1400.972, 9829.000
1402.024, 9846.000
1403.077, 9848.000
1404.129, 9862.000
1405.181, 9773.000
1406.233, 9832.000
1407.285, 9854.000
1408.337, 9975.000
1409.389, 9888.000
1410.440, 9931.000
1411.491, 9939.919
1412.542, 9922.000
1413.593, 9952.000
1414.644, 9838.000
1415.695, 9861.000
1416.745, 9888.000
1417.795, 9947.000
1418.845, 9863.000
1419.895, 9922.000
1420.945, 9782.000
1421.995, 9877.000
1423.044, 9952.000
1424.093, 9921.000
1425.142, 9908.000
1426.191, 9939.000
1427.240, 9957.000
1428.289, 9963.237
1429.337, 10101.00
1430.385, 9988.000
1431.433, 10026.00
1432.481, 10038.00
1433.529, 9918.000
1434.577, 9916.000
1435.624, 10027.00
1436.672, 10080.00
1437.719, 9948.000
1438.766, 10012.00
1439.812, 9914.000
1440.859, 10041.00
1441.905, 9974.000
1442.952, 10097.00
1443.998, 10005.00
1445.044, 10029.00
1446.090, 10103.00
1447.135, 10057.00
1448.181, 10115.00
1449.226, 10106.00
1450.271, 10043.00
1451.316, 10169.00
1452.361, 10066.00
1453.405, 10182.00
1454.450, 10008.00
1455.494, 10168.00
1456.538, 10109.00
1457.582, 10194.00
1458.626, 10113.00
1459.670, 10069.00
1460.713, 10173.00
1461.757, 10202.00
1462.800, 10167.00
1463.843, 10044.00
1464.886, 10174.00
1465.928, 10144.00
1466.971, 10207.00
1468.013, 10194.00
1469.055, 10219.00
1470.097, 10316.00
1471.139, 10246.00
1472.181, 10293.99
1473.222, 10226.00
1474.263, 10281.00
1475.305, 10314.00
1476.346, 10265.00
1477.386, 10283.00
1478.427, 10260.00
1479.468, 10287.00
1480.508, 10265.00
1481.548, 10284.00
1482.588, 10287.00
1483.628, 10183.00
1484.668, 10198.00
1485.707, 10397.00
1486.747, 10247.00
1487.786, 10304.00
1488.825, 10318.00
1489.864, 10287.00
1490.902, 10331.00
1491.941, 10442.00
1492.979, 10369.00
1494.017, 10375.00
1495.055, 10417.00
1496.093, 10343.00
1497.131, 10422.00
1498.168, 10284.00
1499.206, 10423.00
1500.243, 10420.00
1501.280, 10421.00
1502.317, 10296.00
1503.354, 10542.00
1504.390, 10371.00
1505.426, 10418.00
1506.463, 10484.00
1507.499, 10464.00
1508.535, 10498.00
1509.570, 10506.00
1510.606, 10454.00
1511.641, 10471.00
1512.676, 10428.00
1513.711, 10461.00
1514.746, 10507.00
1515.781, 10449.00
1516.816, 10611.00
1517.850, 10415.00
1518.884, 10442.00
1519.918, 10564.00
1520.952, 10590.00
1521.986, 10550.00
1523.019, 10428.00
1524.053, 10465.00
1525.086, 10643.00
1526.119, 10482.00
1527.152, 10637.00
1528.185, 10564.00
1529.217, 10616.00
1530.250, 10661.00
1531.282, 10474.00
1532.314, 10430.00
1533.346, 10522.00
1534.377, 10655.00
1535.409, 10531.00
1536.440, 10471.00
1537.472, 10548.00
1538.503, 10522.00
1539.534, 10600.00
1540.564, 10676.00
1541.595, 10704.00
1542.625, 10511.00
1543.656, 10664.00
1544.686, 10659.00
1545.716, 10543.00
1546.745, 10608.00
1547.775, 10554.00
1548.804, 10668.00
1549.834, 10781.00
1550.863, 10719.00
1551.892, 10804.00
1552.920, 10912.00
1553.949, 10962.00
1554.977, 10867.00
1556.006, 10828.00
1557.034, 10735.00
1558.062, 10775.00
1559.089, 10766.00
1560.117, 10664.00
1561.144, 10739.00
1562.172, 10672.00
1563.199, 10698.00
1564.226, 10734.00
1565.252, 10794.00
1566.279, 10786.00
1567.305, 10830.00
1568.332, 10900.00
1569.358, 10795.00
1570.384, 10808.00
##END=



