##NAMES=Andradite
##RRUFFID=R060326
##IDEAL CHEMISTRY=Ca_3_Fe^3+^_2_(SiO_4_)_3_
##LOCALITY=Ultevis, Sweden
##OWNER=RRUFF
##SOURCE=Marcus Origlieri
##DESCRIPTION=Reddish-brown colored druse of crystals associated with white svabite R050180
##STATUS=The identification of this mineral has been confirmed by X-ray diffraction and chemical analysis
##URL=rruff.info/R060326
##MEASURED CHEMISTRY=(Ca_2.98_Mn_0.02_)_Σ=3_(Fe^3+^_1.75_Al_0.21_Ti_0.04_)_Σ=2_(Si_1.00_O_4_)_3_
##PIN_ID=M00248
##ORIENTATION=Laser parallel to (0 -1 -1). Fiducial mark perpendicular to laser is parallel to a [1 0 0]
99.64900, 8371.000
100.8830, 8266.000
102.1160, 8406.000
103.3490, 8448.000
104.5820, 8692.000
105.8150, 8619.000
107.0470, 8719.000
108.2800, 8788.000
109.5120, 8900.000
110.7440, 8890.000
111.9760, 8742.000
113.2080, 8775.000
114.4400, 8778.000
115.6710, 8946.000
116.9030, 8723.000
118.1340, 8891.000
119.3650, 8704.000
120.5960, 8805.000
121.8270, 8827.000
123.0580, 8886.000
124.2880, 8871.000
125.5190, 8922.109
126.7490, 8889.000
127.9790, 8953.000
129.2090, 9066.000
130.4390, 9004.000
131.6680, 8925.000
132.8980, 9007.000
134.1270, 9108.000
135.3560, 9003.000
136.5850, 9125.000
137.8140, 9400.000
139.0430, 9272.000
140.2710, 9461.000
141.5000, 9507.000
142.7280, 9329.000
143.9560, 9506.000
145.1840, 9220.000
146.4120, 9313.000
147.6390, 9419.000
148.8670, 9361.000
150.0940, 9373.000
151.3210, 9371.000
152.5490, 9336.000
153.7750, 9367.000
155.0020, 9510.000
156.2290, 9549.000
157.4550, 9583.000
158.6810, 9540.000
159.9080, 9691.000
161.1340, 9846.000
162.3590, 10029.00
163.5850, 10218.42
164.8110, 10375.00
166.0360, 10617.00
167.2610, 10813.00
168.4860, 10985.00
169.7110, 11309.00
170.9360, 11258.16
172.1610, 11364.00
173.3850, 11134.00
174.6100, 10903.00
175.8340, 10690.00
177.0580, 10334.00
178.2820, 10133.00
179.5050, 10021.00
180.7290, 9820.000
181.9520, 9777.000
183.1760, 9608.000
184.3990, 9713.000
185.6220, 9532.000
186.8450, 9582.000
188.0670, 9658.000
189.2900, 9661.000
190.5120, 9734.000
191.7340, 9743.000
192.9560, 9821.000
194.1780, 9893.000
195.4000, 9766.000
196.6220, 9752.000
197.8430, 9783.000
199.0640, 10024.00
200.2860, 9776.000
201.5070, 9958.000
202.7270, 9937.000
203.9480, 9757.000
205.1690, 9817.000
206.3890, 9641.000
207.6090, 9716.000
208.8290, 9828.000
210.0490, 9828.000
211.2690, 9875.000
212.4890, 9998.000
213.7080, 9993.000
214.9280, 10018.00
216.1470, 10112.00
217.3660, 10166.00
218.5850, 10192.00
219.8030, 10320.00
221.0220, 10353.00
222.2400, 10514.00
223.4590, 10920.00
224.6770, 11048.00
225.8950, 11470.00
227.1120, 11744.00
228.3300, 12175.00
229.5480, 12584.00
230.7650, 12999.00
231.9820, 13667.00
233.1990, 13922.00
234.4160, 13953.00
235.6330, 13720.00
236.8490, 13344.00
238.0660, 13003.00
239.2820, 12383.00
240.4980, 11890.00
241.7140, 11441.00
242.9300, 11065.00
244.1460, 10855.00
245.3610, 10580.00
246.5770, 10589.00
247.7920, 10485.00
249.0070, 10438.00
250.2220, 10370.00
251.4370, 10431.00
252.6510, 10340.00
253.8660, 10428.00
255.0800, 10448.00
256.2940, 10690.00
257.5080, 10677.00
258.7220, 10815.00
259.9360, 11136.00
261.1490, 11319.00
262.3630, 11282.00
263.5760, 11222.00
264.7890, 11212.00
266.0020, 11179.27
267.2150, 11235.00
268.4270, 11125.00
269.6400, 11253.00
270.8520, 11201.00
272.0640, 10790.00
273.2760, 10859.00
274.4880, 10903.00
275.7000, 10725.00
276.9120, 10776.00
278.1230, 10786.00
279.3340, 10736.00
280.5450, 10791.00
281.7560, 10728.00
282.9670, 10909.00
284.1780, 10942.00
285.3880, 10956.00
286.5980, 11044.07
287.8090, 11082.00
289.0190, 11144.00
290.2290, 11108.00
291.4380, 11200.00
292.6480, 11237.00
293.8570, 11268.00
295.0670, 11330.00
296.2760, 11369.00
297.4850, 11560.00
298.6930, 11767.00
299.9020, 11899.00
301.1110, 12038.00
302.3190, 12285.00
303.5270, 12438.00
304.7350, 12929.00
305.9430, 13437.00
307.1510, 13936.00
308.3580, 14221.00
309.5660, 14522.00
310.7730, 14615.00
311.9800, 14494.00
313.1870, 14288.00
314.3940, 13959.00
315.6010, 13725.00
316.8070, 13389.00
318.0130, 13269.00
319.2200, 13476.00
320.4260, 13150.00
321.6310, 13250.00
322.8370, 13399.00
324.0430, 13329.00
325.2480, 13229.00
326.4540, 12924.00
327.6590, 12731.00
328.8640, 12876.00
330.0680, 12708.00
331.2730, 12709.00
332.4780, 12565.00
333.6820, 12719.00
334.8860, 12844.00
336.0900, 12836.00
337.2940, 13158.00
338.4980, 13282.00
339.7010, 13606.00
340.9050, 13801.00
342.1080, 14249.00
343.3110, 14683.00
344.5140, 15225.00
345.7170, 15708.00
346.9200, 16475.00
348.1220, 17214.00
349.3240, 17546.00
350.5270, 18140.00
351.7290, 19060.00
352.9310, 19459.00
354.1320, 20322.00
355.3340, 21158.00
356.5350, 22728.00
357.7370, 24538.00
358.9380, 27226.00
360.1390, 30346.00
361.3400, 34145.00
362.5400, 38319.00
363.7410, 42535.00
364.9410, 46801.00
366.1410, 49696.00
367.3410, 51360.00
368.5410, 50787.00
369.7410, 49381.00
370.9400, 45941.00
372.1400, 41388.00
373.3390, 37007.00
374.5380, 32721.00
375.7370, 28670.00
376.9360, 25229.00
378.1350, 22578.00
379.3330, 20697.00
380.5310, 18862.00
381.7300, 17739.00
382.9280, 16776.00
384.1260, 15966.00
385.3230, 15436.00
386.5210, 14930.00
387.7180, 14341.00
388.9160, 13986.00
390.1130, 13647.23
391.3100, 13667.00
392.5060, 13172.00
393.7030, 13237.00
394.9000, 13071.00
396.0960, 13041.00
397.2920, 12915.00
398.4880, 12747.00
399.6840, 12738.00
400.8800, 12714.00
402.0750, 12700.00
403.2710, 12677.00
404.4660, 12593.00
405.6610, 12544.00
406.8560, 12530.00
408.0510, 12391.00
409.2450, 12436.00
410.4400, 12482.00
411.6340, 12505.00
412.8280, 12412.00
414.0220, 12496.00
415.2160, 12423.00
416.4100, 12399.00
417.6030, 12385.00
418.7970, 12480.00
419.9900, 12299.00
421.1830, 12488.00
422.3760, 12410.00
423.5690, 12374.00
424.7610, 12342.00
425.9540, 12309.00
427.1460, 12643.00
428.3380, 12491.00
429.5300, 12692.00
430.7220, 12613.00
431.9140, 12667.00
433.1050, 12558.00
434.2970, 12700.00
435.4880, 12687.00
436.6790, 12681.00
437.8700, 12821.00
439.0610, 12806.00
440.2510, 12741.00
441.4420, 12975.00
442.6320, 13096.00
443.8220, 12908.00
445.0120, 13067.00
446.2020, 13126.00
447.3910, 13416.00
448.5810, 13407.00
449.7700, 13485.00
450.9600, 13460.00
452.1490, 13568.00
453.3370, 13337.00
454.5260, 13474.00
455.7150, 13361.00
456.9030, 13115.00
458.0910, 13194.00
459.2800, 13103.00
460.4670, 12932.00
461.6550, 12837.00
462.8430, 12813.00
464.0300, 12778.03
465.2180, 12847.00
466.4050, 12849.00
467.5920, 12925.00
468.7790, 13013.00
469.9650, 13234.00
471.1520, 13174.00
472.3380, 13209.00
473.5250, 13409.00
474.7110, 13406.00
475.8970, 13537.00
477.0820, 13633.00
478.2680, 13655.00
479.4540, 13804.00
480.6390, 13961.00
481.8240, 14194.00
483.0090, 14358.00
484.1940, 14494.00
485.3780, 14758.00
486.5630, 14917.00
487.7470, 15310.00
488.9320, 15493.00
490.1160, 15714.00
491.3000, 15606.00
492.4830, 15699.00
493.6670, 15606.00
494.8500, 15561.00
496.0340, 15157.00
497.2170, 15421.00
498.4000, 15250.00
499.5820, 15107.00
500.7650, 15330.00
501.9480, 15326.00
503.1300, 15585.00
504.3120, 16021.00
505.4940, 16717.00
506.6760, 17328.00
507.8580, 18695.00
509.0390, 19642.00
510.2210, 21765.00
511.4020, 23495.00
512.5830, 25467.00
513.7640, 27135.00
514.9450, 28228.00
516.1250, 28519.17
517.3060, 28658.00
518.4860, 27538.00
519.6660, 26204.00
520.8460, 24361.00
522.0260, 22406.00
523.2060, 20699.00
524.3850, 19187.00
525.5650, 17966.00
526.7440, 17105.00
527.9230, 16614.00
529.1020, 15935.00
530.2810, 15755.00
531.4590, 15395.00
532.6380, 15096.00
533.8160, 14958.00
534.9940, 14943.00
536.1720, 14925.00
537.3500, 14905.00
538.5270, 14844.25
539.7050, 14796.53
540.8820, 14726.00
542.0590, 14700.00
543.2360, 14682.00
544.4130, 14718.00
545.5900, 14608.00
546.7660, 14832.00
547.9430, 14797.00
549.1190, 15130.00
550.2950, 15055.00
551.4710, 14975.00
552.6470, 15010.00
553.8220, 15055.00
554.9980, 14720.00
556.1730, 14733.00
557.3480, 14499.00
558.5230, 14520.00
559.6980, 14317.00
560.8730, 14193.00
562.0470, 14193.00
563.2220, 14042.00
564.3960, 13988.00
565.5700, 14270.00
566.7440, 14061.00
567.9170, 13895.00
569.0910, 14195.00
570.2640, 14039.00
571.4380, 14026.00
572.6110, 14032.00
573.7840, 14181.00
574.9570, 14115.00
576.1290, 14253.00
577.3020, 14366.00
578.4740, 14355.00
579.6460, 14399.29
580.8180, 14318.00
581.9900, 14363.00
583.1620, 14251.00
584.3330, 14227.00
585.5040, 14295.00
586.6760, 14227.00
587.8470, 14437.00
589.0180, 14362.00
590.1880, 14503.00
591.3590, 14356.00
592.5290, 14428.00
593.7000, 14388.00
594.8700, 14435.00
596.0400, 14413.00
597.2090, 14355.00
598.3790, 14480.00
599.5490, 14400.00
600.7180, 14490.00
601.8870, 14492.06
603.0560, 14606.00
604.2250, 14483.00
605.3940, 14467.00
606.5620, 14411.00
607.7300, 14211.00
608.8990, 14326.00
610.0670, 14384.00
611.2350, 14276.00
612.4020, 14432.00
613.5700, 14235.00
614.7370, 14164.00
615.9050, 14313.00
617.0720, 14107.00
618.2390, 14247.00
619.4060, 14245.00
620.5720, 14169.00
621.7390, 14377.00
622.9050, 14115.00
624.0710, 14301.00
625.2370, 14362.00
626.4030, 14273.00
627.5690, 14343.00
628.7340, 14397.00
629.9000, 14472.00
631.0650, 14532.00
632.2300, 14458.00
633.3950, 14597.00
634.5600, 14287.00
635.7240, 14408.00
636.8890, 14468.00
638.0530, 14464.00
639.2170, 14661.00
640.3810, 14483.00
641.5450, 14484.00
642.7080, 14649.00
643.8720, 14557.00
645.0350, 14520.00
646.1980, 14444.00
647.3610, 14528.00
648.5240, 14385.00
649.6870, 14478.00
650.8490, 14564.00
652.0120, 14483.00
653.1740, 14464.00
654.3360, 14573.00
655.4980, 14609.00
656.6600, 14532.00
657.8210, 14520.00
658.9830, 14487.00
660.1440, 14715.00
661.3050, 14432.00
662.4660, 14521.00
663.6270, 14658.00
664.7870, 14555.00
665.9480, 14512.00
667.1080, 14412.00
668.2680, 14620.00
669.4280, 14678.00
670.5880, 14775.00
671.7480, 14666.00
672.9070, 14737.00
674.0670, 14746.00
675.2260, 14707.11
676.3850, 14706.00
677.5440, 14698.00
678.7030, 14655.00
679.8610, 14696.00
681.0200, 14678.00
682.1780, 14850.00
683.3360, 14791.00
684.4940, 14813.00
685.6520, 14876.00
686.8090, 14706.00
687.9670, 14685.00
689.1240, 14712.00
690.2810, 14907.00
691.4380, 14753.00
692.5950, 14897.00
693.7520, 14805.00
694.9080, 14870.00
696.0650, 14933.00
697.2210, 14891.00
698.3770, 14926.00
699.5330, 14951.00
700.6880, 14818.00
701.8440, 15090.00
702.9990, 14936.00
704.1550, 14909.00
705.3100, 15077.00
706.4650, 14962.00
707.6190, 15171.00
708.7740, 14976.00
709.9290, 15285.00
711.0830, 15306.00
712.2370, 15232.00
713.3910, 15292.00
714.5450, 15172.00
715.6980, 15202.00
716.8520, 15336.00
718.0050, 15296.00
719.1580, 15215.00
720.3110, 15412.00
721.4640, 15259.00
722.6170, 15346.00
723.7700, 15471.00
724.9220, 15640.00
726.0740, 15588.00
727.2260, 15423.00
728.3780, 15480.00
729.5300, 15652.00
730.6810, 15456.00
731.8330, 15618.00
732.9840, 15549.00
734.1350, 15625.00
735.2860, 15755.00
736.4370, 15610.00
737.5880, 15730.00
738.7380, 15802.00
739.8880, 15735.00
741.0390, 15745.00
742.1890, 15816.00
743.3380, 15752.00
744.4880, 15842.00
745.6380, 15690.00
746.7870, 15810.00
747.9360, 15838.00
749.0850, 16079.00
750.2340, 15873.00
751.3830, 16083.00
752.5310, 15988.00
753.6800, 16101.00
754.8280, 16037.00
755.9760, 15972.00
757.1240, 16089.00
758.2720, 15968.00
759.4190, 15759.00
760.5670, 16115.00
761.7140, 16101.00
762.8610, 16115.00
764.0080, 16310.00
765.1550, 16140.00
766.3020, 16145.00
767.4480, 16088.00
768.5950, 16061.00
769.7410, 16231.00
770.8870, 16216.00
772.0330, 16210.00
773.1780, 16250.00
774.3240, 16205.00
775.4690, 16333.00
776.6140, 16336.00
777.7590, 16475.00
778.9040, 16484.00
780.0490, 16364.00
781.1940, 16495.00
782.3380, 16419.00
783.4820, 16453.72
784.6260, 16661.00
785.7700, 16597.00
786.9140, 16726.00
788.0580, 16986.00
789.2010, 16915.00
790.3450, 16953.00
791.4880, 17055.00
792.6310, 17192.00
793.7730, 17274.00
794.9160, 17443.00
796.0590, 17585.00
797.2010, 17865.00
798.3430, 18035.37
799.4850, 18141.00
800.6270, 18539.00
801.7690, 18897.00
802.9100, 19314.00
804.0520, 19854.00
805.1930, 20120.00
806.3340, 20968.00
807.4750, 21612.00
808.6160, 22496.00
809.7560, 23063.00
810.8970, 23846.00
812.0370, 24345.00
813.1770, 24958.00
814.3170, 25222.00
815.4570, 25217.00
816.5960, 25213.00
817.7360, 24574.00
818.8750, 24111.00
820.0140, 23349.00
821.1530, 22775.00
822.2920, 22303.00
823.4310, 21643.00
824.5690, 21238.00
825.7070, 21011.00
826.8460, 20783.68
827.9840, 20840.00
829.1220, 20815.00
830.2590, 21072.00
831.3970, 21412.00
832.5340, 21472.00
833.6710, 22020.00
834.8080, 22385.00
835.9450, 23045.00
837.0820, 23650.00
838.2190, 24124.00
839.3550, 24621.00
840.4910, 24561.00
841.6270, 24619.00
842.7630, 24396.00
843.8990, 24018.00
845.0350, 23579.00
846.1700, 23078.00
847.3060, 22654.34
848.4410, 22016.00
849.5760, 21744.00
850.7100, 21304.00
851.8450, 20893.00
852.9800, 20645.00
854.1140, 20396.00
855.2480, 20167.00
856.3820, 20300.00
857.5160, 20330.00
858.6500, 20266.00
859.7830, 20409.00
860.9170, 20478.00
862.0500, 20791.00
863.1830, 21058.00
864.3160, 21157.00
865.4480, 21965.00
866.5810, 22305.00
867.7130, 23120.00
868.8460, 23826.00
869.9780, 24732.00
871.1100, 25281.00
872.2410, 25436.00
873.3730, 25505.00
874.5050, 25484.00
875.6360, 24895.00
876.7670, 24213.00
877.8980, 23358.00
879.0290, 22531.00
880.1590, 21716.00
881.2900, 20873.00
882.4200, 20427.00
883.5500, 19695.00
884.6800, 19540.00
885.8100, 19085.00
886.9400, 18791.00
888.0690, 18565.00
889.1990, 18393.00
890.3280, 18262.00
891.4570, 18165.00
892.5860, 18142.00
893.7140, 18054.79
894.8430, 17841.00
895.9710, 17957.00
897.1000, 17803.00
898.2280, 17738.00
899.3560, 17830.00
900.4830, 17736.00
901.6110, 17784.00
902.7380, 17641.00
903.8660, 17550.00
904.9930, 17584.00
906.1200, 17777.00
907.2460, 17601.00
908.3730, 17739.00
909.5000, 17604.00
910.6260, 17540.00
911.7520, 17684.00
912.8780, 17828.00
914.0040, 17796.00
915.1290, 17612.00
916.2550, 17761.00
917.3800, 17725.00
918.5050, 17718.00
919.6300, 17784.00
920.7550, 17777.00
921.8800, 17687.00
923.0040, 17974.00
924.1290, 17754.00
925.2530, 17960.00
926.3770, 17871.00
927.5010, 18000.00
928.6250, 18007.00
929.7480, 17874.00
930.8720, 18106.00
931.9950, 17987.00
933.1180, 17996.00
934.2410, 17966.00
935.3640, 18139.00
936.4860, 18062.00
937.6090, 17971.00
938.7310, 17866.00
939.8530, 18112.00
940.9750, 17983.00
942.0970, 17979.00
943.2180, 17736.00
944.3400, 17886.00
945.4610, 17844.00
946.5820, 17970.00
947.7030, 18073.00
948.8240, 18124.00
949.9450, 18034.00
951.0650, 18281.00
952.1860, 18094.00
953.3060, 18260.00
954.4260, 18383.00
955.5460, 18203.00
956.6650, 18101.00
957.7850, 18325.00
958.9040, 18283.00
960.0230, 18399.00
961.1420, 18498.00
962.2610, 18445.00
963.3800, 18502.00
964.4990, 18541.00
965.6170, 18668.00
966.7350, 18653.00
967.8530, 18749.00
968.9710, 18512.00
970.0890, 18759.00
971.2070, 18582.00
972.3240, 18735.00
973.4410, 18865.00
974.5580, 18750.00
975.6750, 18733.00
976.7920, 18793.00
977.9090, 18880.00
979.0250, 18769.00
980.1410, 18957.00
981.2580, 18999.00
982.3740, 18984.00
983.4890, 18999.00
984.6050, 19169.00
985.7200, 19205.00
986.8360, 19269.00
987.9510, 19441.00
989.0660, 19631.54
990.1810, 19880.00
991.2950, 20153.00
992.4100, 20485.00
993.5240, 20773.00
994.6390, 20664.00
995.7530, 20626.00
996.8660, 20317.00
997.9800, 20114.00
999.0940, 19841.00
1000.207, 19535.00
1001.320, 19321.00
1002.433, 19260.00
1003.546, 18973.00
1004.659, 18883.00
1005.772, 18767.00
1006.884, 18873.00
1007.996, 18789.00
1009.108, 18779.00
1010.220, 18756.00
1011.332, 18649.00
1012.444, 18766.00
1013.555, 18850.00
1014.666, 18631.00
1015.777, 18603.00
1016.888, 18646.00
1017.999, 18734.00
1019.110, 18621.00
1020.220, 18689.00
1021.331, 18611.00
1022.441, 18647.00
1023.551, 18598.00
1024.661, 18586.00
1025.770, 18598.00
1026.880, 18558.00
1027.989, 18576.76
1029.098, 18656.00
1030.207, 18622.00
1031.316, 18659.00
1032.425, 18745.00
1033.533, 18655.00
1034.642, 18675.00
1035.750, 18786.00
1036.858, 18690.00
1037.966, 18640.00
1039.073, 18690.00
1040.181, 18612.00
1041.288, 18685.00
1042.396, 18650.00
1043.503, 18792.00
1044.610, 18728.00
1045.716, 18794.00
1046.823, 18997.00
1047.929, 18781.00
1049.036, 18852.00
1050.142, 18797.00
1051.248, 18869.00
1052.353, 18860.67
1053.459, 18932.00
1054.564, 18864.00
1055.670, 18905.00
1056.775, 18906.00
1057.880, 18925.70
1058.985, 19104.00
1060.089, 18957.00
1061.194, 19012.00
1062.298, 18931.00
1063.402, 19049.00
1064.506, 18930.00
1065.610, 19119.00
1066.713, 19152.00
1067.817, 19159.00
1068.920, 19141.00
1070.023, 19141.00
1071.126, 19223.00
1072.229, 19221.00
1073.332, 19245.00
1074.435, 19261.80
1075.537, 19222.00
1076.639, 19242.00
1077.741, 19347.00
1078.843, 19300.00
1079.945, 19385.00
1081.046, 19387.00
1082.148, 19322.00
1083.249, 19603.00
1084.350, 19561.00
1085.451, 19595.00
1086.551, 19548.00
1087.652, 19692.00
1088.752, 19491.00
1089.853, 19609.00
1090.953, 19479.00
1092.053, 19512.00
1093.152, 19664.00
1094.252, 19575.00
1095.351, 19572.00
1096.451, 19708.00
1097.550, 19670.00
1098.649, 19578.00
1099.748, 19572.00
1100.846, 19707.00
1101.945, 19871.00
1103.043, 19800.00
1104.141, 19723.00
1105.239, 19841.00
1106.337, 19647.00
1107.434, 19821.00
1108.532, 19732.00
1109.629, 19783.00
1110.726, 19982.00
1111.823, 19732.00
1112.920, 19894.00
1114.017, 19847.00
1115.113, 19739.00
1116.210, 19731.00
1117.306, 19822.00
1118.402, 19965.00
1119.498, 19950.00
1120.593, 20098.00
1121.689, 19935.00
1122.784, 19940.00
1123.879, 20156.00
1124.974, 20099.00
1126.069, 19929.00
1127.164, 20085.00
1128.259, 20166.00
1129.353, 20369.00
1130.447, 20261.00
1131.541, 20063.00
1132.635, 19873.00
1133.729, 20030.00
1134.822, 20094.00
1135.916, 20014.00
1137.009, 20047.00
1138.102, 20183.00
1139.195, 20139.00
1140.288, 20093.00
1141.380, 20146.00
1142.473, 20107.00
1143.565, 20106.00
1144.657, 19963.00
1145.749, 20014.00
1146.841, 20088.00
1147.932, 20042.00
1149.024, 20265.00
1150.115, 20196.00
1151.206, 20074.00
1152.297, 20265.00
1153.388, 20164.00
1154.479, 20134.00
1155.569, 20227.00
1156.659, 20267.00
1157.750, 20310.00
1158.839, 20338.00
1159.929, 20360.00
1161.019, 20374.10
1162.108, 20362.49
1163.198, 20419.00
1164.287, 20334.00
1165.376, 20423.00
1166.465, 20446.00
1167.553, 20453.00
1168.642, 20646.00
1169.730, 20433.00
1170.818, 20455.00
1171.906, 20541.00
1172.994, 20611.00
1174.082, 20627.92
1175.170, 20704.94
1176.257, 20654.00
1177.344, 20763.00
1178.431, 20738.00
1179.518, 20658.00
1180.605, 20785.00
1181.691, 20707.00
1182.778, 20517.00
1183.864, 20741.00
1184.950, 20565.00
1186.036, 20795.00
1187.122, 20740.00
1188.207, 20749.00
1189.292, 20750.00
1190.378, 20768.00
1191.463, 20906.00
1192.548, 21007.00
1193.632, 20819.00
1194.717, 20920.00
1195.801, 20870.00
1196.886, 20709.00
1197.970, 20891.00
1199.054, 20826.00
1200.137, 20866.00
1201.221, 20778.00
1202.305, 20774.00
1203.388, 20843.00
1204.471, 20868.00
1205.554, 21069.00
1206.637, 21034.00
1207.719, 21107.00
1208.802, 21018.00
1209.884, 20970.00
1210.966, 20807.00
1212.048, 21004.00
1213.130, 20848.00
1214.212, 20962.00
1215.293, 21118.00
1216.374, 21015.00
1217.456, 20981.00
1218.536, 21085.00
1219.617, 20977.00
1220.698, 21097.00
1221.778, 21070.00
1222.859, 20864.00
1223.939, 20931.00
1225.019, 20931.00
1226.099, 21170.00
1227.178, 21010.00
1228.258, 21096.00
1229.337, 21079.00
1230.417, 21072.00
1231.496, 21151.00
1232.574, 21174.00
1233.653, 21097.00
1234.732, 21071.00
1235.810, 21229.00
1236.888, 21170.00
1237.966, 21271.00
1239.044, 21247.00
1240.122, 21309.00
1241.199, 21210.00
1242.277, 21248.00
1243.354, 21301.00
1244.431, 21144.00
1245.508, 21344.00
1246.585, 21282.00
1247.661, 21335.00
1248.738, 21421.00
1249.814, 21327.00
1250.890, 21242.00
1251.966, 21274.00
1253.042, 21377.00
1254.117, 21464.00
1255.193, 21312.00
1256.268, 21260.00
1257.343, 21601.00
1258.418, 21401.00
1259.493, 21376.00
1260.567, 21583.00
1261.642, 21503.00
1262.716, 21425.00
1263.790, 21697.00
1264.864, 21590.00
1265.938, 21654.00
1267.011, 21808.00
1268.085, 21664.00
1269.158, 21653.00
1270.231, 21652.00
1271.304, 21666.00
1272.377, 21759.00
1273.450, 21672.00
1274.522, 21624.00
1275.594, 21742.00
1276.666, 21722.00
1277.738, 21877.00
1278.810, 21660.00
1279.882, 21788.00
1280.953, 21879.00
1282.025, 21803.00
1283.096, 21915.00
1284.167, 21906.00
1285.238, 21912.00
1286.308, 21948.51
1287.379, 21884.00
1288.449, 21929.00
1289.519, 22039.00
1290.589, 21964.00
1291.659, 21945.00
1292.729, 22009.00
1293.798, 22090.00
1294.868, 22067.00
1295.937, 22207.00
1297.006, 22092.00
1298.075, 22147.00
1299.143, 22130.00
1300.212, 22091.00
1301.280, 22257.00
1302.348, 22347.00
1303.416, 22350.00
1304.484, 22026.00
1305.552, 22162.00
1306.620, 22225.00
1307.687, 22018.00
1308.754, 22386.00
1309.821, 22205.00
1310.888, 22371.00
1311.955, 22358.00
1313.021, 22201.00
1314.088, 22403.00
1315.154, 22365.00
1316.220, 22404.00
1317.286, 22439.00
1318.352, 22288.00
1319.417, 22443.00
1320.483, 22324.00
1321.548, 22309.00
1322.613, 22654.00
1323.678, 22517.00
1324.743, 22568.00
1325.807, 22562.00
1326.872, 22548.00
1327.936, 22635.00
1329.000, 22573.00
1330.064, 22545.00
1331.128, 22485.00
1332.191, 22633.00
1333.255, 22545.00
1334.318, 22606.00
1335.381, 22687.00
1336.444, 22634.00
1337.507, 22605.00
1338.569, 22725.00
1339.632, 22662.00
1340.694, 22683.00
1341.756, 22690.86
1342.818, 22676.00
1343.880, 22694.00
1344.941, 22701.00
1346.003, 22767.00
1347.064, 22797.00
1348.125, 22825.00
1349.186, 22827.00
1350.247, 22782.00
1351.308, 22791.00
1352.368, 22932.00
1353.428, 22869.00
1354.489, 22900.14
1355.549, 23109.00
1356.608, 22899.00
1357.668, 22909.00
1358.727, 22969.00
1359.787, 22889.49
1360.846, 22880.00
1361.905, 22945.00
1362.964, 22978.00
1364.022, 23123.00
1365.081, 23254.00
1366.139, 23110.00
1367.197, 23168.00
1368.255, 23346.00
1369.313, 23232.00
1370.371, 23046.00
1371.428, 23125.00
1372.486, 23004.00
1373.543, 23077.00
1374.600, 23114.00
1375.657, 23197.00
1376.713, 23279.00
1377.770, 23423.00
1378.826, 23276.00
1379.882, 23397.00
1380.938, 23274.00
1381.994, 23374.00
1383.050, 23430.00
1384.106, 23434.00
1385.161, 23337.00
1386.216, 23395.00
1387.271, 23262.00
1388.326, 23352.00
1389.381, 23273.00
1390.435, 23439.00
1391.490, 23522.00
1392.544, 23581.00
1393.598, 23559.00
1394.652, 23601.00
1395.705, 23507.00
1396.759, 23490.07
1397.812, 23291.00
1398.866, 23373.00
1399.919, 23458.00
1400.972, 23389.00
1402.024, 23545.00
1403.077, 23431.00
1404.129, 23538.00
1405.181, 23795.00
1406.233, 23489.00
1407.285, 23781.00
1408.337, 23702.00
1409.389, 23617.00
1410.440, 23800.00
1411.491, 23606.00
1412.542, 23609.00
1413.593, 23619.00
1414.644, 23915.00
1415.695, 23718.00
1416.745, 23885.00
1417.795, 23695.00
1418.845, 23672.00
1419.895, 23931.00
1420.945, 23885.00
1421.995, 23749.00
1423.044, 23870.00
1424.093, 23761.00
1425.142, 23750.00
1426.191, 23858.00
1427.240, 23769.00
1428.289, 23937.00
1429.337, 23839.00
1430.385, 23829.00
1431.433, 23971.00
1432.481, 23993.00
1433.529, 23989.00
1434.577, 23896.00
1435.624, 24119.00
1436.672, 24084.00
1437.719, 23937.00
1438.766, 24178.00
1439.812, 24105.00
1440.859, 24110.00
1441.905, 24306.00
1442.952, 24376.00
1443.998, 24248.00
1445.044, 24377.00
1446.090, 24284.00
1447.135, 24397.00
1448.181, 24270.00
1449.226, 24419.00
1450.271, 24257.00
1451.316, 24291.00
1452.361, 24239.00
1453.405, 24259.00
1454.450, 24326.00
1455.494, 24479.00
1456.538, 24576.00
1457.582, 24361.00
1458.626, 24467.00
1459.670, 24416.00
1460.713, 24316.00
1461.757, 24428.00
1462.800, 24560.00
1463.843, 24416.00
1464.886, 24517.00
1465.928, 24619.00
1466.971, 24565.00
1468.013, 24521.00
1469.055, 24526.00
1470.097, 24586.00
1471.139, 24566.00
1472.181, 24557.18
1473.222, 24696.00
1474.263, 24462.00
1475.305, 24541.00
1476.346, 24422.00
1477.386, 24635.00
1478.427, 24466.00
1479.468, 24591.00
1480.508, 24607.00
1481.548, 24608.00
1482.588, 24624.00
1483.628, 24767.00
1484.668, 24791.00
1485.707, 24734.00
1486.747, 24636.00
1487.786, 24773.00
1488.825, 24712.73
1489.864, 24781.00
1490.902, 24756.00
1491.941, 24774.00
1492.979, 24812.00
1494.017, 24913.00
1495.055, 24937.00
1496.093, 24969.94
1497.131, 24883.00
1498.168, 25023.00
1499.206, 24945.00
1500.243, 25005.00
1501.280, 24852.00
1502.317, 24937.00
1503.354, 24928.00
1504.390, 24916.00
1505.426, 24864.00
1506.463, 24998.00
1507.499, 24717.00
1508.535, 25173.00
1509.570, 25057.00
1510.606, 24974.00
1511.641, 25237.00
1512.676, 25007.00
1513.711, 25076.00
1514.746, 24968.00
1515.781, 25223.00
1516.816, 25054.00
1517.850, 25233.00
1518.884, 25037.00
1519.918, 25251.00
1520.952, 25321.00
1521.986, 25182.00
1523.019, 25240.00
1524.053, 25277.00
1525.086, 25198.00
1526.119, 25233.00
1527.152, 25452.00
1528.185, 25122.00
1529.217, 25366.00
1530.250, 25474.00
1531.282, 25405.00
1532.314, 25327.00
1533.346, 25323.00
1534.377, 25417.00
1535.409, 25381.00
1536.440, 25413.00
1537.472, 25508.00
1538.503, 25531.00
1539.534, 25832.00
1540.564, 25843.00
1541.595, 25515.00
1542.625, 25675.00
1543.656, 25382.00
1544.686, 25542.00
1545.716, 25651.00
1546.745, 25583.00
1547.775, 25498.00
1548.804, 25582.00
1549.834, 25540.00
1550.863, 25615.00
1551.892, 25761.00
1552.920, 25949.00
1553.949, 25795.00
1554.977, 25698.00
1556.006, 25531.00
1557.034, 25530.67
1558.062, 25641.00
1559.089, 25573.00
1560.117, 25645.00
1561.144, 25741.00
1562.172, 25700.00
1563.199, 25841.00
1564.226, 25849.00
1565.252, 26100.00
1566.279, 26018.00
1567.305, 26049.00
1568.332, 25775.00
1569.358, 26056.00
1570.384, 25817.00
##END=



