##NAMES=Andradite
##RRUFFID=R060350
##IDEAL CHEMISTRY=Ca_3_Fe^3+^_2_(SiO_4_)_3_
##LOCALITY=south of the Gem mine, southern San Benito County, California, USA
##OWNER=RRUFF
##SOURCE=Michael Scott
##DESCRIPTION=Cluster of black vitreous crystals showing well-developed faces
##STATUS=The identification of this mineral has been confirmed by X-ray diffraction and chemical analysis
##URL=rruff.info/R060350
##MEASURED CHEMISTRY=(Ca_2.93_Mg_0.07_)_Σ=3_(Fe^3+^_1.18_Ti_0.77_Al_0.05_)_Σ=2_((Si_0.74_Fe^3+^_0.26_)_Σ=1_O_4_)_3_ ; trace amounts of Mn
##PIN_ID=M00067
##ORIENTATION=Laser parallel to a* (1 0 0). Fiducial mark perpendicular to laser is parallel to c [0 0 1]
114.4400, 13761.00
115.6710, 14421.00
116.9030, 15002.00
118.1340, 14855.00
119.3650, 14733.00
120.5960, 14750.00
121.8270, 14903.00
123.0580, 15623.00
124.2880, 16364.00
125.5190, 16406.00
126.7490, 16592.00
127.9790, 17161.00
129.2090, 18151.00
130.4390, 19166.00
131.6680, 20169.00
132.8980, 21176.00
134.1270, 22485.00
135.3560, 24504.00
136.5850, 27207.86
137.8140, 29956.00
139.0430, 34333.00
140.2710, 39086.00
141.5000, 44141.00
142.7280, 48049.00
143.9560, 50670.00
145.1840, 50232.00
146.4120, 46898.00
147.6390, 42106.00
148.8670, 37042.00
150.0940, 32178.00
151.3210, 28660.00
152.5490, 26137.00
153.7750, 24038.00
155.0020, 22289.00
156.2290, 21168.00
157.4550, 20234.00
158.6810, 19415.00
159.9080, 19059.00
161.1340, 19012.00
162.3590, 19018.00
163.5850, 19682.00
164.8110, 19976.00
166.0360, 20268.00
167.2610, 20511.00
168.4860, 20057.00
169.7110, 19702.00
170.9360, 19693.00
172.1610, 19168.00
173.3850, 18800.00
174.6100, 18392.00
175.8340, 18256.00
177.0580, 17989.00
178.2820, 17870.00
179.5050, 17981.00
180.7290, 17838.00
181.9520, 17730.00
183.1760, 17879.00
184.3990, 17661.00
185.6220, 17758.00
186.8450, 18208.00
188.0670, 18213.00
189.2900, 18526.00
190.5120, 18906.00
191.7340, 19303.00
192.9560, 19389.00
194.1780, 19774.00
195.4000, 19883.00
196.6220, 20052.00
197.8430, 19957.00
199.0640, 19637.00
200.2860, 19394.00
201.5070, 19599.00
202.7270, 19888.00
203.9480, 19328.00
205.1690, 18259.00
206.3890, 16944.00
207.6090, 16469.00
208.8290, 16192.00
210.0490, 16365.00
211.2690, 16324.00
212.4890, 16907.00
213.7080, 16955.00
214.9280, 17119.00
216.1470, 17159.00
217.3660, 17333.00
218.5850, 17434.00
219.8030, 17513.00
221.0220, 17689.00
222.2400, 17818.00
223.4590, 17803.00
224.6770, 17963.00
225.8950, 17997.00
227.1120, 17939.00
228.3300, 18062.00
229.5480, 17978.00
230.7650, 17910.00
231.9820, 17973.00
233.1990, 17823.00
234.4160, 17906.00
235.6330, 17729.00
236.8490, 17538.00
238.0660, 17627.00
239.2820, 17647.00
240.4980, 17509.00
241.7140, 17478.00
242.9300, 17492.00
244.1460, 17443.00
245.3610, 17658.00
246.5770, 17426.00
247.7920, 17740.00
249.0070, 17512.00
250.2220, 17755.00
251.4370, 17713.00
252.6510, 17660.00
253.8660, 17735.00
255.0800, 17986.00
256.2940, 18043.00
257.5080, 18057.00
258.7220, 18305.00
259.9360, 19160.00
261.1490, 19701.00
262.3630, 18764.00
263.5760, 18379.00
264.7890, 18241.00
266.0020, 17765.00
267.2150, 17941.00
268.4270, 18016.00
269.6400, 17782.00
270.8520, 17628.00
272.0640, 17416.00
273.2760, 17579.00
274.4880, 17679.00
275.7000, 17412.00
276.9120, 17538.00
278.1230, 17555.00
279.3340, 17639.00
280.5450, 17647.00
281.7560, 17801.00
282.9670, 17837.97
284.1780, 17999.00
285.3880, 17950.00
286.5980, 17961.00
287.8090, 17955.00
289.0190, 18203.00
290.2290, 18524.00
291.4380, 18522.00
292.6480, 18783.00
293.8570, 18927.00
295.0670, 19100.00
296.2760, 19473.00
297.4850, 19810.00
298.6930, 20213.00
299.9020, 20413.00
301.1110, 20885.00
302.3190, 21331.00
303.5270, 21681.00
304.7350, 22260.00
305.9430, 22595.00
307.1510, 23186.00
308.3580, 23588.43
309.5660, 23873.00
310.7730, 24441.00
311.9800, 24753.00
313.1870, 25178.00
314.3940, 24936.00
315.6010, 25357.00
316.8070, 25750.00
318.0130, 25542.00
319.2200, 25801.00
320.4260, 26141.00
321.6310, 26146.00
322.8370, 26626.00
324.0430, 26708.00
325.2480, 27056.00
326.4540, 27415.00
327.6590, 28136.00
328.8640, 28539.00
330.0680, 28976.00
331.2730, 29707.00
332.4780, 30031.00
333.6820, 30713.00
334.8860, 31538.00
336.0900, 32036.00
337.2940, 32638.69
338.4980, 33085.00
339.7010, 33618.00
340.9050, 34189.00
342.1080, 34635.00
343.3110, 35250.00
344.5140, 35972.00
345.7170, 36630.00
346.9200, 37856.00
348.1220, 38528.00
349.3240, 39665.00
350.5270, 40614.00
351.7290, 41286.00
352.9310, 41863.00
354.1320, 42480.00
355.3340, 42784.00
356.5350, 42947.00
357.7370, 42944.00
358.9380, 42594.00
360.1390, 42068.00
361.3400, 41431.00
362.5400, 40363.00
363.7410, 39746.00
364.9410, 38507.00
366.1410, 37659.00
367.3410, 36620.00
368.5410, 35777.00
369.7410, 34520.00
370.9400, 33473.00
372.1400, 32563.00
373.3390, 31584.00
374.5380, 30722.00
375.7370, 29900.00
376.9360, 28979.00
378.1350, 28333.00
379.3330, 27456.00
380.5310, 26681.00
381.7300, 25976.00
382.9280, 25452.00
384.1260, 24926.00
385.3230, 24411.00
386.5210, 23946.00
387.7180, 23278.00
388.9160, 23099.00
390.1130, 22490.00
391.3100, 22006.00
392.5060, 21868.00
393.7030, 21323.00
394.9000, 21039.00
396.0960, 20995.00
397.2920, 20691.00
398.4880, 20242.00
399.6840, 19884.00
400.8800, 19637.00
402.0750, 19350.00
403.2710, 18898.00
404.4660, 18882.00
405.6610, 18692.00
406.8560, 18360.00
408.0510, 18373.00
409.2450, 18252.00
410.4400, 17956.00
411.6340, 17821.00
412.8280, 17923.00
414.0220, 17731.00
415.2160, 17930.00
416.4100, 17535.00
417.6030, 17533.00
418.7970, 17362.00
419.9900, 17420.00
421.1830, 17525.00
422.3760, 17313.00
423.5690, 17515.00
424.7610, 17394.00
425.9540, 17517.00
427.1460, 17648.00
428.3380, 17789.00
429.5300, 17893.00
430.7220, 18091.73
431.9140, 18203.00
433.1050, 18313.56
434.2970, 18489.00
435.4880, 18492.00
436.6790, 18591.00
437.8700, 18640.00
439.0610, 18619.00
440.2510, 18571.00
441.4420, 18344.00
442.6320, 18161.00
443.8220, 17986.00
445.0120, 17699.00
446.2020, 17471.00
447.3910, 17179.00
448.5810, 16877.00
449.7700, 16604.00
450.9600, 16311.00
452.1490, 16288.00
453.3370, 16013.00
454.5260, 15937.00
455.7150, 15742.00
456.9030, 15830.00
458.0910, 15609.00
459.2800, 15744.00
460.4670, 15797.00
461.6550, 15781.00
462.8430, 15836.00
464.0300, 15950.00
465.2180, 16008.00
466.4050, 16138.00
467.5920, 16403.00
468.7790, 16335.00
469.9650, 16539.00
471.1520, 16696.00
472.3380, 17025.00
473.5250, 17120.00
474.7110, 17305.00
475.8970, 17403.00
477.0820, 17566.00
478.2680, 17879.00
479.4540, 18091.00
480.6390, 18352.00
481.8240, 18593.90
483.0090, 18802.66
484.1940, 18995.00
485.3780, 19181.00
486.5630, 19251.00
487.7470, 19333.00
488.9320, 19359.00
490.1160, 19433.00
491.3000, 19764.00
492.4830, 19656.00
493.6670, 19802.00
494.8500, 20181.00
496.0340, 20589.00
497.2170, 21137.00
498.4000, 21501.00
499.5820, 22606.00
500.7650, 23366.00
501.9480, 24462.00
503.1300, 25263.00
504.3120, 26028.00
505.4940, 26983.00
506.6760, 27408.00
507.8580, 27972.00
509.0390, 28005.00
510.2210, 27683.00
511.4020, 27675.00
512.5830, 27126.00
513.7640, 27025.00
514.9450, 26644.00
516.1250, 25939.00
517.3060, 25473.00
518.4860, 25197.00
519.6660, 24603.00
520.8460, 24256.00
522.0260, 23796.00
523.2060, 23423.06
524.3850, 23088.00
525.5650, 22757.00
526.7440, 22630.00
527.9230, 22326.00
529.1020, 21951.00
530.2810, 21993.00
531.4590, 21647.00
532.6380, 21212.00
533.8160, 21366.00
534.9940, 21129.00
536.1720, 21115.00
537.3500, 20723.00
538.5270, 21949.00
539.7050, 20696.00
540.8820, 20750.00
542.0590, 22216.00
543.2360, 20624.00
544.4130, 20216.00
545.5900, 19851.00
546.7660, 19813.00
547.9430, 19819.00
549.1190, 19439.00
550.2950, 19053.00
551.4710, 18824.00
552.6470, 18348.00
553.8220, 18001.00
554.9980, 17684.00
556.1730, 17085.00
557.3480, 16626.00
558.5230, 16023.00
559.6980, 15736.00
560.8730, 15160.00
562.0470, 14874.00
563.2220, 14588.00
564.3960, 14360.00
565.5700, 14150.00
566.7440, 14022.11
567.9170, 13922.00
569.0910, 13903.00
570.2640, 13998.00
571.4380, 14081.00
572.6110, 14137.00
573.7840, 14181.00
574.9570, 14317.00
576.1290, 14503.00
577.3020, 14591.00
578.4740, 14632.00
579.6460, 14763.00
580.8180, 14530.00
581.9900, 14575.00
583.1620, 14612.00
584.3330, 14642.00
585.5040, 14545.00
586.6760, 14680.00
587.8470, 14492.00
589.0180, 14464.00
590.1880, 14545.00
591.3590, 14475.00
592.5290, 14285.00
593.7000, 14267.00
594.8700, 14148.00
596.0400, 14106.00
597.2090, 14031.00
598.3790, 14052.00
599.5490, 13844.00
600.7180, 13825.00
601.8870, 13702.00
603.0560, 13703.00
604.2250, 13646.00
605.3940, 13474.00
606.5620, 13416.00
607.7300, 13446.00
608.8990, 13254.00
610.0670, 13216.00
611.2350, 13285.00
612.4020, 13128.00
613.5700, 13208.00
614.7370, 13322.00
615.9050, 13252.27
617.0720, 13282.00
618.2390, 13260.00
619.4060, 13251.00
620.5720, 13258.00
621.7390, 13428.00
622.9050, 13592.00
624.0710, 13562.00
625.2370, 13863.00
626.4030, 14079.00
627.5690, 14303.00
628.7340, 14379.00
629.9000, 14481.00
631.0650, 14753.00
632.2300, 15010.00
633.3950, 15250.00
634.5600, 15259.00
635.7240, 15601.00
636.8890, 15357.00
638.0530, 15410.00
639.2170, 15333.00
640.3810, 15016.00
641.5450, 15013.00
642.7080, 14670.00
643.8720, 14517.00
645.0350, 14327.00
646.1980, 14262.00
647.3610, 14006.00
648.5240, 13806.00
649.6870, 13715.00
650.8490, 13449.00
652.0120, 13403.00
653.1740, 13272.75
654.3360, 13165.44
655.4980, 13090.00
656.6600, 12992.00
657.8210, 12894.00
658.9830, 12808.52
660.1440, 12719.00
661.3050, 12648.00
662.4660, 12575.00
663.6270, 12544.00
664.7870, 12372.00
665.9480, 12357.00
667.1080, 12397.00
668.2680, 12336.00
669.4280, 12118.00
670.5880, 12202.00
671.7480, 12134.00
672.9070, 12205.00
674.0670, 12305.00
675.2260, 12213.00
676.3850, 12033.00
677.5440, 12310.00
678.7030, 12183.00
679.8610, 12113.00
681.0200, 12153.00
682.1780, 12087.00
683.3360, 12482.00
684.4940, 12692.12
685.6520, 12804.47
686.8090, 13061.00
687.9670, 13021.00
689.1240, 12331.00
690.2810, 12138.00
691.4380, 12161.52
692.5950, 12194.00
693.7520, 12338.00
694.9080, 12361.00
696.0650, 12475.00
697.2210, 12546.00
698.3770, 12533.00
699.5330, 12625.00
700.6880, 12822.00
701.8440, 12748.00
702.9990, 12875.00
704.1550, 12903.00
705.3100, 12833.00
706.4650, 13071.00
707.6190, 13037.00
708.7740, 13040.00
709.9290, 13484.00
711.0830, 13452.00
712.2370, 13462.00
713.3910, 13545.00
714.5450, 13586.00
715.6980, 13624.00
716.8520, 13664.00
718.0050, 13674.00
719.1580, 13697.00
720.3110, 13991.00
721.4640, 13909.00
722.6170, 14031.00
723.7700, 14085.00
724.9220, 14118.00
726.0740, 14263.00
727.2260, 14512.00
728.3780, 14448.00
729.5300, 14746.00
730.6810, 14825.00
731.8330, 14949.00
732.9840, 15240.00
734.1350, 15429.00
735.2860, 15524.00
736.4370, 15851.00
737.5880, 15821.00
738.7380, 16057.00
739.8880, 16333.00
741.0390, 16502.00
742.1890, 16806.00
743.3380, 17070.00
744.4880, 17373.00
745.6380, 17694.00
746.7870, 17929.12
747.9360, 18184.06
749.0850, 18407.00
750.2340, 18584.00
751.3830, 18786.00
752.5310, 18895.16
753.6800, 19207.00
754.8280, 19127.00
755.9760, 19373.00
757.1240, 19426.00
758.2720, 19261.00
759.4190, 19332.00
760.5670, 19412.00
761.7140, 19246.00
762.8610, 19389.00
764.0080, 19555.00
765.1550, 19798.00
766.3020, 19793.00
767.4480, 20344.00
768.5950, 20424.00
769.7410, 20870.00
770.8870, 21357.00
772.0330, 21555.00
773.1780, 22003.00
774.3240, 22470.00
775.4690, 23166.00
776.6140, 23674.00
777.7590, 24509.00
778.9040, 24946.00
780.0490, 25446.00
781.1940, 26473.00
782.3380, 27118.00
783.4820, 27602.00
784.6260, 28622.00
785.7700, 29411.00
786.9140, 30041.00
788.0580, 30998.00
789.2010, 32153.00
790.3450, 33169.00
791.4880, 34025.00
792.6310, 34911.00
793.7730, 36103.00
794.9160, 37470.00
796.0590, 38729.00
797.2010, 39602.00
798.3430, 41285.00
799.4850, 42435.00
800.6270, 43570.00
801.7690, 45216.00
802.9100, 46185.00
804.0520, 47456.00
805.1930, 48903.00
806.3340, 49752.00
807.4750, 50922.17
808.6160, 51927.00
809.7560, 52768.00
810.8970, 53475.00
812.0370, 54163.00
813.1770, 54791.00
814.3170, 55149.00
815.4570, 55199.00
816.5960, 55231.00
817.7360, 55410.00
818.8750, 55477.00
820.0140, 55244.00
821.1530, 54998.00
822.2920, 54692.00
823.4310, 54315.00
824.5690, 53735.00
825.7070, 53043.00
826.8460, 52979.00
827.9840, 52163.00
829.1220, 51720.00
830.2590, 51076.00
831.3970, 50438.00
832.5340, 49760.00
833.6710, 49234.00
834.8080, 48939.00
835.9450, 48197.00
837.0820, 47464.00
838.2190, 47283.00
839.3550, 46304.00
840.4910, 45906.00
841.6270, 45510.00
842.7630, 44661.00
843.8990, 44376.00
845.0350, 44051.00
846.1700, 43606.00
847.3060, 43183.00
848.4410, 42889.00
849.5760, 42308.00
850.7100, 42038.00
851.8450, 41796.00
852.9800, 41391.00
854.1140, 41503.00
855.2480, 41177.00
856.3820, 41115.00
857.5160, 40791.00
858.6500, 40482.00
859.7830, 40292.00
860.9170, 39897.00
862.0500, 39853.00
863.1830, 39406.00
864.3160, 39078.00
865.4480, 38781.00
866.5810, 38642.00
867.7130, 38034.00
868.8460, 38156.00
869.9780, 37738.00
871.1100, 37050.00
872.2410, 36882.00
873.3730, 36387.00
874.5050, 36073.00
875.6360, 35737.00
876.7670, 34829.00
877.8980, 34265.00
879.0290, 33667.00
880.1590, 33211.00
881.2900, 32231.00
882.4200, 31771.00
883.5500, 30955.00
884.6800, 30481.00
885.8100, 29676.00
886.9400, 29028.00
888.0690, 28242.00
889.1990, 27229.00
890.3280, 26501.00
891.4570, 25722.00
892.5860, 25036.00
893.7140, 24451.00
894.8430, 23772.00
895.9710, 23153.00
897.1000, 22720.00
898.2280, 22299.00
899.3560, 21723.00
900.4830, 21230.00
901.6110, 20975.00
902.7380, 20780.00
903.8660, 20311.00
904.9930, 19886.00
906.1200, 19714.00
907.2460, 19457.00
908.3730, 19329.00
909.5000, 18890.00
910.6260, 18846.00
911.7520, 18468.00
912.8780, 18413.00
914.0040, 18233.00
915.1290, 17940.00
916.2550, 17977.00
917.3800, 17912.00
918.5050, 17679.00
919.6300, 17784.00
920.7550, 17705.00
921.8800, 17606.00
923.0040, 17567.00
924.1290, 17752.00
925.2530, 17665.00
926.3770, 17584.00
927.5010, 17415.00
928.6250, 17518.00
929.7480, 17535.00
930.8720, 17417.00
931.9950, 17194.00
933.1180, 17240.00
934.2410, 17087.00
935.3640, 17060.00
936.4860, 16845.00
937.6090, 16768.00
938.7310, 16780.00
939.8530, 16597.00
940.9750, 16446.00
942.0970, 16348.00
943.2180, 16362.00
944.3400, 16293.00
945.4610, 16205.00
946.5820, 15964.00
947.7030, 15895.00
948.8240, 15935.00
949.9450, 16005.00
951.0650, 15932.00
952.1860, 15842.00
953.3060, 15823.00
954.4260, 15884.00
955.5460, 15832.00
956.6650, 16022.00
957.7850, 16030.00
958.9040, 15998.00
960.0230, 15861.00
961.1420, 16033.00
962.2610, 16175.00
963.3800, 16198.00
964.4990, 16093.00
965.6170, 16250.00
966.7350, 16324.00
967.8530, 16470.00
968.9710, 16329.00
970.0890, 16268.00
971.2070, 16415.00
972.3240, 16299.00
973.4410, 16554.00
974.5580, 16253.00
975.6750, 16477.00
976.7920, 16419.00
977.9090, 16567.00
979.0250, 16550.00
980.1410, 16527.00
981.2580, 16609.00
982.3740, 16448.00
983.4890, 16579.00
984.6050, 16628.00
985.7200, 16767.00
986.8360, 16739.00
987.9510, 16716.00
989.0660, 16749.00
990.1810, 16608.00
991.2950, 16488.00
992.4100, 16239.00
993.5240, 16214.00
994.6390, 15728.00
995.7530, 15618.00
996.8660, 15231.00
997.9800, 14841.00
999.0940, 14732.00
1000.207, 14486.00
1001.320, 14616.00
1002.433, 14561.00
1003.546, 14921.00
1004.659, 15265.00
1005.772, 15276.00
1006.884, 15551.00
1007.996, 15958.00
1009.108, 16097.00
1010.220, 16390.00
1011.332, 16404.00
1012.444, 16501.00
1013.555, 16350.00
1014.666, 15945.00
1015.777, 15751.00
1016.888, 15271.00
1017.999, 14750.00
1019.110, 14351.00
1020.220, 13980.41
1021.331, 13829.00
1022.441, 13426.00
1023.551, 13220.00
1024.661, 13136.00
1025.770, 12888.00
1026.880, 12832.00
1027.989, 12823.00
1029.098, 12640.00
1030.207, 12725.00
1031.316, 12661.00
1032.425, 12621.00
1033.533, 12570.00
1034.642, 12568.00
1035.750, 12634.00
1036.858, 12532.00
1037.966, 12428.00
1039.073, 12562.00
1040.181, 12394.00
1041.288, 12600.00
1042.396, 12441.00
1043.503, 12564.00
1044.610, 12386.00
1045.716, 12392.00
1046.823, 12704.00
1047.929, 12437.00
1049.036, 12348.00
1050.142, 12498.00
1051.248, 12629.00
1052.353, 12474.00
1053.459, 12517.00
1054.564, 12585.00
1055.670, 12504.00
1056.775, 12565.00
1057.880, 12558.00
1058.985, 12573.00
1060.089, 12550.00
1061.194, 12560.00
1062.298, 12627.00
1063.402, 12550.00
1064.506, 12710.00
1065.610, 12656.00
1066.713, 12757.00
1067.817, 12866.00
1068.920, 12661.00
1070.023, 12729.00
1071.126, 12936.00
1072.229, 12857.00
1073.332, 12832.00
1074.435, 12821.00
1075.537, 12837.45
1076.639, 12888.83
1077.741, 12970.00
1078.843, 13052.00
1079.945, 13213.00
1081.046, 13334.00
1082.148, 13505.00
1083.249, 13935.00
1084.350, 14583.00
1085.451, 15754.00
1086.551, 15968.00
1087.652, 15286.00
1088.752, 14234.00
1089.853, 13873.00
1090.953, 13575.00
1092.053, 13220.00
1093.152, 13157.00
1094.252, 13092.00
1095.351, 12938.00
1096.451, 13138.00
1097.550, 13052.00
1098.649, 13061.00
1099.748, 12944.00
1100.846, 12980.15
1101.945, 13145.00
1103.043, 13027.00
1104.141, 13108.00
1105.239, 13131.00
1106.337, 12924.00
1107.434, 12969.00
1108.532, 12925.00
1109.629, 13038.00
1110.726, 13016.00
1111.823, 13018.00
1112.920, 13154.00
1114.017, 13070.00
1115.113, 13120.92
1116.210, 13150.00
1117.306, 13088.00
1118.402, 13063.00
1119.498, 12959.00
1120.593, 13025.00
1121.689, 13032.00
1122.784, 13123.00
1123.879, 13031.00
1124.974, 13188.00
1126.069, 13003.00
1127.164, 12904.00
1128.259, 12982.00
1129.353, 13005.00
1130.447, 13156.00
1131.541, 12921.00
1132.635, 12874.00
1133.729, 12799.00
1134.822, 13056.00
1135.916, 12781.00
1137.009, 12887.00
1138.102, 13143.00
1139.195, 12962.00
1140.288, 13055.00
1141.380, 12942.00
1142.473, 12957.00
1143.565, 12995.00
1144.657, 12953.00
1145.749, 12981.00
1146.841, 12999.00
1147.932, 12966.08
1149.024, 12945.11
1150.115, 12945.00
1151.206, 12910.00
1152.297, 12943.00
1153.388, 13063.00
1154.479, 12953.00
1155.569, 13056.00
1156.659, 13021.00
1157.750, 12990.00
1158.839, 13067.00
1159.929, 13031.00
1161.019, 12979.00
1162.108, 13082.00
1163.198, 13174.00
1164.287, 13049.00
1165.376, 13223.00
1166.465, 13100.00
1167.553, 13163.00
1168.642, 13077.00
1169.730, 13260.00
1170.818, 13301.00
1171.906, 13189.00
1172.994, 13172.00
1174.082, 13265.00
1175.170, 13335.00
1176.257, 13375.00
1177.344, 13336.00
1178.431, 13299.00
1179.518, 13129.00
1180.605, 13339.00
1181.691, 13538.00
1182.778, 13331.00
1183.864, 13326.00
1184.950, 13229.00
1186.036, 13529.00
1187.122, 13636.00
1188.207, 13351.00
1189.292, 13368.00
1190.378, 13290.00
1191.463, 13419.00
1192.548, 13443.00
1193.632, 13396.00
1194.717, 13450.09
1195.801, 13431.19
1196.886, 13398.00
1197.970, 13432.00
1199.054, 13312.00
1200.137, 13311.00
1201.221, 13282.00
1202.305, 13317.00
1203.388, 13375.00
1204.471, 13417.00
1205.554, 13474.00
1206.637, 13293.00
1207.719, 13517.00
1208.802, 13475.00
1209.884, 13357.00
1210.966, 13430.00
1212.048, 13430.00
1213.130, 13471.00
1214.212, 13510.00
1215.293, 13422.00
1216.374, 13435.00
1217.456, 13524.00
1218.536, 13365.00
1219.617, 13367.00
1220.698, 13537.00
1221.778, 13663.00
1222.859, 13427.00
1223.939, 13667.00
1225.019, 13355.00
1226.099, 13443.00
1227.178, 13591.00
1228.258, 13486.00
1229.337, 13517.00
1230.417, 13696.00
1231.496, 13392.00
1232.574, 13466.00
1233.653, 13379.00
1234.732, 13470.00
1235.810, 13542.00
1236.888, 13482.00
1237.966, 13397.00
1239.044, 13628.00
1240.122, 13557.00
1241.199, 13457.00
1242.277, 13649.00
1243.354, 13490.00
1244.431, 13664.00
1245.508, 13588.00
1246.585, 13724.00
1247.661, 13670.00
1248.738, 13714.00
1249.814, 13675.00
1250.890, 13650.00
1251.966, 13644.00
1253.042, 13657.00
1254.117, 13772.00
1255.193, 13829.00
1256.268, 13846.00
1257.343, 13784.00
1258.418, 13779.00
1259.493, 13888.00
1260.567, 13814.00
1261.642, 13918.00
1262.716, 13816.00
1263.790, 14051.00
1264.864, 14002.00
1265.938, 13855.00
1267.011, 14066.00
1268.085, 14007.00
1269.158, 14004.00
1270.231, 14038.00
1271.304, 13981.00
1272.377, 14181.00
1273.450, 14136.00
1274.522, 14173.00
1275.594, 14253.00
1276.666, 14265.00
1277.738, 14281.00
1278.810, 14349.00
1279.882, 14135.00
1280.953, 14240.00
1282.025, 14123.00
1283.096, 14178.00
1284.167, 14341.00
1285.238, 14303.00
1286.308, 14386.00
1287.379, 14488.00
1288.449, 14393.00
1289.519, 14383.00
1290.589, 14397.00
1291.659, 14482.00
1292.729, 14419.00
1293.798, 14364.00
1294.868, 14615.00
1295.937, 14726.00
1297.006, 14679.00
1298.075, 14735.00
1299.143, 14750.21
1300.212, 14884.00
1301.280, 14714.00
1302.348, 14772.00
1303.416, 14644.00
1304.484, 14620.00
1305.552, 14628.00
1306.620, 14706.00
1307.687, 14991.00
1308.754, 14992.00
1309.821, 14937.00
1310.888, 14795.00
1311.955, 14913.00
1313.021, 14996.00
1314.088, 15059.00
1315.154, 14942.00
1316.220, 15028.00
1317.286, 15045.00
1318.352, 15006.00
1319.417, 15159.00
1320.483, 15078.00
1321.548, 15149.00
1322.613, 15078.00
1323.678, 14991.00
1324.743, 15060.00
1325.807, 15124.00
1326.872, 15154.00
1327.936, 15082.00
1329.000, 15056.00
1330.064, 15109.00
1331.128, 15222.00
1332.191, 15205.00
1333.255, 15219.00
1334.318, 15178.00
1335.381, 15192.29
1336.444, 15178.18
1337.507, 15223.00
1338.569, 15224.25
1339.632, 15230.00
1340.694, 15256.00
1341.756, 15268.00
1342.818, 15285.00
1343.880, 15314.77
1344.941, 15278.00
1346.003, 15383.00
1347.064, 15280.00
1348.125, 15324.00
1349.186, 15403.00
1350.247, 15301.00
1351.308, 15411.00
1352.368, 15288.00
1353.428, 15401.00
1354.489, 15298.00
1355.549, 15322.00
1356.608, 15343.00
1357.668, 15337.00
1358.727, 15342.93
1359.787, 15405.00
1360.846, 15322.00
1361.905, 15372.00
1362.964, 15351.32
1364.022, 15459.00
1365.081, 15411.00
1366.139, 15502.00
1367.197, 15498.00
1368.255, 15492.00
1369.313, 15602.00
1370.371, 15544.00
1371.428, 15554.00
1372.486, 15579.00
1373.543, 15409.00
1374.600, 15440.00
1375.657, 15490.00
1376.713, 15538.00
1377.770, 15585.00
1378.826, 15440.00
1379.882, 15593.00
1380.938, 15466.00
1381.994, 15623.00
1383.050, 15545.00
1384.106, 15636.00
1385.161, 15652.00
1386.216, 15487.00
1387.271, 15540.00
1388.326, 15531.00
1389.381, 15640.00
1390.435, 15554.00
1391.490, 15601.00
1392.544, 15632.00
1393.598, 15572.00
1394.652, 15548.00
1395.705, 15486.00
1396.759, 15464.00
1397.812, 15606.00
1398.866, 15640.00
1399.919, 15643.76
1400.972, 15577.00
1402.024, 15610.00
1403.077, 15556.00
1404.129, 15458.00
1405.181, 15617.00
1406.233, 15554.00
1407.285, 15571.00
1408.337, 15629.48
1409.389, 15607.00
1410.440, 15624.00
1411.491, 15543.00
1412.542, 15393.00
1413.593, 15566.00
1414.644, 15450.00
1415.695, 15492.00
1416.745, 15611.00
1417.795, 15494.00
1418.845, 15584.00
1419.895, 15503.00
1420.945, 15475.00
1421.995, 15566.00
1423.044, 15475.00
1424.093, 15584.00
1425.142, 15527.00
1426.191, 15573.00
1427.240, 15727.00
1428.289, 15598.00
1429.337, 15537.00
1430.385, 15745.00
1431.433, 15676.00
1432.481, 15547.00
1433.529, 15696.00
1434.577, 15789.00
1435.624, 15751.00
1436.672, 15766.00
1437.719, 15823.00
1438.766, 15761.00
1439.812, 15851.00
1440.859, 15804.00
1441.905, 15827.00
1442.952, 15798.00
1443.998, 15900.00
1445.044, 15924.00
1446.090, 15812.00
1447.135, 15830.00
1448.181, 15985.00
1449.226, 15907.00
1450.271, 15846.00
1451.316, 16025.00
1452.361, 15924.00
1453.405, 16098.00
1454.450, 16040.00
1455.494, 15980.00
1456.538, 15989.00
1457.582, 15955.92
1458.626, 15922.00
1459.670, 15987.00
1460.713, 15986.00
1461.757, 16089.00
1462.800, 16087.00
1463.843, 16099.00
1464.886, 16127.68
1465.928, 16083.28
1466.971, 16145.00
1468.013, 16030.00
1469.055, 16054.00
1470.097, 16093.00
1471.139, 15941.00
1472.181, 15841.00
1473.222, 16068.00
1474.263, 15886.00
1475.305, 15926.00
1476.346, 15954.00
1477.386, 16009.00
1478.427, 15930.00
1479.468, 15942.00
1480.508, 15943.03
1481.548, 15807.00
1482.588, 15979.00
1483.628, 16000.00
1484.668, 16096.00
1485.707, 16034.00
1486.747, 16069.00
1487.786, 16053.00
1488.825, 16107.00
1489.864, 16186.00
1490.902, 16000.00
1491.941, 16012.00
1492.979, 16035.00
1494.017, 16183.00
1495.055, 16206.00
1496.093, 16136.00
1497.131, 16136.00
1498.168, 16167.00
1499.206, 16185.00
1500.243, 16184.00
1501.280, 16152.00
1502.317, 16236.00
1503.354, 16229.00
1504.390, 16167.00
1505.426, 16322.00
1506.463, 16232.00
1507.499, 16435.00
1508.535, 16247.00
1509.570, 16364.00
1510.606, 16364.00
1511.641, 16413.00
1512.676, 16374.00
1513.711, 16525.76
1514.746, 16473.87
1515.781, 16558.49
1516.816, 16421.00
1517.850, 16636.00
1518.884, 16568.00
1519.918, 16486.00
1520.952, 16653.00
1521.986, 16581.00
1523.019, 16661.00
1524.053, 16439.00
1525.086, 16543.00
1526.119, 16453.00
1527.152, 16498.00
1528.185, 16548.00
1529.217, 16505.00
1530.250, 16648.00
1531.282, 16509.00
1532.314, 16619.00
1533.346, 16583.00
1534.377, 16430.00
1535.409, 16522.00
1536.440, 16608.00
1537.472, 16400.00
1538.503, 16623.00
1539.534, 16596.00
1540.564, 16590.00
1541.595, 16666.00
1542.625, 16570.00
1543.656, 16784.00
1544.686, 16634.00
1545.716, 16694.00
1546.745, 16584.00
1547.775, 16481.00
1548.804, 16749.00
1549.834, 16719.00
1550.863, 16714.00
1551.892, 16811.00
1552.920, 16893.00
1553.949, 17012.00
1554.977, 17177.00
1556.006, 17114.00
1557.034, 16789.00
1558.062, 16853.00
1559.089, 16682.00
1560.117, 16667.00
1561.144, 16837.00
1562.172, 16598.00
1563.199, 16640.00
1564.226, 16669.00
1565.252, 16858.00
1566.279, 16814.00
1567.305, 17028.00
1568.332, 17111.00
1569.358, 16898.00
1570.384, 17027.00
##END=



