##NAMES=Andradite
##RRUFFID=R040001
##IDEAL CHEMISTRY=Ca_3_Fe^3+^_2_(SiO_4_)_3_
##LOCALITY=Stanley Butte, Graham County, Arizona, USA
##OWNER=RRUFF
##SOURCE=University of Arizona Mineral Museum
##DESCRIPTION=Brownish-orange dodecahedra
##STATUS=The identification of this mineral has been confirmed by X-ray diffraction and chemical analysis
##URL=rruff.info/R040001
##MEASURED CHEMISTRY=Ca_3.00_(Fe_1.96_Al_0.04_)_Î£=2_(SiO_4_)_3_ ; trace amounts of Mn
##PIN_ID=M00033
##ORIENTATION=Laser parallel to c* (0 0 1). Fiducial mark perpendicular to laser is parallel to a [1 0 0]
96.98000, 1043.000
98.22000, 1071.000
99.46100, 1020.000
100.7010, 1082.000
101.9410, 1015.000
103.1810, 1084.000
104.4210, 1076.000
105.6600, 1104.000
106.9000, 1087.000
108.1390, 1083.000
109.3780, 1098.000
110.6170, 1105.000
111.8550, 1161.000
113.0940, 1326.000
114.3320, 1479.000
115.5700, 1475.000
116.8080, 1376.000
118.0460, 1395.000
119.2830, 1283.000
120.5210, 1283.000
121.7580, 1219.000
122.9950, 1176.000
124.2320, 1129.000
125.4690, 1120.000
126.7050, 1102.034
127.9410, 1129.000
129.1780, 1115.000
130.4140, 1126.000
131.6490, 1168.000
132.8850, 1133.000
134.1200, 1175.000
135.3560, 1177.000
136.5910, 1147.000
137.8260, 1129.000
139.0610, 1214.000
140.2950, 1150.000
141.5290, 1174.000
142.7640, 1225.000
143.9980, 1195.000
145.2320, 1178.000
146.4650, 1198.000
147.6990, 1169.000
148.9320, 1187.000
150.1650, 1171.000
151.3980, 1160.000
152.6310, 1156.000
153.8640, 1233.000
155.0960, 1198.000
156.3280, 1225.000
157.5600, 1206.000
158.7920, 1263.000
160.0240, 1254.000
161.2560, 1255.000
162.4870, 1272.000
163.7180, 1270.000
164.9490, 1362.000
166.1800, 1429.000
167.4110, 1536.000
168.6410, 1792.000
169.8720, 2149.000
171.1020, 2540.000
172.3320, 3016.000
173.5620, 3153.000
174.7910, 3093.000
176.0210, 2881.000
177.2500, 2420.000
178.4790, 1937.000
179.7080, 1702.000
180.9370, 1566.000
182.1650, 1471.000
183.3940, 1444.000
184.6220, 1401.000
185.8500, 1396.000
187.0780, 1349.000
188.3050, 1348.000
189.5330, 1360.000
190.7600, 1313.000
191.9870, 1348.000
193.2140, 1317.000
194.4410, 1314.000
195.6680, 1304.000
196.8940, 1282.000
198.1200, 1331.000
199.3470, 1235.000
200.5720, 1295.000
201.7980, 1288.000
203.0240, 1249.000
204.2490, 1211.000
205.4740, 1277.000
206.6990, 1199.000
207.9240, 1237.000
209.1490, 1218.000
210.3740, 1213.000
211.5980, 1229.000
212.8220, 1220.000
214.0460, 1225.564
215.2700, 1233.572
216.4930, 1234.000
217.7170, 1239.000
218.9400, 1253.000
220.1630, 1237.000
221.3860, 1257.262
222.6090, 1252.000
223.8320, 1283.000
225.0540, 1290.000
226.2760, 1302.000
227.4980, 1310.000
228.7200, 1333.000
229.9420, 1347.000
231.1630, 1402.000
232.3850, 1497.000
233.6060, 1545.000
234.8270, 1671.000
236.0480, 1681.000
237.2690, 1675.000
238.4890, 1597.000
239.7090, 1512.000
240.9290, 1446.000
242.1490, 1401.057
243.3690, 1296.000
244.5890, 1328.000
245.8080, 1273.000
247.0270, 1229.000
248.2470, 1251.000
249.4650, 1264.000
250.6840, 1256.000
251.9030, 1198.000
253.1210, 1276.000
254.3390, 1278.000
255.5570, 1206.000
256.7750, 1257.000
257.9930, 1292.000
259.2100, 1260.000
260.4280, 1280.000
261.6450, 1326.000
262.8620, 1333.000
264.0790, 1375.000
265.2950, 1382.765
266.5120, 1397.000
267.7280, 1392.000
268.9440, 1377.000
270.1600, 1366.000
271.3760, 1343.000
272.5920, 1338.870
273.8070, 1379.000
275.0220, 1355.000
276.2370, 1362.000
277.4520, 1364.562
278.6670, 1390.000
279.8820, 1359.000
281.0960, 1379.000
282.3100, 1383.379
283.5240, 1401.707
284.7380, 1442.000
285.9520, 1498.000
287.1650, 1519.000
288.3780, 1647.000
289.5920, 1662.000
290.8050, 1777.000
292.0170, 1946.000
293.2300, 2127.000
294.4430, 2256.000
295.6550, 2313.000
296.8670, 2322.152
298.0790, 2286.000
299.2910, 2175.000
300.5020, 2037.000
301.7140, 1855.000
302.9250, 1855.000
304.1360, 1793.000
305.3470, 1802.000
306.5580, 1776.000
307.7680, 1857.000
308.9780, 1964.000
310.1890, 2088.000
311.3990, 2239.000
312.6090, 2251.000
313.8180, 2294.000
315.0280, 2139.000
316.2370, 2151.000
317.4460, 2108.000
318.6550, 2119.000
319.8640, 2169.000
321.0730, 2209.000
322.2810, 2314.000
323.4890, 2401.000
324.6980, 2549.000
325.9060, 2654.000
327.1130, 2726.000
328.3210, 2788.000
329.5280, 2809.000
330.7360, 2911.000
331.9430, 3077.000
333.1500, 3282.000
334.3560, 3507.000
335.5630, 3721.000
336.7690, 4050.000
337.9760, 4484.000
339.1820, 5073.000
340.3870, 5688.000
341.5930, 6609.000
342.7990, 8017.000
344.0040, 9167.000
345.2090, 11129.00
346.4140, 13704.00
347.6190, 17148.00
348.8240, 20800.00
350.0280, 24759.00
351.2330, 27493.00
352.4370, 28360.00
353.6410, 27315.00
354.8440, 24370.00
356.0480, 21248.00
357.2520, 18260.00
358.4550, 16528.00
359.6580, 15992.00
360.8610, 16459.00
362.0640, 17986.00
363.2660, 20675.00
364.4690, 24672.00
365.6710, 29543.00
366.8730, 35023.00
368.0750, 39924.00
369.2770, 43524.00
370.4780, 44551.00
371.6800, 42791.00
372.8810, 38210.00
374.0820, 32271.00
375.2830, 26211.00
376.4830, 20974.00
377.6840, 16900.00
378.8840, 13984.00
380.0840, 11759.00
381.2840, 10367.00
382.4840, 9365.000
383.6840, 8376.000
384.8830, 7123.000
386.0830, 6231.000
387.2820, 5418.000
388.4810, 4844.000
389.6800, 4159.000
390.8780, 3851.000
392.0770, 3557.000
393.2750, 3383.000
394.4730, 3088.000
395.6710, 2961.000
396.8690, 2820.000
398.0660, 2677.000
399.2640, 2650.000
400.4610, 2526.000
401.6580, 2502.000
402.8550, 2462.000
404.0520, 2358.000
405.2490, 2306.000
406.4450, 2237.000
407.6410, 2156.000
408.8370, 2134.000
410.0330, 2149.000
411.2290, 2090.000
412.4240, 2015.000
413.6200, 1974.000
414.8150, 1929.068
416.0100, 1868.000
417.2050, 1867.000
418.4000, 1826.000
419.5940, 1806.545
420.7880, 1753.000
421.9830, 1750.000
423.1770, 1760.000
424.3700, 1748.000
425.5640, 1751.000
426.7580, 1712.000
427.9510, 1716.000
429.1440, 1672.000
430.3370, 1651.000
431.5300, 1708.000
432.7220, 1643.000
433.9150, 1666.000
435.1070, 1670.000
436.2990, 1643.000
437.4910, 1618.000
438.6830, 1673.000
439.8750, 1657.000
441.0660, 1684.000
442.2570, 1661.000
443.4480, 1668.000
444.6390, 1715.000
445.8300, 1714.000
447.0210, 1770.000
448.2110, 1736.000
449.4010, 1730.000
450.5910, 1781.000
451.7810, 1798.000
452.9710, 1784.000
454.1610, 1770.000
455.3500, 1779.000
456.5390, 1753.000
457.7280, 1756.313
458.9170, 1752.000
460.1060, 1751.000
461.2940, 1778.000
462.4830, 1778.000
463.6710, 1765.000
464.8590, 1740.000
466.0470, 1813.000
467.2350, 1797.000
468.4220, 1847.000
469.6090, 1886.000
470.7970, 1905.000
471.9840, 1902.000
473.1700, 1895.000
474.3570, 1933.000
475.5440, 1962.000
476.7300, 2051.000
477.9160, 2045.000
479.1020, 2070.000
480.2880, 2198.000
481.4740, 2262.000
482.6590, 2319.000
483.8440, 2496.000
485.0300, 2676.000
486.2140, 3018.000
487.3990, 3510.000
488.5840, 3926.000
489.7680, 4533.000
490.9530, 5026.000
492.1370, 5342.000
493.3210, 5423.000
494.5040, 5099.000
495.6880, 4663.000
496.8720, 4158.000
498.0550, 3888.000
499.2380, 3605.000
500.4210, 3543.000
501.6040, 3502.000
502.7860, 3595.000
503.9690, 3881.000
505.1510, 4150.000
506.3330, 4724.000
507.5150, 5445.000
508.6970, 6576.000
509.8780, 8322.000
511.0600, 10749.00
512.2410, 13974.00
513.4220, 17050.00
514.6030, 19619.00
515.7840, 20620.00
516.9640, 19915.00
518.1440, 17908.00
519.3250, 14774.00
520.5050, 12210.00
521.6850, 9702.000
522.8640, 7917.000
524.0440, 6601.000
525.2230, 5567.000
526.4020, 4861.000
527.5820, 4371.000
528.7600, 3994.000
529.9390, 3678.000
531.1180, 3340.000
532.2960, 3236.000
533.4740, 2963.000
534.6520, 2943.000
535.8300, 2848.000
537.0080, 2728.000
538.1850, 2682.000
539.3630, 2666.000
540.5400, 2572.000
541.7170, 2521.000
542.8940, 2575.000
544.0700, 2536.000
545.2470, 2508.000
546.4230, 2487.000
547.5990, 2464.555
548.7750, 2476.000
549.9510, 2449.000
551.1270, 2419.000
552.3020, 2443.000
553.4780, 2452.000
554.6530, 2451.000
555.8280, 2349.000
557.0030, 2333.000
558.1770, 2267.000
559.3520, 2239.895
560.5260, 2212.000
561.7000, 2221.000
562.8740, 2183.000
564.0480, 2210.000
565.2220, 2200.000
566.3950, 2228.000
567.5680, 2258.000
568.7420, 2319.000
569.9150, 2447.000
571.0870, 2631.000
572.2600, 2804.000
573.4320, 3117.000
574.6050, 3328.000
575.7770, 3474.000
576.9490, 3576.000
578.1210, 3424.000
579.2920, 3247.000
580.4640, 2964.000
581.6350, 2712.000
582.8060, 2513.000
583.9770, 2362.000
585.1480, 2196.000
586.3190, 2121.000
587.4890, 2071.000
588.6590, 2013.000
589.8290, 1978.000
590.9990, 1935.000
592.1690, 1891.000
593.3390, 1922.000
594.5080, 1883.000
595.6770, 1883.000
596.8470, 1870.476
598.0160, 1813.000
599.1840, 1829.000
600.3530, 1789.000
601.5210, 1755.000
602.6900, 1771.000
603.8580, 1728.000
605.0260, 1726.421
606.1930, 1728.000
607.3610, 1711.000
608.5280, 1694.000
609.6960, 1691.000
610.8630, 1674.923
612.0300, 1718.000
613.1970, 1659.000
614.3630, 1647.000
615.5300, 1651.000
616.6960, 1606.000
617.8620, 1621.000
619.0280, 1566.000
620.1940, 1535.000
621.3590, 1523.000
622.5250, 1585.000
623.6900, 1596.000
624.8550, 1599.000
626.0200, 1594.000
627.1850, 1607.000
628.3490, 1549.000
629.5140, 1581.000
630.6780, 1562.000
631.8420, 1575.000
633.0060, 1530.000
634.1700, 1523.000
635.3330, 1578.000
636.4970, 1506.000
637.6600, 1580.000
638.8230, 1555.000
639.9860, 1527.000
641.1490, 1645.000
642.3110, 1563.000
643.4740, 1642.000
644.6360, 1571.000
645.7980, 1616.000
646.9600, 1585.000
648.1220, 1519.000
649.2840, 1611.000
650.4450, 1540.000
651.6060, 1541.000
652.7670, 1536.000
653.9280, 1596.000
655.0890, 1519.000
656.2500, 1595.000
657.4100, 1538.000
658.5700, 1517.000
659.7300, 1595.000
660.8900, 1587.000
662.0500, 1574.000
663.2100, 1527.000
664.3690, 1528.000
665.5280, 1548.000
666.6880, 1585.000
667.8460, 1527.000
669.0050, 1555.000
670.1640, 1499.000
671.3220, 1540.000
672.4810, 1513.000
673.6390, 1516.000
674.7970, 1543.000
675.9540, 1511.000
677.1120, 1521.000
678.2690, 1506.000
679.4270, 1539.000
680.5840, 1530.000
681.7410, 1562.000
682.8980, 1506.000
684.0540, 1525.000
685.2110, 1495.000
686.3670, 1556.000
687.5230, 1562.000
688.6790, 1592.000
689.8350, 1482.000
690.9900, 1565.000
692.1460, 1496.000
693.3010, 1546.000
694.4560, 1578.000
695.6110, 1592.000
696.7660, 1587.000
697.9210, 1605.000
699.0750, 1615.991
700.2290, 1639.000
701.3840, 1639.000
702.5370, 1634.000
703.6910, 1628.000
704.8450, 1651.000
705.9980, 1682.000
707.1520, 1738.000
708.3050, 1698.000
709.4580, 1707.000
710.6110, 1756.000
711.7630, 1726.000
712.9160, 1730.000
714.0680, 1771.000
715.2200, 1714.000
716.3720, 1755.106
717.5240, 1694.000
718.6760, 1779.000
719.8270, 1731.000
720.9780, 1715.000
722.1300, 1747.000
723.2810, 1775.000
724.4310, 1768.000
725.5820, 1789.000
726.7330, 1790.000
727.8830, 1822.000
729.0330, 1815.707
730.1830, 1790.000
731.3330, 1796.000
732.4830, 1743.000
733.6320, 1697.000
734.7810, 1676.000
735.9310, 1664.000
737.0800, 1654.000
738.2290, 1581.000
739.3770, 1634.000
740.5260, 1577.000
741.6740, 1576.000
742.8220, 1572.000
743.9700, 1612.000
745.1180, 1587.000
746.2660, 1599.000
747.4130, 1599.000
748.5610, 1538.000
749.7080, 1556.000
750.8550, 1567.000
752.0020, 1546.000
753.1490, 1576.000
754.2950, 1586.000
755.4420, 1545.000
756.5880, 1590.000
757.7340, 1535.000
758.8800, 1562.000
760.0250, 1627.000
761.1710, 1520.000
762.3160, 1556.000
763.4620, 1542.000
764.6070, 1578.000
765.7520, 1535.000
766.8960, 1611.000
768.0410, 1569.000
769.1850, 1525.000
770.3300, 1620.000
771.4740, 1578.000
772.6180, 1609.000
773.7610, 1658.000
774.9050, 1587.000
776.0480, 1666.000
777.1920, 1621.000
778.3350, 1587.000
779.4780, 1578.000
780.6200, 1660.000
781.7630, 1636.000
782.9060, 1614.000
784.0480, 1711.000
785.1900, 1681.000
786.3320, 1687.000
787.4740, 1670.000
788.6150, 1690.000
789.7570, 1708.000
790.8980, 1736.000
792.0390, 1755.000
793.1800, 1802.000
794.3210, 1807.000
795.4620, 1916.000
796.6020, 1950.000
797.7420, 1947.000
798.8830, 2071.000
800.0230, 2047.000
801.1620, 2119.000
802.3020, 2193.000
803.4420, 2303.000
804.5810, 2354.000
805.7200, 2441.000
806.8590, 2583.000
807.9980, 2649.000
809.1370, 2823.000
810.2750, 2975.000
811.4140, 3250.000
812.5520, 3472.000
813.6900, 3645.000
814.8280, 3898.000
815.9650, 3951.000
817.1030, 3964.000
818.2400, 3913.000
819.3780, 3799.000
820.5150, 3559.000
821.6520, 3468.000
822.7880, 3301.000
823.9250, 3201.000
825.0610, 3293.000
826.1980, 3283.000
827.3340, 3323.000
828.4700, 3386.000
829.6050, 3431.854
830.7410, 3497.000
831.8760, 3583.000
833.0120, 3694.000
834.1470, 3789.154
835.2820, 3918.000
836.4160, 4103.000
837.5510, 4301.000
838.6860, 4527.000
839.8200, 4742.000
840.9540, 5024.000
842.0880, 5117.000
843.2220, 5111.000
844.3550, 5094.000
845.4890, 5006.000
846.6220, 4987.000
847.7550, 5013.000
848.8880, 5052.000
850.0210, 5260.000
851.1540, 5229.000
852.2860, 5389.000
853.4190, 5519.000
854.5510, 5883.000
855.6830, 6139.000
856.8150, 6721.000
857.9460, 7132.000
859.0780, 7592.000
860.2090, 8389.000
861.3410, 9406.000
862.4720, 10150.00
863.6020, 11507.00
864.7330, 12847.00
865.8640, 14765.00
866.9940, 17144.00
868.1240, 20149.00
869.2540, 23869.00
870.3840, 28553.00
871.5140, 34215.00
872.6440, 39869.00
873.7730, 43980.00
874.9020, 46396.00
876.0320, 45117.00
877.1600, 40596.00
878.2890, 34760.00
879.4180, 28205.00
880.5460, 22498.00
881.6750, 18013.00
882.8030, 14511.00
883.9310, 11882.00
885.0590, 9876.000
886.1860, 8525.000
887.3140, 7349.000
888.4410, 6335.000
889.5680, 5656.000
890.6950, 5112.000
891.8220, 4672.000
892.9490, 4247.000
894.0750, 3918.627
895.2020, 3702.000
896.3280, 3453.000
897.4540, 3242.000
898.5800, 3191.000
899.7050, 3053.000
900.8310, 2872.000
901.9560, 2850.000
903.0820, 2727.000
904.2070, 2673.000
905.3320, 2579.000
906.4560, 2545.000
907.5810, 2439.000
908.7050, 2465.000
909.8300, 2362.000
910.9540, 2371.000
912.0780, 2291.000
913.2010, 2241.000
914.3250, 2188.000
915.4480, 2193.000
916.5720, 2195.000
917.6950, 2099.000
918.8180, 2067.000
919.9410, 2133.000
921.0630, 2076.000
922.1860, 2085.000
923.3080, 2087.000
924.4300, 2064.000
925.5520, 2113.000
926.6740, 2095.000
927.7960, 1999.000
928.9170, 2091.000
930.0390, 1990.000
931.1600, 2034.000
932.2810, 1970.000
933.4020, 2046.000
934.5230, 1997.000
935.6430, 2003.000
936.7640, 1970.000
937.8840, 1911.000
939.0040, 1954.000
940.1240, 1917.000
941.2440, 1908.000
942.3630, 1908.000
943.4830, 1910.000
944.6020, 1909.000
945.7210, 1889.000
946.8400, 1897.225
947.9590, 1896.339
949.0770, 1899.000
950.1960, 1914.000
951.3140, 1914.000
952.4320, 1936.000
953.5500, 1923.025
954.6680, 1959.000
955.7860, 1896.000
956.9030, 1911.000
958.0210, 1891.000
959.1380, 1840.000
960.2550, 1932.000
961.3720, 1865.000
962.4890, 1932.000
963.6050, 1879.000
964.7220, 1940.000
965.8380, 1935.000
966.9540, 1939.000
968.0700, 1925.000
969.1860, 1923.335
970.3010, 1926.854
971.4170, 1917.000
972.5320, 1933.000
973.6470, 1944.000
974.7620, 1942.373
975.8770, 1929.000
976.9910, 1915.000
978.1060, 1888.000
979.2200, 1866.000
980.3340, 1898.000
981.4480, 1889.000
982.5620, 1899.000
983.6760, 1910.000
984.7890, 1923.000
985.9030, 1921.000
987.0160, 1989.000
988.1290, 1986.000
989.2420, 2021.000
990.3550, 2072.000
991.4670, 2171.000
992.5800, 2317.000
993.6920, 2322.000
994.8040, 2278.000
995.9160, 2319.000
997.0280, 2271.000
998.1390, 2130.000
999.2510, 2087.000
1000.362, 1956.000
1001.473, 1849.000
1002.584, 1818.000
1003.695, 1788.000
1004.805, 1765.000
1005.916, 1750.205
1007.026, 1711.000
1008.136, 1733.000
1009.246, 1745.000
1010.356, 1744.000
1011.466, 1722.000
1012.576, 1737.000
1013.685, 1748.000
1014.794, 1755.000
1015.903, 1690.000
1017.012, 1708.000
1018.121, 1721.000
1019.229, 1671.000
1020.338, 1741.000
1021.446, 1717.000
1022.554, 1713.000
1023.662, 1677.000
1024.770, 1707.000
1025.878, 1710.000
1026.985, 1712.000
1028.092, 1701.000
1029.200, 1694.000
1030.307, 1727.000
1031.413, 1729.000
1032.520, 1719.000
1033.627, 1709.000
1034.733, 1716.000
1035.839, 1709.000
1036.945, 1698.000
1038.051, 1689.000
1039.157, 1700.000
1040.262, 1666.000
1041.368, 1690.000
1042.473, 1725.000
1043.578, 1737.000
1044.683, 1686.000
1045.788, 1693.000
1046.893, 1781.000
1047.997, 1683.000
1049.101, 1751.000
1050.205, 1694.000
1051.309, 1762.000
1052.413, 1708.000
1053.517, 1735.000
1054.621, 1635.000
1055.724, 1731.000
1056.827, 1702.000
1057.930, 1763.000
1059.033, 1714.000
1060.136, 1729.000
1061.238, 1762.000
1062.341, 1755.000
1063.443, 1777.000
1064.545, 1752.000
1065.647, 1771.000
1066.749, 1796.000
1067.850, 1802.000
1068.952, 1806.000
1070.053, 1794.000
1071.154, 1798.000
1072.255, 1818.000
1073.356, 1869.000
1074.457, 1766.000
1075.557, 1890.000
1076.658, 1899.000
1077.758, 1846.000
1078.858, 1910.000
1079.958, 1929.000
1081.057, 1890.000
1082.157, 1928.000
1083.256, 1909.000
1084.356, 1952.000
1085.455, 1972.000
1086.554, 1896.000
1087.653, 1904.000
1088.751, 1923.000
1089.850, 1945.000
1090.948, 1994.000
1092.046, 1929.000
1093.144, 1949.000
1094.242, 1988.000
1095.340, 1975.000
1096.437, 1987.000
1097.534, 1950.000
1098.632, 1998.000
1099.729, 1900.000
1100.826, 1958.000
1101.922, 1985.000
1103.019, 2056.000
1104.115, 1967.000
1105.212, 1940.000
1106.308, 1984.000
1107.404, 2020.000
1108.499, 1959.000
1109.595, 1975.000
1110.691, 1897.000
1111.786, 1996.000
1112.881, 1944.000
1113.976, 1934.000
1115.071, 1908.000
1116.166, 1929.000
1117.260, 1934.000
1118.355, 1901.000
1119.449, 1887.000
1120.543, 1861.000
1121.637, 1847.058
1122.731, 1861.000
1123.824, 1826.000
1124.918, 1862.000
1126.011, 1862.000
1127.104, 1779.000
1128.197, 1828.000
1129.290, 1832.000
1130.382, 1783.000
1131.475, 1822.000
1132.567, 1767.000
1133.659, 1785.000
1134.751, 1855.000
1135.843, 1776.000
1136.935, 1748.000
1138.027, 1844.000
1139.118, 1818.000
1140.209, 1766.000
1141.300, 1811.000
1142.391, 1804.000
1143.482, 1837.000
1144.573, 1839.000
1145.663, 1777.000
1146.754, 1796.000
1147.844, 1752.000
1148.934, 1809.000
1150.024, 1830.000
1151.113, 1819.000
1152.203, 1865.000
1153.292, 1854.002
1154.381, 1877.000
1155.470, 1839.000
1156.559, 1805.000
1157.648, 1765.000
1158.737, 1834.000
1159.825, 1851.000
1160.913, 1883.000
1162.001, 1833.000
1163.089, 1851.000
1164.177, 1850.000
1165.265, 1880.000
1166.352, 1907.000
1167.440, 1841.000
1168.527, 1887.000
1169.614, 1891.000
1170.701, 1868.000
1171.788, 1938.000
1172.874, 1956.000
1173.961, 1891.000
1175.047, 1930.000
1176.133, 1908.000
1177.219, 1904.000
1178.305, 1909.000
1179.390, 1922.000
1180.476, 1917.000
1181.561, 1923.354
1182.646, 1927.413
1183.731, 1924.000
1184.816, 1935.000
1185.901, 1931.000
1186.985, 1935.818
1188.070, 1922.000
1189.154, 1937.000
1190.238, 1947.000
1191.322, 1911.000
1192.406, 1949.000
1193.489, 1961.000
1194.573, 1940.000
1195.656, 1893.000
1196.739, 1888.000
1197.822, 1868.000
1198.905, 1892.000
1199.988, 1911.000
1201.070, 1902.000
1202.153, 1926.000
1203.235, 1917.000
1204.317, 1932.000
1205.399, 1894.000
1206.481, 1928.000
1207.562, 1894.000
1208.644, 1918.000
1209.725, 1873.000
1210.806, 1867.000
1211.887, 1882.000
1212.968, 1882.000
1214.049, 1870.000
1215.129, 1882.000
1216.209, 1884.000
1217.290, 1885.000
1218.370, 1859.000
1219.450, 1820.000
1220.529, 1801.000
1221.609, 1827.000
1222.688, 1794.000
1223.768, 1805.000
1224.847, 1809.000
1225.926, 1751.000
1227.005, 1844.000
1228.083, 1760.000
1229.162, 1761.000
1230.240, 1775.000
1231.318, 1768.000
1232.396, 1758.000
1233.474, 1811.000
1234.552, 1786.000
1235.629, 1774.000
1236.707, 1744.000
1237.784, 1748.000
1238.861, 1753.000
1239.938, 1775.000
1241.015, 1756.261
1242.092, 1732.000
1243.168, 1730.000
1244.244, 1734.000
1245.321, 1731.000
1246.397, 1778.000
1247.473, 1730.000
1248.548, 1758.000
1249.624, 1734.000
1250.699, 1746.000
1251.775, 1772.000
1252.850, 1767.000
1253.925, 1768.005
1254.999, 1791.000
1256.074, 1756.000
1257.148, 1739.000
1258.223, 1745.000
1259.297, 1762.000
1260.371, 1700.000
1261.445, 1800.000
1262.519, 1731.000
1263.592, 1787.000
1264.666, 1786.000
1265.739, 1750.000
1266.812, 1771.000
1267.885, 1767.000
1268.958, 1767.938
1270.030, 1763.000
1271.103, 1790.000
1272.175, 1770.000
1273.247, 1791.000
1274.319, 1840.000
1275.391, 1726.000
1276.463, 1740.000
1277.535, 1722.000
1278.606, 1787.000
1279.677, 1770.000
1280.748, 1795.000
1281.819, 1786.521
1282.890, 1767.000
1283.961, 1764.000
1285.031, 1772.000
1286.102, 1797.000
1287.172, 1822.000
1288.242, 1825.000
1289.312, 1829.000
1290.381, 1817.000
1291.451, 1778.000
1292.520, 1780.000
1293.590, 1769.847
1294.659, 1788.000
1295.728, 1778.000
1296.797, 1802.000
1297.865, 1827.000
1298.934, 1802.000
1300.002, 1819.000
1301.070, 1845.000
1302.138, 1813.000
1303.206, 1740.000
1304.274, 1804.000
1305.341, 1798.000
1306.409, 1837.000
1307.476, 1844.131
1308.543, 1830.000
1309.610, 1847.000
1310.677, 1831.000
1311.744, 1828.000
1312.810, 1800.000
1313.877, 1825.000
1314.943, 1805.000
1316.009, 1809.000
1317.075, 1780.000
1318.140, 1800.000
1319.206, 1828.000
1320.272, 1813.000
1321.337, 1853.000
1322.402, 1860.000
1323.467, 1802.000
1324.532, 1787.000
1325.596, 1825.000
1326.661, 1767.000
1327.725, 1812.000
1328.790, 1812.000
1329.854, 1816.000
1330.918, 1854.000
1331.981, 1851.000
1333.045, 1847.077
1334.108, 1885.000
1335.172, 1822.000
1336.235, 1824.000
1337.298, 1815.000
1338.361, 1840.000
1339.423, 1871.000
1340.486, 1836.000
1341.548, 1917.000
1342.611, 1885.000
1343.673, 1837.000
1344.735, 1891.000
1345.796, 1887.000
1346.858, 1833.000
1347.919, 1929.000
1348.981, 1883.000
1350.042, 1947.000
1351.103, 1902.000
1352.164, 1941.000
1353.225, 1876.000
1354.285, 1924.000
1355.346, 1886.000
1356.406, 1845.000
1357.466, 1910.000
1358.526, 1958.000
1359.586, 1876.000
1360.645, 1868.000
1361.705, 1925.000
1362.764, 1905.000
1363.823, 1931.000
1364.882, 1928.000
1365.941, 1884.000
1367.000, 1866.000
1368.059, 1944.000
1369.117, 1890.000
1370.175, 1922.000
1371.233, 1963.000
1372.291, 1895.000
1373.349, 1949.000
1374.407, 1882.000
1375.464, 1855.000
1376.522, 1970.000
1377.579, 1952.000
1378.636, 1934.000
1379.693, 1958.000
1380.750, 1966.000
1381.806, 1941.000
1382.863, 1965.000
1383.919, 1974.000
1384.975, 1942.000
1386.031, 1952.000
1387.087, 1937.000
1388.143, 1911.000
1389.199, 1983.000
1390.254, 1909.000
1391.309, 1939.000
1392.364, 1975.000
1393.419, 1974.000
1394.474, 1962.000
1395.529, 1953.000
1396.583, 1970.000
1397.638, 1956.000
1398.692, 1973.000
1399.746, 1928.000
1400.800, 1932.000
1401.853, 1983.000
1402.907, 1961.000
1403.960, 1983.860
1405.014, 1940.000
1406.067, 1987.000
1407.120, 2004.000
1408.173, 1979.000
1409.225, 2000.000
1410.278, 2002.000
1411.330, 1953.000
1412.383, 1940.000
1413.435, 1993.000
1414.487, 1936.000
1415.538, 1931.000
1416.590, 2001.000
1417.641, 2009.000
1418.693, 1946.000
1419.744, 1952.000
1420.795, 1975.000
1421.846, 1967.000
1422.897, 2001.000
1423.947, 1968.000
1424.998, 1964.000
1426.048, 1929.000
1427.098, 1974.000
1428.148, 2010.000
1429.198, 1945.000
1430.247, 1940.000
1431.297, 1918.000
1432.346, 1922.000
1433.396, 1924.000
1434.445, 2001.000
1435.494, 1968.000
1436.542, 1980.000
1437.591, 1931.000
1438.639, 1985.000
1439.688, 1970.000
1440.736, 1881.000
1441.784, 2010.000
1442.832, 1956.000
1443.880, 1927.000
1444.927, 1951.000
1445.975, 1969.000
1447.022, 1981.000
1448.069, 2006.000
1449.116, 1997.000
1450.163, 2013.000
1451.209, 2025.403
1452.256, 1962.000
1453.302, 2021.000
1454.348, 1980.000
1455.394, 1908.000
1456.440, 1999.000
1457.486, 1974.000
1458.532, 1952.000
1459.577, 1935.000
1460.623, 1925.976
1461.668, 1990.000
1462.713, 1928.000
1463.758, 1962.000
1464.802, 1990.000
1465.847, 1943.000
1466.891, 1998.000
1467.936, 1956.000
1468.980, 1921.000
1470.024, 1960.000
1471.067, 1951.000
1472.111, 1975.000
1473.155, 1983.000
1474.198, 1951.000
1475.241, 1926.000
1476.284, 1957.000
1477.327, 1960.000
1478.370, 1909.000
1479.413, 1989.000
1480.455, 1908.000
1481.497, 1949.000
1482.540, 1950.000
1483.582, 1958.000
1484.624, 1982.000
1485.665, 1930.000
1486.707, 1978.000
1487.748, 1923.000
1488.790, 1971.000
1489.831, 1898.000
1490.872, 1950.000
1491.912, 1951.000
1492.953, 1918.000
1493.994, 1985.000
1495.034, 1930.000
1496.074, 1988.000
1497.114, 1958.000
1498.154, 1881.000
1499.194, 1993.000
1500.234, 1938.000
1501.273, 1951.000
1502.313, 1986.000
1503.352, 1975.000
1504.391, 1921.000
1505.430, 1951.000
1506.468, 1907.000
1507.507, 1946.000
1508.545, 1900.000
1509.584, 1979.000
1510.622, 1966.000
1511.660, 1927.000
1512.698, 1926.000
1513.735, 1875.000
1514.773, 1922.000
1515.810, 1937.000
1516.848, 1967.000
1517.885, 1925.000
1518.922, 1967.000
1519.958, 1902.000
1520.995, 1950.000
1522.032, 1966.000
1523.068, 1978.000
1524.104, 1947.000
1525.140, 1933.000
1526.176, 1998.000
1527.212, 1967.000
1528.248, 1974.000
1529.283, 1969.000
1530.318, 1998.000
1531.353, 1999.000
1532.389, 2007.000
1533.423, 1991.000
1534.458, 1933.000
1535.493, 1951.000
1536.527, 1943.000
1537.561, 1972.000
1538.596, 1911.000
1539.630, 1984.000
1540.663, 2009.000
1541.697, 1941.000
1542.731, 1964.000
1543.764, 1910.000
1544.797, 1910.292
1545.830, 1937.000
1546.863, 1916.000
1547.896, 1936.000
1548.929, 1956.000
1549.961, 1976.000
1550.994, 1963.000
1552.026, 1978.000
1553.058, 1920.000
1554.090, 1928.000
1555.121, 1961.000
1556.153, 1867.000
1557.185, 1924.000
1558.216, 1972.000
1559.247, 1954.000
1560.278, 1949.000
1561.309, 1929.000
1562.340, 1916.894
1563.370, 1906.000
1564.401, 1894.000
1565.431, 1922.000
1566.461, 1926.000
1567.491, 1953.000
1568.521, 1920.000
1569.551, 1955.000
1570.580, 1915.000
1571.610, 1928.000
1572.639, 1967.000
1573.668, 1919.000
1574.697, 1914.000
1575.726, 1902.000
1576.754, 1937.000
1577.783, 1905.000
##END=



