##NAMES=Andradite
##RRUFFID=R060350
##IDEAL CHEMISTRY=Ca_3_Fe^3+^_2_(SiO_4_)_3_
##LOCALITY=south of the Gem mine, southern San Benito County, California, USA
##OWNER=RRUFF
##SOURCE=Michael Scott
##DESCRIPTION=Cluster of black vitreous crystals showing well-developed faces
##STATUS=The identification of this mineral has been confirmed by X-ray diffraction and chemical analysis
##URL=rruff.info/R060350
##MEASURED CHEMISTRY=(Ca_2.93_Mg_0.07_)_Σ=3_(Fe^3+^_1.18_Ti_0.77_Al_0.05_)_Σ=2_((Si_0.74_Fe^3+^_0.26_)_Σ=1_O_4_)_3_ ; trace amounts of Mn
##PIN_ID=M00067
##ORIENTATION=Laser parallel to a* (1 0 0). Fiducial mark perpendicular to laser is parallel to c [0 0 1]
114.4400, 11548.00
115.6710, 12609.00
116.9030, 12612.00
118.1340, 12532.00
119.3650, 12047.00
120.5960, 12183.00
121.8270, 12386.00
123.0580, 13003.00
124.2880, 13288.00
125.5190, 12981.00
126.7490, 13050.00
127.9790, 13396.00
129.2090, 13681.00
130.4390, 14075.00
131.6680, 14409.00
132.8980, 14322.00
134.1270, 14473.00
135.3560, 14752.00
136.5850, 15205.00
137.8140, 15956.00
139.0430, 16769.00
140.2710, 17530.00
141.5000, 17568.00
142.7280, 17386.00
143.9560, 17442.00
145.1840, 17303.00
146.4120, 16835.00
147.6390, 16430.00
148.8670, 15816.00
150.0940, 15436.00
151.3210, 15536.00
152.5490, 15967.00
153.7750, 15860.00
155.0020, 15751.00
156.2290, 15879.00
157.4550, 15826.00
158.6810, 16191.00
159.9080, 16384.00
161.1340, 16834.00
162.3590, 17495.00
163.5850, 18369.00
164.8110, 18877.00
166.0360, 19210.00
167.2610, 19383.00
168.4860, 19095.00
169.7110, 18829.00
170.9360, 18997.00
172.1610, 18298.00
173.3850, 18151.00
174.6100, 17916.00
175.8340, 17791.00
177.0580, 17764.00
178.2820, 17677.00
179.5050, 17659.00
180.7290, 17606.00
181.9520, 17615.00
183.1760, 17678.34
184.3990, 17798.38
185.6220, 17933.00
186.8450, 18117.00
188.0670, 18415.00
189.2900, 18518.00
190.5120, 18807.00
191.7340, 19049.00
192.9560, 19199.00
194.1780, 19275.00
195.4000, 19460.00
196.6220, 19328.00
197.8430, 19066.00
199.0640, 18985.00
200.2860, 19041.00
201.5070, 19388.00
202.7270, 19596.00
203.9480, 18747.00
205.1690, 17331.00
206.3890, 16413.00
207.6090, 16137.00
208.8290, 16076.00
210.0490, 16287.00
211.2690, 16232.00
212.4890, 16558.00
213.7080, 16667.00
214.9280, 16898.00
216.1470, 16855.00
217.3660, 16885.00
218.5850, 16914.00
219.8030, 16988.47
221.0220, 17105.51
222.2400, 17211.00
223.4590, 17362.00
224.6770, 17508.00
225.8950, 17566.00
227.1120, 17406.00
228.3300, 17535.87
229.5480, 17477.97
230.7650, 17614.00
231.9820, 17450.00
233.1990, 17516.00
234.4160, 17493.00
235.6330, 17741.00
236.8490, 17491.00
238.0660, 17682.00
239.2820, 17528.00
240.4980, 17552.00
241.7140, 17801.00
242.9300, 17637.00
244.1460, 17644.00
245.3610, 17578.00
246.5770, 17840.00
247.7920, 18036.00
249.0070, 17718.00
250.2220, 17880.00
251.4370, 17809.00
252.6510, 17864.00
253.8660, 18040.00
255.0800, 18115.00
256.2940, 18416.00
257.5080, 18423.00
258.7220, 18870.00
259.9360, 18723.91
261.1490, 18637.60
262.3630, 18427.00
263.5760, 18294.00
264.7890, 18135.82
266.0020, 17990.00
267.2150, 17812.00
268.4270, 17694.00
269.6400, 17546.00
270.8520, 17669.00
272.0640, 17414.00
273.2760, 17408.00
274.4880, 17224.00
275.7000, 17288.00
276.9120, 17361.00
278.1230, 17427.00
279.3340, 17395.00
280.5450, 17342.00
281.7560, 17359.00
282.9670, 17501.00
284.1780, 17715.00
285.3880, 17892.00
286.5980, 18041.00
287.8090, 18242.15
289.0190, 18424.00
290.2290, 18609.00
291.4380, 18831.00
292.6480, 19026.00
293.8570, 19342.00
295.0670, 19759.00
296.2760, 19946.00
297.4850, 20217.00
298.6930, 20793.00
299.9020, 21039.00
301.1110, 21522.00
302.3190, 21989.00
303.5270, 22497.00
304.7350, 23000.00
305.9430, 23506.00
307.1510, 23985.00
308.3580, 24475.43
309.5660, 24655.00
310.7730, 25325.00
311.9800, 25881.00
313.1870, 26078.00
314.3940, 26252.00
315.6010, 27020.00
316.8070, 27058.00
318.0130, 27581.00
319.2200, 28069.00
320.4260, 28545.00
321.6310, 29291.00
322.8370, 29730.00
324.0430, 30445.00
325.2480, 31338.00
326.4540, 32207.00
327.6590, 33098.00
328.8640, 34184.00
330.0680, 35200.00
331.2730, 36185.00
332.4780, 37406.00
333.6820, 38394.00
334.8860, 39391.00
336.0900, 40168.00
337.2940, 41208.00
338.4980, 41774.00
339.7010, 42515.00
340.9050, 43512.00
342.1080, 44326.00
343.3110, 44530.00
344.5140, 45538.00
345.7170, 46884.00
346.9200, 47661.00
348.1220, 49188.00
349.3240, 50209.00
350.5270, 51093.00
351.7290, 51976.00
352.9310, 52577.00
354.1320, 52711.00
355.3340, 52960.00
356.5350, 52596.00
357.7370, 52144.00
358.9380, 51516.00
360.1390, 50187.00
361.3400, 49483.00
362.5400, 48104.00
363.7410, 46915.00
364.9410, 45662.00
366.1410, 44142.00
367.3410, 42756.00
368.5410, 41373.00
369.7410, 39854.00
370.9400, 38560.00
372.1400, 37100.00
373.3390, 35819.00
374.5380, 34580.00
375.7370, 33195.00
376.9360, 32085.00
378.1350, 31102.00
379.3330, 30086.00
380.5310, 28968.00
381.7300, 28250.00
382.9280, 26917.00
384.1260, 26354.00
385.3230, 25257.00
386.5210, 24461.00
387.7180, 23721.00
388.9160, 23063.00
390.1130, 22471.00
391.3100, 21786.00
392.5060, 21508.00
393.7030, 20806.00
394.9000, 20342.00
396.0960, 19997.00
397.2920, 19504.00
398.4880, 19129.00
399.6840, 18989.00
400.8800, 18834.00
402.0750, 18663.43
403.2710, 18539.00
404.4660, 18415.00
405.6610, 18276.00
406.8560, 18052.00
408.0510, 18081.00
409.2450, 17908.00
410.4400, 17816.00
411.6340, 17805.00
412.8280, 17825.00
414.0220, 17594.00
415.2160, 17840.00
416.4100, 17709.00
417.6030, 17506.00
418.7970, 17712.00
419.9900, 17647.00
421.1830, 17636.00
422.3760, 17564.00
423.5690, 17734.00
424.7610, 17935.00
425.9540, 17916.00
427.1460, 18037.00
428.3380, 18106.00
429.5300, 18122.00
430.7220, 18402.00
431.9140, 18462.00
433.1050, 18675.00
434.2970, 18652.00
435.4880, 18738.00
436.6790, 18628.00
437.8700, 18525.00
439.0610, 18608.00
440.2510, 18222.00
441.4420, 18153.00
442.6320, 17984.00
443.8220, 17583.00
445.0120, 17155.00
446.2020, 16795.00
447.3910, 16579.00
448.5810, 16107.00
449.7700, 15953.00
450.9600, 15691.00
452.1490, 15644.00
453.3370, 15452.00
454.5260, 15573.00
455.7150, 15504.00
456.9030, 15575.00
458.0910, 15429.00
459.2800, 15653.00
460.4670, 15520.00
461.6550, 15759.00
462.8430, 15832.00
464.0300, 16097.00
465.2180, 16215.00
466.4050, 16443.00
467.5920, 16705.00
468.7790, 16888.53
469.9650, 17023.00
471.1520, 17376.00
472.3380, 17547.00
473.5250, 17857.00
474.7110, 18124.00
475.8970, 18265.00
477.0820, 18595.00
478.2680, 18733.00
479.4540, 19116.00
480.6390, 19415.00
481.8240, 19900.00
483.0090, 19865.00
484.1940, 20392.00
485.3780, 20358.00
486.5630, 20519.00
487.7470, 20425.00
488.9320, 20536.00
490.1160, 20592.00
491.3000, 20490.00
492.4830, 20739.00
493.6670, 20804.00
494.8500, 21179.00
496.0340, 22119.00
497.2170, 23035.00
498.4000, 24456.00
499.5820, 24981.00
500.7650, 26192.00
501.9480, 27308.00
503.1300, 28293.00
504.3120, 29098.00
505.4940, 29588.00
506.6760, 29980.00
507.8580, 30261.00
509.0390, 29904.00
510.2210, 29737.00
511.4020, 29191.00
512.5830, 28738.00
513.7640, 28182.00
514.9450, 27618.00
516.1250, 26752.00
517.3060, 26317.00
518.4860, 25925.00
519.6660, 25370.00
520.8460, 25089.00
522.0260, 24613.00
523.2060, 24286.00
524.3850, 23995.00
525.5650, 23836.00
526.7440, 23558.00
527.9230, 23223.00
529.1020, 22975.00
530.2810, 22935.00
531.4590, 22405.00
532.6380, 22427.00
533.8160, 22238.80
534.9940, 22420.00
536.1720, 22041.00
537.3500, 21962.00
538.5270, 21887.00
539.7050, 21588.00
540.8820, 21442.00
542.0590, 21206.00
543.2360, 20892.00
544.4130, 20686.00
545.5900, 20454.00
546.7660, 20131.00
547.9430, 19795.00
549.1190, 19242.00
550.2950, 18875.00
551.4710, 18307.46
552.6470, 17760.00
553.8220, 17181.00
554.9980, 16690.00
556.1730, 16175.00
557.3480, 15612.00
558.5230, 15021.00
559.6980, 14344.00
560.8730, 13984.00
562.0470, 13740.00
563.2220, 13424.00
564.3960, 13453.00
565.5700, 13111.00
566.7440, 13061.00
567.9170, 12960.00
569.0910, 13117.00
570.2640, 13179.00
571.4380, 13176.00
572.6110, 13362.00
573.7840, 13679.00
574.9570, 13579.00
576.1290, 13960.00
577.3020, 13915.00
578.4740, 14159.00
579.6460, 14132.72
580.8180, 14041.00
581.9900, 13978.00
583.1620, 14122.00
584.3330, 13983.00
585.5040, 13905.00
586.6760, 13717.00
587.8470, 13800.00
589.0180, 13629.00
590.1880, 13483.00
591.3590, 13544.00
592.5290, 13391.00
593.7000, 13306.00
594.8700, 13041.00
596.0400, 13098.00
597.2090, 12934.00
598.3790, 12521.00
599.5490, 12652.00
600.7180, 12387.00
601.8870, 12236.00
603.0560, 12225.00
604.2250, 11976.00
605.3940, 11893.00
606.5620, 11745.00
607.7300, 11587.00
608.8990, 11487.00
610.0670, 11277.00
611.2350, 11051.00
612.4020, 11247.00
613.5700, 11091.00
614.7370, 10913.00
615.9050, 10859.00
617.0720, 10733.00
618.2390, 10753.00
619.4060, 10776.00
620.5720, 10692.00
621.7390, 10745.00
622.9050, 10748.00
624.0710, 10738.00
625.2370, 10852.00
626.4030, 10705.00
627.5690, 10742.00
628.7340, 10799.00
629.9000, 10863.00
631.0650, 10942.00
632.2300, 10807.00
633.3950, 10791.00
634.5600, 10887.00
635.7240, 10951.00
636.8890, 11073.00
638.0530, 11058.00
639.2170, 11103.00
640.3810, 10940.00
641.5450, 10966.00
642.7080, 11071.00
643.8720, 10906.00
645.0350, 10915.00
646.1980, 10868.00
647.3610, 10769.00
648.5240, 10829.00
649.6870, 10725.00
650.8490, 10602.00
652.0120, 10619.00
653.1740, 10474.00
654.3360, 10522.00
655.4980, 10514.00
656.6600, 10641.00
657.8210, 10505.00
658.9830, 10522.00
660.1440, 10459.00
661.3050, 10247.00
662.4660, 10364.00
663.6270, 10256.00
664.7870, 10216.93
665.9480, 10234.55
667.1080, 10106.00
668.2680, 10218.00
669.4280, 10076.00
670.5880, 10090.00
671.7480, 9945.000
672.9070, 10016.00
674.0670, 10165.00
675.2260, 10132.00
676.3850, 10067.00
677.5440, 9995.000
678.7030, 10020.00
679.8610, 10033.00
681.0200, 10140.00
682.1780, 10098.00
683.3360, 10000.00
684.4940, 10243.00
685.6520, 10277.00
686.8090, 10154.00
687.9670, 10437.00
689.1240, 10524.00
690.2810, 10397.00
691.4380, 10434.00
692.5950, 10557.00
693.7520, 10726.00
694.9080, 10762.00
696.0650, 10835.00
697.2210, 10903.00
698.3770, 11000.00
699.5330, 11294.00
700.6880, 11297.00
701.8440, 11406.00
702.9990, 11402.00
704.1550, 11617.00
705.3100, 11598.00
706.4650, 11673.00
707.6190, 11715.00
708.7740, 11760.00
709.9290, 11822.00
711.0830, 11959.00
712.2370, 11944.00
713.3910, 12082.00
714.5450, 12116.00
715.6980, 12214.00
716.8520, 12303.46
718.0050, 12395.24
719.1580, 12492.25
720.3110, 12614.00
721.4640, 12685.00
722.6170, 12792.00
723.7700, 12891.00
724.9220, 13231.00
726.0740, 13326.00
727.2260, 13522.00
728.3780, 13699.00
729.5300, 13902.74
730.6810, 14178.00
731.8330, 14374.00
732.9840, 14606.00
734.1350, 14860.00
735.2860, 14976.00
736.4370, 15337.00
737.5880, 15582.00
738.7380, 16015.00
739.8880, 16330.00
741.0390, 16653.00
742.1890, 17001.00
743.3380, 17389.00
744.4880, 17722.00
745.6380, 18102.00
746.7870, 18567.00
747.9360, 18895.00
749.0850, 19160.00
750.2340, 19435.00
751.3830, 19629.00
752.5310, 19874.00
753.6800, 20028.00
754.8280, 19927.00
755.9760, 19949.00
757.1240, 20183.00
758.2720, 19745.00
759.4190, 20014.00
760.5670, 20049.00
761.7140, 20230.00
762.8610, 20370.00
764.0080, 20432.00
765.1550, 20788.00
766.3020, 21036.00
767.4480, 21410.00
768.5950, 21766.57
769.7410, 22026.00
770.8870, 22599.00
772.0330, 23131.00
773.1780, 23711.00
774.3240, 24478.00
775.4690, 25231.00
776.6140, 25857.00
777.7590, 26782.00
778.9040, 27496.00
780.0490, 28388.00
781.1940, 29185.00
782.3380, 30161.00
783.4820, 31017.00
784.6260, 32276.00
785.7700, 33023.00
786.9140, 34135.00
788.0580, 35441.00
789.2010, 36559.00
790.3450, 38048.00
791.4880, 39250.00
792.6310, 40886.00
793.7730, 42029.00
794.9160, 43621.00
796.0590, 45133.00
797.2010, 46413.00
798.3430, 48349.00
799.4850, 49801.00
800.6270, 51638.00
801.7690, 52962.00
802.9100, 54574.00
804.0520, 56055.00
805.1930, 57656.00
806.3340, 58395.00
807.4750, 60196.00
808.6160, 60730.00
809.7560, 61734.00
810.8970, 62511.00
812.0370, 62918.00
813.1770, 63451.00
814.3170, 63902.00
815.4570, 64027.00
816.5960, 64024.00
817.7360, 64046.00
818.8750, 63814.27
820.0140, 63802.00
821.1530, 63223.00
822.2920, 62601.00
823.4310, 62271.00
824.5690, 61452.00
825.7070, 60737.00
826.8460, 60123.00
827.9840, 59454.00
829.1220, 58719.00
830.2590, 58037.00
831.3970, 57268.39
832.5340, 56450.79
833.6710, 55696.00
834.8080, 54816.00
835.9450, 53974.00
837.0820, 53293.00
838.2190, 52807.00
839.3550, 52002.33
840.4910, 51441.00
841.6270, 50548.00
842.7630, 50436.00
843.8990, 49618.00
845.0350, 49296.00
846.1700, 48900.00
847.3060, 48401.00
848.4410, 48263.00
849.5760, 47795.00
850.7100, 47783.00
851.8450, 47413.00
852.9800, 47489.00
854.1140, 47224.00
855.2480, 47062.00
856.3820, 47209.00
857.5160, 46954.00
858.6500, 46628.00
859.7830, 46613.00
860.9170, 46405.00
862.0500, 45955.00
863.1830, 46060.00
864.3160, 45409.00
865.4480, 45231.00
866.5810, 45040.00
867.7130, 44668.00
868.8460, 44697.00
869.9780, 44350.00
871.1100, 43968.00
872.2410, 43526.00
873.3730, 43088.00
874.5050, 42477.00
875.6360, 41898.00
876.7670, 41162.00
877.8980, 40374.00
879.0290, 39525.00
880.1590, 38956.00
881.2900, 37861.00
882.4200, 36745.00
883.5500, 36116.00
884.6800, 35094.00
885.8100, 33938.00
886.9400, 32807.00
888.0690, 31789.00
889.1990, 30744.00
890.3280, 29614.00
891.4570, 28366.00
892.5860, 27566.00
893.7140, 26770.00
894.8430, 25829.00
895.9710, 25158.00
897.1000, 24374.94
898.2280, 23506.00
899.3560, 22987.00
900.4830, 22358.00
901.6110, 21746.00
902.7380, 21073.00
903.8660, 20742.00
904.9930, 20286.00
906.1200, 19922.00
907.2460, 19555.51
908.3730, 19235.00
909.5000, 18876.00
910.6260, 18622.00
911.7520, 18390.00
912.8780, 18118.10
914.0040, 17927.61
915.1290, 17692.00
916.2550, 17593.00
917.3800, 17468.00
918.5050, 17415.00
919.6300, 17149.00
920.7550, 17007.00
921.8800, 17158.00
923.0040, 16990.00
924.1290, 17031.00
925.2530, 17073.00
926.3770, 16856.00
927.5010, 16800.00
928.6250, 16728.00
929.7480, 16768.00
930.8720, 16578.00
931.9950, 16255.00
933.1180, 16227.00
934.2410, 16012.00
935.3640, 15970.00
936.4860, 15912.00
937.6090, 15680.00
938.7310, 15694.00
939.8530, 15457.00
940.9750, 15277.00
942.0970, 15150.00
943.2180, 14969.00
944.3400, 14987.00
945.4610, 14794.00
946.5820, 14473.00
947.7030, 14647.00
948.8240, 14580.00
949.9450, 14402.00
951.0650, 14531.00
952.1860, 14584.00
953.3060, 14443.00
954.4260, 14554.00
955.5460, 14633.00
956.6650, 14487.00
957.7850, 14545.00
958.9040, 14644.00
960.0230, 14791.00
961.1420, 14772.72
962.2610, 14819.00
963.3800, 14797.00
964.4990, 14862.00
965.6170, 14939.00
966.7350, 15027.00
967.8530, 15104.00
968.9710, 15157.00
970.0890, 15256.00
971.2070, 15096.00
972.3240, 15051.00
973.4410, 15088.00
974.5580, 15119.00
975.6750, 15108.00
976.7920, 15082.00
977.9090, 14914.00
979.0250, 14903.00
980.1410, 15028.00
981.2580, 14882.00
982.3740, 14934.00
983.4890, 15055.00
984.6050, 14863.00
985.7200, 15005.00
986.8360, 14993.00
987.9510, 14762.00
989.0660, 14460.00
990.1810, 14358.00
991.2950, 14174.00
992.4100, 13880.00
993.5240, 13707.00
994.6390, 13294.00
995.7530, 12973.00
996.8660, 12608.00
997.9800, 12430.00
999.0940, 12342.53
1000.207, 12284.00
1001.320, 12446.00
1002.433, 12639.00
1003.546, 12919.00
1004.659, 13280.00
1005.772, 13862.00
1006.884, 14263.00
1007.996, 14603.00
1009.108, 14831.00
1010.220, 14993.00
1011.332, 14834.00
1012.444, 14469.00
1013.555, 14293.00
1014.666, 13783.00
1015.777, 13380.00
1016.888, 12729.00
1017.999, 12100.00
1019.110, 11643.00
1020.220, 11265.00
1021.331, 10797.00
1022.441, 10407.00
1023.551, 10125.00
1024.661, 10018.00
1025.770, 9890.000
1026.880, 9690.000
1027.989, 9679.000
1029.098, 9590.000
1030.207, 9391.000
1031.316, 9358.000
1032.425, 9373.000
1033.533, 9282.000
1034.642, 9250.000
1035.750, 9300.000
1036.858, 9281.000
1037.966, 9232.000
1039.073, 9141.000
1040.181, 9191.000
1041.288, 9197.000
1042.396, 9241.000
1043.503, 9193.000
1044.610, 9197.603
1045.716, 9156.000
1046.823, 9193.000
1047.929, 9088.000
1049.036, 9162.000
1050.142, 9133.000
1051.248, 9107.000
1052.353, 9125.000
1053.459, 9179.000
1054.564, 9082.000
1055.670, 9004.000
1056.775, 9052.000
1057.880, 9051.000
1058.985, 9079.033
1060.089, 9069.000
1061.194, 9161.000
1062.298, 9210.000
1063.402, 9215.000
1064.506, 9238.000
1065.610, 9237.000
1066.713, 9183.000
1067.817, 9152.000
1068.920, 9280.000
1070.023, 9213.000
1071.126, 9244.000
1072.229, 9193.000
1073.332, 9232.000
1074.435, 9326.000
1075.537, 9273.000
1076.639, 9265.000
1077.741, 9359.000
1078.843, 9299.000
1079.945, 9399.000
1081.046, 9414.000
1082.148, 9569.000
1083.249, 9584.000
1084.350, 9680.000
1085.451, 9981.000
1086.551, 9817.000
1087.652, 9632.000
1088.752, 9388.000
1089.853, 9507.000
1090.953, 9440.000
1092.053, 9365.000
1093.152, 9318.000
1094.252, 9346.000
1095.351, 9345.000
1096.451, 9359.000
1097.550, 9338.000
1098.649, 9299.000
1099.748, 9358.000
1100.846, 9371.000
1101.945, 9328.000
1103.043, 9323.000
1104.141, 9298.000
1105.239, 9286.000
1106.337, 9293.000
1107.434, 9280.000
1108.532, 9285.757
1109.629, 9294.000
1110.726, 9295.000
1111.823, 9276.000
1112.920, 9279.000
1114.017, 9259.692
1115.113, 9269.000
1116.210, 9230.000
1117.306, 9211.000
1118.402, 9209.000
1119.498, 9096.000
1120.593, 9129.000
1121.689, 9053.000
1122.784, 9018.000
1123.879, 9098.000
1124.974, 9016.000
1126.069, 9094.000
1127.164, 9098.000
1128.259, 9047.000
1129.353, 9022.000
1130.447, 8927.000
1131.541, 8876.000
1132.635, 8919.000
1133.729, 8980.000
1134.822, 8803.000
1135.916, 8898.000
1137.009, 8855.000
1138.102, 8919.000
1139.195, 8880.000
1140.288, 8915.000
1141.380, 8860.000
1142.473, 8899.000
1143.565, 8931.000
1144.657, 8981.000
1145.749, 8860.000
1146.841, 8873.000
1147.932, 8923.000
1149.024, 8895.000
1150.115, 8977.000
1151.206, 8857.000
1152.297, 8988.000
1153.388, 8853.000
1154.479, 8982.000
1155.569, 8863.000
1156.659, 8967.000
1157.750, 9018.000
1158.839, 8843.000
1159.929, 8975.000
1161.019, 8983.000
1162.108, 8934.000
1163.198, 9055.000
1164.287, 8880.000
1165.376, 8998.000
1166.465, 8991.000
1167.553, 9022.000
1168.642, 8916.000
1169.730, 8886.000
1170.818, 9041.000
1171.906, 8988.000
1172.994, 9034.762
1174.082, 9126.000
1175.170, 9103.000
1176.257, 9024.000
1177.344, 9120.000
1178.431, 9027.000
1179.518, 9098.000
1180.605, 9140.000
1181.691, 8998.000
1182.778, 9012.000
1183.864, 9052.000
1184.950, 9027.000
1186.036, 9198.000
1187.122, 9065.000
1188.207, 8984.000
1189.292, 9156.000
1190.378, 9026.170
1191.463, 9042.000
1192.548, 8953.000
1193.632, 8987.000
1194.717, 8906.000
1195.801, 8950.000
1196.886, 9068.000
1197.970, 8897.000
1199.054, 9000.000
1200.137, 8930.000
1201.221, 8896.000
1202.305, 8778.000
1203.388, 9018.000
1204.471, 8888.000
1205.554, 8890.000
1206.637, 8874.000
1207.719, 8804.325
1208.802, 8854.000
1209.884, 8747.000
1210.966, 8766.000
1212.048, 8797.000
1213.130, 8891.000
1214.212, 8753.000
1215.293, 8808.000
1216.374, 8756.000
1217.456, 8830.000
1218.536, 8817.000
1219.617, 8697.000
1220.698, 8716.000
1221.778, 8708.000
1222.859, 8807.000
1223.939, 8661.000
1225.019, 8554.000
1226.099, 8717.000
1227.178, 8656.000
1228.258, 8731.000
1229.337, 8539.000
1230.417, 8661.000
1231.496, 8597.000
1232.574, 8535.000
1233.653, 8547.000
1234.732, 8586.000
1235.810, 8535.000
1236.888, 8593.000
1237.966, 8555.000
1239.044, 8554.000
1240.122, 8498.000
1241.199, 8516.000
1242.277, 8548.000
1243.354, 8524.668
1244.431, 8507.000
1245.508, 8524.000
1246.585, 8576.000
1247.661, 8573.000
1248.738, 8593.000
1249.814, 8585.368
1250.890, 8558.000
1251.966, 8561.000
1253.042, 8497.000
1254.117, 8506.000
1255.193, 8435.000
1256.268, 8545.000
1257.343, 8516.000
1258.418, 8531.000
1259.493, 8502.000
1260.567, 8622.000
1261.642, 8598.000
1262.716, 8640.000
1263.790, 8628.000
1264.864, 8650.625
1265.938, 8676.000
1267.011, 8681.000
1268.085, 8630.000
1269.158, 8609.000
1270.231, 8623.000
1271.304, 8598.000
1272.377, 8612.000
1273.450, 8541.000
1274.522, 8604.000
1275.594, 8539.000
1276.666, 8583.000
1277.738, 8656.000
1278.810, 8633.000
1279.882, 8662.000
1280.953, 8643.973
1282.025, 8623.000
1283.096, 8629.000
1284.167, 8592.000
1285.238, 8681.000
1286.308, 8545.000
1287.379, 8808.000
1288.449, 8549.000
1289.519, 8666.000
1290.589, 8745.000
1291.659, 8696.000
1292.729, 8721.000
1293.798, 8644.000
1294.868, 8606.000
1295.937, 8736.000
1297.006, 8764.000
1298.075, 8711.000
1299.143, 8725.000
1300.212, 8684.000
1301.280, 8732.000
1302.348, 8736.000
1303.416, 8696.000
1304.484, 8657.000
1305.552, 8652.000
1306.620, 8774.000
1307.687, 8807.000
1308.754, 8807.000
1309.821, 8856.000
1310.888, 8890.000
1311.955, 8744.000
1313.021, 8735.000
1314.088, 8754.000
1315.154, 8786.000
1316.220, 8846.000
1317.286, 8830.552
1318.352, 8853.000
1319.417, 8810.000
1320.483, 8843.000
1321.548, 8821.000
1322.613, 8894.000
1323.678, 8887.843
1324.743, 8862.000
1325.807, 8898.000
1326.872, 8833.000
1327.936, 8799.000
1329.000, 8736.000
1330.064, 8936.000
1331.128, 8906.000
1332.191, 8905.000
1333.255, 9034.000
1334.318, 9021.000
1335.381, 8833.000
1336.444, 8874.000
1337.507, 8920.000
1338.569, 8970.000
1339.632, 9030.000
1340.694, 9001.000
1341.756, 8934.000
1342.818, 8930.000
1343.880, 8978.000
1344.941, 9021.000
1346.003, 9032.201
1347.064, 9082.000
1348.125, 9054.000
1349.186, 9097.000
1350.247, 9062.000
1351.308, 9076.000
1352.368, 9121.000
1353.428, 9048.000
1354.489, 9175.000
1355.549, 9145.000
1356.608, 9095.000
1357.668, 9130.000
1358.727, 9116.000
1359.787, 9205.000
1360.846, 9134.000
1361.905, 9041.000
1362.964, 9139.000
1364.022, 9178.000
1365.081, 9076.000
1366.139, 9111.000
1367.197, 9153.000
1368.255, 9203.000
1369.313, 9274.000
1370.371, 9107.000
1371.428, 9163.000
1372.486, 9131.000
1373.543, 9225.000
1374.600, 9054.000
1375.657, 9184.000
1376.713, 9152.000
1377.770, 9150.000
1378.826, 9284.000
1379.882, 9271.000
1380.938, 9272.785
1381.994, 9231.000
1383.050, 9233.000
1384.106, 9224.000
1385.161, 9223.000
1386.216, 9304.000
1387.271, 9241.000
1388.326, 9273.000
1389.381, 9422.000
1390.435, 9220.000
1391.490, 9376.000
1392.544, 9335.000
1393.598, 9307.000
1394.652, 9453.000
1395.705, 9307.000
1396.759, 9431.000
1397.812, 9326.000
1398.866, 9337.000
1399.919, 9401.000
1400.972, 9406.000
1402.024, 9481.000
1403.077, 9544.000
1404.129, 9404.000
1405.181, 9358.000
1406.233, 9464.000
1407.285, 9408.000
1408.337, 9456.000
1409.389, 9375.000
1410.440, 9620.000
1411.491, 9551.000
1412.542, 9448.000
1413.593, 9613.000
1414.644, 9451.000
1415.695, 9498.000
1416.745, 9383.000
1417.795, 9491.000
1418.845, 9430.000
1419.895, 9385.000
1420.945, 9366.000
1421.995, 9408.000
1423.044, 9495.000
1424.093, 9373.000
1425.142, 9387.000
1426.191, 9516.000
1427.240, 9480.000
1428.289, 9433.000
1429.337, 9577.000
1430.385, 9442.000
1431.433, 9529.000
1432.481, 9461.000
1433.529, 9542.000
1434.577, 9523.000
1435.624, 9519.000
1436.672, 9399.686
1437.719, 9569.721
1438.766, 9670.104
1439.812, 9704.568
1440.859, 9475.729
1441.905, 9586.894
1442.952, 9561.806
1443.998, 9531.121
1445.044, 9690.141
1446.090, 9499.588
1447.135, 9715.000
1448.181, 9565.000
1449.226, 9538.000
1450.271, 9649.000
1451.316, 9629.000
1452.361, 9552.000
1453.405, 9636.000
1454.450, 9629.000
1455.494, 9690.000
1456.538, 9776.000
1457.582, 9890.000
1458.626, 9784.000
1459.670, 9858.490
1460.713, 9838.000
1461.757, 9847.000
1462.800, 9836.000
1463.843, 9816.000
1464.886, 9909.000
1465.928, 9860.000
1466.971, 9795.000
1468.013, 9896.000
1469.055, 10008.00
1470.097, 9925.000
1471.139, 9910.000
1472.181, 9911.000
1473.222, 9914.438
1474.263, 10083.00
1475.305, 10018.00
1476.346, 10048.00
1477.386, 10174.00
1478.427, 10104.00
1479.468, 10195.00
1480.508, 10140.00
1481.548, 10088.00
1482.588, 10107.00
1483.628, 10165.00
1484.668, 10086.00
1485.707, 10283.00
1486.747, 10199.00
1487.786, 10309.00
1488.825, 10308.00
1489.864, 10299.00
1490.902, 10468.00
1491.941, 10334.00
1492.979, 10379.00
1494.017, 10255.00
1495.055, 10479.00
1496.093, 10428.00
1497.131, 10467.00
1498.168, 10413.00
1499.206, 10504.00
1500.243, 10501.00
1501.280, 10452.00
1502.317, 10482.00
1503.354, 10515.00
1504.390, 10649.00
1505.426, 10585.00
1506.463, 10504.00
1507.499, 10659.00
1508.535, 10559.00
1509.570, 10546.00
1510.606, 10506.00
1511.641, 10615.00
1512.676, 10584.00
1513.711, 10710.00
1514.746, 10668.00
1515.781, 10594.00
1516.816, 10495.00
1517.850, 10619.00
1518.884, 10608.00
1519.918, 10539.00
1520.952, 10460.00
1521.986, 10671.00
1523.019, 10639.00
1524.053, 10620.00
1525.086, 10457.00
1526.119, 10502.00
1527.152, 10491.00
1528.185, 10663.00
1529.217, 10517.00
1530.250, 10567.00
1531.282, 10409.00
1532.314, 10475.00
1533.346, 10399.00
1534.377, 10396.00
1535.409, 10493.00
1536.440, 10484.00
1537.472, 10487.33
1538.503, 10396.00
1539.534, 10421.00
1540.564, 10353.00
1541.595, 10235.00
1542.625, 10336.00
1543.656, 10306.00
1544.686, 10178.00
1545.716, 10197.00
1546.745, 10288.00
1547.775, 10182.81
1548.804, 10327.83
1549.834, 10403.18
1550.863, 10412.64
1551.892, 10158.78
1552.920, 10244.95
1553.949, 10194.84
1554.977, 10139.16
1556.006, 10273.17
1557.034, 10057.63
1558.062, 10188.65
1559.089, 10181.34
1560.117, 10221.00
1561.144, 10232.00
1562.172, 10080.00
1563.199, 10172.00
1564.226, 10153.00
1565.252, 10111.00
1566.279, 10144.00
1567.305, 10215.00
1568.332, 10104.00
1569.358, 10090.00
1570.384, 10242.00
##END=



