##NAMES=Andradite
##RRUFFID=R060449
##IDEAL CHEMISTRY=Ca_3_Fe^3+^_2_(SiO_4_)_3_
##LOCALITY=Namibia
##OWNER=RRUFF
##SOURCE=Gemological Institute of America
##DESCRIPTION=Blue fragment, variety demantoid
##STATUS=The identification of this mineral has been confirmed by X-ray diffraction and chemical analysis
##URL=rruff.info/R060449
##MEASURED CHEMISTRY=Ca_3.00_(Fe^3+^_1.93_Al_0.07_)_Î£=2_(Si_1.00_O_4_)_3__
##PIN_ID=L01084
##ORIENTATION=Laser parallel to a* (1 0 0). Fiducial mark perpendicular to laser is parallel to c [0 0 1]
51.43100, 384.0000
52.67100, 374.0000
53.91000, 366.0000
55.14900, 376.0000
56.38700, 375.0000
57.62600, 372.0000
58.86400, 374.0000
60.10300, 377.0000
61.34100, 379.0000
62.57900, 381.7555
63.81700, 369.0000
65.05400, 385.0000
66.29200, 387.0000
67.52900, 384.0000
68.76700, 411.0000
70.00400, 446.0000
71.24100, 455.0000
72.47700, 451.0000
73.71400, 455.0000
74.95100, 479.0000
76.18700, 491.0000
77.42300, 489.0000
78.65900, 494.0000
79.89500, 486.0000
81.13100, 502.0000
82.36700, 548.0000
83.60200, 535.0000
84.83700, 562.0000
86.07200, 562.0000
87.30800, 533.0000
88.54200, 550.0000
89.77700, 575.0000
91.01200, 576.0000
92.24600, 599.0000
93.48000, 594.0000
94.71400, 614.0000
95.94800, 614.0000
97.18200, 593.0000
98.41600, 595.0000
99.64900, 620.0000
100.8830, 591.0000
102.1160, 605.0000
103.3490, 586.0000
104.5820, 604.0000
105.8150, 640.0000
107.0470, 654.0000
108.2800, 697.0000
109.5120, 711.0000
110.7440, 673.0000
111.9760, 632.0000
113.2080, 643.0000
114.4400, 622.0000
115.6710, 645.0000
116.9030, 669.0000
118.1340, 647.0000
119.3650, 650.0000
120.5960, 638.0000
121.8270, 647.0000
123.0580, 660.0000
124.2880, 650.0000
125.5190, 654.8380
126.7490, 626.0000
127.9790, 651.0000
129.2090, 644.0000
130.4390, 648.0000
131.6680, 658.0000
132.8980, 661.4368
134.1270, 676.0000
135.3560, 676.0000
136.5850, 699.0000
137.8140, 699.0000
139.0430, 726.0000
140.2710, 681.0000
141.5000, 677.0000
142.7280, 686.0000
143.9560, 691.0000
145.1840, 684.0000
146.4120, 677.0000
147.6390, 673.0000
148.8670, 685.0000
150.0940, 677.0000
151.3210, 709.0000
152.5490, 719.0000
153.7750, 708.0000
155.0020, 683.0000
156.2290, 729.0000
157.4550, 746.0000
158.6810, 773.0000
159.9080, 843.0000
161.1340, 948.0000
162.3590, 1147.000
163.5850, 1501.000
164.8110, 1896.000
166.0360, 2158.000
167.2610, 2517.234
168.4860, 2916.470
169.7110, 3216.000
170.9360, 3715.000
172.1610, 4209.000
173.3850, 4577.000
174.6100, 4740.000
175.8340, 4591.000
177.0580, 3759.000
178.2820, 2771.000
179.5050, 1988.000
180.7290, 1392.000
181.9520, 1116.000
183.1760, 917.0000
184.3990, 889.0000
185.6220, 821.0000
186.8450, 798.0000
188.0670, 780.0000
189.2900, 762.0000
190.5120, 757.0000
191.7340, 755.0000
192.9560, 758.0000
194.1780, 733.0000
195.4000, 730.0000
196.6220, 725.0000
197.8430, 734.0000
199.0640, 730.0000
200.2860, 760.0000
201.5070, 760.0000
202.7270, 767.0000
203.9480, 732.0000
205.1690, 727.0000
206.3890, 690.0000
207.6090, 681.0000
208.8290, 717.0000
210.0490, 690.0000
211.2690, 734.0000
212.4890, 729.0000
213.7080, 740.0000
214.9280, 747.0000
216.1470, 763.0000
217.3660, 816.0000
218.5850, 869.0000
219.8030, 933.0000
221.0220, 1034.000
222.2400, 1185.000
223.4590, 1407.000
224.6770, 1626.000
225.8950, 2216.000
227.1120, 2870.000
228.3300, 3486.000
229.5480, 3805.000
230.7650, 4127.000
231.9820, 4919.000
233.1990, 5776.000
234.4160, 6365.000
235.6330, 6732.000
236.8490, 6623.422
238.0660, 6911.000
239.2820, 5563.000
240.4980, 4050.000
241.7140, 2730.000
242.9300, 1862.000
244.1460, 1357.000
245.3610, 1159.000
246.5770, 985.0000
247.7920, 902.0000
249.0070, 866.0000
250.2220, 851.0000
251.4370, 848.0000
252.6510, 857.0000
253.8660, 927.0000
255.0800, 980.7090
256.2940, 1113.000
257.5080, 1165.000
258.7220, 1278.000
259.9360, 1399.000
261.1490, 1606.000
262.3630, 1767.000
263.5760, 1879.000
264.7890, 2007.000
266.0020, 2077.000
267.2150, 1876.000
268.4270, 1597.000
269.6400, 1298.000
270.8520, 1098.000
272.0640, 962.0000
273.2760, 877.0000
274.4880, 883.0000
275.7000, 870.0000
276.9120, 843.0000
278.1230, 876.0000
279.3340, 891.0000
280.5450, 858.0000
281.7560, 895.0000
282.9670, 921.0000
284.1780, 932.0000
285.3880, 984.0000
286.5980, 1012.000
287.8090, 1081.000
289.0190, 1157.000
290.2290, 1202.000
291.4380, 1254.000
292.6480, 1353.000
293.8570, 1441.000
295.0670, 1535.000
296.2760, 1597.000
297.4850, 1649.000
298.6930, 1747.000
299.9020, 1874.000
301.1110, 2093.000
302.3190, 2414.000
303.5270, 2993.000
304.7350, 3350.000
305.9430, 3719.000
307.1510, 4231.000
308.3580, 5093.000
309.5660, 5909.000
310.7730, 6487.000
311.9800, 7147.000
313.1870, 7093.000
314.3940, 6614.000
315.6010, 5547.000
316.8070, 4578.000
318.0130, 3728.000
319.2200, 3262.000
320.4260, 3259.000
321.6310, 3330.000
322.8370, 3501.000
324.0430, 3624.000
325.2480, 3772.000
326.4540, 3605.000
327.6590, 3367.000
328.8640, 2844.000
330.0680, 2524.000
331.2730, 2286.000
332.4780, 2291.000
333.6820, 2258.000
334.8860, 2300.000
336.0900, 2534.000
337.2940, 2755.000
338.4980, 3079.000
339.7010, 3719.000
340.9050, 4511.000
342.1080, 5714.000
343.3110, 7097.000
344.5140, 8636.000
345.7170, 10214.02
346.9200, 11540.00
348.1220, 13774.00
349.3240, 15885.00
350.5270, 17953.00
351.7290, 19318.00
352.9310, 19716.00
354.1320, 19151.00
355.3340, 17642.00
356.5350, 16250.00
357.7370, 16178.00
358.9380, 17790.00
360.1390, 21024.00
361.3400, 25698.00
362.5400, 31200.00
363.7410, 36988.00
364.9410, 43036.00
366.1410, 49646.00
367.3410, 56580.00
368.5410, 61590.00
369.7410, 64484.00
370.9400, 63979.00
372.1400, 60978.00
373.3390, 53426.00
374.5380, 44136.00
375.7370, 34883.00
376.9360, 26582.00
378.1350, 20535.00
379.3330, 16028.00
380.5310, 12738.00
381.7300, 10390.00
382.9280, 8805.000
384.1260, 7474.000
385.3230, 6396.000
386.5210, 5418.000
387.7180, 4679.000
388.9160, 4042.000
390.1130, 3726.000
391.3100, 3282.000
392.5060, 3047.000
393.7030, 2815.000
394.9000, 2640.000
396.0960, 2474.000
397.2920, 2378.000
398.4880, 2284.000
399.6840, 2162.000
400.8800, 2069.000
402.0750, 2004.000
403.2710, 1883.000
404.4660, 1841.000
405.6610, 1805.000
406.8560, 1724.000
408.0510, 1706.000
409.2450, 1653.000
410.4400, 1582.000
411.6340, 1544.000
412.8280, 1539.000
414.0220, 1473.000
415.2160, 1452.000
416.4100, 1409.000
417.6030, 1377.000
418.7970, 1393.000
419.9900, 1363.000
421.1830, 1347.000
422.3760, 1323.000
423.5690, 1302.199
424.7610, 1284.000
425.9540, 1265.000
427.1460, 1263.264
428.3380, 1217.000
429.5300, 1271.000
430.7220, 1266.000
431.9140, 1282.000
433.1050, 1256.000
434.2970, 1288.000
435.4880, 1285.000
436.6790, 1292.000
437.8700, 1345.000
439.0610, 1389.000
440.2510, 1441.000
441.4420, 1515.000
442.6320, 1643.000
443.8220, 1760.000
445.0120, 1905.977
446.2020, 2090.000
447.3910, 2252.000
448.5810, 2457.000
449.7700, 2680.000
450.9600, 2783.000
452.1490, 2853.000
453.3370, 2775.000
454.5260, 2553.000
455.7150, 2284.000
456.9030, 1961.000
458.0910, 1752.000
459.2800, 1576.000
460.4670, 1494.000
461.6550, 1401.000
462.8430, 1310.000
464.0300, 1313.000
465.2180, 1266.000
466.4050, 1282.000
467.5920, 1283.000
468.7790, 1284.000
469.9650, 1315.000
471.1520, 1334.000
472.3380, 1333.000
473.5250, 1385.000
474.7110, 1422.000
475.8970, 1475.000
477.0820, 1500.000
478.2680, 1679.000
479.4540, 1750.000
480.6390, 1850.000
481.8240, 2133.000
483.0090, 2375.000
484.1940, 2804.000
485.3780, 3210.000
486.5630, 3705.000
487.7470, 4158.000
488.9320, 4804.000
490.1160, 5340.000
491.3000, 5968.000
492.4830, 6155.000
493.6670, 6290.000
494.8500, 6011.000
496.0340, 5668.000
497.2170, 5090.000
498.4000, 4519.000
499.5820, 4227.000
500.7650, 3977.000
501.9480, 4225.000
503.1300, 4608.000
504.3120, 5404.000
505.4940, 6656.000
506.6760, 8503.000
507.8580, 10873.00
509.0390, 13244.00
510.2210, 15963.00
511.4020, 18789.00
512.5830, 21816.00
513.7640, 24451.00
514.9450, 26338.00
516.1250, 25947.00
517.3060, 24634.00
518.4860, 21697.00
519.6660, 17496.00
520.8460, 13605.00
522.0260, 10575.00
523.2060, 8238.000
524.3850, 6623.000
525.5650, 5493.000
526.7440, 4758.000
527.9230, 4177.000
529.1020, 3687.000
530.2810, 3345.000
531.4590, 3153.000
532.6380, 3023.000
533.8160, 2756.000
534.9940, 2719.000
536.1720, 2608.000
537.3500, 2552.000
538.5270, 2520.000
539.7050, 2425.000
540.8820, 2447.627
542.0590, 2512.000
543.2360, 2494.000
544.4130, 2561.000
545.5900, 2627.000
546.7660, 2689.000
547.9430, 2848.000
549.1190, 3002.000
550.2950, 3128.000
551.4710, 3257.000
552.6470, 3246.000
553.8220, 3232.000
554.9980, 3007.000
556.1730, 2776.000
557.3480, 2533.000
558.5230, 2284.000
559.6980, 2050.000
560.8730, 1951.000
562.0470, 1819.000
563.2220, 1790.000
564.3960, 1747.000
565.5700, 1742.000
566.7440, 1853.000
567.9170, 1856.000
569.0910, 1912.000
570.2640, 1997.000
571.4380, 2079.000
572.6110, 2161.000
573.7840, 2245.000
574.9570, 2314.000
576.1290, 2335.000
577.3020, 2282.000
578.4740, 2074.000
579.6460, 1956.000
580.8180, 1783.000
581.9900, 1674.000
583.1620, 1556.000
584.3330, 1538.000
585.5040, 1480.000
586.6760, 1449.000
587.8470, 1460.000
589.0180, 1410.000
590.1880, 1426.000
591.3590, 1415.000
592.5290, 1391.000
593.7000, 1296.000
594.8700, 1320.000
596.0400, 1290.000
597.2090, 1325.000
598.3790, 1277.000
599.5490, 1271.000
600.7180, 1247.000
601.8870, 1258.000
603.0560, 1258.000
604.2250, 1261.000
605.3940, 1243.000
606.5620, 1218.000
607.7300, 1130.000
608.8990, 1185.000
610.0670, 1140.000
611.2350, 1129.000
612.4020, 1137.000
613.5700, 1130.000
614.7370, 1149.000
615.9050, 1112.000
617.0720, 1136.000
618.2390, 1115.000
619.4060, 1083.000
620.5720, 1082.000
621.7390, 1058.000
622.9050, 1047.000
624.0710, 1066.000
625.2370, 1094.000
626.4030, 1087.000
627.5690, 1075.000
628.7340, 1093.000
629.9000, 1058.000
631.0650, 1078.000
632.2300, 1068.000
633.3950, 1070.000
634.5600, 1074.000
635.7240, 1120.000
636.8890, 1070.000
638.0530, 1080.000
639.2170, 1030.000
640.3810, 1088.000
641.5450, 1091.000
642.7080, 1058.000
643.8720, 1096.000
645.0350, 1083.000
646.1980, 1055.000
647.3610, 1057.000
648.5240, 1078.000
649.6870, 1093.000
650.8490, 1075.000
652.0120, 1067.000
653.1740, 1073.000
654.3360, 1084.000
655.4980, 1061.000
656.6600, 1063.000
657.8210, 1057.000
658.9830, 1057.000
660.1440, 1040.000
661.3050, 1032.000
662.4660, 1011.000
663.6270, 1041.000
664.7870, 1013.000
665.9480, 1053.000
667.1080, 1048.000
668.2680, 1041.000
669.4280, 1054.000
670.5880, 1049.000
671.7480, 1044.000
672.9070, 1045.000
674.0670, 1032.000
675.2260, 1035.000
676.3850, 1042.000
677.5440, 1023.000
678.7030, 1065.000
679.8610, 1028.000
681.0200, 1058.000
682.1780, 1044.000
683.3360, 1018.000
684.4940, 1028.000
685.6520, 1040.000
686.8090, 1044.000
687.9670, 990.0000
689.1240, 1008.000
690.2810, 986.0000
691.4380, 1025.000
692.5950, 1018.000
693.7520, 1002.000
694.9080, 1042.000
696.0650, 1058.000
697.2210, 1037.000
698.3770, 1016.000
699.5330, 1063.000
700.6880, 1076.000
701.8440, 1030.000
702.9990, 1020.000
704.1550, 1040.000
705.3100, 1063.000
706.4650, 1062.000
707.6190, 1053.000
708.7740, 1091.000
709.9290, 1062.000
711.0830, 1069.000
712.2370, 1052.000
713.3910, 1058.000
714.5450, 1072.000
715.6980, 1053.000
716.8520, 1041.000
718.0050, 1052.000
719.1580, 1026.000
720.3110, 1055.000
721.4640, 1067.000
722.6170, 1018.000
723.7700, 1055.000
724.9220, 1067.000
726.0740, 1028.000
727.2260, 1063.000
728.3780, 1010.000
729.5300, 1018.000
730.6810, 1031.000
731.8330, 1016.000
732.9840, 1029.000
734.1350, 1022.000
735.2860, 1056.000
736.4370, 1054.000
737.5880, 1048.000
738.7380, 1004.000
739.8880, 1036.000
741.0390, 1042.000
742.1890, 1036.000
743.3380, 1053.000
744.4880, 1045.000
745.6380, 1044.466
746.7870, 1076.000
747.9360, 1039.000
749.0850, 1033.000
750.2340, 1037.000
751.3830, 1051.000
752.5310, 1046.000
753.6800, 1049.213
754.8280, 1021.000
755.9760, 1033.000
757.1240, 1030.000
758.2720, 995.0000
759.4190, 1040.000
760.5670, 1008.000
761.7140, 1011.000
762.8610, 974.0000
764.0080, 995.0000
765.1550, 1031.000
766.3020, 1048.000
767.4480, 1066.000
768.5950, 1036.000
769.7410, 1095.000
770.8870, 1108.000
772.0330, 1098.000
773.1780, 1139.000
774.3240, 1132.000
775.4690, 1120.000
776.6140, 1146.000
777.7590, 1171.000
778.9040, 1191.000
780.0490, 1209.000
781.1940, 1176.000
782.3380, 1258.000
783.4820, 1253.000
784.6260, 1262.000
785.7700, 1325.000
786.9140, 1370.000
788.0580, 1462.000
789.2010, 1503.000
790.3450, 1596.000
791.4880, 1618.000
792.6310, 1728.000
793.7730, 1797.000
794.9160, 1929.000
796.0590, 2041.000
797.2010, 2218.000
798.3430, 2369.000
799.4850, 2533.000
800.6270, 2714.000
801.7690, 2929.000
802.9100, 3356.000
804.0520, 3762.000
805.1930, 4428.000
806.3340, 5115.000
807.4750, 6166.000
808.6160, 7311.000
809.7560, 8682.000
810.8970, 10173.00
812.0370, 11744.00
813.1770, 12881.00
814.3170, 14019.00
815.4570, 14660.00
816.5960, 14505.00
817.7360, 13562.00
818.8750, 12321.00
820.0140, 10713.00
821.1530, 9049.000
822.2920, 7723.000
823.4310, 6715.000
824.5690, 6112.000
825.7070, 5674.000
826.8460, 5437.000
827.9840, 5460.000
829.1220, 5597.000
830.2590, 5914.000
831.3970, 6313.000
832.5340, 7004.000
833.6710, 8009.000
834.8080, 8921.000
835.9450, 10131.00
837.0820, 11615.00
838.2190, 13073.00
839.3550, 14359.00
840.4910, 15394.00
841.6270, 15783.00
842.7630, 15674.00
843.8990, 14778.00
845.0350, 13557.00
846.1700, 11759.00
847.3060, 10239.00
848.4410, 8990.000
849.5760, 7785.000
850.7100, 7057.000
851.8450, 6289.000
852.9800, 5724.000
854.1140, 5377.000
855.2480, 5233.000
856.3820, 5196.000
857.5160, 5165.000
858.6500, 5354.000
859.7830, 5658.000
860.9170, 6111.000
862.0500, 6680.000
863.1830, 7620.000
864.3160, 8887.000
865.4480, 10790.00
866.5810, 13204.00
867.7130, 16367.00
868.8460, 19846.00
869.9780, 23683.00
871.1100, 27455.00
872.2410, 30597.00
873.3730, 32684.00
874.5050, 32563.00
875.6360, 30282.00
876.7670, 25849.00
877.8980, 20823.00
879.0290, 15816.00
880.1590, 12032.00
881.2900, 9150.000
882.4200, 7102.000
883.5500, 5683.000
884.6800, 4696.000
885.8100, 3963.000
886.9400, 3465.000
888.0690, 3118.000
889.1990, 2804.000
890.3280, 2509.000
891.4570, 2354.000
892.5860, 2166.000
893.7140, 2086.000
894.8430, 1919.000
895.9710, 1840.000
897.1000, 1824.000
898.2280, 1692.000
899.3560, 1615.000
900.4830, 1622.000
901.6110, 1546.000
902.7380, 1570.000
903.8660, 1491.000
904.9930, 1456.000
906.1200, 1469.000
907.2460, 1424.000
908.3730, 1420.000
909.5000, 1359.000
910.6260, 1354.000
911.7520, 1302.000
912.8780, 1357.000
914.0040, 1270.000
915.1290, 1287.000
916.2550, 1234.000
917.3800, 1224.000
918.5050, 1219.000
919.6300, 1189.000
920.7550, 1165.000
921.8800, 1149.000
923.0040, 1158.000
924.1290, 1128.000
925.2530, 1144.000
926.3770, 1111.000
927.5010, 1082.000
928.6250, 1104.000
929.7480, 1105.000
930.8720, 1077.000
931.9950, 1043.000
933.1180, 1039.000
934.2410, 1047.000
935.3640, 1024.000
936.4860, 1056.000
937.6090, 1004.000
938.7310, 1024.000
939.8530, 1019.000
940.9750, 1015.000
942.0970, 1012.000
943.2180, 1031.000
944.3400, 1051.000
945.4610, 1052.346
946.5820, 1036.000
947.7030, 1058.000
948.8240, 1056.000
949.9450, 1041.000
951.0650, 1083.000
952.1860, 1005.000
953.3060, 1046.000
954.4260, 1055.000
955.5460, 1067.000
956.6650, 1056.000
957.7850, 1030.000
958.9040, 1067.000
960.0230, 1045.000
961.1420, 1040.000
962.2610, 1100.000
963.3800, 1089.000
964.4990, 1153.000
965.6170, 1109.000
966.7350, 1106.000
967.8530, 1140.000
968.9710, 1119.000
970.0890, 1168.000
971.2070, 1159.000
972.3240, 1187.000
973.4410, 1207.000
974.5580, 1209.000
975.6750, 1232.140
976.7920, 1239.000
977.9090, 1256.000
979.0250, 1292.000
980.1410, 1296.000
981.2580, 1346.000
982.3740, 1372.000
983.4890, 1436.000
984.6050, 1502.000
985.7200, 1596.000
986.8360, 1773.000
987.9510, 1981.000
989.0660, 2269.000
990.1810, 2624.000
991.2950, 2993.000
992.4100, 3419.000
993.5240, 3784.000
994.6390, 4029.000
995.7530, 4060.000
996.8660, 3870.000
997.9800, 3506.000
999.0940, 3013.000
1000.207, 2550.000
1001.320, 2104.000
1002.433, 1847.000
1003.546, 1655.000
1004.659, 1523.000
1005.772, 1376.000
1006.884, 1328.000
1007.996, 1243.000
1009.108, 1207.000
1010.220, 1141.000
1011.332, 1100.000
1012.444, 1108.000
1013.555, 1098.000
1014.666, 1112.000
1015.777, 1090.000
1016.888, 1040.000
1017.999, 1023.000
1019.110, 1033.000
1020.220, 1006.000
1021.331, 1010.000
1022.441, 971.0000
1023.551, 991.0000
1024.661, 976.0000
1025.770, 955.0000
1026.880, 987.0000
1027.989, 953.0000
1029.098, 959.0000
1030.207, 955.3530
1031.316, 944.0000
1032.425, 938.0000
1033.533, 941.0000
1034.642, 926.0000
1035.750, 913.0000
1036.858, 929.0000
1037.966, 888.0000
1039.073, 895.0000
1040.181, 893.0000
1041.288, 871.0000
1042.396, 871.0000
1043.503, 863.9289
1044.610, 869.0000
1045.716, 859.0000
1046.823, 857.0000
1047.929, 860.0000
1049.036, 850.0000
1050.142, 864.0000
1051.248, 862.0000
1052.353, 847.0000
1053.459, 847.0000
1054.564, 856.0000
1055.670, 861.0000
1056.775, 872.0000
1057.880, 881.1878
1058.985, 887.0000
1060.089, 900.0000
1061.194, 910.0000
1062.298, 914.2196
1063.402, 921.0000
1064.506, 915.0000
1065.610, 925.0000
1066.713, 925.0000
1067.817, 933.0000
1068.920, 938.0000
1070.023, 946.0000
1071.126, 967.0000
1072.229, 959.0000
1073.332, 976.0000
1074.435, 1009.000
1075.537, 1021.000
1076.639, 1056.000
1077.741, 1049.000
1078.843, 1026.000
1079.945, 1095.000
1081.046, 1091.000
1082.148, 1092.000
1083.249, 1126.000
1084.350, 1132.000
1085.451, 1161.000
1086.551, 1125.000
1087.652, 1144.000
1088.752, 1134.000
1089.853, 1146.000
1090.953, 1143.000
1092.053, 1194.000
1093.152, 1183.000
1094.252, 1194.000
1095.351, 1209.000
1096.451, 1210.000
1097.550, 1224.718
1098.649, 1204.000
1099.748, 1234.000
1100.846, 1208.000
1101.945, 1183.000
1103.043, 1251.000
1104.141, 1227.000
1105.239, 1224.000
1106.337, 1214.000
1107.434, 1215.000
1108.532, 1196.000
1109.629, 1204.000
1110.726, 1190.256
1111.823, 1183.000
1112.920, 1169.000
1114.017, 1140.000
1115.113, 1124.000
1116.210, 1086.000
1117.306, 1070.000
1118.402, 1074.000
1119.498, 1101.000
1120.593, 1045.000
1121.689, 1040.000
1122.784, 1041.000
1123.879, 1018.000
1124.974, 995.0000
1126.069, 964.0000
1127.164, 974.0000
1128.259, 951.0000
1129.353, 934.0000
1130.447, 941.0000
1131.541, 934.0000
1132.635, 919.0000
1133.729, 905.0000
1134.822, 901.2755
1135.916, 880.0000
1137.009, 894.0000
1138.102, 884.0000
1139.195, 884.0000
1140.288, 910.0000
1141.380, 898.0000
1142.473, 896.0000
1143.565, 876.0000
1144.657, 855.0000
1145.749, 900.0000
1146.841, 886.0000
1147.932, 911.0000
1149.024, 922.0000
1150.115, 897.0000
1151.206, 898.0000
1152.297, 883.0000
1153.388, 905.0000
1154.479, 933.0000
1155.569, 963.0000
1156.659, 958.0000
1157.750, 938.0000
1158.839, 939.0000
1159.929, 934.4980
1161.019, 967.0000
1162.108, 942.0000
1163.198, 968.0000
1164.287, 989.0000
1165.376, 975.0000
1166.465, 948.0000
1167.553, 1015.000
1168.642, 987.0000
1169.730, 994.0000
1170.818, 1020.000
1171.906, 1018.000
1172.994, 1038.000
1174.082, 1041.322
1175.170, 1045.000
1176.257, 1044.000
1177.344, 1046.000
1178.431, 1041.000
1179.518, 1050.000
1180.605, 1067.000
1181.691, 1084.000
1182.778, 1080.232
1183.864, 1066.000
1184.950, 1073.000
1186.036, 1059.000
1187.122, 1055.000
1188.207, 1079.000
1189.292, 1059.000
1190.378, 1030.000
1191.463, 1001.000
1192.548, 1060.000
1193.632, 1017.000
1194.717, 1036.000
1195.801, 987.0000
1196.886, 1008.000
1197.970, 1003.000
1199.054, 991.0000
1200.137, 993.2743
1201.221, 978.0000
1202.305, 978.0000
1203.388, 954.0000
1204.471, 946.8362
1205.554, 964.0000
1206.637, 953.0000
1207.719, 963.0000
1208.802, 977.0000
1209.884, 953.0000
1210.966, 954.1471
1212.048, 905.0000
1213.130, 923.0000
1214.212, 930.0000
1215.293, 906.0000
1216.374, 927.0000
1217.456, 869.0000
1218.536, 868.0000
1219.617, 851.0000
1220.698, 904.0000
1221.778, 862.0000
1222.859, 842.0000
1223.939, 838.0000
1225.019, 816.0000
1226.099, 800.0000
1227.178, 830.0000
1228.258, 820.0000
1229.337, 811.0000
1230.417, 778.0000
1231.496, 753.0000
1232.574, 771.0000
1233.653, 774.0000
1234.732, 778.0000
1235.810, 783.0000
1236.888, 772.0000
1237.966, 747.0000
1239.044, 744.0000
1240.122, 744.0000
1241.199, 761.0000
1242.277, 726.0000
1243.354, 704.0000
1244.431, 724.0000
1245.508, 732.0000
1246.585, 722.0000
1247.661, 724.0000
1248.738, 734.0000
1249.814, 732.0000
1250.890, 717.0000
1251.966, 711.0000
1253.042, 740.0000
1254.117, 692.0000
1255.193, 732.0000
1256.268, 727.0000
1257.343, 742.0000
1258.418, 723.0000
1259.493, 700.0000
1260.567, 734.0000
1261.642, 727.0000
1262.716, 729.0000
1263.790, 713.0000
1264.864, 713.6008
1265.938, 728.0000
1267.011, 711.0000
1268.085, 696.0000
1269.158, 702.0000
1270.231, 716.0000
1271.304, 724.0000
1272.377, 728.0000
1273.450, 709.0000
1274.522, 706.0000
1275.594, 710.0000
1276.666, 726.0000
1277.738, 736.0000
1278.810, 713.0000
1279.882, 734.0000
1280.953, 719.0000
1282.025, 730.0000
1283.096, 739.0000
1284.167, 756.0000
1285.238, 748.0000
1286.308, 734.0000
1287.379, 715.0000
1288.449, 748.0000
1289.519, 743.0000
1290.589, 767.0000
1291.659, 730.0000
1292.729, 756.0000
1293.798, 738.0000
1294.868, 735.0000
1295.937, 754.0000
1297.006, 741.0000
1298.075, 750.0000
1299.143, 718.0000
1300.212, 728.0000
1301.280, 707.0000
1302.348, 722.0000
1303.416, 745.0000
1304.484, 706.0000
1305.552, 746.0000
1306.620, 724.0000
1307.687, 719.0000
1308.754, 720.0000
1309.821, 713.0000
1310.888, 729.0000
1311.955, 734.0000
1313.021, 725.0000
1314.088, 714.0000
1315.154, 728.0000
1316.220, 728.0000
1317.286, 725.0000
1318.352, 728.0000
1319.417, 762.0000
1320.483, 751.0000
1321.548, 746.0000
1322.613, 703.0000
1323.678, 707.0000
1324.743, 748.0000
1325.807, 767.0000
1326.872, 728.0000
1327.936, 745.0000
1329.000, 721.0000
1330.064, 728.0000
1331.128, 758.0000
1332.191, 729.0000
1333.255, 744.0000
1334.318, 734.0000
1335.381, 752.0000
1336.444, 723.0000
1337.507, 741.0000
1338.569, 777.0000
1339.632, 758.0000
1340.694, 775.0000
1341.756, 761.0000
1342.818, 785.0000
1343.880, 776.0000
1344.941, 784.0000
1346.003, 766.0000
1347.064, 775.0000
1348.125, 799.0000
1349.186, 796.0000
1350.247, 820.0000
1351.308, 816.7626
1352.368, 796.0000
1353.428, 822.0000
1354.489, 801.0000
1355.549, 823.0000
1356.608, 808.0000
1357.668, 825.0000
1358.727, 807.0000
1359.787, 822.0000
1360.846, 832.0000
1361.905, 829.0000
1362.964, 840.0000
1364.022, 825.0000
1365.081, 829.0000
1366.139, 806.0000
1367.197, 829.0000
1368.255, 806.0000
1369.313, 844.0000
1370.371, 805.0000
1371.428, 842.0000
1372.486, 830.0000
1373.543, 805.0000
1374.600, 778.0000
1375.657, 781.4802
1376.713, 834.0000
1377.770, 792.0000
1378.826, 792.0000
1379.882, 811.0000
1380.938, 775.0000
1381.994, 837.0000
1383.050, 817.0000
1384.106, 792.0000
1385.161, 803.0000
1386.216, 798.0000
1387.271, 815.0000
1388.326, 826.0000
1389.381, 825.0000
1390.435, 825.0000
1391.490, 823.0000
1392.544, 803.0000
1393.598, 784.0000
1394.652, 799.0000
1395.705, 811.0000
1396.759, 820.0000
1397.812, 823.0000
1398.866, 821.0000
1399.919, 834.0000
1400.972, 828.2570
1402.024, 839.0000
1403.077, 828.0000
1404.129, 822.0000
1405.181, 831.0000
1406.233, 804.0000
1407.285, 838.0000
1408.337, 815.0000
1409.389, 806.0000
1410.440, 806.0000
1411.491, 803.0000
1412.542, 797.0000
1413.593, 825.0000
1414.644, 767.0000
1415.695, 763.0000
1416.745, 777.0000
1417.795, 784.0000
1418.845, 788.0000
1419.895, 771.0000
1420.945, 769.0000
1421.995, 743.0000
1423.044, 745.4044
1424.093, 752.0000
1425.142, 747.0000
1426.191, 768.0000
1427.240, 778.0000
1428.289, 739.0000
1429.337, 746.0000
1430.385, 730.0000
1431.433, 745.0000
1432.481, 738.0000
1433.529, 758.0000
1434.577, 738.0000
1435.624, 754.0000
1436.672, 747.0000
1437.719, 726.0000
1438.766, 765.0000
1439.812, 716.0000
1440.859, 730.0000
1441.905, 741.0000
1442.952, 742.0000
1443.998, 739.0000
1445.044, 735.0000
1446.090, 728.0000
1447.135, 738.0000
1448.181, 725.0000
1449.226, 710.0000
1450.271, 715.0000
1451.316, 730.0000
1452.361, 720.0000
1453.405, 741.0000
1454.450, 713.0000
1455.494, 706.0000
1456.538, 706.0000
1457.582, 702.0000
1458.626, 708.3625
1459.670, 743.0000
1460.713, 725.0000
1461.757, 726.0000
1462.800, 735.0000
1463.843, 710.0000
1464.886, 727.0000
1465.928, 711.0000
1466.971, 719.0000
1468.013, 708.0000
1469.055, 720.0000
1470.097, 715.0000
1471.139, 748.0000
1472.181, 717.0000
1473.222, 726.0000
1474.263, 740.0000
1475.305, 717.0000
1476.346, 712.0000
1477.386, 753.0000
1478.427, 703.0000
1479.468, 732.0000
1480.508, 726.0000
1481.548, 753.0000
1482.588, 709.0000
1483.628, 727.0000
1484.668, 720.0000
1485.707, 733.0000
1486.747, 727.0000
1487.786, 755.0000
1488.825, 736.0000
1489.864, 735.0000
1490.902, 749.0000
1491.941, 725.0000
1492.979, 728.0000
1494.017, 750.0000
1495.055, 742.0000
1496.093, 751.0000
1497.131, 749.0000
1498.168, 723.0000
1499.206, 754.0000
1500.243, 738.0000
1501.280, 778.0000
1502.317, 734.0000
1503.354, 724.0000
1504.390, 701.0000
1505.426, 699.3424
1506.463, 701.8201
1507.499, 718.0000
1508.535, 713.0000
1509.570, 736.0000
1510.606, 727.0000
1511.641, 722.0000
1512.676, 714.0000
1513.711, 690.0000
1514.746, 695.0000
1515.781, 688.0000
1516.816, 705.0000
1517.850, 724.0000
1518.884, 681.0000
1519.918, 724.0000
1520.952, 687.0000
1521.986, 681.0000
1523.019, 682.0000
1524.053, 684.0000
1525.086, 691.0000
1526.119, 710.0000
1527.152, 700.0000
1528.185, 705.0000
1529.217, 737.0000
1530.250, 726.0000
1531.282, 716.0000
1532.314, 703.0000
1533.346, 697.0000
1534.377, 706.0000
1535.409, 693.0000
1536.440, 697.0000
1537.472, 720.0000
1538.503, 663.0000
1539.534, 710.0000
1540.564, 684.0000
1541.595, 670.0000
1542.625, 662.0000
1543.656, 639.0000
1544.686, 697.0000
1545.716, 665.0000
1546.745, 680.0000
1547.775, 682.0000
1548.804, 653.0000
1549.834, 629.0000
1550.863, 635.0000
1551.892, 648.0000
1552.920, 629.0000
1553.949, 644.0000
1554.977, 662.0000
1556.006, 654.0000
1557.034, 644.0000
1558.062, 628.0000
1559.089, 624.0000
1560.117, 640.0000
1561.144, 657.0000
1562.172, 626.0000
1563.199, 641.0000
1564.226, 624.0000
1565.252, 648.0000
1566.279, 639.0000
1567.305, 626.0000
1568.332, 650.0000
1569.358, 634.0000
1570.384, 700.0000
##END=



