##NAMES=Andradite
##RRUFFID=R050311
##IDEAL CHEMISTRY=Ca_3_Fe^3+^_2_(SiO_4_)_3_
##LOCALITY=Calaveras County, California, USA
##OWNER=RRUFF
##SOURCE=Eugene Schlepp
##DESCRIPTION=Deep red crystals
##STATUS=The identification of this mineral has been confirmed by X-ray diffraction and chemical analysis
##URL=rruff.info/R050311
##MEASURED CHEMISTRY=(Ca_2.88_Mn_0.07_Fe^2+^_0.05_)_Σ=3_(Fe^3+^_1.39_Al_0.59_Ti_0.02_)_Σ=2_((Si_0.99_Al_0.01_)_Σ=1_O_4_)_3_
##PIN_ID=M00304
##ORIENTATION=Laser parallel to c* (0 0 1). Fiducial mark perpendicular to laser is parallel to a [1 0 0]
123.0580, 5228.522
124.2880, 5185.501
125.5190, 5302.000
126.7490, 5187.000
127.9790, 5305.000
129.2090, 5307.000
130.4390, 5520.000
131.6680, 5476.000
132.8980, 5388.000
134.1270, 5413.000
135.3560, 5385.000
136.5850, 5417.000
137.8140, 5500.000
139.0430, 5642.000
140.2710, 5643.000
141.5000, 5537.000
142.7280, 5405.000
143.9560, 5409.000
145.1840, 5446.000
146.4120, 5440.000
147.6390, 5444.000
148.8670, 5475.000
150.0940, 5568.000
151.3210, 5770.000
152.5490, 5959.000
153.7750, 5773.000
155.0020, 5733.000
156.2290, 5695.000
157.4550, 5642.000
158.6810, 5691.809
159.9080, 5717.000
161.1340, 5846.000
162.3590, 5970.000
163.5850, 6143.000
164.8110, 6430.000
166.0360, 6554.470
167.2610, 6799.000
168.4860, 6912.000
169.7110, 7030.000
170.9360, 7212.000
172.1610, 7220.000
173.3850, 7417.000
174.6100, 7412.000
175.8340, 7469.000
177.0580, 7527.000
178.2820, 7489.000
179.5050, 7382.000
180.7290, 7120.000
181.9520, 7110.000
183.1760, 6855.000
184.3990, 6676.000
185.6220, 6520.000
186.8450, 6575.000
188.0670, 6581.000
189.2900, 6619.000
190.5120, 6589.000
191.7340, 6729.000
192.9560, 6682.000
194.1780, 6752.000
195.4000, 6702.000
196.6220, 6772.000
197.8430, 6815.000
199.0640, 6723.000
200.2860, 6810.000
201.5070, 6846.000
202.7270, 6926.000
203.9480, 6753.000
205.1690, 6537.000
206.3890, 6326.000
207.6090, 6297.000
208.8290, 6341.000
210.0490, 6265.000
211.2690, 6381.000
212.4890, 6488.000
213.7080, 6529.000
214.9280, 6648.000
216.1470, 6602.000
217.3660, 6715.000
218.5850, 6775.000
219.8030, 6835.000
221.0220, 6973.000
222.2400, 7065.000
223.4590, 7238.000
224.6770, 7471.000
225.8950, 7678.000
227.1120, 7888.000
228.3300, 8188.000
229.5480, 8505.000
230.7650, 8777.000
231.9820, 9063.000
233.1990, 9147.000
234.4160, 9158.000
235.6330, 9297.000
236.8490, 9298.000
238.0660, 9425.000
239.2820, 9401.000
240.4980, 9250.000
241.7140, 8936.000
242.9300, 8678.000
244.1460, 8249.000
245.3610, 7890.000
246.5770, 7399.000
247.7920, 7321.000
249.0070, 7170.000
250.2220, 7067.000
251.4370, 6995.000
252.6510, 6986.000
253.8660, 6947.000
255.0800, 7036.000
256.2940, 7093.000
257.5080, 7218.000
258.7220, 7809.000
259.9360, 7673.182
261.1490, 8507.000
262.3630, 7734.000
263.5760, 7546.000
264.7890, 7576.000
266.0020, 7766.000
267.2150, 7775.000
268.4270, 7753.000
269.6400, 7814.000
270.8520, 7909.000
272.0640, 7928.000
273.2760, 7821.000
274.4880, 7638.000
275.7000, 7754.000
276.9120, 7658.000
278.1230, 7753.000
279.3340, 7656.000
280.5450, 7623.000
281.7560, 7455.000
282.9670, 7477.000
284.1780, 7518.000
285.3880, 7429.000
286.5980, 7383.000
287.8090, 7331.000
289.0190, 7465.000
290.2290, 7525.000
291.4380, 7615.000
292.6480, 7645.000
293.8570, 7837.000
295.0670, 7755.000
296.2760, 7996.000
297.4850, 7824.000
298.6930, 7888.000
299.9020, 8134.000
301.1110, 8190.000
302.3190, 8315.000
303.5270, 8346.000
304.7350, 8633.000
305.9430, 8759.000
307.1510, 9112.000
308.3580, 9139.000
309.5660, 9543.000
310.7730, 9691.000
311.9800, 9815.000
313.1870, 9905.000
314.3940, 10216.00
315.6010, 10363.00
316.8070, 10493.00
318.0130, 10523.00
319.2200, 10641.00
320.4260, 10390.00
321.6310, 10405.00
322.8370, 10350.00
324.0430, 10140.00
325.2480, 10013.00
326.4540, 9917.000
327.6590, 10041.00
328.8640, 10255.00
330.0680, 10282.00
331.2730, 10384.00
332.4780, 10468.00
333.6820, 10592.00
334.8860, 10735.00
336.0900, 10868.00
337.2940, 10966.00
338.4980, 11198.00
339.7010, 11587.00
340.9050, 12044.00
342.1080, 12609.00
343.3110, 13367.00
344.5140, 14087.00
345.7170, 15029.00
346.9200, 16346.00
348.1220, 17527.00
349.3240, 18735.00
350.5270, 19941.00
351.7290, 21324.00
352.9310, 22678.00
354.1320, 24048.00
355.3340, 25715.00
356.5350, 27654.00
357.7370, 29787.00
358.9380, 32423.00
360.1390, 35249.00
361.3400, 38291.00
362.5400, 41120.00
363.7410, 43874.00
364.9410, 46077.00
366.1410, 48079.00
367.3410, 49979.00
368.5410, 51664.00
369.7410, 52833.00
370.9400, 53479.00
372.1400, 52336.00
373.3390, 50006.00
374.5380, 46709.00
375.7370, 41666.00
376.9360, 36937.00
378.1350, 32024.00
379.3330, 27345.00
380.5310, 23979.00
381.7300, 21155.00
382.9280, 18909.00
384.1260, 17032.00
385.3230, 15447.00
386.5210, 14372.00
387.7180, 13547.00
388.9160, 12760.00
390.1130, 12171.00
391.3100, 11506.00
392.5060, 10990.00
393.7030, 10605.00
394.9000, 10226.00
396.0960, 9944.000
397.2920, 9604.000
398.4880, 9322.000
399.6840, 9080.000
400.8800, 8997.000
402.0750, 8588.000
403.2710, 8545.000
404.4660, 8313.000
405.6610, 8290.000
406.8560, 8188.000
408.0510, 7992.000
409.2450, 8104.000
410.4400, 8012.000
411.6340, 7895.000
412.8280, 7836.000
414.0220, 7810.362
415.2160, 7792.000
416.4100, 7827.000
417.6030, 7850.000
418.7970, 7900.000
419.9900, 7944.000
421.1830, 7955.000
422.3760, 7935.000
423.5690, 7919.000
424.7610, 7932.000
425.9540, 8043.000
427.1460, 8033.000
428.3380, 7997.000
429.5300, 8184.000
430.7220, 8098.000
431.9140, 8227.000
433.1050, 8221.000
434.2970, 8268.000
435.4880, 8219.000
436.6790, 8409.000
437.8700, 8400.000
439.0610, 8385.000
440.2510, 8337.000
441.4420, 8431.000
442.6320, 8492.000
443.8220, 8596.000
445.0120, 8533.000
446.2020, 8661.000
447.3910, 8610.000
448.5810, 8749.000
449.7700, 8661.000
450.9600, 8715.000
452.1490, 8591.000
453.3370, 8703.000
454.5260, 8572.000
455.7150, 8567.000
456.9030, 8532.000
458.0910, 8432.000
459.2800, 8464.000
460.4670, 8425.000
461.6550, 8328.000
462.8430, 8426.000
464.0300, 8242.000
465.2180, 8197.000
466.4050, 8126.000
467.5920, 8185.000
468.7790, 8184.000
469.9650, 8178.000
471.1520, 8286.000
472.3380, 8383.000
473.5250, 8493.000
474.7110, 8686.000
475.8970, 8834.000
477.0820, 8987.470
478.2680, 9288.000
479.4540, 9322.000
480.6390, 9439.000
481.8240, 9636.000
483.0090, 9992.000
484.1940, 10196.00
485.3780, 10207.00
486.5630, 10294.00
487.7470, 10502.00
488.9320, 10565.00
490.1160, 10614.00
491.3000, 10609.00
492.4830, 10791.00
493.6670, 10848.00
494.8500, 10804.00
496.0340, 10711.00
497.2170, 10825.00
498.4000, 10675.00
499.5820, 10663.00
500.7650, 10424.00
501.9480, 10400.00
503.1300, 10249.00
504.3120, 10235.93
505.4940, 10471.00
506.6760, 10355.00
507.8580, 10559.00
509.0390, 10834.00
510.2210, 11270.00
511.4020, 11658.00
512.5830, 12308.00
513.7640, 13192.00
514.9450, 14294.00
516.1250, 15512.00
517.3060, 16961.00
518.4860, 18331.00
519.6660, 19705.00
520.8460, 21088.00
522.0260, 21910.00
523.2060, 22851.00
524.3850, 23403.00
525.5650, 23519.00
526.7440, 23186.00
527.9230, 22424.00
529.1020, 20887.00
530.2810, 19022.00
531.4590, 17165.00
532.6380, 15401.00
533.8160, 13751.00
534.9940, 12472.00
536.1720, 11587.00
537.3500, 11011.00
538.5270, 10419.00
539.7050, 10303.00
540.8820, 9876.000
542.0590, 9648.000
543.2360, 9469.000
544.4130, 9337.000
545.5900, 9267.879
546.7660, 9434.000
547.9430, 9259.000
549.1190, 9302.000
550.2950, 9376.000
551.4710, 9363.000
552.6470, 9387.000
553.8220, 9322.000
554.9980, 9356.000
556.1730, 9315.331
557.3480, 9249.000
558.5230, 9239.000
559.6980, 9155.000
560.8730, 9080.000
562.0470, 8934.000
563.2220, 8889.000
564.3960, 8789.555
565.5700, 8711.778
566.7440, 8643.000
567.9170, 8577.000
569.0910, 8533.000
570.2640, 8472.000
571.4380, 8395.000
572.6110, 8408.000
573.7840, 8478.000
574.9570, 8537.000
576.1290, 8513.000
577.3020, 8566.000
578.4740, 8523.000
579.6460, 8622.000
580.8180, 8633.000
581.9900, 8735.000
583.1620, 8690.000
584.3330, 8668.000
585.5040, 8650.000
586.6760, 8661.000
587.8470, 8704.000
589.0180, 8755.000
590.1880, 8912.000
591.3590, 8787.000
592.5290, 9016.000
593.7000, 8945.000
594.8700, 8871.000
596.0400, 9158.000
597.2090, 8997.000
598.3790, 9149.000
599.5490, 9090.000
600.7180, 9217.000
601.8870, 9081.000
603.0560, 9165.000
604.2250, 9198.000
605.3940, 9103.000
606.5620, 9059.000
607.7300, 9188.000
608.8990, 9005.000
610.0670, 9050.000
611.2350, 8987.000
612.4020, 8944.000
613.5700, 8833.000
614.7370, 8798.000
615.9050, 8693.000
617.0720, 8623.000
618.2390, 8616.000
619.4060, 8403.000
620.5720, 8245.000
621.7390, 8287.000
622.9050, 8045.000
624.0710, 8136.000
625.2370, 7993.000
626.4030, 7833.000
627.5690, 7916.000
628.7340, 7893.000
629.9000, 7921.000
631.0650, 7955.000
632.2300, 7668.000
633.3950, 7744.000
634.5600, 7750.000
635.7240, 7723.000
636.8890, 7785.000
638.0530, 7802.000
639.2170, 7712.000
640.3810, 7810.000
641.5450, 7669.000
642.7080, 7769.000
643.8720, 7630.000
645.0350, 7737.000
646.1980, 7703.000
647.3610, 7719.000
648.5240, 7665.000
649.6870, 7645.000
650.8490, 7598.000
652.0120, 7689.000
653.1740, 7734.000
654.3360, 7589.000
655.4980, 7653.000
656.6600, 7615.000
657.8210, 7663.000
658.9830, 7651.000
660.1440, 7645.314
661.3050, 7679.000
662.4660, 7659.000
663.6270, 7666.000
664.7870, 7729.000
665.9480, 7699.000
667.1080, 7727.000
668.2680, 7700.000
669.4280, 7749.000
670.5880, 7715.467
671.7480, 7702.000
672.9070, 7674.000
674.0670, 7583.000
675.2260, 7573.069
676.3850, 7692.000
677.5440, 7619.000
678.7030, 7709.000
679.8610, 7746.000
681.0200, 7594.000
682.1780, 7669.000
683.3360, 7770.000
684.4940, 7666.000
685.6520, 7645.000
686.8090, 7761.000
687.9670, 7712.000
689.1240, 7628.000
690.2810, 7556.000
691.4380, 7668.000
692.5950, 7703.000
693.7520, 7691.000
694.9080, 7655.000
696.0650, 7604.000
697.2210, 7701.000
698.3770, 7743.000
699.5330, 7742.000
700.6880, 7684.000
701.8440, 7695.000
702.9990, 7697.000
704.1550, 7707.000
705.3100, 7778.000
706.4650, 7729.000
707.6190, 7909.000
708.7740, 7802.000
709.9290, 7822.000
711.0830, 7769.000
712.2370, 7877.000
713.3910, 7755.000
714.5450, 7989.000
715.6980, 7841.000
716.8520, 7835.000
718.0050, 7798.000
719.1580, 8003.000
720.3110, 7967.000
721.4640, 7954.000
722.6170, 7927.000
723.7700, 7936.000
724.9220, 7989.000
726.0740, 7970.000
727.2260, 8011.562
728.3780, 8039.159
729.5300, 8070.000
730.6810, 8112.000
731.8330, 8147.000
732.9840, 8203.000
734.1350, 8196.528
735.2860, 8225.686
736.4370, 8211.000
737.5880, 8227.000
738.7380, 8294.000
739.8880, 8261.000
741.0390, 8211.000
742.1890, 8350.000
743.3380, 8260.000
744.4880, 8407.000
745.6380, 8353.000
746.7870, 8457.000
747.9360, 8474.000
749.0850, 8500.000
750.2340, 8530.000
751.3830, 8550.641
752.5310, 8567.000
753.6800, 8600.033
754.8280, 8651.000
755.9760, 8679.000
757.1240, 8703.000
758.2720, 8736.509
759.4190, 8758.000
760.5670, 8786.000
761.7140, 8819.000
762.8610, 8843.000
764.0080, 8819.000
765.1550, 8947.000
766.3020, 8859.000
767.4480, 8939.000
768.5950, 8949.000
769.7410, 8871.000
770.8870, 8760.000
772.0330, 8873.000
773.1780, 8833.000
774.3240, 8963.000
775.4690, 8793.000
776.6140, 8832.000
777.7590, 8842.000
778.9040, 8978.000
780.0490, 8980.000
781.1940, 9113.000
782.3380, 8946.000
783.4820, 9146.000
784.6260, 9174.000
785.7700, 9253.000
786.9140, 9367.000
788.0580, 9526.000
789.2010, 9660.000
790.3450, 9842.000
791.4880, 9841.000
792.6310, 10096.00
793.7730, 10301.00
794.9160, 10470.00
796.0590, 10830.00
797.2010, 11041.00
798.3430, 11408.73
799.4850, 11847.00
800.6270, 12193.00
801.7690, 12702.00
802.9100, 13169.00
804.0520, 13609.00
805.1930, 14040.00
806.3340, 14662.00
807.4750, 15113.00
808.6160, 15701.00
809.7560, 16136.00
810.8970, 16981.00
812.0370, 17479.00
813.1770, 18282.00
814.3170, 19009.00
815.4570, 19591.00
816.5960, 20041.00
817.7360, 20538.00
818.8750, 20654.00
820.0140, 20680.00
821.1530, 20457.00
822.2920, 20088.00
823.4310, 19842.00
824.5690, 18970.00
825.7070, 18639.00
826.8460, 18114.00
827.9840, 17313.00
829.1220, 16944.00
830.2590, 16683.00
831.3970, 16070.00
832.5340, 15766.00
833.6710, 15616.00
834.8080, 15478.77
835.9450, 15549.00
837.0820, 15663.00
838.2190, 15947.00
839.3550, 16266.00
840.4910, 16502.00
841.6270, 16697.00
842.7630, 16907.00
843.8990, 17148.00
845.0350, 17112.00
846.1700, 17198.00
847.3060, 17349.00
848.4410, 17142.00
849.5760, 17049.00
850.7100, 16740.00
851.8450, 16476.00
852.9800, 16419.00
854.1140, 16289.00
855.2480, 16135.00
856.3820, 16038.00
857.5160, 16225.00
858.6500, 16163.00
859.7830, 16512.00
860.9170, 16768.00
862.0500, 16991.00
863.1830, 17521.00
864.3160, 17887.00
865.4480, 18777.00
866.5810, 19607.00
867.7130, 20599.00
868.8460, 21513.00
869.9780, 22862.00
871.1100, 24399.00
872.2410, 25736.00
873.3730, 26978.00
874.5050, 28263.00
875.6360, 29156.00
876.7670, 29934.00
877.8980, 29859.00
879.0290, 29905.00
880.1590, 29079.00
881.2900, 27901.00
882.4200, 26671.00
883.5500, 25022.00
884.6800, 23108.00
885.8100, 21298.00
886.9400, 19775.00
888.0690, 18409.00
889.1990, 17066.00
890.3280, 16062.00
891.4570, 15263.00
892.5860, 14621.00
893.7140, 13996.00
894.8430, 13452.00
895.9710, 13029.00
897.1000, 12618.00
898.2280, 12289.00
899.3560, 12011.53
900.4830, 11877.00
901.6110, 11577.00
902.7380, 11492.00
903.8660, 11325.00
904.9930, 11138.00
906.1200, 11166.00
907.2460, 10883.00
908.3730, 10974.00
909.5000, 10879.00
910.6260, 10936.00
911.7520, 10778.00
912.8780, 10837.00
914.0040, 10660.00
915.1290, 10724.00
916.2550, 10522.00
917.3800, 10709.00
918.5050, 10553.00
919.6300, 10447.00
920.7550, 10598.00
921.8800, 10693.00
923.0040, 10726.00
924.1290, 10760.00
925.2530, 10819.27
926.3770, 10870.25
927.5010, 10947.00
928.6250, 10999.00
929.7480, 11156.00
930.8720, 11235.00
931.9950, 11109.00
933.1180, 11352.00
934.2410, 11386.00
935.3640, 11205.00
936.4860, 11521.00
937.6090, 11518.00
938.7310, 11503.00
939.8530, 11372.00
940.9750, 11325.00
942.0970, 11168.00
943.2180, 11125.00
944.3400, 11036.00
945.4610, 10898.00
946.5820, 10797.00
947.7030, 10799.00
948.8240, 10725.00
949.9450, 10552.00
951.0650, 10650.00
952.1860, 10611.00
953.3060, 10677.00
954.4260, 10746.00
955.5460, 10658.00
956.6650, 10830.00
957.7850, 10857.00
958.9040, 10926.00
960.0230, 10995.00
961.1420, 10990.00
962.2610, 11085.00
963.3800, 11117.20
964.4990, 11252.00
965.6170, 11261.00
966.7350, 11323.00
967.8530, 11493.00
968.9710, 11485.00
970.0890, 11760.00
971.2070, 11810.00
972.3240, 11959.00
973.4410, 12058.80
974.5580, 11948.00
975.6750, 12163.00
976.7920, 12170.00
977.9090, 12150.00
979.0250, 12280.00
980.1410, 12314.00
981.2580, 12402.00
982.3740, 12392.00
983.4890, 12381.17
984.6050, 12312.00
985.7200, 12336.00
986.8360, 12474.00
987.9510, 12548.00
989.0660, 12640.00
990.1810, 12705.82
991.2950, 12757.67
992.4100, 12808.00
993.5240, 12831.00
994.6390, 12884.00
995.7530, 12894.00
996.8660, 12863.00
997.9800, 12963.00
999.0940, 12888.00
1000.207, 12837.00
1001.320, 12656.00
1002.433, 12426.00
1003.546, 12285.00
1004.659, 11973.00
1005.772, 11718.00
1006.884, 11435.00
1007.996, 11065.00
1009.108, 10938.00
1010.220, 10810.00
1011.332, 10672.00
1012.444, 10673.00
1013.555, 10601.00
1014.666, 10639.00
1015.777, 10611.00
1016.888, 10684.00
1017.999, 10628.00
1019.110, 10692.00
1020.220, 10661.00
1021.331, 10738.00
1022.441, 10615.00
1023.551, 10536.00
1024.661, 10490.00
1025.770, 10477.00
1026.880, 10321.00
1027.989, 10198.00
1029.098, 10192.00
1030.207, 10207.00
1031.316, 10109.00
1032.425, 10165.00
1033.533, 10232.00
1034.642, 10254.00
1035.750, 10150.00
1036.858, 10128.00
1037.966, 10137.00
1039.073, 10143.00
1040.181, 10152.60
1041.288, 10145.12
1042.396, 10174.00
1043.503, 10139.00
1044.610, 10110.00
1045.716, 10130.00
1046.823, 10113.00
1047.929, 10140.00
1049.036, 10143.00
1050.142, 10192.00
1051.248, 10196.55
1052.353, 10138.00
1053.459, 10186.00
1054.564, 10210.00
1055.670, 10124.00
1056.775, 10222.00
1057.880, 10200.00
1058.985, 10115.00
1060.089, 10273.00
1061.194, 10267.00
1062.298, 10260.00
1063.402, 10184.00
1064.506, 10170.00
1065.610, 10178.79
1066.713, 10287.00
1067.817, 10270.00
1068.920, 10236.00
1070.023, 10389.00
1071.126, 10293.00
1072.229, 10146.00
1073.332, 10298.00
1074.435, 10371.00
1075.537, 10407.00
1076.639, 10340.00
1077.741, 10473.00
1078.843, 10359.00
1079.945, 10441.00
1081.046, 10385.00
1082.148, 10363.00
1083.249, 10489.00
1084.350, 10489.00
1085.451, 10499.00
1086.551, 10441.00
1087.652, 10517.00
1088.752, 10514.00
1089.853, 10561.00
1090.953, 10533.00
1092.053, 10491.00
1093.152, 10571.00
1094.252, 10596.00
1095.351, 10648.00
1096.451, 10682.00
1097.550, 10709.00
1098.649, 10694.00
1099.748, 10713.35
1100.846, 10704.00
1101.945, 10700.00
1103.043, 10682.00
1104.141, 10643.00
1105.239, 10661.00
1106.337, 10606.00
1107.434, 10768.00
1108.532, 10745.00
1109.629, 10753.00
1110.726, 10726.00
1111.823, 10640.00
1112.920, 10930.00
1114.017, 10824.00
1115.113, 10993.00
1116.210, 10877.00
1117.306, 10959.00
1118.402, 11114.00
1119.498, 11187.00
1120.593, 11218.00
1121.689, 11240.00
1122.784, 11229.00
1123.879, 11236.49
1124.974, 11183.00
1126.069, 11191.00
1127.164, 11101.00
1128.259, 11015.00
1129.353, 10859.00
1130.447, 10887.00
1131.541, 10726.00
1132.635, 10731.00
1133.729, 10767.00
1134.822, 10813.00
1135.916, 10758.00
1137.009, 10729.00
1138.102, 10748.00
1139.195, 10583.00
1140.288, 10890.00
1141.380, 10607.00
1142.473, 10673.00
1143.565, 10773.00
1144.657, 10606.00
1145.749, 10599.00
1146.841, 10687.00
1147.932, 10684.00
1149.024, 10817.00
1150.115, 10857.00
1151.206, 10772.00
1152.297, 10713.00
1153.388, 10772.00
1154.479, 10609.00
1155.569, 10679.00
1156.659, 10756.00
1157.750, 10678.00
1158.839, 10638.00
1159.929, 10656.00
1161.019, 10723.00
1162.108, 10726.00
1163.198, 10753.82
1164.287, 10873.00
1165.376, 10749.00
1166.465, 10767.00
1167.553, 10688.00
1168.642, 10844.00
1169.730, 10800.00
1170.818, 10838.00
1171.906, 10735.00
1172.994, 10789.00
1174.082, 10848.00
1175.170, 10891.00
1176.257, 10850.00
1177.344, 10896.00
1178.431, 10911.00
1179.518, 10920.08
1180.605, 10964.59
1181.691, 10950.00
1182.778, 11007.00
1183.864, 10995.00
1184.950, 10950.00
1186.036, 10948.00
1187.122, 11004.00
1188.207, 11049.00
1189.292, 11080.00
1190.378, 11078.03
1191.463, 11119.00
1192.548, 11021.00
1193.632, 11074.00
1194.717, 11001.00
1195.801, 11051.00
1196.886, 10937.00
1197.970, 11066.00
1199.054, 11062.00
1200.137, 11000.00
1201.221, 10980.00
1202.305, 11122.00
1203.388, 11142.00
1204.471, 11223.00
1205.554, 11298.00
1206.637, 11157.00
1207.719, 11206.00
1208.802, 11159.00
1209.884, 11099.00
1210.966, 11261.00
1212.048, 11150.00
1213.130, 11242.00
1214.212, 11207.00
1215.293, 11222.00
1216.374, 11213.00
1217.456, 11191.00
1218.536, 11202.00
1219.617, 11186.90
1220.698, 11179.34
1221.778, 11194.00
1222.859, 11177.00
1223.939, 11222.00
1225.019, 11257.00
1226.099, 11214.00
1227.178, 11242.00
1228.258, 11230.00
1229.337, 11257.00
1230.417, 11223.00
1231.496, 11249.00
1232.574, 11323.00
1233.653, 11142.00
1234.732, 11263.00
1235.810, 11195.00
1236.888, 11294.00
1237.966, 11125.00
1239.044, 11321.00
1240.122, 11153.00
1241.199, 11241.00
1242.277, 11185.00
1243.354, 11130.00
1244.431, 11182.00
1245.508, 11305.00
1246.585, 11257.00
1247.661, 11189.00
1248.738, 11320.00
1249.814, 11122.00
1250.890, 11089.00
1251.966, 11258.00
1253.042, 11186.00
1254.117, 11101.00
1255.193, 11177.00
1256.268, 11166.00
1257.343, 11212.00
1258.418, 11307.00
1259.493, 11175.00
1260.567, 11272.00
1261.642, 11298.00
1262.716, 11283.00
1263.790, 11193.00
1264.864, 11334.00
1265.938, 11300.00
1267.011, 11265.00
1268.085, 11364.00
1269.158, 11290.00
1270.231, 11395.00
1271.304, 11453.00
1272.377, 11278.00
1273.450, 11349.00
1274.522, 11302.11
1275.594, 11271.00
1276.666, 11268.00
1277.738, 11260.03
1278.810, 11312.00
1279.882, 11313.00
1280.953, 11331.00
1282.025, 11426.00
1283.096, 11365.00
1284.167, 11485.00
1285.238, 11404.00
1286.308, 11455.00
1287.379, 11488.00
1288.449, 11449.00
1289.519, 11481.00
1290.589, 11496.00
1291.659, 11512.00
1292.729, 11435.00
1293.798, 11602.00
1294.868, 11475.00
1295.937, 11580.00
1297.006, 11320.00
1298.075, 11556.00
1299.143, 11491.00
1300.212, 11638.00
1301.280, 11523.00
1302.348, 11501.00
1303.416, 11585.00
1304.484, 11488.00
1305.552, 11684.00
1306.620, 11503.00
1307.687, 11542.00
1308.754, 11702.00
1309.821, 11645.00
1310.888, 11553.00
1311.955, 11622.00
1313.021, 11699.00
1314.088, 11648.00
1315.154, 11660.00
1316.220, 11692.00
1317.286, 11540.00
1318.352, 11796.00
1319.417, 11571.00
1320.483, 11686.00
1321.548, 11665.00
1322.613, 11728.00
1323.678, 11890.00
1324.743, 11745.00
1325.807, 11763.00
1326.872, 11680.00
1327.936, 11726.00
1329.000, 11692.00
1330.064, 11701.27
1331.128, 11754.00
1332.191, 11738.00
1333.255, 11734.00
1334.318, 11752.00
1335.381, 11892.00
1336.444, 11804.00
1337.507, 12000.00
1338.569, 11975.00
1339.632, 11951.00
1340.694, 11883.00
1341.756, 11903.00
1342.818, 11864.00
1343.880, 11940.00
1344.941, 11856.00
1346.003, 11940.00
1347.064, 12026.00
1348.125, 12089.00
1349.186, 12059.00
1350.247, 12013.00
1351.308, 11946.00
1352.368, 11997.00
1353.428, 11936.00
1354.489, 12048.00
1355.549, 11997.00
1356.608, 11918.00
1357.668, 11981.00
1358.727, 11952.00
1359.787, 12125.00
1360.846, 11997.00
1361.905, 12116.00
1362.964, 12076.00
1364.022, 12204.00
1365.081, 12023.00
1366.139, 12204.00
1367.197, 12109.00
1368.255, 12182.00
1369.313, 12233.00
1370.371, 12210.00
1371.428, 12252.65
1372.486, 12242.68
1373.543, 12259.00
1374.600, 12239.00
1375.657, 12224.00
1376.713, 12251.00
1377.770, 12232.08
1378.826, 12198.00
1379.882, 12211.00
1380.938, 12227.00
1381.994, 12182.26
1383.050, 12211.00
1384.106, 12226.00
1385.161, 12235.00
1386.216, 12335.00
1387.271, 12235.00
1388.326, 12293.00
1389.381, 12413.00
1390.435, 12316.00
1391.490, 12474.00
1392.544, 12341.00
1393.598, 12357.00
1394.652, 12316.00
1395.705, 12401.00
1396.759, 12339.00
1397.812, 12388.00
1398.866, 12559.00
1399.919, 12379.00
1400.972, 12368.00
1402.024, 12424.00
1403.077, 12545.00
1404.129, 12550.00
1405.181, 12572.00
1406.233, 12521.00
1407.285, 12539.00
1408.337, 12573.00
1409.389, 12510.00
1410.440, 12616.00
1411.491, 12468.00
1412.542, 12390.00
1413.593, 12485.00
1414.644, 12577.00
1415.695, 12517.00
1416.745, 12532.00
1417.795, 12571.00
1418.845, 12702.00
1419.895, 12583.00
1420.945, 12676.00
1421.995, 12626.00
1423.044, 12577.00
1424.093, 12597.00
1425.142, 12748.00
1426.191, 12500.00
1427.240, 12757.00
1428.289, 12637.00
1429.337, 12805.00
1430.385, 12717.00
1431.433, 12769.00
1432.481, 12602.00
1433.529, 12675.00
1434.577, 12694.00
1435.624, 12693.00
1436.672, 12757.00
1437.719, 12713.00
1438.766, 12578.00
1439.812, 12765.00
1440.859, 12724.00
1441.905, 12826.00
1442.952, 12712.00
1443.998, 12788.00
1445.044, 12605.00
1446.090, 12899.00
1447.135, 12827.00
1448.181, 12767.00
1449.226, 12769.00
1450.271, 12769.41
1451.316, 12809.00
1452.361, 12832.00
1453.405, 12886.00
1454.450, 12903.00
1455.494, 12922.00
1456.538, 12993.00
1457.582, 12948.00
1458.626, 12867.00
1459.670, 12784.00
1460.713, 12904.00
1461.757, 12976.00
1462.800, 12850.00
1463.843, 12881.00
1464.886, 13017.00
1465.928, 12809.00
1466.971, 13063.00
1468.013, 12918.00
1469.055, 13091.00
1470.097, 12986.00
1471.139, 13058.00
1472.181, 13017.00
1473.222, 13107.00
1474.263, 13053.00
1475.305, 12961.00
1476.346, 12985.00
1477.386, 13096.00
1478.427, 12927.00
1479.468, 13036.00
1480.508, 13157.00
1481.548, 12969.00
1482.588, 13058.00
1483.628, 13183.00
1484.668, 13112.00
1485.707, 13201.00
1486.747, 13292.00
1487.786, 13300.00
1488.825, 13152.00
1489.864, 13099.00
1490.902, 13197.00
1491.941, 13153.00
1492.979, 13231.00
1494.017, 13263.00
1495.055, 13230.00
1496.093, 13314.00
1497.131, 13360.00
1498.168, 13237.00
1499.206, 13301.00
1500.243, 13369.00
1501.280, 13272.00
1502.317, 13377.00
1503.354, 13229.00
1504.390, 13271.00
1505.426, 13282.00
1506.463, 13291.00
1507.499, 13278.26
1508.535, 13435.00
1509.570, 13257.00
1510.606, 13376.00
1511.641, 13447.00
1512.676, 13619.00
1513.711, 13277.00
1514.746, 13422.00
1515.781, 13406.00
1516.816, 13442.00
1517.850, 13452.00
1518.884, 13465.00
1519.918, 13529.00
1520.952, 13542.00
1521.986, 13443.00
1523.019, 13552.00
1524.053, 13436.00
1525.086, 13469.00
1526.119, 13513.00
1527.152, 13549.00
1528.185, 13539.00
1529.217, 13518.00
1530.250, 13486.00
1531.282, 13524.00
1532.314, 13484.00
1533.346, 13530.00
1534.377, 13580.00
1535.409, 13654.00
1536.440, 13626.00
1537.472, 13595.00
1538.503, 13708.00
1539.534, 13690.00
1540.564, 13791.00
1541.595, 13771.55
1542.625, 13671.00
1543.656, 13731.00
1544.686, 13601.00
1545.716, 13567.00
1546.745, 13653.00
1547.775, 13831.00
1548.804, 13803.00
1549.834, 13875.00
1550.863, 13873.00
1551.892, 13918.85
1552.920, 13890.00
1553.949, 13997.00
1554.977, 14025.00
1556.006, 14022.00
1557.034, 13917.00
1558.062, 13955.43
1559.089, 13717.00
1560.117, 13905.00
1561.144, 13834.00
1562.172, 13714.00
1563.199, 13952.00
1564.226, 13945.00
1565.252, 13827.00
1566.279, 13890.00
1567.305, 13907.00
1568.332, 13814.00
1569.358, 13866.00
1570.384, 13797.00
##END=



