##NAMES=Andradite
##RRUFFID=R060326
##IDEAL CHEMISTRY=Ca_3_Fe^3+^_2_(SiO_4_)_3_
##LOCALITY=Ultevis, Sweden
##OWNER=RRUFF
##SOURCE=Marcus Origlieri
##DESCRIPTION=Reddish-brown colored druse of crystals associated with white svabite R050180
##STATUS=The identification of this mineral has been confirmed by X-ray diffraction and chemical analysis
##URL=rruff.info/R060326
##MEASURED CHEMISTRY=(Ca_2.98_Mn_0.02_)_Σ=3_(Fe^3+^_1.75_Al_0.21_Ti_0.04_)_Σ=2_(Si_1.00_O_4_)_3_
##PIN_ID=M00248
##ORIENTATION=Laser parallel to (0 -1 -1). Fiducial mark perpendicular to laser is parallel to a [1 0 0]
99.64900, 7926.000
100.8830, 8077.000
102.1160, 7978.000
103.3490, 8043.000
104.5820, 8142.000
105.8150, 8083.000
107.0470, 8125.000
108.2800, 8250.000
109.5120, 8382.000
110.7440, 8126.000
111.9760, 8078.000
113.2080, 8070.000
114.4400, 8086.000
115.6710, 8117.000
116.9030, 8191.000
118.1340, 8141.000
119.3650, 8117.000
120.5960, 8098.000
121.8270, 8181.000
123.0580, 8130.000
124.2880, 8160.115
125.5190, 8122.000
126.7490, 8184.000
127.9790, 8162.000
129.2090, 8189.000
130.4390, 8226.000
131.6680, 8180.000
132.8980, 8147.000
134.1270, 8288.000
135.3560, 8284.000
136.5850, 8346.000
137.8140, 8588.000
139.0430, 8606.000
140.2710, 8747.000
141.5000, 8648.000
142.7280, 8685.000
143.9560, 8527.000
145.1840, 8653.000
146.4120, 8463.000
147.6390, 8497.000
148.8670, 8534.000
150.0940, 8441.000
151.3210, 8506.000
152.5490, 8442.000
153.7750, 8499.000
155.0020, 8535.000
156.2290, 8509.000
157.4550, 8588.000
158.6810, 8544.000
159.9080, 8756.000
161.1340, 8787.000
162.3590, 9021.000
163.5850, 9269.000
164.8110, 9460.000
166.0360, 9684.000
167.2610, 9927.000
168.4860, 9944.000
169.7110, 10258.00
170.9360, 10396.00
172.1610, 10458.00
173.3850, 10262.00
174.6100, 10050.00
175.8340, 9931.000
177.0580, 9687.000
178.2820, 9415.000
179.5050, 9240.000
180.7290, 9107.000
181.9520, 8917.000
183.1760, 8883.000
184.3990, 8884.000
185.6220, 8876.000
186.8450, 8890.000
188.0670, 8928.000
189.2900, 8968.000
190.5120, 8831.000
191.7340, 8863.000
192.9560, 8931.000
194.1780, 8758.000
195.4000, 8933.000
196.6220, 9011.000
197.8430, 8920.000
199.0640, 9057.000
200.2860, 8880.000
201.5070, 9071.000
202.7270, 9035.000
203.9480, 8919.000
205.1690, 8940.000
206.3890, 8949.000
207.6090, 8789.000
208.8290, 8939.000
210.0490, 8924.000
211.2690, 8937.000
212.4890, 8982.000
213.7080, 8913.000
214.9280, 8932.000
216.1470, 9092.000
217.3660, 9061.000
218.5850, 9120.000
219.8030, 9271.000
221.0220, 9287.000
222.2400, 9474.000
223.4590, 9690.000
224.6770, 9797.000
225.8950, 10020.65
227.1120, 10095.00
228.3300, 10391.00
229.5480, 10637.00
230.7650, 10789.00
231.9820, 10895.00
233.1990, 10989.00
234.4160, 10995.00
235.6330, 10873.90
236.8490, 10333.00
238.0660, 10412.00
239.2820, 10159.00
240.4980, 9725.000
241.7140, 9555.000
242.9300, 9510.000
244.1460, 9487.000
245.3610, 9268.000
246.5770, 9262.000
247.7920, 9219.000
249.0070, 9333.000
250.2220, 9293.000
251.4370, 9254.000
252.6510, 9354.000
253.8660, 9315.000
255.0800, 9453.000
256.2940, 9558.000
257.5080, 9699.000
258.7220, 9829.000
259.9360, 9915.000
261.1490, 9902.000
262.3630, 9963.000
263.5760, 9953.000
264.7890, 9941.000
266.0020, 10049.00
267.2150, 10002.00
268.4270, 9868.000
269.6400, 9803.000
270.8520, 9850.000
272.0640, 9862.000
273.2760, 9708.000
274.4880, 9823.000
275.7000, 9826.000
276.9120, 9815.000
278.1230, 9945.000
279.3340, 9818.000
280.5450, 9836.000
281.7560, 9885.000
282.9670, 10040.00
284.1780, 10020.00
285.3880, 10147.00
286.5980, 10136.00
287.8090, 10307.00
289.0190, 10165.00
290.2290, 10439.00
291.4380, 10575.00
292.6480, 10642.00
293.8570, 10545.00
295.0670, 10727.00
296.2760, 10646.00
297.4850, 10713.00
298.6930, 10823.00
299.9020, 10829.00
301.1110, 11024.00
302.3190, 11193.00
303.5270, 11294.00
304.7350, 11657.00
305.9430, 11711.00
307.1510, 11812.00
308.3580, 12020.00
309.5660, 12022.00
310.7730, 12144.00
311.9800, 12078.00
313.1870, 11867.00
314.3940, 11827.00
315.6010, 11904.00
316.8070, 11746.00
318.0130, 11798.00
319.2200, 11933.00
320.4260, 11767.00
321.6310, 11934.00
322.8370, 11979.00
324.0430, 12014.00
325.2480, 12013.00
326.4540, 12154.00
327.6590, 12270.00
328.8640, 12333.00
330.0680, 12351.00
331.2730, 12482.00
332.4780, 12789.00
333.6820, 12912.00
334.8860, 13540.00
336.0900, 14047.00
337.2940, 14521.00
338.4980, 15551.00
339.7010, 16412.00
340.9050, 17766.00
342.1080, 19266.00
343.3110, 21232.00
344.5140, 22894.00
345.7170, 24877.00
346.9200, 26760.00
348.1220, 28324.00
349.3240, 29628.00
350.5270, 30361.00
351.7290, 30594.00
352.9310, 30370.00
354.1320, 30051.00
355.3340, 30275.00
356.5350, 30621.00
357.7370, 32239.00
358.9380, 34930.00
360.1390, 38529.00
361.3400, 42399.00
362.5400, 46196.00
363.7410, 49890.00
364.9410, 52816.00
366.1410, 54744.00
367.3410, 54603.00
368.5410, 53240.00
369.7410, 49928.00
370.9400, 45618.00
372.1400, 40849.00
373.3390, 35800.00
374.5380, 31321.00
375.7370, 27393.00
376.9360, 24435.00
378.1350, 21947.00
379.3330, 19917.00
380.5310, 18304.00
381.7300, 17263.00
382.9280, 16452.00
384.1260, 15717.00
385.3230, 14852.00
386.5210, 14355.00
387.7180, 13827.00
388.9160, 13375.00
390.1130, 12887.00
391.3100, 12691.00
392.5060, 12525.00
393.7030, 12155.00
394.9000, 12086.00
396.0960, 11980.00
397.2920, 11902.00
398.4880, 11804.77
399.6840, 11708.95
400.8800, 11610.00
402.0750, 11516.00
403.2710, 11422.00
404.4660, 11323.00
405.6610, 11340.00
406.8560, 11202.00
408.0510, 11263.00
409.2450, 11196.00
410.4400, 11159.00
411.6340, 11200.00
412.8280, 11216.00
414.0220, 11198.61
415.2160, 11132.00
416.4100, 11147.00
417.6030, 11162.00
418.7970, 11062.00
419.9900, 11025.00
421.1830, 11126.00
422.3760, 11242.00
423.5690, 11089.00
424.7610, 11207.00
425.9540, 11148.00
427.1460, 11151.00
428.3380, 11183.00
429.5300, 11113.00
430.7220, 11291.00
431.9140, 11366.00
433.1050, 11437.00
434.2970, 11319.00
435.4880, 11386.00
436.6790, 11310.00
437.8700, 11334.00
439.0610, 11357.00
440.2510, 11306.00
441.4420, 11346.00
442.6320, 11375.00
443.8220, 11522.00
445.0120, 11521.00
446.2020, 11631.00
447.3910, 11725.00
448.5810, 11767.00
449.7700, 11780.63
450.9600, 11764.08
452.1490, 11697.00
453.3370, 11646.00
454.5260, 11513.00
455.7150, 11416.00
456.9030, 11376.00
458.0910, 11395.00
459.2800, 11433.00
460.4670, 11290.00
461.6550, 11398.00
462.8430, 11364.00
464.0300, 11397.00
465.2180, 11411.00
466.4050, 11482.92
467.5920, 11607.00
468.7790, 11651.00
469.9650, 11728.00
471.1520, 11776.00
472.3380, 12065.00
473.5250, 12096.00
474.7110, 11978.00
475.8970, 12274.00
477.0820, 12422.00
478.2680, 12591.00
479.4540, 12717.00
480.6390, 12850.00
481.8240, 13095.00
483.0090, 13339.00
484.1940, 13563.00
485.3780, 13889.00
486.5630, 13956.00
487.7470, 14372.00
488.9320, 14512.00
490.1160, 14860.00
491.3000, 14920.00
492.4830, 14657.00
493.6670, 14752.00
494.8500, 14519.00
496.0340, 14330.00
497.2170, 14219.00
498.4000, 14156.00
499.5820, 14060.00
500.7650, 14200.00
501.9480, 14342.00
503.1300, 14838.00
504.3120, 15269.00
505.4940, 16331.00
506.6760, 17329.00
507.8580, 18761.00
509.0390, 20731.00
510.2210, 22795.00
511.4020, 24632.00
512.5830, 26572.00
513.7640, 28156.00
514.9450, 28988.00
516.1250, 29266.00
517.3060, 28587.00
518.4860, 26851.00
519.6660, 24928.00
520.8460, 22700.00
522.0260, 20652.00
523.2060, 18974.00
524.3850, 17466.00
525.5650, 16615.00
526.7440, 15744.00
527.9230, 15035.00
529.1020, 14523.00
530.2810, 14101.00
531.4590, 14089.00
532.6380, 13707.00
533.8160, 13451.00
534.9940, 13523.00
536.1720, 13396.00
537.3500, 13253.00
538.5270, 13132.00
539.7050, 13164.00
540.8820, 13100.00
542.0590, 13066.00
543.2360, 13077.81
544.4130, 13103.00
545.5900, 13092.00
546.7660, 13196.00
547.9430, 13240.00
549.1190, 13347.00
550.2950, 13308.71
551.4710, 13171.00
552.6470, 13141.00
553.8220, 13150.00
554.9980, 12906.00
556.1730, 13006.00
557.3480, 12938.00
558.5230, 12755.00
559.6980, 12699.00
560.8730, 12783.00
562.0470, 12615.00
563.2220, 12599.00
564.3960, 12871.00
565.5700, 12867.00
566.7440, 12981.25
567.9170, 13029.00
569.0910, 13119.00
570.2640, 13298.00
571.4380, 13292.00
572.6110, 13474.00
573.7840, 13569.00
574.9570, 13535.00
576.1290, 13685.00
577.3020, 13636.00
578.4740, 13472.00
579.6460, 13552.00
580.8180, 13290.00
581.9900, 13142.00
583.1620, 13330.00
584.3330, 13382.00
585.5040, 13143.00
586.6760, 13174.00
587.8470, 13146.00
589.0180, 13097.00
590.1880, 13190.00
591.3590, 13171.00
592.5290, 13199.00
593.7000, 13165.00
594.8700, 13155.00
596.0400, 13103.00
597.2090, 13151.00
598.3790, 13105.00
599.5490, 13160.00
600.7180, 13095.00
601.8870, 13115.93
603.0560, 12983.00
604.2250, 13139.00
605.3940, 13207.00
606.5620, 13248.00
607.7300, 13121.00
608.8990, 13053.00
610.0670, 13085.00
611.2350, 12985.00
612.4020, 13106.00
613.5700, 13056.00
614.7370, 12998.00
615.9050, 12923.00
617.0720, 12903.71
618.2390, 12932.00
619.4060, 12853.00
620.5720, 12806.00
621.7390, 12770.00
622.9050, 12839.00
624.0710, 12946.00
625.2370, 12872.00
626.4030, 12931.00
627.5690, 12903.00
628.7340, 13073.00
629.9000, 12888.00
631.0650, 12795.00
632.2300, 12951.00
633.3950, 12914.00
634.5600, 12959.00
635.7240, 12993.00
636.8890, 13039.00
638.0530, 13027.36
639.2170, 13020.28
640.3810, 12995.00
641.5450, 12981.00
642.7080, 12967.00
643.8720, 12998.00
645.0350, 13089.00
646.1980, 12972.00
647.3610, 12900.00
648.5240, 13025.00
649.6870, 12950.00
650.8490, 13130.00
652.0120, 12972.00
653.1740, 13054.00
654.3360, 12886.00
655.4980, 13093.00
656.6600, 12966.00
657.8210, 12963.00
658.9830, 13052.00
660.1440, 13049.00
661.3050, 13003.00
662.4660, 13047.00
663.6270, 13031.00
664.7870, 13113.00
665.9480, 13024.00
667.1080, 13167.00
668.2680, 13077.00
669.4280, 13194.00
670.5880, 13081.00
671.7480, 13114.00
672.9070, 13177.00
674.0670, 13108.00
675.2260, 12991.00
676.3850, 13127.00
677.5440, 12983.00
678.7030, 13015.00
679.8610, 13071.00
681.0200, 13038.00
682.1780, 13152.00
683.3360, 13138.00
684.4940, 13254.00
685.6520, 13234.00
686.8090, 13233.00
687.9670, 13238.00
689.1240, 13254.00
690.2810, 13152.00
691.4380, 13035.00
692.5950, 13201.00
693.7520, 13367.00
694.9080, 13137.00
696.0650, 13256.00
697.2210, 13366.00
698.3770, 13311.00
699.5330, 13393.00
700.6880, 13472.00
701.8440, 13436.00
702.9990, 13421.00
704.1550, 13564.00
705.3100, 13394.00
706.4650, 13473.00
707.6190, 13384.00
708.7740, 13576.00
709.9290, 13557.00
711.0830, 13584.00
712.2370, 13661.00
713.3910, 13717.00
714.5450, 13743.00
715.6980, 13818.00
716.8520, 13853.00
718.0050, 13621.00
719.1580, 13814.00
720.3110, 13681.00
721.4640, 13772.00
722.6170, 13905.00
723.7700, 13891.00
724.9220, 14007.00
726.0740, 13944.00
727.2260, 14091.00
728.3780, 14197.00
729.5300, 14251.00
730.6810, 14206.00
731.8330, 14126.00
732.9840, 14218.00
734.1350, 14167.00
735.2860, 14149.00
736.4370, 14173.00
737.5880, 14110.00
738.7380, 14356.00
739.8880, 14223.00
741.0390, 14357.00
742.1890, 14334.00
743.3380, 14116.00
744.4880, 14400.00
745.6380, 14434.00
746.7870, 14191.00
747.9360, 14309.00
749.0850, 14413.00
750.2340, 14457.00
751.3830, 14468.00
752.5310, 14322.00
753.6800, 14404.00
754.8280, 14437.00
755.9760, 14564.00
757.1240, 14447.00
758.2720, 14558.00
759.4190, 14506.00
760.5670, 14607.00
761.7140, 14593.00
762.8610, 14594.00
764.0080, 14683.00
765.1550, 14682.00
766.3020, 14546.00
767.4480, 14690.00
768.5950, 14603.00
769.7410, 14684.00
770.8870, 14598.00
772.0330, 14701.00
773.1780, 14665.00
774.3240, 14793.00
775.4690, 14699.00
776.6140, 14718.00
777.7590, 14794.00
778.9040, 14801.00
780.0490, 14946.00
781.1940, 14959.00
782.3380, 15005.00
783.4820, 15048.00
784.6260, 15060.00
785.7700, 14985.00
786.9140, 15204.00
788.0580, 15163.00
789.2010, 15228.00
790.3450, 15454.00
791.4880, 15571.00
792.6310, 15746.00
793.7730, 15773.00
794.9160, 16038.00
796.0590, 16074.00
797.2010, 16298.00
798.3430, 16679.00
799.4850, 16737.00
800.6270, 17118.00
801.7690, 17168.00
802.9100, 17529.00
804.0520, 17879.00
805.1930, 18262.00
806.3340, 18603.00
807.4750, 19061.00
808.6160, 19428.00
809.7560, 19923.00
810.8970, 20486.00
812.0370, 20886.00
813.1770, 21139.00
814.3170, 21362.00
815.4570, 20903.00
816.5960, 20882.00
817.7360, 20506.00
818.8750, 20345.00
820.0140, 19865.00
821.1530, 19485.00
822.2920, 19126.00
823.4310, 19003.00
824.5690, 18805.00
825.7070, 18767.00
826.8460, 18748.00
827.9840, 18727.00
829.1220, 18844.00
830.2590, 19199.00
831.3970, 19149.00
832.5340, 19438.00
833.6710, 19710.00
834.8080, 20341.00
835.9450, 20421.00
837.0820, 20819.00
838.2190, 21119.00
839.3550, 21149.00
840.4910, 21473.00
841.6270, 21233.00
842.7630, 21571.00
843.8990, 21155.00
845.0350, 21198.00
846.1700, 20867.00
847.3060, 20718.00
848.4410, 20619.00
849.5760, 20465.00
850.7100, 20438.00
851.8450, 20410.00
852.9800, 20802.00
854.1140, 21017.00
855.2480, 21110.00
856.3820, 21469.00
857.5160, 22231.00
858.6500, 22782.00
859.7830, 23389.00
860.9170, 24193.00
862.0500, 25346.00
863.1830, 26755.00
864.3160, 28348.00
865.4480, 30520.00
866.5810, 33008.00
867.7130, 35618.00
868.8460, 38202.00
869.9780, 40807.00
871.1100, 42180.00
872.2410, 43320.00
873.3730, 43446.00
874.5050, 42200.00
875.6360, 40395.00
876.7670, 37683.00
877.8980, 34822.00
879.0290, 31502.00
880.1590, 29010.00
881.2900, 26932.00
882.4200, 24809.00
883.5500, 23517.00
884.6800, 22121.00
885.8100, 21054.00
886.9400, 20358.00
888.0690, 19618.00
889.1990, 18999.00
890.3280, 18537.19
891.4570, 18059.00
892.5860, 17876.00
893.7140, 17674.00
894.8430, 17642.00
895.9710, 17489.00
897.1000, 17289.94
898.2280, 17091.00
899.3560, 16911.00
900.4830, 16795.00
901.6110, 16694.00
902.7380, 16727.00
903.8660, 16671.00
904.9930, 16684.00
906.1200, 16698.00
907.2460, 16641.32
908.3730, 16547.00
909.5000, 16569.00
910.6260, 16487.00
911.7520, 16473.00
912.8780, 16528.00
914.0040, 16508.00
915.1290, 16512.00
916.2550, 16535.00
917.3800, 16505.00
918.5050, 16450.00
919.6300, 16541.00
920.7550, 16410.00
921.8800, 16537.00
923.0040, 16532.00
924.1290, 16521.00
925.2530, 16567.00
926.3770, 16500.00
927.5010, 16498.00
928.6250, 16502.00
929.7480, 16614.00
930.8720, 16664.00
931.9950, 16650.90
933.1180, 16628.00
934.2410, 16588.00
935.3640, 16586.00
936.4860, 16489.00
937.6090, 16646.00
938.7310, 16712.00
939.8530, 16485.00
940.9750, 16581.00
942.0970, 16367.00
943.2180, 16650.00
944.3400, 16656.00
945.4610, 16701.00
946.5820, 16500.00
947.7030, 16663.00
948.8240, 16473.00
949.9450, 16695.00
951.0650, 16788.00
952.1860, 16740.00
953.3060, 16630.00
954.4260, 16840.00
955.5460, 16607.00
956.6650, 16748.00
957.7850, 16736.00
958.9040, 16870.00
960.0230, 16809.00
961.1420, 16876.00
962.2610, 16940.67
963.3800, 17015.00
964.4990, 17066.00
965.6170, 17029.00
966.7350, 17082.00
967.8530, 17140.00
968.9710, 17284.00
970.0890, 17216.00
971.2070, 17224.00
972.3240, 17341.00
973.4410, 17184.00
974.5580, 17198.00
975.6750, 17310.00
976.7920, 17540.00
977.9090, 17472.00
979.0250, 17312.00
980.1410, 17506.00
981.2580, 17269.00
982.3740, 17343.00
983.4890, 17564.00
984.6050, 17380.00
985.7200, 17500.00
986.8360, 17719.00
987.9510, 17839.00
989.0660, 17966.00
990.1810, 18114.00
991.2950, 18260.00
992.4100, 18287.00
993.5240, 18469.00
994.6390, 18363.00
995.7530, 18372.00
996.8660, 18066.00
997.9800, 17771.00
999.0940, 17807.00
1000.207, 17581.00
1001.320, 17438.00
1002.433, 17365.00
1003.546, 17269.71
1004.659, 17314.00
1005.772, 17210.00
1006.884, 17209.00
1007.996, 17207.00
1009.108, 17092.00
1010.220, 17176.00
1011.332, 17101.00
1012.444, 17037.00
1013.555, 17019.00
1014.666, 16991.95
1015.777, 16884.00
1016.888, 17030.00
1017.999, 17103.00
1019.110, 17217.00
1020.220, 17161.00
1021.331, 17210.20
1022.441, 17017.00
1023.551, 17197.00
1024.661, 17065.00
1025.770, 17055.00
1026.880, 17059.00
1027.989, 17007.00
1029.098, 17123.00
1030.207, 17119.00
1031.316, 17147.00
1032.425, 17236.00
1033.533, 17131.00
1034.642, 17125.00
1035.750, 16997.00
1036.858, 17034.00
1037.966, 17170.00
1039.073, 17073.00
1040.181, 17050.00
1041.288, 17233.00
1042.396, 17254.00
1043.503, 17336.00
1044.610, 17070.00
1045.716, 17163.00
1046.823, 17201.00
1047.929, 17166.00
1049.036, 17262.00
1050.142, 17106.00
1051.248, 17287.00
1052.353, 17311.00
1053.459, 17410.00
1054.564, 17192.00
1055.670, 17334.00
1056.775, 17355.00
1057.880, 17467.00
1058.985, 17376.00
1060.089, 17451.00
1061.194, 17327.00
1062.298, 17479.00
1063.402, 17531.00
1064.506, 17438.00
1065.610, 17727.00
1066.713, 17494.00
1067.817, 17456.00
1068.920, 17753.00
1070.023, 17539.00
1071.126, 17692.00
1072.229, 17759.00
1073.332, 17744.00
1074.435, 17805.00
1075.537, 17810.00
1076.639, 17790.00
1077.741, 17899.00
1078.843, 17851.00
1079.945, 17777.00
1081.046, 17860.00
1082.148, 18034.00
1083.249, 18166.00
1084.350, 17991.00
1085.451, 18027.00
1086.551, 18035.00
1087.652, 18136.00
1088.752, 18081.00
1089.853, 18115.40
1090.953, 18032.00
1092.053, 18110.00
1093.152, 18217.00
1094.252, 18215.00
1095.351, 18187.00
1096.451, 18238.00
1097.550, 18121.00
1098.649, 18156.00
1099.748, 18011.00
1100.846, 18294.00
1101.945, 18168.00
1103.043, 18091.00
1104.141, 18425.00
1105.239, 18267.00
1106.337, 18367.00
1107.434, 18267.00
1108.532, 18295.00
1109.629, 18423.00
1110.726, 18508.00
1111.823, 18144.00
1112.920, 18364.00
1114.017, 18394.00
1115.113, 18268.00
1116.210, 18419.00
1117.306, 18354.00
1118.402, 18459.00
1119.498, 18398.00
1120.593, 18489.00
1121.689, 18500.00
1122.784, 18397.00
1123.879, 18591.00
1124.974, 18564.00
1126.069, 18543.00
1127.164, 18487.00
1128.259, 18387.00
1129.353, 18467.00
1130.447, 18494.00
1131.541, 18446.00
1132.635, 18531.00
1133.729, 18596.00
1134.822, 18556.00
1135.916, 18521.00
1137.009, 18460.00
1138.102, 18556.00
1139.195, 18381.00
1140.288, 18558.00
1141.380, 18532.00
1142.473, 18703.00
1143.565, 18523.00
1144.657, 18488.00
1145.749, 18607.00
1146.841, 18549.00
1147.932, 18574.00
1149.024, 18552.00
1150.115, 18613.00
1151.206, 18575.00
1152.297, 18772.00
1153.388, 18699.00
1154.479, 18814.00
1155.569, 18646.00
1156.659, 18731.00
1157.750, 18809.00
1158.839, 18641.00
1159.929, 18817.00
1161.019, 18750.00
1162.108, 18958.00
1163.198, 19112.00
1164.287, 18824.00
1165.376, 19054.00
1166.465, 19031.00
1167.553, 18868.00
1168.642, 18895.00
1169.730, 19018.00
1170.818, 19002.00
1171.906, 19046.03
1172.994, 19068.00
1174.082, 19038.00
1175.170, 19014.00
1176.257, 18927.00
1177.344, 19096.00
1178.431, 19234.00
1179.518, 19287.00
1180.605, 19250.00
1181.691, 19146.00
1182.778, 19144.00
1183.864, 19145.30
1184.950, 19072.00
1186.036, 19195.00
1187.122, 19206.00
1188.207, 19207.00
1189.292, 19130.00
1190.378, 19222.00
1191.463, 19329.00
1192.548, 19289.00
1193.632, 19541.00
1194.717, 19377.00
1195.801, 19405.00
1196.886, 19293.00
1197.970, 19342.00
1199.054, 19348.00
1200.137, 19276.00
1201.221, 19347.00
1202.305, 19303.00
1203.388, 19533.00
1204.471, 19353.00
1205.554, 19387.00
1206.637, 19205.00
1207.719, 19362.00
1208.802, 19321.00
1209.884, 19460.00
1210.966, 19486.00
1212.048, 19579.00
1213.130, 19488.00
1214.212, 19645.00
1215.293, 19544.00
1216.374, 19488.00
1217.456, 19452.00
1218.536, 19482.00
1219.617, 19552.00
1220.698, 19460.00
1221.778, 19401.00
1222.859, 19499.00
1223.939, 19579.00
1225.019, 19693.00
1226.099, 19602.00
1227.178, 19653.18
1228.258, 19551.00
1229.337, 19646.00
1230.417, 19563.00
1231.496, 19630.00
1232.574, 19669.00
1233.653, 19589.00
1234.732, 19639.00
1235.810, 19490.00
1236.888, 19453.00
1237.966, 19510.64
1239.044, 19659.00
1240.122, 19591.00
1241.199, 19698.00
1242.277, 19662.00
1243.354, 19809.00
1244.431, 19717.00
1245.508, 19645.00
1246.585, 19756.00
1247.661, 19631.00
1248.738, 19671.00
1249.814, 19871.00
1250.890, 19880.00
1251.966, 19808.00
1253.042, 19806.00
1254.117, 19774.00
1255.193, 19785.37
1256.268, 19992.00
1257.343, 19888.00
1258.418, 19940.00
1259.493, 20105.00
1260.567, 19929.00
1261.642, 20007.00
1262.716, 19854.00
1263.790, 20079.00
1264.864, 20157.00
1265.938, 20155.00
1267.011, 20193.00
1268.085, 20068.00
1269.158, 20225.00
1270.231, 19948.00
1271.304, 20225.00
1272.377, 20038.00
1273.450, 20319.00
1274.522, 20194.00
1275.594, 20315.00
1276.666, 20323.00
1277.738, 20195.00
1278.810, 20391.00
1279.882, 20534.00
1280.953, 20359.00
1282.025, 20565.00
1283.096, 20313.00
1284.167, 20279.00
1285.238, 20599.00
1286.308, 20396.00
1287.379, 20620.00
1288.449, 20666.00
1289.519, 20546.00
1290.589, 20525.00
1291.659, 20588.00
1292.729, 20460.00
1293.798, 20756.00
1294.868, 20592.00
1295.937, 20497.00
1297.006, 20725.00
1298.075, 20734.00
1299.143, 20962.00
1300.212, 20796.00
1301.280, 20764.00
1302.348, 20700.00
1303.416, 20923.00
1304.484, 21014.00
1305.552, 20899.00
1306.620, 20678.00
1307.687, 20936.00
1308.754, 20863.00
1309.821, 20839.00
1310.888, 20927.00
1311.955, 21019.00
1313.021, 21007.00
1314.088, 21046.00
1315.154, 20962.00
1316.220, 21179.00
1317.286, 21174.00
1318.352, 21154.00
1319.417, 21077.00
1320.483, 21169.00
1321.548, 21049.00
1322.613, 21020.00
1323.678, 21187.00
1324.743, 21089.00
1325.807, 21159.00
1326.872, 21163.00
1327.936, 21182.00
1329.000, 21190.73
1330.064, 21213.00
1331.128, 21165.00
1332.191, 21105.00
1333.255, 21063.00
1334.318, 21284.00
1335.381, 21142.00
1336.444, 21374.00
1337.507, 21352.00
1338.569, 21359.00
1339.632, 21228.00
1340.694, 21390.00
1341.756, 21689.00
1342.818, 21351.00
1343.880, 21565.00
1344.941, 21519.00
1346.003, 21529.00
1347.064, 21564.00
1348.125, 21656.00
1349.186, 21610.00
1350.247, 21515.00
1351.308, 21623.00
1352.368, 21529.00
1353.428, 21500.00
1354.489, 21579.00
1355.549, 21757.00
1356.608, 21697.00
1357.668, 21725.00
1358.727, 21671.00
1359.787, 21833.00
1360.846, 21893.00
1361.905, 21817.00
1362.964, 21858.00
1364.022, 21856.79
1365.081, 21771.00
1366.139, 21840.00
1367.197, 21918.00
1368.255, 21853.00
1369.313, 21830.00
1370.371, 21870.81
1371.428, 22011.00
1372.486, 21926.00
1373.543, 22017.00
1374.600, 22074.00
1375.657, 21913.00
1376.713, 22000.00
1377.770, 21953.00
1378.826, 22028.00
1379.882, 21997.00
1380.938, 22131.00
1381.994, 22048.00
1383.050, 22255.00
1384.106, 22139.00
1385.161, 22046.00
1386.216, 22068.00
1387.271, 22194.00
1388.326, 22328.00
1389.381, 22195.00
1390.435, 22136.00
1391.490, 22303.00
1392.544, 22190.00
1393.598, 22211.00
1394.652, 22248.00
1395.705, 22243.00
1396.759, 22272.69
1397.812, 22302.66
1398.866, 22321.00
1399.919, 22350.00
1400.972, 22399.00
1402.024, 22383.00
1403.077, 22127.00
1404.129, 22600.00
1405.181, 22479.00
1406.233, 22296.00
1407.285, 22479.00
1408.337, 22583.00
1409.389, 22587.00
1410.440, 22645.00
1411.491, 22674.04
1412.542, 22412.00
1413.593, 22653.00
1414.644, 22593.00
1415.695, 22450.00
1416.745, 22583.00
1417.795, 22870.00
1418.845, 22530.00
1419.895, 22811.00
1420.945, 22659.00
1421.995, 22717.00
1423.044, 22748.00
1424.093, 22831.00
1425.142, 22625.00
1426.191, 22918.00
1427.240, 22780.00
1428.289, 22703.00
1429.337, 22819.00
1430.385, 22751.00
1431.433, 22708.00
1432.481, 22858.00
1433.529, 22981.00
1434.577, 22912.00
1435.624, 23015.81
1436.672, 22997.00
1437.719, 23065.00
1438.766, 23068.00
1439.812, 23105.00
1440.859, 23118.50
1441.905, 23054.00
1442.952, 23121.00
1443.998, 23080.00
1445.044, 23058.00
1446.090, 23201.00
1447.135, 23153.46
1448.181, 23358.00
1449.226, 23192.00
1450.271, 23166.00
1451.316, 23193.00
1452.361, 23243.00
1453.405, 23384.00
1454.450, 23337.00
1455.494, 23339.00
1456.538, 23269.00
1457.582, 23312.00
1458.626, 23302.79
1459.670, 23410.00
1460.713, 23351.00
1461.757, 23397.00
1462.800, 23457.00
1463.843, 23353.00
1464.886, 23501.00
1465.928, 23356.00
1466.971, 23493.00
1468.013, 23339.00
1469.055, 23617.00
1470.097, 23589.00
1471.139, 23578.00
1472.181, 23425.00
1473.222, 23501.00
1474.263, 23521.00
1475.305, 23765.00
1476.346, 23551.00
1477.386, 23410.00
1478.427, 23741.00
1479.468, 23775.00
1480.508, 23594.00
1481.548, 23730.00
1482.588, 23558.00
1483.628, 23586.00
1484.668, 23831.00
1485.707, 23858.00
1486.747, 23886.00
1487.786, 23836.00
1488.825, 23809.00
1489.864, 23780.00
1490.902, 23843.00
1491.941, 23997.00
1492.979, 23841.00
1494.017, 23955.00
1495.055, 23889.00
1496.093, 24056.00
1497.131, 23908.00
1498.168, 23909.00
1499.206, 24176.00
1500.243, 23989.00
1501.280, 24008.00
1502.317, 23821.00
1503.354, 23856.97
1504.390, 23854.12
1505.426, 23968.00
1506.463, 23935.00
1507.499, 24092.00
1508.535, 24169.00
1509.570, 24190.00
1510.606, 23832.00
1511.641, 24130.00
1512.676, 23980.00
1513.711, 24161.00
1514.746, 24293.00
1515.781, 24299.00
1516.816, 24012.00
1517.850, 24370.00
1518.884, 24105.00
1519.918, 24009.00
1520.952, 24478.00
1521.986, 24448.00
1523.019, 24186.00
1524.053, 24485.00
1525.086, 24367.00
1526.119, 24399.00
1527.152, 24485.00
1528.185, 24531.00
1529.217, 24396.00
1530.250, 24514.00
1531.282, 24456.00
1532.314, 24438.00
1533.346, 24575.00
1534.377, 24452.00
1535.409, 24665.00
1536.440, 24546.00
1537.472, 24544.00
1538.503, 24400.00
1539.534, 24507.00
1540.564, 24630.00
1541.595, 24746.00
1542.625, 24655.00
1543.656, 24617.00
1544.686, 24679.00
1545.716, 24763.00
1546.745, 24692.00
1547.775, 24842.00
1548.804, 24666.00
1549.834, 24850.00
1550.863, 24806.00
1551.892, 24952.00
1552.920, 24841.00
1553.949, 25059.00
1554.977, 24835.00
1556.006, 24912.00
1557.034, 24898.00
1558.062, 24909.00
1559.089, 25029.00
1560.117, 24963.00
1561.144, 24886.00
1562.172, 24969.00
1563.199, 24974.00
1564.226, 24905.00
1565.252, 24958.55
1566.279, 25201.00
1567.305, 24977.00
1568.332, 24999.00
1569.358, 25022.00
1570.384, 25042.00
##END=



