##NAMES=Andradite
##RRUFFID=R050311
##IDEAL CHEMISTRY=Ca_3_Fe^3+^_2_(SiO_4_)_3_
##LOCALITY=Calaveras County, California, USA
##OWNER=RRUFF
##SOURCE=Eugene Schlepp
##DESCRIPTION=Deep red crystals
##STATUS=The identification of this mineral has been confirmed by X-ray diffraction and chemical analysis
##URL=rruff.info/R050311
##MEASURED CHEMISTRY=(Ca_2.88_Mn_0.07_Fe^2+^_0.05_)_Σ=3_(Fe^3+^_1.39_Al_0.59_Ti_0.02_)_Σ=2_((Si_0.99_Al_0.01_)_Σ=1_O_4_)_3_
##PIN_ID=M00304
##ORIENTATION=Laser parallel to c* (0 0 1). Fiducial mark perpendicular to laser is parallel to a [1 0 0]
123.0580, 5913.000
124.2880, 6012.000
125.5190, 5784.000
126.7490, 5679.000
127.9790, 5765.000
129.2090, 5982.000
130.4390, 5918.000
131.6680, 5989.000
132.8980, 5981.000
134.1270, 5842.000
135.3560, 5971.000
136.5850, 5994.000
137.8140, 6069.000
139.0430, 6158.000
140.2710, 6283.000
141.5000, 5976.000
142.7280, 6077.000
143.9560, 6008.000
145.1840, 6095.000
146.4120, 6013.000
147.6390, 6058.000
148.8670, 6109.000
150.0940, 6057.000
151.3210, 6283.000
152.5490, 6451.000
153.7750, 6302.000
155.0020, 6303.000
156.2290, 6255.000
157.4550, 6262.000
158.6810, 6290.000
159.9080, 6416.000
161.1340, 6469.000
162.3590, 6614.000
163.5850, 6910.000
164.8110, 6986.000
166.0360, 7116.000
167.2610, 7443.000
168.4860, 7545.000
169.7110, 7749.000
170.9360, 7773.000
172.1610, 7857.000
173.3850, 7999.000
174.6100, 8088.000
175.8340, 8202.000
177.0580, 8271.000
178.2820, 8234.000
179.5050, 8164.000
180.7290, 7983.000
181.9520, 7585.000
183.1760, 7427.000
184.3990, 7211.000
185.6220, 7226.000
186.8450, 7171.000
188.0670, 7179.000
189.2900, 7080.000
190.5120, 7194.000
191.7340, 7177.000
192.9560, 7200.000
194.1780, 7271.000
195.4000, 7270.000
196.6220, 7283.000
197.8430, 7328.858
199.0640, 7255.000
200.2860, 7399.000
201.5070, 7455.000
202.7270, 7501.000
203.9480, 7356.000
205.1690, 7195.000
206.3890, 7070.000
207.6090, 7006.000
208.8290, 6975.000
210.0490, 6962.575
211.2690, 7065.000
212.4890, 7063.000
213.7080, 7128.584
214.9280, 7283.000
216.1470, 7260.000
217.3660, 7414.000
218.5850, 7553.000
219.8030, 7651.000
221.0220, 7808.000
222.2400, 7991.000
223.4590, 8280.000
224.6770, 8458.000
225.8950, 8716.000
227.1120, 9082.000
228.3300, 9338.000
229.5480, 9688.000
230.7650, 10102.00
231.9820, 10413.00
233.1990, 10436.00
234.4160, 10550.00
235.6330, 10689.00
236.8490, 10967.00
238.0660, 10952.00
239.2820, 10927.00
240.4980, 10737.00
241.7140, 10281.00
242.9300, 9917.000
244.1460, 9274.000
245.3610, 8860.000
246.5770, 8410.000
247.7920, 8119.000
249.0070, 7789.000
250.2220, 7769.000
251.4370, 7751.000
252.6510, 7633.000
253.8660, 7750.000
255.0800, 7679.000
256.2940, 7755.000
257.5080, 7965.000
258.7220, 8469.000
259.9360, 8399.235
261.1490, 8981.000
262.3630, 8435.000
263.5760, 8357.000
264.7890, 8234.000
266.0020, 8441.000
267.2150, 8456.000
268.4270, 8510.000
269.6400, 8609.000
270.8520, 8479.000
272.0640, 8529.000
273.2760, 8431.000
274.4880, 8450.000
275.7000, 8425.000
276.9120, 8309.000
278.1230, 8207.000
279.3340, 8167.034
280.5450, 8069.534
281.7560, 8053.000
282.9670, 7975.000
284.1780, 7909.550
285.3880, 7957.000
286.5980, 7879.000
287.8090, 7899.000
289.0190, 8004.000
290.2290, 8033.000
291.4380, 8100.000
292.6480, 8190.897
293.8570, 8224.000
295.0670, 8351.000
296.2760, 8423.000
297.4850, 8470.000
298.6930, 8441.000
299.9020, 8551.000
301.1110, 8685.000
302.3190, 8949.000
303.5270, 8979.000
304.7350, 9258.000
305.9430, 9387.000
307.1510, 9700.000
308.3580, 9927.485
309.5660, 10291.00
310.7730, 10460.00
311.9800, 10784.00
313.1870, 11091.00
314.3940, 11360.00
315.6010, 11406.00
316.8070, 11675.00
318.0130, 11649.00
319.2200, 11789.00
320.4260, 11524.00
321.6310, 11320.00
322.8370, 11205.00
324.0430, 10938.00
325.2480, 10721.00
326.4540, 10832.00
327.6590, 10759.00
328.8640, 10819.00
330.0680, 10956.00
331.2730, 11022.00
332.4780, 11092.00
333.6820, 11240.00
334.8860, 11084.00
336.0900, 11216.00
337.2940, 11310.00
338.4980, 11516.00
339.7010, 11690.00
340.9050, 11877.00
342.1080, 12408.00
343.3110, 13050.00
344.5140, 13620.00
345.7170, 14565.00
346.9200, 15406.00
348.1220, 16427.00
349.3240, 17327.00
350.5270, 18518.00
351.7290, 19793.00
352.9310, 21161.00
354.1320, 22695.00
355.3340, 24322.00
356.5350, 26322.00
357.7370, 28811.00
358.9380, 31180.00
360.1390, 34389.00
361.3400, 37509.00
362.5400, 40682.00
363.7410, 43789.00
364.9410, 46631.00
366.1410, 48744.00
367.3410, 51394.00
368.5410, 53622.00
369.7410, 55176.00
370.9400, 56428.00
372.1400, 55619.00
373.3390, 53150.00
374.5380, 49023.00
375.7370, 44063.00
376.9360, 38657.00
378.1350, 33658.00
379.3330, 28990.00
380.5310, 25089.00
381.7300, 22054.00
382.9280, 19752.00
384.1260, 17977.00
385.3230, 16355.00
386.5210, 15086.00
387.7180, 14022.00
388.9160, 13339.00
390.1130, 12708.00
391.3100, 12125.00
392.5060, 11728.00
393.7030, 11209.00
394.9000, 10869.00
396.0960, 10571.00
397.2920, 10282.00
398.4880, 9873.000
399.6840, 9681.000
400.8800, 9453.000
402.0750, 9223.000
403.2710, 9128.000
404.4660, 9039.000
405.6610, 8911.000
406.8560, 8861.000
408.0510, 8737.000
409.2450, 8725.000
410.4400, 8692.000
411.6340, 8593.000
412.8280, 8559.000
414.0220, 8442.000
415.2160, 8402.000
416.4100, 8560.000
417.6030, 8373.000
418.7970, 8455.000
419.9900, 8477.000
421.1830, 8364.000
422.3760, 8434.000
423.5690, 8489.000
424.7610, 8521.000
425.9540, 8560.763
427.1460, 8583.000
428.3380, 8626.000
429.5300, 8673.888
430.7220, 8744.000
431.9140, 8827.000
433.1050, 8896.714
434.2970, 8924.000
435.4880, 9009.000
436.6790, 9019.000
437.8700, 9036.072
439.0610, 9010.000
440.2510, 9038.000
441.4420, 9035.000
442.6320, 9040.000
443.8220, 9098.000
445.0120, 9141.000
446.2020, 9189.027
447.3910, 9305.000
448.5810, 9298.000
449.7700, 9361.929
450.9600, 9398.000
452.1490, 9397.000
453.3370, 9281.000
454.5260, 9260.000
455.7150, 9190.000
456.9030, 9140.000
458.0910, 9096.564
459.2800, 9044.024
460.4670, 9021.000
461.6550, 8957.000
462.8430, 8966.000
464.0300, 8928.000
465.2180, 8827.000
466.4050, 8760.000
467.5920, 8770.871
468.7790, 8778.000
469.9650, 8782.000
471.1520, 8867.000
472.3380, 8831.000
473.5250, 9062.000
474.7110, 9289.000
475.8970, 9346.000
477.0820, 9507.000
478.2680, 9685.000
479.4540, 9935.000
480.6390, 9915.000
481.8240, 10210.00
483.0090, 10380.00
484.1940, 10631.00
485.3780, 10722.00
486.5630, 11019.00
487.7470, 11030.00
488.9320, 11211.00
490.1160, 11322.00
491.3000, 11379.00
492.4830, 11389.00
493.6670, 11446.00
494.8500, 11496.00
496.0340, 11464.00
497.2170, 11343.00
498.4000, 11482.00
499.5820, 11027.00
500.7650, 11210.00
501.9480, 10812.00
503.1300, 10869.00
504.3120, 10788.00
505.4940, 10854.00
506.6760, 10869.00
507.8580, 10979.00
509.0390, 11313.00
510.2210, 11718.00
511.4020, 12179.00
512.5830, 12919.00
513.7640, 13855.00
514.9450, 14819.00
516.1250, 16397.00
517.3060, 17623.00
518.4860, 19296.00
519.6660, 20689.00
520.8460, 21968.00
522.0260, 22796.00
523.2060, 23987.00
524.3850, 24511.00
525.5650, 24618.00
526.7440, 24546.00
527.9230, 23811.00
529.1020, 22207.00
530.2810, 20206.00
531.4590, 18132.00
532.6380, 16108.00
533.8160, 14412.00
534.9940, 13232.00
536.1720, 12240.00
537.3500, 11572.00
538.5270, 11050.00
539.7050, 10685.00
540.8820, 10456.00
542.0590, 10178.13
543.2360, 10035.00
544.4130, 9947.000
545.5900, 9882.000
546.7660, 9983.000
547.9430, 10038.00
549.1190, 9983.000
550.2950, 9945.000
551.4710, 9935.000
552.6470, 9872.000
553.8220, 9994.000
554.9980, 9958.000
556.1730, 9957.000
557.3480, 9821.000
558.5230, 9791.000
559.6980, 9791.000
560.8730, 9761.000
562.0470, 9574.000
563.2220, 9434.000
564.3960, 9311.000
565.5700, 9167.000
566.7440, 9114.000
567.9170, 8994.000
569.0910, 8866.000
570.2640, 8959.000
571.4380, 8798.000
572.6110, 8875.000
573.7840, 8857.000
574.9570, 8794.000
576.1290, 8872.000
577.3020, 8895.000
578.4740, 8847.000
579.6460, 8957.000
580.8180, 8924.000
581.9900, 8989.000
583.1620, 8840.000
584.3330, 8967.000
585.5040, 9145.000
586.6760, 9038.000
587.8470, 9059.000
589.0180, 9114.000
590.1880, 9288.000
591.3590, 9151.000
592.5290, 9292.000
593.7000, 9249.000
594.8700, 9303.000
596.0400, 9372.000
597.2090, 9443.000
598.3790, 9398.000
599.5490, 9418.000
600.7180, 9459.000
601.8870, 9440.000
603.0560, 9451.188
604.2250, 9501.000
605.3940, 9436.000
606.5620, 9473.000
607.7300, 9470.000
608.8990, 9435.000
610.0670, 9414.000
611.2350, 9446.000
612.4020, 9290.000
613.5700, 9247.000
614.7370, 9175.000
615.9050, 9168.000
617.0720, 8941.000
618.2390, 8941.000
619.4060, 8759.000
620.5720, 8758.000
621.7390, 8665.000
622.9050, 8598.000
624.0710, 8494.000
625.2370, 8417.183
626.4030, 8351.000
627.5690, 8272.000
628.7340, 8185.000
629.9000, 8157.000
631.0650, 8239.000
632.2300, 8125.000
633.3950, 8150.000
634.5600, 8084.000
635.7240, 8173.000
636.8890, 8207.000
638.0530, 8123.000
639.2170, 8116.000
640.3810, 8073.000
641.5450, 8062.000
642.7080, 8126.000
643.8720, 8079.000
645.0350, 8080.000
646.1980, 8055.000
647.3610, 8053.000
648.5240, 8046.000
649.6870, 8016.000
650.8490, 8099.000
652.0120, 8004.000
653.1740, 8018.000
654.3360, 7959.000
655.4980, 8012.000
656.6600, 8075.000
657.8210, 8069.000
658.9830, 8093.493
660.1440, 8116.000
661.3050, 8095.000
662.4660, 8033.000
663.6270, 8043.000
664.7870, 8039.000
665.9480, 7992.000
667.1080, 8058.000
668.2680, 8048.000
669.4280, 8059.000
670.5880, 8045.000
671.7480, 8031.024
672.9070, 7987.000
674.0670, 8011.000
675.2260, 8002.000
676.3850, 8033.000
677.5440, 7906.000
678.7030, 8034.000
679.8610, 8029.000
681.0200, 7815.000
682.1780, 7961.000
683.3360, 7988.000
684.4940, 7846.000
685.6520, 7925.000
686.8090, 7995.000
687.9670, 7964.000
689.1240, 7919.000
690.2810, 8033.000
691.4380, 7954.000
692.5950, 7930.000
693.7520, 7936.000
694.9080, 8008.000
696.0650, 7837.000
697.2210, 8121.000
698.3770, 7932.000
699.5330, 8106.000
700.6880, 8064.000
701.8440, 8037.000
702.9990, 8056.000
704.1550, 8041.000
705.3100, 8083.000
706.4650, 8078.000
707.6190, 8106.000
708.7740, 7983.000
709.9290, 8150.000
711.0830, 8202.000
712.2370, 8223.000
713.3910, 8081.000
714.5450, 8185.000
715.6980, 8132.000
716.8520, 8245.000
718.0050, 8126.000
719.1580, 8168.000
720.3110, 8247.000
721.4640, 8230.000
722.6170, 8118.000
723.7700, 8247.000
724.9220, 8199.547
726.0740, 8262.000
727.2260, 8226.000
728.3780, 8318.000
729.5300, 8316.000
730.6810, 8330.000
731.8330, 8311.000
732.9840, 8431.000
734.1350, 8465.000
735.2860, 8475.000
736.4370, 8522.000
737.5880, 8545.168
738.7380, 8548.000
739.8880, 8611.000
741.0390, 8557.000
742.1890, 8593.000
743.3380, 8576.000
744.4880, 8578.000
745.6380, 8633.000
746.7870, 8589.000
747.9360, 8722.000
749.0850, 8727.000
750.2340, 8677.000
751.3830, 8656.000
752.5310, 8866.000
753.6800, 8811.000
754.8280, 8799.000
755.9760, 8911.000
757.1240, 8874.000
758.2720, 8915.000
759.4190, 9096.000
760.5670, 8968.000
761.7140, 9042.000
762.8610, 8963.000
764.0080, 9040.000
765.1550, 9042.000
766.3020, 9049.000
767.4480, 9123.000
768.5950, 9120.000
769.7410, 9136.000
770.8870, 9132.157
772.0330, 9126.881
773.1780, 9121.062
774.3240, 9104.000
775.4690, 9095.000
776.6140, 9073.000
777.7590, 9060.000
778.9040, 9170.000
780.0490, 9177.000
781.1940, 9262.000
782.3380, 9392.000
783.4820, 9253.000
784.6260, 9463.000
785.7700, 9462.000
786.9140, 9559.000
788.0580, 9795.000
789.2010, 9724.000
790.3450, 10038.00
791.4880, 9975.000
792.6310, 10225.00
793.7730, 10606.00
794.9160, 10845.00
796.0590, 11054.00
797.2010, 11227.00
798.3430, 11718.00
799.4850, 12092.00
800.6270, 12404.00
801.7690, 13002.00
802.9100, 13409.00
804.0520, 13976.00
805.1930, 14500.00
806.3340, 15185.00
807.4750, 15800.00
808.6160, 16489.00
809.7560, 17176.00
810.8970, 18237.00
812.0370, 18971.00
813.1770, 19908.00
814.3170, 20443.00
815.4570, 21211.00
816.5960, 21988.00
817.7360, 22370.00
818.8750, 22637.00
820.0140, 22664.00
821.1530, 22308.00
822.2920, 22035.00
823.4310, 21209.00
824.5690, 20571.00
825.7070, 19760.00
826.8460, 19189.00
827.9840, 18432.00
829.1220, 17584.00
830.2590, 17307.00
831.3970, 17010.00
832.5340, 16464.00
833.6710, 16447.00
834.8080, 16182.00
835.9450, 16393.00
837.0820, 16566.00
838.2190, 16782.00
839.3550, 16870.00
840.4910, 17221.00
841.6270, 17456.00
842.7630, 17934.00
843.8990, 18125.00
845.0350, 18346.00
846.1700, 18270.00
847.3060, 18269.29
848.4410, 18159.00
849.5760, 17889.00
850.7100, 17552.00
851.8450, 17081.00
852.9800, 17031.00
854.1140, 16642.00
855.2480, 16148.00
856.3820, 16065.00
857.5160, 16050.00
858.6500, 16009.00
859.7830, 16137.00
860.9170, 16257.00
862.0500, 16378.00
863.1830, 16779.00
864.3160, 17296.00
865.4480, 17680.00
866.5810, 18270.00
867.7130, 19062.00
868.8460, 19831.00
869.9780, 20653.00
871.1100, 21747.00
872.2410, 23012.00
873.3730, 23798.00
874.5050, 24849.00
875.6360, 25351.00
876.7670, 25955.00
877.8980, 26189.00
879.0290, 26142.00
880.1590, 25514.00
881.2900, 24453.00
882.4200, 23330.00
883.5500, 21914.00
884.6800, 20523.00
885.8100, 18942.00
886.9400, 17729.00
888.0690, 16641.00
889.1990, 15593.00
890.3280, 14753.00
891.4570, 14255.00
892.5860, 13748.00
893.7140, 13281.00
894.8430, 12739.00
895.9710, 12444.00
897.1000, 12078.00
898.2280, 11715.00
899.3560, 11681.00
900.4830, 11378.00
901.6110, 11251.00
902.7380, 11085.00
903.8660, 11086.00
904.9930, 10865.00
906.1200, 10868.00
907.2460, 10762.00
908.3730, 10603.00
909.5000, 10701.00
910.6260, 10660.00
911.7520, 10635.00
912.8780, 10561.00
914.0040, 10520.00
915.1290, 10554.00
916.2550, 10553.00
917.3800, 10487.00
918.5050, 10566.00
919.6300, 10591.00
920.7550, 10499.00
921.8800, 10555.00
923.0040, 10569.00
924.1290, 10620.00
925.2530, 10742.00
926.3770, 10633.00
927.5010, 10873.00
928.6250, 11002.00
929.7480, 11008.00
930.8720, 11199.00
931.9950, 11178.00
933.1180, 11411.00
934.2410, 11445.00
935.3640, 11325.00
936.4860, 11379.00
937.6090, 11424.00
938.7310, 11313.00
939.8530, 11384.00
940.9750, 11107.00
942.0970, 11258.00
943.2180, 11057.00
944.3400, 10951.00
945.4610, 10788.00
946.5820, 10688.00
947.7030, 10646.00
948.8240, 10558.00
949.9450, 10549.85
951.0650, 10526.30
952.1860, 10539.00
953.3060, 10550.00
954.4260, 10529.00
955.5460, 10595.00
956.6650, 10803.00
957.7850, 10756.00
958.9040, 10874.00
960.0230, 10859.00
961.1420, 10851.00
962.2610, 11021.00
963.3800, 11151.00
964.4990, 10970.00
965.6170, 11292.00
966.7350, 11260.00
967.8530, 11377.00
968.9710, 11485.00
970.0890, 11481.00
971.2070, 11742.00
972.3240, 11812.00
973.4410, 11742.00
974.5580, 11891.00
975.6750, 12067.00
976.7920, 12065.00
977.9090, 12203.00
979.0250, 12208.00
980.1410, 12239.00
981.2580, 12135.00
982.3740, 12125.00
983.4890, 12260.00
984.6050, 12310.00
985.7200, 12462.00
986.8360, 12495.00
987.9510, 12319.00
989.0660, 12342.00
990.1810, 12490.00
991.2950, 12581.00
992.4100, 12644.23
993.5240, 12814.00
994.6390, 12830.00
995.7530, 12942.00
996.8660, 13123.00
997.9800, 13080.00
999.0940, 13023.00
1000.207, 12942.00
1001.320, 12669.00
1002.433, 12518.00
1003.546, 12099.00
1004.659, 11855.00
1005.772, 11642.00
1006.884, 11297.00
1007.996, 11029.00
1009.108, 10813.00
1010.220, 10754.00
1011.332, 10612.00
1012.444, 10449.00
1013.555, 10600.00
1014.666, 10513.00
1015.777, 10627.00
1016.888, 10506.00
1017.999, 10473.00
1019.110, 10508.00
1020.220, 10601.00
1021.331, 10547.00
1022.441, 10562.00
1023.551, 10487.00
1024.661, 10308.00
1025.770, 10206.00
1026.880, 10066.00
1027.989, 10102.00
1029.098, 10082.00
1030.207, 9995.000
1031.316, 10073.00
1032.425, 9993.000
1033.533, 9968.000
1034.642, 9889.000
1035.750, 9985.000
1036.858, 9998.000
1037.966, 9955.000
1039.073, 9904.000
1040.181, 9951.542
1041.288, 9907.000
1042.396, 10015.00
1043.503, 9975.000
1044.610, 9976.000
1045.716, 10022.00
1046.823, 10005.59
1047.929, 10025.39
1049.036, 10029.00
1050.142, 10039.00
1051.248, 10050.54
1052.353, 10050.83
1053.459, 10045.59
1054.564, 10036.04
1055.670, 10023.00
1056.775, 10002.00
1057.880, 9988.586
1058.985, 9970.000
1060.089, 9939.000
1061.194, 9942.000
1062.298, 9930.000
1063.402, 10009.00
1064.506, 10004.00
1065.610, 10032.00
1066.713, 9953.000
1067.817, 10083.00
1068.920, 9991.000
1070.023, 10020.00
1071.126, 10111.00
1072.229, 10050.00
1073.332, 10081.00
1074.435, 9978.000
1075.537, 10032.00
1076.639, 9999.000
1077.741, 10054.00
1078.843, 10104.00
1079.945, 10018.00
1081.046, 10152.00
1082.148, 10013.00
1083.249, 10033.00
1084.350, 10049.00
1085.451, 10150.00
1086.551, 10113.00
1087.652, 10091.00
1088.752, 10267.00
1089.853, 10129.00
1090.953, 10136.00
1092.053, 10160.00
1093.152, 10200.00
1094.252, 10336.00
1095.351, 10341.76
1096.451, 10387.00
1097.550, 10367.00
1098.649, 10438.00
1099.748, 10326.00
1100.846, 10402.00
1101.945, 10411.00
1103.043, 10410.00
1104.141, 10460.59
1105.239, 10307.00
1106.337, 10495.00
1107.434, 10369.00
1108.532, 10319.00
1109.629, 10385.00
1110.726, 10358.00
1111.823, 10369.00
1112.920, 10464.00
1114.017, 10486.00
1115.113, 10512.00
1116.210, 10538.00
1117.306, 10715.00
1118.402, 10852.00
1119.498, 10873.00
1120.593, 11118.00
1121.689, 11181.00
1122.784, 11103.00
1123.879, 11056.00
1124.974, 11029.00
1126.069, 10799.00
1127.164, 10811.00
1128.259, 10547.00
1129.353, 10364.00
1130.447, 10328.00
1131.541, 10243.16
1132.635, 10367.00
1133.729, 10278.00
1134.822, 10269.00
1135.916, 10321.00
1137.009, 10293.00
1138.102, 10351.00
1139.195, 10317.64
1140.288, 10316.00
1141.380, 10297.00
1142.473, 10278.00
1143.565, 10348.00
1144.657, 10217.00
1145.749, 10204.00
1146.841, 10340.00
1147.932, 10221.00
1149.024, 10302.00
1150.115, 10359.00
1151.206, 10318.00
1152.297, 10344.00
1153.388, 10244.00
1154.479, 10318.00
1155.569, 10387.00
1156.659, 10299.00
1157.750, 10247.00
1158.839, 10198.00
1159.929, 10226.00
1161.019, 10290.00
1162.108, 10218.00
1163.198, 10340.00
1164.287, 10402.00
1165.376, 10305.00
1166.465, 10284.00
1167.553, 10298.00
1168.642, 10264.00
1169.730, 10356.00
1170.818, 10321.00
1171.906, 10436.00
1172.994, 10475.00
1174.082, 10346.00
1175.170, 10429.00
1176.257, 10326.00
1177.344, 10547.00
1178.431, 10293.00
1179.518, 10433.00
1180.605, 10486.00
1181.691, 10331.00
1182.778, 10419.00
1183.864, 10372.00
1184.950, 10584.00
1186.036, 10499.00
1187.122, 10527.00
1188.207, 10459.00
1189.292, 10497.00
1190.378, 10501.00
1191.463, 10601.00
1192.548, 10592.00
1193.632, 10513.00
1194.717, 10556.00
1195.801, 10499.00
1196.886, 10540.00
1197.970, 10471.00
1199.054, 10650.00
1200.137, 10484.00
1201.221, 10706.00
1202.305, 10573.00
1203.388, 10716.00
1204.471, 10641.00
1205.554, 10562.00
1206.637, 10661.00
1207.719, 10564.00
1208.802, 10660.00
1209.884, 10546.00
1210.966, 10581.00
1212.048, 10653.00
1213.130, 10618.00
1214.212, 10600.00
1215.293, 10647.00
1216.374, 10701.00
1217.456, 10640.00
1218.536, 10683.00
1219.617, 10692.00
1220.698, 10748.00
1221.778, 10642.00
1222.859, 10543.00
1223.939, 10658.00
1225.019, 10521.00
1226.099, 10612.00
1227.178, 10597.00
1228.258, 10667.00
1229.337, 10618.00
1230.417, 10650.00
1231.496, 10573.00
1232.574, 10703.00
1233.653, 10557.00
1234.732, 10629.00
1235.810, 10652.00
1236.888, 10536.00
1237.966, 10606.00
1239.044, 10751.00
1240.122, 10672.00
1241.199, 10681.00
1242.277, 10686.00
1243.354, 10606.00
1244.431, 10542.00
1245.508, 10626.00
1246.585, 10643.00
1247.661, 10630.00
1248.738, 10618.00
1249.814, 10581.00
1250.890, 10583.00
1251.966, 10571.44
1253.042, 10583.00
1254.117, 10572.00
1255.193, 10586.84
1256.268, 10657.00
1257.343, 10605.00
1258.418, 10615.00
1259.493, 10600.00
1260.567, 10684.00
1261.642, 10615.00
1262.716, 10656.00
1263.790, 10703.00
1264.864, 10595.00
1265.938, 10672.00
1267.011, 10650.00
1268.085, 10718.00
1269.158, 10582.00
1270.231, 10716.00
1271.304, 10519.00
1272.377, 10627.00
1273.450, 10779.00
1274.522, 10648.00
1275.594, 10707.00
1276.666, 10689.00
1277.738, 10728.00
1278.810, 10758.00
1279.882, 10805.00
1280.953, 10835.00
1282.025, 10749.00
1283.096, 10766.00
1284.167, 10883.00
1285.238, 10840.00
1286.308, 10714.00
1287.379, 10883.00
1288.449, 10725.00
1289.519, 10827.00
1290.589, 10743.00
1291.659, 10854.00
1292.729, 10914.00
1293.798, 10884.00
1294.868, 10778.00
1295.937, 10890.00
1297.006, 10858.00
1298.075, 10947.00
1299.143, 10901.00
1300.212, 10821.00
1301.280, 10841.00
1302.348, 10834.00
1303.416, 10905.00
1304.484, 10755.00
1305.552, 10889.00
1306.620, 10787.00
1307.687, 11039.00
1308.754, 10970.00
1309.821, 10901.00
1310.888, 10900.00
1311.955, 10930.00
1313.021, 11002.00
1314.088, 10952.00
1315.154, 10964.00
1316.220, 10965.00
1317.286, 11003.00
1318.352, 10964.00
1319.417, 11068.00
1320.483, 11090.00
1321.548, 11038.00
1322.613, 10993.00
1323.678, 11000.00
1324.743, 11062.00
1325.807, 11080.00
1326.872, 10996.00
1327.936, 11033.00
1329.000, 10971.00
1330.064, 11059.00
1331.128, 11017.00
1332.191, 11162.00
1333.255, 11025.00
1334.318, 11210.00
1335.381, 11115.00
1336.444, 11117.00
1337.507, 11209.00
1338.569, 11221.00
1339.632, 11038.00
1340.694, 11014.00
1341.756, 11037.00
1342.818, 11195.00
1343.880, 11196.00
1344.941, 11104.00
1346.003, 11171.00
1347.064, 11109.00
1348.125, 11161.00
1349.186, 11070.00
1350.247, 11147.00
1351.308, 11279.00
1352.368, 11185.00
1353.428, 11147.00
1354.489, 11345.00
1355.549, 11237.00
1356.608, 11173.00
1357.668, 11168.00
1358.727, 11163.33
1359.787, 11117.00
1360.846, 11236.00
1361.905, 11270.00
1362.964, 11293.00
1364.022, 11329.00
1365.081, 11253.00
1366.139, 11317.00
1367.197, 11346.00
1368.255, 11395.00
1369.313, 11257.00
1370.371, 11415.00
1371.428, 11195.00
1372.486, 11346.00
1373.543, 11296.00
1374.600, 11356.00
1375.657, 11353.00
1376.713, 11525.00
1377.770, 11280.00
1378.826, 11476.00
1379.882, 11333.00
1380.938, 11381.00
1381.994, 11360.00
1383.050, 11322.00
1384.106, 11424.00
1385.161, 11457.00
1386.216, 11446.00
1387.271, 11433.00
1388.326, 11473.00
1389.381, 11385.00
1390.435, 11412.00
1391.490, 11402.00
1392.544, 11408.00
1393.598, 11400.00
1394.652, 11405.00
1395.705, 11505.00
1396.759, 11391.00
1397.812, 11591.00
1398.866, 11578.00
1399.919, 11555.00
1400.972, 11474.00
1402.024, 11462.00
1403.077, 11508.00
1404.129, 11452.31
1405.181, 11470.96
1406.233, 11449.00
1407.285, 11503.00
1408.337, 11572.00
1409.389, 11676.00
1410.440, 11677.00
1411.491, 11568.00
1412.542, 11752.00
1413.593, 11518.00
1414.644, 11541.00
1415.695, 11618.00
1416.745, 11594.00
1417.795, 11624.00
1418.845, 11531.00
1419.895, 11634.00
1420.945, 11616.00
1421.995, 11505.00
1423.044, 11663.00
1424.093, 11689.00
1425.142, 11593.00
1426.191, 11658.00
1427.240, 11648.00
1428.289, 11540.00
1429.337, 11591.00
1430.385, 11538.00
1431.433, 11578.00
1432.481, 11665.00
1433.529, 11647.00
1434.577, 11659.00
1435.624, 11684.00
1436.672, 11664.00
1437.719, 11714.00
1438.766, 11745.00
1439.812, 11828.00
1440.859, 11686.00
1441.905, 11590.00
1442.952, 11784.00
1443.998, 11571.00
1445.044, 11741.00
1446.090, 11865.00
1447.135, 11714.00
1448.181, 11672.00
1449.226, 11789.00
1450.271, 11761.00
1451.316, 11685.00
1452.361, 11819.00
1453.405, 11773.00
1454.450, 11805.00
1455.494, 11722.00
1456.538, 11727.23
1457.582, 11863.00
1458.626, 11711.00
1459.670, 11742.00
1460.713, 11766.00
1461.757, 11699.00
1462.800, 11922.00
1463.843, 11810.00
1464.886, 11786.00
1465.928, 11708.00
1466.971, 11834.00
1468.013, 11834.00
1469.055, 11920.00
1470.097, 11826.00
1471.139, 11825.00
1472.181, 11867.00
1473.222, 11890.00
1474.263, 11850.00
1475.305, 11914.00
1476.346, 11948.00
1477.386, 11844.00
1478.427, 11934.00
1479.468, 11836.00
1480.508, 11738.00
1481.548, 11802.00
1482.588, 11816.00
1483.628, 11831.00
1484.668, 11847.03
1485.707, 11937.00
1486.747, 11868.00
1487.786, 11875.00
1488.825, 11931.00
1489.864, 12091.00
1490.902, 11935.00
1491.941, 12001.00
1492.979, 12090.00
1494.017, 12016.00
1495.055, 12013.00
1496.093, 12035.00
1497.131, 12029.00
1498.168, 12062.00
1499.206, 11993.00
1500.243, 12012.00
1501.280, 12119.00
1502.317, 11898.00
1503.354, 12024.00
1504.390, 11940.00
1505.426, 12162.00
1506.463, 12134.00
1507.499, 12109.00
1508.535, 12095.00
1509.570, 12099.00
1510.606, 12188.00
1511.641, 12156.00
1512.676, 12074.00
1513.711, 12032.00
1514.746, 12196.00
1515.781, 12131.00
1516.816, 12128.00
1517.850, 12196.00
1518.884, 12167.77
1519.918, 12207.93
1520.952, 12201.00
1521.986, 12261.00
1523.019, 12286.08
1524.053, 12320.51
1525.086, 12241.00
1526.119, 12310.00
1527.152, 12235.00
1528.185, 12223.00
1529.217, 12222.00
1530.250, 12222.00
1531.282, 12218.36
1532.314, 12251.08
1533.346, 12207.00
1534.377, 12305.00
1535.409, 12283.00
1536.440, 12267.00
1537.472, 12309.00
1538.503, 12253.00
1539.534, 12156.00
1540.564, 12188.00
1541.595, 12309.00
1542.625, 12180.00
1543.656, 12401.00
1544.686, 12358.00
1545.716, 12166.00
1546.745, 12356.00
1547.775, 12387.00
1548.804, 12207.00
1549.834, 12476.00
1550.863, 12503.00
1551.892, 12374.00
1552.920, 12473.00
1553.949, 12542.00
1554.977, 12480.00
1556.006, 12511.00
1557.034, 12454.00
1558.062, 12265.00
1559.089, 12390.00
1560.117, 12375.00
1561.144, 12535.00
1562.172, 12443.00
1563.199, 12479.00
1564.226, 12445.00
1565.252, 12462.00
1566.279, 12443.00
1567.305, 12473.00
1568.332, 12535.00
1569.358, 12645.00
1570.384, 12538.00
##END=



