##NAMES=Andradite
##RRUFFID=R050377
##IDEAL CHEMISTRY=Ca_3_Fe^3+^_2_(SiO_4_)_3_
##LOCALITY=Zlatoust District, South Urals, Russia
##OWNER=RRUFF
##SOURCE=University of Arizona Mineral Museum
##DESCRIPTION=Dark red cubes
##STATUS=The identification of this mineral has been confirmed by X-ray diffraction and chemical analysis
##URL=rruff.info/R050377
##MEASURED CHEMISTRY=Ca_3.00_(Fe^3+^_1.48_Ti_0.31_Mg_0.14_Zr_0.07_)_Σ=2_(Si_2.73_Al_0.24_Ti_0.03_)_Σ=3_O_12_
##PIN_ID=M00110
##ORIENTATION=Laser parallel to a* (1 0 0). Fiducial mark perpendicular to laser is parallel to c [0 0 1]
99.64900, 6083.000
100.8830, 6082.000
102.1160, 6025.000
103.3490, 6195.000
104.5820, 6267.000
105.8150, 6645.000
107.0470, 7024.000
108.2800, 7228.000
109.5120, 7665.000
110.7440, 7174.000
111.9760, 6924.000
113.2080, 6854.000
114.4400, 6993.000
115.6710, 7229.000
116.9030, 7317.000
118.1340, 7233.000
119.3650, 7303.000
120.5960, 7218.000
121.8270, 7476.000
123.0580, 7641.000
124.2880, 7718.000
125.5190, 7746.000
126.7490, 7797.000
127.9790, 7914.000
129.2090, 8073.000
130.4390, 8129.000
131.6680, 8184.000
132.8980, 8266.000
134.1270, 8288.000
135.3560, 8358.000
136.5850, 8535.000
137.8140, 8702.000
139.0430, 8973.000
140.2710, 8943.000
141.5000, 9010.000
142.7280, 8994.000
143.9560, 9018.000
145.1840, 9020.000
146.4120, 8963.000
147.6390, 8874.000
148.8670, 8918.000
150.0940, 8773.000
151.3210, 8831.000
152.5490, 8928.000
153.7750, 8845.000
155.0020, 8991.000
156.2290, 8999.000
157.4550, 8960.000
158.6810, 9115.000
159.9080, 9295.000
161.1340, 9475.000
162.3590, 9823.000
163.5850, 10278.00
164.8110, 10836.00
166.0360, 11148.00
167.2610, 11521.00
168.4860, 11646.00
169.7110, 11802.00
170.9360, 11443.00
172.1610, 11024.00
173.3850, 10483.00
174.6100, 10174.00
175.8340, 9977.000
177.0580, 9933.000
178.2820, 9814.000
179.5050, 9818.000
180.7290, 9699.000
181.9520, 9590.000
183.1760, 9501.000
184.3990, 9642.000
185.6220, 9627.000
186.8450, 9879.000
188.0670, 9793.000
189.2900, 9880.000
190.5120, 9940.000
191.7340, 10000.00
192.9560, 10016.00
194.1780, 10101.00
195.4000, 10302.00
196.6220, 10325.00
197.8430, 10284.00
199.0640, 10051.00
200.2860, 10452.00
201.5070, 10540.00
202.7270, 10546.00
203.9480, 10306.00
205.1690, 10049.00
206.3890, 9729.000
207.6090, 9875.000
208.8290, 9816.000
210.0490, 9895.000
211.2690, 9851.000
212.4890, 9949.000
213.7080, 10033.00
214.9280, 10202.00
216.1470, 10340.00
217.3660, 10410.00
218.5850, 10392.00
219.8030, 10518.00
221.0220, 10740.00
222.2400, 10766.00
223.4590, 10962.00
224.6770, 11032.00
225.8950, 11218.00
227.1120, 11212.00
228.3300, 11519.00
229.5480, 11669.00
230.7650, 11814.00
231.9820, 11819.00
233.1990, 11984.00
234.4160, 11958.00
235.6330, 11756.00
236.8490, 11898.00
238.0660, 11774.00
239.2820, 11835.00
240.4980, 11862.00
241.7140, 11777.00
242.9300, 11785.00
244.1460, 11835.00
245.3610, 11958.00
246.5770, 12038.00
247.7920, 12047.00
249.0070, 12091.00
250.2220, 12125.00
251.4370, 12233.00
252.6510, 12219.00
253.8660, 12495.00
255.0800, 12519.00
256.2940, 12735.00
257.5080, 12889.00
258.7220, 13281.00
259.9360, 13519.00
261.1490, 13243.00
262.3630, 13152.00
263.5760, 13223.00
264.7890, 13067.00
266.0020, 13206.00
267.2150, 13235.00
268.4270, 13072.00
269.6400, 13053.00
270.8520, 12995.00
272.0640, 12897.00
273.2760, 12906.00
274.4880, 12674.00
275.7000, 12642.00
276.9120, 12719.00
278.1230, 12845.00
279.3340, 12823.00
280.5450, 12869.00
281.7560, 13115.00
282.9670, 13422.00
284.1780, 13389.00
285.3880, 13789.00
286.5980, 14072.00
287.8090, 14413.00
289.0190, 14671.00
290.2290, 14884.00
291.4380, 14996.00
292.6480, 15202.00
293.8570, 15333.48
295.0670, 15370.00
296.2760, 15527.00
297.4850, 15642.00
298.6930, 15573.00
299.9020, 15603.00
301.1110, 15734.00
302.3190, 15962.00
303.5270, 15992.00
304.7350, 16029.00
305.9430, 16323.00
307.1510, 16311.00
308.3580, 16319.00
309.5660, 16371.00
310.7730, 16398.00
311.9800, 16549.00
313.1870, 16579.00
314.3940, 16669.00
315.6010, 16475.00
316.8070, 16584.00
318.0130, 16602.00
319.2200, 16704.79
320.4260, 16847.00
321.6310, 17095.00
322.8370, 17342.00
324.0430, 17654.00
325.2480, 18004.00
326.4540, 18241.00
327.6590, 18846.00
328.8640, 19486.00
330.0680, 20395.00
331.2730, 21201.00
332.4780, 22286.00
333.6820, 23627.00
334.8860, 25131.66
336.0900, 26862.00
337.2940, 28900.00
338.4980, 31167.00
339.7010, 33689.00
340.9050, 36809.00
342.1080, 39483.00
343.3110, 41815.00
344.5140, 43757.00
345.7170, 44772.00
346.9200, 44761.00
348.1220, 44304.00
349.3240, 43112.00
350.5270, 42415.00
351.7290, 41935.00
352.9310, 42119.00
354.1320, 42814.00
355.3340, 43830.00
356.5350, 45807.00
357.7370, 47974.00
358.9380, 49857.00
360.1390, 51973.00
361.3400, 53480.00
362.5400, 53850.00
363.7410, 54006.00
364.9410, 52502.00
366.1410, 50662.00
367.3410, 48187.00
368.5410, 44796.00
369.7410, 41381.00
370.9400, 38098.00
372.1400, 35296.00
373.3390, 32097.00
374.5380, 29624.00
375.7370, 27304.00
376.9360, 25373.00
378.1350, 23635.00
379.3330, 22215.00
380.5310, 20977.00
381.7300, 19911.00
382.9280, 18943.00
384.1260, 18006.00
385.3230, 17020.00
386.5210, 16123.00
387.7180, 15398.00
388.9160, 15022.00
390.1130, 14491.00
391.3100, 13943.00
392.5060, 13686.00
393.7030, 13221.00
394.9000, 13173.00
396.0960, 12876.00
397.2920, 12857.00
398.4880, 12494.00
399.6840, 12435.00
400.8800, 12306.00
402.0750, 12211.00
403.2710, 12039.00
404.4660, 12011.00
405.6610, 11835.00
406.8560, 11804.00
408.0510, 11682.00
409.2450, 11708.00
410.4400, 11671.00
411.6340, 11719.00
412.8280, 11690.00
414.0220, 11724.00
415.2160, 11715.68
416.4100, 11698.83
417.6030, 11709.00
418.7970, 11691.00
419.9900, 11707.00
421.1830, 11766.00
422.3760, 11673.00
423.5690, 11714.00
424.7610, 11673.16
425.9540, 11660.00
427.1460, 11633.00
428.3380, 11608.00
429.5300, 11654.00
430.7220, 11553.00
431.9140, 11495.00
433.1050, 11562.00
434.2970, 11437.00
435.4880, 11572.00
436.6790, 11617.00
437.8700, 11554.00
439.0610, 11664.00
440.2510, 11687.00
441.4420, 11823.00
442.6320, 11754.00
443.8220, 11976.00
445.0120, 11972.00
446.2020, 12013.00
447.3910, 11977.00
448.5810, 11841.00
449.7700, 11971.00
450.9600, 11673.00
452.1490, 11735.00
453.3370, 11580.00
454.5260, 11511.00
455.7150, 11498.00
456.9030, 11467.00
458.0910, 11320.00
459.2800, 11447.00
460.4670, 11358.00
461.6550, 11379.00
462.8430, 11223.00
464.0300, 11365.00
465.2180, 11396.00
466.4050, 11564.00
467.5920, 11580.00
468.7790, 11661.00
469.9650, 11711.00
471.1520, 11797.95
472.3380, 12043.00
473.5250, 11986.00
474.7110, 12162.00
475.8970, 12246.00
477.0820, 12279.00
478.2680, 12540.00
479.4540, 12782.00
480.6390, 12993.00
481.8240, 13069.00
483.0090, 13636.00
484.1940, 13673.00
485.3780, 14058.00
486.5630, 14299.00
487.7470, 14704.00
488.9320, 14697.00
490.1160, 14823.00
491.3000, 14833.00
492.4830, 14727.00
493.6670, 14544.00
494.8500, 14502.00
496.0340, 14466.00
497.2170, 14367.00
498.4000, 14591.00
499.5820, 15040.00
500.7650, 15421.00
501.9480, 16230.00
503.1300, 17244.00
504.3120, 18439.00
505.4940, 20070.00
506.6760, 21967.00
507.8580, 24261.00
509.0390, 27003.00
510.2210, 29264.00
511.4020, 31365.00
512.5830, 32624.00
513.7640, 32825.00
514.9450, 32132.00
516.1250, 30364.00
517.3060, 28397.00
518.4860, 26203.00
519.6660, 24397.00
520.8460, 22286.00
522.0260, 20734.00
523.2060, 19274.00
524.3850, 18434.00
525.5650, 17361.00
526.7440, 16763.00
527.9230, 16000.00
529.1020, 15690.00
530.2810, 15069.00
531.4590, 14667.00
532.6380, 14282.00
533.8160, 14228.00
534.9940, 13815.00
536.1720, 13721.00
537.3500, 13515.00
538.5270, 13301.00
539.7050, 13351.00
540.8820, 13300.00
542.0590, 13161.00
543.2360, 13201.00
544.4130, 13019.00
545.5900, 13074.00
546.7660, 12951.00
547.9430, 13052.00
549.1190, 12933.00
550.2950, 12968.00
551.4710, 12885.00
552.6470, 12614.00
553.8220, 12531.00
554.9980, 12438.00
556.1730, 12258.00
557.3480, 12085.00
558.5230, 11930.00
559.6980, 11929.00
560.8730, 11809.00
562.0470, 11777.16
563.2220, 11844.00
564.3960, 11780.00
565.5700, 11819.00
566.7440, 11954.00
567.9170, 12068.00
569.0910, 12221.00
570.2640, 12359.00
571.4380, 12625.00
572.6110, 12677.00
573.7840, 12770.00
574.9570, 13116.00
576.1290, 13145.00
577.3020, 13044.00
578.4740, 13121.00
579.6460, 13049.00
580.8180, 12869.00
581.9900, 12924.00
583.1620, 12753.00
584.3330, 12646.00
585.5040, 12725.00
586.6760, 12571.00
587.8470, 12639.00
589.0180, 12358.00
590.1880, 12553.00
591.3590, 12484.00
592.5290, 12493.00
593.7000, 12507.00
594.8700, 12500.00
596.0400, 12384.00
597.2090, 12401.00
598.3790, 12351.00
599.5490, 12324.13
600.7180, 12344.76
601.8870, 12309.00
603.0560, 12377.00
604.2250, 12399.00
605.3940, 12417.00
606.5620, 12405.73
607.7300, 12364.00
608.8990, 12317.00
610.0670, 12250.00
611.2350, 12281.54
612.4020, 12244.00
613.5700, 12356.00
614.7370, 12386.00
615.9050, 12444.00
617.0720, 12673.00
618.2390, 12688.00
619.4060, 12700.00
620.5720, 12967.00
621.7390, 13127.00
622.9050, 13110.00
624.0710, 13336.00
625.2370, 13604.00
626.4030, 13603.00
627.5690, 13918.00
628.7340, 13952.00
629.9000, 14064.00
631.0650, 14150.00
632.2300, 14378.00
633.3950, 14483.00
634.5600, 14513.00
635.7240, 14690.00
636.8890, 14619.00
638.0530, 14674.00
639.2170, 14714.00
640.3810, 14742.00
641.5450, 14728.00
642.7080, 14753.86
643.8720, 14736.33
645.0350, 14759.00
646.1980, 14722.00
647.3610, 14706.00
648.5240, 14742.00
649.6870, 14759.00
650.8490, 14767.99
652.0120, 14759.39
653.1740, 14780.00
654.3360, 14716.00
655.4980, 14673.00
656.6600, 14647.00
657.8210, 14611.00
658.9830, 14637.00
660.1440, 14422.00
661.3050, 14223.00
662.4660, 14091.00
663.6270, 14091.00
664.7870, 13759.00
665.9480, 13668.00
667.1080, 13341.00
668.2680, 13119.00
669.4280, 12901.00
670.5880, 12859.00
671.7480, 12635.00
672.9070, 12541.00
674.0670, 12419.00
675.2260, 12316.00
676.3850, 12120.00
677.5440, 11882.00
678.7030, 11894.00
679.8610, 11773.00
681.0200, 11745.00
682.1780, 11735.00
683.3360, 11530.00
684.4940, 11622.00
685.6520, 11395.00
686.8090, 11194.00
687.9670, 11445.00
689.1240, 11343.00
690.2810, 11273.00
691.4380, 11317.00
692.5950, 11094.00
693.7520, 11190.00
694.9080, 11152.00
696.0650, 11302.00
697.2210, 11298.29
698.3770, 11117.00
699.5330, 11294.00
700.6880, 11352.00
701.8440, 11234.00
702.9990, 11375.00
704.1550, 11305.00
705.3100, 11388.00
706.4650, 11509.00
707.6190, 11530.00
708.7740, 11550.00
709.9290, 11594.00
711.0830, 11633.00
712.2370, 11753.44
713.3910, 11721.00
714.5450, 12036.00
715.6980, 12211.00
716.8520, 12377.00
718.0050, 12427.00
719.1580, 12703.00
720.3110, 12889.00
721.4640, 13113.00
722.6170, 13380.00
723.7700, 13575.00
724.9220, 13853.19
726.0740, 14102.00
727.2260, 14427.00
728.3780, 14791.00
729.5300, 15170.00
730.6810, 15377.00
731.8330, 15946.00
732.9840, 16163.00
734.1350, 16564.00
735.2860, 16637.00
736.4370, 16820.00
737.5880, 16965.00
738.7380, 17080.00
739.8880, 17089.00
741.0390, 17080.85
742.1890, 17024.00
743.3380, 16908.00
744.4880, 16931.00
745.6380, 16795.00
746.7870, 16893.00
747.9360, 16793.00
749.0850, 16685.00
750.2340, 16758.00
751.3830, 16718.00
752.5310, 16762.00
753.6800, 16547.00
754.8280, 16671.00
755.9760, 16361.00
757.1240, 16365.00
758.2720, 16218.00
759.4190, 16122.00
760.5670, 16085.00
761.7140, 16043.00
762.8610, 15662.00
764.0080, 15761.00
765.1550, 15432.00
766.3020, 15499.00
767.4480, 15543.00
768.5950, 15408.00
769.7410, 15474.00
770.8870, 15447.00
772.0330, 15394.00
773.1780, 15411.00
774.3240, 15376.00
775.4690, 15521.00
776.6140, 15525.00
777.7590, 15735.00
778.9040, 15670.00
780.0490, 15744.00
781.1940, 15909.00
782.3380, 15840.00
783.4820, 15917.00
784.6260, 16074.00
785.7700, 16010.00
786.9140, 16210.00
788.0580, 16276.00
789.2010, 16490.00
790.3450, 16657.00
791.4880, 16837.00
792.6310, 16973.97
793.7730, 17016.00
794.9160, 17210.00
796.0590, 17314.00
797.2010, 17412.00
798.3430, 17582.00
799.4850, 17745.00
800.6270, 18081.00
801.7690, 18220.00
802.9100, 18506.00
804.0520, 18898.00
805.1930, 18965.00
806.3340, 19355.00
807.4750, 19340.00
808.6160, 19708.00
809.7560, 19849.00
810.8970, 20076.00
812.0370, 19962.00
813.1770, 20104.00
814.3170, 20075.00
815.4570, 19799.00
816.5960, 19790.00
817.7360, 19414.00
818.8750, 19581.00
820.0140, 19322.00
821.1530, 19173.00
822.2920, 18970.00
823.4310, 18969.00
824.5690, 19020.00
825.7070, 18886.00
826.8460, 18887.00
827.9840, 18986.00
829.1220, 19200.00
830.2590, 19308.00
831.3970, 19512.00
832.5340, 19689.00
833.6710, 19534.00
834.8080, 20128.00
835.9450, 20075.00
837.0820, 20481.00
838.2190, 20465.00
839.3550, 20771.00
840.4910, 20849.00
841.6270, 20916.00
842.7630, 21330.00
843.8990, 21438.00
845.0350, 21604.00
846.1700, 22007.00
847.3060, 22191.00
848.4410, 22519.54
849.5760, 22775.00
850.7100, 23258.00
851.8450, 23533.00
852.9800, 24122.00
854.1140, 24550.00
855.2480, 25017.00
856.3820, 25661.00
857.5160, 26224.00
858.6500, 26642.00
859.7830, 27453.00
860.9170, 28011.00
862.0500, 28732.00
863.1830, 29082.00
864.3160, 29886.00
865.4480, 30640.00
866.5810, 31472.00
867.7130, 32127.00
868.8460, 32920.00
869.9780, 33314.00
871.1100, 33719.00
872.2410, 33912.00
873.3730, 33719.00
874.5050, 33527.00
875.6360, 32911.92
876.7670, 32138.00
877.8980, 31077.00
879.0290, 29904.00
880.1590, 28438.00
881.2900, 27195.00
882.4200, 26090.00
883.5500, 24908.00
884.6800, 23803.69
885.8100, 22645.00
886.9400, 21689.00
888.0690, 20870.00
889.1990, 19961.00
890.3280, 19367.00
891.4570, 18840.00
892.5860, 18262.00
893.7140, 17827.00
894.8430, 17516.00
895.9710, 17167.00
897.1000, 16955.00
898.2280, 16766.62
899.3560, 16569.29
900.4830, 16519.00
901.6110, 16368.00
902.7380, 16269.00
903.8660, 16345.00
904.9930, 16263.00
906.1200, 16253.00
907.2460, 16170.00
908.3730, 16038.00
909.5000, 16107.00
910.6260, 16108.00
911.7520, 16161.00
912.8780, 16035.00
914.0040, 15989.00
915.1290, 16033.00
916.2550, 15899.00
917.3800, 16125.00
918.5050, 15997.00
919.6300, 15987.00
920.7550, 15868.00
921.8800, 16022.00
923.0040, 15971.00
924.1290, 15949.00
925.2530, 16078.00
926.3770, 15981.00
927.5010, 15882.00
928.6250, 15956.00
929.7480, 15749.00
930.8720, 15664.00
931.9950, 15616.00
933.1180, 15406.00
934.2410, 15364.00
935.3640, 15170.00
936.4860, 15054.00
937.6090, 14962.00
938.7310, 14857.00
939.8530, 14893.00
940.9750, 14713.00
942.0970, 14793.00
943.2180, 14781.00
944.3400, 14698.00
945.4610, 14686.00
946.5820, 14873.00
947.7030, 14905.00
948.8240, 14866.00
949.9450, 14980.00
951.0650, 14956.00
952.1860, 15056.00
953.3060, 15096.00
954.4260, 15109.00
955.5460, 15268.00
956.6650, 15328.00
957.7850, 15122.00
958.9040, 15352.00
960.0230, 15262.00
961.1420, 15253.00
962.2610, 15358.00
963.3800, 15362.00
964.4990, 15490.00
965.6170, 15462.87
966.7350, 15531.00
967.8530, 15381.00
968.9710, 15404.00
970.0890, 15272.00
971.2070, 15420.00
972.3240, 15390.00
973.4410, 15213.00
974.5580, 15396.00
975.6750, 15132.00
976.7920, 15177.00
977.9090, 15175.00
979.0250, 15022.00
980.1410, 14979.00
981.2580, 15078.00
982.3740, 15017.00
983.4890, 15025.00
984.6050, 14884.00
985.7200, 14854.00
986.8360, 14831.00
987.9510, 14838.00
989.0660, 14688.27
990.1810, 14529.00
991.2950, 14347.00
992.4100, 14195.00
993.5240, 13946.00
994.6390, 13772.00
995.7530, 13627.00
996.8660, 13397.00
997.9800, 13042.00
999.0940, 13108.00
1000.207, 13052.00
1001.320, 12981.00
1002.433, 13133.00
1003.546, 13274.00
1004.659, 13268.00
1005.772, 13407.00
1006.884, 13524.00
1007.996, 13586.00
1009.108, 13676.00
1010.220, 13672.00
1011.332, 13656.04
1012.444, 13497.00
1013.555, 13420.00
1014.666, 13267.00
1015.777, 12870.00
1016.888, 12675.00
1017.999, 12531.00
1019.110, 12278.18
1020.220, 12111.00
1021.331, 11985.00
1022.441, 11924.00
1023.551, 11904.00
1024.661, 11863.00
1025.770, 11738.00
1026.880, 11825.00
1027.989, 11772.00
1029.098, 11695.00
1030.207, 11570.00
1031.316, 11622.00
1032.425, 11556.00
1033.533, 11509.00
1034.642, 11642.00
1035.750, 11530.00
1036.858, 11541.00
1037.966, 11555.00
1039.073, 11563.00
1040.181, 11553.00
1041.288, 11626.00
1042.396, 11612.00
1043.503, 11584.00
1044.610, 11616.00
1045.716, 11587.00
1046.823, 11662.00
1047.929, 11623.00
1049.036, 11739.00
1050.142, 11691.00
1051.248, 11603.00
1052.353, 11649.00
1053.459, 11614.00
1054.564, 11669.00
1055.670, 11686.00
1056.775, 11570.00
1057.880, 11578.00
1058.985, 11613.00
1060.089, 11808.00
1061.194, 11650.00
1062.298, 11639.00
1063.402, 11749.00
1064.506, 11689.00
1065.610, 11731.00
1066.713, 11831.00
1067.817, 11715.00
1068.920, 11693.00
1070.023, 11801.00
1071.126, 11679.00
1072.229, 11717.00
1073.332, 11849.00
1074.435, 11804.00
1075.537, 11900.00
1076.639, 11800.00
1077.741, 11800.00
1078.843, 11961.00
1079.945, 11856.00
1081.046, 11935.00
1082.148, 11915.00
1083.249, 11932.00
1084.350, 11984.00
1085.451, 11890.00
1086.551, 11874.00
1087.652, 12058.00
1088.752, 11896.00
1089.853, 11995.00
1090.953, 11987.00
1092.053, 12000.00
1093.152, 12013.00
1094.252, 12130.00
1095.351, 12149.00
1096.451, 11946.00
1097.550, 12155.00
1098.649, 11946.00
1099.748, 11993.00
1100.846, 12067.00
1101.945, 12058.00
1103.043, 12078.64
1104.141, 12122.00
1105.239, 12056.00
1106.337, 12087.00
1107.434, 12064.00
1108.532, 11934.00
1109.629, 11992.00
1110.726, 12061.00
1111.823, 12047.00
1112.920, 12142.00
1114.017, 12063.00
1115.113, 12077.00
1116.210, 12134.00
1117.306, 12103.00
1118.402, 12173.00
1119.498, 12256.00
1120.593, 12355.00
1121.689, 12321.00
1122.784, 12251.00
1123.879, 12286.00
1124.974, 12285.00
1126.069, 12338.00
1127.164, 12361.00
1128.259, 12114.00
1129.353, 12052.00
1130.447, 12101.00
1131.541, 12085.00
1132.635, 12015.00
1133.729, 11967.00
1134.822, 11987.00
1135.916, 11875.00
1137.009, 11940.00
1138.102, 11875.00
1139.195, 11842.00
1140.288, 11805.00
1141.380, 11793.00
1142.473, 11809.00
1143.565, 11860.00
1144.657, 11958.00
1145.749, 11944.55
1146.841, 11932.12
1147.932, 11971.00
1149.024, 11908.00
1150.115, 11940.00
1151.206, 12106.00
1152.297, 11905.00
1153.388, 12037.00
1154.479, 12121.00
1155.569, 12034.00
1156.659, 11971.00
1157.750, 12060.00
1158.839, 12109.00
1159.929, 12045.00
1161.019, 12111.00
1162.108, 12137.00
1163.198, 11980.00
1164.287, 12064.00
1165.376, 12075.00
1166.465, 12242.00
1167.553, 12093.00
1168.642, 12198.00
1169.730, 12115.00
1170.818, 12235.00
1171.906, 12162.00
1172.994, 12139.00
1174.082, 12223.00
1175.170, 12159.00
1176.257, 12220.00
1177.344, 12173.00
1178.431, 12344.00
1179.518, 12322.00
1180.605, 12256.00
1181.691, 12352.00
1182.778, 12330.00
1183.864, 12213.00
1184.950, 12255.00
1186.036, 12189.00
1187.122, 12251.00
1188.207, 12355.00
1189.292, 12273.00
1190.378, 12250.00
1191.463, 12156.00
1192.548, 12324.00
1193.632, 12305.00
1194.717, 12311.00
1195.801, 12381.00
1196.886, 12262.00
1197.970, 12326.00
1199.054, 12317.00
1200.137, 12284.00
1201.221, 12303.00
1202.305, 12246.00
1203.388, 12265.00
1204.471, 12310.00
1205.554, 12223.00
1206.637, 12331.00
1207.719, 12255.00
1208.802, 12336.00
1209.884, 12258.00
1210.966, 12358.00
1212.048, 12293.00
1213.130, 12381.00
1214.212, 12438.00
1215.293, 12301.00
1216.374, 12345.00
1217.456, 12396.00
1218.536, 12388.00
1219.617, 12389.54
1220.698, 12379.31
1221.778, 12350.00
1222.859, 12299.00
1223.939, 12296.00
1225.019, 12200.00
1226.099, 12237.00
1227.178, 12274.00
1228.258, 12321.00
1229.337, 12217.00
1230.417, 12346.00
1231.496, 12301.00
1232.574, 12326.00
1233.653, 12173.00
1234.732, 12207.00
1235.810, 12374.00
1236.888, 12257.96
1237.966, 12273.00
1239.044, 12232.00
1240.122, 12221.00
1241.199, 12254.00
1242.277, 12288.00
1243.354, 12281.74
1244.431, 12261.00
1245.508, 12265.00
1246.585, 12252.00
1247.661, 12190.00
1248.738, 12210.58
1249.814, 12301.00
1250.890, 12204.00
1251.966, 12215.00
1253.042, 12194.00
1254.117, 12320.00
1255.193, 12253.00
1256.268, 12338.00
1257.343, 12376.00
1258.418, 12300.00
1259.493, 12314.00
1260.567, 12413.00
1261.642, 12270.00
1262.716, 12304.00
1263.790, 12413.00
1264.864, 12448.00
1265.938, 12451.07
1267.011, 12371.00
1268.085, 12387.00
1269.158, 12360.00
1270.231, 12244.00
1271.304, 12454.00
1272.377, 12386.00
1273.450, 12501.00
1274.522, 12318.00
1275.594, 12482.00
1276.666, 12432.00
1277.738, 12482.00
1278.810, 12407.00
1279.882, 12441.00
1280.953, 12353.00
1282.025, 12456.00
1283.096, 12602.00
1284.167, 12545.00
1285.238, 12559.00
1286.308, 12593.88
1287.379, 12618.00
1288.449, 12627.00
1289.519, 12507.00
1290.589, 12562.00
1291.659, 12542.79
1292.729, 12608.00
1293.798, 12551.00
1294.868, 12589.00
1295.937, 12547.00
1297.006, 12509.00
1298.075, 12770.00
1299.143, 12731.00
1300.212, 12637.00
1301.280, 12742.00
1302.348, 12564.00
1303.416, 12719.00
1304.484, 12653.00
1305.552, 12712.00
1306.620, 12691.00
1307.687, 12734.00
1308.754, 12633.00
1309.821, 12569.00
1310.888, 12765.00
1311.955, 12698.00
1313.021, 12766.00
1314.088, 12747.00
1315.154, 12712.00
1316.220, 12737.00
1317.286, 12793.00
1318.352, 12803.00
1319.417, 12707.00
1320.483, 12824.00
1321.548, 12750.00
1322.613, 12896.00
1323.678, 12757.00
1324.743, 12845.00
1325.807, 12853.00
1326.872, 12735.00
1327.936, 12908.00
1329.000, 12819.00
1330.064, 13008.00
1331.128, 12938.00
1332.191, 12884.00
1333.255, 12881.00
1334.318, 12823.00
1335.381, 12862.00
1336.444, 12920.00
1337.507, 12921.26
1338.569, 12950.36
1339.632, 13006.00
1340.694, 12979.00
1341.756, 13044.00
1342.818, 13078.00
1343.880, 12983.00
1344.941, 13106.00
1346.003, 12939.00
1347.064, 13046.00
1348.125, 13026.00
1349.186, 13020.00
1350.247, 13075.00
1351.308, 13204.00
1352.368, 13091.00
1353.428, 13189.00
1354.489, 13076.00
1355.549, 13150.00
1356.608, 13171.00
1357.668, 13232.00
1358.727, 13250.52
1359.787, 13251.54
1360.846, 13282.79
1361.905, 13304.00
1362.964, 13324.00
1364.022, 13310.00
1365.081, 13228.00
1366.139, 13208.00
1367.197, 13250.00
1368.255, 13215.00
1369.313, 13279.00
1370.371, 13319.00
1371.428, 13403.00
1372.486, 13313.00
1373.543, 13539.00
1374.600, 13400.00
1375.657, 13187.00
1376.713, 13514.00
1377.770, 13304.00
1378.826, 13431.00
1379.882, 13585.00
1380.938, 13381.00
1381.994, 13469.00
1383.050, 13443.00
1384.106, 13525.00
1385.161, 13296.00
1386.216, 13353.00
1387.271, 13498.00
1388.326, 13525.00
1389.381, 13704.00
1390.435, 13600.00
1391.490, 13436.00
1392.544, 13541.00
1393.598, 13499.00
1394.652, 13618.00
1395.705, 13636.00
1396.759, 13540.00
1397.812, 13627.00
1398.866, 13568.00
1399.919, 13645.00
1400.972, 13607.00
1402.024, 13653.00
1403.077, 13627.00
1404.129, 13621.00
1405.181, 13759.00
1406.233, 13669.00
1407.285, 13754.00
1408.337, 13601.00
1409.389, 13701.00
1410.440, 13560.00
1411.491, 13695.00
1412.542, 13816.00
1413.593, 13662.00
1414.644, 13512.00
1415.695, 13892.00
1416.745, 13743.00
1417.795, 13704.00
1418.845, 13644.00
1419.895, 13634.45
1420.945, 13657.58
1421.995, 13687.00
1423.044, 13758.00
1424.093, 13802.00
1425.142, 13873.00
1426.191, 13754.00
1427.240, 13943.00
1428.289, 13874.00
1429.337, 13733.00
1430.385, 13805.00
1431.433, 13781.00
1432.481, 13860.00
1433.529, 13921.00
1434.577, 13859.00
1435.624, 13925.00
1436.672, 14013.00
1437.719, 14021.00
1438.766, 13905.00
1439.812, 13942.00
1440.859, 14132.00
1441.905, 14202.00
1442.952, 14040.00
1443.998, 14011.00
1445.044, 14243.00
1446.090, 14352.00
1447.135, 14252.00
1448.181, 14112.00
1449.226, 14176.00
1450.271, 14151.66
1451.316, 14345.00
1452.361, 14291.00
1453.405, 14398.00
1454.450, 14546.00
1455.494, 14469.00
1456.538, 14667.00
1457.582, 14629.00
1458.626, 14626.00
1459.670, 14497.00
1460.713, 14765.00
1461.757, 14637.00
1462.800, 14873.00
1463.843, 14571.00
1464.886, 14988.00
1465.928, 14915.02
1466.971, 14869.00
1468.013, 15007.00
1469.055, 14933.00
1470.097, 14983.00
1471.139, 15163.00
1472.181, 14975.00
1473.222, 15162.00
1474.263, 15208.00
1475.305, 15230.00
1476.346, 15178.00
1477.386, 15226.00
1478.427, 15162.00
1479.468, 15397.00
1480.508, 15307.00
1481.548, 15134.00
1482.588, 15325.00
1483.628, 15165.00
1484.668, 15325.00
1485.707, 15303.00
1486.747, 15437.00
1487.786, 15423.00
1488.825, 15395.00
1489.864, 15360.00
1490.902, 15278.00
1491.941, 15373.00
1492.979, 15175.00
1494.017, 15205.00
1495.055, 15334.00
1496.093, 15233.00
1497.131, 15263.00
1498.168, 15215.00
1499.206, 15095.00
1500.243, 15235.00
1501.280, 15241.00
1502.317, 15100.00
1503.354, 15185.00
1504.390, 15133.00
1505.426, 15076.00
1506.463, 15068.00
1507.499, 15031.26
1508.535, 15075.00
1509.570, 15049.00
1510.606, 14917.00
1511.641, 15030.00
1512.676, 14968.00
1513.711, 14898.00
1514.746, 15087.00
1515.781, 15106.00
1516.816, 15070.00
1517.850, 14998.00
1518.884, 14872.00
1519.918, 14991.00
1520.952, 14880.00
1521.986, 14793.00
1523.019, 14882.00
1524.053, 14799.00
1525.086, 14749.00
1526.119, 14961.00
1527.152, 14876.00
1528.185, 14979.00
1529.217, 14789.00
1530.250, 14827.00
1531.282, 14819.00
1532.314, 14784.00
1533.346, 14711.00
1534.377, 14647.00
1535.409, 14671.03
1536.440, 14653.80
1537.472, 14732.00
1538.503, 14670.00
1539.534, 14708.00
1540.564, 14648.00
1541.595, 14542.00
1542.625, 14615.00
1543.656, 14624.00
1544.686, 14676.00
1545.716, 14802.00
1546.745, 14778.00
1547.775, 14727.00
1548.804, 14555.00
1549.834, 14760.00
1550.863, 14786.00
1551.892, 14654.00
1552.920, 14853.00
1553.949, 14748.00
1554.977, 14877.00
1556.006, 14737.00
1557.034, 14580.00
1558.062, 14653.00
1559.089, 14713.00
1560.117, 14845.00
1561.144, 14785.00
1562.172, 14805.00
1563.199, 14775.00
1564.226, 14839.00
1565.252, 14688.00
1566.279, 14726.00
1567.305, 14936.00
1568.332, 14849.00
1569.358, 14832.00
1570.384, 15037.00
##END=



