##NAMES=Andradite
##RRUFFID=R060326
##IDEAL CHEMISTRY=Ca_3_Fe^3+^_2_(SiO_4_)_3_
##LOCALITY=Ultevis, Sweden
##OWNER=RRUFF
##SOURCE=Marcus Origlieri
##DESCRIPTION=Reddish-brown colored druse of crystals associated with white svabite R050180
##STATUS=The identification of this mineral has been confirmed by X-ray diffraction and chemical analysis
##URL=rruff.info/R060326
##MEASURED CHEMISTRY=(Ca_2.98_Mn_0.02_)_Σ=3_(Fe^3+^_1.75_Al_0.21_Ti_0.04_)_Σ=2_(Si_1.00_O_4_)_3_
##PIN_ID=M00248
##ORIENTATION=Laser parallel to (0 -1 -1). Fiducial mark perpendicular to laser is parallel to a [1 0 0]
99.64900, 7669.000
100.8830, 7593.000
102.1160, 7726.000
103.3490, 7755.000
104.5820, 7816.000
105.8150, 8018.000
107.0470, 7988.000
108.2800, 8081.000
109.5120, 8052.000
110.7440, 8077.000
111.9760, 7977.000
113.2080, 8016.000
114.4400, 8002.000
115.6710, 7927.000
116.9030, 7891.000
118.1340, 7800.000
119.3650, 7826.000
120.5960, 7822.000
121.8270, 7965.000
123.0580, 7864.000
124.2880, 7923.000
125.5190, 7951.000
126.7490, 7838.000
127.9790, 7896.000
129.2090, 7931.000
130.4390, 8008.000
131.6680, 7950.000
132.8980, 8061.000
134.1270, 8044.000
135.3560, 8195.000
136.5850, 8173.000
137.8140, 8390.000
139.0430, 8569.000
140.2710, 8414.000
141.5000, 8528.000
142.7280, 8411.000
143.9560, 8472.000
145.1840, 8387.000
146.4120, 8340.000
147.6390, 8296.000
148.8670, 8275.919
150.0940, 8271.000
151.3210, 8296.000
152.5490, 8288.000
153.7750, 8353.000
155.0020, 8263.000
156.2290, 8381.000
157.4550, 8359.000
158.6810, 8442.000
159.9080, 8432.000
161.1340, 8682.000
162.3590, 8749.000
163.5850, 8902.000
164.8110, 9109.000
166.0360, 9304.000
167.2610, 9659.000
168.4860, 9778.000
169.7110, 10048.00
170.9360, 10095.99
172.1610, 10170.00
173.3850, 10046.00
174.6100, 9890.000
175.8340, 9674.000
177.0580, 9382.000
178.2820, 9107.000
179.5050, 8949.000
180.7290, 8732.556
181.9520, 8624.000
183.1760, 8499.000
184.3990, 8462.000
185.6220, 8541.000
186.8450, 8524.000
188.0670, 8672.000
189.2900, 8676.000
190.5120, 8574.000
191.7340, 8507.000
192.9560, 8591.000
194.1780, 8540.000
195.4000, 8599.000
196.6220, 8676.000
197.8430, 8663.000
199.0640, 8634.000
200.2860, 8636.000
201.5070, 8706.000
202.7270, 8690.000
203.9480, 8633.000
205.1690, 8666.000
206.3890, 8525.000
207.6090, 8519.000
208.8290, 8630.000
210.0490, 8551.000
211.2690, 8568.000
212.4890, 8761.000
213.7080, 8688.000
214.9280, 8669.000
216.1470, 8755.000
217.3660, 8722.000
218.5850, 8770.000
219.8030, 8903.000
221.0220, 8960.000
222.2400, 9112.000
223.4590, 9279.000
224.6770, 9398.000
225.8950, 9866.000
227.1120, 10066.00
228.3300, 10287.00
229.5480, 10769.00
230.7650, 10891.00
231.9820, 11291.00
233.1990, 11682.00
234.4160, 11856.00
235.6330, 11438.00
236.8490, 11291.00
238.0660, 10970.00
239.2820, 10446.00
240.4980, 9975.000
241.7140, 9701.000
242.9300, 9383.000
244.1460, 9320.000
245.3610, 9129.000
246.5770, 9048.000
247.7920, 9078.000
249.0070, 8999.000
250.2220, 8934.000
251.4370, 9032.000
252.6510, 9176.000
253.8660, 9134.000
255.0800, 9262.000
256.2940, 9177.000
257.5080, 9235.000
258.7220, 9488.000
259.9360, 9693.000
261.1490, 9667.000
262.3630, 9770.000
263.5760, 9827.403
264.7890, 9808.455
266.0020, 9885.000
267.2150, 9765.000
268.4270, 9738.000
269.6400, 9657.000
270.8520, 9638.000
272.0640, 9549.000
273.2760, 9520.000
274.4880, 9502.000
275.7000, 9494.000
276.9120, 9479.108
278.1230, 9471.000
279.3340, 9465.000
280.5450, 9443.000
281.7560, 9435.000
282.9670, 9559.000
284.1780, 9608.000
285.3880, 9604.000
286.5980, 9669.000
287.8090, 9722.601
289.0190, 9779.867
290.2290, 9849.000
291.4380, 9937.000
292.6480, 9978.000
293.8570, 10068.64
295.0670, 10050.00
296.2760, 10169.00
297.4850, 10235.00
298.6930, 10276.00
299.9020, 10407.00
301.1110, 10602.00
302.3190, 10834.00
303.5270, 11097.00
304.7350, 11321.21
305.9430, 11590.77
307.1510, 11813.00
308.3580, 12084.00
309.5660, 12327.00
310.7730, 12487.00
311.9800, 12274.00
313.1870, 12315.00
314.3940, 12062.00
315.6010, 11803.00
316.8070, 11647.00
318.0130, 11477.00
319.2200, 11611.00
320.4260, 11612.00
321.6310, 11791.00
322.8370, 11753.00
324.0430, 11756.00
325.2480, 11780.00
326.4540, 11731.00
327.6590, 11680.00
328.8640, 11751.00
330.0680, 11653.00
331.2730, 11707.00
332.4780, 11818.00
333.6820, 11973.00
334.8860, 12234.00
336.0900, 12592.00
337.2940, 12893.00
338.4980, 13250.00
339.7010, 14011.00
340.9050, 14760.00
342.1080, 15819.00
343.3110, 16962.00
344.5140, 18265.12
345.7170, 19729.00
346.9200, 21062.00
348.1220, 22772.00
349.3240, 23891.00
350.5270, 24615.00
351.7290, 25334.00
352.9310, 25162.00
354.1320, 25156.00
355.3340, 25331.00
356.5350, 25897.00
357.7370, 27162.00
358.9380, 29498.00
360.1390, 32293.00
361.3400, 36110.00
362.5400, 40095.00
363.7410, 44697.00
364.9410, 48917.00
366.1410, 51754.00
367.3410, 53471.00
368.5410, 53025.00
369.7410, 50041.00
370.9400, 46109.00
372.1400, 41538.00
373.3390, 36010.00
374.5380, 31704.00
375.7370, 27660.00
376.9360, 24217.00
378.1350, 21627.00
379.3330, 19515.00
380.5310, 18050.00
381.7300, 16816.00
382.9280, 15788.00
384.1260, 14902.50
385.3230, 14374.00
386.5210, 13653.00
387.7180, 13240.00
388.9160, 12910.00
390.1130, 12618.00
391.3100, 12082.00
392.5060, 11935.00
393.7030, 11708.00
394.9000, 11596.00
396.0960, 11493.00
397.2920, 11302.00
398.4880, 11270.00
399.6840, 11163.00
400.8800, 11230.00
402.0750, 11110.98
403.2710, 11022.00
404.4660, 10995.00
405.6610, 10852.00
406.8560, 10888.00
408.0510, 10816.00
409.2450, 10863.00
410.4400, 10759.00
411.6340, 10785.00
412.8280, 10720.00
414.0220, 10615.00
415.2160, 10660.00
416.4100, 10760.00
417.6030, 10759.00
418.7970, 10799.38
419.9900, 10637.00
421.1830, 10792.00
422.3760, 10789.00
423.5690, 10709.00
424.7610, 10822.00
425.9540, 10674.00
427.1460, 10708.00
428.3380, 10664.00
429.5300, 10829.00
430.7220, 10780.00
431.9140, 10736.00
433.1050, 10773.00
434.2970, 10795.00
435.4880, 10822.01
436.6790, 10940.00
437.8700, 10917.00
439.0610, 10991.00
440.2510, 11042.00
441.4420, 10996.00
442.6320, 11102.00
443.8220, 11186.00
445.0120, 11239.00
446.2020, 11321.00
447.3910, 11418.00
448.5810, 11510.00
449.7700, 11472.00
450.9600, 11535.00
452.1490, 11443.00
453.3370, 11393.00
454.5260, 11401.00
455.7150, 11319.00
456.9030, 11324.00
458.0910, 11238.00
459.2800, 11090.00
460.4670, 11059.00
461.6550, 11041.00
462.8430, 11070.00
464.0300, 10990.00
465.2180, 11017.96
466.4050, 11073.00
467.5920, 11062.00
468.7790, 11103.00
469.9650, 11209.00
471.1520, 11340.00
472.3380, 11513.00
473.5250, 11616.00
474.7110, 11658.00
475.8970, 11714.00
477.0820, 11786.00
478.2680, 11831.00
479.4540, 12244.00
480.6390, 12379.00
481.8240, 12446.00
483.0090, 12770.00
484.1940, 12873.00
485.3780, 13208.00
486.5630, 13209.00
487.7470, 13764.00
488.9320, 13916.00
490.1160, 14178.00
491.3000, 14307.00
492.4830, 14362.00
493.6670, 14171.00
494.8500, 13994.00
496.0340, 13856.00
497.2170, 13710.00
498.4000, 13688.00
499.5820, 13566.00
500.7650, 13448.00
501.9480, 13690.00
503.1300, 13840.00
504.3120, 14362.00
505.4940, 14842.00
506.6760, 15887.00
507.8580, 17195.00
509.0390, 18525.00
510.2210, 20342.00
511.4020, 22188.00
512.5830, 24221.00
513.7640, 26158.00
514.9450, 27916.00
516.1250, 28320.00
517.3060, 28040.00
518.4860, 26775.00
519.6660, 24725.00
520.8460, 22604.00
522.0260, 20793.00
523.2060, 19050.00
524.3850, 17510.00
525.5650, 16281.00
526.7440, 15353.00
527.9230, 14702.00
529.1020, 14113.00
530.2810, 13862.00
531.4590, 13474.00
532.6380, 13180.00
533.8160, 13218.00
534.9940, 12958.00
536.1720, 12885.00
537.3500, 12862.00
538.5270, 12831.00
539.7050, 12760.00
540.8820, 12619.00
542.0590, 12685.00
543.2360, 12774.00
544.4130, 12860.00
545.5900, 12757.00
546.7660, 12775.00
547.9430, 12776.00
549.1190, 12778.00
550.2950, 13034.00
551.4710, 12906.00
552.6470, 12919.00
553.8220, 12762.00
554.9980, 12722.00
556.1730, 12588.00
557.3480, 12664.00
558.5230, 12433.00
559.6980, 12290.00
560.8730, 12371.00
562.0470, 12228.00
563.2220, 12121.00
564.3960, 12097.00
565.5700, 12074.00
566.7440, 12233.00
567.9170, 12248.00
569.0910, 12406.00
570.2640, 12403.00
571.4380, 12651.00
572.6110, 12662.00
573.7840, 12755.00
574.9570, 12748.00
576.1290, 12840.00
577.3020, 12882.00
578.4740, 12812.00
579.6460, 12681.00
580.8180, 12692.00
581.9900, 12599.00
583.1620, 12626.00
584.3330, 12496.00
585.5040, 12451.00
586.6760, 12502.00
587.8470, 12523.00
589.0180, 12459.00
590.1880, 12529.00
591.3590, 12551.00
592.5290, 12588.00
593.7000, 12549.00
594.8700, 12608.00
596.0400, 12599.47
597.2090, 12683.00
598.3790, 12601.00
599.5490, 12557.00
600.7180, 12530.00
601.8870, 12582.00
603.0560, 12558.00
604.2250, 12534.00
605.3940, 12681.00
606.5620, 12449.00
607.7300, 12389.00
608.8990, 12458.00
610.0670, 12482.00
611.2350, 12367.00
612.4020, 12243.00
613.5700, 12123.00
614.7370, 12308.00
615.9050, 12179.00
617.0720, 12375.00
618.2390, 12349.00
619.4060, 12345.00
620.5720, 12127.00
621.7390, 12384.00
622.9050, 12350.00
624.0710, 12270.00
625.2370, 12355.00
626.4030, 12324.00
627.5690, 12301.00
628.7340, 12314.82
629.9000, 12298.02
631.0650, 12269.00
632.2300, 12320.00
633.3950, 12274.06
634.5600, 12327.00
635.7240, 12379.00
636.8890, 12374.00
638.0530, 12484.00
639.2170, 12340.00
640.3810, 12438.00
641.5450, 12592.00
642.7080, 12475.00
643.8720, 12484.00
645.0350, 12492.00
646.1980, 12310.00
647.3610, 12481.00
648.5240, 12415.00
649.6870, 12392.00
650.8490, 12556.00
652.0120, 12531.00
653.1740, 12378.00
654.3360, 12418.00
655.4980, 12449.00
656.6600, 12585.00
657.8210, 12484.00
658.9830, 12541.00
660.1440, 12369.00
661.3050, 12443.00
662.4660, 12537.00
663.6270, 12507.00
664.7870, 12417.00
665.9480, 12605.00
667.1080, 12569.00
668.2680, 12635.00
669.4280, 12506.00
670.5880, 12635.00
671.7480, 12526.00
672.9070, 12617.00
674.0670, 12574.00
675.2260, 12551.00
676.3850, 12507.00
677.5440, 12447.00
678.7030, 12546.00
679.8610, 12502.91
681.0200, 12680.00
682.1780, 12508.00
683.3360, 12548.00
684.4940, 12510.00
685.6520, 12673.00
686.8090, 12587.00
687.9670, 12603.00
689.1240, 12578.00
690.2810, 12591.00
691.4380, 12662.00
692.5950, 12565.00
693.7520, 12722.00
694.9080, 12582.00
696.0650, 12660.00
697.2210, 12797.00
698.3770, 12905.00
699.5330, 12820.00
700.6880, 12680.00
701.8440, 12759.00
702.9990, 12903.00
704.1550, 12980.00
705.3100, 12855.00
706.4650, 12913.00
707.6190, 12865.00
708.7740, 12932.00
709.9290, 13012.00
711.0830, 13044.00
712.2370, 12989.00
713.3910, 12976.00
714.5450, 12917.00
715.6980, 13155.00
716.8520, 13108.00
718.0050, 13243.00
719.1580, 13176.00
720.3110, 13161.00
721.4640, 13248.00
722.6170, 13360.00
723.7700, 13457.00
724.9220, 13380.00
726.0740, 13458.00
727.2260, 13375.00
728.3780, 13401.00
729.5300, 13500.00
730.6810, 13459.00
731.8330, 13529.00
732.9840, 13434.00
734.1350, 13536.00
735.2860, 13576.00
736.4370, 13517.00
737.5880, 13718.00
738.7380, 13667.00
739.8880, 13788.00
741.0390, 13728.00
742.1890, 13822.00
743.3380, 13783.07
744.4880, 13791.00
745.6380, 13722.00
746.7870, 13809.00
747.9360, 13828.00
749.0850, 13731.00
750.2340, 13934.00
751.3830, 13820.00
752.5310, 13807.00
753.6800, 13877.00
754.8280, 13976.00
755.9760, 13905.00
757.1240, 13865.00
758.2720, 13937.00
759.4190, 13845.00
760.5670, 13914.00
761.7140, 13829.00
762.8610, 13938.00
764.0080, 14042.00
765.1550, 14000.00
766.3020, 13994.00
767.4480, 13974.00
768.5950, 14004.00
769.7410, 13994.46
770.8870, 14017.00
772.0330, 13995.00
773.1780, 14115.00
774.3240, 14102.00
775.4690, 14180.00
776.6140, 14062.00
777.7590, 14179.00
778.9040, 14346.00
780.0490, 14226.00
781.1940, 14250.00
782.3380, 14325.00
783.4820, 14295.43
784.6260, 14413.00
785.7700, 14384.00
786.9140, 14460.00
788.0580, 14567.00
789.2010, 14689.00
790.3450, 14852.00
791.4880, 14833.00
792.6310, 15055.00
793.7730, 15067.00
794.9160, 15308.00
796.0590, 15696.00
797.2010, 15760.00
798.3430, 15743.00
799.4850, 16179.00
800.6270, 16310.00
801.7690, 16795.00
802.9100, 17013.00
804.0520, 17306.00
805.1930, 17611.00
806.3340, 18301.00
807.4750, 18776.00
808.6160, 19335.00
809.7560, 19927.00
810.8970, 20614.00
812.0370, 21155.00
813.1770, 21506.00
814.3170, 21733.00
815.4570, 21643.00
816.5960, 21199.00
817.7360, 21184.00
818.8750, 20746.00
820.0140, 20268.00
821.1530, 19727.00
822.2920, 19286.00
823.4310, 18946.00
824.5690, 18723.00
825.7070, 18461.00
826.8460, 18399.00
827.9840, 18255.00
829.1220, 18473.00
830.2590, 18584.00
831.3970, 18683.00
832.5340, 18988.00
833.6710, 19492.00
834.8080, 19695.00
835.9450, 20152.00
837.0820, 20591.00
838.2190, 20997.00
839.3550, 21433.00
840.4910, 21569.00
841.6270, 21541.00
842.7630, 21469.00
843.8990, 21237.00
845.0350, 20972.00
846.1700, 20564.00
847.3060, 20185.00
848.4410, 19763.00
849.5760, 19547.00
850.7100, 19366.00
851.8450, 19354.00
852.9800, 19326.00
854.1140, 19383.03
855.2480, 19424.00
856.3820, 19696.00
857.5160, 19930.00
858.6500, 20269.00
859.7830, 20765.00
860.9170, 21144.00
862.0500, 21728.00
863.1830, 22629.00
864.3160, 23919.00
865.4480, 25188.00
866.5810, 26720.00
867.7130, 28774.00
868.8460, 30443.00
869.9780, 32179.00
871.1100, 34087.00
872.2410, 34999.00
873.3730, 35221.00
874.5050, 34447.00
875.6360, 33250.00
876.7670, 31291.00
877.8980, 29201.00
879.0290, 27107.00
880.1590, 25200.00
881.2900, 23425.00
882.4200, 21962.00
883.5500, 20662.00
884.6800, 19697.00
885.8100, 19123.00
886.9400, 18461.00
888.0690, 18011.00
889.1990, 17394.00
890.3280, 17165.00
891.4570, 16917.00
892.5860, 16823.00
893.7140, 16558.00
894.8430, 16202.00
895.9710, 16243.00
897.1000, 16043.00
898.2280, 15904.00
899.3560, 16053.00
900.4830, 15751.00
901.6110, 15778.00
902.7380, 15727.00
903.8660, 15739.00
904.9930, 15702.00
906.1200, 15696.00
907.2460, 15632.00
908.3730, 15682.00
909.5000, 15383.00
910.6260, 15496.00
911.7520, 15447.00
912.8780, 15608.00
914.0040, 15498.00
915.1290, 15533.00
916.2550, 15457.00
917.3800, 15509.00
918.5050, 15554.00
919.6300, 15608.00
920.7550, 15478.00
921.8800, 15636.00
923.0040, 15451.00
924.1290, 15561.00
925.2530, 15731.00
926.3770, 15849.00
927.5010, 15738.00
928.6250, 15677.00
929.7480, 15866.00
930.8720, 16017.00
931.9950, 15916.00
933.1180, 15710.00
934.2410, 15740.00
935.3640, 15877.00
936.4860, 15782.00
937.6090, 15948.00
938.7310, 15847.43
939.8530, 15834.57
940.9750, 15737.00
942.0970, 15719.00
943.2180, 15667.45
944.3400, 15690.00
945.4610, 15608.00
946.5820, 15592.00
947.7030, 15628.00
948.8240, 15657.00
949.9450, 15776.00
951.0650, 15839.00
952.1860, 15912.58
953.3060, 15977.34
954.4260, 16030.00
955.5460, 16037.00
956.6650, 16011.00
957.7850, 15947.00
958.9040, 15990.00
960.0230, 15928.00
961.1420, 16026.00
962.2610, 16066.00
963.3800, 16000.00
964.4990, 16132.00
965.6170, 16010.00
966.7350, 16123.00
967.8530, 16372.00
968.9710, 16340.00
970.0890, 16375.00
971.2070, 16313.00
972.3240, 16292.00
973.4410, 16463.00
974.5580, 16280.00
975.6750, 16439.00
976.7920, 16332.00
977.9090, 16483.00
979.0250, 16437.00
980.1410, 16633.00
981.2580, 16484.00
982.3740, 17112.00
983.4890, 16929.14
984.6050, 16924.62
985.7200, 17026.00
986.8360, 16734.00
987.9510, 17029.00
989.0660, 17099.00
990.1810, 17340.00
991.2950, 17392.00
992.4100, 17584.00
993.5240, 17840.00
994.6390, 17758.00
995.7530, 17913.00
996.8660, 17809.00
997.9800, 17495.00
999.0940, 17255.00
1000.207, 16961.00
1001.320, 16686.00
1002.433, 16613.00
1003.546, 16416.00
1004.659, 16387.00
1005.772, 16337.00
1006.884, 16262.00
1007.996, 16232.00
1009.108, 16120.00
1010.220, 16272.00
1011.332, 16378.00
1012.444, 16184.00
1013.555, 16219.00
1014.666, 16114.00
1015.777, 16057.00
1016.888, 16123.00
1017.999, 16163.00
1019.110, 16203.00
1020.220, 16227.00
1021.331, 16147.00
1022.441, 16167.00
1023.551, 16192.00
1024.661, 16160.13
1025.770, 16186.80
1026.880, 16157.00
1027.989, 16194.00
1029.098, 16203.00
1030.207, 16190.00
1031.316, 16141.00
1032.425, 16291.00
1033.533, 16175.00
1034.642, 16379.00
1035.750, 16124.00
1036.858, 16157.00
1037.966, 16203.00
1039.073, 16090.00
1040.181, 16310.00
1041.288, 16209.00
1042.396, 16304.00
1043.503, 16398.00
1044.610, 16230.00
1045.716, 16309.00
1046.823, 16189.00
1047.929, 16190.08
1049.036, 16389.00
1050.142, 16193.00
1051.248, 16394.00
1052.353, 16419.00
1053.459, 16316.00
1054.564, 16456.00
1055.670, 16320.00
1056.775, 16169.00
1057.880, 16418.00
1058.985, 16332.00
1060.089, 16363.00
1061.194, 16492.00
1062.298, 16461.00
1063.402, 16503.00
1064.506, 16699.00
1065.610, 16479.00
1066.713, 16600.00
1067.817, 16562.00
1068.920, 16703.00
1070.023, 16795.00
1071.126, 16729.00
1072.229, 16783.00
1073.332, 16681.00
1074.435, 16679.00
1075.537, 16822.00
1076.639, 16693.00
1077.741, 16828.00
1078.843, 16886.00
1079.945, 16803.00
1081.046, 16927.00
1082.148, 16953.00
1083.249, 16977.00
1084.350, 17141.00
1085.451, 17088.00
1086.551, 16827.00
1087.652, 17020.00
1088.752, 16954.00
1089.853, 16929.00
1090.953, 17051.00
1092.053, 17021.00
1093.152, 17002.00
1094.252, 17128.00
1095.351, 17079.00
1096.451, 17122.00
1097.550, 17226.00
1098.649, 17171.00
1099.748, 17049.00
1100.846, 17303.00
1101.945, 17187.00
1103.043, 17184.00
1104.141, 17329.00
1105.239, 17161.00
1106.337, 17237.00
1107.434, 17344.00
1108.532, 17336.00
1109.629, 17271.00
1110.726, 17201.00
1111.823, 17105.00
1112.920, 17139.09
1114.017, 17320.00
1115.113, 17273.00
1116.210, 17290.00
1117.306, 17488.00
1118.402, 17398.00
1119.498, 17461.00
1120.593, 17453.00
1121.689, 17507.00
1122.784, 17521.00
1123.879, 17426.00
1124.974, 17467.00
1126.069, 17369.00
1127.164, 17452.00
1128.259, 17435.77
1129.353, 17466.00
1130.447, 17485.00
1131.541, 17467.00
1132.635, 17531.00
1133.729, 17514.44
1134.822, 17540.00
1135.916, 17508.00
1137.009, 17451.00
1138.102, 17422.00
1139.195, 17360.00
1140.288, 17497.00
1141.380, 17394.00
1142.473, 17503.00
1143.565, 17565.00
1144.657, 17535.00
1145.749, 17511.00
1146.841, 17517.00
1147.932, 17539.00
1149.024, 17386.00
1150.115, 17524.00
1151.206, 17640.00
1152.297, 17533.00
1153.388, 17632.00
1154.479, 17769.00
1155.569, 17773.00
1156.659, 17738.00
1157.750, 17765.77
1158.839, 17858.00
1159.929, 17747.00
1161.019, 17669.00
1162.108, 17735.00
1163.198, 17787.00
1164.287, 17658.00
1165.376, 17929.00
1166.465, 17825.00
1167.553, 17995.00
1168.642, 17741.00
1169.730, 17912.00
1170.818, 17889.00
1171.906, 17941.00
1172.994, 18007.00
1174.082, 18045.00
1175.170, 18038.00
1176.257, 18029.00
1177.344, 17978.00
1178.431, 18032.00
1179.518, 18109.00
1180.605, 18230.00
1181.691, 17984.00
1182.778, 18074.00
1183.864, 18111.00
1184.950, 18253.00
1186.036, 18028.00
1187.122, 18093.00
1188.207, 18131.00
1189.292, 18205.00
1190.378, 18192.00
1191.463, 18225.00
1192.548, 18240.00
1193.632, 18253.62
1194.717, 18239.00
1195.801, 18277.00
1196.886, 18217.00
1197.970, 18187.00
1199.054, 18235.00
1200.137, 18293.00
1201.221, 18280.00
1202.305, 18307.00
1203.388, 18378.00
1204.471, 18351.00
1205.554, 18405.64
1206.637, 18336.00
1207.719, 18467.00
1208.802, 18440.00
1209.884, 18464.54
1210.966, 18214.00
1212.048, 18453.00
1213.130, 18254.00
1214.212, 18290.00
1215.293, 18354.00
1216.374, 18251.00
1217.456, 18460.00
1218.536, 18564.00
1219.617, 18327.00
1220.698, 18500.00
1221.778, 18668.00
1222.859, 18553.00
1223.939, 18404.00
1225.019, 18489.00
1226.099, 18295.00
1227.178, 18449.00
1228.258, 18422.00
1229.337, 18434.00
1230.417, 18430.00
1231.496, 18576.00
1232.574, 18536.00
1233.653, 18275.00
1234.732, 18560.00
1235.810, 18422.00
1236.888, 18605.00
1237.966, 18544.00
1239.044, 18422.00
1240.122, 18550.00
1241.199, 18487.00
1242.277, 18628.00
1243.354, 18533.00
1244.431, 18499.00
1245.508, 18586.00
1246.585, 18660.00
1247.661, 18546.00
1248.738, 18576.00
1249.814, 18645.00
1250.890, 18658.00
1251.966, 18684.00
1253.042, 18653.00
1254.117, 18666.00
1255.193, 18932.00
1256.268, 18737.00
1257.343, 18822.00
1258.418, 18743.00
1259.493, 18645.00
1260.567, 18671.00
1261.642, 18663.38
1262.716, 18843.00
1263.790, 18821.00
1264.864, 18882.00
1265.938, 19114.00
1267.011, 18824.00
1268.085, 18818.00
1269.158, 18708.00
1270.231, 19010.00
1271.304, 18915.00
1272.377, 19007.00
1273.450, 18981.00
1274.522, 19051.00
1275.594, 19152.00
1276.666, 18942.00
1277.738, 19001.00
1278.810, 19146.00
1279.882, 19201.00
1280.953, 19069.00
1282.025, 19093.00
1283.096, 19086.00
1284.167, 19294.00
1285.238, 19182.00
1286.308, 19242.00
1287.379, 19089.00
1288.449, 19265.00
1289.519, 19188.00
1290.589, 19139.00
1291.659, 19311.00
1292.729, 19333.00
1293.798, 19405.00
1294.868, 19226.00
1295.937, 19318.00
1297.006, 19474.00
1298.075, 19234.00
1299.143, 19476.00
1300.212, 19441.00
1301.280, 19384.00
1302.348, 19412.00
1303.416, 19470.00
1304.484, 19594.00
1305.552, 19618.00
1306.620, 19466.00
1307.687, 19418.00
1308.754, 19603.00
1309.821, 19469.00
1310.888, 19541.00
1311.955, 19628.00
1313.021, 19649.00
1314.088, 19697.00
1315.154, 19566.00
1316.220, 19547.00
1317.286, 19891.00
1318.352, 19743.00
1319.417, 19801.00
1320.483, 19577.00
1321.548, 19742.00
1322.613, 19768.00
1323.678, 19729.00
1324.743, 19958.00
1325.807, 19788.00
1326.872, 19828.00
1327.936, 19738.00
1329.000, 19929.00
1330.064, 19901.00
1331.128, 20012.00
1332.191, 20038.00
1333.255, 19949.00
1334.318, 19797.00
1335.381, 19969.00
1336.444, 19970.00
1337.507, 20061.00
1338.569, 19996.00
1339.632, 19954.00
1340.694, 20103.00
1341.756, 20024.00
1342.818, 20141.00
1343.880, 19950.00
1344.941, 20159.00
1346.003, 19989.00
1347.064, 20157.00
1348.125, 20108.00
1349.186, 20206.00
1350.247, 20312.00
1351.308, 20124.00
1352.368, 20264.00
1353.428, 19951.00
1354.489, 20344.00
1355.549, 20189.00
1356.608, 20287.00
1357.668, 20156.00
1358.727, 20599.00
1359.787, 20317.00
1360.846, 20376.00
1361.905, 20387.00
1362.964, 20293.00
1364.022, 20332.00
1365.081, 20470.00
1366.139, 20342.00
1367.197, 20345.00
1368.255, 20594.00
1369.313, 20562.00
1370.371, 20635.00
1371.428, 20646.00
1372.486, 20619.58
1373.543, 20552.00
1374.600, 20578.00
1375.657, 20557.00
1376.713, 20563.00
1377.770, 20613.28
1378.826, 20713.23
1379.882, 20723.90
1380.938, 20606.00
1381.994, 20654.00
1383.050, 20508.00
1384.106, 20658.00
1385.161, 20784.00
1386.216, 20822.00
1387.271, 20841.11
1388.326, 20716.00
1389.381, 20772.00
1390.435, 20722.00
1391.490, 20688.00
1392.544, 20658.00
1393.598, 20748.00
1394.652, 20964.00
1395.705, 20858.00
1396.759, 21017.00
1397.812, 20975.00
1398.866, 20943.00
1399.919, 20723.00
1400.972, 20939.00
1402.024, 20974.00
1403.077, 20832.00
1404.129, 20984.00
1405.181, 20917.00
1406.233, 21065.00
1407.285, 21163.00
1408.337, 20879.00
1409.389, 21032.00
1410.440, 21104.00
1411.491, 21101.00
1412.542, 21210.00
1413.593, 21128.00
1414.644, 21101.00
1415.695, 20936.00
1416.745, 21156.00
1417.795, 21110.00
1418.845, 21097.00
1419.895, 20951.00
1420.945, 21150.00
1421.995, 20957.00
1423.044, 21140.00
1424.093, 21287.00
1425.142, 21228.00
1426.191, 21298.00
1427.240, 21297.00
1428.289, 21287.45
1429.337, 21241.00
1430.385, 21303.00
1431.433, 21331.00
1432.481, 21387.00
1433.529, 21414.00
1434.577, 21317.00
1435.624, 21360.08
1436.672, 21405.00
1437.719, 21351.00
1438.766, 21427.00
1439.812, 21455.00
1440.859, 21471.00
1441.905, 21477.00
1442.952, 21411.00
1443.998, 21479.16
1445.044, 21447.00
1446.090, 21574.00
1447.135, 21570.00
1448.181, 21619.00
1449.226, 21877.00
1450.271, 21652.00
1451.316, 21535.00
1452.361, 21488.00
1453.405, 21631.00
1454.450, 21779.00
1455.494, 21645.00
1456.538, 21628.00
1457.582, 21759.00
1458.626, 21668.00
1459.670, 21712.00
1460.713, 21650.00
1461.757, 21638.36
1462.800, 21697.00
1463.843, 21674.00
1464.886, 21775.00
1465.928, 21934.00
1466.971, 21862.00
1468.013, 21958.00
1469.055, 21907.00
1470.097, 21752.00
1471.139, 22006.00
1472.181, 21890.00
1473.222, 21969.00
1474.263, 21993.00
1475.305, 22130.00
1476.346, 22082.00
1477.386, 22133.42
1478.427, 22045.00
1479.468, 22123.00
1480.508, 22127.00
1481.548, 22057.00
1482.588, 22223.00
1483.628, 22157.00
1484.668, 22010.00
1485.707, 22368.00
1486.747, 22065.00
1487.786, 22076.00
1488.825, 22070.00
1489.864, 22193.00
1490.902, 22006.00
1491.941, 22216.00
1492.979, 22203.00
1494.017, 22064.00
1495.055, 22150.00
1496.093, 22142.00
1497.131, 22131.00
1498.168, 22153.00
1499.206, 22330.00
1500.243, 22358.00
1501.280, 22404.00
1502.317, 22207.00
1503.354, 22455.00
1504.390, 22275.00
1505.426, 22366.00
1506.463, 22466.00
1507.499, 22406.00
1508.535, 22334.00
1509.570, 22613.00
1510.606, 22494.00
1511.641, 22659.00
1512.676, 22190.00
1513.711, 22341.00
1514.746, 22466.00
1515.781, 22608.00
1516.816, 22506.00
1517.850, 22658.00
1518.884, 22614.87
1519.918, 22711.00
1520.952, 22565.00
1521.986, 22734.00
1523.019, 22717.00
1524.053, 22812.00
1525.086, 22770.00
1526.119, 22700.00
1527.152, 22857.00
1528.185, 22672.00
1529.217, 22792.00
1530.250, 22671.00
1531.282, 22671.00
1532.314, 22799.00
1533.346, 22764.00
1534.377, 22902.00
1535.409, 22817.00
1536.440, 22924.00
1537.472, 22815.00
1538.503, 22938.00
1539.534, 22822.00
1540.564, 22746.00
1541.595, 22913.00
1542.625, 22999.00
1543.656, 22928.00
1544.686, 23086.00
1545.716, 23113.00
1546.745, 22970.00
1547.775, 22953.00
1548.804, 22980.00
1549.834, 23006.00
1550.863, 23026.00
1551.892, 22981.00
1552.920, 23035.00
1553.949, 23184.00
1554.977, 23117.00
1556.006, 23235.00
1557.034, 23249.00
1558.062, 23176.00
1559.089, 23181.00
1560.117, 23162.00
1561.144, 23123.00
1562.172, 23098.00
1563.199, 23110.00
1564.226, 23223.00
1565.252, 23409.00
1566.279, 23111.00
1567.305, 23347.00
1568.332, 23417.00
1569.358, 23378.00
1570.384, 23556.00
##END=



