##NAMES=Andradite
##RRUFFID=R060326
##IDEAL CHEMISTRY=Ca_3_Fe^3+^_2_(SiO_4_)_3_
##LOCALITY=Ultevis, Sweden
##OWNER=RRUFF
##SOURCE=Marcus Origlieri
##DESCRIPTION=Reddish-brown colored druse of crystals associated with white svabite R050180
##STATUS=The identification of this mineral has been confirmed by X-ray diffraction and chemical analysis
##URL=rruff.info/R060326
##MEASURED CHEMISTRY=(Ca_2.98_Mn_0.02_)_Σ=3_(Fe^3+^_1.75_Al_0.21_Ti_0.04_)_Σ=2_(Si_1.00_O_4_)_3_
##PIN_ID=M00248
##ORIENTATION=Laser parallel to (0 -1 -1). Fiducial mark perpendicular to laser is parallel to a [1 0 0]
99.64900, 8331.000
100.8830, 8332.000
102.1160, 8350.000
103.3490, 8316.000
104.5820, 8382.000
105.8150, 8500.000
107.0470, 8523.000
108.2800, 8437.000
109.5120, 8424.000
110.7440, 8369.000
111.9760, 8339.000
113.2080, 8360.000
114.4400, 8367.000
115.6710, 8342.000
116.9030, 8368.000
118.1340, 8357.000
119.3650, 8313.000
120.5960, 8283.000
121.8270, 8237.000
123.0580, 8203.000
124.2880, 8153.000
125.5190, 8155.000
126.7490, 8160.081
127.9790, 8202.000
129.2090, 8240.000
130.4390, 8208.000
131.6680, 8303.000
132.8980, 8260.000
134.1270, 8224.000
135.3560, 8246.000
136.5850, 8231.000
137.8140, 8249.000
139.0430, 8300.000
140.2710, 8269.000
141.5000, 8414.000
142.7280, 8488.000
143.9560, 8371.000
145.1840, 8304.000
146.4120, 8411.000
147.6390, 8313.000
148.8670, 8298.000
150.0940, 8365.000
151.3210, 8310.000
152.5490, 8414.000
153.7750, 8535.000
155.0020, 8356.000
156.2290, 8468.000
157.4550, 8459.000
158.6810, 8514.000
159.9080, 8573.000
161.1340, 8566.000
162.3590, 8576.000
163.5850, 8677.000
164.8110, 8789.000
166.0360, 9027.000
167.2610, 9243.000
168.4860, 9687.000
169.7110, 9922.000
170.9360, 10324.00
172.1610, 10487.00
173.3850, 10504.00
174.6100, 10334.00
175.8340, 10142.00
177.0580, 9698.000
178.2820, 9610.000
179.5050, 9354.000
180.7290, 9126.000
181.9520, 9143.000
183.1760, 8930.000
184.3990, 8932.000
185.6220, 8807.000
186.8450, 8838.000
188.0670, 8835.000
189.2900, 8680.000
190.5120, 8766.000
191.7340, 8825.000
192.9560, 8828.000
194.1780, 8893.000
195.4000, 8712.000
196.6220, 8754.000
197.8430, 8832.000
199.0640, 8759.000
200.2860, 8815.000
201.5070, 8906.000
202.7270, 8830.000
203.9480, 8799.000
205.1690, 8712.000
206.3890, 8716.000
207.6090, 8781.000
208.8290, 8702.000
210.0490, 8757.000
211.2690, 8684.000
212.4890, 8825.000
213.7080, 8792.000
214.9280, 8837.000
216.1470, 8776.000
217.3660, 8787.000
218.5850, 8923.000
219.8030, 8944.000
221.0220, 8993.000
222.2400, 9071.773
223.4590, 9076.000
224.6770, 9218.000
225.8950, 9284.000
227.1120, 9422.000
228.3300, 9433.000
229.5480, 9635.000
230.7650, 9913.000
231.9820, 10092.00
233.1990, 10411.00
234.4160, 10595.00
235.6330, 10263.00
236.8490, 10237.00
238.0660, 9961.000
239.2820, 9603.000
240.4980, 9573.000
241.7140, 9300.000
242.9300, 9084.000
244.1460, 9060.000
245.3610, 8935.000
246.5770, 9053.000
247.7920, 9121.000
249.0070, 9078.000
250.2220, 9150.000
251.4370, 9103.000
252.6510, 9078.000
253.8660, 9189.000
255.0800, 9166.000
256.2940, 9244.484
257.5080, 9348.000
258.7220, 9419.000
259.9360, 9434.000
261.1490, 9590.000
262.3630, 9523.000
263.5760, 9562.000
264.7890, 9564.000
266.0020, 9631.000
267.2150, 9648.000
268.4270, 9719.000
269.6400, 9599.000
270.8520, 9704.000
272.0640, 9569.000
273.2760, 9549.000
274.4880, 9657.000
275.7000, 9578.000
276.9120, 9635.000
278.1230, 9673.000
279.3340, 9565.000
280.5450, 9706.000
281.7560, 9707.000
282.9670, 9701.000
284.1780, 9802.000
285.3880, 9745.000
286.5980, 9976.000
287.8090, 9856.000
289.0190, 10024.00
290.2290, 10186.00
291.4380, 10230.00
292.6480, 10275.00
293.8570, 10538.00
295.0670, 10428.00
296.2760, 10322.00
297.4850, 10236.00
298.6930, 10403.00
299.9020, 10402.00
301.1110, 10291.00
302.3190, 10548.00
303.5270, 10501.00
304.7350, 10550.00
305.9430, 10926.00
307.1510, 10963.00
308.3580, 11152.00
309.5660, 11243.00
310.7730, 11282.92
311.9800, 11491.00
313.1870, 11300.00
314.3940, 11344.00
315.6010, 11238.00
316.8070, 11016.00
318.0130, 11211.00
319.2200, 11227.00
320.4260, 11117.00
321.6310, 11479.00
322.8370, 11477.00
324.0430, 11571.00
325.2480, 11531.00
326.4540, 11713.00
327.6590, 11630.00
328.8640, 11720.00
330.0680, 11942.00
331.2730, 12071.00
332.4780, 12240.00
333.6820, 12506.00
334.8860, 12889.00
336.0900, 13277.00
337.2940, 13629.00
338.4980, 14206.00
339.7010, 15192.00
340.9050, 16222.00
342.1080, 17582.00
343.3110, 19302.00
344.5140, 21166.00
345.7170, 23722.00
346.9200, 26131.00
348.1220, 29182.00
349.3240, 31382.00
350.5270, 32947.00
351.7290, 33132.00
352.9310, 32612.00
354.1320, 31204.00
355.3340, 30097.00
356.5350, 28947.00
357.7370, 28641.00
358.9380, 29349.00
360.1390, 31193.00
361.3400, 33926.00
362.5400, 37956.00
363.7410, 42419.00
364.9410, 48092.00
366.1410, 52074.00
367.3410, 54946.00
368.5410, 54573.00
369.7410, 52020.00
370.9400, 47931.00
372.1400, 42527.00
373.3390, 37221.00
374.5380, 32448.00
375.7370, 27890.00
376.9360, 24726.00
378.1350, 21870.00
379.3330, 20053.00
380.5310, 18372.00
381.7300, 17397.00
382.9280, 16274.00
384.1260, 15629.00
385.3230, 14900.00
386.5210, 14313.00
387.7180, 13673.00
388.9160, 13034.00
390.1130, 12669.00
391.3100, 12550.00
392.5060, 12234.00
393.7030, 11911.00
394.9000, 11532.00
396.0960, 11584.00
397.2920, 11486.00
398.4880, 11216.00
399.6840, 11109.00
400.8800, 10883.00
402.0750, 10899.00
403.2710, 10958.00
404.4660, 10883.00
405.6610, 10885.00
406.8560, 10734.00
408.0510, 10868.00
409.2450, 10750.00
410.4400, 10646.00
411.6340, 10694.00
412.8280, 10751.00
414.0220, 10667.00
415.2160, 10654.00
416.4100, 10655.00
417.6030, 10666.00
418.7970, 10638.00
419.9900, 10727.00
421.1830, 10593.00
422.3760, 10690.00
423.5690, 10765.00
424.7610, 10657.00
425.9540, 10670.00
427.1460, 10684.00
428.3380, 10612.00
429.5300, 10606.00
430.7220, 10664.00
431.9140, 10730.00
433.1050, 10767.00
434.2970, 10854.00
435.4880, 10846.50
436.6790, 10772.00
437.8700, 10844.00
439.0610, 10842.00
440.2510, 10854.00
441.4420, 10996.00
442.6320, 10797.00
443.8220, 10813.00
445.0120, 10905.00
446.2020, 11050.00
447.3910, 10945.00
448.5810, 11026.00
449.7700, 11133.00
450.9600, 11089.00
452.1490, 11234.00
453.3370, 11132.00
454.5260, 10989.00
455.7150, 10898.00
456.9030, 10843.99
458.0910, 10834.00
459.2800, 10810.00
460.4670, 10816.00
461.6550, 10889.00
462.8430, 10882.00
464.0300, 10944.00
465.2180, 10942.00
466.4050, 10919.00
467.5920, 10890.00
468.7790, 10966.00
469.9650, 11119.00
471.1520, 11196.00
472.3380, 11255.00
473.5250, 11425.00
474.7110, 11430.00
475.8970, 11558.00
477.0820, 11789.00
478.2680, 11703.00
479.4540, 12014.00
480.6390, 12125.00
481.8240, 12196.00
483.0090, 12498.00
484.1940, 12613.00
485.3780, 12900.00
486.5630, 13275.00
487.7470, 13540.00
488.9320, 13746.00
490.1160, 13992.00
491.3000, 14101.98
492.4830, 14170.43
493.6670, 14227.00
494.8500, 14070.00
496.0340, 13981.00
497.2170, 13669.00
498.4000, 13419.00
499.5820, 13449.00
500.7650, 13309.00
501.9480, 13286.00
503.1300, 13694.00
504.3120, 13603.00
505.4940, 14314.00
506.6760, 14884.00
507.8580, 16068.00
509.0390, 17102.00
510.2210, 18694.00
511.4020, 20580.00
512.5830, 22878.00
513.7640, 25346.00
514.9450, 27094.00
516.1250, 28532.00
517.3060, 28403.00
518.4860, 27061.00
519.6660, 25036.00
520.8460, 22890.00
522.0260, 20596.00
523.2060, 18772.00
524.3850, 17171.00
525.5650, 16070.00
526.7440, 15039.00
527.9230, 14490.00
529.1020, 13884.00
530.2810, 13561.00
531.4590, 13258.00
532.6380, 13125.00
533.8160, 12780.00
534.9940, 12687.00
536.1720, 12659.00
537.3500, 12493.00
538.5270, 12593.00
539.7050, 12430.00
540.8820, 12456.00
542.0590, 12353.00
543.2360, 12424.00
544.4130, 12397.00
545.5900, 12389.00
546.7660, 12387.00
547.9430, 12403.00
549.1190, 12228.00
550.2950, 12369.00
551.4710, 12276.00
552.6470, 12348.00
553.8220, 12381.00
554.9980, 12323.00
556.1730, 12268.00
557.3480, 12171.00
558.5230, 12053.00
559.6980, 12067.00
560.8730, 11899.00
562.0470, 12028.00
563.2220, 12035.00
564.3960, 11987.00
565.5700, 12101.00
566.7440, 12059.00
567.9170, 12338.00
569.0910, 12399.00
570.2640, 12499.00
571.4380, 12696.00
572.6110, 12828.00
573.7840, 13050.00
574.9570, 13173.00
576.1290, 13117.00
577.3020, 13149.00
578.4740, 13104.00
579.6460, 12750.00
580.8180, 12643.00
581.9900, 12594.00
583.1620, 12643.00
584.3330, 12366.00
585.5040, 12490.00
586.6760, 12388.00
587.8470, 12430.00
589.0180, 12346.00
590.1880, 12323.00
591.3590, 12294.00
592.5290, 12448.00
593.7000, 12435.00
594.8700, 12434.00
596.0400, 12342.00
597.2090, 12457.00
598.3790, 12363.00
599.5490, 12175.00
600.7180, 12482.00
601.8870, 12237.00
603.0560, 12356.00
604.2250, 12406.00
605.3940, 12293.00
606.5620, 12278.00
607.7300, 12202.00
608.8990, 12176.00
610.0670, 12118.25
611.2350, 12190.00
612.4020, 12037.00
613.5700, 12079.00
614.7370, 12118.00
615.9050, 12047.00
617.0720, 12103.47
618.2390, 12030.00
619.4060, 12110.00
620.5720, 12073.00
621.7390, 12013.00
622.9050, 12012.00
624.0710, 11980.00
625.2370, 12052.00
626.4030, 11998.00
627.5690, 11925.00
628.7340, 12082.00
629.9000, 12109.00
631.0650, 12210.00
632.2300, 12216.32
633.3950, 12045.00
634.5600, 12219.00
635.7240, 12118.00
636.8890, 12170.00
638.0530, 12166.00
639.2170, 12087.00
640.3810, 12163.00
641.5450, 12036.00
642.7080, 12149.00
643.8720, 12136.00
645.0350, 12280.00
646.1980, 12225.00
647.3610, 12104.00
648.5240, 12119.00
649.6870, 12065.57
650.8490, 12030.52
652.0120, 12073.00
653.1740, 11980.00
654.3360, 12064.00
655.4980, 12031.00
656.6600, 12125.00
657.8210, 12175.00
658.9830, 12122.00
660.1440, 12336.00
661.3050, 12355.00
662.4660, 12339.00
663.6270, 12190.00
664.7870, 12317.00
665.9480, 12185.00
667.1080, 12254.00
668.2680, 12246.00
669.4280, 12163.00
670.5880, 12150.00
671.7480, 12226.00
672.9070, 12140.00
674.0670, 12240.00
675.2260, 12249.00
676.3850, 12378.00
677.5440, 12290.00
678.7030, 12261.00
679.8610, 12336.00
681.0200, 12126.00
682.1780, 12206.00
683.3360, 12259.00
684.4940, 12330.00
685.6520, 12391.00
686.8090, 12393.01
687.9670, 12259.00
689.1240, 12381.00
690.2810, 12303.00
691.4380, 12284.00
692.5950, 12384.00
693.7520, 12336.00
694.9080, 12380.39
696.0650, 12372.00
697.2210, 12398.00
698.3770, 12359.00
699.5330, 12413.41
700.6880, 12430.00
701.8440, 12507.00
702.9990, 12580.00
704.1550, 12635.00
705.3100, 12636.08
706.4650, 12579.00
707.6190, 12588.00
708.7740, 12565.00
709.9290, 12506.00
711.0830, 12651.00
712.2370, 12800.00
713.3910, 12678.00
714.5450, 12716.00
715.6980, 12840.00
716.8520, 12764.00
718.0050, 12863.00
719.1580, 12759.00
720.3110, 12786.00
721.4640, 13008.00
722.6170, 12862.00
723.7700, 12945.00
724.9220, 13039.00
726.0740, 12986.00
727.2260, 13078.00
728.3780, 12967.00
729.5300, 13107.00
730.6810, 13158.00
731.8330, 13138.00
732.9840, 13087.00
734.1350, 13190.00
735.2860, 13206.00
736.4370, 13204.00
737.5880, 13135.00
738.7380, 13149.00
739.8880, 13150.00
741.0390, 13328.00
742.1890, 13280.00
743.3380, 13282.00
744.4880, 13227.00
745.6380, 13219.14
746.7870, 13293.00
747.9360, 13171.00
749.0850, 13279.00
750.2340, 13220.00
751.3830, 13264.00
752.5310, 13324.00
753.6800, 13418.00
754.8280, 13578.00
755.9760, 13469.00
757.1240, 13398.00
758.2720, 13483.00
759.4190, 13378.00
760.5670, 13396.90
761.7140, 13536.00
762.8610, 13423.00
764.0080, 13460.00
765.1550, 13566.00
766.3020, 13426.00
767.4480, 13598.00
768.5950, 13530.00
769.7410, 13719.00
770.8870, 13633.00
772.0330, 13773.00
773.1780, 13597.00
774.3240, 13571.00
775.4690, 13734.00
776.6140, 13595.00
777.7590, 13766.00
778.9040, 13675.00
780.0490, 13797.00
781.1940, 13699.00
782.3380, 13844.00
783.4820, 13859.00
784.6260, 13865.00
785.7700, 13815.00
786.9140, 13898.00
788.0580, 13897.00
789.2010, 14032.00
790.3450, 14149.00
791.4880, 14210.00
792.6310, 14294.00
793.7730, 14464.00
794.9160, 14669.00
796.0590, 14762.00
797.2010, 14772.00
798.3430, 15152.00
799.4850, 15227.00
800.6270, 15312.00
801.7690, 15622.00
802.9100, 15813.00
804.0520, 16048.00
805.1930, 16206.00
806.3340, 16470.00
807.4750, 16920.00
808.6160, 17371.00
809.7560, 17605.00
810.8970, 17931.00
812.0370, 18278.00
813.1770, 18412.00
814.3170, 18532.00
815.4570, 18616.00
816.5960, 18573.00
817.7360, 18472.00
818.8750, 18185.00
820.0140, 18033.00
821.1530, 17782.00
822.2920, 17412.00
823.4310, 17296.00
824.5690, 17210.00
825.7070, 16896.00
826.8460, 16769.00
827.9840, 16868.00
829.1220, 16942.00
830.2590, 17045.00
831.3970, 17208.00
832.5340, 17313.00
833.6710, 17684.00
834.8080, 17893.00
835.9450, 18152.00
837.0820, 18542.00
838.2190, 18727.00
839.3550, 18974.00
840.4910, 19176.00
841.6270, 19197.00
842.7630, 19243.00
843.8990, 19264.00
845.0350, 19038.00
846.1700, 19067.00
847.3060, 18886.00
848.4410, 18897.00
849.5760, 18837.00
850.7100, 18763.00
851.8450, 19079.00
852.9800, 19367.00
854.1140, 19360.00
855.2480, 19752.00
856.3820, 20292.00
857.5160, 20579.00
858.6500, 21165.00
859.7830, 21877.00
860.9170, 22825.00
862.0500, 23973.00
863.1830, 25346.00
864.3160, 26796.00
865.4480, 29280.00
866.5810, 31361.00
867.7130, 34329.00
868.8460, 37557.00
869.9780, 40793.00
871.1100, 43643.00
872.2410, 46013.00
873.3730, 46980.00
874.5050, 46293.00
875.6360, 44188.00
876.7670, 41345.00
877.8980, 37661.00
879.0290, 34575.00
880.1590, 31134.00
881.2900, 28173.00
882.4200, 25729.00
883.5500, 23555.00
884.6800, 22122.00
885.8100, 20901.00
886.9400, 19752.00
888.0690, 19070.00
889.1990, 18305.00
890.3280, 17779.00
891.4570, 17300.00
892.5860, 17081.00
893.7140, 16547.00
894.8430, 16557.00
895.9710, 16180.00
897.1000, 16069.00
898.2280, 15864.00
899.3560, 15776.00
900.4830, 15450.00
901.6110, 15520.00
902.7380, 15542.00
903.8660, 15564.00
904.9930, 15330.00
906.1200, 15219.00
907.2460, 15076.00
908.3730, 15095.00
909.5000, 15189.00
910.6260, 14985.00
911.7520, 14804.00
912.8780, 14921.00
914.0040, 15021.00
915.1290, 15188.00
916.2550, 15035.00
917.3800, 15043.00
918.5050, 14906.00
919.6300, 14816.00
920.7550, 14895.00
921.8800, 15026.00
923.0040, 14962.00
924.1290, 14859.00
925.2530, 14997.00
926.3770, 14892.00
927.5010, 15133.00
928.6250, 15168.00
929.7480, 15290.00
930.8720, 15279.00
931.9950, 15249.00
933.1180, 15191.00
934.2410, 15086.00
935.3640, 14993.00
936.4860, 14951.00
937.6090, 15121.00
938.7310, 15021.00
939.8530, 14967.00
940.9750, 15042.00
942.0970, 14904.00
943.2180, 14828.00
944.3400, 14861.00
945.4610, 15072.00
946.5820, 15070.00
947.7030, 14983.00
948.8240, 14846.00
949.9450, 15165.00
951.0650, 15043.00
952.1860, 15003.00
953.3060, 15175.00
954.4260, 15055.00
955.5460, 15127.00
956.6650, 15260.00
957.7850, 15141.00
958.9040, 15393.00
960.0230, 15126.00
961.1420, 15171.00
962.2610, 15238.00
963.3800, 15260.00
964.4990, 15339.00
965.6170, 15375.00
966.7350, 15383.00
967.8530, 15480.00
968.9710, 15571.00
970.0890, 15489.00
971.2070, 15610.00
972.3240, 15600.00
973.4410, 15609.00
974.5580, 15413.00
975.6750, 15538.00
976.7920, 15529.00
977.9090, 15639.00
979.0250, 15567.00
980.1410, 15595.00
981.2580, 15653.00
982.3740, 15715.00
983.4890, 15666.00
984.6050, 15665.00
985.7200, 15726.00
986.8360, 15713.79
987.9510, 15858.00
989.0660, 15794.00
990.1810, 15957.00
991.2950, 16072.00
992.4100, 16193.00
993.5240, 16458.00
994.6390, 16313.00
995.7530, 16339.00
996.8660, 16445.00
997.9800, 16128.00
999.0940, 16066.00
1000.207, 15711.00
1001.320, 15646.00
1002.433, 15521.00
1003.546, 15308.00
1004.659, 15394.00
1005.772, 15417.00
1006.884, 15241.00
1007.996, 15254.00
1009.108, 15249.00
1010.220, 15331.00
1011.332, 15288.00
1012.444, 15301.00
1013.555, 15309.00
1014.666, 15176.00
1015.777, 15350.00
1016.888, 15093.00
1017.999, 15090.00
1019.110, 15250.00
1020.220, 15238.00
1021.331, 15272.00
1022.441, 15329.00
1023.551, 15260.00
1024.661, 15226.00
1025.770, 15298.00
1026.880, 15251.00
1027.989, 15113.00
1029.098, 15134.00
1030.207, 15212.00
1031.316, 15106.00
1032.425, 15259.00
1033.533, 15318.00
1034.642, 15133.00
1035.750, 15256.00
1036.858, 15330.00
1037.966, 15341.00
1039.073, 15377.00
1040.181, 15238.00
1041.288, 15200.00
1042.396, 15368.00
1043.503, 15223.00
1044.610, 15025.00
1045.716, 15321.00
1046.823, 15325.00
1047.929, 15476.00
1049.036, 15413.00
1050.142, 15363.00
1051.248, 15210.00
1052.353, 15419.00
1053.459, 15301.00
1054.564, 15304.00
1055.670, 15313.00
1056.775, 15306.46
1057.880, 15450.00
1058.985, 15333.00
1060.089, 15451.00
1061.194, 15379.00
1062.298, 15564.00
1063.402, 15473.00
1064.506, 15718.00
1065.610, 15461.00
1066.713, 15518.00
1067.817, 15484.00
1068.920, 15450.00
1070.023, 15587.00
1071.126, 15463.00
1072.229, 15670.00
1073.332, 15789.00
1074.435, 15651.00
1075.537, 15840.00
1076.639, 15766.00
1077.741, 15820.00
1078.843, 15763.00
1079.945, 15731.00
1081.046, 15889.00
1082.148, 15825.00
1083.249, 15817.00
1084.350, 15782.00
1085.451, 15817.10
1086.551, 15848.00
1087.652, 15940.00
1088.752, 16016.00
1089.853, 16132.00
1090.953, 15841.00
1092.053, 16040.00
1093.152, 15881.00
1094.252, 16015.00
1095.351, 16042.00
1096.451, 16099.00
1097.550, 15982.00
1098.649, 16093.00
1099.748, 16120.00
1100.846, 15898.00
1101.945, 16116.00
1103.043, 16282.00
1104.141, 16138.00
1105.239, 16258.00
1106.337, 16148.00
1107.434, 16309.00
1108.532, 16025.00
1109.629, 16068.00
1110.726, 16098.00
1111.823, 16012.00
1112.920, 16254.00
1114.017, 16108.00
1115.113, 16146.00
1116.210, 16105.00
1117.306, 16248.00
1118.402, 16330.00
1119.498, 16374.00
1120.593, 16391.88
1121.689, 16325.00
1122.784, 16308.00
1123.879, 16225.00
1124.974, 16214.31
1126.069, 16272.00
1127.164, 16210.00
1128.259, 16259.00
1129.353, 16329.00
1130.447, 16376.00
1131.541, 16209.00
1132.635, 16175.00
1133.729, 16341.00
1134.822, 16064.00
1135.916, 16136.00
1137.009, 16119.00
1138.102, 16223.00
1139.195, 16255.00
1140.288, 16336.00
1141.380, 16328.00
1142.473, 16404.00
1143.565, 16308.00
1144.657, 16401.00
1145.749, 16295.00
1146.841, 16394.00
1147.932, 16173.00
1149.024, 16312.00
1150.115, 16351.00
1151.206, 16236.00
1152.297, 16343.00
1153.388, 16303.00
1154.479, 16414.00
1155.569, 16508.00
1156.659, 16533.00
1157.750, 16569.66
1158.839, 16579.00
1159.929, 16546.00
1161.019, 16459.00
1162.108, 16397.00
1163.198, 16405.42
1164.287, 16396.00
1165.376, 16474.00
1166.465, 16453.00
1167.553, 16581.00
1168.642, 16601.00
1169.730, 16505.00
1170.818, 16577.00
1171.906, 16638.00
1172.994, 16711.00
1174.082, 16798.00
1175.170, 16838.00
1176.257, 16695.00
1177.344, 16740.00
1178.431, 16522.00
1179.518, 16769.00
1180.605, 16627.00
1181.691, 16858.00
1182.778, 16809.00
1183.864, 17034.00
1184.950, 16989.00
1186.036, 16877.00
1187.122, 16937.00
1188.207, 16891.00
1189.292, 16773.00
1190.378, 16745.00
1191.463, 16799.00
1192.548, 16859.00
1193.632, 16939.00
1194.717, 16936.00
1195.801, 16921.00
1196.886, 16905.00
1197.970, 16984.00
1199.054, 16970.48
1200.137, 17033.00
1201.221, 17007.00
1202.305, 16947.00
1203.388, 16944.00
1204.471, 16882.00
1205.554, 16917.44
1206.637, 16949.00
1207.719, 17001.00
1208.802, 17001.00
1209.884, 17058.00
1210.966, 17109.00
1212.048, 17156.00
1213.130, 17053.00
1214.212, 17124.00
1215.293, 17211.00
1216.374, 16932.00
1217.456, 17012.00
1218.536, 17113.00
1219.617, 17003.00
1220.698, 17107.00
1221.778, 17330.00
1222.859, 17050.00
1223.939, 17289.00
1225.019, 16966.00
1226.099, 16885.00
1227.178, 17071.00
1228.258, 17170.00
1229.337, 16951.00
1230.417, 17156.00
1231.496, 17006.00
1232.574, 17128.00
1233.653, 17057.00
1234.732, 17109.00
1235.810, 17075.00
1236.888, 17168.00
1237.966, 17049.00
1239.044, 17234.00
1240.122, 17235.00
1241.199, 17055.00
1242.277, 17112.00
1243.354, 17098.00
1244.431, 17238.00
1245.508, 16986.00
1246.585, 17195.00
1247.661, 17197.00
1248.738, 17401.00
1249.814, 17177.00
1250.890, 17242.00
1251.966, 17261.00
1253.042, 17274.00
1254.117, 17376.00
1255.193, 17137.00
1256.268, 17120.00
1257.343, 17235.00
1258.418, 17461.00
1259.493, 17264.00
1260.567, 17354.00
1261.642, 17635.00
1262.716, 17374.00
1263.790, 17447.00
1264.864, 17411.00
1265.938, 17428.00
1267.011, 17353.00
1268.085, 17379.00
1269.158, 17358.00
1270.231, 17372.52
1271.304, 17408.00
1272.377, 17443.00
1273.450, 17419.00
1274.522, 17475.00
1275.594, 17498.59
1276.666, 17522.26
1277.738, 17572.00
1278.810, 17582.00
1279.882, 17604.00
1280.953, 17614.00
1282.025, 17715.00
1283.096, 17597.00
1284.167, 17489.00
1285.238, 17608.00
1286.308, 17550.00
1287.379, 17595.99
1288.449, 17649.00
1289.519, 17710.00
1290.589, 17802.00
1291.659, 17906.00
1292.729, 17988.00
1293.798, 17944.00
1294.868, 17951.86
1295.937, 17809.00
1297.006, 17873.00
1298.075, 17826.00
1299.143, 17856.00
1300.212, 17911.00
1301.280, 17900.00
1302.348, 17968.00
1303.416, 17982.00
1304.484, 17846.00
1305.552, 18093.00
1306.620, 17970.00
1307.687, 17820.00
1308.754, 17895.00
1309.821, 17949.00
1310.888, 17885.00
1311.955, 17967.13
1313.021, 18025.00
1314.088, 18036.00
1315.154, 18120.00
1316.220, 18156.00
1317.286, 18105.00
1318.352, 18116.00
1319.417, 18128.00
1320.483, 18081.00
1321.548, 18196.00
1322.613, 17991.00
1323.678, 18187.00
1324.743, 17878.00
1325.807, 17984.00
1326.872, 17937.00
1327.936, 18147.00
1329.000, 18140.00
1330.064, 18338.00
1331.128, 18451.00
1332.191, 18369.00
1333.255, 18237.00
1334.318, 18340.00
1335.381, 18316.00
1336.444, 18213.00
1337.507, 18044.00
1338.569, 18086.47
1339.632, 18257.00
1340.694, 18152.00
1341.756, 18273.00
1342.818, 18412.00
1343.880, 18466.00
1344.941, 18512.00
1346.003, 18451.00
1347.064, 18522.00
1348.125, 18356.00
1349.186, 18405.00
1350.247, 18361.00
1351.308, 18493.00
1352.368, 18386.00
1353.428, 18468.00
1354.489, 18568.00
1355.549, 18400.00
1356.608, 18625.00
1357.668, 18693.00
1358.727, 18575.00
1359.787, 18631.00
1360.846, 18571.00
1361.905, 18677.00
1362.964, 18654.00
1364.022, 18434.00
1365.081, 18563.00
1366.139, 18595.00
1367.197, 18675.00
1368.255, 18831.00
1369.313, 18721.00
1370.371, 18957.00
1371.428, 18911.00
1372.486, 18734.00
1373.543, 18765.00
1374.600, 18848.00
1375.657, 18652.00
1376.713, 18688.00
1377.770, 18737.00
1378.826, 18879.00
1379.882, 18714.00
1380.938, 18835.00
1381.994, 18954.00
1383.050, 18768.00
1384.106, 18886.00
1385.161, 18904.00
1386.216, 18915.00
1387.271, 18905.00
1388.326, 18909.00
1389.381, 18808.00
1390.435, 18783.00
1391.490, 18885.00
1392.544, 18808.00
1393.598, 18955.00
1394.652, 18946.00
1395.705, 19123.00
1396.759, 19126.00
1397.812, 19076.00
1398.866, 19112.00
1399.919, 19063.93
1400.972, 19026.00
1402.024, 19016.00
1403.077, 18988.00
1404.129, 19006.00
1405.181, 19037.00
1406.233, 19165.00
1407.285, 19136.00
1408.337, 19249.00
1409.389, 19153.00
1410.440, 19196.00
1411.491, 19283.00
1412.542, 19210.00
1413.593, 19337.00
1414.644, 19166.00
1415.695, 19276.00
1416.745, 19117.00
1417.795, 19118.00
1418.845, 19220.00
1419.895, 19284.00
1420.945, 19274.00
1421.995, 19243.00
1423.044, 19317.00
1424.093, 19492.00
1425.142, 19436.00
1426.191, 19356.00
1427.240, 19156.00
1428.289, 19316.00
1429.337, 19482.00
1430.385, 19298.00
1431.433, 19325.00
1432.481, 19183.00
1433.529, 19209.99
1434.577, 19355.00
1435.624, 19286.00
1436.672, 19501.00
1437.719, 19568.00
1438.766, 19416.00
1439.812, 19524.00
1440.859, 19534.00
1441.905, 19619.00
1442.952, 19398.00
1443.998, 19259.00
1445.044, 19306.00
1446.090, 19484.00
1447.135, 19415.00
1448.181, 19615.00
1449.226, 19609.00
1450.271, 19633.00
1451.316, 19653.00
1452.361, 19627.00
1453.405, 19765.00
1454.450, 19737.00
1455.494, 19718.00
1456.538, 19466.00
1457.582, 19529.00
1458.626, 19662.00
1459.670, 19597.00
1460.713, 19822.00
1461.757, 19903.00
1462.800, 19891.00
1463.843, 19711.00
1464.886, 19833.00
1465.928, 19712.00
1466.971, 19762.00
1468.013, 19606.00
1469.055, 19858.00
1470.097, 19717.00
1471.139, 19677.00
1472.181, 19789.00
1473.222, 19985.00
1474.263, 19991.00
1475.305, 19877.00
1476.346, 19877.00
1477.386, 19714.00
1478.427, 19755.47
1479.468, 20033.00
1480.508, 19758.00
1481.548, 19899.00
1482.588, 19811.00
1483.628, 20000.00
1484.668, 19787.00
1485.707, 19937.00
1486.747, 19941.00
1487.786, 20093.00
1488.825, 20154.00
1489.864, 20036.00
1490.902, 20211.00
1491.941, 19967.00
1492.979, 20195.00
1494.017, 20142.00
1495.055, 19980.00
1496.093, 20063.00
1497.131, 19945.00
1498.168, 19936.00
1499.206, 20045.00
1500.243, 19853.00
1501.280, 20231.00
1502.317, 20124.00
1503.354, 20332.00
1504.390, 20196.00
1505.426, 20165.00
1506.463, 20303.00
1507.499, 20117.00
1508.535, 20133.00
1509.570, 20088.00
1510.606, 20140.00
1511.641, 20083.00
1512.676, 20172.00
1513.711, 20249.00
1514.746, 20306.00
1515.781, 20220.00
1516.816, 20397.00
1517.850, 20352.00
1518.884, 20204.00
1519.918, 20439.00
1520.952, 20301.00
1521.986, 20330.00
1523.019, 20354.00
1524.053, 20312.00
1525.086, 20340.07
1526.119, 20306.00
1527.152, 20365.00
1528.185, 20354.00
1529.217, 20408.00
1530.250, 20423.00
1531.282, 20422.00
1532.314, 20376.00
1533.346, 20411.82
1534.377, 20523.00
1535.409, 20443.00
1536.440, 20387.00
1537.472, 20383.82
1538.503, 20532.00
1539.534, 20469.00
1540.564, 20567.00
1541.595, 20663.00
1542.625, 20704.00
1543.656, 20686.00
1544.686, 20593.00
1545.716, 20645.00
1546.745, 20465.00
1547.775, 20749.00
1548.804, 20663.00
1549.834, 20587.00
1550.863, 20534.00
1551.892, 20549.00
1552.920, 20594.00
1553.949, 20690.00
1554.977, 20695.00
1556.006, 20790.00
1557.034, 20760.00
1558.062, 20861.00
1559.089, 20745.00
1560.117, 20877.00
1561.144, 20563.00
1562.172, 20868.00
1563.199, 20755.00
1564.226, 20782.00
1565.252, 20922.00
1566.279, 20720.00
1567.305, 20783.00
1568.332, 21006.00
1569.358, 20889.00
1570.384, 21073.00
##END=



