##NAMES=Anglesite
##RRUFFID=R050408
##IDEAL CHEMISTRY=Pb^2+^S^6+^O_4_
##LOCALITY=Tsumeb mine, Tsumeb, Otavi District, Oshikoto, Namibia
##OWNER=RRUFF
##SOURCE=California Institute of Technology
##DESCRIPTION=Pale yellow fragment
##STATUS=The identification of this mineral has been confirmed by X-ray diffraction and chemical analysis
##URL=rruff.info/R050408
##MEASURED CHEMISTRY=Pb_1.00_S_1.00_O_4_
##PIN_ID=L00529
##ORIENTATION=Laser parallel to c* (0 0 1). Fiducial mark perpendicular to laser is parallel to a [1 0 0]
51.43100, 347.0000
52.67100, 360.0000
53.91000, 356.0000
55.14900, 350.0000
56.38700, 369.0000
57.62600, 370.0000
58.86400, 388.0000
60.10300, 387.0000
61.34100, 413.0000
62.57900, 435.0000
63.81700, 419.0000
65.05400, 439.0000
66.29200, 472.0000
67.52900, 521.0000
68.76700, 560.0000
70.00400, 597.0000
71.24100, 682.0000
72.47700, 708.0000
73.71400, 772.0000
74.95100, 855.0000
76.18700, 966.0000
77.42300, 1025.000
78.65900, 1120.000
79.89500, 1214.000
81.13100, 1307.627
82.36700, 1414.000
83.60200, 1524.000
84.83700, 1659.000
86.07200, 1783.000
87.30800, 1945.000
88.54200, 2074.000
89.77700, 2322.000
91.01200, 2510.000
92.24600, 2762.000
93.48000, 2903.000
94.71400, 3150.000
95.94800, 3245.000
97.18200, 3350.000
98.41600, 3427.000
99.64900, 3364.000
100.8830, 3216.000
102.1160, 3119.000
103.3490, 3016.000
104.5820, 2840.000
105.8150, 2747.000
107.0470, 2679.000
108.2800, 2718.000
109.5120, 2656.000
110.7440, 2585.000
111.9760, 2560.000
113.2080, 2531.000
114.4400, 2579.000
115.6710, 2510.000
116.9030, 2547.000
118.1340, 2538.000
119.3650, 2652.000
120.5960, 2645.000
121.8270, 2855.000
123.0580, 2892.000
124.2880, 3040.000
125.5190, 3220.000
126.7490, 3383.000
127.9790, 3487.000
129.2090, 3719.000
130.4390, 3912.000
131.6680, 4071.000
132.8980, 4118.000
134.1270, 4235.000
135.3560, 4316.000
136.5850, 4266.000
137.8140, 4165.000
139.0430, 4045.000
140.2710, 3907.271
141.5000, 3663.000
142.7280, 3570.000
143.9560, 3382.000
145.1840, 3202.000
146.4120, 3142.000
147.6390, 3120.000
148.8670, 3070.000
150.0940, 3119.000
151.3210, 3064.000
152.5490, 2935.000
153.7750, 2924.000
155.0020, 2785.000
156.2290, 2687.000
157.4550, 2543.000
158.6810, 2358.000
159.9080, 2293.000
161.1340, 2067.000
162.3590, 2013.000
163.5850, 1875.000
164.8110, 1768.000
166.0360, 1756.000
167.2610, 1702.000
168.4860, 1636.000
169.7110, 1580.000
170.9360, 1546.173
172.1610, 1526.000
173.3850, 1492.000
174.6100, 1502.000
175.8340, 1491.000
177.0580, 1464.000
178.2820, 1424.000
179.5050, 1463.000
180.7290, 1441.000
181.9520, 1397.000
183.1760, 1398.000
184.3990, 1373.000
185.6220, 1290.000
186.8450, 1275.000
188.0670, 1250.000
189.2900, 1277.000
190.5120, 1263.000
191.7340, 1217.000
192.9560, 1219.000
194.1780, 1149.000
195.4000, 1124.000
196.6220, 1167.000
197.8430, 1132.000
199.0640, 1102.000
200.2860, 1069.000
201.5070, 1065.000
202.7270, 1090.000
203.9480, 1060.000
205.1690, 1033.000
206.3890, 997.0000
207.6090, 966.0000
208.8290, 999.0000
210.0490, 971.0000
211.2690, 954.0000
212.4890, 967.0000
213.7080, 935.0000
214.9280, 930.0000
216.1470, 932.0000
217.3660, 883.0000
218.5850, 881.0000
219.8030, 881.0000
221.0220, 861.0000
222.2400, 857.0000
223.4590, 832.0000
224.6770, 805.0000
225.8950, 816.0000
227.1120, 798.0000
228.3300, 781.0000
229.5480, 791.0000
230.7650, 779.0000
231.9820, 771.0000
233.1990, 754.0000
234.4160, 745.0000
235.6330, 729.0000
236.8490, 725.0000
238.0660, 716.7543
239.2820, 710.9149
240.4980, 704.0000
241.7140, 706.0000
242.9300, 695.0000
244.1460, 697.0000
245.3610, 678.0000
246.5770, 665.0000
247.7920, 658.0000
249.0070, 665.0000
250.2220, 684.0000
251.4370, 671.0000
252.6510, 665.0000
253.8660, 670.0000
255.0800, 657.0000
256.2940, 674.0000
257.5080, 653.0000
258.7220, 689.0000
259.9360, 639.0000
261.1490, 667.0000
262.3630, 641.0000
263.5760, 629.0000
264.7890, 632.0000
266.0020, 631.0000
267.2150, 648.0000
268.4270, 629.0000
269.6400, 610.0000
270.8520, 640.0000
272.0640, 637.0000
273.2760, 634.0000
274.4880, 607.0000
275.7000, 595.0000
276.9120, 620.0000
278.1230, 611.0000
279.3340, 612.0000
280.5450, 607.0000
281.7560, 612.0000
282.9670, 600.0000
284.1780, 605.0000
285.3880, 589.0000
286.5980, 606.0000
287.8090, 587.0000
289.0190, 587.0000
290.2290, 577.0000
291.4380, 586.0000
292.6480, 558.0000
293.8570, 585.0000
295.0670, 598.0000
296.2760, 554.0000
297.4850, 572.0000
298.6930, 562.0000
299.9020, 555.0000
301.1110, 555.0000
302.3190, 561.0000
303.5270, 565.0000
304.7350, 567.5389
305.9430, 564.0000
307.1510, 573.0000
308.3580, 576.0000
309.5660, 576.0000
310.7730, 585.0000
311.9800, 566.0000
313.1870, 567.0000
314.3940, 549.0000
315.6010, 560.0000
316.8070, 555.0000
318.0130, 572.0000
319.2200, 544.0000
320.4260, 557.0000
321.6310, 551.0000
322.8370, 582.0000
324.0430, 570.0000
325.2480, 573.0000
326.4540, 558.0000
327.6590, 547.0000
328.8640, 562.0000
330.0680, 544.0000
331.2730, 563.0000
332.4780, 577.0000
333.6820, 562.0000
334.8860, 552.0000
336.0900, 577.0000
337.2940, 560.0000
338.4980, 532.0000
339.7010, 562.0000
340.9050, 574.0000
342.1080, 558.0000
343.3110, 547.0000
344.5140, 554.0000
345.7170, 548.7057
346.9200, 559.0000
348.1220, 561.0000
349.3240, 572.0000
350.5270, 589.0000
351.7290, 564.0000
352.9310, 552.0000
354.1320, 558.0000
355.3340, 549.0000
356.5350, 573.0000
357.7370, 568.0000
358.9380, 568.0000
360.1390, 571.0000
361.3400, 574.0000
362.5400, 575.3151
363.7410, 568.0000
364.9410, 584.0000
366.1410, 575.0000
367.3410, 588.0000
368.5410, 578.0000
369.7410, 572.0000
370.9400, 570.0000
372.1400, 570.0000
373.3390, 588.0000
374.5380, 588.0000
375.7370, 593.0000
376.9360, 595.0000
378.1350, 591.9836
379.3330, 595.0000
380.5310, 584.0000
381.7300, 583.0000
382.9280, 577.0000
384.1260, 579.0000
385.3230, 600.0000
386.5210, 606.0000
387.7180, 609.0000
388.9160, 629.0000
390.1130, 622.0000
391.3100, 648.0000
392.5060, 612.0000
393.7030, 635.0000
394.9000, 652.0000
396.0960, 673.0000
397.2920, 693.0000
398.4880, 701.9396
399.6840, 716.0000
400.8800, 715.0000
402.0750, 716.0000
403.2710, 714.0000
404.4660, 770.0000
405.6610, 803.0000
406.8560, 795.0000
408.0510, 829.0000
409.2450, 843.0000
410.4400, 867.0000
411.6340, 891.0000
412.8280, 894.0000
414.0220, 903.0000
415.2160, 957.0000
416.4100, 971.0000
417.6030, 1005.000
418.7970, 1070.000
419.9900, 1072.000
421.1830, 1089.000
422.3760, 1165.000
423.5690, 1285.000
424.7610, 1434.000
425.9540, 1579.000
427.1460, 1730.000
428.3380, 2036.000
429.5300, 2430.000
430.7220, 2859.000
431.9140, 3405.000
433.1050, 3903.000
434.2970, 4675.000
435.4880, 5564.000
436.6790, 6610.000
437.8700, 7185.000
439.0610, 8018.000
440.2510, 8973.000
441.4420, 9860.000
442.6320, 10898.00
443.8220, 11924.00
445.0120, 13682.00
446.2020, 15480.00
447.3910, 17461.00
448.5810, 18483.00
449.7700, 18382.00
450.9600, 16561.00
452.1490, 14409.00
453.3370, 11590.00
454.5260, 9093.000
455.7150, 6962.000
456.9030, 5359.000
458.0910, 4300.000
459.2800, 3589.000
460.4670, 3170.000
461.6550, 2788.000
462.8430, 2469.000
464.0300, 2239.000
465.2180, 2015.000
466.4050, 1934.000
467.5920, 1702.000
468.7790, 1645.000
469.9650, 1518.000
471.1520, 1415.000
472.3380, 1294.000
473.5250, 1264.000
474.7110, 1204.000
475.8970, 1199.000
477.0820, 1114.000
478.2680, 1087.000
479.4540, 1016.000
480.6390, 987.0000
481.8240, 968.0000
483.0090, 917.0000
484.1940, 901.0000
485.3780, 892.0000
486.5630, 862.0000
487.7470, 826.0000
488.9320, 827.0000
490.1160, 819.0000
491.3000, 766.0000
492.4830, 775.0000
493.6670, 754.0000
494.8500, 734.0000
496.0340, 730.0000
497.2170, 717.0000
498.4000, 693.0000
499.5820, 701.0000
500.7650, 702.0000
501.9480, 693.0000
503.1300, 704.0000
504.3120, 663.0000
505.4940, 675.0000
506.6760, 665.0000
507.8580, 661.0000
509.0390, 659.0000
510.2210, 637.0000
511.4020, 638.0000
512.5830, 640.0000
513.7640, 631.0000
514.9450, 609.0000
516.1250, 612.0000
517.3060, 611.0000
518.4860, 588.0000
519.6660, 604.0000
520.8460, 630.0000
522.0260, 613.0000
523.2060, 598.0000
524.3850, 574.0000
525.5650, 587.0000
526.7440, 591.0000
527.9230, 599.0000
529.1020, 580.0000
530.2810, 597.0000
531.4590, 570.0000
532.6380, 576.0000
533.8160, 586.0000
534.9940, 603.0000
536.1720, 568.0000
537.3500, 571.0000
538.5270, 578.0000
539.7050, 595.0000
540.8820, 588.0000
542.0590, 574.0000
543.2360, 591.0000
544.4130, 585.0000
545.5900, 586.0000
546.7660, 573.0000
547.9430, 572.0000
549.1190, 598.0000
550.2950, 579.0000
551.4710, 581.0000
552.6470, 595.0000
553.8220, 586.0000
554.9980, 578.0000
556.1730, 614.0000
557.3480, 624.0000
558.5230, 607.0000
559.6980, 590.0000
560.8730, 592.0000
562.0470, 602.0000
563.2220, 614.0000
564.3960, 610.0000
565.5700, 615.0000
566.7440, 626.0000
567.9170, 605.0000
569.0910, 616.0000
570.2640, 604.0000
571.4380, 603.0000
572.6110, 611.0000
573.7840, 616.0000
574.9570, 629.0000
576.1290, 634.0000
577.3020, 624.0000
578.4740, 608.0000
579.6460, 627.0000
580.8180, 638.0000
581.9900, 636.0000
583.1620, 651.0000
584.3330, 659.0000
585.5040, 670.0000
586.6760, 680.0000
587.8470, 697.5807
589.0180, 703.0000
590.1880, 736.0000
591.3590, 756.0000
592.5290, 776.0000
593.7000, 848.0000
594.8700, 918.0000
596.0400, 1027.000
597.2090, 1154.335
598.3790, 1320.000
599.5490, 1467.000
600.7180, 1657.000
601.8870, 1851.000
603.0560, 2076.000
604.2250, 2216.000
605.3940, 2231.000
606.5620, 2159.000
607.7300, 2001.000
608.8990, 1826.000
610.0670, 1571.000
611.2350, 1414.000
612.4020, 1275.000
613.5700, 1218.000
614.7370, 1258.000
615.9050, 1217.000
617.0720, 1200.000
618.2390, 1161.000
619.4060, 1051.000
620.5720, 979.0000
621.7390, 917.0000
622.9050, 793.0000
624.0710, 741.0000
625.2370, 692.0000
626.4030, 650.0000
627.5690, 654.0000
628.7340, 648.0000
629.9000, 640.0000
631.0650, 634.0000
632.2300, 673.0000
633.3950, 649.0000
634.5600, 688.0000
635.7240, 720.0000
636.8890, 726.0000
638.0530, 793.0000
639.2170, 769.0000
640.3810, 781.0000
641.5450, 759.0000
642.7080, 749.0000
643.8720, 712.0000
645.0350, 690.0000
646.1980, 664.3329
647.3610, 636.0000
648.5240, 614.0000
649.6870, 591.0000
650.8490, 577.0000
652.0120, 601.0000
653.1740, 602.0000
654.3360, 591.0000
655.4980, 586.0000
656.6600, 584.0000
657.8210, 590.0000
658.9830, 562.0000
660.1440, 583.0000
661.3050, 597.0000
662.4660, 575.0000
663.6270, 570.0000
664.7870, 586.0000
665.9480, 599.0000
667.1080, 570.0000
668.2680, 582.0000
669.4280, 589.0000
670.5880, 580.0000
671.7480, 585.0000
672.9070, 570.0000
674.0670, 579.0000
675.2260, 570.0000
676.3850, 588.0000
677.5440, 572.0000
678.7030, 562.0000
679.8610, 557.0000
681.0200, 568.0000
682.1780, 556.0000
683.3360, 564.0000
684.4940, 565.0000
685.6520, 546.0000
686.8090, 549.0000
687.9670, 545.7247
689.1240, 558.0000
690.2810, 543.0000
691.4380, 567.0000
692.5950, 561.0000
693.7520, 544.0000
694.9080, 568.0000
696.0650, 579.0000
697.2210, 564.0000
698.3770, 563.0000
699.5330, 564.0000
700.6880, 567.0000
701.8440, 554.0000
702.9990, 572.0000
704.1550, 577.0000
705.3100, 552.0000
706.4650, 564.0000
707.6190, 568.0000
708.7740, 559.0000
709.9290, 557.0000
711.0830, 531.0000
712.2370, 574.0000
713.3910, 565.0000
714.5450, 583.0000
715.6980, 549.0000
716.8520, 584.0000
718.0050, 560.0000
719.1580, 592.0000
720.3110, 558.0000
721.4640, 568.0000
722.6170, 569.0000
723.7700, 573.0000
724.9220, 572.0000
726.0740, 560.0000
727.2260, 549.0000
728.3780, 571.0000
729.5300, 561.0000
730.6810, 588.0000
731.8330, 559.0000
732.9840, 557.0000
734.1350, 580.0000
735.2860, 584.0000
736.4370, 571.0000
737.5880, 559.0000
738.7380, 573.0000
739.8880, 548.0000
741.0390, 560.0000
742.1890, 563.0000
743.3380, 582.0000
744.4880, 586.0000
745.6380, 578.0000
746.7870, 564.0000
747.9360, 556.0000
749.0850, 569.0000
750.2340, 551.0000
751.3830, 594.0000
752.5310, 577.0000
753.6800, 576.0000
754.8280, 575.0000
755.9760, 551.0000
757.1240, 584.0000
758.2720, 593.0000
759.4190, 595.0000
760.5670, 582.0000
761.7140, 587.0000
762.8610, 577.0000
764.0080, 589.0000
765.1550, 597.0000
766.3020, 598.0000
767.4480, 612.0000
768.5950, 598.0000
769.7410, 614.0000
770.8870, 600.0000
772.0330, 611.0000
773.1780, 588.0000
774.3240, 620.0000
775.4690, 620.0000
776.6140, 621.0000
777.7590, 580.0000
778.9040, 597.0000
780.0490, 590.0000
781.1940, 589.0000
782.3380, 584.0000
783.4820, 594.0000
784.6260, 609.0000
785.7700, 597.0000
786.9140, 584.0000
788.0580, 588.0000
789.2010, 600.0000
790.3450, 583.0000
791.4880, 584.0000
792.6310, 563.0000
793.7730, 577.0000
794.9160, 565.5612
796.0590, 588.0000
797.2010, 561.0000
798.3430, 560.0000
799.4850, 568.0000
800.6270, 592.0000
801.7690, 583.0000
802.9100, 595.0000
804.0520, 578.0000
805.1930, 585.0000
806.3340, 581.0000
807.4750, 574.0000
808.6160, 575.0000
809.7560, 582.0000
810.8970, 579.0000
812.0370, 581.1525
813.1770, 580.0000
814.3170, 584.0000
815.4570, 584.0000
816.5960, 592.2253
817.7360, 598.0000
818.8750, 587.0000
820.0140, 596.0000
821.1530, 573.0000
822.2920, 576.0000
823.4310, 585.0000
824.5690, 592.0000
825.7070, 574.0000
826.8460, 588.0000
827.9840, 599.0000
829.1220, 591.0000
830.2590, 613.0000
831.3970, 596.0000
832.5340, 604.0000
833.6710, 596.0000
834.8080, 610.0000
835.9450, 600.0000
837.0820, 610.0000
838.2190, 608.0000
839.3550, 604.2471
840.4910, 620.0000
841.6270, 599.0000
842.7630, 606.0000
843.8990, 607.0000
845.0350, 609.0000
846.1700, 612.9440
847.3060, 593.0000
848.4410, 629.0000
849.5760, 621.0000
850.7100, 651.0000
851.8450, 649.0000
852.9800, 630.0000
854.1140, 640.0000
855.2480, 644.0000
856.3820, 659.0000
857.5160, 658.4697
858.6500, 666.0000
859.7830, 669.0000
860.9170, 662.0000
862.0500, 685.0000
863.1830, 717.0000
864.3160, 706.0000
865.4480, 741.0000
866.5810, 747.0000
867.7130, 713.0000
868.8460, 714.0000
869.9780, 757.0000
871.1100, 754.0000
872.2410, 758.0000
873.3730, 742.0000
874.5050, 767.0000
875.6360, 758.0000
876.7670, 769.0000
877.8980, 747.0000
879.0290, 763.0000
880.1590, 716.0000
881.2900, 765.0000
882.4200, 724.0000
883.5500, 741.0000
884.6800, 789.0000
885.8100, 784.0000
886.9400, 793.0000
888.0690, 789.0000
889.1990, 765.0000
890.3280, 765.0000
891.4570, 777.0000
892.5860, 778.0000
893.7140, 789.1801
894.8430, 794.0000
895.9710, 801.0000
897.1000, 802.3289
898.2280, 795.0000
899.3560, 800.0000
900.4830, 800.0000
901.6110, 795.7085
902.7380, 808.0000
903.8660, 800.0000
904.9930, 827.0000
906.1200, 842.0000
907.2460, 817.0000
908.3730, 857.0000
909.5000, 848.0000
910.6260, 859.0000
911.7520, 862.0000
912.8780, 873.0000
914.0040, 880.0000
915.1290, 885.0000
916.2550, 877.0000
917.3800, 868.0000
918.5050, 898.0000
919.6300, 868.0000
920.7550, 895.0000
921.8800, 915.0000
923.0040, 920.0000
924.1290, 925.0000
925.2530, 936.0000
926.3770, 943.0000
927.5010, 923.0000
928.6250, 947.0000
929.7480, 960.0000
930.8720, 996.0000
931.9950, 996.0000
933.1180, 998.0000
934.2410, 1005.000
935.3640, 1038.000
936.4860, 1022.000
937.6090, 1051.000
938.7310, 1092.000
939.8530, 1099.000
940.9750, 1123.000
942.0970, 1166.000
943.2180, 1214.000
944.3400, 1238.000
945.4610, 1297.630
946.5820, 1348.000
947.7030, 1419.000
948.8240, 1499.000
949.9450, 1591.000
951.0650, 1654.000
952.1860, 1775.000
953.3060, 1840.000
954.4260, 1978.000
955.5460, 2143.000
956.6650, 2308.000
957.7850, 2531.000
958.9040, 2821.000
960.0230, 3113.000
961.1420, 3512.000
962.2610, 3931.000
963.3800, 4589.000
964.4990, 5226.000
965.6170, 6220.000
966.7350, 7670.000
967.8530, 9435.000
968.9710, 11818.00
970.0890, 15306.00
971.2070, 19606.00
972.3240, 25192.00
973.4410, 31968.00
974.5580, 39468.00
975.6750, 46408.00
976.7920, 51981.00
977.9090, 53750.00
979.0250, 51032.00
980.1410, 45406.00
981.2580, 37388.00
982.3740, 29738.00
983.4890, 22966.00
984.6050, 17641.00
985.7200, 13919.00
986.8360, 11199.00
987.9510, 9220.000
989.0660, 7698.000
990.1810, 6665.000
991.2950, 5803.000
992.4100, 5108.000
993.5240, 4702.000
994.6390, 4202.000
995.7530, 3833.000
996.8660, 3587.000
997.9800, 3378.000
999.0940, 3133.000
1000.207, 2921.000
1001.320, 2699.000
1002.433, 2684.000
1003.546, 2499.000
1004.659, 2426.000
1005.772, 2270.000
1006.884, 2237.000
1007.996, 2098.000
1009.108, 2075.000
1010.220, 2041.000
1011.332, 2004.000
1012.444, 1921.000
1013.555, 1895.000
1014.666, 1785.000
1015.777, 1756.000
1016.888, 1745.000
1017.999, 1707.000
1019.110, 1685.000
1020.220, 1668.000
1021.331, 1644.715
1022.441, 1644.000
1023.551, 1618.000
1024.661, 1577.000
1025.770, 1574.000
1026.880, 1547.000
1027.989, 1520.000
1029.098, 1487.000
1030.207, 1499.000
1031.316, 1499.000
1032.425, 1466.000
1033.533, 1476.000
1034.642, 1410.000
1035.750, 1397.000
1036.858, 1445.000
1037.966, 1407.000
1039.073, 1462.000
1040.181, 1453.000
1041.288, 1433.000
1042.396, 1369.000
1043.503, 1436.000
1044.610, 1428.000
1045.716, 1425.000
1046.823, 1429.000
1047.929, 1446.000
1049.036, 1424.000
1050.142, 1482.000
1051.248, 1487.000
1052.353, 1560.000
1053.459, 1557.000
1054.564, 1585.000
1055.670, 1559.000
1056.775, 1585.000
1057.880, 1596.000
1058.985, 1568.000
1060.089, 1562.000
1061.194, 1581.000
1062.298, 1582.000
1063.402, 1565.825
1064.506, 1521.000
1065.610, 1527.000
1066.713, 1477.000
1067.817, 1453.000
1068.920, 1461.000
1070.023, 1464.000
1071.126, 1411.000
1072.229, 1404.000
1073.332, 1418.000
1074.435, 1405.000
1075.537, 1423.000
1076.639, 1372.000
1077.741, 1351.000
1078.843, 1405.000
1079.945, 1331.000
1081.046, 1315.000
1082.148, 1359.000
1083.249, 1349.000
1084.350, 1329.000
1085.451, 1373.000
1086.551, 1342.000
1087.652, 1342.000
1088.752, 1341.000
1089.853, 1353.000
1090.953, 1357.000
1092.053, 1363.000
1093.152, 1356.000
1094.252, 1370.000
1095.351, 1361.000
1096.451, 1335.000
1097.550, 1381.000
1098.649, 1392.000
1099.748, 1411.000
1100.846, 1388.000
1101.945, 1431.000
1103.043, 1425.000
1104.141, 1462.000
1105.239, 1435.000
1106.337, 1455.000
1107.434, 1489.000
1108.532, 1500.000
1109.629, 1544.000
1110.726, 1510.000
1111.823, 1550.000
1112.920, 1555.000
1114.017, 1619.000
1115.113, 1615.000
1116.210, 1639.000
1117.306, 1684.000
1118.402, 1700.000
1119.498, 1735.000
1120.593, 1699.000
1121.689, 1743.000
1122.784, 1722.000
1123.879, 1843.000
1124.974, 1853.000
1126.069, 1860.000
1127.164, 1945.000
1128.259, 1926.000
1129.353, 1960.000
1130.447, 1988.000
1131.541, 1962.000
1132.635, 2073.000
1133.729, 2055.000
1134.822, 2097.000
1135.916, 2078.000
1137.009, 2150.000
1138.102, 2140.000
1139.195, 2182.000
1140.288, 2151.000
1141.380, 2207.000
1142.473, 2213.000
1143.565, 2147.000
1144.657, 2114.000
1145.749, 2153.000
1146.841, 2112.000
1147.932, 2049.000
1149.024, 2125.000
1150.115, 2035.000
1151.206, 2075.000
1152.297, 2051.000
1153.388, 2072.000
1154.479, 2017.000
1155.569, 2079.000
1156.659, 2022.000
1157.750, 1961.000
1158.839, 1896.000
1159.929, 1866.000
1161.019, 1772.000
1162.108, 1763.000
1163.198, 1672.000
1164.287, 1646.000
1165.376, 1562.000
1166.465, 1544.000
1167.553, 1498.000
1168.642, 1437.000
1169.730, 1437.000
1170.818, 1330.000
1171.906, 1335.000
1172.994, 1319.000
1174.082, 1277.000
1175.170, 1271.000
1176.257, 1226.000
1177.344, 1259.000
1178.431, 1243.000
1179.518, 1253.000
1180.605, 1223.000
1181.691, 1199.000
1182.778, 1212.000
1183.864, 1230.000
1184.950, 1219.000
1186.036, 1220.141
1187.122, 1187.000
1188.207, 1197.000
1189.292, 1152.000
1190.378, 1131.000
1191.463, 1177.000
1192.548, 1164.000
1193.632, 1123.000
1194.717, 1113.000
1195.801, 1143.000
1196.886, 1117.000
1197.970, 1114.000
1199.054, 1112.000
1200.137, 1079.000
1201.221, 1089.000
1202.305, 1070.000
1203.388, 1057.000
1204.471, 1039.000
1205.554, 1039.000
1206.637, 1040.000
1207.719, 1039.000
1208.802, 1026.000
1209.884, 1011.000
1210.966, 1044.000
1212.048, 1071.000
1213.130, 1032.000
1214.212, 1049.000
1215.293, 1093.000
1216.374, 1022.000
1217.456, 1053.000
1218.536, 1036.000
1219.617, 1022.000
1220.698, 1021.000
1221.778, 1046.000
1222.859, 1046.000
1223.939, 1027.000
1225.019, 1012.000
1226.099, 1020.000
1227.178, 989.0000
1228.258, 962.0000
1229.337, 958.0000
1230.417, 967.0000
1231.496, 923.0000
1232.574, 958.0000
1233.653, 941.0000
1234.732, 938.0000
1235.810, 899.0000
1236.888, 929.0000
1237.966, 938.0000
1239.044, 900.0000
1240.122, 898.0000
1241.199, 904.0000
1242.277, 886.0000
1243.354, 898.0000
1244.431, 912.0000
1245.508, 926.0000
1246.585, 871.0000
1247.661, 901.0000
1248.738, 873.0000
1249.814, 886.0000
1250.890, 923.0000
1251.966, 902.0000
1253.042, 893.0000
1254.117, 903.0000
1255.193, 898.0000
1256.268, 895.0000
1257.343, 874.0000
1258.418, 873.0000
1259.493, 854.0000
1260.567, 851.1404
1261.642, 848.7889
1262.716, 843.0000
1263.790, 855.0000
1264.864, 848.0000
1265.938, 865.0000
1267.011, 847.0000
1268.085, 840.0000
1269.158, 859.0000
1270.231, 840.0000
1271.304, 838.0000
1272.377, 861.0000
1273.450, 814.0000
1274.522, 821.0000
1275.594, 842.0000
1276.666, 807.0000
1277.738, 775.0000
1278.810, 805.0000
1279.882, 821.0000
1280.953, 795.0000
1282.025, 803.0000
1283.096, 798.0000
1284.167, 777.0000
1285.238, 794.0000
1286.308, 775.0000
1287.379, 807.0000
1288.449, 791.0000
1289.519, 778.0000
1290.589, 783.0000
1291.659, 748.0000
1292.729, 726.0000
1293.798, 743.0000
1294.868, 745.0000
1295.937, 758.0000
1297.006, 747.0000
1298.075, 739.0000
1299.143, 731.0000
1300.212, 731.0000
1301.280, 729.0000
1302.348, 715.0000
1303.416, 751.0000
1304.484, 732.0000
1305.552, 740.0000
1306.620, 756.0000
1307.687, 722.0000
1308.754, 738.0000
1309.821, 724.0000
1310.888, 723.0000
1311.955, 722.0000
1313.021, 719.0000
1314.088, 729.0000
1315.154, 707.0000
1316.220, 732.0000
1317.286, 724.0000
1318.352, 732.0000
1319.417, 714.0000
1320.483, 717.0000
1321.548, 728.0000
1322.613, 717.0000
1323.678, 736.0000
1324.743, 711.0000
1325.807, 699.0000
1326.872, 717.0000
1327.936, 712.0000
1329.000, 713.0000
1330.064, 697.0000
1331.128, 706.0000
1332.191, 719.0000
1333.255, 685.0000
1334.318, 729.0000
1335.381, 696.0000
1336.444, 730.0000
1337.507, 695.0000
1338.569, 728.0000
1339.632, 710.0000
1340.694, 710.0000
1341.756, 728.0000
1342.818, 714.0000
1343.880, 705.0000
1344.941, 700.0000
1346.003, 686.0000
1347.064, 672.0000
1348.125, 716.0000
1349.186, 694.0000
1350.247, 718.0000
1351.308, 697.0000
1352.368, 708.0000
1353.428, 711.0000
1354.489, 688.0000
1355.549, 700.0000
1356.608, 708.0000
1357.668, 728.0000
1358.727, 720.6912
1359.787, 699.0000
1360.846, 709.0000
1361.905, 698.0000
1362.964, 693.0000
1364.022, 713.0000
1365.081, 664.0000
1366.139, 687.0000
1367.197, 703.0000
1368.255, 699.0000
1369.313, 720.0000
1370.371, 696.0000
1371.428, 683.0000
1372.486, 706.0000
1373.543, 679.0000
1374.600, 703.0000
1375.657, 737.0000
1376.713, 701.0000
1377.770, 701.0000
1378.826, 709.0000
1379.882, 707.0000
1380.938, 705.0000
1381.994, 693.0000
1383.050, 725.0000
1384.106, 692.0000
1385.161, 715.0000
1386.216, 699.0000
1387.271, 717.0000
1388.326, 725.0000
1389.381, 719.0000
1390.435, 710.0000
1391.490, 694.0000
1392.544, 695.0000
1393.598, 708.0000
1394.652, 711.0000
1395.705, 691.0000
1396.759, 687.0000
1397.812, 716.0000
1398.866, 716.0000
1399.919, 693.0000
1400.972, 704.0000
1402.024, 699.0000
1403.077, 706.0000
1404.129, 686.0000
1405.181, 706.0000
1406.233, 698.0000
1407.285, 711.0000
1408.337, 713.0000
1409.389, 731.0000
1410.440, 707.0000
1411.491, 727.0000
1412.542, 710.0000
1413.593, 703.0000
1414.644, 720.0000
1415.695, 696.0000
1416.745, 700.0000
1417.795, 717.0000
1418.845, 744.0000
1419.895, 707.0000
1420.945, 712.0000
1421.995, 723.0000
1423.044, 699.0000
1424.093, 733.0000
1425.142, 738.0000
1426.191, 713.0000
1427.240, 732.0000
1428.289, 738.0000
1429.337, 704.0000
1430.385, 726.0000
1431.433, 715.0000
1432.481, 722.0000
1433.529, 710.0000
1434.577, 692.0000
1435.624, 708.0000
1436.672, 704.0000
1437.719, 728.0000
1438.766, 723.0000
1439.812, 687.0000
1440.859, 712.0000
1441.905, 721.0000
1442.952, 696.0000
1443.998, 718.0000
1445.044, 711.0000
1446.090, 697.0000
1447.135, 716.0000
1448.181, 720.0000
1449.226, 718.0000
1450.271, 737.0000
1451.316, 678.0000
1452.361, 707.0000
1453.405, 704.0000
1454.450, 729.0000
1455.494, 701.0000
1456.538, 726.0000
1457.582, 721.0000
1458.626, 693.0000
1459.670, 704.0000
1460.713, 715.0000
1461.757, 700.0000
1462.800, 695.0000
1463.843, 729.0000
1464.886, 705.0000
1465.928, 702.0000
1466.971, 722.0000
1468.013, 707.0000
1469.055, 712.0000
1470.097, 729.0000
1471.139, 705.0000
1472.181, 748.0000
1473.222, 728.0000
1474.263, 725.0000
1475.305, 716.0000
1476.346, 720.0000
1477.386, 720.0000
1478.427, 706.0000
1479.468, 718.0000
1480.508, 710.0000
1481.548, 705.0000
1482.588, 723.0000
1483.628, 709.0000
1484.668, 732.0000
1485.707, 744.0000
1486.747, 700.0000
1487.786, 717.0000
1488.825, 704.0000
1489.864, 713.0000
1490.902, 732.0000
1491.941, 707.0000
1492.979, 713.0000
1494.017, 714.0000
1495.055, 727.0000
1496.093, 709.0000
1497.131, 705.0000
1498.168, 713.0000
1499.206, 737.0000
1500.243, 740.0000
1501.280, 726.0000
1502.317, 716.0000
1503.354, 736.0000
1504.390, 741.0000
1505.426, 726.0000
1506.463, 735.0000
1507.499, 717.0000
1508.535, 718.0000
1509.570, 734.0000
1510.606, 720.0000
1511.641, 738.0000
1512.676, 712.0000
1513.711, 709.0000
1514.746, 738.0000
1515.781, 734.0000
1516.816, 747.0000
1517.850, 725.0000
1518.884, 699.0000
1519.918, 726.0000
1520.952, 712.0000
1521.986, 705.0000
1523.019, 726.0000
1524.053, 724.0000
1525.086, 720.0000
1526.119, 713.0000
1527.152, 712.0000
1528.185, 726.0000
1529.217, 724.0000
1530.250, 712.0000
1531.282, 750.0000
1532.314, 717.0000
1533.346, 758.0000
1534.377, 756.0000
1535.409, 709.0000
1536.440, 721.0000
1537.472, 728.0000
1538.503, 726.0000
1539.534, 710.0000
1540.564, 733.0000
1541.595, 715.0000
1542.625, 754.0000
1543.656, 732.0000
1544.686, 745.0000
1545.716, 736.0000
1546.745, 732.0000
1547.775, 730.0000
1548.804, 729.0000
1549.834, 737.0000
1550.863, 742.0000
1551.892, 777.0000
1552.920, 731.0000
1553.949, 763.0000
1554.977, 718.0000
1556.006, 731.0000
1557.034, 737.0000
1558.062, 707.0000
1559.089, 738.0000
1560.117, 742.0000
1561.144, 732.0000
1562.172, 750.0000
1563.199, 749.5707
1564.226, 742.0000
1565.252, 757.0000
1566.279, 753.0000
1567.305, 744.0000
1568.332, 718.0000
1569.358, 758.0000
1570.384, 814.0000
##END=



