##NAMES=Anglesite
##RRUFFID=R050408
##IDEAL CHEMISTRY=Pb^2+^S^6+^O_4_
##LOCALITY=Tsumeb mine, Tsumeb, Otavi District, Oshikoto, Namibia
##OWNER=RRUFF
##SOURCE=California Institute of Technology
##DESCRIPTION=Pale yellow fragment
##STATUS=The identification of this mineral has been confirmed by X-ray diffraction and chemical analysis
##URL=rruff.info/R050408
##MEASURED CHEMISTRY=Pb_1.00_S_1.00_O_4_
##PIN_ID=L01992
##ORIENTATION=Laser parallel to b* (0 1 0). Fiducial mark perpendicular to laser is parallel to c [0 0 1]
51.43100, 358.0000
52.67100, 365.0000
53.91000, 350.0000
55.14900, 365.0000
56.38700, 389.0000
57.62600, 395.0000
58.86400, 422.0000
60.10300, 418.0000
61.34100, 440.0000
62.57900, 473.0000
63.81700, 463.0000
65.05400, 461.0000
66.29200, 495.0000
67.52900, 501.0000
68.76700, 538.0000
70.00400, 579.0000
71.24100, 628.0000
72.47700, 719.0000
73.71400, 766.0000
74.95100, 850.0000
76.18700, 891.0000
77.42300, 983.0000
78.65900, 1077.000
79.89500, 1147.000
81.13100, 1268.000
82.36700, 1368.000
83.60200, 1479.000
84.83700, 1632.000
86.07200, 1743.000
87.30800, 1870.000
88.54200, 2032.000
89.77700, 2224.000
91.01200, 2381.000
92.24600, 2636.000
93.48000, 2848.000
94.71400, 3128.000
95.94800, 3432.000
97.18200, 3640.000
98.41600, 3769.000
99.64900, 3798.000
100.8830, 3717.000
102.1160, 3549.000
103.3490, 3274.000
104.5820, 3129.000
105.8150, 2958.000
107.0470, 2754.000
108.2800, 2631.000
109.5120, 2588.000
110.7440, 2513.000
111.9760, 2443.000
113.2080, 2420.000
114.4400, 2409.000
115.6710, 2416.000
116.9030, 2451.000
118.1340, 2538.000
119.3650, 2513.000
120.5960, 2532.000
121.8270, 2619.000
123.0580, 2793.000
124.2880, 2975.000
125.5190, 3054.000
126.7490, 3211.000
127.9790, 3380.000
129.2090, 3513.000
130.4390, 3589.000
131.6680, 3722.000
132.8980, 3830.000
134.1270, 3913.000
135.3560, 3955.000
136.5850, 4031.000
137.8140, 3966.000
139.0430, 3865.000
140.2710, 3723.000
141.5000, 3608.000
142.7280, 3464.000
143.9560, 3271.000
145.1840, 3163.000
146.4120, 3115.000
147.6390, 3058.000
148.8670, 2994.000
150.0940, 3016.000
151.3210, 3044.000
152.5490, 3045.000
153.7750, 3039.000
155.0020, 2968.000
156.2290, 2855.000
157.4550, 2731.000
158.6810, 2588.000
159.9080, 2439.000
161.1340, 2341.000
162.3590, 2206.000
163.5850, 2156.000
164.8110, 2103.000
166.0360, 2056.000
167.2610, 1981.000
168.4860, 1926.000
169.7110, 1903.000
170.9360, 1896.000
172.1610, 1898.000
173.3850, 1899.000
174.6100, 1889.000
175.8340, 1856.000
177.0580, 1833.000
178.2820, 1874.000
179.5050, 1854.000
180.7290, 1867.000
181.9520, 1863.000
183.1760, 1901.000
184.3990, 1886.000
185.6220, 1864.000
186.8450, 1885.000
188.0670, 1813.000
189.2900, 1829.000
190.5120, 1842.000
191.7340, 1776.000
192.9560, 1720.000
194.1780, 1680.000
195.4000, 1650.000
196.6220, 1623.000
197.8430, 1578.000
199.0640, 1512.000
200.2860, 1480.000
201.5070, 1450.000
202.7270, 1426.000
203.9480, 1418.000
205.1690, 1382.000
206.3890, 1370.000
207.6090, 1352.000
208.8290, 1318.000
210.0490, 1269.000
211.2690, 1276.000
212.4890, 1286.000
213.7080, 1234.000
214.9280, 1216.000
216.1470, 1223.000
217.3660, 1213.000
218.5850, 1216.000
219.8030, 1170.000
221.0220, 1179.000
222.2400, 1177.000
223.4590, 1105.000
224.6770, 1118.000
225.8950, 1110.000
227.1120, 1079.000
228.3300, 1060.000
229.5480, 1065.000
230.7650, 1071.000
231.9820, 1081.000
233.1990, 1052.000
234.4160, 1038.000
235.6330, 1067.000
236.8490, 1017.000
238.0660, 977.0000
239.2820, 1007.000
240.4980, 997.0000
241.7140, 971.0000
242.9300, 978.0000
244.1460, 947.0000
245.3610, 930.0000
246.5770, 956.0000
247.7920, 928.0000
249.0070, 915.0000
250.2220, 948.0000
251.4370, 955.0000
252.6510, 965.0000
253.8660, 937.0000
255.0800, 915.0000
256.2940, 907.0000
257.5080, 941.0000
258.7220, 915.0000
259.9360, 937.0000
261.1490, 938.0000
262.3630, 908.0000
263.5760, 885.0000
264.7890, 864.0000
266.0020, 915.0000
267.2150, 877.0000
268.4270, 880.0000
269.6400, 858.0000
270.8520, 882.0000
272.0640, 902.0000
273.2760, 874.0000
274.4880, 860.0000
275.7000, 875.0000
276.9120, 895.0000
278.1230, 865.0000
279.3340, 874.0000
280.5450, 860.0000
281.7560, 862.0000
282.9670, 865.0000
284.1780, 863.0000
285.3880, 857.0000
286.5980, 868.0000
287.8090, 863.0000
289.0190, 823.0000
290.2290, 873.0000
291.4380, 855.0000
292.6480, 884.0000
293.8570, 827.0000
295.0670, 851.0000
296.2760, 848.0000
297.4850, 814.0000
298.6930, 851.0000
299.9020, 849.0000
301.1110, 833.0000
302.3190, 837.0000
303.5270, 847.0000
304.7350, 833.0000
305.9430, 831.0000
307.1510, 840.0000
308.3580, 823.0000
309.5660, 827.0000
310.7730, 848.0000
311.9800, 837.0000
313.1870, 855.0000
314.3940, 852.0000
315.6010, 829.0000
316.8070, 804.0000
318.0130, 840.0000
319.2200, 844.0000
320.4260, 818.0000
321.6310, 865.0000
322.8370, 816.0000
324.0430, 840.0000
325.2480, 820.0000
326.4540, 829.0000
327.6590, 826.0000
328.8640, 812.0000
330.0680, 837.0000
331.2730, 826.0000
332.4780, 855.0000
333.6820, 819.0000
334.8860, 821.0000
336.0900, 833.0000
337.2940, 846.0000
338.4980, 812.0000
339.7010, 846.0000
340.9050, 853.0000
342.1080, 843.0000
343.3110, 833.0000
344.5140, 818.0000
345.7170, 847.0000
346.9200, 822.0000
348.1220, 798.0000
349.3240, 829.0000
350.5270, 856.0000
351.7290, 816.0000
352.9310, 843.0000
354.1320, 849.0000
355.3340, 841.0000
356.5350, 825.0000
357.7370, 837.0000
358.9380, 846.0000
360.1390, 836.0000
361.3400, 826.0000
362.5400, 838.0000
363.7410, 863.0000
364.9410, 848.0000
366.1410, 803.0000
367.3410, 829.0000
368.5410, 834.0000
369.7410, 850.0000
370.9400, 834.0000
372.1400, 831.0000
373.3390, 854.0000
374.5380, 852.0000
375.7370, 852.0000
376.9360, 838.0000
378.1350, 841.0000
379.3330, 857.0000
380.5310, 869.0000
381.7300, 845.0000
382.9280, 838.0000
384.1260, 866.0000
385.3230, 904.0000
386.5210, 846.0000
387.7180, 865.0000
388.9160, 864.0000
390.1130, 870.0000
391.3100, 873.0000
392.5060, 891.0000
393.7030, 880.0000
394.9000, 911.0000
396.0960, 912.0000
397.2920, 913.0000
398.4880, 905.0000
399.6840, 926.0000
400.8800, 908.0000
402.0750, 947.0000
403.2710, 932.0000
404.4660, 958.0000
405.6610, 957.0000
406.8560, 980.0000
408.0510, 981.0000
409.2450, 994.0000
410.4400, 985.0000
411.6340, 998.0000
412.8280, 1010.000
414.0220, 1015.000
415.2160, 1036.000
416.4100, 1061.000
417.6030, 1045.000
418.7970, 1076.000
419.9900, 1111.000
421.1830, 1151.000
422.3760, 1197.000
423.5690, 1255.000
424.7610, 1330.000
425.9540, 1366.000
427.1460, 1522.000
428.3380, 1628.000
429.5300, 1846.000
430.7220, 2053.000
431.9140, 2407.000
433.1050, 2780.000
434.2970, 3377.000
435.4880, 4037.000
436.6790, 4920.000
437.8700, 5812.000
439.0610, 6470.000
440.2510, 6660.000
441.4420, 6187.000
442.6320, 5562.000
443.8220, 5129.000
445.0120, 4999.000
446.2020, 5399.000
447.3910, 5968.000
448.5810, 6879.000
449.7700, 7593.000
450.9600, 7890.000
452.1490, 7279.000
453.3370, 6322.000
454.5260, 5221.000
455.7150, 4032.000
456.9030, 3225.000
458.0910, 2638.000
459.2800, 2305.000
460.4670, 2011.000
461.6550, 1846.000
462.8430, 1741.000
464.0300, 1612.000
465.2180, 1578.000
466.4050, 1503.000
467.5920, 1419.000
468.7790, 1373.000
469.9650, 1312.000
471.1520, 1343.000
472.3380, 1282.000
473.5250, 1248.000
474.7110, 1244.000
475.8970, 1217.000
477.0820, 1158.000
478.2680, 1140.000
479.4540, 1179.000
480.6390, 1146.000
481.8240, 1122.000
483.0090, 1098.000
484.1940, 1074.000
485.3780, 1092.000
486.5630, 1074.000
487.7470, 1045.000
488.9320, 992.0000
490.1160, 1077.000
491.3000, 1038.000
492.4830, 1025.000
493.6670, 1012.000
494.8500, 1014.000
496.0340, 975.0000
497.2170, 1002.000
498.4000, 1012.000
499.5820, 1003.000
500.7650, 990.0000
501.9480, 977.0000
503.1300, 990.0000
504.3120, 959.0000
505.4940, 940.0000
506.6760, 939.0000
507.8580, 932.0000
509.0390, 956.0000
510.2210, 955.0000
511.4020, 962.0000
512.5830, 919.0000
513.7640, 966.0000
514.9450, 934.0000
516.1250, 945.0000
517.3060, 931.0000
518.4860, 934.0000
519.6660, 929.0000
520.8460, 924.0000
522.0260, 935.0000
523.2060, 960.0000
524.3850, 962.0000
525.5650, 945.0000
526.7440, 928.0000
527.9230, 951.0000
529.1020, 951.0000
530.2810, 910.0000
531.4590, 909.0000
532.6380, 952.0000
533.8160, 938.0000
534.9940, 930.0000
536.1720, 947.0000
537.3500, 905.0000
538.5270, 907.0000
539.7050, 950.0000
540.8820, 925.0000
542.0590, 916.0000
543.2360, 951.0000
544.4130, 953.0000
545.5900, 936.0000
546.7660, 910.0000
547.9430, 937.0000
549.1190, 921.0000
550.2950, 957.0000
551.4710, 948.0000
552.6470, 944.0000
553.8220, 931.0000
554.9980, 939.0000
556.1730, 904.0000
557.3480, 953.0000
558.5230, 977.0000
559.6980, 946.0000
560.8730, 990.0000
562.0470, 980.0000
563.2220, 957.0000
564.3960, 963.0000
565.5700, 1001.000
566.7440, 964.0000
567.9170, 1005.000
569.0910, 967.0000
570.2640, 992.0000
571.4380, 954.0000
572.6110, 969.0000
573.7840, 985.0000
574.9570, 992.0000
576.1290, 1000.000
577.3020, 996.0000
578.4740, 1011.000
579.6460, 1027.000
580.8180, 1037.000
581.9900, 1013.000
583.1620, 1051.000
584.3330, 1030.000
585.5040, 1074.000
586.6760, 1074.000
587.8470, 1074.000
589.0180, 1107.000
590.1880, 1118.000
591.3590, 1177.000
592.5290, 1242.000
593.7000, 1243.000
594.8700, 1361.000
596.0400, 1409.000
597.2090, 1535.000
598.3790, 1625.000
599.5490, 1885.000
600.7180, 2129.000
601.8870, 2406.000
603.0560, 2767.000
604.2250, 3068.000
605.3940, 3361.000
606.5620, 3346.000
607.7300, 3233.000
608.8990, 2924.000
610.0670, 2503.000
611.2350, 2171.000
612.4020, 1991.000
613.5700, 1835.000
614.7370, 1670.000
615.9050, 1643.000
617.0720, 1634.000
618.2390, 1608.000
619.4060, 1596.000
620.5720, 1500.000
621.7390, 1411.000
622.9050, 1305.000
624.0710, 1235.000
625.2370, 1133.000
626.4030, 1114.000
627.5690, 1132.000
628.7340, 1142.000
629.9000, 1047.000
631.0650, 1155.000
632.2300, 1171.000
633.3950, 1211.000
634.5600, 1259.000
635.7240, 1292.000
636.8890, 1324.000
638.0530, 1476.000
639.2170, 1586.000
640.3810, 1624.000
641.5450, 1805.000
642.7080, 1841.000
643.8720, 1754.000
645.0350, 1616.000
646.1980, 1438.000
647.3610, 1320.000
648.5240, 1227.000
649.6870, 1146.000
650.8490, 1115.000
652.0120, 1029.000
653.1740, 1056.000
654.3360, 1056.000
655.4980, 1004.000
656.6600, 1006.000
657.8210, 1005.000
658.9830, 1023.000
660.1440, 1032.000
661.3050, 1024.000
662.4660, 991.0000
663.6270, 1012.000
664.7870, 1043.000
665.9480, 980.0000
667.1080, 979.0000
668.2680, 999.0000
669.4280, 1008.000
670.5880, 1005.000
671.7480, 992.0000
672.9070, 1013.000
674.0670, 1018.000
675.2260, 1006.000
676.3850, 1009.000
677.5440, 978.0000
678.7030, 1005.000
679.8610, 1001.000
681.0200, 989.0000
682.1780, 967.0000
683.3360, 995.0000
684.4940, 979.0000
685.6520, 982.0000
686.8090, 974.0000
687.9670, 966.0000
689.1240, 999.0000
690.2810, 993.0000
691.4380, 993.0000
692.5950, 1006.000
693.7520, 1005.000
694.9080, 960.0000
696.0650, 997.0000
697.2210, 1004.000
698.3770, 1005.000
699.5330, 993.0000
700.6880, 985.0000
701.8440, 987.0000
702.9990, 995.0000
704.1550, 988.0000
705.3100, 982.0000
706.4650, 955.0000
707.6190, 973.0000
708.7740, 998.0000
709.9290, 995.0000
711.0830, 990.0000
712.2370, 1001.000
713.3910, 1035.000
714.5450, 998.0000
715.6980, 1036.000
716.8520, 982.0000
718.0050, 947.0000
719.1580, 1005.000
720.3110, 993.0000
721.4640, 992.0000
722.6170, 1037.000
723.7700, 1008.000
724.9220, 990.0000
726.0740, 1031.000
727.2260, 1030.000
728.3780, 1029.000
729.5300, 1020.000
730.6810, 1017.000
731.8330, 1009.000
732.9840, 1007.000
734.1350, 1005.000
735.2860, 1018.000
736.4370, 1012.000
737.5880, 1012.000
738.7380, 1036.000
739.8880, 996.0000
741.0390, 1003.000
742.1890, 1006.000
743.3380, 1023.000
744.4880, 1012.000
745.6380, 1021.000
746.7870, 1038.000
747.9360, 1009.000
749.0850, 1033.000
750.2340, 977.0000
751.3830, 1030.000
752.5310, 1019.000
753.6800, 1020.000
754.8280, 1029.000
755.9760, 1038.000
757.1240, 1018.000
758.2720, 1031.000
759.4190, 1008.000
760.5670, 1064.000
761.7140, 1032.000
762.8610, 1029.000
764.0080, 1009.000
765.1550, 1054.000
766.3020, 995.0000
767.4480, 1032.000
768.5950, 1011.000
769.7410, 1015.000
770.8870, 1023.000
772.0330, 1010.000
773.1780, 1044.000
774.3240, 1056.000
775.4690, 1046.000
776.6140, 1044.000
777.7590, 1064.000
778.9040, 1040.000
780.0490, 1037.000
781.1940, 1035.000
782.3380, 1050.000
783.4820, 1013.000
784.6260, 1068.000
785.7700, 1041.000
786.9140, 1059.000
788.0580, 1001.000
789.2010, 1014.000
790.3450, 1034.000
791.4880, 1026.000
792.6310, 1070.000
793.7730, 1044.000
794.9160, 1026.000
796.0590, 1076.000
797.2010, 1042.000
798.3430, 1019.000
799.4850, 1025.000
800.6270, 1050.000
801.7690, 1037.000
802.9100, 1066.000
804.0520, 1040.000
805.1930, 1020.000
806.3340, 1032.000
807.4750, 1029.000
808.6160, 1070.000
809.7560, 1056.000
810.8970, 1065.000
812.0370, 1035.000
813.1770, 1057.000
814.3170, 1058.000
815.4570, 1032.000
816.5960, 1050.000
817.7360, 1048.000
818.8750, 1099.000
820.0140, 1060.000
821.1530, 1068.000
822.2920, 1066.000
823.4310, 1081.000
824.5690, 1042.000
825.7070, 1075.000
826.8460, 1053.000
827.9840, 1060.000
829.1220, 1075.000
830.2590, 1075.000
831.3970, 1086.000
832.5340, 1019.000
833.6710, 1089.000
834.8080, 1093.000
835.9450, 1122.000
837.0820, 1110.000
838.2190, 1062.000
839.3550, 1087.000
840.4910, 1075.000
841.6270, 1109.000
842.7630, 1099.000
843.8990, 1092.000
845.0350, 1095.000
846.1700, 1100.000
847.3060, 1136.000
848.4410, 1085.000
849.5760, 1129.000
850.7100, 1127.000
851.8450, 1094.000
852.9800, 1164.000
854.1140, 1158.000
855.2480, 1124.000
856.3820, 1126.000
857.5160, 1144.000
858.6500, 1158.000
859.7830, 1151.000
860.9170, 1171.000
862.0500, 1193.000
863.1830, 1224.000
864.3160, 1168.000
865.4480, 1201.000
866.5810, 1227.000
867.7130, 1189.000
868.8460, 1240.000
869.9780, 1228.000
871.1100, 1256.000
872.2410, 1264.000
873.3730, 1245.000
874.5050, 1255.000
875.6360, 1230.000
876.7670, 1260.000
877.8980, 1249.000
879.0290, 1278.000
880.1590, 1300.000
881.2900, 1231.000
882.4200, 1259.000
883.5500, 1234.000
884.6800, 1261.000
885.8100, 1266.000
886.9400, 1244.000
888.0690, 1260.000
889.1990, 1256.000
890.3280, 1295.000
891.4570, 1276.000
892.5860, 1275.000
893.7140, 1300.000
894.8430, 1328.000
895.9710, 1299.000
897.1000, 1250.000
898.2280, 1320.000
899.3560, 1280.000
900.4830, 1294.000
901.6110, 1286.000
902.7380, 1322.000
903.8660, 1259.000
904.9930, 1318.000
906.1200, 1316.000
907.2460, 1338.000
908.3730, 1336.000
909.5000, 1355.000
910.6260, 1355.000
911.7520, 1376.000
912.8780, 1336.000
914.0040, 1375.000
915.1290, 1349.000
916.2550, 1360.000
917.3800, 1348.000
918.5050, 1399.000
919.6300, 1397.000
920.7550, 1400.000
921.8800, 1419.000
923.0040, 1423.000
924.1290, 1380.000
925.2530, 1425.000
926.3770, 1466.000
927.5010, 1395.000
928.6250, 1443.000
929.7480, 1471.000
930.8720, 1466.000
931.9950, 1495.000
933.1180, 1490.000
934.2410, 1519.000
935.3640, 1516.000
936.4860, 1517.000
937.6090, 1555.000
938.7310, 1582.000
939.8530, 1587.000
940.9750, 1625.000
942.0970, 1633.000
943.2180, 1670.000
944.3400, 1776.000
945.4610, 1810.000
946.5820, 1835.000
947.7030, 1913.000
948.8240, 1957.000
949.9450, 2061.000
951.0650, 2158.000
952.1860, 2211.000
953.3060, 2351.000
954.4260, 2416.000
955.5460, 2621.000
956.6650, 2799.000
957.7850, 2914.000
958.9040, 3153.000
960.0230, 3506.000
961.1420, 3854.000
962.2610, 4266.000
963.3800, 4688.000
964.4990, 5430.000
965.6170, 6292.000
966.7350, 7278.000
967.8530, 8828.000
968.9710, 10794.00
970.0890, 13424.00
971.2070, 17117.00
972.3240, 21669.00
973.4410, 28058.00
974.5580, 36055.00
975.6750, 44836.00
976.7920, 53569.00
977.9090, 60270.00
979.0250, 61892.00
980.1410, 58233.00
981.2580, 49835.00
982.3740, 39690.00
983.4890, 30437.00
984.6050, 23498.00
985.7200, 18406.00
986.8360, 14738.00
987.9510, 11975.00
989.0660, 9976.000
990.1810, 8775.000
991.2950, 7559.000
992.4100, 6565.000
993.5240, 5944.000
994.6390, 5475.000
995.7530, 5015.000
996.8660, 4647.000
997.9800, 4334.000
999.0940, 4039.000
1000.207, 3817.000
1001.320, 3700.000
1002.433, 3449.000
1003.546, 3371.000
1004.659, 3106.000
1005.772, 2984.000
1006.884, 2916.000
1007.996, 2828.000
1009.108, 2701.000
1010.220, 2609.000
1011.332, 2601.000
1012.444, 2483.000
1013.555, 2454.000
1014.666, 2416.000
1015.777, 2333.000
1016.888, 2255.000
1017.999, 2243.000
1019.110, 2263.000
1020.220, 2234.000
1021.331, 2140.000
1022.441, 2139.000
1023.551, 2105.000
1024.661, 2065.000
1025.770, 2062.000
1026.880, 2020.000
1027.989, 2023.000
1029.098, 1994.000
1030.207, 1971.000
1031.316, 1969.000
1032.425, 1932.000
1033.533, 1948.000
1034.642, 1923.000
1035.750, 1861.000
1036.858, 1881.000
1037.966, 1846.000
1039.073, 1873.000
1040.181, 1825.000
1041.288, 1854.000
1042.396, 1847.000
1043.503, 1793.000
1044.610, 1774.000
1045.716, 1807.000
1046.823, 1774.000
1047.929, 1805.000
1049.036, 1749.000
1050.142, 1834.000
1051.248, 1776.000
1052.353, 1793.000
1053.459, 1828.000
1054.564, 1806.000
1055.670, 1752.000
1056.775, 1774.000
1057.880, 1835.000
1058.985, 1846.000
1060.089, 1792.000
1061.194, 1817.000
1062.298, 1852.000
1063.402, 1797.000
1064.506, 1797.000
1065.610, 1786.000
1066.713, 1802.000
1067.817, 1762.000
1068.920, 1819.000
1070.023, 1848.000
1071.126, 1846.000
1072.229, 1820.000
1073.332, 1809.000
1074.435, 1821.000
1075.537, 1844.000
1076.639, 1876.000
1077.741, 1861.000
1078.843, 1891.000
1079.945, 1885.000
1081.046, 1879.000
1082.148, 1845.000
1083.249, 1903.000
1084.350, 1938.000
1085.451, 1903.000
1086.551, 1924.000
1087.652, 1914.000
1088.752, 1949.000
1089.853, 2021.000
1090.953, 1997.000
1092.053, 1937.000
1093.152, 1955.000
1094.252, 1947.000
1095.351, 1957.000
1096.451, 1973.000
1097.550, 1994.000
1098.649, 1970.000
1099.748, 2001.000
1100.846, 2011.000
1101.945, 1951.000
1103.043, 2065.000
1104.141, 2055.000
1105.239, 2020.000
1106.337, 2123.000
1107.434, 2072.000
1108.532, 2149.000
1109.629, 2099.000
1110.726, 2088.000
1111.823, 2182.000
1112.920, 2218.000
1114.017, 2185.000
1115.113, 2264.000
1116.210, 2273.000
1117.306, 2264.000
1118.402, 2301.000
1119.498, 2342.000
1120.593, 2353.000
1121.689, 2383.000
1122.784, 2413.000
1123.879, 2480.000
1124.974, 2497.000
1126.069, 2498.000
1127.164, 2546.000
1128.259, 2581.000
1129.353, 2596.000
1130.447, 2569.000
1131.541, 2718.000
1132.635, 2765.000
1133.729, 2752.000
1134.822, 2866.000
1135.916, 2945.000
1137.009, 3015.000
1138.102, 2945.000
1139.195, 3042.000
1140.288, 3137.000
1141.380, 3121.000
1142.473, 3166.000
1143.565, 3284.000
1144.657, 3334.000
1145.749, 3364.000
1146.841, 3476.000
1147.932, 3569.000
1149.024, 3687.000
1150.115, 3779.000
1151.206, 3974.000
1152.297, 4051.000
1153.388, 4186.000
1154.479, 4163.000
1155.569, 4254.000
1156.659, 4271.000
1157.750, 4323.000
1158.839, 4274.000
1159.929, 4196.000
1161.019, 4041.000
1162.108, 3858.000
1163.198, 3706.000
1164.287, 3630.000
1165.376, 3437.000
1166.465, 3312.000
1167.553, 3080.000
1168.642, 2989.000
1169.730, 2874.000
1170.818, 2802.000
1171.906, 2649.000
1172.994, 2581.000
1174.082, 2467.000
1175.170, 2433.000
1176.257, 2401.000
1177.344, 2288.000
1178.431, 2342.000
1179.518, 2249.000
1180.605, 2185.000
1181.691, 2178.000
1182.778, 2141.000
1183.864, 2150.000
1184.950, 2083.000
1186.036, 2046.000
1187.122, 2067.000
1188.207, 2011.000
1189.292, 1983.000
1190.378, 1955.000
1191.463, 1957.000
1192.548, 1925.000
1193.632, 1979.000
1194.717, 1893.000
1195.801, 1901.000
1196.886, 1867.000
1197.970, 1848.000
1199.054, 1859.000
1200.137, 1826.000
1201.221, 1817.000
1202.305, 1811.000
1203.388, 1800.000
1204.471, 1750.000
1205.554, 1735.000
1206.637, 1695.000
1207.719, 1758.000
1208.802, 1697.000
1209.884, 1729.000
1210.966, 1699.000
1212.048, 1701.000
1213.130, 1674.000
1214.212, 1669.000
1215.293, 1687.000
1216.374, 1692.000
1217.456, 1708.000
1218.536, 1681.000
1219.617, 1764.000
1220.698, 1662.000
1221.778, 1723.000
1222.859, 1656.000
1223.939, 1706.000
1225.019, 1653.000
1226.099, 1634.000
1227.178, 1679.000
1228.258, 1631.000
1229.337, 1612.000
1230.417, 1594.000
1231.496, 1602.000
1232.574, 1612.000
1233.653, 1604.000
1234.732, 1572.000
1235.810, 1553.000
1236.888, 1562.000
1237.966, 1609.000
1239.044, 1567.000
1240.122, 1571.000
1241.199, 1538.000
1242.277, 1598.000
1243.354, 1556.000
1244.431, 1605.000
1245.508, 1524.000
1246.585, 1527.000
1247.661, 1529.000
1248.738, 1527.000
1249.814, 1538.000
1250.890, 1549.000
1251.966, 1543.000
1253.042, 1557.000
1254.117, 1550.000
1255.193, 1547.000
1256.268, 1530.000
1257.343, 1562.000
1258.418, 1539.000
1259.493, 1548.000
1260.567, 1529.000
1261.642, 1547.000
1262.716, 1536.000
1263.790, 1537.000
1264.864, 1534.000
1265.938, 1475.000
1267.011, 1494.000
1268.085, 1508.000
1269.158, 1478.000
1270.231, 1521.000
1271.304, 1537.000
1272.377, 1482.000
1273.450, 1474.000
1274.522, 1474.000
1275.594, 1491.000
1276.666, 1485.000
1277.738, 1477.000
1278.810, 1483.000
1279.882, 1463.000
1280.953, 1425.000
1282.025, 1457.000
1283.096, 1444.000
1284.167, 1454.000
1285.238, 1429.000
1286.308, 1457.000
1287.379, 1410.000
1288.449, 1457.000
1289.519, 1436.000
1290.589, 1421.000
1291.659, 1409.000
1292.729, 1477.000
1293.798, 1432.000
1294.868, 1382.000
1295.937, 1453.000
1297.006, 1437.000
1298.075, 1377.000
1299.143, 1401.000
1300.212, 1418.000
1301.280, 1392.000
1302.348, 1399.000
1303.416, 1412.000
1304.484, 1423.000
1305.552, 1416.000
1306.620, 1434.000
1307.687, 1398.000
1308.754, 1374.000
1309.821, 1426.000
1310.888, 1397.000
1311.955, 1415.000
1313.021, 1386.000
1314.088, 1467.000
1315.154, 1405.000
1316.220, 1455.000
1317.286, 1382.000
1318.352, 1421.000
1319.417, 1407.000
1320.483, 1376.000
1321.548, 1404.000
1322.613, 1423.000
1323.678, 1376.000
1324.743, 1371.000
1325.807, 1380.000
1326.872, 1412.000
1327.936, 1425.000
1329.000, 1396.000
1330.064, 1403.000
1331.128, 1418.000
1332.191, 1390.000
1333.255, 1403.000
1334.318, 1407.000
1335.381, 1405.000
1336.444, 1398.000
1337.507, 1400.000
1338.569, 1428.000
1339.632, 1360.000
1340.694, 1375.000
1341.756, 1423.000
1342.818, 1347.000
1343.880, 1363.000
1344.941, 1399.000
1346.003, 1425.000
1347.064, 1393.000
1348.125, 1421.000
1349.186, 1399.000
1350.247, 1408.000
1351.308, 1360.000
1352.368, 1424.000
1353.428, 1388.000
1354.489, 1402.000
1355.549, 1397.000
1356.608, 1414.000
1357.668, 1388.000
1358.727, 1399.000
1359.787, 1407.000
1360.846, 1414.000
1361.905, 1399.000
1362.964, 1364.000
1364.022, 1364.000
1365.081, 1437.000
1366.139, 1375.000
1367.197, 1424.000
1368.255, 1405.000
1369.313, 1414.000
1370.371, 1375.000
1371.428, 1398.000
1372.486, 1413.000
1373.543, 1402.000
1374.600, 1397.000
1375.657, 1421.000
1376.713, 1392.000
1377.770, 1402.000
1378.826, 1420.000
1379.882, 1427.000
1380.938, 1339.000
1381.994, 1389.000
1383.050, 1429.000
1384.106, 1369.000
1385.161, 1412.000
1386.216, 1396.000
1387.271, 1408.000
1388.326, 1376.000
1389.381, 1410.000
1390.435, 1454.000
1391.490, 1419.000
1392.544, 1383.000
1393.598, 1413.000
1394.652, 1396.000
1395.705, 1399.000
1396.759, 1442.000
1397.812, 1431.000
1398.866, 1437.000
1399.919, 1383.000
1400.972, 1414.000
1402.024, 1420.000
1403.077, 1415.000
1404.129, 1429.000
1405.181, 1420.000
1406.233, 1453.000
1407.285, 1444.000
1408.337, 1454.000
1409.389, 1405.000
1410.440, 1423.000
1411.491, 1408.000
1412.542, 1408.000
1413.593, 1438.000
1414.644, 1460.000
1415.695, 1456.000
1416.745, 1413.000
1417.795, 1448.000
1418.845, 1454.000
1419.895, 1413.000
1420.945, 1407.000
1421.995, 1432.000
1423.044, 1407.000
1424.093, 1429.000
1425.142, 1419.000
1426.191, 1407.000
1427.240, 1405.000
1428.289, 1429.000
1429.337, 1449.000
1430.385, 1423.000
1431.433, 1416.000
1432.481, 1434.000
1433.529, 1463.000
1434.577, 1438.000
1435.624, 1480.000
1436.672, 1416.000
1437.719, 1460.000
1438.766, 1430.000
1439.812, 1438.000
1440.859, 1462.000
1441.905, 1467.000
1442.952, 1460.000
1443.998, 1464.000
1445.044, 1468.000
1446.090, 1472.000
1447.135, 1432.000
1448.181, 1436.000
1449.226, 1422.000
1450.271, 1391.000
1451.316, 1481.000
1452.361, 1412.000
1453.405, 1472.000
1454.450, 1432.000
1455.494, 1476.000
1456.538, 1420.000
1457.582, 1454.000
1458.626, 1446.000
1459.670, 1428.000
1460.713, 1462.000
1461.757, 1459.000
1462.800, 1451.000
1463.843, 1475.000
1464.886, 1468.000
1465.928, 1410.000
1466.971, 1493.000
1468.013, 1487.000
1469.055, 1444.000
1470.097, 1439.000
1471.139, 1458.000
1472.181, 1455.000
1473.222, 1477.000
1474.263, 1465.000
1475.305, 1440.000
1476.346, 1435.000
1477.386, 1477.000
1478.427, 1480.000
1479.468, 1473.000
1480.508, 1489.000
1481.548, 1475.000
1482.588, 1489.000
1483.628, 1450.000
1484.668, 1498.000
1485.707, 1436.000
1486.747, 1468.000
1487.786, 1499.000
1488.825, 1472.000
1489.864, 1515.000
1490.902, 1472.000
1491.941, 1422.000
1492.979, 1499.000
1494.017, 1483.000
1495.055, 1482.000
1496.093, 1465.000
1497.131, 1475.000
1498.168, 1482.000
1499.206, 1484.000
1500.243, 1463.000
1501.280, 1458.000
1502.317, 1474.000
1503.354, 1474.000
1504.390, 1467.000
1505.426, 1498.000
1506.463, 1526.000
1507.499, 1499.000
1508.535, 1482.000
1509.570, 1492.000
1510.606, 1455.000
1511.641, 1445.000
1512.676, 1469.000
1513.711, 1473.000
1514.746, 1491.000
1515.781, 1446.000
1516.816, 1511.000
1517.850, 1493.000
1518.884, 1502.000
1519.918, 1489.000
1520.952, 1495.000
1521.986, 1543.000
1523.019, 1477.000
1524.053, 1513.000
1525.086, 1499.000
1526.119, 1513.000
1527.152, 1507.000
1528.185, 1493.000
1529.217, 1510.000
1530.250, 1500.000
1531.282, 1502.000
1532.314, 1496.000
1533.346, 1573.000
1534.377, 1471.000
1535.409, 1502.000
1536.440, 1496.000
1537.472, 1505.000
1538.503, 1440.000
1539.534, 1522.000
1540.564, 1558.000
1541.595, 1549.000
1542.625, 1500.000
1543.656, 1496.000
1544.686, 1548.000
1545.716, 1524.000
1546.745, 1482.000
1547.775, 1517.000
1548.804, 1544.000
1549.834, 1504.000
1550.863, 1537.000
1551.892, 1502.000
1552.920, 1578.000
1553.949, 1552.000
1554.977, 1509.000
1556.006, 1533.000
1557.034, 1500.000
1558.062, 1550.000
1559.089, 1555.000
1560.117, 1523.000
1561.144, 1501.000
1562.172, 1526.000
1563.199, 1528.000
1564.226, 1532.000
1565.252, 1570.000
1566.279, 1532.000
1567.305, 1530.000
1568.332, 1551.000
1569.358, 1579.000
1570.384, 1595.000
##END=



