##NAMES=Anglesite
##RRUFFID=R040004
##IDEAL CHEMISTRY=Pb^2+^S^6+^O_4_
##LOCALITY=Erupcion mine, Los Lamentos, Chihuahua, Mexico
##OWNER=RRUFF
##SOURCE=University of Arizona Mineral Museum
##DESCRIPTION=Tan colored tabular crystal
##STATUS=The identification of this mineral has been confirmed by X-ray diffraction and chemical analysis
##URL=rruff.info/R040004
##MEASURED CHEMISTRY=Pb_1.00_S_1.00_O_4_
##PIN_ID=M00020
##ORIENTATION=Laser parallel to a* (1 0 0). Fiducial mark perpendicular to laser is parallel to b [0 1 0]
63.41100, 195.0000
64.65300, 231.0000
65.89600, 315.0000
67.13800, 371.0000
68.38000, 453.0000
69.62200, 578.0000
70.86300, 683.0000
72.10500, 791.0000
73.34600, 928.0000
74.58700, 1147.000
75.82800, 1389.000
77.06900, 1585.000
78.30900, 1799.000
79.55000, 2042.000
80.79000, 2266.000
82.03000, 2443.000
83.27000, 2694.000
84.51000, 2951.000
85.74900, 3190.000
86.98900, 3375.000
88.22800, 3544.000
89.46700, 3810.000
90.70600, 4069.000
91.94400, 4280.000
93.18300, 4449.000
94.42100, 4691.000
95.65900, 4762.000
96.89700, 4942.000
98.13500, 5001.000
99.37300, 5110.000
100.6100, 5112.000
101.8480, 5107.000
103.0850, 5050.000
104.3220, 4947.000
105.5590, 4951.000
106.7950, 4878.000
108.0320, 4883.000
109.2680, 4931.000
110.5040, 4842.000
111.7400, 4843.000
112.9760, 4948.000
114.2120, 4887.000
115.4470, 4931.000
116.6820, 4911.000
117.9170, 4921.000
119.1520, 4891.000
120.3870, 4987.000
121.6220, 4976.000
122.8560, 5027.000
124.0900, 5111.000
125.3240, 5062.000
126.5580, 5245.000
127.7920, 5375.000
129.0260, 5531.000
130.2590, 5578.000
131.4920, 5710.000
132.7250, 5758.000
133.9580, 5861.000
135.1910, 5860.000
136.4230, 5844.000
137.6560, 5954.000
138.8880, 5826.000
140.1200, 5864.000
141.3520, 5657.000
142.5830, 5484.000
143.8150, 5362.000
145.0460, 5276.720
146.2770, 5215.221
147.5080, 5205.000
148.7390, 5210.000
149.9700, 5213.000
151.2000, 5202.041
152.4310, 5238.000
153.6610, 5196.000
154.8910, 5163.000
156.1210, 5107.876
157.3500, 5015.211
158.5800, 4944.000
159.8090, 4813.000
161.0380, 4716.000
162.2670, 4634.000
163.4960, 4585.000
164.7240, 4502.000
165.9530, 4420.000
167.1810, 4376.000
168.4090, 4419.000
169.6370, 4365.000
170.8650, 4355.000
172.0920, 4306.000
173.3200, 4343.000
174.5470, 4303.000
175.7740, 4261.000
177.0010, 4248.000
178.2280, 4321.000
179.4540, 4270.000
180.6810, 4224.000
181.9070, 4346.000
183.1330, 4192.000
184.3590, 4270.000
185.5850, 4207.000
186.8100, 4169.000
188.0350, 4247.000
189.2610, 4193.000
190.4860, 4188.000
191.7110, 4230.000
192.9350, 4186.000
194.1600, 4197.000
195.3840, 4192.000
196.6080, 4081.000
197.8320, 4142.000
199.0560, 4124.000
200.2800, 4187.000
201.5030, 4127.000
202.7270, 4130.000
203.9500, 4184.000
205.1730, 4198.000
206.3950, 4144.000
207.6180, 4142.000
208.8410, 4211.000
210.0630, 4144.000
211.2850, 4230.000
212.5070, 4153.000
213.7290, 4173.000
214.9500, 4128.000
216.1720, 4205.000
217.3930, 4317.000
218.6140, 4337.000
219.8350, 4373.000
221.0560, 4383.000
222.2770, 4379.000
223.4970, 4369.293
224.7170, 4347.000
225.9370, 4325.000
227.1570, 4245.000
228.3770, 4235.000
229.5970, 4153.000
230.8160, 4174.000
232.0350, 4210.000
233.2540, 4129.000
234.4730, 4160.000
235.6920, 4090.000
236.9110, 4037.000
238.1290, 4202.000
239.3470, 4252.000
240.5650, 4273.000
241.7830, 4091.000
243.0010, 4226.000
244.2180, 4243.000
245.4360, 4184.000
246.6530, 4237.000
247.8700, 4234.000
249.0870, 4194.000
250.3040, 4214.000
251.5200, 4215.000
252.7370, 4163.000
253.9530, 4247.000
255.1690, 4190.000
256.3850, 4213.000
257.6000, 4275.000
258.8160, 4140.000
260.0310, 4142.000
261.2460, 4193.000
262.4610, 4275.000
263.6760, 4176.000
264.8910, 4260.000
266.1050, 4204.000
267.3200, 4172.000
268.5340, 4238.000
269.7480, 4275.000
270.9620, 4375.000
272.1750, 4352.660
273.3890, 4297.000
274.6020, 4309.000
275.8150, 4292.000
277.0280, 4246.000
278.2410, 4258.000
279.4540, 4280.000
280.6660, 4330.000
281.8790, 4334.000
283.0910, 4250.000
284.3030, 4339.000
285.5140, 4245.000
286.7260, 4250.000
287.9380, 4327.000
289.1490, 4341.000
290.3600, 4284.000
291.5710, 4297.000
292.7820, 4305.000
293.9920, 4232.000
295.2030, 4406.000
296.4130, 4367.000
297.6230, 4320.000
298.8330, 4431.000
300.0430, 4327.000
301.2520, 4334.000
302.4620, 4355.000
303.6710, 4398.000
304.8800, 4408.000
306.0890, 4348.000
307.2980, 4301.000
308.5070, 4364.000
309.7150, 4358.000
310.9230, 4370.000
312.1310, 4358.000
313.3390, 4453.000
314.5470, 4453.000
315.7550, 4417.000
316.9620, 4362.000
318.1690, 4368.000
319.3760, 4358.000
320.5830, 4419.000
321.7900, 4406.000
322.9960, 4443.000
324.2030, 4423.000
325.4090, 4446.000
326.6150, 4428.000
327.8210, 4431.000
329.0270, 4493.000
330.2320, 4496.000
331.4380, 4514.000
332.6430, 4481.000
333.8480, 4449.000
335.0530, 4455.000
336.2580, 4460.000
337.4620, 4514.000
338.6670, 4490.000
339.8710, 4549.000
341.0750, 4472.000
342.2790, 4461.000
343.4820, 4556.000
344.6860, 4544.000
345.8890, 4485.000
347.0920, 4517.000
348.2960, 4541.000
349.4980, 4597.000
350.7010, 4582.000
351.9040, 4575.000
353.1060, 4556.000
354.3080, 4557.000
355.5100, 4561.000
356.7120, 4589.000
357.9140, 4578.000
359.1150, 4589.951
360.3170, 4631.000
361.5180, 4608.000
362.7190, 4591.000
363.9200, 4622.000
365.1200, 4603.000
366.3210, 4601.035
367.5210, 4635.000
368.7210, 4605.000
369.9210, 4579.000
371.1210, 4625.000
372.3210, 4677.000
373.5200, 4657.000
374.7200, 4665.889
375.9190, 4657.000
377.1180, 4624.000
378.3170, 4648.000
379.5150, 4632.000
380.7140, 4707.000
381.9120, 4704.205
383.1110, 4702.000
384.3090, 4724.000
385.5060, 4708.000
386.7040, 4675.000
387.9020, 4751.000
389.0990, 4718.755
390.2960, 4723.000
391.4930, 4746.000
392.6900, 4711.000
393.8860, 4769.000
395.0830, 4812.000
396.2790, 4738.000
397.4750, 4803.000
398.6710, 4857.000
399.8670, 4838.000
401.0630, 4898.000
402.2580, 4806.000
403.4540, 4909.000
404.6490, 4967.000
405.8440, 4948.000
407.0390, 4872.000
408.2330, 4939.000
409.4280, 4920.000
410.6220, 4818.000
411.8160, 4885.000
413.0100, 5041.000
414.2040, 4955.000
415.3980, 4993.000
416.5910, 5079.000
417.7850, 5079.000
418.9780, 5134.000
420.1710, 5054.000
421.3640, 5180.000
422.5560, 5189.000
423.7490, 5101.000
424.9410, 5180.000
426.1330, 5394.000
427.3250, 5449.000
428.5170, 5629.000
429.7090, 5783.000
430.9000, 6046.000
432.0910, 6306.000
433.2820, 6569.000
434.4730, 7069.000
435.6640, 7540.000
436.8550, 8167.000
438.0450, 8809.000
439.2360, 9252.000
440.4260, 9644.000
441.6160, 9882.000
442.8060, 10202.00
443.9950, 10746.00
445.1850, 11576.00
446.3740, 12393.00
447.5630, 13685.00
448.7520, 14844.00
449.9410, 15364.00
451.1300, 16015.00
452.3180, 15115.00
453.5060, 13592.00
454.6950, 12619.00
455.8830, 12543.00
457.0700, 8813.000
458.2580, 7968.000
459.4450, 7406.000
460.6330, 6912.000
461.8200, 6604.000
463.0070, 6318.000
464.1940, 6201.000
465.3800, 6125.000
466.5670, 6016.000
467.7530, 5951.000
468.9390, 5868.000
470.1250, 5810.342
471.3110, 5735.000
472.4970, 5729.000
473.6820, 5719.000
474.8680, 5716.069
476.0530, 5673.000
477.2380, 5684.000
478.4230, 5645.000
479.6070, 5560.000
480.7920, 5480.000
481.9760, 5425.000
483.1600, 5369.000
484.3440, 5354.445
485.5280, 5380.000
486.7120, 5367.000
487.8950, 5372.000
489.0780, 5412.000
490.2620, 5360.000
491.4450, 5371.000
492.6270, 5346.000
493.8100, 5291.000
494.9920, 5267.000
496.1750, 5334.000
497.3570, 5378.000
498.5390, 5329.000
499.7210, 5307.000
500.9020, 5266.000
502.0840, 5314.000
503.2650, 5308.000
504.4460, 5327.000
505.6270, 5335.000
506.8080, 5304.000
507.9890, 5330.000
509.1690, 5346.000
510.3500, 5278.000
511.5300, 5267.000
512.7100, 5342.000
513.8900, 5381.000
515.0690, 5377.000
516.2490, 5331.000
517.4280, 5367.000
518.6070, 5359.000
519.7860, 5386.000
520.9650, 5357.000
522.1440, 5414.000
523.3220, 5406.000
524.5010, 5353.000
525.6790, 5418.000
526.8570, 5473.000
528.0350, 5450.000
529.2130, 5351.000
530.3900, 5439.000
531.5670, 5371.000
532.7450, 5452.000
533.9220, 5426.000
535.0980, 5366.000
536.2750, 5396.000
537.4520, 5385.000
538.6280, 5476.000
539.8040, 5494.000
540.9800, 5461.000
542.1560, 5474.000
543.3320, 5483.000
544.5070, 5462.000
545.6830, 5460.000
546.8580, 5413.000
548.0330, 5489.000
549.2080, 5459.000
550.3830, 5511.000
551.5570, 5538.000
552.7310, 5520.000
553.9060, 5517.000
555.0800, 5542.000
556.2540, 5532.000
557.4270, 5613.000
558.6010, 5501.000
559.7740, 5611.000
560.9470, 5598.000
562.1210, 5534.000
563.2930, 5589.000
564.4660, 5571.000
565.6390, 5630.000
566.8110, 5560.000
567.9830, 5645.000
569.1550, 5601.000
570.3270, 5560.000
571.4990, 5619.000
572.6710, 5624.000
573.8420, 5667.000
575.0130, 5674.000
576.1840, 5714.000
577.3550, 5636.000
578.5260, 5620.000
579.6970, 5685.000
580.8670, 5646.000
582.0370, 5763.000
583.2070, 5764.000
584.3770, 5758.000
585.5470, 5757.000
586.7170, 5840.000
587.8860, 5851.000
589.0550, 5763.000
590.2240, 5876.000
591.3930, 5814.000
592.5620, 5909.000
593.7310, 5887.000
594.8990, 5968.000
596.0670, 6004.000
597.2350, 6108.000
598.4030, 6186.000
599.5710, 6261.000
600.7390, 6440.000
601.9060, 6499.000
603.0740, 6641.000
604.2410, 6847.000
605.4080, 6958.000
606.5740, 6961.000
607.7410, 6790.000
608.9080, 6717.000
610.0740, 6609.000
611.2400, 6537.000
612.4060, 6457.000
613.5720, 6418.719
614.7370, 6401.245
615.9030, 6389.000
617.0680, 6418.000
618.2330, 6451.000
619.3980, 6484.000
620.5630, 6405.000
621.7280, 6353.000
622.8920, 6262.000
624.0570, 6273.000
625.2210, 6227.000
626.3850, 6197.000
627.5490, 6082.000
628.7120, 6068.000
629.8760, 6095.000
631.0390, 6125.000
632.2020, 6110.000
633.3650, 6066.000
634.5280, 6031.000
635.6910, 6034.000
636.8530, 6035.000
638.0160, 6044.000
639.1780, 6067.108
640.3400, 6080.000
641.5020, 6127.000
642.6640, 6174.000
643.8250, 6213.000
644.9870, 6247.000
646.1480, 6135.000
647.3090, 6159.000
648.4700, 6168.000
649.6300, 6122.000
650.7910, 6135.508
651.9510, 6174.000
653.1120, 6147.000
654.2720, 6152.000
655.4320, 6232.000
656.5910, 6206.000
657.7510, 6229.000
658.9100, 6115.000
660.0690, 6167.000
661.2290, 6172.000
662.3880, 6101.000
663.5460, 6282.000
664.7050, 6165.000
665.8630, 6086.000
667.0220, 6174.000
668.1800, 6151.000
669.3380, 6142.000
670.4950, 6111.000
671.6530, 6145.000
672.8100, 6151.000
673.9680, 6134.000
675.1250, 6160.000
676.2820, 6190.000
677.4390, 6151.000
678.5950, 6231.000
679.7520, 6214.000
680.9080, 6248.000
682.0640, 6235.000
683.2200, 6215.000
684.3760, 6223.000
685.5320, 6275.000
686.6870, 6269.000
687.8420, 6193.000
688.9980, 6302.000
690.1530, 6259.000
691.3070, 6319.000
692.4620, 6267.000
693.6170, 6315.000
694.7710, 6288.000
695.9250, 6287.265
697.0790, 6292.000
698.2330, 6287.000
699.3870, 6298.000
700.5400, 6304.000
701.6940, 6288.526
702.8470, 6355.000
704.0000, 6300.000
705.1530, 6261.000
706.3050, 6355.000
707.4580, 6253.000
708.6100, 6471.000
709.7630, 6434.000
710.9150, 6368.000
712.0660, 6298.000
713.2180, 6450.000
714.3700, 6337.000
715.5210, 6386.000
716.6720, 6370.000
717.8240, 6548.000
718.9740, 6519.000
720.1250, 6380.000
721.2760, 6398.000
722.4260, 6596.000
723.5770, 6430.000
724.7270, 6505.000
725.8770, 6464.000
727.0260, 6501.000
728.1760, 6467.000
729.3250, 6478.000
730.4750, 6530.000
731.6240, 6420.000
732.7730, 6563.000
733.9220, 6565.000
735.0700, 6513.000
736.2190, 6628.000
737.3670, 6529.000
738.5150, 6674.000
739.6630, 6606.000
740.8110, 6553.000
741.9590, 6570.000
743.1060, 6597.000
744.2540, 6646.000
745.4010, 6670.000
746.5480, 6642.000
747.6950, 6637.000
748.8410, 6697.000
749.9880, 6635.000
751.1340, 6654.000
752.2800, 6640.000
753.4260, 6623.000
754.5720, 6660.000
755.7180, 6662.680
756.8640, 6665.501
758.0090, 6706.000
759.1540, 6695.000
760.2990, 6703.000
761.4440, 6765.000
762.5890, 6762.000
763.7340, 6694.000
764.8780, 6716.000
766.0220, 6666.000
767.1660, 6821.000
768.3100, 6837.000
769.4540, 6866.000
770.5980, 6870.000
771.7410, 6864.000
772.8840, 6878.000
774.0280, 6863.586
775.1700, 6870.035
776.3130, 6842.000
777.4560, 6868.000
778.5980, 6863.000
779.7410, 6850.000
780.8830, 6799.000
782.0250, 6804.000
783.1670, 6807.832
784.3080, 6801.000
785.4500, 6842.000
786.5910, 6830.000
787.7320, 6837.000
788.8730, 6861.000
790.0140, 6996.000
791.1550, 6948.000
792.2950, 6895.000
793.4360, 7083.000
794.5760, 7035.000
795.7160, 6968.000
796.8560, 6982.000
797.9960, 6963.000
799.1350, 7022.000
800.2750, 7034.000
801.4140, 7125.000
802.5530, 7014.000
803.6920, 6989.000
804.8310, 7023.000
805.9690, 7126.000
807.1080, 7114.000
808.2460, 7108.000
809.3840, 7122.000
810.5220, 7058.000
811.6600, 7162.000
812.7970, 7081.000
813.9350, 7098.000
815.0720, 7142.000
816.2090, 7086.000
817.3460, 7146.000
818.4830, 7163.000
819.6200, 7141.000
820.7560, 7141.000
821.8930, 7195.000
823.0290, 7150.000
824.1650, 7189.000
825.3010, 7193.000
826.4360, 7171.000
827.5720, 7214.000
828.7070, 7230.000
829.8420, 7172.000
830.9770, 7246.000
832.1120, 7297.000
833.2470, 7185.000
834.3820, 7261.000
835.5160, 7289.000
836.6500, 7207.000
837.7840, 7266.000
838.9180, 7348.000
840.0520, 7457.000
841.1860, 7275.000
842.3190, 7348.000
843.4520, 7454.000
844.5850, 7339.000
845.7180, 7395.000
846.8510, 7379.000
847.9840, 7308.000
849.1160, 7366.000
850.2490, 7451.000
851.3810, 7494.000
852.5130, 7543.000
853.6450, 7505.000
854.7760, 7524.000
855.9080, 7530.000
857.0390, 7500.000
858.1700, 7601.000
859.3010, 7558.000
860.4320, 7733.000
861.5630, 7632.000
862.6930, 7569.000
863.8240, 7655.000
864.9540, 7665.000
866.0840, 7652.000
867.2140, 7657.000
868.3440, 7708.000
869.4730, 7657.000
870.6030, 7706.000
871.7320, 7643.000
872.8610, 7549.000
873.9900, 7665.000
875.1190, 7746.000
876.2470, 7716.000
877.3760, 7595.000
878.5040, 7724.000
879.6320, 7766.000
880.7600, 7659.000
881.8880, 7697.000
883.0150, 7653.000
884.1430, 7828.000
885.2700, 7717.000
886.3970, 7769.000
887.5240, 7841.000
888.6510, 7852.000
889.7780, 7690.000
890.9040, 7836.000
892.0310, 7761.000
893.1570, 7750.000
894.2830, 7882.000
895.4090, 7915.000
896.5350, 7944.000
897.6600, 7878.000
898.7860, 7967.000
899.9110, 7763.000
901.0360, 7881.000
902.1610, 7870.000
903.2860, 7921.000
904.4100, 7962.471
905.5350, 7876.000
906.6590, 7980.000
907.7830, 8042.000
908.9070, 7971.000
910.0310, 7960.000
911.1540, 8068.000
912.2780, 8095.000
913.4010, 7970.000
914.5240, 8044.000
915.6470, 8037.000
916.7700, 7938.000
917.8930, 7963.000
919.0150, 8075.000
920.1380, 7978.000
921.2600, 8018.000
922.3820, 8041.000
923.5040, 8039.000
924.6260, 8034.000
925.7470, 8029.000
926.8690, 8029.000
927.9900, 8123.000
929.1110, 8091.000
930.2320, 8074.000
931.3530, 8195.000
932.4730, 8236.000
933.5940, 8141.000
934.7140, 8064.000
935.8340, 8224.000
936.9540, 8207.000
938.0740, 8094.000
939.1930, 8252.000
940.3130, 8253.000
941.4320, 8237.000
942.5510, 8274.000
943.6700, 8328.000
944.7890, 8365.000
945.9080, 8409.000
947.0260, 8374.000
948.1450, 8434.000
949.2630, 8674.000
950.3810, 8494.000
951.4990, 8685.000
952.6170, 8717.000
953.7340, 8733.000
954.8520, 8822.000
955.9690, 8921.729
957.0860, 9107.000
958.2030, 9208.000
959.3200, 9292.000
960.4360, 9478.736
961.5530, 9799.000
962.6690, 9968.000
963.7850, 10312.00
964.9010, 10680.00
966.0170, 11201.00
967.1330, 12108.00
968.2480, 13669.00
969.3630, 14200.00
970.4790, 15857.00
971.5940, 18178.00
972.7080, 21032.00
973.8230, 24422.00
974.9380, 28699.00
976.0520, 32730.00
977.1660, 37429.00
978.2800, 38454.00
979.3940, 38226.00
980.5080, 35734.00
981.6220, 31479.00
982.7350, 26821.00
983.8480, 23011.00
984.9610, 19799.00
986.0740, 17269.00
987.1870, 15346.00
988.3000, 13955.00
989.4120, 12928.00
990.5250, 11975.00
991.6370, 11570.00
992.7490, 11171.00
993.8610, 10797.00
994.9720, 10503.00
996.0840, 10265.00
997.1950, 10053.00
998.3060, 9902.829
999.4170, 9889.000
1000.528, 9714.000
1001.639, 9691.000
1002.750, 9674.000
1003.860, 9584.000
1004.970, 9615.000
1006.080, 9524.351
1007.190, 9468.000
1008.300, 9386.000
1009.410, 9297.000
1010.519, 9231.000
1011.628, 9210.000
1012.738, 9167.000
1013.846, 9097.000
1014.955, 9216.000
1016.064, 9080.000
1017.172, 9134.000
1018.281, 9168.000
1019.389, 8963.000
1020.497, 9235.000
1021.605, 9306.000
1022.713, 9145.000
1023.820, 9121.000
1024.928, 8987.000
1026.035, 9176.000
1027.142, 9058.000
1028.249, 9068.000
1029.356, 9157.000
1030.462, 9128.000
1031.569, 9181.000
1032.675, 9141.000
1033.781, 9080.000
1034.887, 9141.000
1035.993, 9095.000
1037.098, 9133.000
1038.204, 9147.000
1039.309, 9285.000
1040.415, 9124.000
1041.520, 9055.000
1042.624, 9130.000
1043.729, 9232.000
1044.834, 9053.000
1045.938, 9160.000
1047.042, 9159.000
1048.146, 9190.000
1049.250, 9233.000
1050.354, 9221.000
1051.458, 9216.000
1052.561, 9334.000
1053.664, 9326.000
1054.767, 9285.000
1055.870, 9365.000
1056.973, 9374.000
1058.076, 9302.000
1059.178, 9470.000
1060.281, 9408.000
1061.383, 9283.000
1062.485, 9521.000
1063.587, 9504.000
1064.688, 9426.000
1065.790, 9388.000
1066.891, 9389.896
1067.993, 9338.000
1069.094, 9402.000
1070.195, 9406.000
1071.295, 9410.000
1072.396, 9470.000
1073.496, 9436.000
1074.597, 9403.000
1075.697, 9479.000
1076.797, 9496.000
1077.897, 9454.000
1078.996, 9402.000
1080.096, 9485.000
1081.195, 9512.000
1082.294, 9524.000
1083.393, 9551.626
1084.492, 9512.000
1085.591, 9551.000
1086.689, 9538.000
1087.788, 9520.000
1088.886, 9530.000
1089.984, 9481.000
1091.082, 9508.000
1092.180, 9471.000
1093.277, 9473.000
1094.375, 9505.000
1095.472, 9453.000
1096.569, 9472.000
1097.666, 9482.000
1098.763, 9487.000
1099.860, 9380.000
1100.956, 9511.000
1102.053, 9491.000
1103.149, 9692.000
1104.245, 9607.000
1105.341, 9647.000
1106.436, 9556.000
1107.532, 9548.000
1108.627, 9607.579
1109.723, 9671.000
1110.818, 9753.000
1111.913, 9845.000
1113.007, 9863.089
1114.102, 9805.000
1115.197, 9874.000
1116.291, 9863.000
1117.385, 9804.000
1118.479, 9897.000
1119.573, 9968.000
1120.666, 9932.000
1121.760, 10077.00
1122.853, 10057.00
1123.947, 10014.00
1125.040, 10019.00
1126.132, 10036.00
1127.225, 10098.00
1128.318, 10053.00
1129.410, 10148.00
1130.502, 10101.00
1131.595, 10218.00
1132.687, 10108.00
1133.778, 10250.00
1134.870, 10269.00
1135.961, 10317.00
1137.053, 10301.10
1138.144, 10291.00
1139.235, 10244.00
1140.326, 10243.00
1141.416, 10212.23
1142.507, 10184.97
1143.597, 10168.00
1144.688, 10141.00
1145.778, 10126.67
1146.868, 10124.00
1147.957, 10120.59
1149.047, 10118.00
1150.136, 10126.00
1151.226, 10163.00
1152.315, 10152.00
1153.404, 10140.60
1154.493, 10118.00
1155.581, 10065.00
1156.670, 10051.00
1157.758, 9962.000
1158.846, 9966.000
1159.934, 10014.00
1161.022, 9963.000
1162.110, 10155.00
1163.198, 9967.000
1164.285, 10118.00
1165.372, 9933.000
1166.459, 9986.000
1167.546, 10072.00
1168.633, 10163.00
1169.720, 9947.000
1170.806, 10119.00
1171.892, 9945.000
1172.979, 10049.00
1174.065, 10114.00
1175.150, 9859.000
1176.236, 9960.000
1177.322, 9948.000
1178.407, 9985.000
1179.492, 9970.000
1180.577, 9929.000
1181.662, 9863.000
1182.747, 9902.594
1183.832, 9929.000
1184.916, 10007.00
1186.000, 9965.000
1187.084, 10098.00
1188.168, 9862.000
1189.252, 9962.000
1190.336, 9966.000
1191.419, 10062.00
1192.503, 10022.00
1193.586, 10028.00
1194.669, 9967.000
1195.752, 10056.00
1196.835, 10159.00
1197.917, 9935.000
1199.000, 10100.00
1200.082, 10029.00
1201.164, 9877.000
1202.246, 9975.000
1203.328, 9986.000
1204.409, 10023.00
1205.491, 10114.00
1206.572, 10022.00
1207.653, 10125.00
1208.734, 10055.00
1209.815, 10032.00
1210.896, 9999.000
1211.976, 10121.00
1213.057, 10151.00
1214.137, 10170.00
1215.217, 10200.00
1216.297, 10111.00
1217.377, 10189.00
1218.456, 10192.00
1219.536, 10258.00
1220.615, 10140.00
1221.694, 10071.00
1222.773, 10161.00
1223.852, 10159.00
1224.931, 10200.00
1226.009, 10168.00
1227.088, 10217.00
1228.166, 10238.00
1229.244, 10164.00
1230.322, 10244.00
1231.400, 10245.00
1232.477, 10262.00
1233.555, 10272.00
1234.632, 10245.00
1235.709, 10272.00
1236.786, 10202.00
1237.863, 10262.00
1238.939, 10191.00
1240.016, 10358.00
1241.092, 10402.00
1242.168, 10268.00
1243.245, 10293.00
1244.320, 10278.00
1245.396, 10357.00
1246.472, 10305.00
1247.547, 10396.00
1248.622, 10403.00
1249.697, 10418.00
1250.772, 10394.00
1251.847, 10429.85
1252.922, 10355.00
1253.996, 10453.00
1255.071, 10377.00
1256.145, 10315.00
1257.219, 10253.00
1258.293, 10330.00
1259.366, 10509.00
1260.440, 10373.00
1261.513, 10533.00
1262.587, 10443.00
1263.660, 10419.00
1264.733, 10445.00
1265.805, 10440.00
1266.878, 10526.00
1267.951, 10470.00
1269.023, 10478.00
1270.095, 10576.00
1271.167, 10494.00
1272.239, 10546.00
1273.311, 10557.00
1274.382, 10592.00
1275.454, 10510.00
1276.525, 10629.00
1277.596, 10559.00
1278.667, 10701.00
1279.738, 10651.00
1280.808, 10520.00
1281.879, 10635.00
1282.949, 10482.00
1284.019, 10606.00
1285.089, 10412.00
1286.159, 10584.00
1287.229, 10455.00
1288.298, 10448.00
1289.368, 10636.00
1290.437, 10587.00
1291.506, 10700.00
1292.575, 10622.00
1293.644, 10705.00
1294.712, 10696.06
1295.781, 10729.00
1296.849, 10691.00
1297.917, 10687.00
1298.985, 10692.00
1300.053, 10673.00
1301.121, 10651.00
1302.188, 10698.00
1303.255, 10770.00
1304.323, 10619.00
1305.390, 10708.00
1306.457, 10699.00
1307.523, 10792.00
1308.590, 10675.00
1309.656, 10761.00
1310.723, 10918.00
1311.789, 10663.00
1312.855, 10812.00
1313.921, 10775.00
1314.986, 10680.00
1316.052, 10865.00
1317.117, 10825.00
1318.182, 10742.00
1319.248, 10819.00
1320.312, 10889.00
1321.377, 10815.00
1322.442, 10920.00
1323.506, 10937.00
1324.571, 10862.00
1325.635, 10886.00
1326.699, 10863.00
1327.762, 10859.00
1328.826, 10857.00
1329.890, 10790.00
1330.953, 10870.00
1332.016, 10960.00
1333.079, 10841.00
1334.142, 10833.00
1335.205, 10886.00
1336.268, 10946.00
1337.330, 10917.57
1338.392, 10753.00
1339.454, 10864.00
1340.516, 10929.00
1341.578, 10862.00
1342.640, 10964.00
1343.701, 10928.00
1344.763, 10925.00
1345.824, 11084.00
1346.885, 10788.00
1347.946, 10839.00
1349.007, 10845.00
1350.067, 10898.00
1351.128, 10903.00
1352.188, 10956.00
1353.248, 10826.00
1354.308, 11079.00
1355.368, 10896.00
1356.428, 10971.00
1357.487, 11050.00
1358.547, 10874.00
1359.606, 10947.00
1360.665, 11048.00
1361.724, 10967.00
1362.783, 11095.00
1363.841, 10940.00
1364.900, 10993.00
1365.958, 11078.00
1367.016, 11159.00
1368.074, 10983.00
1369.132, 10996.00
1370.190, 11006.00
1371.247, 11224.00
1372.304, 11122.00
1373.362, 11023.00
1374.419, 11205.00
1375.476, 11110.00
1376.532, 11080.00
1377.589, 11079.00
1378.645, 11180.00
1379.702, 11248.00
1380.758, 11257.00
1381.814, 11044.00
1382.870, 11174.00
1383.925, 11108.00
1384.981, 11161.00
1386.036, 11075.00
1387.092, 11281.00
1388.147, 11177.00
1389.202, 11338.00
1390.256, 11218.00
1391.311, 11240.00
1392.365, 11167.00
1393.420, 11182.00
1394.474, 11255.00
1395.528, 11252.00
1396.582, 11333.00
1397.636, 11201.00
1398.689, 11376.00
1399.742, 11168.00
1400.796, 11214.00
1401.849, 11172.00
1402.902, 11329.00
1403.955, 11265.00
1405.007, 11257.00
1406.060, 11149.00
1407.112, 11181.61
1408.164, 11209.20
1409.216, 11254.00
1410.268, 11320.00
1411.320, 11432.00
1412.371, 11457.00
1413.423, 11387.00
1414.474, 11275.00
1415.525, 11333.00
1416.576, 11381.00
1417.627, 11502.00
1418.678, 11335.00
1419.728, 11464.00
1420.778, 11502.00
1421.829, 11347.00
1422.879, 11431.00
1423.928, 11375.00
1424.978, 11555.00
1426.028, 11363.00
1427.077, 11524.00
1428.126, 11562.00
1429.176, 11397.00
1430.225, 11562.00
1431.273, 11544.00
1432.322, 11509.00
1433.371, 11562.00
1434.419, 11553.45
1435.467, 11609.00
1436.515, 11603.00
1437.563, 11625.00
1438.611, 11663.00
1439.658, 11764.00
1440.706, 11706.00
1441.753, 11832.00
1442.800, 11751.00
1443.847, 11669.00
1444.894, 11595.00
1445.941, 11891.00
1446.987, 11841.00
1448.034, 11914.00
1449.080, 11831.00
1450.126, 11804.00
1451.172, 11774.00
1452.218, 11864.00
1453.263, 11735.00
1454.309, 11904.00
1455.354, 11739.00
1456.399, 11889.00
1457.444, 11986.00
1458.489, 11811.00
1459.534, 11967.00
1460.579, 11912.00
1461.623, 11922.00
1462.667, 11984.00
1463.711, 11799.00
1464.755, 11876.00
1465.799, 11839.00
1466.843, 11967.00
1467.886, 11707.00
1468.930, 11985.00
1469.973, 11788.00
1471.016, 11919.00
1472.059, 11908.00
1473.101, 11847.00
1474.144, 11827.00
1475.186, 11710.00
1476.229, 11728.00
1477.271, 11793.00
1478.313, 11854.00
1479.355, 11931.00
1480.396, 11873.00
1481.438, 11809.00
1482.479, 11927.00
1483.520, 12003.00
1484.561, 11809.00
1485.602, 11785.00
1486.643, 11933.00
1487.684, 11931.00
1488.724, 11811.00
1489.765, 11838.00
1490.805, 11753.00
1491.845, 11865.00
1492.885, 11788.00
1493.924, 11914.00
1494.964, 12026.00
1496.003, 11871.00
1497.042, 12072.00
1498.082, 11909.00
1499.120, 11780.00
1500.159, 11958.00
1501.198, 11935.00
1502.236, 11985.00
1503.275, 11891.00
1504.313, 11892.00
1505.351, 11880.00
1506.389, 11939.00
1507.427, 11924.86
1508.464, 11949.00
1509.502, 11925.00
1510.539, 11955.00
1511.576, 11925.00
1512.613, 11834.00
1513.650, 12041.00
1514.687, 11877.00
1515.723, 11981.00
1516.759, 12034.00
1517.796, 11986.00
1518.832, 11955.00
1519.868, 12102.00
1520.903, 11952.00
1521.939, 11983.00
1522.975, 11924.00
1524.010, 12199.00
1525.045, 12204.00
1526.080, 12118.00
1527.115, 11932.00
1528.150, 12027.00
1529.184, 12050.00
1530.219, 12148.00
1531.253, 12037.00
1532.287, 12204.00
1533.321, 12097.00
1534.355, 11987.00
1535.388, 12055.00
1536.422, 12157.00
1537.455, 12137.00
1538.488, 12157.00
1539.522, 12130.00
1540.554, 12133.86
1541.587, 12070.00
1542.620, 12121.00
1543.652, 12147.00
1544.685, 12125.00
1545.717, 12254.00
1546.749, 12211.10
1547.781, 12251.00
1548.812, 12173.00
1549.844, 12231.00
1550.875, 12160.00
1551.906, 12118.00
1552.938, 12119.00
1553.968, 12265.00
1554.999, 12173.00
1556.030, 12374.00
1557.060, 12265.00
1558.091, 12292.00
1559.121, 12097.00
1560.151, 12224.00
1561.181, 12257.00
1562.211, 12185.00
1563.240, 12319.00
1564.270, 12360.00
1565.299, 12309.00
1566.328, 12302.00
1567.357, 12243.00
1568.386, 12161.00
1569.415, 12236.00
1570.443, 12236.00
1571.472, 12411.00
1572.500, 12287.00
1573.528, 12494.00
1574.556, 12455.00
1575.584, 12385.00
1576.611, 12300.00
1577.639, 12386.00
1578.666, 12381.00
1579.693, 12329.00
##END=



