##NAMES=Anglesite
##RRUFFID=R050408
##IDEAL CHEMISTRY=Pb^2+^S^6+^O_4_
##LOCALITY=Tsumeb mine, Tsumeb, Otavi District, Oshikoto, Namibia
##OWNER=RRUFF
##SOURCE=California Institute of Technology
##DESCRIPTION=Pale yellow fragment
##STATUS=The identification of this mineral has been confirmed by X-ray diffraction and chemical analysis
##URL=rruff.info/R050408
##MEASURED CHEMISTRY=Pb_1.00_S_1.00_O_4_
##PIN_ID=L01992
##ORIENTATION=Laser parallel to b* (0 1 0). Fiducial mark perpendicular to laser is parallel to c [0 0 1]
51.43100, 346.0000
52.67100, 348.0000
53.91000, 351.0000
55.14900, 364.0000
56.38700, 363.0000
57.62600, 392.0000
58.86400, 430.0000
60.10300, 438.0000
61.34100, 450.0000
62.57900, 474.0000
63.81700, 466.0000
65.05400, 469.0000
66.29200, 465.0000
67.52900, 476.0000
68.76700, 528.0000
70.00400, 545.8486
71.24100, 631.0000
72.47700, 633.0000
73.71400, 676.0000
74.95100, 740.0000
76.18700, 760.0000
77.42300, 853.0000
78.65900, 896.0000
79.89500, 988.0000
81.13100, 1059.000
82.36700, 1148.000
83.60200, 1202.000
84.83700, 1281.000
86.07200, 1357.000
87.30800, 1421.000
88.54200, 1501.000
89.77700, 1601.000
91.01200, 1650.000
92.24600, 1718.000
93.48000, 1825.000
94.71400, 1917.000
95.94800, 2008.000
97.18200, 2063.000
98.41600, 2068.000
99.64900, 2077.000
100.8830, 2076.000
102.1160, 1967.000
103.3490, 1867.000
104.5820, 1764.000
105.8150, 1740.000
107.0470, 1654.000
108.2800, 1631.000
109.5120, 1633.000
110.7440, 1648.000
111.9760, 1623.000
113.2080, 1668.000
114.4400, 1655.000
115.6710, 1657.000
116.9030, 1772.000
118.1340, 1743.000
119.3650, 1863.000
120.5960, 1965.000
121.8270, 2076.000
123.0580, 2209.000
124.2880, 2386.000
125.5190, 2533.000
126.7490, 2614.000
127.9790, 2723.151
129.2090, 2770.214
130.4390, 2841.000
131.6680, 2819.000
132.8980, 2823.000
134.1270, 2816.000
135.3560, 2836.000
136.5850, 2742.000
137.8140, 2760.000
139.0430, 2594.000
140.2710, 2493.000
141.5000, 2357.000
142.7280, 2238.000
143.9560, 2140.000
145.1840, 2040.000
146.4120, 1953.000
147.6390, 1880.000
148.8670, 1808.000
150.0940, 1790.000
151.3210, 1735.000
152.5490, 1737.000
153.7750, 1678.000
155.0020, 1681.000
156.2290, 1615.000
157.4550, 1594.000
158.6810, 1569.000
159.9080, 1513.000
161.1340, 1519.000
162.3590, 1451.000
163.5850, 1475.000
164.8110, 1461.000
166.0360, 1477.000
167.2610, 1475.000
168.4860, 1505.000
169.7110, 1467.000
170.9360, 1522.000
172.1610, 1528.000
173.3850, 1575.000
174.6100, 1616.000
175.8340, 1636.000
177.0580, 1660.000
178.2820, 1686.000
179.5050, 1706.000
180.7290, 1739.787
181.9520, 1789.000
183.1760, 1808.000
184.3990, 1795.000
185.6220, 1829.000
186.8450, 1807.000
188.0670, 1796.000
189.2900, 1792.000
190.5120, 1736.645
191.7340, 1722.000
192.9560, 1616.000
194.1780, 1601.000
195.4000, 1520.000
196.6220, 1464.000
197.8430, 1392.000
199.0640, 1364.000
200.2860, 1275.000
201.5070, 1230.000
202.7270, 1205.000
203.9480, 1191.000
205.1690, 1155.000
206.3890, 1124.000
207.6090, 1122.000
208.8290, 1052.000
210.0490, 1036.000
211.2690, 994.0000
212.4890, 980.5092
213.7080, 967.6604
214.9280, 976.0000
216.1470, 952.0000
217.3660, 959.0000
218.5850, 950.0000
219.8030, 934.0000
221.0220, 921.0000
222.2400, 900.0000
223.4590, 894.0000
224.6770, 899.0000
225.8950, 866.0000
227.1120, 861.0000
228.3300, 829.0000
229.5480, 821.9579
230.7650, 843.0000
231.9820, 814.0000
233.1990, 829.0000
234.4160, 844.0000
235.6330, 840.0000
236.8490, 803.0000
238.0660, 786.0000
239.2820, 803.0000
240.4980, 772.0000
241.7140, 772.0000
242.9300, 752.0000
244.1460, 752.0000
245.3610, 771.0000
246.5770, 769.0000
247.7920, 737.0000
249.0070, 763.0000
250.2220, 757.0000
251.4370, 727.0000
252.6510, 753.0000
253.8660, 734.0000
255.0800, 715.0000
256.2940, 716.0000
257.5080, 743.0000
258.7220, 712.0000
259.9360, 741.0000
261.1490, 736.0000
262.3630, 733.0000
263.5760, 725.0000
264.7890, 708.0000
266.0020, 719.0000
267.2150, 725.0000
268.4270, 720.0000
269.6400, 701.0000
270.8520, 728.0000
272.0640, 710.0000
273.2760, 705.0000
274.4880, 707.0000
275.7000, 692.0000
276.9120, 710.0000
278.1230, 715.0000
279.3340, 719.0000
280.5450, 721.0500
281.7560, 715.9791
282.9670, 717.0000
284.1780, 699.0000
285.3880, 700.0000
286.5980, 687.0000
287.8090, 693.0000
289.0190, 699.0000
290.2290, 694.0000
291.4380, 708.0000
292.6480, 692.0000
293.8570, 670.0000
295.0670, 682.0000
296.2760, 699.0000
297.4850, 679.0000
298.6930, 655.0000
299.9020, 696.0000
301.1110, 683.0000
302.3190, 683.0000
303.5270, 704.0000
304.7350, 681.0000
305.9430, 671.0000
307.1510, 677.0000
308.3580, 681.0000
309.5660, 675.8112
310.7730, 684.0000
311.9800, 674.0000
313.1870, 674.0000
314.3940, 678.0000
315.6010, 665.0000
316.8070, 668.0000
318.0130, 661.0000
319.2200, 673.0000
320.4260, 666.5813
321.6310, 672.0000
322.8370, 670.0000
324.0430, 663.0000
325.2480, 683.0000
326.4540, 662.0000
327.6590, 660.0000
328.8640, 680.0000
330.0680, 658.0000
331.2730, 672.0000
332.4780, 659.0000
333.6820, 683.0000
334.8860, 694.0000
336.0900, 678.0000
337.2940, 668.0000
338.4980, 678.0000
339.7010, 669.0000
340.9050, 693.0000
342.1080, 655.0000
343.3110, 680.0000
344.5140, 671.0000
345.7170, 659.0000
346.9200, 671.0000
348.1220, 669.0000
349.3240, 635.0000
350.5270, 676.0000
351.7290, 678.0000
352.9310, 640.0000
354.1320, 670.0000
355.3340, 680.0000
356.5350, 657.0000
357.7370, 676.0000
358.9380, 679.0000
360.1390, 652.0000
361.3400, 681.0000
362.5400, 682.0000
363.7410, 676.0000
364.9410, 671.0000
366.1410, 679.0000
367.3410, 660.0000
368.5410, 664.0000
369.7410, 650.0000
370.9400, 678.0000
372.1400, 655.0000
373.3390, 677.0000
374.5380, 695.0000
375.7370, 678.0000
376.9360, 671.0000
378.1350, 681.0000
379.3330, 675.0000
380.5310, 686.0000
381.7300, 689.0000
382.9280, 688.9222
384.1260, 697.0000
385.3230, 696.0000
386.5210, 692.0000
387.7180, 705.0000
388.9160, 690.0000
390.1130, 699.0000
391.3100, 711.0000
392.5060, 734.0000
393.7030, 736.0000
394.9000, 737.0000
396.0960, 739.8798
397.2920, 735.4100
398.4880, 734.0000
399.6840, 727.0000
400.8800, 730.0000
402.0750, 729.0000
403.2710, 756.0000
404.4660, 759.0000
405.6610, 772.0000
406.8560, 795.0000
408.0510, 787.2699
409.2450, 787.0000
410.4400, 782.0000
411.6340, 787.0000
412.8280, 788.0000
414.0220, 802.0000
415.2160, 811.0000
416.4100, 821.0000
417.6030, 845.0000
418.7970, 844.0000
419.9900, 885.0000
421.1830, 899.8167
422.3760, 890.0000
423.5690, 947.0000
424.7610, 998.0000
425.9540, 1022.000
427.1460, 1126.000
428.3380, 1221.000
429.5300, 1378.000
430.7220, 1542.000
431.9140, 1777.000
433.1050, 2036.000
434.2970, 2303.000
435.4880, 2791.000
436.6790, 3380.000
437.8700, 3875.000
439.0610, 4150.000
440.2510, 4012.000
441.4420, 3563.000
442.6320, 3045.000
443.8220, 2674.000
445.0120, 2325.000
446.2020, 2286.000
447.3910, 2354.000
448.5810, 2431.000
449.7700, 2606.000
450.9600, 2672.000
452.1490, 2504.000
453.3370, 2265.000
454.5260, 1971.000
455.7150, 1640.000
456.9030, 1423.000
458.0910, 1252.000
459.2800, 1150.000
460.4670, 1054.000
461.6550, 1000.000
462.8430, 973.0000
464.0300, 964.0000
465.2180, 917.0000
466.4050, 928.0000
467.5920, 877.0000
468.7790, 870.0000
469.9650, 844.0000
471.1520, 849.0000
472.3380, 857.0000
473.5250, 837.0000
474.7110, 835.0000
475.8970, 835.0000
477.0820, 825.0000
478.2680, 832.0000
479.4540, 809.0000
480.6390, 794.0000
481.8240, 817.0000
483.0090, 783.0000
484.1940, 806.0000
485.3780, 784.0000
486.5630, 790.0000
487.7470, 762.0000
488.9320, 813.0000
490.1160, 786.0000
491.3000, 783.0000
492.4830, 777.0000
493.6670, 769.0000
494.8500, 781.0000
496.0340, 751.0000
497.2170, 748.0000
498.4000, 735.0000
499.5820, 752.0000
500.7650, 762.0000
501.9480, 741.0000
503.1300, 738.0000
504.3120, 758.0000
505.4940, 726.0000
506.6760, 735.0000
507.8580, 741.0000
509.0390, 738.0000
510.2210, 752.0000
511.4020, 752.0000
512.5830, 745.0000
513.7640, 743.0000
514.9450, 744.0000
516.1250, 724.0000
517.3060, 743.0000
518.4860, 733.0000
519.6660, 745.0000
520.8460, 735.0000
522.0260, 733.0000
523.2060, 748.0000
524.3850, 729.0000
525.5650, 743.0000
526.7440, 725.0000
527.9230, 736.0000
529.1020, 739.0000
530.2810, 755.0000
531.4590, 742.0000
532.6380, 730.0000
533.8160, 737.0000
534.9940, 738.0000
536.1720, 721.0000
537.3500, 749.0000
538.5270, 710.0000
539.7050, 750.0000
540.8820, 746.0000
542.0590, 717.0000
543.2360, 738.0000
544.4130, 714.0000
545.5900, 731.0000
546.7660, 728.0000
547.9430, 734.0000
549.1190, 740.0000
550.2950, 742.1209
551.4710, 744.0923
552.6470, 750.0000
553.8220, 743.0000
554.9980, 743.0000
556.1730, 740.0000
557.3480, 761.0000
558.5230, 723.0000
559.6980, 760.0000
560.8730, 771.0000
562.0470, 715.0000
563.2220, 736.0000
564.3960, 779.0000
565.5700, 741.0000
566.7440, 756.0000
567.9170, 789.0000
569.0910, 781.0000
570.2640, 769.0000
571.4380, 796.0000
572.6110, 776.0000
573.7840, 795.0000
574.9570, 780.0000
576.1290, 799.0000
577.3020, 778.0000
578.4740, 798.0000
579.6460, 768.0000
580.8180, 815.0000
581.9900, 813.0000
583.1620, 824.0000
584.3330, 816.0000
585.5040, 860.0000
586.6760, 844.0000
587.8470, 878.0000
589.0180, 887.0000
590.1880, 861.0000
591.3590, 925.0000
592.5290, 958.0000
593.7000, 977.0000
594.8700, 1066.000
596.0400, 1178.000
597.2090, 1294.000
598.3790, 1460.000
599.5490, 1647.546
600.7180, 1858.000
601.8870, 2135.000
603.0560, 2451.000
604.2250, 2820.000
605.3940, 3114.000
606.5620, 3130.000
607.7300, 2977.000
608.8990, 2745.000
610.0670, 2363.000
611.2350, 2094.000
612.4020, 1859.000
613.5700, 1735.000
614.7370, 1666.000
615.9050, 1607.000
617.0720, 1643.000
618.2390, 1660.000
619.4060, 1648.000
620.5720, 1565.000
621.7390, 1376.000
622.9050, 1250.000
624.0710, 1109.000
625.2370, 1088.000
626.4030, 1028.000
627.5690, 1001.000
628.7340, 1000.000
629.9000, 1006.000
631.0650, 1035.000
632.2300, 1036.000
633.3950, 1140.000
634.5600, 1204.000
635.7240, 1339.000
636.8890, 1442.000
638.0530, 1580.000
639.2170, 1757.000
640.3810, 1959.000
641.5450, 2172.000
642.7080, 2234.000
643.8720, 2080.000
645.0350, 1909.000
646.1980, 1621.000
647.3610, 1351.000
648.5240, 1200.000
649.6870, 1072.000
650.8490, 1007.000
652.0120, 934.0000
653.1740, 915.0000
654.3360, 892.0000
655.4980, 854.0000
656.6600, 852.0000
657.8210, 839.0000
658.9830, 825.0000
660.1440, 824.0000
661.3050, 842.0000
662.4660, 812.0000
663.6270, 807.0000
664.7870, 838.0000
665.9480, 821.0000
667.1080, 832.0000
668.2680, 804.0000
669.4280, 833.0000
670.5880, 799.0000
671.7480, 806.0000
672.9070, 786.0000
674.0670, 811.0000
675.2260, 804.0000
676.3850, 799.0000
677.5440, 790.0000
678.7030, 801.0000
679.8610, 766.0000
681.0200, 786.0000
682.1780, 797.0000
683.3360, 769.0000
684.4940, 780.0000
685.6520, 791.0000
686.8090, 787.0000
687.9670, 783.0000
689.1240, 792.0000
690.2810, 783.0000
691.4380, 784.0000
692.5950, 765.0000
693.7520, 774.0000
694.9080, 758.0000
696.0650, 792.0000
697.2210, 790.0000
698.3770, 797.0000
699.5330, 782.0000
700.6880, 763.0000
701.8440, 791.0000
702.9990, 765.0000
704.1550, 781.0000
705.3100, 785.0000
706.4650, 781.0000
707.6190, 774.0000
708.7740, 759.0000
709.9290, 787.0000
711.0830, 800.0000
712.2370, 787.0000
713.3910, 796.0000
714.5450, 793.0000
715.6980, 751.0000
716.8520, 790.0000
718.0050, 769.0000
719.1580, 791.0000
720.3110, 783.0000
721.4640, 790.0000
722.6170, 773.0000
723.7700, 788.0000
724.9220, 784.0000
726.0740, 775.0000
727.2260, 782.0000
728.3780, 767.0000
729.5300, 768.2291
730.6810, 784.0000
731.8330, 774.0000
732.9840, 782.0000
734.1350, 785.6315
735.2860, 779.0000
736.4370, 793.0000
737.5880, 799.0000
738.7380, 804.0000
739.8880, 796.0000
741.0390, 780.0000
742.1890, 776.0000
743.3380, 799.0000
744.4880, 787.0000
745.6380, 803.0000
746.7870, 794.0000
747.9360, 825.0000
749.0850, 800.0000
750.2340, 808.0000
751.3830, 791.0000
752.5310, 787.0000
753.6800, 820.0000
754.8280, 816.0000
755.9760, 797.0000
757.1240, 827.0000
758.2720, 804.0000
759.4190, 802.0000
760.5670, 815.0000
761.7140, 787.0000
762.8610, 812.0000
764.0080, 781.0000
765.1550, 809.0000
766.3020, 790.0000
767.4480, 803.0000
768.5950, 811.0000
769.7410, 827.0000
770.8870, 822.0000
772.0330, 795.0000
773.1780, 800.0000
774.3240, 820.0000
775.4690, 810.0000
776.6140, 831.0000
777.7590, 835.0000
778.9040, 801.0000
780.0490, 811.0000
781.1940, 802.0000
782.3380, 798.0000
783.4820, 806.0000
784.6260, 819.0000
785.7700, 821.0000
786.9140, 806.0000
788.0580, 804.0000
789.2010, 823.0000
790.3450, 816.0000
791.4880, 825.0000
792.6310, 804.0000
793.7730, 822.0000
794.9160, 814.0000
796.0590, 786.0000
797.2010, 807.0000
798.3430, 809.0000
799.4850, 828.0000
800.6270, 810.0000
801.7690, 828.0000
802.9100, 830.0000
804.0520, 804.0000
805.1930, 810.0000
806.3340, 815.0000
807.4750, 824.0000
808.6160, 812.0000
809.7560, 804.0000
810.8970, 842.0000
812.0370, 819.0000
813.1770, 830.0000
814.3170, 823.0000
815.4570, 839.0000
816.5960, 841.0000
817.7360, 828.0000
818.8750, 828.0000
820.0140, 824.0000
821.1530, 826.0000
822.2920, 830.0000
823.4310, 832.0000
824.5690, 826.0000
825.7070, 847.0000
826.8460, 837.0000
827.9840, 823.0000
829.1220, 857.0000
830.2590, 841.0000
831.3970, 845.0000
832.5340, 829.0000
833.6710, 851.0000
834.8080, 857.0000
835.9450, 820.0000
837.0820, 857.0000
838.2190, 850.0000
839.3550, 876.0000
840.4910, 829.0000
841.6270, 862.0000
842.7630, 854.0000
843.8990, 832.0000
845.0350, 861.0000
846.1700, 852.0000
847.3060, 873.0000
848.4410, 855.0000
849.5760, 849.0000
850.7100, 864.0000
851.8450, 880.0000
852.9800, 875.0000
854.1140, 885.0000
855.2480, 867.0000
856.3820, 879.0000
857.5160, 872.0000
858.6500, 930.0000
859.7830, 904.0000
860.9170, 932.0000
862.0500, 907.0000
863.1830, 964.0000
864.3160, 937.0000
865.4480, 949.0000
866.5810, 978.0000
867.7130, 922.0000
868.8460, 971.0000
869.9780, 971.0000
871.1100, 967.0000
872.2410, 972.0000
873.3730, 1001.000
874.5050, 949.0000
875.6360, 991.0000
876.7670, 957.0000
877.8980, 971.0000
879.0290, 975.0000
880.1590, 983.0000
881.2900, 981.0000
882.4200, 993.0366
883.5500, 968.0000
884.6800, 1003.000
885.8100, 981.0000
886.9400, 961.0000
888.0690, 975.0000
889.1990, 968.0000
890.3280, 982.0000
891.4570, 1004.000
892.5860, 1012.000
893.7140, 996.0000
894.8430, 982.0000
895.9710, 1018.000
897.1000, 1015.000
898.2280, 979.0000
899.3560, 1016.000
900.4830, 1014.000
901.6110, 998.0000
902.7380, 1032.000
903.8660, 1016.000
904.9930, 1058.000
906.1200, 1028.000
907.2460, 1055.000
908.3730, 1010.000
909.5000, 1042.000
910.6260, 1029.000
911.7520, 1027.000
912.8780, 1053.000
914.0040, 1048.000
915.1290, 1048.000
916.2550, 1060.000
917.3800, 1062.000
918.5050, 1063.000
919.6300, 1071.000
920.7550, 1069.000
921.8800, 1079.000
923.0040, 1096.000
924.1290, 1076.000
925.2530, 1126.000
926.3770, 1129.000
927.5010, 1127.000
928.6250, 1126.000
929.7480, 1147.000
930.8720, 1181.000
931.9950, 1140.000
933.1180, 1155.000
934.2410, 1149.000
935.3640, 1184.000
936.4860, 1169.000
937.6090, 1214.000
938.7310, 1197.000
939.8530, 1262.000
940.9750, 1266.000
942.0970, 1301.000
943.2180, 1323.000
944.3400, 1383.000
945.4610, 1411.000
946.5820, 1485.000
947.7030, 1541.000
948.8240, 1579.000
949.9450, 1694.000
951.0650, 1729.000
952.1860, 1789.000
953.3060, 1894.000
954.4260, 1995.000
955.5460, 2114.000
956.6650, 2267.000
957.7850, 2489.000
958.9040, 2648.000
960.0230, 2892.000
961.1420, 3201.000
962.2610, 3503.000
963.3800, 4081.000
964.4990, 4546.000
965.6170, 5366.000
966.7350, 6315.000
967.8530, 7635.000
968.9710, 9325.000
970.0890, 11780.00
971.2070, 14886.00
972.3240, 18946.00
973.4410, 24264.00
974.5580, 30723.00
975.6750, 37881.00
976.7920, 45815.00
977.9090, 51174.00
979.0250, 52883.00
980.1410, 50022.00
981.2580, 42507.00
982.3740, 34085.00
983.4890, 26208.00
984.6050, 20020.00
985.7200, 15471.00
986.8360, 12481.00
987.9510, 9998.000
989.0660, 8426.000
990.1810, 7205.000
991.2950, 6191.000
992.4100, 5546.000
993.5240, 4936.000
994.6390, 4512.000
995.7530, 4159.000
996.8660, 3861.000
997.9800, 3545.000
999.0940, 3374.000
1000.207, 3071.000
1001.320, 3006.000
1002.433, 2777.000
1003.546, 2683.000
1004.659, 2573.000
1005.772, 2435.000
1006.884, 2360.000
1007.996, 2268.000
1009.108, 2237.000
1010.220, 2139.000
1011.332, 2100.000
1012.444, 2061.000
1013.555, 2007.000
1014.666, 1938.000
1015.777, 1857.000
1016.888, 1880.000
1017.999, 1794.000
1019.110, 1812.000
1020.220, 1704.000
1021.331, 1732.000
1022.441, 1675.000
1023.551, 1686.000
1024.661, 1613.000
1025.770, 1672.000
1026.880, 1597.000
1027.989, 1592.000
1029.098, 1561.000
1030.207, 1554.000
1031.316, 1573.000
1032.425, 1502.000
1033.533, 1509.000
1034.642, 1483.000
1035.750, 1496.000
1036.858, 1453.000
1037.966, 1454.000
1039.073, 1437.000
1040.181, 1420.620
1041.288, 1412.000
1042.396, 1409.000
1043.503, 1427.000
1044.610, 1444.000
1045.716, 1409.000
1046.823, 1438.000
1047.929, 1466.000
1049.036, 1409.000
1050.142, 1429.000
1051.248, 1454.000
1052.353, 1428.000
1053.459, 1440.000
1054.564, 1451.000
1055.670, 1439.000
1056.775, 1420.000
1057.880, 1421.186
1058.985, 1438.000
1060.089, 1412.000
1061.194, 1435.000
1062.298, 1445.000
1063.402, 1428.000
1064.506, 1454.000
1065.610, 1415.000
1066.713, 1442.000
1067.817, 1406.000
1068.920, 1447.000
1070.023, 1449.000
1071.126, 1462.000
1072.229, 1437.000
1073.332, 1484.000
1074.435, 1498.000
1075.537, 1483.000
1076.639, 1508.000
1077.741, 1545.000
1078.843, 1557.000
1079.945, 1532.000
1081.046, 1577.000
1082.148, 1597.000
1083.249, 1571.000
1084.350, 1629.000
1085.451, 1616.000
1086.551, 1649.000
1087.652, 1678.000
1088.752, 1678.000
1089.853, 1638.000
1090.953, 1702.000
1092.053, 1677.000
1093.152, 1613.000
1094.252, 1676.000
1095.351, 1703.000
1096.451, 1707.000
1097.550, 1705.000
1098.649, 1675.000
1099.748, 1702.000
1100.846, 1710.000
1101.945, 1727.000
1103.043, 1782.000
1104.141, 1757.000
1105.239, 1803.000
1106.337, 1771.000
1107.434, 1798.000
1108.532, 1855.000
1109.629, 1855.000
1110.726, 1845.000
1111.823, 1796.000
1112.920, 1877.000
1114.017, 1883.000
1115.113, 1901.000
1116.210, 2019.000
1117.306, 1960.000
1118.402, 2013.000
1119.498, 2049.000
1120.593, 2026.000
1121.689, 2069.000
1122.784, 2076.000
1123.879, 2139.000
1124.974, 2146.000
1126.069, 2204.000
1127.164, 2264.000
1128.259, 2293.000
1129.353, 2352.000
1130.447, 2348.000
1131.541, 2330.000
1132.635, 2407.000
1133.729, 2539.000
1134.822, 2541.000
1135.916, 2684.000
1137.009, 2760.000
1138.102, 2822.000
1139.195, 2881.000
1140.288, 2916.000
1141.380, 3068.000
1142.473, 3118.000
1143.565, 3232.000
1144.657, 3394.000
1145.749, 3527.000
1146.841, 3639.000
1147.932, 3833.000
1149.024, 4118.000
1150.115, 4273.000
1151.206, 4421.000
1152.297, 4687.000
1153.388, 4828.000
1154.479, 5125.000
1155.569, 5142.000
1156.659, 5338.000
1157.750, 5299.000
1158.839, 5246.000
1159.929, 5098.000
1161.019, 4990.000
1162.108, 4784.000
1163.198, 4592.000
1164.287, 4299.000
1165.376, 4070.000
1166.465, 3828.000
1167.553, 3622.000
1168.642, 3431.000
1169.730, 3267.000
1170.818, 3009.000
1171.906, 2899.000
1172.994, 2817.000
1174.082, 2556.000
1175.170, 2593.000
1176.257, 2422.000
1177.344, 2333.000
1178.431, 2262.000
1179.518, 2215.000
1180.605, 2135.000
1181.691, 2100.000
1182.778, 2095.000
1183.864, 1958.000
1184.950, 1894.000
1186.036, 1894.000
1187.122, 1844.000
1188.207, 1791.000
1189.292, 1765.000
1190.378, 1748.000
1191.463, 1782.000
1192.548, 1692.000
1193.632, 1678.000
1194.717, 1613.000
1195.801, 1650.000
1196.886, 1604.000
1197.970, 1615.000
1199.054, 1531.000
1200.137, 1561.000
1201.221, 1523.000
1202.305, 1476.000
1203.388, 1471.000
1204.471, 1451.000
1205.554, 1433.000
1206.637, 1392.000
1207.719, 1410.000
1208.802, 1368.000
1209.884, 1404.000
1210.966, 1344.000
1212.048, 1351.000
1213.130, 1430.000
1214.212, 1399.000
1215.293, 1363.000
1216.374, 1343.000
1217.456, 1353.000
1218.536, 1295.000
1219.617, 1364.000
1220.698, 1341.000
1221.778, 1355.000
1222.859, 1344.000
1223.939, 1312.000
1225.019, 1273.000
1226.099, 1295.000
1227.178, 1277.000
1228.258, 1238.000
1229.337, 1270.000
1230.417, 1260.000
1231.496, 1259.000
1232.574, 1260.000
1233.653, 1234.000
1234.732, 1245.000
1235.810, 1253.000
1236.888, 1261.000
1237.966, 1191.000
1239.044, 1179.000
1240.122, 1205.000
1241.199, 1228.000
1242.277, 1209.000
1243.354, 1182.000
1244.431, 1192.000
1245.508, 1204.000
1246.585, 1194.000
1247.661, 1185.000
1248.738, 1189.221
1249.814, 1180.000
1250.890, 1184.000
1251.966, 1192.000
1253.042, 1183.000
1254.117, 1188.000
1255.193, 1192.000
1256.268, 1176.000
1257.343, 1215.000
1258.418, 1195.000
1259.493, 1163.000
1260.567, 1161.000
1261.642, 1195.000
1262.716, 1123.000
1263.790, 1162.000
1264.864, 1160.000
1265.938, 1129.000
1267.011, 1138.000
1268.085, 1142.000
1269.158, 1119.000
1270.231, 1157.000
1271.304, 1126.000
1272.377, 1136.000
1273.450, 1114.000
1274.522, 1146.000
1275.594, 1121.000
1276.666, 1127.000
1277.738, 1119.000
1278.810, 1133.000
1279.882, 1111.000
1280.953, 1113.000
1282.025, 1091.000
1283.096, 1040.000
1284.167, 1121.000
1285.238, 1093.000
1286.308, 1068.000
1287.379, 1113.000
1288.449, 1098.000
1289.519, 1087.000
1290.589, 1084.000
1291.659, 1082.357
1292.729, 1074.000
1293.798, 1092.000
1294.868, 1083.000
1295.937, 1090.961
1297.006, 1084.000
1298.075, 1072.000
1299.143, 1082.000
1300.212, 1053.000
1301.280, 1030.000
1302.348, 1051.000
1303.416, 1033.000
1304.484, 1029.000
1305.552, 1063.000
1306.620, 1041.000
1307.687, 1068.000
1308.754, 1041.000
1309.821, 1017.000
1310.888, 1053.000
1311.955, 1057.000
1313.021, 1054.000
1314.088, 1018.000
1315.154, 1067.000
1316.220, 1041.000
1317.286, 1015.000
1318.352, 1048.000
1319.417, 1061.000
1320.483, 1063.000
1321.548, 1056.000
1322.613, 1028.000
1323.678, 1030.000
1324.743, 1027.000
1325.807, 1053.000
1326.872, 1029.000
1327.936, 1019.000
1329.000, 1028.000
1330.064, 1004.000
1331.128, 1049.000
1332.191, 1054.000
1333.255, 1019.000
1334.318, 1050.000
1335.381, 1030.000
1336.444, 1030.000
1337.507, 1059.000
1338.569, 1036.000
1339.632, 1067.000
1340.694, 1018.000
1341.756, 1050.000
1342.818, 1025.000
1343.880, 1065.000
1344.941, 1041.000
1346.003, 1037.000
1347.064, 1033.000
1348.125, 1042.000
1349.186, 1030.000
1350.247, 1039.900
1351.308, 1038.000
1352.368, 1058.000
1353.428, 1057.000
1354.489, 1076.000
1355.549, 1033.000
1356.608, 1011.000
1357.668, 1025.000
1358.727, 1048.000
1359.787, 1029.000
1360.846, 994.0000
1361.905, 1076.000
1362.964, 1039.000
1364.022, 1065.000
1365.081, 1038.000
1366.139, 1048.000
1367.197, 1075.000
1368.255, 1013.000
1369.313, 1054.000
1370.371, 1048.000
1371.428, 1030.000
1372.486, 1037.000
1373.543, 1043.000
1374.600, 1070.000
1375.657, 1039.000
1376.713, 1047.000
1377.770, 1062.000
1378.826, 1058.000
1379.882, 1053.000
1380.938, 1084.000
1381.994, 1050.000
1383.050, 1045.000
1384.106, 1040.000
1385.161, 1009.000
1386.216, 1056.000
1387.271, 1071.000
1388.326, 1075.000
1389.381, 1037.000
1390.435, 1059.000
1391.490, 1058.000
1392.544, 1064.000
1393.598, 1064.000
1394.652, 1052.000
1395.705, 1071.000
1396.759, 1089.000
1397.812, 1051.000
1398.866, 1069.000
1399.919, 1045.000
1400.972, 1054.000
1402.024, 1074.000
1403.077, 1092.000
1404.129, 1054.000
1405.181, 1068.000
1406.233, 1048.000
1407.285, 1058.000
1408.337, 1069.000
1409.389, 1064.000
1410.440, 1069.047
1411.491, 1073.112
1412.542, 1067.000
1413.593, 1076.000
1414.644, 1077.000
1415.695, 1069.000
1416.745, 1083.000
1417.795, 1058.000
1418.845, 1045.000
1419.895, 1058.000
1420.945, 1055.000
1421.995, 1045.000
1423.044, 1074.000
1424.093, 1064.000
1425.142, 1110.000
1426.191, 1055.000
1427.240, 1076.000
1428.289, 1092.000
1429.337, 1067.000
1430.385, 1082.000
1431.433, 1098.000
1432.481, 1073.000
1433.529, 1062.000
1434.577, 1101.000
1435.624, 1068.000
1436.672, 1058.000
1437.719, 1071.000
1438.766, 1051.000
1439.812, 1086.000
1440.859, 1082.000
1441.905, 1093.000
1442.952, 1084.000
1443.998, 1070.000
1445.044, 1076.000
1446.090, 1105.000
1447.135, 1061.000
1448.181, 1046.000
1449.226, 1085.000
1450.271, 1063.000
1451.316, 1119.000
1452.361, 1070.000
1453.405, 1067.000
1454.450, 1059.000
1455.494, 1098.000
1456.538, 1074.000
1457.582, 1086.000
1458.626, 1071.000
1459.670, 1083.000
1460.713, 1086.000
1461.757, 1076.000
1462.800, 1073.000
1463.843, 1082.000
1464.886, 1074.716
1465.928, 1042.000
1466.971, 1072.000
1468.013, 1067.000
1469.055, 1064.000
1470.097, 1102.000
1471.139, 1048.000
1472.181, 1096.000
1473.222, 1082.000
1474.263, 1060.000
1475.305, 1085.000
1476.346, 1096.000
1477.386, 1084.000
1478.427, 1100.000
1479.468, 1069.000
1480.508, 1090.000
1481.548, 1088.000
1482.588, 1114.000
1483.628, 1116.000
1484.668, 1108.000
1485.707, 1119.000
1486.747, 1054.000
1487.786, 1108.000
1488.825, 1067.000
1489.864, 1051.000
1490.902, 1113.000
1491.941, 1111.000
1492.979, 1118.000
1494.017, 1106.000
1495.055, 1077.000
1496.093, 1103.000
1497.131, 1093.000
1498.168, 1070.000
1499.206, 1082.000
1500.243, 1080.000
1501.280, 1066.000
1502.317, 1095.000
1503.354, 1105.000
1504.390, 1111.000
1505.426, 1088.000
1506.463, 1085.000
1507.499, 1092.000
1508.535, 1068.000
1509.570, 1083.000
1510.606, 1092.000
1511.641, 1092.000
1512.676, 1112.000
1513.711, 1095.000
1514.746, 1130.000
1515.781, 1126.000
1516.816, 1110.000
1517.850, 1092.000
1518.884, 1096.000
1519.918, 1115.000
1520.952, 1110.000
1521.986, 1101.000
1523.019, 1119.000
1524.053, 1089.000
1525.086, 1131.000
1526.119, 1077.000
1527.152, 1084.000
1528.185, 1114.000
1529.217, 1131.000
1530.250, 1119.000
1531.282, 1102.000
1532.314, 1097.000
1533.346, 1077.000
1534.377, 1107.000
1535.409, 1094.000
1536.440, 1087.000
1537.472, 1087.000
1538.503, 1084.000
1539.534, 1116.000
1540.564, 1103.000
1541.595, 1072.000
1542.625, 1124.000
1543.656, 1125.000
1544.686, 1076.000
1545.716, 1144.000
1546.745, 1094.000
1547.775, 1134.000
1548.804, 1151.000
1549.834, 1126.000
1550.863, 1140.000
1551.892, 1125.000
1552.920, 1122.000
1553.949, 1144.000
1554.977, 1131.000
1556.006, 1082.000
1557.034, 1124.000
1558.062, 1137.000
1559.089, 1153.000
1560.117, 1105.000
1561.144, 1141.000
1562.172, 1158.000
1563.199, 1096.000
1564.226, 1119.000
1565.252, 1169.000
1566.279, 1175.000
1567.305, 1131.000
1568.332, 1172.000
1569.358, 1166.000
1570.384, 1211.000
##END=



