##NAMES=Anglesite
##RRUFFID=R040004
##IDEAL CHEMISTRY=Pb^2+^S^6+^O_4_
##LOCALITY=Erupcion mine, Los Lamentos, Chihuahua, Mexico
##OWNER=RRUFF
##SOURCE=University of Arizona Mineral Museum
##DESCRIPTION=Tan colored tabular crystal
##STATUS=The identification of this mineral has been confirmed by X-ray diffraction and chemical analysis
##URL=rruff.info/R040004
##MEASURED CHEMISTRY=Pb_1.00_S_1.00_O_4_
##PIN_ID=m00050
##ORIENTATION=Laser parallel to b* (0 1 0). Fiducial mark perpendicular to laser is parallel to c [0 0 1]
26.288, 2.869e+003
27.694, 2.811e+003
29.099, 2.760e+003
30.504, 2.729e+003
31.909, 2.834e+003
33.313, 2.836e+003
34.717, 2.870e+003
36.121, 3.058e+003
37.525, 3.281e+003
38.929, 3.445e+003
40.332, 3.507e+003
41.735, 3.621e+003
43.138, 3.885e+003
44.541, 4.365e+003
45.943, 4.666e+003
47.345, 4.700e+003
48.747, 4.961e+003
50.149, 4.980e+003
51.551, 5.359e+003
52.952, 5.593e+003
54.353, 5.974e+003
55.754, 6.281e+003
57.155, 6.682e+003
58.555, 7.173e+003
59.955, 7.765e+003
61.355, 9.083e+003
62.755, 1.144e+004
64.154, 1.256e+004
65.553, 9.467e+003
66.952, 9.292e+003
68.351, 9.325e+003
69.750, 9.673e+003
71.148, 1.017e+004
72.546, 1.268e+004
73.944, 2.448e+004
75.342, 2.110e+004
76.739, 1.116e+004
78.136, 9.399e+003
79.533, 9.147e+003
80.930, 8.969e+003
82.327, 8.763e+003
83.723, 8.823e+003
85.119, 8.576e+003
86.515, 8.463e+003
87.910, 8.335e+003
89.306, 8.325e+003
90.701, 8.465e+003
92.096, 8.305e+003
93.490, 8.375e+003
94.885, 8.214e+003
96.279, 8.100e+003
97.673, 7.975e+003
99.067, 7.833e+003
100.461, 7.693e+003
101.854, 7.565e+003
103.247, 7.491e+003
104.640, 7.269e+003
106.032, 7.277e+003
107.425, 7.198e+003
108.817, 7.087e+003
110.209, 7.196e+003
111.601, 7.673e+003
112.992, 7.728e+003
114.384, 7.064e+003
115.775, 6.916e+003
117.166, 6.793e+003
118.556, 6.665e+003
119.947, 6.583e+003
121.337, 6.537e+003
122.727, 6.536e+003
124.116, 6.494e+003
125.506, 6.446e+003
126.895, 6.374e+003
128.284, 6.467e+003
129.673, 6.337e+003
131.062, 6.262e+003
132.450, 6.316e+003
133.838, 6.219e+003
135.226, 6.217e+003
136.614, 6.206e+003
138.001, 6.126e+003
139.388, 6.106e+003
140.775, 6.002e+003
142.162, 6.082e+003
143.549, 6.028e+003
144.935, 6.209e+003
146.321, 6.231e+003
147.707, 6.360e+003
149.093, 6.487e+003
150.478, 6.588e+003
151.863, 6.695e+003
153.248, 6.694e+003
154.633, 6.819e+003
156.018, 6.664e+003
157.402, 6.532e+003
158.786, 6.531e+003
160.170, 6.395e+003
161.554, 6.288e+003
162.937, 6.186e+003
164.320, 6.228e+003
165.703, 6.120e+003
167.086, 6.126e+003
168.469, 6.078e+003
169.851, 6.052e+003
171.233, 6.087e+003
172.615, 5.936e+003
173.996, 6.031e+003
175.378, 5.985e+003
176.759, 5.903e+003
178.140, 5.986e+003
179.521, 5.917e+003
180.901, 5.977e+003
182.281, 5.894e+003
183.662, 5.942e+003
185.041, 5.851e+003
186.421, 5.872e+003
187.800, 5.923e+003
189.180, 5.849e+003
190.558, 5.952e+003
191.937, 5.800e+003
193.316, 5.917e+003
194.694, 5.908e+003
196.072, 5.907e+003
197.450, 5.926e+003
198.827, 5.840e+003
200.205, 5.915e+003
201.582, 5.821e+003
202.959, 5.890e+003
204.336, 5.894e+003
205.712, 5.874e+003
207.088, 5.980e+003
208.465, 5.864e+003
209.840, 5.884e+003
211.216, 5.713e+003
212.591, 5.768e+003
213.967, 5.824e+003
215.341, 5.727e+003
216.716, 5.858e+003
218.091, 5.792e+003
219.465, 5.876e+003
220.839, 5.742e+003
222.213, 5.770e+003
223.586, 5.911e+003
224.960, 5.712e+003
226.333, 5.798e+003
227.706, 5.756e+003
229.079, 5.833e+003
230.451, 5.830e+003
231.823, 5.764e+003
233.195, 5.864e+003
234.567, 5.741e+003
235.939, 5.808e+003
237.310, 5.761e+003
238.682, 5.857e+003
240.052, 5.867e+003
241.423, 5.822e+003
242.794, 5.947e+003
244.164, 5.736e+003
245.534, 5.852e+003
246.904, 5.747e+003
248.274, 5.880e+003
249.643, 5.882e+003
251.012, 5.788e+003
252.381, 5.837e+003
253.750, 5.824e+003
255.118, 5.906e+003
256.487, 5.841e+003
257.855, 5.877e+003
259.223, 5.834e+003
260.590, 5.885e+003
261.958, 5.941e+003
263.325, 5.882e+003
264.692, 5.920e+003
266.059, 5.873e+003
267.425, 5.935e+003
268.791, 5.942e+003
270.158, 5.842e+003
271.523, 5.924e+003
272.889, 5.808e+003
274.255, 5.913e+003
275.620, 5.843e+003
276.985, 5.934e+003
278.350, 5.889e+003
279.714, 5.832e+003
281.078, 6.016e+003
282.443, 5.878e+003
283.806, 5.889e+003
285.170, 5.872e+003
286.534, 5.768e+003
287.897, 5.889e+003
289.260, 5.791e+003
290.623, 5.967e+003
291.985, 5.775e+003
293.348, 5.882e+003
294.710, 5.878e+003
296.072, 5.827e+003
297.433, 5.879e+003
298.795, 5.835e+003
300.156, 5.913e+003
301.517, 5.922e+003
302.878, 5.828e+003
304.239, 6.008e+003
305.599, 5.880e+003
306.959, 5.985e+003
308.319, 5.990e+003
309.679, 5.898e+003
311.038, 6.013e+003
312.398, 5.760e+003
313.757, 5.960e+003
315.116, 5.905e+003
316.474, 5.986e+003
317.833, 5.994e+003
319.191, 5.983e+003
320.549, 5.969e+003
321.907, 5.956e+003
323.264, 6.051e+003
324.622, 5.990e+003
325.979, 6.068e+003
327.336, 5.952e+003
328.692, 6.017e+003
330.049, 6.097e+003
331.405, 5.967e+003
332.761, 6.054e+003
334.117, 5.952e+003
335.473, 5.993e+003
336.828, 6.054e+003
338.183, 6.012e+003
339.538, 6.129e+003
340.893, 6.069e+003
342.247, 6.115e+003
343.602, 6.081e+003
344.956, 6.075e+003
346.310, 6.217e+003
347.663, 6.040e+003
349.017, 6.168e+003
350.370, 6.110e+003
351.723, 6.099e+003
353.076, 6.187e+003
354.428, 6.130e+003
355.780, 6.220e+003
357.133, 6.121e+003
358.484, 6.181e+003
359.836, 6.129e+003
361.188, 6.050e+003
362.539, 6.219e+003
363.890, 6.065e+003
365.241, 6.153e+003
366.591, 6.182e+003
367.942, 6.132e+003
369.292, 6.159e+003
370.642, 6.070e+003
371.992, 6.215e+003
373.341, 6.083e+003
374.691, 6.157e+003
376.040, 6.153e+003
377.388, 6.073e+003
378.737, 6.240e+003
380.086, 6.130e+003
381.434, 6.256e+003
382.782, 6.264e+003
384.130, 6.240e+003
385.477, 6.371e+003
386.825, 6.302e+003
388.172, 6.374e+003
389.519, 6.382e+003
390.865, 6.426e+003
392.212, 6.428e+003
393.558, 6.382e+003
394.904, 6.513e+003
396.250, 6.433e+003
397.596, 6.523e+003
398.941, 6.478e+003
400.286, 6.469e+003
401.631, 6.551e+003
402.976, 6.398e+003
404.321, 6.576e+003
405.665, 6.542e+003
407.009, 6.489e+003
408.353, 6.520e+003
409.697, 6.601e+003
411.040, 6.666e+003
412.384, 6.592e+003
413.727, 6.652e+003
415.070, 6.664e+003
416.412, 6.705e+003
417.755, 6.822e+003
419.097, 6.797e+003
420.439, 6.925e+003
421.781, 6.943e+003
423.122, 7.082e+003
424.464, 7.239e+003
425.805, 7.314e+003
427.146, 7.832e+003
428.486, 8.085e+003
429.827, 8.840e+003
431.167, 9.749e+003
432.507, 1.136e+004
433.847, 1.438e+004
435.187, 1.903e+004
436.526, 2.584e+004
437.865, 2.991e+004
439.204, 2.810e+004
440.543, 2.247e+004
441.882, 1.649e+004
443.220, 1.285e+004
444.558, 1.057e+004
445.896, 9.220e+003
447.234, 8.644e+003
448.572, 8.019e+003
449.909, 7.920e+003
451.246, 7.652e+003
452.583, 7.520e+003
453.919, 7.372e+003
455.256, 7.309e+003
456.592, 7.292e+003
457.928, 7.206e+003
459.264, 7.228e+003
460.600, 7.104e+003
461.935, 7.067e+003
463.270, 7.147e+003
464.605, 7.040e+003
465.940, 7.053e+003
467.274, 7.023e+003
468.609, 7.010e+003
469.943, 7.072e+003
471.277, 7.044e+003
472.610, 7.105e+003
473.944, 7.000e+003
475.277, 7.086e+003
476.610, 7.135e+003
477.943, 7.027e+003
479.275, 7.196e+003
480.608, 6.927e+003
481.940, 7.119e+003
483.272, 7.102e+003
484.604, 6.884e+003
485.935, 7.095e+003
487.267, 6.971e+003
488.598, 7.013e+003
489.929, 6.946e+003
491.260, 6.963e+003
492.590, 7.016e+003
493.920, 6.983e+003
495.250, 7.024e+003
496.580, 6.988e+003
497.910, 6.914e+003
499.239, 6.993e+003
500.569, 6.909e+003
501.898, 7.143e+003
503.226, 6.952e+003
504.555, 6.996e+003
505.883, 7.079e+003
507.212, 6.993e+003
508.540, 7.145e+003
509.867, 7.014e+003
511.195, 7.105e+003
512.522, 7.177e+003
513.849, 7.037e+003
515.176, 7.083e+003
516.503, 7.117e+003
517.829, 7.203e+003
519.156, 7.087e+003
520.482, 7.207e+003
521.808, 7.206e+003
523.133, 7.108e+003
524.459, 7.181e+003
525.784, 7.058e+003
527.109, 7.168e+003
528.434, 7.140e+003
529.758, 7.067e+003
531.083, 7.257e+003
532.407, 7.165e+003
533.731, 7.139e+003
535.055, 7.241e+003
536.378, 7.172e+003
537.701, 7.307e+003
539.025, 7.095e+003
540.348, 7.212e+003
541.670, 7.244e+003
542.993, 7.096e+003
544.315, 7.310e+003
545.637, 7.145e+003
546.959, 7.254e+003
548.281, 7.254e+003
549.602, 7.177e+003
550.923, 7.190e+003
552.244, 7.232e+003
553.565, 7.329e+003
554.886, 7.290e+003
556.206, 7.263e+003
557.526, 7.332e+003
558.846, 7.227e+003
560.166, 7.311e+003
561.486, 7.182e+003
562.805, 7.234e+003
564.124, 7.285e+003
565.443, 7.331e+003
566.762, 7.392e+003
568.080, 7.381e+003
569.399, 7.467e+003
570.717, 7.537e+003
572.035, 7.454e+003
573.352, 7.481e+003
574.670, 7.378e+003
575.987, 7.616e+003
577.304, 7.493e+003
578.621, 7.489e+003
579.938, 7.611e+003
581.254, 7.557e+003
582.570, 7.675e+003
583.886, 7.744e+003
585.202, 7.652e+003
586.518, 7.801e+003
587.833, 7.680e+003
589.148, 7.862e+003
590.463, 7.892e+003
591.778, 7.892e+003
593.093, 8.005e+003
594.407, 8.048e+003
595.721, 8.183e+003
597.035, 8.289e+003
598.349, 8.526e+003
599.662, 8.939e+003
600.976, 9.216e+003
602.289, 9.921e+003
603.602, 1.046e+004
604.914, 1.074e+004
606.227, 1.036e+004
607.539, 9.840e+003
608.851, 9.340e+003
610.163, 8.845e+003
611.475, 8.556e+003
612.786, 8.416e+003
614.097, 8.285e+003
615.408, 8.267e+003
616.719, 8.146e+003
618.030, 8.330e+003
619.340, 8.337e+003
620.651, 8.273e+003
621.961, 8.424e+003
623.270, 8.626e+003
624.580, 8.512e+003
625.889, 8.667e+003
627.199, 8.674e+003
628.507, 8.585e+003
629.816, 8.515e+003
631.125, 8.398e+003
632.433, 8.322e+003
633.741, 8.230e+003
635.049, 8.244e+003
636.357, 8.132e+003
637.664, 8.159e+003
638.972, 8.268e+003
640.279, 8.190e+003
641.586, 8.331e+003
642.893, 8.308e+003
644.199, 8.481e+003
645.505, 8.445e+003
646.811, 8.450e+003
648.117, 8.529e+003
649.423, 8.504e+003
650.728, 8.479e+003
652.034, 8.498e+003
653.339, 8.522e+003
654.644, 8.451e+003
655.948, 8.432e+003
657.253, 8.353e+003
658.557, 8.287e+003
659.861, 8.279e+003
661.165, 8.208e+003
662.468, 8.185e+003
663.772, 8.176e+003
665.075, 8.200e+003
666.378, 8.064e+003
667.681, 8.119e+003
668.983, 8.107e+003
670.286, 8.208e+003
671.588, 8.094e+003
672.890, 8.169e+003
674.192, 8.139e+003
675.493, 8.106e+003
676.795, 8.126e+003
678.096, 8.075e+003
679.397, 8.134e+003
680.697, 8.132e+003
681.998, 8.006e+003
683.298, 8.216e+003
684.598, 8.179e+003
685.898, 7.980e+003
687.198, 8.254e+003
688.498, 8.117e+003
689.797, 8.107e+003
691.096, 8.235e+003
692.395, 8.124e+003
693.694, 8.249e+003
694.992, 8.070e+003
696.290, 8.296e+003
697.589, 8.168e+003
698.886, 8.216e+003
700.184, 8.325e+003
701.482, 8.261e+003
702.779, 8.288e+003
704.076, 8.309e+003
705.373, 8.173e+003
706.669, 8.295e+003
707.966, 8.316e+003
709.262, 8.170e+003
710.558, 8.216e+003
711.854, 8.273e+003
713.150, 8.240e+003
714.445, 8.287e+003
715.740, 8.295e+003
717.035, 8.305e+003
718.330, 8.364e+003
719.625, 8.443e+003
720.919, 8.375e+003
722.214, 8.503e+003
723.508, 8.441e+003
724.801, 8.402e+003
726.095, 8.470e+003
727.388, 8.391e+003
728.682, 8.484e+003
729.975, 8.533e+003
731.267, 8.512e+003
732.560, 8.503e+003
733.852, 8.537e+003
735.145, 8.526e+003
736.437, 8.628e+003
737.728, 8.527e+003
739.020, 8.639e+003
740.311, 8.667e+003
741.603, 8.578e+003
742.894, 8.728e+003
744.184, 8.587e+003
745.475, 8.715e+003
746.765, 8.683e+003
748.055, 8.716e+003
749.345, 8.759e+003
750.635, 8.811e+003
751.925, 8.763e+003
753.214, 8.742e+003
754.503, 8.726e+003
755.792, 8.701e+003
757.081, 8.720e+003
758.370, 8.840e+003
759.658, 8.729e+003
760.946, 8.762e+003
762.234, 8.817e+003
763.522, 8.739e+003
764.809, 8.879e+003
766.097, 8.935e+003
767.384, 8.830e+003
768.671, 8.941e+003
769.958, 8.775e+003
771.244, 8.914e+003
772.530, 8.944e+003
773.817, 8.904e+003
775.102, 9.019e+003
776.388, 8.942e+003
777.674, 8.983e+003
778.959, 8.936e+003
780.244, 8.920e+003
781.529, 9.059e+003
782.814, 8.894e+003
784.098, 8.785e+003
785.383, 8.878e+003
786.667, 8.660e+003
787.951, 8.841e+003
789.235, 8.855e+003
790.518, 9.029e+003
791.801, 9.105e+003
793.084, 9.104e+003
794.367, 9.072e+003
795.650, 9.133e+003
796.933, 9.198e+003
798.215, 9.190e+003
799.497, 9.254e+003
800.779, 9.174e+003
802.061, 9.137e+003
803.342, 9.281e+003
804.624, 9.244e+003
805.905, 9.171e+003
807.186, 9.330e+003
808.466, 9.243e+003
809.747, 9.321e+003
811.027, 9.436e+003
812.307, 9.242e+003
813.587, 9.463e+003
814.867, 9.249e+003
816.146, 9.311e+003
817.426, 9.492e+003
818.705, 9.342e+003
819.984, 9.318e+003
821.263, 9.359e+003
822.541, 9.370e+003
823.819, 9.490e+003
825.098, 9.471e+003
826.375, 9.419e+003
827.653, 9.407e+003
828.931, 9.416e+003
830.208, 9.552e+003
831.485, 9.489e+003
832.762, 9.509e+003
834.039, 9.512e+003
835.315, 9.452e+003
836.592, 9.611e+003
837.868, 9.518e+003
839.144, 9.692e+003
840.420, 9.634e+003
841.695, 9.648e+003
842.970, 9.945e+003
844.246, 9.788e+003
845.521, 9.915e+003
846.795, 9.946e+003
848.070, 9.926e+003
849.344, 1.011e+004
850.618, 9.973e+003
851.892, 1.011e+004
853.166, 1.015e+004
854.440, 1.011e+004
855.713, 1.020e+004
856.986, 1.035e+004
858.259, 1.044e+004
859.532, 1.059e+004
860.804, 1.048e+004
862.077, 1.065e+004
863.349, 1.038e+004
864.621, 1.042e+004
865.893, 1.030e+004
867.164, 1.028e+004
868.436, 1.026e+004
869.707, 1.017e+004
870.978, 1.021e+004
872.248, 1.024e+004
873.519, 1.010e+004
874.789, 1.021e+004
876.060, 1.026e+004
877.330, 1.013e+004
878.599, 1.035e+004
879.869, 1.028e+004
881.138, 1.026e+004
882.408, 1.045e+004
883.677, 1.029e+004
884.945, 1.037e+004
886.214, 1.028e+004
887.482, 1.041e+004
888.751, 1.049e+004
890.019, 1.033e+004
891.287, 1.052e+004
892.554, 1.054e+004
893.822, 1.039e+004
895.089, 1.047e+004
896.356, 1.048e+004
897.623, 1.054e+004
898.889, 1.046e+004
900.156, 1.050e+004
901.422, 1.065e+004
902.688, 1.052e+004
903.954, 1.066e+004
905.220, 1.058e+004
906.485, 1.052e+004
907.750, 1.072e+004
909.015, 1.056e+004
910.280, 1.065e+004
911.545, 1.077e+004
912.809, 1.069e+004
914.074, 1.081e+004
915.338, 1.067e+004
916.602, 1.058e+004
917.865, 1.078e+004
919.129, 1.058e+004
920.392, 1.069e+004
921.655, 1.067e+004
922.918, 1.053e+004
924.181, 1.065e+004
925.443, 1.074e+004
926.706, 1.070e+004
927.968, 1.066e+004
929.230, 1.067e+004
930.491, 1.076e+004
931.753, 1.082e+004
933.014, 1.079e+004
934.276, 1.088e+004
935.536, 1.083e+004
936.797, 1.095e+004
938.058, 1.077e+004
939.318, 1.082e+004
940.578, 1.108e+004
941.838, 1.095e+004
943.098, 1.105e+004
944.358, 1.100e+004
945.617, 1.113e+004
946.876, 1.138e+004
948.135, 1.136e+004
949.394, 1.148e+004
950.653, 1.156e+004
951.911, 1.157e+004
953.169, 1.184e+004
954.427, 1.192e+004
955.685, 1.213e+004
956.943, 1.228e+004
958.200, 1.256e+004
959.458, 1.279e+004
960.715, 1.311e+004
961.971, 1.344e+004
963.228, 1.412e+004
964.485, 1.478e+004
965.741, 1.576e+004
966.997, 1.705e+004
968.253, 1.899e+004
969.508, 2.124e+004
970.764, 2.525e+004
972.019, 3.110e+004
973.274, 3.918e+004
974.529, 5.095e+004
975.784, 6.257e+004
977.039, 6.554e+004
978.293, 6.554e+004
979.547, 5.732e+004
980.801, 4.531e+004
982.055, 3.626e+004
983.308, 2.981e+004
984.562, 2.537e+004
985.815, 2.241e+004
987.068, 2.024e+004
988.321, 1.879e+004
989.573, 1.755e+004
990.826, 1.671e+004
992.078, 1.597e+004
993.330, 1.544e+004
994.582, 1.496e+004
995.833, 1.455e+004
997.085, 1.439e+004
998.336, 1.429e+004
999.587, 1.415e+004
1000.838, 1.414e+004
1002.088, 1.409e+004
1003.339, 1.387e+004
1004.589, 1.369e+004
1005.839, 1.352e+004
1007.089, 1.322e+004
1008.339, 1.289e+004
1009.588, 1.282e+004
1010.838, 1.266e+004
1012.087, 1.273e+004
1013.336, 1.262e+004
1014.584, 1.246e+004
1015.833, 1.258e+004
1017.081, 1.257e+004
1018.330, 1.254e+004
1019.577, 1.252e+004
1020.825, 1.261e+004
1022.073, 1.272e+004
1023.320, 1.266e+004
1024.567, 1.281e+004
1025.814, 1.263e+004
1027.061, 1.278e+004
1028.308, 1.272e+004
1029.554, 1.261e+004
1030.800, 1.267e+004
1032.046, 1.279e+004
1033.292, 1.269e+004
1034.538, 1.295e+004
1035.783, 1.264e+004
1037.029, 1.283e+004
1038.274, 1.285e+004
1039.519, 1.307e+004
1040.763, 1.310e+004
1042.008, 1.314e+004
1043.252, 1.336e+004
1044.496, 1.355e+004
1045.740, 1.373e+004
1046.984, 1.410e+004
1048.228, 1.429e+004
1049.471, 1.447e+004
1050.714, 1.486e+004
1051.957, 1.494e+004
1053.200, 1.531e+004
1054.442, 1.552e+004
1055.685, 1.585e+004
1056.927, 1.617e+004
1058.169, 1.601e+004
1059.411, 1.621e+004
1060.652, 1.598e+004
1061.894, 1.598e+004
1063.135, 1.586e+004
1064.376, 1.561e+004
1065.617, 1.526e+004
1066.858, 1.502e+004
1068.098, 1.468e+004
1069.339, 1.462e+004
1070.579, 1.420e+004
1071.819, 1.415e+004
1073.058, 1.391e+004
1074.298, 1.376e+004
1075.537, 1.364e+004
1076.776, 1.351e+004
1078.015, 1.345e+004
1079.254, 1.345e+004
1080.493, 1.334e+004
1081.731, 1.324e+004
1082.969, 1.335e+004
1084.207, 1.320e+004
1085.445, 1.298e+004
1086.683, 1.306e+004
1087.920, 1.285e+004
1089.157, 1.296e+004
1090.394, 1.288e+004
1091.631, 1.273e+004
1092.868, 1.275e+004
1094.105, 1.262e+004
1095.341, 1.258e+004
1096.577, 1.271e+004
1097.813, 1.277e+004
1099.049, 1.243e+004
1100.284, 1.235e+004
1101.519, 1.249e+004
1102.755, 1.233e+004
1103.990, 1.240e+004
1105.224, 1.244e+004
1106.459, 1.249e+004
1107.693, 1.232e+004
1108.928, 1.236e+004
1110.162, 1.243e+004
1111.395, 1.228e+004
1112.629, 1.239e+004
1113.863, 1.241e+004
1115.096, 1.225e+004
1116.329, 1.230e+004
1117.562, 1.243e+004
1118.795, 1.241e+004
1120.027, 1.236e+004
1121.259, 1.235e+004
1122.492, 1.251e+004
1123.723, 1.241e+004
1124.955, 1.227e+004
1126.187, 1.229e+004
1127.418, 1.231e+004
1128.649, 1.227e+004
1129.880, 1.223e+004
1131.111, 1.218e+004
1132.342, 1.246e+004
1133.572, 1.231e+004
1134.802, 1.234e+004
1136.033, 1.242e+004
1137.262, 1.229e+004
1138.492, 1.235e+004
1139.722, 1.224e+004
1140.951, 1.222e+004
1142.180, 1.218e+004
1143.409, 1.239e+004
1144.638, 1.230e+004
1145.866, 1.227e+004
1147.095, 1.221e+004
1148.323, 1.230e+004
1149.551, 1.228e+004
1150.779, 1.242e+004
1152.006, 1.249e+004
1153.234, 1.243e+004
1154.461, 1.234e+004
1155.688, 1.247e+004
1156.915, 1.226e+004
1158.141, 1.242e+004
1159.368, 1.245e+004
1160.594, 1.248e+004
1161.820, 1.261e+004
1163.046, 1.243e+004
1164.272, 1.242e+004
1165.498, 1.259e+004
1166.723, 1.253e+004
1167.948, 1.247e+004
1169.173, 1.254e+004
1170.398, 1.244e+004
1171.623, 1.248e+004
1172.847, 1.256e+004
1174.071, 1.255e+004
1175.295, 1.250e+004
1176.519, 1.255e+004
1177.743, 1.265e+004
1178.966, 1.255e+004
1180.190, 1.255e+004
1181.413, 1.275e+004
1182.636, 1.256e+004
1183.858, 1.280e+004
1185.081, 1.258e+004
1186.303, 1.251e+004
1187.526, 1.270e+004
1188.748, 1.258e+004
1189.969, 1.259e+004
1191.191, 1.249e+004
1192.412, 1.236e+004
1193.634, 1.260e+004
1194.855, 1.257e+004
1196.076, 1.248e+004
1197.296, 1.273e+004
1198.517, 1.262e+004
1199.737, 1.264e+004
1200.957, 1.277e+004
1202.177, 1.262e+004
1203.397, 1.269e+004
1204.617, 1.265e+004
1205.836, 1.260e+004
1207.055, 1.269e+004
1208.274, 1.268e+004
1209.493, 1.257e+004
1210.712, 1.280e+004
1211.930, 1.275e+004
1213.148, 1.283e+004
1214.367, 1.282e+004
1215.584, 1.266e+004
1216.802, 1.308e+004
1218.020, 1.285e+004
1219.237, 1.277e+004
1220.454, 1.280e+004
1221.671, 1.278e+004
1222.888, 1.282e+004
1224.105, 1.274e+004
1225.321, 1.276e+004
1226.537, 1.284e+004
1227.753, 1.267e+004
1228.969, 1.279e+004
1230.185, 1.285e+004
1231.400, 1.285e+004
1232.616, 1.283e+004
1233.831, 1.298e+004
1235.046, 1.291e+004
1236.261, 1.310e+004
1237.475, 1.301e+004
1238.689, 1.303e+004
1239.904, 1.314e+004
1241.118, 1.295e+004
1242.332, 1.302e+004
1243.545, 1.307e+004
1244.759, 1.299e+004
1245.972, 1.307e+004
1247.185, 1.311e+004
1248.398, 1.312e+004
1249.611, 1.330e+004
1250.823, 1.311e+004
1252.036, 1.314e+004
1253.248, 1.318e+004
1254.460, 1.305e+004
1255.671, 1.332e+004
1256.883, 1.299e+004
1258.095, 1.312e+004
1259.306, 1.322e+004
1260.517, 1.316e+004
1261.728, 1.315e+004
1262.938, 1.322e+004
1264.149, 1.313e+004
1265.359, 1.333e+004
1266.569, 1.338e+004
1267.779, 1.326e+004
1268.989, 1.323e+004
1270.199, 1.335e+004
1271.408, 1.344e+004
1272.617, 1.347e+004
1273.826, 1.353e+004
1275.035, 1.356e+004
1276.244, 1.362e+004
1277.452, 1.352e+004
1278.661, 1.340e+004
1279.869, 1.338e+004
1281.077, 1.350e+004
1282.285, 1.348e+004
1283.492, 1.332e+004
1284.700, 1.335e+004
1285.907, 1.329e+004
1287.114, 1.329e+004
1288.321, 1.325e+004
1289.527, 1.331e+004
1290.734, 1.322e+004
1291.940, 1.339e+004
1293.146, 1.347e+004
1294.352, 1.355e+004
1295.558, 1.354e+004
1296.763, 1.336e+004
1297.969, 1.359e+004
1299.174, 1.346e+004
1300.379, 1.342e+004
1301.584, 1.351e+004
1302.788, 1.345e+004
1303.993, 1.354e+004
1305.197, 1.376e+004
1306.401, 1.353e+004
1307.605, 1.369e+004
1308.809, 1.359e+004
1310.013, 1.370e+004
1311.216, 1.367e+004
1312.419, 1.376e+004
1313.622, 1.361e+004
1314.825, 1.393e+004
1316.028, 1.392e+004
1317.230, 1.377e+004
1318.432, 1.392e+004
1319.634, 1.388e+004
1320.836, 1.402e+004
1322.038, 1.392e+004
1323.240, 1.376e+004
1324.441, 1.382e+004
1325.642, 1.376e+004
1326.843, 1.364e+004
1328.044, 1.378e+004
1329.245, 1.372e+004
1330.445, 1.381e+004
1331.645, 1.382e+004
1332.845, 1.379e+004
1334.045, 1.369e+004
1335.245, 1.381e+004
1336.445, 1.386e+004
1337.644, 1.396e+004
1338.843, 1.376e+004
1340.042, 1.367e+004
1341.241, 1.382e+004
1342.440, 1.354e+004
1343.638, 1.376e+004
1344.836, 1.373e+004
1346.034, 1.378e+004
1347.232, 1.399e+004
1348.430, 1.380e+004
1349.628, 1.386e+004
1350.825, 1.391e+004
1352.022, 1.368e+004
1353.219, 1.377e+004
1354.416, 1.378e+004
1355.613, 1.391e+004
1356.809, 1.398e+004
1358.005, 1.398e+004
1359.202, 1.381e+004
1360.398, 1.406e+004
1361.593, 1.401e+004
1362.789, 1.409e+004
1363.984, 1.406e+004
1365.179, 1.408e+004
1366.374, 1.406e+004
1367.569, 1.394e+004
1368.764, 1.415e+004
1369.958, 1.430e+004
1371.153, 1.407e+004
1372.347, 1.412e+004
1373.541, 1.408e+004
1374.735, 1.406e+004
1375.928, 1.412e+004
1377.122, 1.415e+004
1378.315, 1.409e+004
1379.508, 1.423e+004
1380.701, 1.429e+004
1381.893, 1.426e+004
1383.086, 1.447e+004
1384.278, 1.443e+004
1385.470, 1.455e+004
1386.662, 1.440e+004
1387.854, 1.432e+004
1389.046, 1.452e+004
1390.237, 1.457e+004
1391.428, 1.450e+004
1392.619, 1.448e+004
1393.810, 1.444e+004
1395.001, 1.441e+004
1396.191, 1.451e+004
1397.382, 1.446e+004
1398.572, 1.438e+004
1399.762, 1.441e+004
1400.952, 1.449e+004
1402.141, 1.447e+004
1403.331, 1.439e+004
1404.520, 1.458e+004
1405.709, 1.453e+004
1406.898, 1.457e+004
1408.087, 1.441e+004
1409.275, 1.456e+004
1410.464, 1.448e+004
1411.652, 1.454e+004
1412.840, 1.480e+004
1414.028, 1.477e+004
1415.215, 1.473e+004
1416.403, 1.470e+004
1417.590, 1.461e+004
1418.777, 1.478e+004
1419.964, 1.484e+004
1421.151, 1.465e+004
1422.338, 1.488e+004
1423.524, 1.482e+004
1424.710, 1.487e+004
1425.896, 1.496e+004
1427.082, 1.488e+004
1428.268, 1.513e+004
1429.453, 1.509e+004
1430.639, 1.504e+004
1431.824, 1.519e+004
1433.009, 1.525e+004
1434.194, 1.520e+004
1435.378, 1.541e+004
1436.563, 1.539e+004
1437.747, 1.538e+004
1438.931, 1.562e+004
1440.115, 1.573e+004
1441.299, 1.580e+004
1442.482, 1.592e+004
1443.666, 1.607e+004
1444.849, 1.605e+004
1446.032, 1.623e+004
1447.215, 1.607e+004
1448.397, 1.638e+004
1449.580, 1.615e+004
1450.762, 1.640e+004
1451.944, 1.652e+004
1453.126, 1.646e+004
1454.308, 1.642e+004
1455.490, 1.658e+004
1456.671, 1.652e+004
1457.852, 1.648e+004
1459.033, 1.653e+004
1460.214, 1.646e+004
1461.395, 1.642e+004
1462.575, 1.624e+004
1463.756, 1.627e+004
1464.936, 1.632e+004
1466.116, 1.613e+004
1467.296, 1.580e+004
1468.475, 1.613e+004
1469.655, 1.582e+004
1470.834, 1.599e+004
1472.013, 1.591e+004
1473.192, 1.573e+004
1474.371, 1.581e+004
1475.550, 1.589e+004
1476.728, 1.558e+004
1477.906, 1.598e+004
1479.084, 1.567e+004
1480.262, 1.581e+004
1481.440, 1.587e+004
1482.617, 1.580e+004
1483.795, 1.577e+004
1484.972, 1.580e+004
1486.149, 1.561e+004
1487.326, 1.578e+004
1488.502, 1.584e+004
1489.679, 1.565e+004
1490.855, 1.571e+004
1492.031, 1.571e+004
1493.207, 1.542e+004
1494.383, 1.587e+004
1495.559, 1.553e+004
1496.734, 1.542e+004
1497.909, 1.569e+004
1499.084, 1.543e+004
1500.259, 1.555e+004
1501.434, 1.561e+004
1502.608, 1.554e+004
1503.783, 1.625e+004
1504.957, 1.960e+002
##END=



