##NAMES=Anglesite
##RRUFFID=R040004
##IDEAL CHEMISTRY=Pb^2+^S^6+^O_4_
##LOCALITY=Erupcion mine, Los Lamentos, Chihuahua, Mexico
##OWNER=RRUFF
##SOURCE=University of Arizona Mineral Museum
##DESCRIPTION=Tan colored tabular crystal
##STATUS=The identification of this mineral has been confirmed by X-ray diffraction and chemical analysis
##URL=rruff.info/R040004
##MEASURED CHEMISTRY=Pb_1.00_S_1.00_O_4_
##PIN_ID=M00020
##ORIENTATION=Laser parallel to a* (1 0 0). Fiducial mark perpendicular to laser is parallel to b [0 1 0]
63.41100, 214.0000
64.65300, 258.0000
65.89600, 332.0000
67.13800, 367.0000
68.38000, 462.0000
69.62200, 549.0000
70.86300, 664.0000
72.10500, 827.0000
73.34600, 961.0000
74.58700, 1174.000
75.82800, 1432.000
77.06900, 1668.000
78.30900, 1924.000
79.55000, 2135.000
80.79000, 2431.000
82.03000, 2677.000
83.27000, 2908.000
84.51000, 3195.000
85.74900, 3492.000
86.98900, 3858.000
88.22800, 4190.000
89.46700, 4466.000
90.70600, 4864.000
91.94400, 5309.000
93.18300, 5600.000
94.42100, 6017.000
95.65900, 6302.000
96.89700, 6632.000
98.13500, 6749.000
99.37300, 6865.000
100.6100, 6944.000
101.8480, 6848.000
103.0850, 6742.000
104.3220, 6696.347
105.5590, 6448.000
106.7950, 6502.000
108.0320, 6252.000
109.2680, 6160.000
110.5040, 6083.000
111.7400, 6013.000
112.9760, 6039.000
114.2120, 5970.000
115.4470, 6135.000
116.6820, 6156.000
117.9170, 6216.000
119.1520, 6138.000
120.3870, 6152.000
121.6220, 6356.000
122.8560, 6473.000
124.0900, 6313.000
125.3240, 6490.000
126.5580, 6469.000
127.7920, 6651.000
129.0260, 6673.000
130.2590, 6766.000
131.4920, 7009.000
132.7250, 7139.000
133.9580, 7169.000
135.1910, 7345.000
136.4230, 7293.000
137.6560, 7170.000
138.8880, 7232.000
140.1200, 7146.000
141.3520, 7044.000
142.5830, 7080.000
143.8150, 6926.000
145.0460, 7048.000
146.2770, 7064.000
147.5080, 7087.000
148.7390, 7085.000
149.9700, 7070.000
151.2000, 7143.000
152.4310, 7257.000
153.6610, 7089.000
154.8910, 7023.000
156.1210, 7034.000
157.3500, 6866.000
158.5800, 6640.000
159.8090, 6621.000
161.0380, 6512.000
162.2670, 6435.000
163.4960, 6155.000
164.7240, 6113.000
165.9530, 6052.000
167.1810, 5960.000
168.4090, 5897.000
169.6370, 5853.000
170.8650, 5810.784
172.0920, 5776.000
173.3200, 5779.000
174.5470, 5791.000
175.7740, 5808.000
177.0010, 5797.921
178.2280, 5769.000
179.4540, 5765.000
180.6810, 5742.172
181.9070, 5725.000
183.1330, 5713.000
184.3590, 5708.000
185.5850, 5714.000
186.8100, 5767.000
188.0350, 5687.000
189.2610, 5615.000
190.4860, 5680.000
191.7110, 5602.000
192.9350, 5661.000
194.1600, 5731.000
195.3840, 5708.000
196.6080, 5565.000
197.8320, 5645.000
199.0560, 5644.000
200.2800, 5661.000
201.5030, 5710.000
202.7270, 5667.000
203.9500, 5705.000
205.1730, 5772.000
206.3950, 5717.000
207.6180, 5740.000
208.8410, 5726.000
210.0630, 5728.000
211.2850, 5737.000
212.5070, 5699.000
213.7290, 5635.000
214.9500, 5666.000
216.1720, 5720.000
217.3930, 5741.000
218.6140, 5687.000
219.8350, 5669.000
221.0560, 5616.000
222.2770, 5643.000
223.4970, 5620.000
224.7170, 5588.000
225.9370, 5629.000
227.1570, 5671.000
228.3770, 5664.000
229.5970, 5688.000
230.8160, 5658.000
232.0350, 5657.000
233.2540, 5576.000
234.4730, 5666.000
235.6920, 5625.000
236.9110, 5745.000
238.1290, 5679.000
239.3470, 5629.000
240.5650, 5694.000
241.7830, 5676.000
243.0010, 5629.000
244.2180, 5562.000
245.4360, 5667.000
246.6530, 5628.000
247.8700, 5743.000
249.0870, 5710.000
250.3040, 5747.000
251.5200, 5708.000
252.7370, 5738.000
253.9530, 5726.000
255.1690, 5681.000
256.3850, 5744.000
257.6000, 5678.000
258.8160, 5759.000
260.0310, 5686.000
261.2460, 5718.000
262.4610, 5851.000
263.6760, 5729.000
264.8910, 5857.000
266.1050, 5795.000
267.3200, 5808.000
268.5340, 5870.000
269.7480, 5807.000
270.9620, 5790.000
272.1750, 5794.000
273.3890, 5817.000
274.6020, 5855.000
275.8150, 5780.000
277.0280, 5782.000
278.2410, 5731.000
279.4540, 5831.000
280.6660, 5703.000
281.8790, 5828.000
283.0910, 5761.000
284.3030, 5859.000
285.5140, 5856.000
286.7260, 5911.000
287.9380, 5771.000
289.1490, 5819.000
290.3600, 5861.000
291.5710, 5874.000
292.7820, 5905.000
293.9920, 5845.000
295.2030, 5913.000
296.4130, 5960.000
297.6230, 5848.000
298.8330, 5843.000
300.0430, 6014.000
301.2520, 5861.000
302.4620, 5939.000
303.6710, 5903.000
304.8800, 5989.000
306.0890, 5968.563
307.2980, 5982.000
308.5070, 5952.000
309.7150, 5944.000
310.9230, 5949.000
312.1310, 5991.000
313.3390, 6021.000
314.5470, 6001.555
315.7550, 6050.000
316.9620, 5981.000
318.1690, 5956.000
319.3760, 5984.000
320.5830, 6073.000
321.7900, 6042.000
322.9960, 6018.000
324.2030, 6034.000
325.4090, 6014.000
326.6150, 6034.000
327.8210, 6041.437
329.0270, 6052.000
330.2320, 6075.000
331.4380, 6066.000
332.6430, 6094.000
333.8480, 6258.000
335.0530, 6046.000
336.2580, 6098.000
337.4620, 6255.000
338.6670, 6149.000
339.8710, 6122.000
341.0750, 6101.000
342.2790, 6169.000
343.4820, 6110.000
344.6860, 6248.000
345.8890, 6119.000
347.0920, 6190.000
348.2960, 6167.000
349.4980, 6113.000
350.7010, 6187.000
351.9040, 6221.000
353.1060, 6200.000
354.3080, 6241.000
355.5100, 6328.000
356.7120, 6293.000
357.9140, 6167.000
359.1150, 6280.000
360.3170, 6252.000
361.5180, 6285.000
362.7190, 6328.000
363.9200, 6359.000
365.1200, 6219.000
366.3210, 6334.000
367.5210, 6364.000
368.7210, 6236.000
369.9210, 6265.000
371.1210, 6309.000
372.3210, 6225.000
373.5200, 6403.000
374.7200, 6275.000
375.9190, 6305.000
377.1180, 6288.000
378.3170, 6391.000
379.5150, 6352.000
380.7140, 6408.000
381.9120, 6436.000
383.1110, 6429.000
384.3090, 6549.000
385.5060, 6485.000
386.7040, 6538.000
387.9020, 6449.000
389.0990, 6450.000
390.2960, 6555.000
391.4930, 6444.000
392.6900, 6398.000
393.8860, 6399.000
395.0830, 6369.000
396.2790, 6476.000
397.4750, 6505.000
398.6710, 6610.000
399.8670, 6544.000
401.0630, 6518.000
402.2580, 6561.000
403.4540, 6546.000
404.6490, 6622.000
405.8440, 6640.000
407.0390, 6618.000
408.2330, 6582.000
409.4280, 6604.000
410.6220, 6596.000
411.8160, 6519.000
413.0100, 6715.000
414.2040, 6781.000
415.3980, 6729.000
416.5910, 6734.000
417.7850, 6688.000
418.9780, 6721.000
420.1710, 6855.000
421.3640, 6849.000
422.5560, 6868.000
423.7490, 6873.000
424.9410, 6867.000
426.1330, 7075.000
427.3250, 7114.000
428.5170, 7355.000
429.7090, 7455.000
430.9000, 7668.000
432.0910, 7904.000
433.2820, 8406.000
434.4730, 8755.000
435.6640, 9310.000
436.8550, 9885.000
438.0450, 10532.00
439.2360, 10867.00
440.4260, 10856.00
441.6160, 10549.00
442.8060, 10182.00
443.9950, 9557.000
445.1850, 9265.000
446.3740, 8931.000
447.5630, 8689.000
448.7520, 8724.000
449.9410, 8592.000
451.1300, 8375.000
452.3180, 8201.000
453.5060, 8001.000
454.6950, 7866.000
455.8830, 7707.000
457.0700, 7602.000
458.2580, 7424.000
459.4450, 7337.000
460.6330, 7339.000
461.8200, 7177.000
463.0070, 7162.000
464.1940, 7167.000
465.3800, 7115.000
466.5670, 7214.000
467.7530, 7243.000
468.9390, 7190.000
470.1250, 7206.000
471.3110, 7133.000
472.4970, 7292.000
473.6820, 7155.000
474.8680, 7173.000
476.0530, 7200.000
477.2380, 7061.000
478.4230, 7093.000
479.6070, 7049.000
480.7920, 7095.000
481.9760, 7146.000
483.1600, 7047.000
484.3440, 7162.000
485.5280, 7139.000
486.7120, 7041.000
487.8950, 7058.000
489.0780, 7109.000
490.2620, 7142.000
491.4450, 7113.000
492.6270, 7137.000
493.8100, 7133.167
494.9920, 7143.471
496.1750, 7150.000
497.3570, 7187.000
498.5390, 7242.000
499.7210, 7292.000
500.9020, 7233.000
502.0840, 7145.000
503.2650, 7126.000
504.4460, 7192.000
505.6270, 7215.000
506.8080, 7212.000
507.9890, 7234.000
509.1690, 7247.000
510.3500, 7333.000
511.5300, 7275.000
512.7100, 7382.000
513.8900, 7360.000
515.0690, 7259.000
516.2490, 7331.000
517.4280, 7329.000
518.6070, 7337.000
519.7860, 7334.000
520.9650, 7395.000
522.1440, 7376.000
523.3220, 7386.000
524.5010, 7370.000
525.6790, 7378.000
526.8570, 7432.000
528.0350, 7357.000
529.2130, 7377.000
530.3900, 7418.000
531.5670, 7350.000
532.7450, 7394.000
533.9220, 7310.000
535.0980, 7458.000
536.2750, 7370.000
537.4520, 7309.000
538.6280, 7422.000
539.8040, 7468.000
540.9800, 7529.000
542.1560, 7486.000
543.3320, 7567.000
544.5070, 7506.000
545.6830, 7359.000
546.8580, 7499.000
548.0330, 7493.000
549.2080, 7581.000
550.3830, 7597.000
551.5570, 7566.000
552.7310, 7535.000
553.9060, 7648.000
555.0800, 7527.000
556.2540, 7593.000
557.4270, 7696.000
558.6010, 7650.000
559.7740, 7550.000
560.9470, 7571.000
562.1210, 7652.000
563.2930, 7576.000
564.4660, 7598.000
565.6390, 7622.000
566.8110, 7655.000
567.9830, 7697.000
569.1550, 7700.000
570.3270, 7660.000
571.4990, 7698.000
572.6710, 7691.000
573.8420, 7638.000
575.0130, 7735.000
576.1840, 7814.000
577.3550, 7791.000
578.5260, 7734.000
579.6970, 7642.000
580.8670, 7830.000
582.0370, 7827.000
583.2070, 7881.000
584.3770, 7876.000
585.5470, 7852.000
586.7170, 7908.000
587.8860, 7944.000
589.0550, 7948.000
590.2240, 7953.000
591.3930, 8055.000
592.5620, 7952.000
593.7310, 8040.000
594.8990, 8130.000
596.0670, 8277.000
597.2350, 8398.710
598.4030, 8352.000
599.5710, 8660.000
600.7390, 8754.000
601.9060, 8808.000
603.0740, 9035.000
604.2410, 9028.000
605.4080, 9302.000
606.5740, 9296.000
607.7410, 9132.000
608.9080, 8977.000
610.0740, 8798.000
611.2400, 8627.000
612.4060, 8540.000
613.5720, 8441.000
614.7370, 8365.000
615.9030, 8320.407
617.0680, 8273.358
618.2330, 8258.000
619.3980, 8233.000
620.5630, 8211.000
621.7280, 8207.744
622.8920, 8148.000
624.0570, 8185.000
625.2210, 8184.000
626.3850, 8242.000
627.5490, 8191.000
628.7120, 8230.000
629.8760, 8165.000
631.0390, 8142.000
632.2020, 8229.000
633.3650, 8177.000
634.5280, 8178.000
635.6910, 8128.000
636.8530, 8144.000
638.0160, 8143.000
639.1780, 8238.000
640.3400, 8239.000
641.5020, 8365.000
642.6640, 8250.000
643.8250, 8198.000
644.9870, 8236.000
646.1480, 8234.000
647.3090, 8277.000
648.4700, 8401.000
649.6300, 8279.000
650.7910, 8213.000
651.9510, 8334.000
653.1120, 8419.000
654.2720, 8236.000
655.4320, 8286.000
656.5910, 8296.000
657.7510, 8241.000
658.9100, 8300.000
660.0690, 8359.000
661.2290, 8374.000
662.3880, 8225.000
663.5460, 8327.000
664.7050, 8250.000
665.8630, 8284.000
667.0220, 8419.000
668.1800, 8398.000
669.3380, 8296.000
670.4950, 8286.000
671.6530, 8394.000
672.8100, 8277.000
673.9680, 8315.000
675.1250, 8328.000
676.2820, 8533.000
677.4390, 8434.000
678.5950, 8476.000
679.7520, 8390.000
680.9080, 8298.000
682.0640, 8278.000
683.2200, 8302.000
684.3760, 8495.000
685.5320, 8447.000
686.6870, 8414.000
687.8420, 8266.000
688.9980, 8358.000
690.1530, 8464.000
691.3070, 8416.000
692.4620, 8421.000
693.6170, 8508.000
694.7710, 8342.000
695.9250, 8516.000
697.0790, 8538.000
698.2330, 8461.000
699.3870, 8423.000
700.5400, 8567.000
701.6940, 8512.000
702.8470, 8521.596
704.0000, 8606.000
705.1530, 8480.000
706.3050, 8490.000
707.4580, 8470.000
708.6100, 8554.000
709.7630, 8527.000
710.9150, 8641.000
712.0660, 8493.000
713.2180, 8639.000
714.3700, 8609.000
715.5210, 8568.000
716.6720, 8661.000
717.8240, 8542.000
718.9740, 8639.000
720.1250, 8697.000
721.2760, 8625.000
722.4260, 8702.000
723.5770, 8698.000
724.7270, 8698.000
725.8770, 8789.000
727.0260, 8589.000
728.1760, 8659.000
729.3250, 8584.000
730.4750, 8731.000
731.6240, 8752.000
732.7730, 8804.000
733.9220, 8624.000
735.0700, 8761.000
736.2190, 8765.000
737.3670, 8684.000
738.5150, 8781.000
739.6630, 8736.000
740.8110, 8793.000
741.9590, 8855.000
743.1060, 8718.000
744.2540, 8748.000
745.4010, 8749.000
746.5480, 8831.000
747.6950, 8781.000
748.8410, 8830.000
749.9880, 8756.000
751.1340, 8783.963
752.2800, 8946.000
753.4260, 8791.000
754.5720, 8960.000
755.7180, 8937.000
756.8640, 8974.000
758.0090, 8824.000
759.1540, 9038.000
760.2990, 8934.000
761.4440, 8986.000
762.5890, 8867.000
763.7340, 9021.000
764.8780, 8943.000
766.0220, 9012.000
767.1660, 8920.000
768.3100, 8968.000
769.4540, 9057.000
770.5980, 8944.000
771.7410, 8987.000
772.8840, 9055.000
774.0280, 9050.000
775.1700, 8989.000
776.3130, 8971.000
777.4560, 9043.000
778.5980, 9087.000
779.7410, 8991.000
780.8830, 9109.000
782.0250, 9057.000
783.1670, 9068.000
784.3080, 9062.000
785.4500, 9194.000
786.5910, 9012.000
787.7320, 9148.000
788.8730, 9097.000
790.0140, 9103.000
791.1550, 9146.000
792.2950, 9106.000
793.4360, 9199.000
794.5760, 9133.000
795.7160, 9134.000
796.8560, 9168.000
797.9960, 9196.000
799.1350, 9160.000
800.2750, 9143.000
801.4140, 9296.000
802.5530, 9136.000
803.6920, 9323.000
804.8310, 9237.000
805.9690, 9285.000
807.1080, 9298.000
808.2460, 9296.000
809.3840, 9307.000
810.5220, 9214.000
811.6600, 9274.000
812.7970, 9325.000
813.9350, 9282.000
815.0720, 9357.000
816.2090, 9372.000
817.3460, 9398.000
818.4830, 9406.000
819.6200, 9339.000
820.7560, 9270.000
821.8930, 9297.000
823.0290, 9346.000
824.1650, 9346.000
825.3010, 9401.000
826.4360, 9386.000
827.5720, 9382.000
828.7070, 9468.000
829.8420, 9434.000
830.9770, 9483.000
832.1120, 9541.000
833.2470, 9485.000
834.3820, 9535.000
835.5160, 9527.000
836.6500, 9591.000
837.7840, 9575.769
838.9180, 9524.000
840.0520, 9555.000
841.1860, 9511.000
842.3190, 9491.000
843.4520, 9572.000
844.5850, 9578.000
845.7180, 9576.000
846.8510, 9623.315
847.9840, 9622.302
849.1160, 9670.000
850.2490, 9659.000
851.3810, 9674.000
852.5130, 9708.000
853.6450, 9770.000
854.7760, 9666.000
855.9080, 9789.000
857.0390, 9754.000
858.1700, 9769.000
859.3010, 9820.000
860.4320, 9832.000
861.5630, 9842.000
862.6930, 9857.000
863.8240, 9873.000
864.9540, 9762.000
866.0840, 9984.000
867.2140, 9904.000
868.3440, 9752.000
869.4730, 9893.000
870.6030, 9998.000
871.7320, 9833.000
872.8610, 9785.000
873.9900, 9964.000
875.1190, 9887.000
876.2470, 9897.000
877.3760, 9869.000
878.5040, 9886.000
879.6320, 9872.000
880.7600, 9919.000
881.8880, 9833.000
883.0150, 9876.178
884.1430, 9993.000
885.2700, 9918.000
886.3970, 9952.000
887.5240, 10005.00
888.6510, 10010.00
889.7780, 10107.00
890.9040, 10067.00
892.0310, 9978.000
893.1570, 9926.000
894.2830, 10021.00
895.4090, 10025.00
896.5350, 10020.00
897.6600, 10082.00
898.7860, 10199.00
899.9110, 10070.00
901.0360, 10124.00
902.1610, 9998.000
903.2860, 10249.00
904.4100, 10214.00
905.5350, 10171.00
906.6590, 10126.00
907.7830, 10312.00
908.9070, 10231.00
910.0310, 10341.00
911.1540, 10231.00
912.2780, 10141.00
913.4010, 10096.00
914.5240, 10213.00
915.6470, 10227.00
916.7700, 10269.00
917.8930, 10381.00
919.0150, 10238.00
920.1380, 10317.00
921.2600, 10302.00
922.3820, 10265.00
923.5040, 10291.00
924.6260, 10319.00
925.7470, 10278.00
926.8690, 10343.00
927.9900, 10375.00
929.1110, 10377.00
930.2320, 10494.00
931.3530, 10403.00
932.4730, 10364.00
933.5940, 10444.00
934.7140, 10452.00
935.8340, 10510.00
936.9540, 10456.00
938.0740, 10483.00
939.1930, 10514.00
940.3130, 10469.00
941.4320, 10595.00
942.5510, 10537.00
943.6700, 10509.00
944.7890, 10658.00
945.9080, 10700.00
947.0260, 10697.00
948.1450, 10867.00
949.2630, 10981.00
950.3810, 10910.00
951.4990, 10994.00
952.6170, 11056.00
953.7340, 11195.00
954.8520, 11213.00
955.9690, 11321.00
957.0860, 11546.00
958.2030, 11717.00
959.3200, 11716.00
960.4360, 11981.00
961.5530, 12315.00
962.6690, 12533.00
963.7850, 13021.00
964.9010, 13369.00
966.0170, 14128.00
967.1330, 14986.00
968.2480, 16034.00
969.3630, 17588.00
970.4790, 19799.00
971.5940, 22541.00
972.7080, 25937.00
973.8230, 30489.00
974.9380, 35743.00
976.0520, 40946.00
977.1660, 46054.00
978.2800, 48959.00
979.3940, 49626.00
980.5080, 46685.00
981.6220, 41618.00
982.7350, 36010.00
983.8480, 30520.00
984.9610, 25992.00
986.0740, 22696.00
987.1870, 19994.00
988.3000, 18078.00
989.4120, 16773.00
990.5250, 15765.00
991.6370, 14996.00
992.7490, 14198.00
993.8610, 13776.00
994.9720, 13454.00
996.0840, 13055.00
997.1950, 12799.00
998.3060, 12749.00
999.4170, 12360.00
1000.528, 12369.00
1001.639, 12275.00
1002.750, 12206.00
1003.860, 12151.96
1004.970, 12067.62
1006.080, 12007.00
1007.190, 11882.00
1008.300, 11812.00
1009.410, 11632.00
1010.519, 11631.00
1011.628, 11395.00
1012.738, 11443.00
1013.846, 11480.00
1014.955, 11332.00
1016.064, 11332.00
1017.172, 11421.00
1018.281, 11374.00
1019.389, 11275.00
1020.497, 11437.00
1021.605, 11301.00
1022.713, 11334.00
1023.820, 11422.00
1024.928, 11236.00
1026.035, 11255.00
1027.142, 11315.00
1028.249, 11322.00
1029.356, 11264.00
1030.462, 11280.00
1031.569, 11244.52
1032.675, 11223.00
1033.781, 11215.00
1034.887, 11173.00
1035.993, 11209.00
1037.098, 11171.00
1038.204, 11238.00
1039.309, 11094.00
1040.415, 11170.00
1041.520, 11305.00
1042.624, 11179.00
1043.729, 11208.00
1044.834, 11099.00
1045.938, 11250.00
1047.042, 11353.00
1048.146, 11318.00
1049.250, 11210.00
1050.354, 11178.00
1051.458, 11249.00
1052.561, 11229.00
1053.664, 11346.00
1054.767, 11349.00
1055.870, 11275.00
1056.973, 11241.00
1058.076, 11388.00
1059.178, 11298.00
1060.281, 11313.00
1061.383, 11442.00
1062.485, 11368.00
1063.587, 11268.00
1064.688, 11412.00
1065.790, 11359.00
1066.891, 11475.00
1067.993, 11386.00
1069.094, 11328.00
1070.195, 11442.00
1071.295, 11509.00
1072.396, 11318.00
1073.496, 11465.00
1074.597, 11468.00
1075.697, 11456.00
1076.797, 11474.00
1077.897, 11447.00
1078.996, 11480.00
1080.096, 11554.00
1081.195, 11571.00
1082.294, 11526.00
1083.393, 11407.00
1084.492, 11520.00
1085.591, 11497.00
1086.689, 11541.00
1087.788, 11589.00
1088.886, 11672.00
1089.984, 11658.00
1091.082, 11684.76
1092.180, 11578.00
1093.277, 11637.00
1094.375, 11627.00
1095.472, 11520.00
1096.569, 11588.00
1097.666, 11693.00
1098.763, 11724.00
1099.860, 11723.00
1100.956, 11750.00
1102.053, 11651.00
1103.149, 11846.00
1104.245, 11716.00
1105.341, 11739.00
1106.436, 11839.00
1107.532, 11800.00
1108.627, 11874.00
1109.723, 11844.00
1110.818, 11783.00
1111.913, 11920.00
1113.007, 11931.00
1114.102, 11950.00
1115.197, 11928.00
1116.291, 11977.00
1117.385, 11939.00
1118.479, 11999.00
1119.573, 12151.00
1120.666, 12067.00
1121.760, 12098.00
1122.853, 11996.00
1123.947, 12170.00
1125.040, 12103.00
1126.132, 12142.00
1127.225, 12126.00
1128.318, 12244.00
1129.410, 12352.00
1130.502, 12234.00
1131.595, 12354.00
1132.687, 12292.00
1133.778, 12380.00
1134.870, 12452.00
1135.961, 12367.00
1137.053, 12378.00
1138.144, 12462.00
1139.235, 12482.00
1140.326, 12420.00
1141.416, 12286.00
1142.507, 12504.00
1143.597, 12493.00
1144.688, 12365.00
1145.778, 12393.00
1146.868, 12342.00
1147.957, 12284.00
1149.047, 12300.00
1150.136, 12101.00
1151.226, 12350.00
1152.315, 12329.00
1153.404, 12216.00
1154.493, 12381.00
1155.581, 12254.00
1156.670, 12145.00
1157.758, 12250.00
1158.846, 12387.00
1159.934, 12111.00
1161.022, 12341.00
1162.110, 12234.00
1163.198, 12337.00
1164.285, 12104.00
1165.372, 12276.00
1166.459, 12252.00
1167.546, 12105.00
1168.633, 12112.00
1169.720, 12235.00
1170.806, 12108.00
1171.892, 12105.00
1172.979, 12247.00
1174.065, 12154.00
1175.150, 12137.00
1176.236, 12174.00
1177.322, 12162.00
1178.407, 12075.00
1179.492, 12151.00
1180.577, 12061.00
1181.662, 12260.00
1182.747, 12149.00
1183.832, 12240.00
1184.916, 12208.00
1186.000, 12194.00
1187.084, 12142.00
1188.168, 12238.00
1189.252, 12181.00
1190.336, 12246.00
1191.419, 12358.00
1192.503, 12267.00
1193.586, 12210.00
1194.669, 12237.00
1195.752, 12071.00
1196.835, 12227.00
1197.917, 12143.00
1199.000, 12235.00
1200.082, 12302.00
1201.164, 12160.00
1202.246, 12275.00
1203.328, 12209.00
1204.409, 12219.00
1205.491, 12271.00
1206.572, 12211.00
1207.653, 12166.00
1208.734, 12261.00
1209.815, 12310.00
1210.896, 12262.00
1211.976, 12311.00
1213.057, 12325.00
1214.137, 12306.00
1215.217, 12277.00
1216.297, 12330.00
1217.377, 12258.00
1218.456, 12407.00
1219.536, 12324.00
1220.615, 12384.00
1221.694, 12272.00
1222.773, 12362.00
1223.852, 12351.00
1224.931, 12370.00
1226.009, 12238.00
1227.088, 12424.00
1228.166, 12518.00
1229.244, 12215.00
1230.322, 12425.00
1231.400, 12313.00
1232.477, 12445.00
1233.555, 12470.00
1234.632, 12446.00
1235.709, 12393.00
1236.786, 12440.00
1237.863, 12471.00
1238.939, 12409.00
1240.016, 12450.00
1241.092, 12556.00
1242.168, 12540.00
1243.245, 12466.00
1244.320, 12495.00
1245.396, 12376.00
1246.472, 12646.00
1247.547, 12615.00
1248.622, 12488.00
1249.697, 12561.00
1250.772, 12487.00
1251.847, 12579.00
1252.922, 12618.00
1253.996, 12531.00
1255.071, 12603.00
1256.145, 12585.00
1257.219, 12521.00
1258.293, 12591.00
1259.366, 12484.00
1260.440, 12637.00
1261.513, 12669.00
1262.587, 12438.00
1263.660, 12389.00
1264.733, 12685.00
1265.805, 12476.00
1266.878, 12659.00
1267.951, 12605.00
1269.023, 12499.00
1270.095, 12582.00
1271.167, 12711.00
1272.239, 12622.00
1273.311, 12669.00
1274.382, 12771.00
1275.454, 12488.00
1276.525, 12719.00
1277.596, 12824.00
1278.667, 12711.00
1279.738, 12587.00
1280.808, 12641.00
1281.879, 12697.00
1282.949, 12697.00
1284.019, 12740.00
1285.089, 12704.00
1286.159, 12768.00
1287.229, 12685.00
1288.298, 12725.00
1289.368, 12680.00
1290.437, 12677.00
1291.506, 12723.00
1292.575, 12785.00
1293.644, 12747.00
1294.712, 12641.00
1295.781, 12728.00
1296.849, 12779.00
1297.917, 12636.00
1298.985, 12735.00
1300.053, 12965.00
1301.121, 12789.00
1302.188, 12968.00
1303.255, 12866.00
1304.323, 12825.00
1305.390, 12955.00
1306.457, 12781.00
1307.523, 12905.00
1308.590, 12872.00
1309.656, 12810.00
1310.723, 12936.00
1311.789, 12850.00
1312.855, 12889.67
1313.921, 12898.00
1314.986, 12907.00
1316.052, 12870.00
1317.117, 12856.00
1318.182, 12903.00
1319.248, 13035.00
1320.312, 13004.00
1321.377, 12969.00
1322.442, 13014.00
1323.506, 12858.00
1324.571, 12980.00
1325.635, 12959.00
1326.699, 12975.00
1327.762, 13062.00
1328.826, 12909.00
1329.890, 13026.00
1330.953, 12989.00
1332.016, 13036.00
1333.079, 12933.00
1334.142, 12992.00
1335.205, 12818.00
1336.268, 12964.00
1337.330, 12935.00
1338.392, 12917.00
1339.454, 12990.00
1340.516, 13009.00
1341.578, 12979.00
1342.640, 12919.00
1343.701, 12979.00
1344.763, 13015.00
1345.824, 13093.00
1346.885, 13140.00
1347.946, 13006.00
1349.007, 13073.00
1350.067, 12902.00
1351.128, 13015.00
1352.188, 13010.00
1353.248, 13147.00
1354.308, 13065.00
1355.368, 13055.00
1356.428, 13064.00
1357.487, 13078.00
1358.547, 13065.00
1359.606, 13100.00
1360.665, 13048.00
1361.724, 13152.00
1362.783, 13139.00
1363.841, 13116.00
1364.900, 13124.00
1365.958, 13122.31
1367.016, 13142.00
1368.074, 13167.00
1369.132, 13165.99
1370.190, 13103.00
1371.247, 13195.00
1372.304, 13162.00
1373.362, 13212.00
1374.419, 13212.00
1375.476, 13138.00
1376.532, 13123.00
1377.589, 13052.00
1378.645, 13141.00
1379.702, 13290.00
1380.758, 13276.00
1381.814, 13221.00
1382.870, 13193.00
1383.925, 13187.39
1384.981, 13301.00
1386.036, 13194.00
1387.092, 13198.00
1388.147, 13229.00
1389.202, 13168.00
1390.256, 13397.00
1391.311, 13242.00
1392.365, 13447.00
1393.420, 13322.00
1394.474, 13367.00
1395.528, 13323.00
1396.582, 13365.00
1397.636, 13355.58
1398.689, 13299.00
1399.742, 13359.00
1400.796, 13328.00
1401.849, 13347.00
1402.902, 13306.00
1403.955, 13309.00
1405.007, 13315.43
1406.060, 13312.00
1407.112, 13328.00
1408.164, 13348.19
1409.216, 13345.04
1410.268, 13372.00
1411.320, 13416.00
1412.371, 13413.00
1413.423, 13494.00
1414.474, 13471.00
1415.525, 13436.00
1416.576, 13303.00
1417.627, 13455.00
1418.678, 13395.00
1419.728, 13520.00
1420.778, 13545.00
1421.829, 13429.00
1422.879, 13500.00
1423.928, 13417.00
1424.978, 13501.00
1426.028, 13587.00
1427.077, 13573.00
1428.126, 13535.00
1429.176, 13565.00
1430.225, 13535.00
1431.273, 13554.00
1432.322, 13548.00
1433.371, 13648.00
1434.419, 13599.00
1435.467, 13672.00
1436.515, 13715.00
1437.563, 13628.00
1438.611, 13805.00
1439.658, 13765.00
1440.706, 13678.00
1441.753, 13764.00
1442.800, 13780.00
1443.847, 13871.00
1444.894, 13847.00
1445.941, 13806.00
1446.987, 13829.00
1448.034, 13915.00
1449.080, 13875.00
1450.126, 13876.00
1451.172, 13893.33
1452.218, 13854.28
1453.263, 13920.00
1454.309, 13823.00
1455.354, 13895.00
1456.399, 13925.00
1457.444, 13851.00
1458.489, 13930.00
1459.534, 14002.00
1460.579, 14110.00
1461.623, 13998.00
1462.667, 13881.00
1463.711, 13742.00
1464.755, 13861.00
1465.799, 13961.00
1466.843, 13855.00
1467.886, 14038.00
1468.930, 13912.00
1469.973, 13909.00
1471.016, 13788.00
1472.059, 14000.00
1473.101, 13933.00
1474.144, 13885.00
1475.186, 13937.00
1476.229, 13787.00
1477.271, 13919.00
1478.313, 14037.00
1479.355, 13850.00
1480.396, 14023.00
1481.438, 13965.00
1482.479, 13895.00
1483.520, 13844.00
1484.561, 13855.72
1485.602, 13924.00
1486.643, 13898.00
1487.684, 13957.00
1488.724, 13964.00
1489.765, 13948.00
1490.805, 13965.00
1491.845, 13936.00
1492.885, 13926.00
1493.924, 13790.00
1494.964, 13994.00
1496.003, 13748.00
1497.042, 13894.00
1498.082, 14006.00
1499.120, 13929.00
1500.159, 13819.00
1501.198, 13780.00
1502.236, 14085.00
1503.275, 13946.00
1504.313, 13968.00
1505.351, 13875.00
1506.389, 13929.00
1507.427, 14121.00
1508.464, 14088.00
1509.502, 13991.00
1510.539, 13795.00
1511.576, 14106.00
1512.613, 14058.00
1513.650, 13976.00
1514.687, 14083.00
1515.723, 14075.00
1516.759, 14081.00
1517.796, 14041.00
1518.832, 14072.69
1519.868, 14072.00
1520.903, 14102.00
1521.939, 14081.00
1522.975, 14058.00
1524.010, 14086.00
1525.045, 14073.00
1526.080, 14081.05
1527.115, 14184.00
1528.150, 14127.00
1529.184, 14124.00
1530.219, 14213.00
1531.253, 14121.00
1532.287, 14179.00
1533.321, 14185.00
1534.355, 14203.00
1535.388, 14226.00
1536.422, 14210.00
1537.455, 14231.68
1538.488, 14227.94
1539.522, 14250.00
1540.554, 14260.00
1541.587, 14271.00
1542.620, 14362.00
1543.652, 14343.00
1544.685, 14363.00
1545.717, 14391.36
1546.749, 14326.00
1547.781, 14350.00
1548.812, 14329.00
1549.844, 14165.00
1550.875, 14354.00
1551.906, 14357.00
1552.938, 14188.00
1553.968, 14142.00
1554.999, 14206.00
1556.030, 14285.00
1557.060, 14271.00
1558.091, 14278.00
1559.121, 14410.00
1560.151, 14373.72
1561.181, 14308.00
1562.211, 14426.00
1563.240, 14286.00
1564.270, 14362.00
1565.299, 14306.00
1566.328, 14402.00
1567.357, 14380.00
1568.386, 14249.00
1569.415, 14372.00
1570.443, 14411.00
1571.472, 14277.00
1572.500, 14351.00
1573.528, 14383.00
1574.556, 14298.00
1575.584, 14435.00
1576.611, 14406.00
1577.639, 14438.00
1578.666, 14433.00
1579.693, 14458.00
##END=



