##NAMES=Anglesite
##RRUFFID=R040004
##IDEAL CHEMISTRY=Pb^2+^S^6+^O_4_
##LOCALITY=Erupcion mine, Los Lamentos, Chihuahua, Mexico
##OWNER=RRUFF
##SOURCE=University of Arizona Mineral Museum
##DESCRIPTION=Tan colored tabular crystal
##STATUS=The identification of this mineral has been confirmed by X-ray diffraction and chemical analysis
##URL=rruff.info/R040004
##MEASURED CHEMISTRY=Pb_1.00_S_1.00_O_4_
##PIN_ID=m00050
##ORIENTATION=Laser parallel to b* (0 1 0). Fiducial mark perpendicular to laser is parallel to c [0 0 1]
26.288, 4.638e+003
27.694, 4.414e+003
29.099, 4.434e+003
30.504, 4.483e+003
31.909, 4.456e+003
33.313, 4.629e+003
34.717, 4.723e+003
36.121, 4.878e+003
37.525, 5.150e+003
38.929, 5.296e+003
40.332, 5.432e+003
41.735, 5.336e+003
43.138, 5.369e+003
44.541, 5.540e+003
45.943, 5.745e+003
47.345, 5.731e+003
48.747, 5.876e+003
50.149, 6.062e+003
51.551, 6.212e+003
52.952, 6.372e+003
54.353, 6.601e+003
55.754, 6.856e+003
57.155, 7.209e+003
58.555, 7.415e+003
59.955, 7.861e+003
61.355, 8.282e+003
62.755, 9.595e+003
64.154, 9.979e+003
65.553, 8.604e+003
66.952, 8.583e+003
68.351, 8.682e+003
69.750, 9.303e+003
71.148, 1.041e+004
72.546, 1.284e+004
73.944, 2.028e+004
75.342, 1.634e+004
76.739, 1.092e+004
78.136, 9.598e+003
79.533, 9.397e+003
80.930, 8.915e+003
82.327, 8.744e+003
83.723, 8.564e+003
85.119, 8.434e+003
86.515, 8.448e+003
87.910, 8.437e+003
89.306, 8.624e+003
90.701, 8.997e+003
92.096, 9.252e+003
93.490, 9.785e+003
94.885, 1.014e+004
96.279, 1.040e+004
97.673, 1.029e+004
99.067, 1.005e+004
100.461, 9.438e+003
101.854, 8.884e+003
103.247, 8.477e+003
104.640, 8.155e+003
106.032, 7.825e+003
107.425, 7.636e+003
108.817, 7.528e+003
110.209, 7.403e+003
111.601, 7.840e+003
112.992, 7.685e+003
114.384, 7.382e+003
115.775, 7.314e+003
117.166, 7.337e+003
118.556, 7.281e+003
119.947, 7.113e+003
121.337, 7.171e+003
122.727, 7.136e+003
124.116, 7.409e+003
125.506, 7.398e+003
126.895, 7.641e+003
128.284, 7.889e+003
129.673, 7.963e+003
131.062, 8.260e+003
132.450, 8.390e+003
133.838, 8.541e+003
135.226, 8.449e+003
136.614, 8.451e+003
138.001, 8.176e+003
139.388, 8.084e+003
140.775, 7.933e+003
142.162, 7.775e+003
143.549, 7.623e+003
144.935, 7.729e+003
146.321, 7.644e+003
147.707, 7.900e+003
149.093, 7.972e+003
150.478, 8.210e+003
151.863, 8.217e+003
153.248, 8.344e+003
154.633, 7.904e+003
156.018, 7.596e+003
157.402, 7.275e+003
158.786, 6.939e+003
160.170, 6.893e+003
161.554, 6.562e+003
162.937, 6.412e+003
164.320, 6.293e+003
165.703, 6.232e+003
167.086, 6.268e+003
168.469, 6.092e+003
169.851, 6.151e+003
171.233, 6.000e+003
172.615, 5.912e+003
173.996, 5.900e+003
175.378, 5.870e+003
176.759, 5.958e+003
178.140, 5.773e+003
179.521, 5.790e+003
180.901, 5.746e+003
182.281, 5.768e+003
183.662, 5.731e+003
185.041, 5.604e+003
186.421, 5.756e+003
187.800, 5.622e+003
189.180, 5.691e+003
190.558, 5.602e+003
191.937, 5.640e+003
193.316, 5.616e+003
194.694, 5.617e+003
196.072, 5.663e+003
197.450, 5.548e+003
198.827, 5.589e+003
200.205, 5.598e+003
201.582, 5.555e+003
202.959, 5.624e+003
204.336, 5.534e+003
205.712, 5.589e+003
207.088, 5.598e+003
208.465, 5.582e+003
209.840, 5.571e+003
211.216, 5.434e+003
212.591, 5.513e+003
213.967, 5.435e+003
215.341, 5.468e+003
216.716, 5.438e+003
218.091, 5.422e+003
219.465, 5.436e+003
220.839, 5.399e+003
222.213, 5.441e+003
223.586, 5.297e+003
224.960, 5.368e+003
226.333, 5.360e+003
227.706, 5.334e+003
229.079, 5.324e+003
230.451, 5.310e+003
231.823, 5.386e+003
233.195, 5.279e+003
234.567, 5.348e+003
235.939, 5.275e+003
237.310, 5.330e+003
238.682, 5.348e+003
240.052, 5.241e+003
241.423, 5.329e+003
242.794, 5.264e+003
244.164, 5.265e+003
245.534, 5.232e+003
246.904, 5.296e+003
248.274, 5.296e+003
249.643, 5.207e+003
251.012, 5.292e+003
252.381, 5.300e+003
253.750, 5.258e+003
255.118, 5.255e+003
256.487, 5.284e+003
257.855, 5.290e+003
259.223, 5.238e+003
260.590, 5.315e+003
261.958, 5.245e+003
263.325, 5.290e+003
264.692, 5.306e+003
266.059, 5.226e+003
267.425, 5.314e+003
268.791, 5.319e+003
270.158, 5.343e+003
271.523, 5.270e+003
272.889, 5.283e+003
274.255, 5.321e+003
275.620, 5.160e+003
276.985, 5.310e+003
278.350, 5.230e+003
279.714, 5.242e+003
281.078, 5.283e+003
282.443, 5.197e+003
283.806, 5.238e+003
285.170, 5.155e+003
286.534, 5.226e+003
287.897, 5.184e+003
289.260, 5.220e+003
290.623, 5.284e+003
291.985, 5.140e+003
293.348, 5.235e+003
294.710, 5.173e+003
296.072, 5.235e+003
297.433, 5.191e+003
298.795, 5.143e+003
300.156, 5.187e+003
301.517, 5.286e+003
302.878, 5.241e+003
304.239, 5.220e+003
305.599, 5.223e+003
306.959, 5.271e+003
308.319, 5.174e+003
309.679, 5.353e+003
311.038, 5.298e+003
312.398, 5.320e+003
313.757, 5.307e+003
315.116, 5.265e+003
316.474, 5.326e+003
317.833, 5.255e+003
319.191, 5.340e+003
320.549, 5.220e+003
321.907, 5.322e+003
323.264, 5.260e+003
324.622, 5.295e+003
325.979, 5.330e+003
327.336, 5.218e+003
328.692, 5.331e+003
330.049, 5.272e+003
331.405, 5.331e+003
332.761, 5.336e+003
334.117, 5.334e+003
335.473, 5.386e+003
336.828, 5.281e+003
338.183, 5.275e+003
339.538, 5.374e+003
340.893, 5.333e+003
342.247, 5.339e+003
343.602, 5.290e+003
344.956, 5.432e+003
346.310, 5.423e+003
347.663, 5.349e+003
349.017, 5.430e+003
350.370, 5.347e+003
351.723, 5.400e+003
353.076, 5.385e+003
354.428, 5.394e+003
355.780, 5.440e+003
357.133, 5.287e+003
358.484, 5.373e+003
359.836, 5.324e+003
361.188, 5.500e+003
362.539, 5.440e+003
363.890, 5.416e+003
365.241, 5.376e+003
366.591, 5.323e+003
367.942, 5.446e+003
369.292, 5.341e+003
370.642, 5.408e+003
371.992, 5.451e+003
373.341, 5.376e+003
374.691, 5.512e+003
376.040, 5.368e+003
377.388, 5.496e+003
378.737, 5.447e+003
380.086, 5.435e+003
381.434, 5.487e+003
382.782, 5.411e+003
384.130, 5.587e+003
385.477, 5.556e+003
386.825, 5.543e+003
388.172, 5.582e+003
389.519, 5.519e+003
390.865, 5.652e+003
392.212, 5.492e+003
393.558, 5.608e+003
394.904, 5.616e+003
396.250, 5.636e+003
397.596, 5.644e+003
398.941, 5.633e+003
400.286, 5.678e+003
401.631, 5.571e+003
402.976, 5.634e+003
404.321, 5.648e+003
405.665, 5.602e+003
407.009, 5.707e+003
408.353, 5.589e+003
409.697, 5.732e+003
411.040, 5.719e+003
412.384, 5.642e+003
413.727, 5.760e+003
415.070, 5.731e+003
416.412, 5.734e+003
417.755, 5.766e+003
419.097, 5.822e+003
420.439, 5.845e+003
421.781, 5.846e+003
423.122, 6.001e+003
424.464, 5.942e+003
425.805, 6.016e+003
427.146, 6.270e+003
428.486, 6.171e+003
429.827, 6.505e+003
431.167, 6.624e+003
432.507, 7.231e+003
433.847, 8.186e+003
435.187, 9.619e+003
436.526, 1.174e+004
437.865, 1.303e+004
439.204, 1.255e+004
440.543, 1.071e+004
441.882, 9.070e+003
443.220, 8.001e+003
444.558, 7.405e+003
445.896, 7.283e+003
447.234, 7.254e+003
448.572, 7.390e+003
449.909, 7.376e+003
451.246, 7.090e+003
452.583, 6.788e+003
453.919, 6.532e+003
455.256, 6.411e+003
456.592, 6.326e+003
457.928, 6.184e+003
459.264, 6.287e+003
460.600, 6.161e+003
461.935, 6.222e+003
463.270, 6.104e+003
464.605, 6.175e+003
465.940, 6.090e+003
467.274, 6.195e+003
468.609, 6.158e+003
469.943, 6.158e+003
471.277, 6.200e+003
472.610, 6.195e+003
473.944, 6.155e+003
475.277, 6.193e+003
476.610, 6.106e+003
477.943, 6.132e+003
479.275, 6.108e+003
480.608, 6.055e+003
481.940, 6.187e+003
483.272, 5.973e+003
484.604, 6.095e+003
485.935, 6.105e+003
487.267, 6.061e+003
488.598, 6.154e+003
489.929, 6.000e+003
491.260, 6.147e+003
492.590, 6.091e+003
493.920, 6.091e+003
495.250, 6.205e+003
496.580, 5.993e+003
497.910, 6.131e+003
499.239, 6.106e+003
500.569, 6.090e+003
501.898, 6.216e+003
503.226, 6.094e+003
504.555, 6.182e+003
505.883, 6.084e+003
507.212, 6.107e+003
508.540, 6.228e+003
509.867, 6.118e+003
511.195, 6.224e+003
512.522, 6.182e+003
513.849, 6.219e+003
515.176, 6.166e+003
516.503, 6.269e+003
517.829, 6.328e+003
519.156, 6.158e+003
520.482, 6.292e+003
521.808, 6.199e+003
523.133, 6.321e+003
524.459, 6.340e+003
525.784, 6.215e+003
527.109, 6.345e+003
528.434, 6.181e+003
529.758, 6.324e+003
531.083, 6.345e+003
532.407, 6.277e+003
533.731, 6.363e+003
535.055, 6.265e+003
536.378, 6.328e+003
537.701, 6.359e+003
539.025, 6.276e+003
540.348, 6.380e+003
541.670, 6.326e+003
542.993, 6.464e+003
544.315, 6.369e+003
545.637, 6.289e+003
546.959, 6.418e+003
548.281, 6.346e+003
549.602, 6.392e+003
550.923, 6.345e+003
552.244, 6.507e+003
553.565, 6.460e+003
554.886, 6.413e+003
556.206, 6.467e+003
557.526, 6.407e+003
558.846, 6.437e+003
560.166, 6.415e+003
561.486, 6.455e+003
562.805, 6.589e+003
564.124, 6.503e+003
565.443, 6.580e+003
566.762, 6.520e+003
568.080, 6.505e+003
569.399, 6.571e+003
570.717, 6.525e+003
572.035, 6.628e+003
573.352, 6.577e+003
574.670, 6.552e+003
575.987, 6.702e+003
577.304, 6.607e+003
578.621, 6.655e+003
579.938, 6.694e+003
581.254, 6.684e+003
582.570, 6.870e+003
583.886, 6.698e+003
585.202, 6.804e+003
586.518, 6.850e+003
587.833, 6.827e+003
589.148, 6.989e+003
590.463, 6.873e+003
591.778, 6.955e+003
593.093, 6.952e+003
594.407, 7.098e+003
595.721, 7.222e+003
597.035, 7.224e+003
598.349, 7.485e+003
599.662, 7.707e+003
600.976, 7.987e+003
602.289, 8.557e+003
603.602, 8.874e+003
604.914, 9.098e+003
606.227, 8.705e+003
607.539, 8.290e+003
608.851, 7.938e+003
610.163, 7.581e+003
611.475, 7.382e+003
612.786, 7.248e+003
614.097, 7.249e+003
615.408, 7.219e+003
616.719, 7.115e+003
618.030, 7.304e+003
619.340, 7.225e+003
620.651, 7.266e+003
621.961, 7.250e+003
623.270, 7.334e+003
624.580, 7.454e+003
625.889, 7.455e+003
627.199, 7.483e+003
628.507, 7.310e+003
629.816, 7.322e+003
631.125, 7.270e+003
632.433, 7.053e+003
633.741, 7.154e+003
635.049, 7.095e+003
636.357, 7.078e+003
637.664, 7.182e+003
638.972, 7.111e+003
640.279, 7.217e+003
641.586, 7.263e+003
642.893, 7.232e+003
644.199, 7.444e+003
645.505, 7.277e+003
646.811, 7.418e+003
648.117, 7.290e+003
649.423, 7.365e+003
650.728, 7.482e+003
652.034, 7.333e+003
653.339, 7.421e+003
654.644, 7.302e+003
655.948, 7.276e+003
657.253, 7.294e+003
658.557, 7.161e+003
659.861, 7.124e+003
661.165, 7.098e+003
662.468, 7.079e+003
663.772, 7.147e+003
665.075, 7.063e+003
666.378, 7.161e+003
667.681, 7.119e+003
668.983, 7.114e+003
670.286, 7.114e+003
671.588, 7.077e+003
672.890, 7.193e+003
674.192, 7.017e+003
675.493, 7.009e+003
676.795, 7.179e+003
678.096, 7.132e+003
679.397, 7.114e+003
680.697, 7.161e+003
681.998, 7.149e+003
683.298, 7.168e+003
684.598, 7.135e+003
685.898, 7.134e+003
687.198, 7.213e+003
688.498, 7.192e+003
689.797, 7.203e+003
691.096, 7.089e+003
692.395, 7.111e+003
693.694, 7.200e+003
694.992, 7.139e+003
696.290, 7.265e+003
697.589, 7.140e+003
698.886, 7.227e+003
700.184, 7.284e+003
701.482, 7.198e+003
702.779, 7.310e+003
704.076, 7.169e+003
705.373, 7.304e+003
706.669, 7.227e+003
707.966, 7.239e+003
709.262, 7.334e+003
710.558, 7.206e+003
711.854, 7.276e+003
713.150, 7.335e+003
714.445, 7.239e+003
715.740, 7.354e+003
717.035, 7.242e+003
718.330, 7.351e+003
719.625, 7.406e+003
720.919, 7.299e+003
722.214, 7.436e+003
723.508, 7.817e+003
724.801, 7.439e+003
726.095, 7.474e+003
727.388, 7.338e+003
728.682, 7.537e+003
729.975, 7.404e+003
731.267, 7.548e+003
732.560, 7.455e+003
733.852, 7.524e+003
735.145, 7.553e+003
736.437, 7.547e+003
737.728, 7.494e+003
739.020, 7.591e+003
740.311, 7.494e+003
741.603, 7.572e+003
742.894, 7.505e+003
744.184, 7.650e+003
745.475, 7.595e+003
746.765, 7.573e+003
748.055, 7.587e+003
749.345, 7.562e+003
750.635, 7.700e+003
751.925, 7.685e+003
753.214, 7.649e+003
754.503, 7.664e+003
755.792, 7.554e+003
757.081, 7.685e+003
758.370, 7.693e+003
759.658, 7.604e+003
760.946, 7.752e+003
762.234, 7.706e+003
763.522, 7.642e+003
764.809, 7.889e+003
766.097, 7.654e+003
767.384, 7.759e+003
768.671, 7.816e+003
769.958, 7.707e+003
771.244, 7.863e+003
772.530, 7.769e+003
773.817, 7.779e+003
775.102, 7.755e+003
776.388, 7.786e+003
777.674, 7.862e+003
778.959, 7.698e+003
780.244, 7.872e+003
781.529, 7.857e+003
782.814, 7.801e+003
784.098, 7.822e+003
785.383, 7.848e+003
786.667, 7.894e+003
787.951, 7.942e+003
789.235, 7.902e+003
790.518, 7.953e+003
791.801, 7.944e+003
793.084, 8.020e+003
794.367, 7.977e+003
795.650, 7.956e+003
796.933, 8.068e+003
798.215, 7.993e+003
799.497, 8.101e+003
800.779, 8.043e+003
802.061, 7.957e+003
803.342, 8.138e+003
804.624, 8.039e+003
805.905, 8.096e+003
807.186, 8.168e+003
808.466, 8.013e+003
809.747, 8.160e+003
811.027, 8.067e+003
812.307, 8.097e+003
813.587, 8.263e+003
814.867, 8.075e+003
816.146, 8.221e+003
817.426, 8.121e+003
818.705, 8.210e+003
819.984, 8.268e+003
821.263, 8.155e+003
822.541, 8.277e+003
823.819, 8.224e+003
825.098, 8.290e+003
826.375, 8.414e+003
827.653, 8.259e+003
828.931, 8.354e+003
830.208, 8.253e+003
831.485, 8.323e+003
832.762, 8.478e+003
834.039, 8.286e+003
835.315, 8.361e+003
836.592, 8.482e+003
837.868, 8.366e+003
839.144, 8.591e+003
840.420, 8.399e+003
841.695, 8.596e+003
842.970, 8.661e+003
844.246, 8.512e+003
845.521, 8.616e+003
846.795, 8.627e+003
848.070, 8.779e+003
849.344, 8.839e+003
850.618, 8.659e+003
851.892, 8.743e+003
853.166, 8.721e+003
854.440, 8.857e+003
855.713, 8.916e+003
856.986, 8.966e+003
858.259, 9.152e+003
859.532, 9.058e+003
860.804, 9.093e+003
862.077, 9.262e+003
863.349, 8.964e+003
864.621, 9.090e+003
865.893, 8.984e+003
867.164, 8.890e+003
868.436, 8.990e+003
869.707, 8.846e+003
870.978, 8.921e+003
872.248, 8.907e+003
873.519, 8.825e+003
874.789, 8.918e+003
876.060, 9.010e+003
877.330, 8.968e+003
878.599, 9.043e+003
879.869, 9.005e+003
881.138, 9.059e+003
882.408, 9.045e+003
883.677, 8.930e+003
884.945, 9.047e+003
886.214, 8.952e+003
887.482, 9.076e+003
888.751, 9.104e+003
890.019, 9.062e+003
891.287, 9.225e+003
892.554, 9.054e+003
893.822, 9.143e+003
895.089, 9.210e+003
896.356, 9.087e+003
897.623, 9.369e+003
898.889, 9.111e+003
900.156, 9.204e+003
901.422, 9.255e+003
902.688, 9.174e+003
903.954, 9.378e+003
905.220, 9.166e+003
906.485, 9.246e+003
907.750, 9.373e+003
909.015, 9.239e+003
910.280, 9.351e+003
911.545, 9.237e+003
912.809, 9.210e+003
914.074, 9.398e+003
915.338, 9.154e+003
916.602, 9.308e+003
917.865, 9.325e+003
919.129, 9.161e+003
920.392, 9.381e+003
921.655, 9.277e+003
922.918, 9.312e+003
924.181, 9.324e+003
925.443, 9.234e+003
926.706, 9.443e+003
927.968, 9.330e+003
929.230, 9.408e+003
930.491, 9.539e+003
931.753, 9.383e+003
933.014, 9.551e+003
934.276, 9.528e+003
935.536, 9.443e+003
936.797, 9.704e+003
938.058, 9.498e+003
939.318, 9.701e+003
940.578, 9.693e+003
941.838, 9.661e+003
943.098, 9.908e+003
944.358, 9.824e+003
945.617, 9.963e+003
946.876, 1.010e+004
948.135, 1.008e+004
949.394, 1.036e+004
950.653, 1.040e+004
951.911, 1.047e+004
953.169, 1.060e+004
954.427, 1.065e+004
955.685, 1.108e+004
956.943, 1.119e+004
958.200, 1.144e+004
959.458, 1.187e+004
960.715, 1.219e+004
961.971, 1.264e+004
963.228, 1.332e+004
964.485, 1.409e+004
965.741, 1.539e+004
966.997, 1.662e+004
968.253, 1.891e+004
969.508, 2.162e+004
970.764, 2.579e+004
972.019, 3.247e+004
973.274, 4.118e+004
974.529, 5.397e+004
975.784, 6.554e+004
977.039, 6.554e+004
978.293, 6.554e+004
979.547, 5.796e+004
980.801, 4.499e+004
982.055, 3.542e+004
983.308, 2.847e+004
984.562, 2.392e+004
985.815, 2.093e+004
987.068, 1.852e+004
988.321, 1.720e+004
989.573, 1.586e+004
990.826, 1.474e+004
992.078, 1.439e+004
993.330, 1.351e+004
994.582, 1.329e+004
995.833, 1.278e+004
997.085, 1.246e+004
998.336, 1.255e+004
999.587, 1.234e+004
1000.838, 1.236e+004
1002.088, 1.243e+004
1003.339, 1.195e+004
1004.589, 1.172e+004
1005.839, 1.145e+004
1007.089, 1.111e+004
1008.339, 1.115e+004
1009.588, 1.097e+004
1010.838, 1.091e+004
1012.087, 1.089e+004
1013.336, 1.061e+004
1014.584, 1.069e+004
1015.833, 1.055e+004
1017.081, 1.066e+004
1018.330, 1.072e+004
1019.577, 1.052e+004
1020.825, 1.081e+004
1022.073, 1.055e+004
1023.320, 1.048e+004
1024.567, 1.078e+004
1025.814, 1.044e+004
1027.061, 1.053e+004
1028.308, 1.050e+004
1029.554, 1.032e+004
1030.800, 1.048e+004
1032.046, 1.029e+004
1033.292, 1.029e+004
1034.538, 1.042e+004
1035.783, 1.013e+004
1037.029, 1.035e+004
1038.274, 1.020e+004
1039.519, 1.032e+004
1040.763, 1.031e+004
1042.008, 1.014e+004
1043.252, 1.024e+004
1044.496, 1.028e+004
1045.740, 1.004e+004
1046.984, 1.037e+004
1048.228, 1.028e+004
1049.471, 1.009e+004
1050.714, 1.038e+004
1051.957, 1.019e+004
1053.200, 1.031e+004
1054.442, 1.033e+004
1055.685, 1.024e+004
1056.927, 1.038e+004
1058.169, 1.017e+004
1059.411, 1.027e+004
1060.652, 1.030e+004
1061.894, 1.020e+004
1063.135, 1.024e+004
1064.376, 1.027e+004
1065.617, 1.025e+004
1066.858, 1.043e+004
1068.098, 1.026e+004
1069.339, 1.033e+004
1070.579, 1.029e+004
1071.819, 1.032e+004
1073.058, 1.038e+004
1074.298, 1.036e+004
1075.537, 1.027e+004
1076.776, 1.058e+004
1078.015, 1.036e+004
1079.254, 1.056e+004
1080.493, 1.060e+004
1081.731, 1.043e+004
1082.969, 1.074e+004
1084.207, 1.051e+004
1085.445, 1.057e+004
1086.683, 1.070e+004
1087.920, 1.045e+004
1089.157, 1.057e+004
1090.394, 1.045e+004
1091.631, 1.039e+004
1092.868, 1.058e+004
1094.105, 1.042e+004
1095.341, 1.041e+004
1096.577, 1.059e+004
1097.813, 1.046e+004
1099.049, 1.060e+004
1100.284, 1.048e+004
1101.519, 1.044e+004
1102.755, 1.065e+004
1103.990, 1.050e+004
1105.224, 1.061e+004
1106.459, 1.067e+004
1107.693, 1.050e+004
1108.928, 1.072e+004
1110.162, 1.063e+004
1111.395, 1.078e+004
1112.629, 1.077e+004
1113.863, 1.067e+004
1115.096, 1.088e+004
1116.329, 1.079e+004
1117.562, 1.080e+004
1118.795, 1.097e+004
1120.027, 1.080e+004
1121.259, 1.095e+004
1122.492, 1.105e+004
1123.723, 1.096e+004
1124.955, 1.109e+004
1126.187, 1.105e+004
1127.418, 1.095e+004
1128.649, 1.123e+004
1129.880, 1.108e+004
1131.111, 1.120e+004
1132.342, 1.133e+004
1133.572, 1.120e+004
1134.802, 1.141e+004
1136.033, 1.121e+004
1137.262, 1.127e+004
1138.492, 1.146e+004
1139.722, 1.116e+004
1140.951, 1.132e+004
1142.180, 1.130e+004
1143.409, 1.118e+004
1144.638, 1.128e+004
1145.866, 1.109e+004
1147.095, 1.116e+004
1148.323, 1.129e+004
1149.551, 1.092e+004
1150.779, 1.107e+004
1152.006, 1.105e+004
1153.234, 1.082e+004
1154.461, 1.104e+004
1155.688, 1.097e+004
1156.915, 1.076e+004
1158.141, 1.101e+004
1159.368, 1.086e+004
1160.594, 1.094e+004
1161.820, 1.096e+004
1163.046, 1.072e+004
1164.272, 1.088e+004
1165.498, 1.083e+004
1166.723, 1.081e+004
1167.948, 1.087e+004
1169.173, 1.082e+004
1170.398, 1.097e+004
1171.623, 1.092e+004
1172.847, 1.079e+004
1174.071, 1.115e+004
1175.295, 1.072e+004
1176.519, 1.091e+004
1177.743, 1.106e+004
1178.966, 1.088e+004
1180.190, 1.102e+004
1181.413, 1.098e+004
1182.636, 1.076e+004
1183.858, 1.114e+004
1185.081, 1.092e+004
1186.303, 1.081e+004
1187.526, 1.110e+004
1188.748, 1.090e+004
1189.969, 1.106e+004
1191.191, 1.099e+004
1192.412, 1.078e+004
1193.634, 1.113e+004
1194.855, 1.097e+004
1196.076, 1.088e+004
1197.296, 1.107e+004
1198.517, 1.090e+004
1199.737, 1.091e+004
1200.957, 1.106e+004
1202.177, 1.081e+004
1203.397, 1.105e+004
1204.617, 1.102e+004
1205.836, 1.103e+004
1207.055, 1.110e+004
1208.274, 1.082e+004
1209.493, 1.105e+004
1210.712, 1.117e+004
1211.930, 1.092e+004
1213.148, 1.116e+004
1214.367, 1.103e+004
1215.584, 1.095e+004
1216.802, 1.137e+004
1218.020, 1.097e+004
1219.237, 1.123e+004
1220.454, 1.116e+004
1221.671, 1.099e+004
1222.888, 1.119e+004
1224.105, 1.114e+004
1225.321, 1.103e+004
1226.537, 1.120e+004
1227.753, 1.102e+004
1228.969, 1.124e+004
1230.185, 1.114e+004
1231.400, 1.101e+004
1232.616, 1.125e+004
1233.831, 1.110e+004
1235.046, 1.108e+004
1236.261, 1.143e+004
1237.475, 1.107e+004
1238.689, 1.127e+004
1239.904, 1.132e+004
1241.118, 1.124e+004
1242.332, 1.140e+004
1243.545, 1.136e+004
1244.759, 1.115e+004
1245.972, 1.146e+004
1247.185, 1.130e+004
1248.398, 1.133e+004
1249.611, 1.138e+004
1250.823, 1.121e+004
1252.036, 1.136e+004
1253.248, 1.136e+004
1254.460, 1.122e+004
1255.671, 1.145e+004
1256.883, 1.133e+004
1258.095, 1.130e+004
1259.306, 1.151e+004
1260.517, 1.125e+004
1261.728, 1.151e+004
1262.938, 1.141e+004
1264.149, 1.126e+004
1265.359, 1.170e+004
1266.569, 1.149e+004
1267.779, 1.144e+004
1268.989, 1.159e+004
1270.199, 1.144e+004
1271.408, 1.181e+004
1272.617, 1.161e+004
1273.826, 1.147e+004
1275.035, 1.167e+004
1276.244, 1.160e+004
1277.452, 1.155e+004
1278.661, 1.163e+004
1279.869, 1.133e+004
1281.077, 1.147e+004
1282.285, 1.158e+004
1283.492, 1.128e+004
1284.700, 1.166e+004
1285.907, 1.147e+004
1287.114, 1.146e+004
1288.321, 1.168e+004
1289.527, 1.156e+004
1290.734, 1.144e+004
1291.940, 1.176e+004
1293.146, 1.160e+004
1294.352, 1.177e+004
1295.558, 1.167e+004
1296.763, 1.149e+004
1297.969, 1.180e+004
1299.174, 1.143e+004
1300.379, 1.162e+004
1301.584, 1.186e+004
1302.788, 1.148e+004
1303.993, 1.170e+004
1305.197, 1.168e+004
1306.401, 1.160e+004
1307.605, 1.185e+004
1308.809, 1.166e+004
1310.013, 1.180e+004
1311.216, 1.189e+004
1312.419, 1.184e+004
1313.622, 1.185e+004
1314.825, 1.208e+004
1316.028, 1.189e+004
1317.230, 1.193e+004
1318.432, 1.199e+004
1319.634, 1.192e+004
1320.836, 1.214e+004
1322.038, 1.187e+004
1323.240, 1.187e+004
1324.441, 1.204e+004
1325.642, 1.179e+004
1326.843, 1.200e+004
1328.044, 1.190e+004
1329.245, 1.176e+004
1330.445, 1.203e+004
1331.645, 1.184e+004
1332.845, 1.182e+004
1334.045, 1.202e+004
1335.245, 1.183e+004
1336.445, 1.198e+004
1337.644, 1.213e+004
1338.843, 1.166e+004
1340.042, 1.197e+004
1341.241, 1.196e+004
1342.440, 1.179e+004
1343.638, 1.205e+004
1344.836, 1.186e+004
1346.034, 1.187e+004
1347.232, 1.223e+004
1348.430, 1.178e+004
1349.628, 1.201e+004
1350.825, 1.212e+004
1352.022, 1.184e+004
1353.219, 1.205e+004
1354.416, 1.201e+004
1355.613, 1.200e+004
1356.809, 1.219e+004
1358.005, 1.194e+004
1359.202, 1.185e+004
1360.398, 1.280e+004
1361.593, 1.201e+004
1362.789, 1.216e+004
1363.984, 1.215e+004
1365.179, 1.202e+004
1366.374, 1.226e+004
1367.569, 1.201e+004
1368.764, 1.201e+004
1369.958, 1.238e+004
1371.153, 1.204e+004
1372.347, 1.225e+004
1373.541, 1.234e+004
1374.735, 1.210e+004
1375.928, 1.232e+004
1377.122, 1.253e+004
1378.315, 1.211e+004
1379.508, 1.258e+004
1380.701, 1.224e+004
1381.893, 1.218e+004
1383.086, 1.251e+004
1384.278, 1.221e+004
1385.470, 1.252e+004
1386.662, 1.253e+004
1387.854, 1.220e+004
1389.046, 1.253e+004
1390.237, 1.240e+004
1391.428, 1.233e+004
1392.619, 1.252e+004
1393.810, 1.231e+004
1395.001, 1.229e+004
1396.191, 1.264e+004
1397.382, 1.230e+004
1398.572, 1.249e+004
1399.762, 1.254e+004
1400.952, 1.233e+004
1402.141, 1.272e+004
1403.331, 1.242e+004
1404.520, 1.241e+004
1405.709, 1.264e+004
1406.898, 1.261e+004
1408.087, 1.247e+004
1409.275, 1.269e+004
1410.464, 1.240e+004
1411.652, 1.277e+004
1412.840, 1.281e+004
1414.028, 1.255e+004
1415.215, 1.285e+004
1416.403, 1.271e+004
1417.590, 1.250e+004
1418.777, 1.288e+004
1419.964, 1.264e+004
1421.151, 1.263e+004
1422.338, 1.298e+004
1423.524, 1.269e+004
1424.710, 1.288e+004
1425.896, 1.302e+004
1427.082, 1.263e+004
1428.268, 1.313e+004
1429.453, 1.303e+004
1430.639, 1.279e+004
1431.824, 1.314e+004
1433.009, 1.305e+004
1434.194, 1.306e+004
1435.378, 1.332e+004
1436.563, 1.304e+004
1437.747, 1.336e+004
1438.931, 1.352e+004
1440.115, 1.334e+004
1441.299, 1.373e+004
1442.482, 1.369e+004
1443.666, 1.368e+004
1444.849, 1.387e+004
1446.032, 1.369e+004
1447.215, 1.371e+004
1448.397, 1.417e+004
1449.580, 1.374e+004
1450.762, 1.407e+004
1451.944, 1.412e+004
1453.126, 1.375e+004
1454.308, 1.416e+004
1455.490, 1.407e+004
1456.671, 1.378e+004
1457.852, 1.420e+004
1459.033, 1.395e+004
1460.214, 1.390e+004
1461.395, 1.414e+004
1462.575, 1.370e+004
1463.756, 1.395e+004
1464.936, 1.389e+004
1466.116, 1.371e+004
1467.296, 1.367e+004
1468.475, 1.387e+004
1469.655, 1.341e+004
1470.834, 1.390e+004
1472.013, 1.356e+004
1473.192, 1.350e+004
1474.371, 1.365e+004
1475.550, 1.344e+004
1476.728, 1.331e+004
1477.906, 1.368e+004
1479.084, 1.329e+004
1480.262, 1.366e+004
1481.440, 1.367e+004
1482.617, 1.332e+004
1483.795, 1.376e+004
1484.972, 1.359e+004
1486.149, 1.333e+004
1487.326, 1.360e+004
1488.502, 1.353e+004
1489.679, 1.349e+004
1490.855, 1.376e+004
1492.031, 1.342e+004
1493.207, 1.344e+004
1494.383, 1.358e+004
1495.559, 1.321e+004
1496.734, 1.343e+004
1497.909, 1.359e+004
1499.084, 1.323e+004
1500.259, 1.359e+004
1501.434, 1.350e+004
1502.608, 1.326e+004
1503.783, 1.425e+004
1504.957, 1.880e+002
##END=



