##NAMES=Ankerite
##RRUFFID=R050197
##IDEAL CHEMISTRY=CaFe^2+^(CO_3_)_2_
##LOCALITY=Brownley Hill mine, Nenthead, Cumbria, England
##OWNER=RRUFF
##SOURCE=Marcus Origlieri
##DESCRIPTION=Curved saddle-shaped rhombohedral crystals
##STATUS=The identification of this mineral has been confirmed by X-ray diffraction and chemical analysis
##URL=rruff.info/R050197
##MEASURED CHEMISTRY=Ca_1.00_(Fe^2+^_0.52_Mg_0.35_Ca_0.08_Mn^2+^_0.05_)_Î£=1_(CO_3_)_2_ ; where C was not measured but estimated by difference and stoichiometry
##PIN_ID=M00092
##ORIENTATION=Laser parallel to a* (1 0 0). Fiducial mark perpendicular to laser is parallel to c [0 0 1]
114.4400, 7554.000
115.6710, 7605.000
116.9030, 7612.000
118.1340, 7655.000
119.3650, 7701.000
120.5960, 7687.000
121.8270, 7847.000
123.0580, 7821.000
124.2880, 7944.000
125.5190, 7938.000
126.7490, 7916.000
127.9790, 7964.000
129.2090, 8083.000
130.4390, 8226.000
131.6680, 8344.000
132.8980, 8467.724
134.1270, 8593.000
135.3560, 8685.000
136.5850, 8819.000
137.8140, 8880.000
139.0430, 9057.000
140.2710, 9273.000
141.5000, 9418.000
142.7280, 9400.000
143.9560, 9544.000
145.1840, 9585.000
146.4120, 9696.000
147.6390, 9680.000
148.8670, 9641.000
150.0940, 9720.000
151.3210, 9628.000
152.5490, 9719.000
153.7750, 9739.000
155.0020, 9735.000
156.2290, 9814.000
157.4550, 10090.00
158.6810, 10247.00
159.9080, 10627.00
161.1340, 10881.00
162.3590, 11134.00
163.5850, 11389.00
164.8110, 11694.00
166.0360, 11961.00
167.2610, 12223.00
168.4860, 12333.00
169.7110, 12499.00
170.9360, 12474.00
172.1610, 12285.00
173.3850, 11901.00
174.6100, 11671.00
175.8340, 11198.00
177.0580, 10758.00
178.2820, 10526.00
179.5050, 10215.00
180.7290, 9972.000
181.9520, 9633.000
183.1760, 9573.000
184.3990, 9486.000
185.6220, 9565.000
186.8450, 9364.000
188.0670, 9271.000
189.2900, 9345.000
190.5120, 9329.000
191.7340, 9380.000
192.9560, 9329.000
194.1780, 9175.000
195.4000, 9168.000
196.6220, 9252.000
197.8430, 9365.000
199.0640, 9270.000
200.2860, 9301.000
201.5070, 9348.000
202.7270, 9310.000
203.9480, 9257.000
205.1690, 9195.000
206.3890, 9114.000
207.6090, 9186.000
208.8290, 9192.000
210.0490, 9125.000
211.2690, 9069.000
212.4890, 9224.000
213.7080, 9051.000
214.9280, 9329.000
216.1470, 9266.000
217.3660, 9293.000
218.5850, 9267.000
219.8030, 9256.000
221.0220, 9339.000
222.2400, 9371.000
223.4590, 9363.000
224.6770, 9469.000
225.8950, 9415.000
227.1120, 9356.000
228.3300, 9416.000
229.5480, 9390.000
230.7650, 9382.000
231.9820, 9586.000
233.1990, 9564.000
234.4160, 9592.000
235.6330, 9633.000
236.8490, 9693.000
238.0660, 9596.000
239.2820, 9732.000
240.4980, 9808.000
241.7140, 9765.000
242.9300, 9921.000
244.1460, 9817.000
245.3610, 9943.000
246.5770, 10046.00
247.7920, 10069.00
249.0070, 10178.00
250.2220, 10420.00
251.4370, 10441.00
252.6510, 10643.00
253.8660, 10586.00
255.0800, 10831.00
256.2940, 10831.00
257.5080, 11062.00
258.7220, 11396.00
259.9360, 11924.00
261.1490, 11957.00
262.3630, 11905.00
263.5760, 12374.00
264.7890, 12460.00
266.0020, 12855.00
267.2150, 13213.00
268.4270, 13668.00
269.6400, 14241.00
270.8520, 14562.00
272.0640, 15082.00
273.2760, 15516.00
274.4880, 15908.00
275.7000, 16561.00
276.9120, 17160.00
278.1230, 17533.00
279.3340, 17967.00
280.5450, 18287.00
281.7560, 18587.00
282.9670, 18730.00
284.1780, 18882.00
285.3880, 18780.00
286.5980, 18779.00
287.8090, 18607.00
289.0190, 18227.00
290.2290, 17986.00
291.4380, 17540.00
292.6480, 17114.00
293.8570, 16566.00
295.0670, 16118.00
296.2760, 15497.00
297.4850, 14976.00
298.6930, 14507.00
299.9020, 13920.00
301.1110, 13559.00
302.3190, 13274.00
303.5270, 12797.00
304.7350, 12459.00
305.9430, 12194.00
307.1510, 11886.00
308.3580, 11752.00
309.5660, 11724.00
310.7730, 11600.00
311.9800, 11476.00
313.1870, 11257.00
314.3940, 11189.00
315.6010, 11086.00
316.8070, 11087.00
318.0130, 11021.00
319.2200, 10934.00
320.4260, 10959.00
321.6310, 10854.00
322.8370, 10844.00
324.0430, 10889.00
325.2480, 10816.57
326.4540, 10828.00
327.6590, 10782.00
328.8640, 10743.00
330.0680, 10772.00
331.2730, 10730.59
332.4780, 10902.00
333.6820, 10708.00
334.8860, 10703.00
336.0900, 10705.00
337.2940, 10907.00
338.4980, 10687.00
339.7010, 10848.00
340.9050, 10647.00
342.1080, 10751.00
343.3110, 10692.00
344.5140, 10660.00
345.7170, 10687.00
346.9200, 10807.00
348.1220, 10723.00
349.3240, 10803.00
350.5270, 10726.00
351.7290, 10797.00
352.9310, 10792.48
354.1320, 10746.00
355.3340, 10796.00
356.5350, 10758.73
357.7370, 10847.00
358.9380, 10746.00
360.1390, 10732.00
361.3400, 10760.00
362.5400, 10827.00
363.7410, 10792.82
364.9410, 10763.00
366.1410, 10761.00
367.3410, 10802.00
368.5410, 10780.87
369.7410, 10807.10
370.9400, 10859.00
372.1400, 10868.00
373.3390, 10877.00
374.5380, 10970.00
375.7370, 10863.00
376.9360, 10999.00
378.1350, 11034.00
379.3330, 11002.00
380.5310, 11095.00
381.7300, 10986.00
382.9280, 10996.00
384.1260, 11015.00
385.3230, 10998.00
386.5210, 10962.00
387.7180, 11025.00
388.9160, 11116.00
390.1130, 11182.00
391.3100, 11001.00
392.5060, 11130.00
393.7030, 11221.00
394.9000, 11125.00
396.0960, 11219.00
397.2920, 11263.00
398.4880, 11093.00
399.6840, 11195.00
400.8800, 11386.00
402.0750, 11233.00
403.2710, 11263.00
404.4660, 11315.00
405.6610, 11234.00
406.8560, 11379.00
408.0510, 11250.00
409.2450, 11332.00
410.4400, 11331.00
411.6340, 11262.00
412.8280, 11345.00
414.0220, 11270.00
415.2160, 11356.00
416.4100, 11346.00
417.6030, 11403.00
418.7970, 11518.00
419.9900, 11378.00
421.1830, 11477.00
422.3760, 11419.00
423.5690, 11497.00
424.7610, 11492.00
425.9540, 11494.00
427.1460, 11554.00
428.3380, 11562.03
429.5300, 11594.46
430.7220, 11610.00
431.9140, 11641.00
433.1050, 11628.00
434.2970, 11623.00
435.4880, 11638.00
436.6790, 11694.00
437.8700, 11626.00
439.0610, 11665.00
440.2510, 11647.00
441.4420, 11627.00
442.6320, 11787.00
443.8220, 11787.00
445.0120, 11830.00
446.2020, 11697.00
447.3910, 11961.00
448.5810, 11701.00
449.7700, 11827.00
450.9600, 11983.00
452.1490, 11803.00
453.3370, 11881.00
454.5260, 11803.00
455.7150, 11932.00
456.9030, 11936.00
458.0910, 12003.00
459.2800, 11969.00
460.4670, 11921.00
461.6550, 12098.00
462.8430, 12023.00
464.0300, 12012.00
465.2180, 12198.00
466.4050, 12233.00
467.5920, 12064.00
468.7790, 12233.00
469.9650, 12123.00
471.1520, 12089.00
472.3380, 12188.00
473.5250, 12081.00
474.7110, 12153.00
475.8970, 12357.00
477.0820, 12162.00
478.2680, 12315.00
479.4540, 12284.00
480.6390, 12354.00
481.8240, 12302.00
483.0090, 12293.00
484.1940, 12368.00
485.3780, 12451.00
486.5630, 12350.00
487.7470, 12297.00
488.9320, 12442.00
490.1160, 12381.00
491.3000, 12522.00
492.4830, 12493.00
493.6670, 12511.00
494.8500, 12515.00
496.0340, 12543.00
497.2170, 12672.00
498.4000, 12642.63
499.5820, 12691.49
500.7650, 12633.00
501.9480, 12664.00
503.1300, 12603.00
504.3120, 12465.00
505.4940, 12758.00
506.6760, 12693.00
507.8580, 12835.00
509.0390, 12620.00
510.2210, 12796.00
511.4020, 12769.00
512.5830, 12690.00
513.7640, 12785.00
514.9450, 13001.00
516.1250, 12953.00
517.3060, 12989.00
518.4860, 13003.00
519.6660, 12924.00
520.8460, 12955.00
522.0260, 12918.00
523.2060, 12968.00
524.3850, 12967.75
525.5650, 13055.00
526.7440, 13004.00
527.9230, 12993.00
529.1020, 13027.00
530.2810, 12995.00
531.4590, 12968.00
532.6380, 13173.00
533.8160, 13092.00
534.9940, 13233.00
536.1720, 13257.00
537.3500, 13376.00
538.5270, 13134.00
539.7050, 13228.00
540.8820, 13190.00
542.0590, 13294.00
543.2360, 13389.00
544.4130, 13454.00
545.5900, 13243.00
546.7660, 13225.00
547.9430, 13539.00
549.1190, 13255.00
550.2950, 13437.00
551.4710, 13444.00
552.6470, 13324.00
553.8220, 13497.00
554.9980, 13419.00
556.1730, 13439.00
557.3480, 13294.00
558.5230, 13347.00
559.6980, 13594.00
560.8730, 13545.00
562.0470, 13584.00
563.2220, 13580.00
564.3960, 13627.00
565.5700, 13488.00
566.7440, 13546.00
567.9170, 13542.00
569.0910, 13686.00
570.2640, 13605.00
571.4380, 13740.00
572.6110, 13813.00
573.7840, 13635.00
574.9570, 13686.00
576.1290, 13716.00
577.3020, 13782.00
578.4740, 13847.00
579.6460, 13783.00
580.8180, 13822.00
581.9900, 13766.00
583.1620, 13859.00
584.3330, 13944.00
585.5040, 13813.00
586.6760, 13836.00
587.8470, 13951.00
589.0180, 13990.00
590.1880, 14027.00
591.3590, 14099.00
592.5290, 13923.00
593.7000, 14029.00
594.8700, 14015.00
596.0400, 14008.00
597.2090, 14062.00
598.3790, 14043.97
599.5490, 14140.00
600.7180, 14066.00
601.8870, 14158.00
603.0560, 14200.00
604.2250, 14136.00
605.3940, 14116.00
606.5620, 14233.00
607.7300, 14245.00
608.8990, 14150.00
610.0670, 14233.00
611.2350, 14322.00
612.4020, 14289.00
613.5700, 14370.00
614.7370, 14318.00
615.9050, 14373.00
617.0720, 14411.00
618.2390, 14426.00
619.4060, 14477.00
620.5720, 14464.00
621.7390, 14423.00
622.9050, 14537.00
624.0710, 14533.00
625.2370, 14523.00
626.4030, 14629.00
627.5690, 14640.00
628.7340, 14703.00
629.9000, 14599.00
631.0650, 14828.00
632.2300, 14761.00
633.3950, 14749.00
634.5600, 14881.00
635.7240, 14744.00
636.8890, 14798.00
638.0530, 14996.00
639.2170, 14797.00
640.3810, 14845.00
641.5450, 14824.00
642.7080, 14788.05
643.8720, 14858.00
645.0350, 14843.00
646.1980, 14861.00
647.3610, 14963.00
648.5240, 14885.00
649.6870, 14914.00
650.8490, 14969.00
652.0120, 15021.00
653.1740, 14927.00
654.3360, 15051.00
655.4980, 15011.00
656.6600, 15111.00
657.8210, 15166.00
658.9830, 15055.00
660.1440, 15094.00
661.3050, 15109.00
662.4660, 15236.00
663.6270, 15186.00
664.7870, 15293.00
665.9480, 15164.00
667.1080, 15183.00
668.2680, 15274.00
669.4280, 15304.00
670.5880, 15290.00
671.7480, 15233.00
672.9070, 15301.00
674.0670, 15284.00
675.2260, 15454.00
676.3850, 15379.00
677.5440, 15279.00
678.7030, 15424.00
679.8610, 15335.00
681.0200, 15380.00
682.1780, 15343.00
683.3360, 15344.00
684.4940, 15284.00
685.6520, 15342.18
686.8090, 15498.00
687.9670, 15446.00
689.1240, 15603.00
690.2810, 15648.00
691.4380, 15541.00
692.5950, 15566.00
693.7520, 15606.00
694.9080, 15676.00
696.0650, 15737.00
697.2210, 15763.00
698.3770, 15814.51
699.5330, 15715.00
700.6880, 15907.00
701.8440, 15821.00
702.9990, 15908.00
704.1550, 15946.00
705.3100, 16123.00
706.4650, 16023.00
707.6190, 16116.00
708.7740, 16064.00
709.9290, 16281.00
711.0830, 16318.00
712.2370, 16341.00
713.3910, 16447.00
714.5450, 16459.00
715.6980, 16709.00
716.8520, 16836.00
718.0050, 16925.20
719.1580, 16977.71
720.3110, 17054.00
721.4640, 16961.00
722.6170, 16845.00
723.7700, 16843.00
724.9220, 16907.00
726.0740, 16846.00
727.2260, 16805.00
728.3780, 16735.00
729.5300, 16691.00
730.6810, 16630.78
731.8330, 16635.00
732.9840, 16507.00
734.1350, 16479.00
735.2860, 16407.44
736.4370, 16422.57
737.5880, 16364.00
738.7380, 16468.00
739.8880, 16450.60
741.0390, 16553.00
742.1890, 16515.00
743.3380, 16564.00
744.4880, 16636.00
745.6380, 16594.00
746.7870, 16558.00
747.9360, 16614.00
749.0850, 16586.00
750.2340, 16534.00
751.3830, 16583.00
752.5310, 16683.00
753.6800, 16540.00
754.8280, 16653.00
755.9760, 16703.00
757.1240, 16506.00
758.2720, 16793.00
759.4190, 16630.00
760.5670, 16716.00
761.7140, 16729.00
762.8610, 16617.00
764.0080, 16835.00
765.1550, 16816.00
766.3020, 16853.00
767.4480, 16837.00
768.5950, 16849.30
769.7410, 16869.00
770.8870, 16872.00
772.0330, 16908.00
773.1780, 16935.00
774.3240, 17032.00
775.4690, 17017.00
776.6140, 16899.00
777.7590, 16948.00
778.9040, 17001.00
780.0490, 17006.00
781.1940, 17153.00
782.3380, 17177.00
783.4820, 17057.00
784.6260, 17108.00
785.7700, 17195.00
786.9140, 17141.00
788.0580, 17206.00
789.2010, 17093.00
790.3450, 17253.00
791.4880, 17191.00
792.6310, 17315.00
793.7730, 17229.00
794.9160, 17311.00
796.0590, 17259.00
797.2010, 17273.55
798.3430, 17291.00
799.4850, 17365.00
800.6270, 17433.00
801.7690, 17626.00
802.9100, 17558.00
804.0520, 17422.00
805.1930, 17564.00
806.3340, 17457.00
807.4750, 17503.00
808.6160, 17707.00
809.7560, 17577.00
810.8970, 17479.00
812.0370, 17530.00
813.1770, 17656.00
814.3170, 17730.00
815.4570, 17626.00
816.5960, 17695.00
817.7360, 17740.00
818.8750, 17620.00
820.0140, 17761.00
821.1530, 17854.00
822.2920, 17763.00
823.4310, 17819.00
824.5690, 17977.00
825.7070, 17830.00
826.8460, 17871.00
827.9840, 18022.00
829.1220, 17991.00
830.2590, 17997.00
831.3970, 18037.00
832.5340, 18005.11
833.6710, 18026.97
834.8080, 18025.00
835.9450, 18050.00
837.0820, 18081.11
838.2190, 18207.00
839.3550, 18173.00
840.4910, 18237.00
841.6270, 18322.00
842.7630, 18221.00
843.8990, 18213.00
845.0350, 18251.00
846.1700, 18317.00
847.3060, 18354.00
848.4410, 18499.00
849.5760, 18391.00
850.7100, 18330.00
851.8450, 18383.00
852.9800, 18632.00
854.1140, 18370.00
855.2480, 18539.00
856.3820, 18571.00
857.5160, 18440.00
858.6500, 18647.00
859.7830, 18750.00
860.9170, 18734.00
862.0500, 18539.00
863.1830, 18648.00
864.3160, 18712.00
865.4480, 18905.00
866.5810, 18789.00
867.7130, 18814.00
868.8460, 18721.00
869.9780, 18834.00
871.1100, 18740.00
872.2410, 19022.00
873.3730, 19011.00
874.5050, 19024.00
875.6360, 18841.00
876.7670, 19188.00
877.8980, 18844.00
879.0290, 19030.00
880.1590, 19141.00
881.2900, 19061.00
882.4200, 18933.00
883.5500, 19107.00
884.6800, 19059.00
885.8100, 19142.00
886.9400, 19282.00
888.0690, 19163.00
889.1990, 19133.00
890.3280, 19182.00
891.4570, 19265.00
892.5860, 19235.00
893.7140, 19374.00
894.8430, 19211.00
895.9710, 19175.00
897.1000, 19213.00
898.2280, 19343.00
899.3560, 19332.00
900.4830, 19496.00
901.6110, 19336.00
902.7380, 19511.00
903.8660, 19439.00
904.9930, 19411.00
906.1200, 19377.00
907.2460, 19456.00
908.3730, 19564.00
909.5000, 19598.00
910.6260, 19634.53
911.7520, 19481.00
912.8780, 19645.00
914.0040, 19657.00
915.1290, 19643.00
916.2550, 19778.00
917.3800, 19654.00
918.5050, 19714.00
919.6300, 19757.00
920.7550, 19845.00
921.8800, 19718.00
923.0040, 19740.00
924.1290, 19871.00
925.2530, 19833.00
926.3770, 20028.00
927.5010, 19986.00
928.6250, 19909.00
929.7480, 20070.00
930.8720, 20066.00
931.9950, 19973.00
933.1180, 20176.00
934.2410, 20154.00
935.3640, 20030.00
936.4860, 19975.00
937.6090, 20239.00
938.7310, 20139.00
939.8530, 20193.00
940.9750, 20287.00
942.0970, 20164.00
943.2180, 20140.00
944.3400, 20271.00
945.4610, 20237.00
946.5820, 20415.00
947.7030, 20383.00
948.8240, 20537.00
949.9450, 20695.00
951.0650, 20408.00
952.1860, 20631.00
953.3060, 20551.00
954.4260, 20582.00
955.5460, 20674.00
956.6650, 20580.00
957.7850, 20678.00
958.9040, 20682.00
960.0230, 20781.00
961.1420, 20727.00
962.2610, 20782.76
963.3800, 20876.00
964.4990, 20822.00
965.6170, 20763.00
966.7350, 20751.00
967.8530, 20798.00
968.9710, 20807.00
970.0890, 20868.00
971.2070, 20844.00
972.3240, 21013.00
973.4410, 20894.00
974.5580, 21029.00
975.6750, 20869.00
976.7920, 21218.00
977.9090, 21061.00
979.0250, 20976.00
980.1410, 21287.00
981.2580, 20968.00
982.3740, 21364.00
983.4890, 21345.00
984.6050, 21201.00
985.7200, 21329.00
986.8360, 21344.00
987.9510, 21314.00
989.0660, 21209.00
990.1810, 21285.00
991.2950, 21224.00
992.4100, 21500.00
993.5240, 21551.00
994.6390, 21490.00
995.7530, 21512.00
996.8660, 21518.00
997.9800, 21586.00
999.0940, 21457.00
1000.207, 21616.00
1001.320, 21718.00
1002.433, 21546.00
1003.546, 21588.00
1004.659, 21702.00
1005.772, 21760.00
1006.884, 21798.00
1007.996, 21800.00
1009.108, 21924.00
1010.220, 21816.00
1011.332, 22022.00
1012.444, 21930.00
1013.555, 21978.00
1014.666, 21735.00
1015.777, 21983.00
1016.888, 21918.00
1017.999, 22015.00
1019.110, 22036.00
1020.220, 22085.00
1021.331, 22116.00
1022.441, 22131.77
1023.551, 22055.00
1024.661, 22139.00
1025.770, 22158.54
1026.880, 22117.00
1027.989, 22314.00
1029.098, 22276.00
1030.207, 22359.00
1031.316, 22315.00
1032.425, 22506.00
1033.533, 22477.00
1034.642, 22445.00
1035.750, 22636.00
1036.858, 22514.00
1037.966, 22665.00
1039.073, 22647.00
1040.181, 22538.00
1041.288, 22586.00
1042.396, 22573.00
1043.503, 22631.00
1044.610, 22787.00
1045.716, 22785.00
1046.823, 22875.64
1047.929, 22878.00
1049.036, 23008.00
1050.142, 22895.00
1051.248, 22988.00
1052.353, 23048.00
1053.459, 23002.00
1054.564, 23032.00
1055.670, 23127.00
1056.775, 23181.00
1057.880, 23257.00
1058.985, 23355.00
1060.089, 23396.00
1061.194, 23251.00
1062.298, 23482.00
1063.402, 23381.00
1064.506, 23612.00
1065.610, 23662.00
1066.713, 23734.00
1067.817, 23893.42
1068.920, 23978.00
1070.023, 24111.00
1071.126, 24207.00
1072.229, 24261.00
1073.332, 24278.00
1074.435, 24607.00
1075.537, 24601.00
1076.639, 24752.00
1077.741, 25063.00
1078.843, 25541.00
1079.945, 26287.00
1081.046, 27075.00
1082.148, 28046.00
1083.249, 29624.00
1084.350, 31708.00
1085.451, 34473.00
1086.551, 37851.00
1087.652, 42178.00
1088.752, 46722.00
1089.853, 51179.00
1090.953, 54698.00
1092.053, 57052.00
1093.152, 57256.00
1094.252, 53803.00
1095.351, 49259.00
1096.451, 44084.00
1097.550, 39458.00
1098.649, 35536.00
1099.748, 32366.00
1100.846, 30179.00
1101.945, 28554.00
1103.043, 27386.00
1104.141, 26604.00
1105.239, 25856.00
1106.337, 25328.00
1107.434, 25236.00
1108.532, 25114.00
1109.629, 24729.00
1110.726, 24699.00
1111.823, 24794.00
1112.920, 24345.00
1114.017, 24483.00
1115.113, 24482.00
1116.210, 24645.00
1117.306, 24539.00
1118.402, 24366.00
1119.498, 24697.00
1120.593, 24636.00
1121.689, 24799.00
1122.784, 24770.00
1123.879, 24774.00
1124.974, 24586.00
1126.069, 24789.00
1127.164, 24453.00
1128.259, 24328.00
1129.353, 24587.00
1130.447, 24594.00
1131.541, 24521.00
1132.635, 24368.00
1133.729, 24639.00
1134.822, 24706.00
1135.916, 24513.00
1137.009, 24596.00
1138.102, 24537.00
1139.195, 24671.00
1140.288, 24668.00
1141.380, 24804.00
1142.473, 24664.00
1143.565, 24944.00
1144.657, 24821.00
1145.749, 24772.00
1146.841, 24821.00
1147.932, 24805.00
1149.024, 24817.00
1150.115, 24871.00
1151.206, 24896.00
1152.297, 24939.40
1153.388, 25071.00
1154.479, 25040.00
1155.569, 25121.40
1156.659, 25196.00
1157.750, 25166.00
1158.839, 25060.00
1159.929, 25016.00
1161.019, 24941.00
1162.108, 24964.13
1163.198, 24970.14
1164.287, 25041.00
1165.376, 25080.00
1166.465, 25108.00
1167.553, 25216.00
1168.642, 25119.00
1169.730, 25318.00
1170.818, 25529.00
1171.906, 25343.00
1172.994, 25374.00
1174.082, 25320.00
1175.170, 25303.00
1176.257, 25593.00
1177.344, 25462.00
1178.431, 25474.00
1179.518, 25552.00
1180.605, 25391.00
1181.691, 25480.00
1182.778, 25680.00
1183.864, 25721.00
1184.950, 25630.00
1186.036, 25691.00
1187.122, 25525.00
1188.207, 25706.00
1189.292, 25498.00
1190.378, 25592.00
1191.463, 25610.00
1192.548, 25765.00
1193.632, 25802.00
1194.717, 25863.07
1195.801, 25928.89
1196.886, 25941.00
1197.970, 26009.00
1199.054, 25997.00
1200.137, 26037.00
1201.221, 26007.00
1202.305, 25920.00
1203.388, 25833.00
1204.471, 26064.00
1205.554, 26271.00
1206.637, 26218.00
1207.719, 26208.00
1208.802, 26202.00
1209.884, 26223.00
1210.966, 26227.93
1212.048, 26189.00
1213.130, 26256.00
1214.212, 26279.00
1215.293, 26278.00
1216.374, 26421.00
1217.456, 26345.25
1218.536, 26376.00
1219.617, 26309.00
1220.698, 26480.00
1221.778, 26573.00
1222.859, 26472.00
1223.939, 26562.00
1225.019, 26548.00
1226.099, 26714.00
1227.178, 26556.00
1228.258, 26549.00
1229.337, 26601.00
1230.417, 26764.00
1231.496, 26679.00
1232.574, 26780.19
1233.653, 26674.00
1234.732, 26810.00
1235.810, 26808.00
1236.888, 26718.00
1237.966, 27008.00
1239.044, 26876.00
1240.122, 26948.00
1241.199, 26921.00
1242.277, 26828.00
1243.354, 27022.00
1244.431, 27148.00
1245.508, 26840.00
1246.585, 27019.00
1247.661, 27085.00
1248.738, 27306.00
1249.814, 27124.00
1250.890, 27239.00
1251.966, 27248.00
1253.042, 27186.00
1254.117, 27463.00
1255.193, 27424.00
1256.268, 27200.00
1257.343, 27315.00
1258.418, 27562.00
1259.493, 27257.00
1260.567, 27124.00
1261.642, 27586.00
1262.716, 27535.00
1263.790, 27479.00
1264.864, 27429.00
1265.938, 27422.00
1267.011, 27540.00
1268.085, 27278.00
1269.158, 27407.00
1270.231, 27627.00
1271.304, 27557.00
1272.377, 27826.00
1273.450, 27725.00
1274.522, 27750.00
1275.594, 27836.00
1276.666, 27885.00
1277.738, 27730.00
1278.810, 27715.00
1279.882, 27755.84
1280.953, 27938.00
1282.025, 27825.00
1283.096, 27947.00
1284.167, 27924.00
1285.238, 27946.00
1286.308, 28069.00
1287.379, 28023.00
1288.449, 28082.83
1289.519, 28015.00
1290.589, 28129.00
1291.659, 28134.00
1292.729, 28156.00
1293.798, 28464.00
1294.868, 28283.00
1295.937, 28428.00
1297.006, 28330.00
1298.075, 28526.00
1299.143, 28506.00
1300.212, 28245.00
1301.280, 28617.00
1302.348, 28334.00
1303.416, 28513.00
1304.484, 28537.00
1305.552, 28488.00
1306.620, 28426.00
1307.687, 28549.00
1308.754, 28512.00
1309.821, 28759.00
1310.888, 28642.00
1311.955, 28727.00
1313.021, 28957.00
1314.088, 28732.00
1315.154, 28684.00
1316.220, 28733.00
1317.286, 28739.00
1318.352, 28713.00
1319.417, 28786.74
1320.483, 28798.97
1321.548, 28904.00
1322.613, 28886.00
1323.678, 28949.00
1324.743, 28995.00
1325.807, 28763.00
1326.872, 28894.00
1327.936, 28796.00
1329.000, 28945.00
1330.064, 29015.00
1331.128, 28976.00
1332.191, 29359.00
1333.255, 29126.00
1334.318, 28961.00
1335.381, 29298.00
1336.444, 29097.00
1337.507, 29238.00
1338.569, 29324.00
1339.632, 29238.00
1340.694, 29296.00
1341.756, 29385.00
1342.818, 29458.00
1343.880, 29319.00
1344.941, 29566.00
1346.003, 29642.00
1347.064, 29400.00
1348.125, 29380.00
1349.186, 29634.00
1350.247, 29628.00
1351.308, 29735.00
1352.368, 29791.00
1353.428, 29751.00
1354.489, 29818.42
1355.549, 29757.00
1356.608, 29899.00
1357.668, 29693.00
1358.727, 29817.00
1359.787, 29754.00
1360.846, 29524.00
1361.905, 30073.00
1362.964, 29793.00
1364.022, 29812.00
1365.081, 30192.00
1366.139, 30072.00
1367.197, 29831.00
1368.255, 30057.00
1369.313, 29922.00
1370.371, 30176.00
1371.428, 29907.00
1372.486, 29859.00
1373.543, 29975.00
1374.600, 30296.00
1375.657, 30145.00
1376.713, 30247.00
1377.770, 30222.00
1378.826, 30385.00
1379.882, 30167.00
1380.938, 30344.00
1381.994, 30237.00
1383.050, 30500.00
1384.106, 30454.00
1385.161, 30493.00
1386.216, 30320.00
1387.271, 30470.00
1388.326, 30276.00
1389.381, 30666.00
1390.435, 30725.00
1391.490, 30645.00
1392.544, 30635.00
1393.598, 30699.00
1394.652, 30764.00
1395.705, 30661.00
1396.759, 30642.00
1397.812, 30587.00
1398.866, 30706.00
1399.919, 30774.00
1400.972, 30893.00
1402.024, 30757.00
1403.077, 30730.00
1404.129, 30789.65
1405.181, 30763.00
1406.233, 30889.00
1407.285, 30951.00
1408.337, 31045.00
1409.389, 31118.69
1410.440, 31168.53
1411.491, 31257.00
1412.542, 31252.00
1413.593, 31330.00
1414.644, 31350.00
1415.695, 31393.00
1416.745, 31292.00
1417.795, 31474.00
1418.845, 31557.00
1419.895, 31411.00
1420.945, 31586.00
1421.995, 31700.00
1423.044, 31652.00
1424.093, 31808.00
1425.142, 31922.00
1426.191, 32128.00
1427.240, 32146.43
1428.289, 32041.00
1429.337, 32131.00
1430.385, 32250.00
1431.433, 32104.00
1432.481, 32306.00
1433.529, 32282.00
1434.577, 32544.00
1435.624, 32609.00
1436.672, 32739.00
1437.719, 32351.00
1438.766, 32680.00
1439.812, 32628.00
1440.859, 32544.00
1441.905, 32701.00
1442.952, 32639.00
1443.998, 32584.00
1445.044, 32572.00
1446.090, 32427.00
1447.135, 32304.00
1448.181, 32661.00
1449.226, 32307.00
1450.271, 32506.00
1451.316, 32399.00
1452.361, 32497.00
1453.405, 32456.00
1454.450, 32437.00
1455.494, 32483.00
1456.538, 32653.00
1457.582, 32558.00
1458.626, 32605.73
1459.670, 32598.00
1460.713, 32519.00
1461.757, 32558.00
1462.800, 32439.00
1463.843, 32487.00
1464.886, 32542.00
1465.928, 32420.00
1466.971, 32618.00
1468.013, 32647.00
1469.055, 32819.00
1470.097, 32613.00
1471.139, 32858.00
1472.181, 32827.00
1473.222, 32619.00
1474.263, 32636.00
1475.305, 32613.03
1476.346, 32747.00
1477.386, 32669.00
1478.427, 32777.00
1479.468, 32826.00
1480.508, 32897.00
1481.548, 33088.00
1482.588, 33024.00
1483.628, 33140.00
1484.668, 32873.00
1485.707, 32952.00
1486.747, 33041.00
1487.786, 33099.00
1488.825, 33126.00
1489.864, 33176.00
1490.902, 33206.26
1491.941, 33032.00
1492.979, 33238.00
1494.017, 33276.00
1495.055, 33237.00
1496.093, 33477.00
1497.131, 33504.00
1498.168, 33363.00
1499.206, 33592.00
1500.243, 33271.00
1501.280, 33724.00
1502.317, 33628.00
1503.354, 33440.00
1504.390, 33673.00
1505.426, 33614.00
1506.463, 33604.00
1507.499, 33626.00
1508.535, 33745.00
1509.570, 33511.00
1510.606, 33586.00
1511.641, 33752.00
1512.676, 33787.00
1513.711, 33935.00
1514.746, 34006.71
1515.781, 33880.00
1516.816, 34080.00
1517.850, 34126.00
1518.884, 33998.00
1519.918, 34129.00
1520.952, 34186.00
1521.986, 33948.00
1523.019, 34144.00
1524.053, 34124.00
1525.086, 34274.00
1526.119, 34103.00
1527.152, 34179.00
1528.185, 34190.00
1529.217, 34164.89
1530.250, 34293.00
1531.282, 34241.00
1532.314, 34371.00
1533.346, 34494.00
1534.377, 34525.00
1535.409, 34613.00
1536.440, 34685.00
1537.472, 34694.02
1538.503, 34461.00
1539.534, 34647.00
1540.564, 34648.00
1541.595, 34471.00
1542.625, 34543.00
1543.656, 34803.00
1544.686, 34803.00
1545.716, 34873.00
1546.745, 34704.00
1547.775, 34948.00
1548.804, 35011.00
1549.834, 34852.00
1550.863, 34898.00
1551.892, 35253.00
1552.920, 35299.00
1553.949, 35120.00
1554.977, 34866.00
1556.006, 35135.00
1557.034, 35230.00
1558.062, 35157.00
1559.089, 35142.00
1560.117, 35047.00
1561.144, 35296.00
1562.172, 35190.00
1563.199, 35200.00
1564.226, 35129.00
1565.252, 35513.00
1566.279, 35452.00
1567.305, 35149.00
1568.332, 35619.00
1569.358, 35554.00
1570.384, 35740.00
##END=



