##NAMES=Annite
##RRUFFID=R060204
##IDEAL CHEMISTRY=KFe^2+^_3_AlSi_3_O_10_(OH)_2_
##LOCALITY=Mont Saint-Hilaire, Rouville County, Quebec, Canada
##OWNER=RRUFF
##SOURCE=Royal Ontario Museum
##DESCRIPTION=Black mica with pseudohexagonal outines
##STATUS=The identification of this mineral has been confirmed by X-ray diffraction and chemical analysis
##URL=rruff.info/R060204
##MEASURED CHEMISTRY=(K_0.96_Na_0.04_)_Σ=1_(Fe^2+^_2.04_Mg_0.81_Mn_0.09_Ti_0.03_[box]_0.03_)_Σ=3_(Si_3.00_Al_1.00_)O_10_((OH)_1.54_F_0.46_)_Σ=2_
##PIN_ID=M00366
##ORIENTATION=Laser parallel to -b* (0 -1 0). Fiducial mark perpendicular to laser is parallel to c [0 0 1]
235.6330, 25156.00
236.8490, 25043.00
238.0660, 25053.00
239.2820, 25013.00
240.4980, 25107.00
241.7140, 25061.00
242.9300, 25045.00
244.1460, 24907.00
245.3610, 25028.00
246.5770, 25114.00
247.7920, 25117.00
249.0070, 24977.00
250.2220, 25002.00
251.4370, 25176.00
252.6510, 25180.00
253.8660, 25302.00
255.0800, 25191.00
256.2940, 25388.00
257.5080, 25561.00
258.7220, 25754.24
259.9360, 25750.28
261.1490, 25791.89
262.3630, 25776.00
263.5760, 25679.00
264.7890, 25856.00
266.0020, 25764.00
267.2150, 25712.00
268.4270, 25820.00
269.6400, 25892.00
270.8520, 25779.00
272.0640, 25882.00
273.2760, 25931.00
274.4880, 26181.00
275.7000, 26263.00
276.9120, 26063.00
278.1230, 26027.00
279.3340, 25870.00
280.5450, 25710.00
281.7560, 25429.00
282.9670, 25564.00
284.1780, 25757.00
285.3880, 25479.00
286.5980, 25248.00
287.8090, 25591.00
289.0190, 25477.00
290.2290, 25498.00
291.4380, 25386.00
292.6480, 25575.00
293.8570, 25718.00
295.0670, 25910.00
296.2760, 25935.74
297.4850, 26025.00
298.6930, 25932.00
299.9020, 25787.00
301.1110, 25705.00
302.3190, 25669.00
303.5270, 25601.81
304.7350, 25422.00
305.9430, 25515.00
307.1510, 25363.00
308.3580, 25240.00
309.5660, 25207.00
310.7730, 25313.00
311.9800, 25134.00
313.1870, 25312.00
314.3940, 25441.00
315.6010, 25193.00
316.8070, 25386.00
318.0130, 25109.00
319.2200, 25193.00
320.4260, 25277.00
321.6310, 25429.00
322.8370, 25338.00
324.0430, 25265.00
325.2480, 25407.00
326.4540, 25221.00
327.6590, 25326.01
328.8640, 25343.00
330.0680, 25374.00
331.2730, 25437.00
332.4780, 25348.00
333.6820, 25530.00
334.8860, 25387.00
336.0900, 25487.00
337.2940, 25454.00
338.4980, 25580.00
339.7010, 25456.00
340.9050, 25509.00
342.1080, 25387.00
343.3110, 25487.98
344.5140, 25747.00
345.7170, 25628.00
346.9200, 25824.00
348.1220, 25768.00
349.3240, 25863.00
350.5270, 25882.00
351.7290, 25966.00
352.9310, 25940.00
354.1320, 26028.34
355.3340, 26036.00
356.5350, 26169.00
357.7370, 26223.00
358.9380, 26294.00
360.1390, 26370.00
361.3400, 26404.00
362.5400, 26511.58
363.7410, 26487.00
364.9410, 26686.00
366.1410, 26817.00
367.3410, 26862.00
368.5410, 26874.00
369.7410, 27372.00
370.9400, 27325.00
372.1400, 27693.00
373.3390, 27459.00
374.5380, 27678.00
375.7370, 27887.00
376.9360, 27984.00
378.1350, 28220.92
379.3330, 28619.00
380.5310, 28608.00
381.7300, 28989.00
382.9280, 29189.00
384.1260, 29446.00
385.3230, 29639.00
386.5210, 29850.00
387.7180, 30063.72
388.9160, 30113.00
390.1130, 30480.00
391.3100, 30566.00
392.5060, 30792.00
393.7030, 30807.53
394.9000, 30699.00
396.0960, 30696.00
397.2920, 30515.00
398.4880, 30359.00
399.6840, 29686.00
400.8800, 29584.00
402.0750, 29291.00
403.2710, 29127.00
404.4660, 28791.00
405.6610, 28401.00
406.8560, 28216.12
408.0510, 27975.00
409.2450, 27745.00
410.4400, 27638.00
411.6340, 27446.00
412.8280, 27297.00
414.0220, 26958.00
415.2160, 27101.00
416.4100, 26861.00
417.6030, 26857.00
418.7970, 26486.00
419.9900, 26415.00
421.1830, 26420.00
422.3760, 26214.18
423.5690, 26416.42
424.7610, 26512.39
425.9540, 26507.75
427.1460, 26101.31
428.3380, 26213.75
429.5300, 26118.24
430.7220, 26014.21
431.9140, 26297.00
433.1050, 26218.00
434.2970, 26370.00
435.4880, 26292.00
436.6790, 26262.00
437.8700, 26366.00
439.0610, 26295.00
440.2510, 26491.00
441.4420, 26554.00
442.6320, 26378.00
443.8220, 26650.00
445.0120, 26587.00
446.2020, 26388.00
447.3910, 26479.00
448.5810, 26911.00
449.7700, 26944.00
450.9600, 27275.00
452.1490, 27296.63
453.3370, 26998.00
454.5260, 27307.00
455.7150, 27397.00
456.9030, 27443.00
458.0910, 27820.00
459.2800, 27923.00
460.4670, 28444.00
461.6550, 28237.00
462.8430, 28693.00
464.0300, 29057.00
465.2180, 29431.00
466.4050, 29842.00
467.5920, 30389.00
468.7790, 31142.00
469.9650, 31759.00
471.1520, 32571.00
472.3380, 33331.00
473.5250, 34144.00
474.7110, 35232.00
475.8970, 36423.00
477.0820, 37225.00
478.2680, 38096.00
479.4540, 38522.00
480.6390, 38721.43
481.8240, 38709.00
483.0090, 38341.00
484.1940, 37653.00
485.3780, 36709.00
486.5630, 36001.00
487.7470, 35407.00
488.9320, 34648.00
490.1160, 34082.00
491.3000, 33334.00
492.4830, 33008.00
493.6670, 32355.00
494.8500, 32013.00
496.0340, 31852.00
497.2170, 31644.00
498.4000, 31533.50
499.5820, 31471.00
500.7650, 31432.00
501.9480, 31334.00
503.1300, 31324.68
504.3120, 31348.00
505.4940, 31434.00
506.6760, 31619.00
507.8580, 31580.00
509.0390, 31634.00
510.2210, 31571.00
511.4020, 31654.00
512.5830, 31423.00
513.7640, 31226.00
514.9450, 31272.00
516.1250, 30918.00
517.3060, 30938.00
518.4860, 30882.00
519.6660, 30638.57
520.8460, 30434.00
522.0260, 30270.00
523.2060, 30205.00
524.3850, 30013.00
525.5650, 29982.00
526.7440, 29785.00
527.9230, 29712.00
529.1020, 29714.00
530.2810, 29520.00
531.4590, 29491.00
532.6380, 29148.00
533.8160, 29105.00
534.9940, 29136.00
536.1720, 29021.29
537.3500, 29029.00
538.5270, 28968.00
539.7050, 28998.00
540.8820, 28844.00
542.0590, 29012.00
543.2360, 28636.00
544.4130, 28879.00
545.5900, 28881.00
546.7660, 28735.00
547.9430, 28787.00
549.1190, 28793.11
550.2950, 29225.00
551.4710, 28970.00
552.6470, 28794.00
553.8220, 29031.00
554.9980, 28744.00
556.1730, 28859.00
557.3480, 28789.00
558.5230, 28658.00
559.6980, 28634.00
560.8730, 28671.00
562.0470, 28856.00
563.2220, 28630.00
564.3960, 29256.00
565.5700, 29115.00
566.7440, 29483.00
567.9170, 29000.00
569.0910, 28857.00
570.2640, 29007.00
571.4380, 28770.00
572.6110, 28841.00
573.7840, 28760.00
574.9570, 28811.00
576.1290, 28788.00
577.3020, 28896.00
578.4740, 29035.00
579.6460, 28983.00
580.8180, 28777.00
581.9900, 28890.00
583.1620, 28866.62
584.3330, 28846.00
585.5040, 28949.00
586.6760, 28957.00
587.8470, 28885.00
589.0180, 29104.00
590.1880, 28969.00
591.3590, 29207.00
592.5290, 29103.00
593.7000, 29177.00
594.8700, 29482.00
596.0400, 29360.00
597.2090, 29616.00
598.3790, 29673.00
599.5490, 29796.00
600.7180, 30066.00
601.8870, 30095.00
603.0560, 30011.00
604.2250, 30273.00
605.3940, 30356.00
606.5620, 30627.00
607.7300, 30686.00
608.8990, 30897.00
610.0670, 30967.00
611.2350, 31064.00
612.4020, 31735.00
613.5700, 31727.00
614.7370, 31987.00
615.9050, 32568.00
617.0720, 32644.00
618.2390, 32968.00
619.4060, 33218.00
620.5720, 33784.00
621.7390, 33894.00
622.9050, 34434.00
624.0710, 34749.00
625.2370, 35333.00
626.4030, 35525.00
627.5690, 35845.00
628.7340, 36236.00
629.9000, 36730.00
631.0650, 37271.00
632.2300, 37427.00
633.3950, 37538.00
634.5600, 37366.00
635.7240, 37589.00
636.8890, 37267.00
638.0530, 37221.00
639.2170, 37215.00
640.3810, 36860.00
641.5450, 36301.00
642.7080, 36208.00
643.8720, 35934.00
645.0350, 35916.00
646.1980, 35551.00
647.3610, 35487.00
648.5240, 35336.00
649.6870, 35121.00
650.8490, 35108.00
652.0120, 34959.00
653.1740, 35205.00
654.3360, 35071.00
655.4980, 35328.00
656.6600, 35450.00
657.8210, 35472.00
658.9830, 35692.00
660.1440, 35878.93
661.3050, 36243.00
662.4660, 36437.00
663.6270, 36863.00
664.7870, 37291.00
665.9480, 37732.00
667.1080, 38075.00
668.2680, 38412.00
669.4280, 38884.00
670.5880, 39127.00
671.7480, 39561.30
672.9070, 39970.00
674.0670, 40289.00
675.2260, 40718.00
676.3850, 40974.00
677.5440, 41309.00
678.7030, 41286.00
679.8610, 41501.00
681.0200, 41779.00
682.1780, 41534.00
683.3360, 41331.45
684.4940, 41382.58
685.6520, 41327.43
686.8090, 41171.86
687.9670, 40614.30
689.1240, 40575.77
690.2810, 39943.00
691.4380, 39628.00
692.5950, 39528.00
693.7520, 39029.00
694.9080, 38349.00
696.0650, 37606.00
697.2210, 37227.00
698.3770, 36516.00
699.5330, 35855.00
700.6880, 35456.00
701.8440, 34898.00
702.9990, 34574.00
704.1550, 34248.00
705.3100, 34162.00
706.4650, 33782.00
707.6190, 33662.00
708.7740, 33420.00
709.9290, 33335.00
711.0830, 33185.93
712.2370, 33198.00
713.3910, 32995.00
714.5450, 32922.00
715.6980, 32935.00
716.8520, 32758.00
718.0050, 32479.00
719.1580, 32457.00
720.3110, 32259.00
721.4640, 32357.00
722.6170, 32262.00
723.7700, 32315.00
724.9220, 32414.00
726.0740, 32055.00
727.2260, 32111.00
728.3780, 31888.00
729.5300, 31862.00
730.6810, 31801.00
731.8330, 31620.00
732.9840, 31613.00
734.1350, 31586.00
735.2860, 31329.00
736.4370, 31435.00
737.5880, 31473.00
738.7380, 31352.00
739.8880, 31538.00
741.0390, 31332.00
742.1890, 31409.00
743.3380, 31270.00
744.4880, 31402.00
745.6380, 31400.00
746.7870, 31328.00
747.9360, 31317.00
749.0850, 31215.00
750.2340, 31336.00
751.3830, 31260.00
752.5310, 31242.00
753.6800, 31312.00
754.8280, 31215.00
755.9760, 31286.00
757.1240, 31307.08
758.2720, 31567.00
759.4190, 31404.00
760.5670, 31520.00
761.7140, 31600.00
762.8610, 31495.00
764.0080, 31583.00
765.1550, 31629.77
766.3020, 31587.44
767.4480, 31688.00
768.5950, 31700.00
769.7410, 31524.00
770.8870, 31849.00
772.0330, 31621.00
773.1780, 31462.00
774.3240, 31832.00
775.4690, 31662.00
776.6140, 31640.00
777.7590, 31632.00
778.9040, 31648.00
780.0490, 31809.00
781.1940, 31853.00
782.3380, 31574.00
783.4820, 31764.00
784.6260, 31626.00
785.7700, 31665.00
786.9140, 31566.00
788.0580, 31646.00
789.2010, 31535.00
790.3450, 31732.00
791.4880, 31697.00
792.6310, 31815.00
793.7730, 31703.00
794.9160, 31759.00
796.0590, 31737.70
797.2010, 31713.00
798.3430, 31706.00
799.4850, 31676.00
800.6270, 31556.00
801.7690, 31659.00
802.9100, 31621.00
804.0520, 31683.13
805.1930, 31556.00
806.3340, 31667.00
807.4750, 31707.00
808.6160, 31510.00
809.7560, 31459.00
810.8970, 31429.52
812.0370, 31309.00
813.1770, 31410.00
814.3170, 31498.00
815.4570, 31599.00
816.5960, 31619.35
817.7360, 31743.00
818.8750, 31636.00
820.0140, 31711.00
821.1530, 31707.68
822.2920, 31792.00
823.4310, 31827.00
824.5690, 31864.00
825.7070, 31921.00
826.8460, 31823.00
827.9840, 31795.00
829.1220, 31923.00
830.2590, 31671.00
831.3970, 31990.00
832.5340, 32065.00
833.6710, 31861.00
834.8080, 32184.00
835.9450, 31898.00
837.0820, 32001.00
838.2190, 32332.00
839.3550, 32018.00
840.4910, 31990.00
841.6270, 31952.00
842.7630, 32031.00
843.8990, 32096.00
845.0350, 32204.00
846.1700, 32283.09
847.3060, 32313.00
848.4410, 32463.00
849.5760, 32500.00
850.7100, 32576.00
851.8450, 32492.00
852.9800, 32530.00
854.1140, 32465.00
855.2480, 32670.00
856.3820, 32437.00
857.5160, 32785.00
858.6500, 32292.00
859.7830, 32564.00
860.9170, 32589.00
862.0500, 32634.00
863.1830, 32606.00
864.3160, 32585.00
865.4480, 32898.00
866.5810, 32759.00
867.7130, 33131.00
868.8460, 32725.00
869.9780, 32924.00
871.1100, 32959.00
872.2410, 32957.00
873.3730, 33112.00
874.5050, 33036.00
875.6360, 32788.00
876.7670, 33251.00
877.8980, 33345.00
879.0290, 33250.00
880.1590, 33084.00
881.2900, 33097.00
882.4200, 33066.00
883.5500, 33415.00
884.6800, 33349.00
885.8100, 33393.00
886.9400, 33195.00
888.0690, 33381.00
889.1990, 33453.00
890.3280, 33539.00
891.4570, 33541.00
892.5860, 33689.00
893.7140, 33452.00
894.8430, 33551.00
895.9710, 33890.00
897.1000, 33580.00
898.2280, 33530.00
899.3560, 33693.00
900.4830, 33575.85
901.6110, 34076.00
902.7380, 33768.00
903.8660, 33845.00
904.9930, 34185.00
906.1200, 34118.00
907.2460, 33978.00
908.3730, 34260.00
909.5000, 34228.00
910.6260, 34499.00
911.7520, 34421.00
912.8780, 34265.00
914.0040, 34411.00
915.1290, 34274.00
916.2550, 34825.00
917.3800, 34781.00
918.5050, 34721.00
919.6300, 34701.00
920.7550, 34515.00
921.8800, 34607.00
923.0040, 34643.00
924.1290, 34700.70
925.2530, 34828.00
926.3770, 34885.00
927.5010, 35009.00
928.6250, 34959.00
929.7480, 34984.00
930.8720, 35053.00
931.9950, 35172.00
933.1180, 35268.00
934.2410, 35356.93
935.3640, 35333.00
936.4860, 35448.00
937.6090, 35577.00
938.7310, 35421.00
939.8530, 35341.00
940.9750, 35631.00
942.0970, 35498.00
943.2180, 35523.00
944.3400, 35335.00
945.4610, 35810.00
946.5820, 35525.00
947.7030, 35986.00
948.8240, 36232.00
949.9450, 35870.00
951.0650, 35891.00
952.1860, 35832.00
953.3060, 36394.00
954.4260, 36223.00
955.5460, 36161.00
956.6650, 36228.00
957.7850, 36142.00
958.9040, 36290.00
960.0230, 36149.00
961.1420, 36304.00
962.2610, 36391.00
963.3800, 36408.00
964.4990, 36383.00
965.6170, 36498.00
966.7350, 36508.00
967.8530, 36526.00
968.9710, 36645.00
970.0890, 36780.00
971.2070, 36779.75
972.3240, 36725.00
973.4410, 36826.00
974.5580, 37013.00
975.6750, 37045.00
976.7920, 37286.00
977.9090, 37181.00
979.0250, 37511.00
980.1410, 37382.00
981.2580, 37403.00
982.3740, 37989.00
983.4890, 37953.00
984.6050, 38254.00
985.7200, 38054.00
986.8360, 38110.00
987.9510, 38316.00
989.0660, 37989.00
990.1810, 38155.00
991.2950, 38020.00
992.4100, 38136.00
993.5240, 38257.00
994.6390, 38288.00
995.7530, 38394.00
996.8660, 38538.00
997.9800, 38700.00
999.0940, 38717.00
1000.207, 38849.00
1001.320, 39107.00
1002.433, 39006.00
1003.546, 39196.00
1004.659, 39446.00
1005.772, 39577.00
1006.884, 39697.00
1007.996, 40011.00
1009.108, 40135.00
1010.220, 40173.00
1011.332, 40645.00
1012.444, 40483.00
1013.555, 41078.00
1014.666, 41242.00
1015.777, 41439.00
1016.888, 41470.00
1017.999, 41486.00
1019.110, 41846.00
1020.220, 41840.00
1021.331, 41915.00
1022.441, 42042.23
1023.551, 42077.00
1024.661, 42093.00
1025.770, 42157.00
1026.880, 42069.00
1027.989, 41954.00
1029.098, 41799.00
1030.207, 41934.00
1031.316, 41942.00
1032.425, 41719.00
1033.533, 41806.21
1034.642, 41463.00
1035.750, 41618.00
1036.858, 41519.00
1037.966, 41147.00
1039.073, 41158.00
1040.181, 41129.11
1041.288, 41015.48
1042.396, 41181.00
1043.503, 41075.00
1044.610, 40918.00
1045.716, 41134.00
1046.823, 40801.00
1047.929, 41159.00
1049.036, 41146.00
1050.142, 41045.00
1051.248, 41056.00
1052.353, 41137.00
1053.459, 41184.00
1054.564, 41321.00
1055.670, 41165.00
1056.775, 41145.00
1057.880, 41226.00
1058.985, 40995.00
1060.089, 41100.00
1061.194, 41261.00
1062.298, 41315.00
1063.402, 41369.00
1064.506, 41342.00
1065.610, 41231.00
1066.713, 41553.00
1067.817, 41426.00
1068.920, 41492.00
1070.023, 41292.00
1071.126, 41609.00
1072.229, 41385.00
1073.332, 41893.00
1074.435, 41756.00
1075.537, 41717.00
1076.639, 41572.00
1077.741, 41815.00
1078.843, 41965.00
1079.945, 41806.82
1081.046, 42064.50
1082.148, 42215.89
1083.249, 42266.70
1084.350, 41915.67
1085.451, 42083.52
1086.551, 42043.41
1087.652, 41994.79
1088.752, 42235.66
1089.853, 41943.07
1090.953, 42179.35
1092.053, 42204.50
1093.152, 42231.00
1094.252, 42175.00
1095.351, 42308.00
1096.451, 41976.00
1097.550, 42070.00
1098.649, 42174.00
1099.748, 42329.00
1100.846, 42202.00
1101.945, 42276.71
1103.043, 42410.00
1104.141, 42252.00
1105.239, 42285.00
1106.337, 42322.00
1107.434, 42330.00
1108.532, 42070.00
1109.629, 42082.00
1110.726, 42046.00
1111.823, 42394.00
1112.920, 42189.00
1114.017, 42215.00
1115.113, 41966.00
1116.210, 42251.00
1117.306, 42104.00
1118.402, 42185.00
1119.498, 42478.00
1120.593, 42246.00
1121.689, 42186.00
1122.784, 42193.00
1123.879, 42427.00
1124.974, 41985.00
1126.069, 42158.00
1127.164, 42053.00
1128.259, 41805.00
1129.353, 41903.00
1130.447, 41939.00
1131.541, 42043.00
1132.635, 42015.00
1133.729, 41887.00
1134.822, 41703.00
1135.916, 41942.00
1137.009, 41939.00
1138.102, 41897.00
1139.195, 41983.00
1140.288, 41851.08
1141.380, 41815.80
1142.473, 41683.00
1143.565, 41651.00
1144.657, 41680.00
1145.749, 41634.00
1146.841, 41612.00
1147.932, 41626.05
1149.024, 41535.00
1150.115, 41631.00
1151.206, 41692.00
1152.297, 41686.00
1153.388, 41662.00
1154.479, 41561.00
1155.569, 41820.00
1156.659, 41780.00
1157.750, 41812.00
1158.839, 41969.00
1159.929, 41783.00
1161.019, 41883.00
1162.108, 42146.00
1163.198, 41672.00
1164.287, 41752.00
1165.376, 41892.00
1166.465, 41930.00
1167.553, 41888.00
1168.642, 42004.00
1169.730, 42130.00
1170.818, 42061.00
1171.906, 42163.00
1172.994, 42037.00
1174.082, 42214.00
1175.170, 42297.00
1176.257, 42307.00
1177.344, 42497.00
1178.431, 42455.00
1179.518, 42537.00
1180.605, 42489.00
1181.691, 42626.00
1182.778, 42593.00
1183.864, 42544.00
1184.950, 42666.00
1186.036, 42443.00
1187.122, 42730.00
1188.207, 42583.00
1189.292, 42650.00
1190.378, 42749.00
1191.463, 42675.00
1192.548, 43010.00
1193.632, 42755.00
1194.717, 42951.00
1195.801, 43131.00
1196.886, 42811.00
1197.970, 43073.00
1199.054, 43147.00
1200.137, 43028.00
1201.221, 43435.00
1202.305, 43289.00
1203.388, 43223.00
1204.471, 43245.00
1205.554, 43151.00
1206.637, 43272.00
1207.719, 43431.00
1208.802, 43674.00
1209.884, 43380.00
1210.966, 43660.00
1212.048, 43616.00
1213.130, 43641.00
1214.212, 44040.00
1215.293, 43953.00
1216.374, 43884.00
1217.456, 43822.00
1218.536, 43874.06
1219.617, 44098.00
1220.698, 43999.00
1221.778, 44080.00
1222.859, 44085.00
1223.939, 44098.71
1225.019, 44242.00
1226.099, 44178.00
1227.178, 44374.00
1228.258, 44438.00
1229.337, 44440.00
1230.417, 44341.00
1231.496, 44526.00
1232.574, 44929.00
1233.653, 44794.00
1234.732, 44790.00
1235.810, 44576.00
1236.888, 44406.00
1237.966, 44736.00
1239.044, 44861.00
1240.122, 44846.00
1241.199, 45005.96
1242.277, 44575.00
1243.354, 45013.00
1244.431, 44998.00
1245.508, 44822.00
1246.585, 45123.00
1247.661, 45224.00
1248.738, 45092.00
1249.814, 44947.00
1250.890, 45122.00
1251.966, 45392.00
1253.042, 45323.00
1254.117, 45389.00
1255.193, 45460.00
1256.268, 45711.00
1257.343, 45494.00
1258.418, 45276.00
1259.493, 45509.00
1260.567, 45489.00
1261.642, 45395.00
1262.716, 45994.00
1263.790, 45826.00
1264.864, 45841.00
1265.938, 46038.00
1267.011, 45830.00
1268.085, 46040.00
1269.158, 45713.00
1270.231, 45834.00
1271.304, 45811.00
1272.377, 45659.00
1273.450, 46100.00
1274.522, 45851.00
1275.594, 45988.00
1276.666, 45979.00
1277.738, 45655.00
1278.810, 46120.00
1279.882, 45762.00
1280.953, 45938.00
1282.025, 46090.00
1283.096, 46456.00
1284.167, 46709.00
1285.238, 46702.00
1286.308, 46749.00
1287.379, 46758.00
1288.449, 46804.00
1289.519, 47049.00
1290.589, 47170.00
1291.659, 47168.00
1292.729, 47280.00
1293.798, 47301.00
1294.868, 47385.00
1295.937, 47415.00
1297.006, 47461.00
1298.075, 47637.00
1299.143, 47567.00
1300.212, 47433.00
1301.280, 47381.00
1302.348, 47737.00
1303.416, 47867.00
1304.484, 47687.00
1305.552, 47953.00
1306.620, 47633.00
1307.687, 48010.00
1308.754, 48118.00
1309.821, 48219.00
1310.888, 47902.00
1311.955, 47997.00
1313.021, 48104.00
1314.088, 48141.00
1315.154, 48214.00
1316.220, 48383.00
1317.286, 48491.00
1318.352, 48588.00
1319.417, 48631.00
1320.483, 48620.48
1321.548, 48680.00
1322.613, 48587.00
1323.678, 48550.00
1324.743, 48667.00
1325.807, 48856.00
1326.872, 48842.00
1327.936, 48738.00
1329.000, 49089.42
1330.064, 49363.30
1331.128, 49530.89
1332.191, 49597.87
1333.255, 49263.05
1334.318, 49447.07
1335.381, 49423.16
1336.444, 49390.72
1337.507, 49647.78
1338.569, 49371.34
1339.632, 49536.00
1340.694, 49582.00
1341.756, 49567.00
1342.818, 49581.00
1343.880, 49439.00
1344.941, 49785.00
1346.003, 49813.00
1347.064, 49705.00
1348.125, 49906.00
1349.186, 49903.00
1350.247, 49750.00
1351.308, 49895.00
1352.368, 49965.00
1353.428, 49908.00
1354.489, 50015.07
1355.549, 50304.00
1356.608, 50143.00
1357.668, 50201.00
1358.727, 50370.00
1359.787, 50105.00
1360.846, 50680.00
1361.905, 49812.00
1362.964, 50277.00
1364.022, 50550.00
1365.081, 50309.00
1366.139, 50375.00
1367.197, 50446.66
1368.255, 50415.00
1369.313, 50572.00
1370.371, 50462.00
1371.428, 50550.00
1372.486, 50550.00
1373.543, 50645.00
1374.600, 50823.00
1375.657, 50724.77
1376.713, 50852.00
1377.770, 50675.00
1378.826, 50630.00
1379.882, 50758.00
1380.938, 50516.00
1381.994, 50990.00
1383.050, 50817.00
1384.106, 51046.00
1385.161, 50501.00
1386.216, 50901.00
1387.271, 51147.00
1388.326, 50638.00
1389.381, 50787.00
1390.435, 50904.00
1391.490, 50670.00
1392.544, 50747.00
1393.598, 50787.18
1394.652, 51059.17
1395.705, 51224.85
1396.759, 51289.98
1397.812, 50953.25
1398.866, 51135.43
1399.919, 51109.64
1400.972, 51075.32
1402.024, 51330.47
1403.077, 51052.19
1404.129, 51302.75
1405.181, 51342.20
1406.233, 51081.00
1407.285, 51138.00
1408.337, 51333.00
1409.389, 51237.00
1410.440, 51317.00
1411.491, 51192.00
1412.542, 51319.00
1413.593, 51332.00
1414.644, 51570.00
1415.695, 51608.00
1416.745, 51316.00
1417.795, 51494.00
1418.845, 51466.00
1419.895, 51264.00
1420.945, 51843.00
1421.995, 51542.00
1423.044, 51836.00
1424.093, 51622.00
1425.142, 51658.00
1426.191, 52070.00
1427.240, 51782.00
1428.289, 51630.00
1429.337, 52047.00
1430.385, 51715.00
1431.433, 52110.00
1432.481, 51955.00
1433.529, 52163.00
1434.577, 52275.00
1435.624, 52061.00
1436.672, 52432.00
1437.719, 52228.00
1438.766, 52404.00
1439.812, 52632.00
1440.859, 52405.00
1441.905, 52628.00
1442.952, 52241.00
1443.998, 52348.00
1445.044, 52571.00
1446.090, 52415.00
1447.135, 52414.00
1448.181, 52324.00
1449.226, 52554.00
1450.271, 52679.00
1451.316, 52549.00
1452.361, 52603.00
1453.405, 52622.00
1454.450, 52772.00
1455.494, 52727.00
1456.538, 52621.00
1457.582, 52745.00
1458.626, 52598.00
1459.670, 52799.00
1460.713, 52875.00
1461.757, 53044.00
1462.800, 53054.00
1463.843, 52978.00
1464.886, 52898.00
1465.928, 53061.00
1466.971, 52995.00
1468.013, 53248.00
1469.055, 53263.00
1470.097, 53268.15
1471.139, 53230.00
1472.181, 53353.00
1473.222, 53107.00
1474.263, 53345.00
1475.305, 53580.00
1476.346, 53244.00
1477.386, 53309.00
1478.427, 53501.00
1479.468, 53722.00
1480.508, 53709.00
1481.548, 53702.00
1482.588, 53872.62
1483.628, 53884.00
1484.668, 54046.00
1485.707, 53783.00
1486.747, 53703.00
1487.786, 53729.00
1488.825, 53591.78
1489.864, 53894.78
1490.902, 54091.41
1491.941, 54187.54
1492.979, 53881.77
1494.017, 54094.88
1495.055, 54100.05
1496.093, 54096.69
1497.131, 54382.83
1498.168, 54014.00
1499.206, 54053.00
1500.243, 54315.00
1501.280, 54289.00
1502.317, 54325.00
1503.354, 54486.00
1504.390, 54678.00
1505.426, 54295.00
1506.463, 54614.00
1507.499, 54989.00
1508.535, 54727.00
1509.570, 55024.00
1510.606, 55177.00
1511.641, 54911.00
1512.676, 54946.00
1513.711, 55119.00
1514.746, 55095.00
1515.781, 55195.00
1516.816, 55258.00
1517.850, 55430.00
1518.884, 55166.00
1519.918, 55539.00
1520.952, 55498.00
1521.986, 55401.00
1523.019, 55897.00
1524.053, 55344.00
1525.086, 55602.00
1526.119, 55964.00
1527.152, 55895.56
1528.185, 56073.39
1529.217, 56230.00
1530.250, 56219.00
1531.282, 56232.00
1532.314, 56487.00
1533.346, 56525.00
1534.377, 56216.00
1535.409, 56481.00
1536.440, 56167.00
1537.472, 56538.00
1538.503, 56563.00
1539.534, 56369.00
1540.564, 56385.00
1541.595, 56645.00
1542.625, 56801.00
1543.656, 57001.00
1544.686, 56885.00
1545.716, 57056.89
1546.745, 56870.00
1547.775, 57082.00
1548.804, 57299.00
1549.834, 57095.00
1550.863, 57619.00
1551.892, 57658.00
1552.920, 57496.00
1553.949, 57648.00
1554.977, 57640.58
1556.006, 57734.00
1557.034, 57753.00
1558.062, 57884.00
1559.089, 57924.00
1560.117, 57883.00
1561.144, 57816.00
1562.172, 58171.00
1563.199, 57887.00
1564.226, 58020.00
1565.252, 58292.00
1566.279, 58024.00
1567.305, 58419.00
1568.332, 58138.00
1569.358, 58205.00
1570.384, 58673.00
##END=



