##NAMES=Annite
##RRUFFID=R060211
##IDEAL CHEMISTRY=KFe^2+^_3_AlSi_3_O_10_(OH)_2_
##LOCALITY=Mont Saint-Hilaire, Rouville County, Quebec, Canada
##OWNER=RRUFF
##SOURCE=Royal Ontario Museum
##DESCRIPTION=Black mica
##STATUS=The identification of this mineral has been confirmed by X-ray diffraction and chemical analysis
##URL=rruff.info/R060211
##MEASURED CHEMISTRY=(K_0.94_[box]_0.03_Na_0.02_)_Σ=1_(Fe^2+^_2.07_Mg_0.57_Mn_0.33_Ti_0.03_)_Σ=3_(Si_2.98_Al_1.02_)O_10_((OH)_1.72_F_0.28_)_Σ=2_
##PIN_ID=L01834
##ORIENTATION=Laser parallel to b* (0 1 0). Fiducial mark perpendicular to laser is parallel to c [0 0 1]
230.8490, 20172.00
232.0700, 19948.00
233.2910, 19987.00
234.5120, 19826.00
235.7320, 19919.00
236.9530, 19844.00
238.1730, 19837.00
239.3930, 19828.86
240.6130, 19772.63
241.8320, 19758.00
243.0520, 19722.00
244.2710, 19665.00
245.4900, 19702.00
246.7090, 19707.00
247.9280, 19790.00
249.1470, 19836.00
250.3650, 19853.00
251.5840, 19590.86
252.8020, 19902.77
254.0200, 20086.57
255.2370, 20149.11
256.4550, 19727.32
257.6720, 19930.95
258.8900, 19883.95
260.1070, 19826.65
261.3240, 20118.31
262.5400, 19766.93
263.7570, 20053.05
264.9730, 20084.69
266.1900, 20232.81
267.4060, 20128.71
268.6220, 20102.51
269.8370, 19859.00
271.0530, 20006.00
272.2680, 19990.00
273.4830, 19828.00
274.6980, 20094.00
275.9130, 20176.00
277.1280, 20247.00
278.3420, 20254.00
279.5570, 20258.00
280.7710, 20220.38
281.9850, 20198.41
283.1990, 20091.00
284.4120, 20101.00
285.6260, 20047.00
286.8390, 19729.95
288.0520, 20026.27
289.2650, 20194.46
290.4780, 20241.42
291.6910, 19804.03
292.9030, 19992.07
294.1160, 19929.47
295.3280, 19856.58
296.5400, 20132.65
297.7510, 19765.70
298.9630, 20036.23
300.1740, 20052.29
301.3860, 20184.82
302.5970, 20065.15
303.8080, 20023.38
305.0180, 20046.00
306.2290, 19941.00
307.4390, 20185.00
308.6500, 20217.00
309.8600, 19982.00
311.0700, 20116.00
312.2790, 20019.00
313.4890, 20030.00
314.6980, 20019.00
315.9080, 20126.00
317.1170, 20036.00
318.3250, 20118.00
319.5340, 20066.00
320.7430, 20141.00
321.9510, 20084.00
323.1590, 19891.00
324.3670, 19982.00
325.5750, 20069.00
326.7830, 20174.00
327.9900, 20014.00
329.1980, 20056.00
330.4050, 20079.00
331.6120, 19864.00
332.8190, 20131.00
334.0250, 20086.00
335.2320, 19988.00
336.4380, 20304.00
337.6440, 20234.00
338.8500, 20098.00
340.0560, 20373.00
341.2620, 20341.00
342.4670, 20198.00
343.6730, 20180.00
344.8780, 20346.00
346.0830, 20339.00
347.2870, 20317.00
348.4920, 20313.00
349.6970, 20438.00
350.9010, 20408.00
352.1050, 20531.00
353.3090, 20454.00
354.5130, 20538.00
355.7160, 20662.00
356.9200, 20532.00
358.1230, 20694.00
359.3260, 20491.00
360.5290, 20606.00
361.7320, 20599.00
362.9340, 20779.00
364.1370, 20842.00
365.3390, 20852.00
366.5410, 20626.00
367.7430, 20745.00
368.9450, 20728.00
370.1460, 20677.00
371.3480, 20818.00
372.5490, 20810.00
373.7500, 20705.00
374.9510, 20722.00
376.1520, 20671.00
377.3520, 20640.00
378.5520, 20821.00
379.7530, 20612.00
380.9530, 20852.00
382.1530, 20983.00
383.3520, 21004.00
384.5520, 20998.00
385.7510, 20922.00
386.9500, 21188.00
388.1490, 21980.00
389.3480, 21621.57
390.5470, 21749.77
391.7450, 21368.00
392.9440, 21442.00
394.1420, 21341.00
395.3400, 21420.00
396.5380, 21463.00
397.7350, 21421.00
398.9330, 21506.00
400.1300, 21761.00
401.3270, 21596.00
402.5240, 21676.00
403.7210, 21734.00
404.9180, 21539.00
406.1140, 21641.00
407.3110, 21514.00
408.5070, 21343.00
409.7030, 21632.00
410.8990, 21599.00
412.0940, 21658.00
413.2900, 21399.00
414.4850, 21403.00
415.6800, 21452.00
416.8750, 21474.05
418.0700, 21490.53
419.2650, 21653.00
420.4590, 21490.00
421.6530, 21387.00
422.8470, 21301.00
424.0410, 21392.00
425.2350, 21541.00
426.4290, 21415.00
427.6220, 21338.00
428.8160, 21539.00
430.0090, 21399.00
431.2020, 21890.00
432.3940, 21281.00
433.5870, 21549.00
434.7790, 21302.00
435.9720, 21187.00
437.1640, 21372.00
438.3560, 21443.00
439.5470, 21446.00
440.7390, 21451.00
441.9300, 21358.00
443.1220, 21205.00
444.3130, 21320.00
445.5040, 21478.00
446.6940, 21227.00
447.8850, 21243.00
449.0750, 21026.00
450.2660, 20988.00
451.4560, 21328.00
452.6460, 21264.00
453.8350, 21227.00
455.0250, 20973.00
456.2140, 21150.00
457.4040, 21175.00
458.5930, 21029.00
459.7820, 21245.00
460.9700, 21221.00
462.1590, 21142.00
463.3470, 21279.00
464.5350, 21279.09
465.7240, 21325.01
466.9110, 21387.00
468.0990, 21424.00
469.2870, 21399.00
470.4740, 21415.00
471.6610, 21426.00
472.8480, 21668.00
474.0350, 21359.00
475.2220, 21628.00
476.4090, 21542.00
477.5950, 21641.00
478.7810, 21745.00
479.9670, 21808.00
481.1530, 21770.00
482.3390, 21955.00
483.5240, 21976.00
484.7100, 22044.00
485.8950, 21942.00
487.0800, 22046.00
488.2650, 22243.00
489.4490, 22059.00
490.6340, 22090.00
491.8180, 22258.00
493.0030, 22098.00
494.1870, 22208.67
495.3700, 22521.00
496.5540, 22256.00
497.7380, 22481.00
498.9210, 22504.00
500.1040, 22635.00
501.2870, 22738.00
502.4700, 22718.00
503.6530, 22726.00
504.8350, 22528.00
506.0180, 22741.00
507.2000, 22784.00
508.3820, 22748.00
509.5640, 23052.00
510.7450, 22933.00
511.9270, 23082.00
513.1080, 23285.00
514.2890, 23312.00
515.4700, 23362.22
516.6510, 23037.00
517.8320, 23282.00
519.0130, 23211.00
520.1930, 23064.00
521.3730, 23109.00
522.5530, 23294.00
523.7330, 23556.00
524.9130, 23435.00
526.0920, 23685.00
527.2710, 23645.00
528.4510, 23764.00
529.6300, 23722.00
530.8080, 23978.00
531.9870, 23872.00
533.1660, 24037.00
534.3440, 24073.00
535.5220, 24264.00
536.7000, 24213.00
537.8780, 24362.00
539.0560, 24169.00
540.2330, 24258.00
541.4110, 24311.00
542.5880, 24168.00
543.7650, 24205.00
544.9420, 24172.21
546.1180, 24207.00
547.2950, 24176.00
548.4710, 24132.00
549.6470, 24109.98
550.8230, 24062.04
551.9990, 24030.00
553.1750, 24010.00
554.3500, 24005.00
555.5260, 24062.00
556.7010, 23870.00
557.8760, 23653.00
559.0510, 23781.00
560.2250, 23646.00
561.4000, 23664.00
562.5740, 23518.00
563.7480, 23474.00
564.9220, 23373.00
566.0960, 23515.00
567.2700, 23314.11
568.4430, 23313.45
569.6170, 23125.00
570.7900, 23110.00
571.9630, 23036.43
573.1360, 22987.00
574.3080, 22900.00
575.4810, 22847.00
576.6530, 22733.00
577.8250, 22689.86
578.9980, 22492.00
580.1690, 22589.00
581.3410, 22511.00
582.5130, 22470.00
583.6840, 22290.00
584.8550, 22173.00
586.0260, 22257.00
587.1970, 22352.00
588.3680, 22277.00
589.5380, 22171.00
590.7080, 22352.00
591.8790, 22209.00
593.0490, 22436.00
594.2190, 22158.00
595.3880, 22192.00
596.5580, 22316.00
597.7270, 22296.00
598.8960, 22324.00
600.0650, 22227.00
601.2340, 22464.00
602.4030, 22201.00
603.5710, 22520.00
604.7400, 22455.00
605.9080, 22540.00
607.0760, 22417.00
608.2440, 22454.00
609.4120, 22359.00
610.5790, 22602.00
611.7460, 22593.00
612.9140, 22680.00
614.0810, 22646.00
615.2480, 22573.00
616.4140, 22521.00
617.5810, 22728.00
618.7470, 22721.00
619.9130, 22894.00
621.0790, 22945.71
622.2450, 23089.00
623.4110, 23022.00
624.5770, 23060.00
625.7420, 23027.00
626.9070, 23078.00
628.0720, 23252.00
629.2370, 23255.00
630.4020, 23055.00
631.5660, 23246.00
632.7310, 23411.00
633.8950, 23162.00
635.0590, 23556.00
636.2230, 23510.00
637.3870, 23205.00
638.5500, 23621.00
639.7140, 23479.00
640.8770, 23647.00
642.0400, 23685.00
643.2030, 23721.00
644.3660, 23628.00
645.5280, 23919.00
646.6910, 23968.00
647.8530, 23933.00
649.0150, 23815.00
650.1770, 24022.00
651.3390, 24315.00
652.5000, 24490.00
653.6620, 24650.89
654.8230, 24826.00
655.9840, 24870.00
657.1450, 25088.00
658.3060, 25121.00
659.4660, 25409.00
660.6270, 25577.00
661.7870, 25791.00
662.9470, 26195.00
664.1070, 26505.00
665.2670, 26730.00
666.4260, 27329.00
667.5860, 28078.00
668.7450, 28928.00
669.9040, 28863.00
671.0630, 28947.00
672.2220, 28846.00
673.3800, 29509.00
674.5390, 30144.00
675.6970, 30007.00
676.8550, 29159.00
678.0130, 28645.00
679.1710, 28283.00
680.3290, 27932.00
681.4860, 28001.00
682.6430, 27855.00
683.8000, 27756.00
684.9570, 27817.00
686.1140, 27484.00
687.2710, 27516.00
688.4270, 27416.00
689.5840, 27399.00
690.7400, 27146.00
691.8960, 26859.00
693.0520, 27006.00
694.2070, 26848.00
695.3630, 26990.00
696.5180, 26827.00
697.6730, 26971.00
698.8280, 27121.00
699.9830, 26924.00
701.1380, 26913.00
702.2920, 27099.00
703.4470, 27143.00
704.6010, 27180.46
705.7550, 27312.00
706.9090, 27236.00
708.0620, 27403.00
709.2160, 27425.00
710.3690, 27497.00
711.5220, 27562.00
712.6750, 27654.00
713.8280, 27832.00
714.9810, 27620.00
716.1340, 27697.00
717.2860, 27534.00
718.4380, 27721.00
719.5900, 27636.00
720.7420, 27745.00
721.8940, 27514.00
723.0450, 27364.00
724.1970, 27358.00
725.3480, 27407.00
726.4990, 26902.00
727.6500, 27261.00
728.8010, 26987.00
729.9510, 26754.00
731.1020, 26828.33
732.2520, 26921.00
733.4020, 26607.00
734.5520, 26448.00
735.7020, 26188.00
736.8510, 26333.00
738.0010, 26350.00
739.1500, 26232.00
740.2990, 26165.00
741.4480, 26223.00
742.5970, 26157.00
743.7450, 26261.00
744.8940, 26240.04
746.0420, 26264.00
747.1900, 26200.00
748.3380, 26406.00
749.4860, 26290.00
750.6330, 26249.00
751.7810, 26293.00
752.9280, 26506.00
754.0750, 26742.00
755.2220, 26802.01
756.3690, 26736.00
757.5160, 26991.00
758.6620, 26784.00
759.8090, 26805.00
760.9550, 27030.00
762.1010, 27417.00
763.2470, 27254.00
764.3920, 27101.00
765.5380, 27363.00
766.6830, 27203.00
767.8280, 27782.00
768.9730, 27268.00
770.1180, 27459.00
771.2630, 27244.00
772.4070, 27396.00
773.5520, 27314.00
774.6960, 27102.00
775.8400, 27135.00
776.9840, 26981.00
778.1280, 27064.00
779.2710, 26975.00
780.4140, 26770.00
781.5580, 26807.00
782.7010, 26577.00
783.8440, 26492.00
784.9860, 26492.00
786.1290, 26555.00
787.2710, 26234.00
788.4140, 25921.00
789.5560, 26060.00
790.6980, 25751.00
791.8390, 25668.15
792.9810, 25570.72
794.1220, 25492.00
795.2640, 25206.00
796.4050, 25267.00
797.5460, 24904.00
798.6860, 24883.00
799.8270, 24921.00
800.9680, 24723.00
802.1080, 24615.00
803.2480, 24656.00
804.3880, 24439.00
805.5280, 24382.59
806.6670, 24402.00
807.8070, 24236.00
808.9460, 24236.00
810.0850, 24349.00
811.2240, 24145.00
812.3630, 23974.00
813.5020, 24073.00
814.6400, 24147.00
815.7790, 24011.00
816.9170, 24054.00
818.0550, 24210.00
819.1930, 24178.00
820.3300, 23952.00
821.4680, 24087.00
822.6050, 24026.00
823.7430, 24014.00
824.8800, 24130.00
826.0170, 24075.00
827.1530, 24097.48
828.2900, 24176.00
829.4260, 24060.00
830.5620, 24161.00
831.6990, 24114.00
832.8340, 24151.00
833.9700, 24214.36
835.1060, 24101.00
836.2410, 24318.00
837.3760, 24310.00
838.5120, 24325.00
839.6470, 24481.00
840.7810, 24304.00
841.9160, 24350.00
843.0500, 24246.00
844.1850, 24458.00
845.3190, 24347.00
846.4530, 24339.00
847.5870, 24141.00
848.7200, 24419.00
849.8540, 24348.00
850.9870, 24530.00
852.1200, 24446.00
853.2530, 24492.00
854.3860, 24538.00
855.5190, 24532.84
856.6510, 24529.00
857.7840, 24677.00
858.9160, 24685.00
860.0480, 24928.00
861.1800, 24813.00
862.3110, 24903.00
863.4430, 24882.00
864.5740, 25110.00
865.7060, 24892.00
866.8370, 24928.00
867.9680, 24960.00
869.0980, 24879.00
870.2290, 25112.00
871.3590, 25119.00
872.4900, 25114.00
873.6200, 25236.00
874.7500, 25326.00
875.8790, 25212.00
877.0090, 25472.00
878.1380, 25153.00
879.2680, 25226.00
880.3970, 25352.00
881.5260, 25308.00
882.6550, 25208.00
883.7830, 25308.42
884.9120, 25715.00
886.0400, 25337.00
887.1680, 25645.00
888.2960, 25566.00
889.4240, 25585.00
890.5520, 25558.00
891.6790, 25532.72
892.8070, 25672.00
893.9340, 25561.00
895.0610, 25689.00
896.1880, 25841.00
897.3140, 25726.00
898.4410, 25803.00
899.5670, 25661.00
900.6940, 26037.00
901.8200, 25754.00
902.9450, 26129.00
904.0710, 26035.00
905.1970, 25972.00
906.3220, 26083.00
907.4470, 26100.00
908.5730, 26227.00
909.6980, 26245.61
910.8220, 26197.00
911.9470, 26278.00
913.0710, 26332.00
914.1960, 26299.00
915.3200, 26399.00
916.4440, 26381.00
917.5680, 26475.00
918.6910, 26550.00
919.8150, 26540.00
920.9380, 26487.00
922.0610, 26551.00
923.1840, 26692.00
924.3070, 26377.00
925.4300, 26569.00
926.5520, 26675.00
927.6750, 26577.16
928.7970, 26883.00
929.9190, 26828.00
931.0410, 27232.00
932.1630, 27024.43
933.2840, 27444.00
934.4060, 26765.00
935.5270, 26978.00
936.6480, 27085.00
937.7690, 27073.00
938.8900, 27085.00
940.0100, 27005.00
941.1310, 27103.00
942.2510, 27199.00
943.3710, 27189.00
944.4910, 27082.00
945.6110, 27071.00
946.7310, 27113.00
947.8500, 27176.65
948.9690, 27225.39
950.0890, 27404.00
951.2080, 27406.00
952.3260, 27462.00
953.4450, 27615.00
954.5640, 27594.00
955.6820, 27384.00
956.8000, 27424.00
957.9180, 27562.00
959.0360, 27441.00
960.1540, 27529.00
961.2710, 27714.00
962.3890, 27258.00
963.5060, 27499.00
964.6230, 27230.00
965.7400, 27421.00
966.8570, 27311.00
967.9730, 27285.00
969.0900, 27447.00
970.2060, 27397.00
971.3220, 27441.00
972.4380, 27486.00
973.5540, 27475.00
974.6700, 27578.00
975.7850, 27557.00
976.9010, 27716.00
978.0160, 27564.00
979.1310, 27529.00
980.2460, 27684.00
981.3600, 27960.00
982.4750, 27925.00
983.5890, 27875.00
984.7030, 27793.00
985.8170, 28063.00
986.9310, 27974.00
988.0450, 28034.00
989.1590, 28113.00
990.2720, 27985.00
991.3850, 28170.00
992.4980, 28286.00
993.6110, 28121.00
994.7240, 28661.00
995.8370, 28609.00
996.9490, 28390.00
998.0620, 28384.00
999.1740, 28618.00
1000.286, 28541.00
1001.398, 28836.00
1002.509, 28835.00
1003.621, 28871.00
1004.732, 29137.00
1005.843, 29095.00
1006.954, 29488.00
1008.065, 29491.00
1009.176, 29669.00
1010.286, 29902.00
1011.397, 29825.00
1012.507, 29958.00
1013.617, 29998.00
1014.727, 30204.00
1015.837, 30263.00
1016.946, 30429.00
1018.056, 30487.00
1019.165, 30772.00
1020.274, 30621.00
1021.383, 30678.00
1022.492, 31038.00
1023.601, 30425.00
1024.709, 30573.00
1025.817, 30351.00
1026.926, 30374.00
1028.034, 30042.00
1029.141, 29993.00
1030.249, 30009.00
1031.357, 29926.00
1032.464, 29835.53
1033.571, 29666.00
1034.678, 29556.00
1035.785, 29581.00
1036.892, 29364.00
1037.999, 29140.00
1039.105, 29407.00
1040.211, 29389.00
1041.317, 29200.00
1042.423, 29477.00
1043.529, 29325.01
1044.635, 29185.00
1045.740, 29291.00
1046.845, 29264.00
1047.951, 29311.00
1049.056, 28982.00
1050.160, 29335.00
1051.265, 29229.00
1052.370, 28950.00
1053.474, 29205.00
1054.578, 29095.00
1055.682, 28986.00
1056.786, 29173.00
1057.890, 29221.00
1058.993, 28855.00
1060.097, 29140.00
1061.200, 29017.00
1062.303, 28818.00
1063.406, 29059.00
1064.509, 29134.00
1065.612, 29184.00
1066.714, 29075.00
1067.816, 29194.00
1068.919, 29085.00
1070.021, 29148.10
1071.122, 29105.81
1072.224, 29070.00
1073.326, 29158.00
1074.427, 28751.00
1075.528, 29056.00
1076.629, 28740.00
1077.730, 28866.00
1078.831, 28828.00
1079.931, 28764.01
1081.032, 29054.00
1082.132, 28809.00
1083.232, 28443.00
1084.332, 28537.00
1085.432, 28663.00
1086.531, 28702.00
1087.631, 28718.00
1088.730, 28446.00
1089.829, 28687.00
1090.928, 28356.00
1092.027, 28363.00
1093.126, 28318.00
1094.224, 28403.00
1095.323, 28292.27
1096.421, 28264.48
1097.519, 28084.00
1098.617, 28127.00
1099.715, 27966.00
1100.812, 27900.00
1101.910, 28131.00
1103.007, 27990.00
1104.104, 28088.00
1105.201, 27892.00
1106.298, 27631.00
1107.394, 27951.00
1108.491, 27781.00
1109.587, 27845.00
1110.683, 27884.00
1111.779, 27871.00
1112.875, 27742.00
1113.971, 27818.00
1115.066, 27943.00
1116.162, 27782.00
1117.257, 27921.00
1118.352, 27904.00
1119.447, 27841.00
1120.542, 27840.00
1121.636, 27913.00
1122.731, 27807.00
1123.825, 27798.00
1124.919, 27878.00
1126.013, 28009.00
1127.107, 27705.00
1128.200, 27875.00
1129.294, 27663.00
1130.387, 27692.00
1131.480, 27947.00
1132.573, 27842.00
1133.666, 27737.00
1134.759, 27776.00
1135.851, 27577.00
1136.944, 27892.00
1138.036, 27776.00
1139.128, 27786.00
1140.220, 27753.00
1141.312, 27784.00
1142.403, 27877.00
1143.495, 27677.00
1144.586, 27497.00
1145.677, 27510.00
1146.768, 27453.93
1147.859, 27449.16
1148.950, 27561.00
1150.040, 27560.00
1151.130, 27678.00
1152.221, 27842.00
1153.311, 27593.00
1154.401, 27635.00
1155.490, 27717.00
1156.580, 27881.00
1157.669, 27702.00
1158.759, 27738.00
1159.848, 27768.00
1160.937, 27657.67
1162.025, 27680.15
1163.114, 27589.00
1164.202, 27601.00
1165.291, 27680.00
1166.379, 27619.00
1167.467, 27950.00
1168.555, 27868.00
1169.642, 27629.00
1170.730, 27854.00
1171.817, 27736.00
1172.905, 27698.78
1173.992, 27721.79
1175.078, 27699.00
1176.165, 27653.00
1177.252, 27836.00
1178.338, 27860.00
1179.425, 27767.00
1180.511, 28068.00
1181.597, 27917.00
1182.682, 27778.00
1183.768, 27787.00
1184.854, 27937.00
1185.939, 27907.00
1187.024, 28155.00
1188.109, 28510.00
1189.194, 27871.00
1190.279, 27675.00
1191.363, 27924.00
1192.448, 27931.00
1193.532, 27691.00
1194.616, 27634.00
1195.700, 27875.00
1196.784, 27812.00
1197.867, 27712.00
1198.951, 28088.00
1200.034, 27953.11
1201.117, 27982.00
1202.200, 28018.00
1203.283, 27907.00
1204.366, 27962.00
1205.448, 28126.00
1206.531, 27848.00
1207.613, 27934.00
1208.695, 28167.00
1209.777, 27896.00
1210.859, 27993.00
1211.940, 27940.00
1213.022, 28031.00
1214.103, 28172.00
1215.184, 28160.00
1216.265, 28083.00
1217.346, 28172.00
1218.427, 28055.00
1219.507, 28006.00
1220.587, 28233.00
1221.668, 28311.00
1222.748, 28307.00
1223.828, 28289.00
1224.907, 28268.00
1225.987, 28281.00
1227.066, 28278.00
1228.146, 28315.00
1229.225, 28323.00
1230.304, 28327.01
1231.382, 28312.00
1232.461, 28306.00
1233.540, 28308.00
1234.618, 28242.00
1235.696, 28302.00
1236.774, 28383.00
1237.852, 28254.00
1238.930, 28364.00
1240.007, 28538.00
1241.085, 28378.00
1242.162, 28847.00
1243.239, 28417.00
1244.316, 28382.00
1245.393, 28379.00
1246.469, 28606.00
1247.546, 28458.00
1248.622, 28630.00
1249.698, 28491.00
1250.774, 28545.00
1251.850, 28495.00
1252.926, 28468.00
1254.001, 28641.00
1255.077, 28558.00
1256.152, 28608.00
1257.227, 28655.00
1258.302, 28533.99
1259.377, 28659.15
1260.451, 28384.00
1261.526, 28704.00
1262.600, 28769.00
1263.674, 28579.00
1264.748, 28704.00
1265.822, 28452.00
1266.896, 28480.00
1267.969, 28571.00
1269.043, 28803.00
1270.116, 29027.00
1271.189, 28601.00
1272.262, 28666.00
1273.335, 28824.00
1274.407, 28702.00
1275.480, 28830.00
1276.552, 28792.27
1277.624, 28774.19
1278.696, 28837.00
1279.768, 28708.00
1280.840, 28937.00
1281.911, 28845.00
1282.982, 28982.00
1284.054, 28755.00
1285.125, 28934.00
1286.196, 29051.00
1287.266, 29172.00
1288.337, 28854.00
1289.407, 28857.00
1290.478, 29078.00
1291.548, 28873.00
1292.618, 28992.00
1293.688, 29084.00
1294.757, 28915.00
1295.827, 28998.00
1296.896, 28993.00
1297.965, 29113.00
1299.034, 29292.00
1300.103, 29023.00
1301.172, 29054.00
1302.241, 28930.00
1303.309, 29086.00
1304.377, 28998.00
1305.445, 29164.00
1306.513, 29208.95
1307.581, 29230.00
1308.649, 29207.00
1309.716, 29210.00
1310.784, 29265.25
1311.851, 29115.00
1312.918, 29319.00
1313.985, 29302.00
1315.052, 29180.00
1316.118, 29207.00
1317.185, 29171.25
1318.251, 29299.00
1319.317, 29221.00
1320.383, 29306.00
1321.449, 29465.00
1322.514, 29284.00
1323.580, 29498.00
1324.645, 29236.00
1325.711, 29653.00
1326.776, 29269.00
1327.840, 29403.00
1328.905, 29466.00
1329.970, 29216.00
1331.034, 29367.00
1332.099, 29643.00
1333.163, 29534.00
1334.227, 29322.00
1335.290, 29676.00
1336.354, 29564.00
1337.418, 29441.00
1338.481, 29560.00
1339.544, 29588.00
1340.607, 29481.00
1341.670, 29598.00
1342.733, 29630.00
1343.795, 29651.00
1344.858, 29780.00
1345.920, 29711.00
1346.982, 29360.00
1348.044, 29649.00
1349.106, 29543.00
1350.168, 29823.00
1351.229, 29768.00
1352.291, 29533.00
1353.352, 29711.00
1354.413, 29795.00
1355.474, 29656.00
1356.534, 29880.00
1357.595, 29671.00
1358.656, 29842.00
1359.716, 29771.00
1360.776, 29824.00
1361.836, 29728.00
1362.896, 29864.00
1363.955, 29816.00
1365.015, 29640.00
1366.074, 29916.00
1367.134, 29857.00
1368.193, 30111.00
1369.252, 29833.00
1370.310, 29871.00
1371.369, 29961.00
1372.427, 30013.00
1373.486, 29872.00
1374.544, 29982.00
1375.602, 29791.00
1376.660, 30049.00
1377.717, 29845.00
1378.775, 29874.00
1379.832, 29993.00
1380.889, 29785.00
1381.946, 30026.00
1383.003, 29993.00
1384.060, 29879.00
1385.117, 29976.00
1386.173, 29936.72
1387.230, 30055.00
1388.286, 30010.31
1389.342, 30067.68
1390.398, 30174.00
1391.453, 30139.00
1392.509, 30287.00
1393.564, 30170.00
1394.619, 30044.00
1395.675, 30154.00
1396.729, 30286.00
1397.784, 30061.00
1398.839, 30141.00
1399.893, 30142.00
1400.948, 30263.00
1402.002, 30182.00
1403.056, 30208.00
1404.110, 30181.00
1405.163, 30103.00
1406.217, 30175.89
1407.270, 30185.19
1408.324, 30288.00
1409.377, 30251.00
1410.430, 30330.00
1411.483, 30252.00
1412.535, 30297.00
1413.588, 30420.00
1414.640, 30345.00
1415.692, 30599.00
1416.744, 30407.00
1417.796, 30231.00
1418.848, 30653.00
1419.900, 30549.00
1420.951, 30607.00
1422.002, 30563.00
1423.053, 30556.00
1424.104, 30617.00
1425.155, 30574.00
1426.206, 30406.00
1427.256, 30688.00
1428.307, 30273.45
1429.357, 30582.91
1430.407, 30764.24
1431.457, 30824.35
1432.507, 30400.09
1433.556, 30601.27
1434.606, 30551.81
1435.655, 30492.06
1436.704, 30781.26
1437.753, 30427.44
1438.802, 30711.11
1439.851, 30740.30
1440.899, 30885.95
1441.948, 30779.41
1442.996, 30750.76
1444.044, 30974.38
1445.092, 31058.31
1446.140, 30922.73
1447.187, 31075.76
1448.235, 30713.12
1449.282, 30802.98
1450.329, 31088.10
1451.376, 30965.18
1452.423, 31122.82
1453.470, 31173.61
1454.517, 30738.80
1455.563, 31148.48
1456.609, 31192.94
1457.655, 30862.39
1458.701, 31243.14
1459.747, 30964.29
1460.793, 30920.88
1461.838, 31054.63
1462.884, 31003.70
1463.929, 31243.95
1464.974, 31203.66
1466.019, 31138.31
1467.064, 31182.35
1468.108, 30916.40
1469.153, 31225.51
1470.197, 31141.81
1471.241, 31253.36
1472.285, 31409.16
1473.329, 31226.10
1474.373, 31401.79
1475.416, 31021.11
1476.460, 31203.00
1477.503, 31102.00
1478.546, 31252.00
1479.589, 31233.00
1480.632, 31349.00
1481.674, 31499.00
1482.717, 31443.00
1483.759, 31441.94
1484.801, 31378.63
1485.843, 31357.00
1486.885, 31237.00
1487.927, 31374.00
1488.968, 31503.00
1490.010, 31510.00
1491.051, 31452.00
1492.092, 31512.00
1493.133, 31547.00
1494.174, 31428.00
1495.215, 31501.00
1496.255, 31616.00
1497.296, 31677.00
1498.336, 31498.00
1499.376, 31601.00
1500.416, 31620.00
1501.456, 31505.00
1502.495, 31644.00
1503.535, 31653.87
1504.574, 31623.00
1505.613, 31834.00
1506.652, 31583.00
1507.691, 31710.00
1508.730, 31611.00
1509.768, 31654.00
1510.807, 31731.00
1511.845, 31639.00
1512.883, 31855.00
1513.921, 31682.00
1514.959, 31788.00
1515.996, 31783.00
1517.034, 31656.00
1518.071, 31788.00
1519.109, 31923.00
1520.146, 31817.00
1521.183, 31841.00
1522.219, 31816.63
1523.256, 32073.00
1524.292, 31720.00
1525.329, 31972.00
1526.365, 31940.00
1527.401, 31891.00
1528.437, 32019.00
1529.472, 32042.00
1530.508, 31879.00
1531.543, 32114.00
1532.579, 32060.46
1533.614, 31974.00
1534.649, 32135.00
1535.683, 32079.00
1536.718, 31870.59
1537.753, 32182.53
1538.787, 32366.32
1539.821, 32428.89
1540.855, 32007.10
1541.889, 32210.75
1542.923, 32163.75
1543.956, 32106.46
1544.990, 32398.14
1546.023, 32046.78
1547.056, 32332.91
1548.089, 32364.56
1549.122, 32512.68
1550.155, 32408.61
1551.187, 32382.41
1552.220, 32608.51
1553.252, 32694.90
1554.284, 32561.77
1555.316, 32717.28
1556.348, 32357.09
1557.379, 32449.41
1558.411, 32736.99
1559.442, 32616.53
1560.474, 32776.64
1561.505, 32829.89
1562.535, 32397.51
1563.566, 32809.66
1564.597, 32856.59
1565.627, 32528.50
1566.658, 32911.71
1567.688, 32188.00
1568.718, 32508.00
1569.748, 32379.00
1570.777, 32437.00
##END=



