##NAMES=Annite
##RRUFFID=R060211
##IDEAL CHEMISTRY=KFe^2+^_3_AlSi_3_O_10_(OH)_2_
##LOCALITY=Mont Saint-Hilaire, Rouville County, Quebec, Canada
##OWNER=RRUFF
##SOURCE=Royal Ontario Museum
##DESCRIPTION=Black mica
##STATUS=The identification of this mineral has been confirmed by X-ray diffraction and chemical analysis
##URL=rruff.info/R060211
##MEASURED CHEMISTRY=(K_0.94_[box]_0.03_Na_0.02_)_Σ=1_(Fe^2+^_2.07_Mg_0.57_Mn_0.33_Ti_0.03_)_Σ=3_(Si_2.98_Al_1.02_)O_10_((OH)_1.72_F_0.28_)_Σ=2_
##PIN_ID=L00722
##ORIENTATION=Laser parallel to a* (1 0 0). Fiducial mark perpendicular to laser is parallel to b [0 1 0]
230.7650, 15753.00
231.9820, 15824.00
233.1990, 15861.00
234.4160, 15830.00
235.6330, 16024.00
236.8490, 15973.00
238.0660, 15884.00
239.2820, 16068.00
240.4980, 15996.00
241.7140, 16135.00
242.9300, 16119.00
244.1460, 16134.00
245.3610, 15973.00
246.5770, 16093.00
247.7920, 16003.00
249.0070, 15987.00
250.2220, 16112.00
251.4370, 15953.00
252.6510, 16072.00
253.8660, 16055.00
255.0800, 16103.00
256.2940, 16032.00
257.5080, 16119.00
258.7220, 16233.00
259.9360, 16410.00
261.1490, 16374.71
262.3630, 16596.00
263.5760, 16338.00
264.7890, 16391.00
266.0020, 16394.00
267.2150, 16442.00
268.4270, 16476.00
269.6400, 16452.00
270.8520, 16661.00
272.0640, 16580.00
273.2760, 16591.00
274.4880, 16499.00
275.7000, 16442.00
276.9120, 16324.00
278.1230, 16511.00
279.3340, 16400.00
280.5450, 16532.00
281.7560, 16156.00
282.9670, 16374.00
284.1780, 16323.00
285.3880, 16365.00
286.5980, 16311.00
287.8090, 16295.00
289.0190, 16320.33
290.2290, 16285.00
291.4380, 16335.00
292.6480, 16387.00
293.8570, 16354.00
295.0670, 16509.00
296.2760, 16423.00
297.4850, 16376.00
298.6930, 16277.00
299.9020, 16382.00
301.1110, 16487.00
302.3190, 16370.00
303.5270, 16361.00
304.7350, 16410.00
305.9430, 16410.00
307.1510, 16532.00
308.3580, 16505.00
309.5660, 16532.00
310.7730, 16423.00
311.9800, 16419.00
313.1870, 16502.00
314.3940, 16373.00
315.6010, 16551.00
316.8070, 16467.00
318.0130, 16446.00
319.2200, 16413.00
320.4260, 16632.00
321.6310, 16558.00
322.8370, 16697.00
324.0430, 16592.00
325.2480, 16584.00
326.4540, 16785.00
327.6590, 16537.00
328.8640, 16643.00
330.0680, 16777.00
331.2730, 16711.00
332.4780, 16801.00
333.6820, 16711.00
334.8860, 16791.39
336.0900, 16772.91
337.2940, 16962.00
338.4980, 16753.00
339.7010, 16904.00
340.9050, 16892.00
342.1080, 16940.00
343.3110, 17011.00
344.5140, 17023.00
345.7170, 17047.97
346.9200, 17053.77
348.1220, 17012.00
349.3240, 17057.00
350.5270, 16944.00
351.7290, 16986.00
352.9310, 17004.00
354.1320, 17028.00
355.3340, 17041.00
356.5350, 17094.00
357.7370, 17089.00
358.9380, 17305.00
360.1390, 17183.00
361.3400, 17337.00
362.5400, 17469.00
363.7410, 17184.00
364.9410, 17500.00
366.1410, 17495.00
367.3410, 17668.00
368.5410, 17596.00
369.7410, 17809.00
370.9400, 17755.00
372.1400, 18006.00
373.3390, 17952.00
374.5380, 18039.00
375.7370, 18043.00
376.9360, 18259.00
378.1350, 18451.00
379.3330, 18639.00
380.5310, 18608.00
381.7300, 18745.00
382.9280, 18755.00
384.1260, 18914.00
385.3230, 18967.00
386.5210, 19033.00
387.7180, 19100.00
388.9160, 19295.00
390.1130, 19219.00
391.3100, 19256.66
392.5060, 19252.64
393.7030, 19122.00
394.9000, 19165.00
396.0960, 18987.00
397.2920, 18929.00
398.4880, 18899.00
399.6840, 18741.00
400.8800, 18671.00
402.0750, 18537.00
403.2710, 18442.00
404.4660, 18461.00
405.6610, 18336.00
406.8560, 18207.00
408.0510, 18122.00
409.2450, 17916.00
410.4400, 18161.00
411.6340, 18125.00
412.8280, 18032.00
414.0220, 18025.00
415.2160, 17946.56
416.4100, 17829.00
417.6030, 17829.00
418.7970, 17770.00
419.9900, 17733.00
421.1830, 17782.00
422.3760, 17643.00
423.5690, 17809.00
424.7610, 17795.00
425.9540, 17742.00
427.1460, 17649.00
428.3380, 17633.00
429.5300, 17581.65
430.7220, 17761.00
431.9140, 17585.00
433.1050, 17682.00
434.2970, 17834.00
435.4880, 17674.00
436.6790, 17785.00
437.8700, 17714.00
439.0610, 17672.00
440.2510, 17764.00
441.4420, 17808.00
442.6320, 17772.00
443.8220, 17760.00
445.0120, 17779.38
446.2020, 17932.00
447.3910, 17822.00
448.5810, 17905.00
449.7700, 17987.00
450.9600, 17896.00
452.1490, 17983.00
453.3370, 18080.00
454.5260, 18048.00
455.7150, 18169.00
456.9030, 18088.00
458.0910, 18121.00
459.2800, 18229.00
460.4670, 18138.00
461.6550, 18141.00
462.8430, 18115.00
464.0300, 18096.00
465.2180, 18088.00
466.4050, 18264.00
467.5920, 18367.00
468.7790, 18381.00
469.9650, 18399.00
471.1520, 18467.00
472.3380, 18434.00
473.5250, 18554.00
474.7110, 18527.96
475.8970, 18441.00
477.0820, 18521.00
478.2680, 18566.00
479.4540, 18561.00
480.6390, 18663.00
481.8240, 18544.00
483.0090, 18559.00
484.1940, 18664.00
485.3780, 18810.00
486.5630, 18743.00
487.7470, 18912.00
488.9320, 19091.00
490.1160, 19003.00
491.3000, 19234.00
492.4830, 19192.00
493.6670, 19331.00
494.8500, 19436.00
496.0340, 19718.00
497.2170, 19546.00
498.4000, 19797.00
499.5820, 19824.00
500.7650, 19851.00
501.9480, 20034.00
503.1300, 19964.00
504.3120, 20134.00
505.4940, 20319.00
506.6760, 20359.00
507.8580, 20304.00
509.0390, 20382.00
510.2210, 20250.00
511.4020, 20430.00
512.5830, 20259.00
513.7640, 20355.00
514.9450, 20139.00
516.1250, 20114.00
517.3060, 20163.00
518.4860, 20080.00
519.6660, 19975.00
520.8460, 19995.00
522.0260, 19873.00
523.2060, 20000.00
524.3850, 19992.00
525.5650, 19959.00
526.7440, 19838.00
527.9230, 19835.00
529.1020, 19809.00
530.2810, 19992.00
531.4590, 19753.00
532.6380, 19873.00
533.8160, 19751.00
534.9940, 19822.00
536.1720, 19766.00
537.3500, 19894.00
538.5270, 19698.00
539.7050, 19591.00
540.8820, 19784.00
542.0590, 19585.00
543.2360, 19810.00
544.4130, 19744.00
545.5900, 19716.00
546.7660, 19823.00
547.9430, 19633.00
549.1190, 19768.00
550.2950, 19734.00
551.4710, 19609.00
552.6470, 19661.00
553.8220, 19498.00
554.9980, 19502.00
556.1730, 19549.00
557.3480, 19722.00
558.5230, 19586.00
559.6980, 19656.00
560.8730, 19743.00
562.0470, 19680.00
563.2220, 19670.00
564.3960, 19709.89
565.5700, 19757.00
566.7440, 19730.00
567.9170, 19748.29
569.0910, 19748.41
570.2640, 19730.00
571.4380, 19742.00
572.6110, 19766.85
573.7840, 19742.00
574.9570, 19853.00
576.1290, 19913.00
577.3020, 19991.00
578.4740, 19985.17
579.6460, 19993.84
580.8180, 19939.00
581.9900, 19915.00
583.1620, 19898.00
584.3330, 19916.42
585.5040, 19935.00
586.6760, 20020.00
587.8470, 20015.00
589.0180, 20128.00
590.1880, 20162.00
591.3590, 20161.00
592.5290, 20344.00
593.7000, 20271.00
594.8700, 20268.12
596.0400, 20581.00
597.2090, 20242.00
598.3790, 20619.00
599.5490, 20843.00
600.7180, 20808.00
601.8870, 20784.00
603.0560, 20912.00
604.2250, 20931.21
605.3940, 20997.00
606.5620, 21167.00
607.7300, 21187.00
608.8990, 21442.00
610.0670, 21667.00
611.2350, 21610.00
612.4020, 21875.00
613.5700, 21907.00
614.7370, 22336.00
615.9050, 22657.00
617.0720, 22614.00
618.2390, 22902.00
619.4060, 22977.00
620.5720, 23109.00
621.7390, 23423.00
622.9050, 23683.00
624.0710, 23660.00
625.2370, 23707.00
626.4030, 24267.00
627.5690, 24580.00
628.7340, 24708.00
629.9000, 24485.00
631.0650, 24557.00
632.2300, 24702.00
633.3950, 24786.00
634.5600, 24571.00
635.7240, 24598.00
636.8890, 24511.00
638.0530, 24438.00
639.2170, 24412.00
640.3810, 24293.00
641.5450, 24212.00
642.7080, 24268.00
643.8720, 24141.00
645.0350, 24001.00
646.1980, 24039.00
647.3610, 23924.00
648.5240, 23593.00
649.6870, 23950.00
650.8490, 23867.00
652.0120, 24261.00
653.1740, 24110.00
654.3360, 24015.00
655.4980, 24381.00
656.6600, 24263.00
657.8210, 24616.00
658.9830, 24723.00
660.1440, 24457.00
661.3050, 24943.00
662.4660, 25084.00
663.6270, 25071.00
664.7870, 25135.00
665.9480, 25207.00
667.1080, 25204.00
668.2680, 25397.00
669.4280, 25325.00
670.5880, 25376.00
671.7480, 25289.00
672.9070, 25193.00
674.0670, 25071.00
675.2260, 25024.66
676.3850, 24885.00
677.5440, 24971.00
678.7030, 24790.00
679.8610, 24863.00
681.0200, 24736.00
682.1780, 24609.00
683.3360, 24728.00
684.4940, 24640.00
685.6520, 24398.00
686.8090, 24301.00
687.9670, 24308.00
689.1240, 23871.00
690.2810, 23850.00
691.4380, 23900.00
692.5950, 23860.00
693.7520, 23527.00
694.9080, 23538.00
696.0650, 23619.00
697.2210, 23741.00
698.3770, 23408.00
699.5330, 23615.00
700.6880, 23406.00
701.8440, 23069.00
702.9990, 23191.00
704.1550, 23026.00
705.3100, 23006.00
706.4650, 22944.00
707.6190, 23006.00
708.7740, 22909.00
709.9290, 22962.00
711.0830, 22955.00
712.2370, 22925.00
713.3910, 22617.00
714.5450, 22541.00
715.6980, 22635.00
716.8520, 22480.00
718.0050, 22477.00
719.1580, 22433.00
720.3110, 22401.77
721.4640, 22387.89
722.6170, 22357.00
723.7700, 22349.00
724.9220, 22227.00
726.0740, 22197.00
727.2260, 22349.00
728.3780, 22382.00
729.5300, 21973.00
730.6810, 22083.00
731.8330, 22119.00
732.9840, 22276.00
734.1350, 22074.00
735.2860, 22193.00
736.4370, 21990.00
737.5880, 22165.00
738.7380, 22319.00
739.8880, 22170.00
741.0390, 22045.00
742.1890, 22103.00
743.3380, 22020.00
744.4880, 22082.00
745.6380, 22069.00
746.7870, 22161.00
747.9360, 22032.00
749.0850, 22256.00
750.2340, 22105.00
751.3830, 22045.00
752.5310, 22292.00
753.6800, 22021.00
754.8280, 22150.00
755.9760, 22109.00
757.1240, 22226.00
758.2720, 22166.00
759.4190, 22116.00
760.5670, 22034.00
761.7140, 22395.00
762.8610, 22253.00
764.0080, 22215.00
765.1550, 22330.00
766.3020, 22232.00
767.4480, 22207.00
768.5950, 22228.00
769.7410, 22223.00
770.8870, 22301.00
772.0330, 22362.00
773.1780, 22269.00
774.3240, 22276.00
775.4690, 22460.00
776.6140, 22609.00
777.7590, 22555.00
778.9040, 22285.00
780.0490, 22252.00
781.1940, 22398.00
782.3380, 22457.00
783.4820, 22486.00
784.6260, 22446.00
785.7700, 22437.00
786.9140, 22469.00
788.0580, 22447.62
789.2010, 22507.00
790.3450, 22427.00
791.4880, 22518.00
792.6310, 22460.00
793.7730, 22658.00
794.9160, 22341.00
796.0590, 22483.00
797.2010, 22384.00
798.3430, 22471.00
799.4850, 22514.00
800.6270, 22425.00
801.7690, 22532.00
802.9100, 22472.00
804.0520, 22777.00
805.1930, 22955.00
806.3340, 22773.00
807.4750, 22704.00
808.6160, 22784.00
809.7560, 22727.00
810.8970, 22544.00
812.0370, 22625.00
813.1770, 22556.00
814.3170, 22629.00
815.4570, 22590.00
816.5960, 22832.00
817.7360, 22793.00
818.8750, 22833.00
820.0140, 22861.00
821.1530, 22857.00
822.2920, 22817.00
823.4310, 22860.00
824.5690, 22894.00
825.7070, 22853.00
826.8460, 22916.00
827.9840, 23177.00
829.1220, 22892.00
830.2590, 23131.00
831.3970, 23051.00
832.5340, 23144.00
833.6710, 23061.00
834.8080, 23021.00
835.9450, 22973.00
837.0820, 23004.00
838.2190, 23132.00
839.3550, 23130.00
840.4910, 23254.00
841.6270, 23280.00
842.7630, 23120.00
843.8990, 23356.00
845.0350, 23267.00
846.1700, 23337.00
847.3060, 23405.70
848.4410, 23333.00
849.5760, 23419.00
850.7100, 23395.00
851.8450, 23257.00
852.9800, 23182.00
854.1140, 23476.00
855.2480, 23510.00
856.3820, 23349.00
857.5160, 23594.00
858.6500, 23424.00
859.7830, 23480.00
860.9170, 23474.00
862.0500, 23479.00
863.1830, 23490.00
864.3160, 23493.00
865.4480, 23644.00
866.5810, 23644.00
867.7130, 23566.00
868.8460, 23663.00
869.9780, 24076.00
871.1100, 23768.00
872.2410, 24019.00
873.3730, 23941.00
874.5050, 23935.00
875.6360, 23954.32
876.7670, 23874.00
877.8980, 23878.00
879.0290, 23928.00
880.1590, 23955.00
881.2900, 24061.00
882.4200, 24010.00
883.5500, 24083.00
884.6800, 24013.00
885.8100, 24033.83
886.9400, 24210.00
888.0690, 24131.00
889.1990, 23929.00
890.3280, 24157.00
891.4570, 24029.00
892.5860, 24354.00
893.7140, 24319.00
894.8430, 24430.00
895.9710, 24491.00
897.1000, 24412.00
898.2280, 24365.00
899.3560, 24370.70
900.4830, 24418.19
901.6110, 24450.42
902.7380, 24591.00
903.8660, 24591.00
904.9930, 24656.00
906.1200, 24733.00
907.2460, 24644.00
908.3730, 24770.00
909.5000, 24730.04
910.6260, 24880.00
911.7520, 24752.00
912.8780, 24876.00
914.0040, 24986.00
915.1290, 24977.00
916.2550, 24891.00
917.3800, 24991.00
918.5050, 24983.00
919.6300, 24907.00
920.7550, 24963.00
921.8800, 25046.00
923.0040, 25053.00
924.1290, 25233.00
925.2530, 25346.00
926.3770, 25292.00
927.5010, 25230.00
928.6250, 25180.00
929.7480, 25239.85
930.8720, 25342.00
931.9950, 25455.00
933.1180, 25375.00
934.2410, 25600.00
935.3640, 25607.00
936.4860, 25885.00
937.6090, 25772.00
938.7310, 25635.00
939.8530, 25649.00
940.9750, 25608.00
942.0970, 25613.28
943.2180, 25552.00
944.3400, 25761.00
945.4610, 25738.00
946.5820, 25977.00
947.7030, 25953.00
948.8240, 26200.00
949.9450, 26094.00
951.0650, 26141.00
952.1860, 26304.00
953.3060, 26043.00
954.4260, 26262.00
955.5460, 25884.00
956.6650, 26148.00
957.7850, 26365.00
958.9040, 26095.00
960.0230, 26331.00
961.1420, 26328.00
962.2610, 26444.00
963.3800, 26548.00
964.4990, 26595.00
965.6170, 26468.00
966.7350, 26649.00
967.8530, 26491.00
968.9710, 26337.00
970.0890, 26674.00
971.2070, 26684.00
972.3240, 26783.00
973.4410, 26915.00
974.5580, 26980.67
975.6750, 26972.00
976.7920, 27227.00
977.9090, 27270.00
979.0250, 27473.00
980.1410, 27714.00
981.2580, 27973.00
982.3740, 28079.00
983.4890, 27959.00
984.6050, 27995.00
985.7200, 28007.00
986.8360, 28019.00
987.9510, 28034.12
989.0660, 27667.00
990.1810, 27984.00
991.2950, 27987.00
992.4100, 27822.00
993.5240, 28081.00
994.6390, 28075.00
995.7530, 28175.00
996.8660, 28227.00
997.9800, 28419.00
999.0940, 28402.00
1000.207, 28820.00
1001.320, 28928.00
1002.433, 29100.00
1003.546, 29186.00
1004.659, 29333.50
1005.772, 29468.04
1006.884, 29549.00
1007.996, 29651.00
1009.108, 29644.00
1010.220, 29538.00
1011.332, 29594.00
1012.444, 29669.00
1013.555, 30009.00
1014.666, 29895.00
1015.777, 29757.00
1016.888, 30185.00
1017.999, 29644.41
1019.110, 30040.93
1020.220, 30254.39
1021.331, 30294.60
1022.441, 29642.75
1023.551, 29884.58
1024.661, 29605.00
1025.770, 29518.00
1026.880, 29627.00
1027.989, 29636.00
1029.098, 29618.00
1030.207, 29652.00
1031.316, 29307.00
1032.425, 29430.00
1033.533, 29468.00
1034.642, 29045.00
1035.750, 29078.00
1036.858, 28947.00
1037.966, 28957.00
1039.073, 29124.00
1040.181, 28994.00
1041.288, 28988.00
1042.396, 28894.00
1043.503, 29002.00
1044.610, 28972.00
1045.716, 28932.00
1046.823, 28970.00
1047.929, 28904.00
1049.036, 28819.00
1050.142, 28729.00
1051.248, 28986.00
1052.353, 29285.00
1053.459, 28993.00
1054.564, 28855.00
1055.670, 29197.00
1056.775, 29018.00
1057.880, 29219.00
1058.985, 29146.00
1060.089, 28823.00
1061.194, 28877.00
1062.298, 29028.00
1063.402, 28865.00
1064.506, 28857.00
1065.610, 29194.00
1066.713, 29017.00
1067.817, 29100.19
1068.920, 29146.00
1070.023, 28962.31
1071.126, 29082.27
1072.229, 29159.06
1073.332, 29195.00
1074.435, 29067.74
1075.537, 29151.19
1076.639, 29150.20
1077.741, 29145.74
1078.843, 29258.86
1079.945, 29155.31
1081.046, 29266.55
1082.148, 29292.06
1083.249, 29356.79
1084.350, 29336.55
1085.451, 29342.56
1086.551, 29433.54
1087.652, 29477.49
1088.752, 29447.44
1089.853, 29514.67
1090.953, 29408.12
1092.053, 29454.05
1093.152, 29565.74
1094.252, 29539.97
1095.351, 29608.72
1096.451, 29641.48
1097.550, 29430.00
1098.649, 29450.00
1099.748, 29264.00
1100.846, 29341.00
1101.945, 29218.00
1103.043, 29234.00
1104.141, 29240.00
1105.239, 29274.00
1106.337, 29223.00
1107.434, 29275.00
1108.532, 29692.00
1109.629, 29574.00
1110.726, 29504.00
1111.823, 29625.00
1112.920, 29313.00
1114.017, 29567.00
1115.113, 29777.00
1116.210, 29567.90
1117.306, 29856.00
1118.402, 29453.00
1119.498, 29598.00
1120.593, 29723.00
1121.689, 29769.00
1122.784, 29885.00
1123.879, 29836.00
1124.974, 29909.00
1126.069, 30058.00
1127.164, 29846.00
1128.259, 29847.00
1129.353, 29960.00
1130.447, 29937.00
1131.541, 30023.92
1132.635, 30054.00
1133.729, 30122.00
1134.822, 30210.00
1135.916, 30168.00
1137.009, 30329.00
1138.102, 30297.89
1139.195, 30263.00
1140.288, 30280.00
1141.380, 30343.00
1142.473, 30292.00
1143.565, 30267.00
1144.657, 30455.00
1145.749, 30413.00
1146.841, 30555.00
1147.932, 30558.00
1149.024, 30260.00
1150.115, 30652.00
1151.206, 30582.00
1152.297, 30488.00
1153.388, 30781.00
1154.479, 30713.00
1155.569, 30674.00
1156.659, 30594.00
1157.750, 30905.00
1158.839, 30649.00
1159.929, 30878.00
1161.019, 30902.00
1162.108, 30967.00
1163.198, 31045.00
1164.287, 31029.00
1165.376, 31060.00
1166.465, 31053.00
1167.553, 31063.00
1168.642, 30961.00
1169.730, 31042.00
1170.818, 31058.00
1171.906, 31217.00
1172.994, 31495.00
1174.082, 31263.00
1175.170, 31211.00
1176.257, 31437.00
1177.344, 31234.00
1178.431, 31455.00
1179.518, 31501.00
1180.605, 31276.00
1181.691, 31390.00
1182.778, 31495.00
1183.864, 31361.00
1184.950, 31527.00
1186.036, 31807.00
1187.122, 31796.00
1188.207, 31922.08
1189.292, 31905.00
1190.378, 31934.00
1191.463, 31872.00
1192.548, 31737.00
1193.632, 31839.00
1194.717, 31850.00
1195.801, 31936.00
1196.886, 32003.00
1197.970, 32042.00
1199.054, 31838.00
1200.137, 32172.00
1201.221, 32350.00
1202.305, 32161.00
1203.388, 32563.00
1204.471, 32311.00
1205.554, 32235.00
1206.637, 32351.00
1207.719, 32302.00
1208.802, 32420.00
1209.884, 32425.71
1210.966, 32252.00
1212.048, 32512.00
1213.130, 32465.00
1214.212, 32604.00
1215.293, 32597.00
1216.374, 32872.00
1217.456, 32687.00
1218.536, 32773.00
1219.617, 32825.00
1220.698, 32705.00
1221.778, 33038.00
1222.859, 32762.00
1223.939, 32742.00
1225.019, 32870.00
1226.099, 32952.00
1227.178, 32982.22
1228.258, 32933.00
1229.337, 33110.00
1230.417, 33093.00
1231.496, 33210.00
1232.574, 33417.00
1233.653, 33017.00
1234.732, 33314.00
1235.810, 33257.00
1236.888, 33196.00
1237.966, 33276.00
1239.044, 33222.00
1240.122, 33297.00
1241.199, 33597.00
1242.277, 33840.00
1243.354, 33713.00
1244.431, 33897.00
1245.508, 33788.00
1246.585, 33823.00
1247.661, 33989.00
1248.738, 34052.00
1249.814, 33454.00
1250.890, 33969.00
1251.966, 33786.00
1253.042, 33778.00
1254.117, 34079.00
1255.193, 33975.00
1256.268, 34132.00
1257.343, 34156.00
1258.418, 34209.00
1259.493, 34379.00
1260.567, 34397.00
1261.642, 34296.00
1262.716, 34284.00
1263.790, 34295.04
1264.864, 34183.00
1265.938, 34344.00
1267.011, 34406.50
1268.085, 34460.27
1269.158, 34700.00
1270.231, 34631.00
1271.304, 34878.00
1272.377, 34722.00
1273.450, 34562.00
1274.522, 34780.00
1275.594, 34669.00
1276.666, 34664.00
1277.738, 34736.00
1278.810, 34767.00
1279.882, 35180.00
1280.953, 35090.00
1282.025, 35252.00
1283.096, 35175.00
1284.167, 35092.00
1285.238, 35435.00
1286.308, 35344.00
1287.379, 35397.00
1288.449, 35280.00
1289.519, 35329.00
1290.589, 35562.00
1291.659, 35245.00
1292.729, 35500.00
1293.798, 35633.00
1294.868, 35548.00
1295.937, 35613.00
1297.006, 35810.00
1298.075, 35748.88
1299.143, 35867.00
1300.212, 35816.00
1301.280, 35684.00
1302.348, 35755.00
1303.416, 35943.00
1304.484, 35906.00
1305.552, 35916.00
1306.620, 36090.00
1307.687, 36089.00
1308.754, 36402.00
1309.821, 36315.00
1310.888, 36448.00
1311.955, 36461.00
1313.021, 36285.00
1314.088, 36205.00
1315.154, 36395.00
1316.220, 36631.00
1317.286, 36407.00
1318.352, 36161.00
1319.417, 36549.00
1320.483, 36393.00
1321.548, 36799.00
1322.613, 36517.00
1323.678, 36839.00
1324.743, 36509.00
1325.807, 36575.00
1326.872, 36822.00
1327.936, 36777.00
1329.000, 36954.00
1330.064, 37228.00
1331.128, 37141.95
1332.191, 36932.00
1333.255, 37137.00
1334.318, 37100.00
1335.381, 37125.00
1336.444, 37287.00
1337.507, 37453.00
1338.569, 37152.00
1339.632, 37290.00
1340.694, 37287.00
1341.756, 37362.00
1342.818, 37186.00
1343.880, 37241.00
1344.941, 37374.00
1346.003, 37260.00
1347.064, 37448.00
1348.125, 37495.00
1349.186, 37683.00
1350.247, 37837.00
1351.308, 37876.00
1352.368, 37980.00
1353.428, 37987.26
1354.489, 37812.00
1355.549, 37902.00
1356.608, 37903.00
1357.668, 37726.00
1358.727, 38062.00
1359.787, 37893.00
1360.846, 37892.00
1361.905, 37968.00
1362.964, 38266.00
1364.022, 38358.00
1365.081, 38380.00
1366.139, 37941.00
1367.197, 38175.00
1368.255, 37868.00
1369.313, 38279.00
1370.371, 38307.56
1371.428, 38391.00
1372.486, 38532.00
1373.543, 38381.00
1374.600, 38278.00
1375.657, 38298.00
1376.713, 38419.00
1377.770, 38642.00
1378.826, 38661.00
1379.882, 38765.24
1380.938, 38815.19
1381.994, 38777.00
1383.050, 38746.00
1384.106, 38566.00
1385.161, 38603.95
1386.216, 38388.00
1387.271, 38610.00
1388.326, 38546.00
1389.381, 38583.00
1390.435, 38790.00
1391.490, 38812.00
1392.544, 38726.00
1393.598, 38567.00
1394.652, 38837.00
1395.705, 38588.00
1396.759, 38648.00
1397.812, 38619.00
1398.866, 38704.00
1399.919, 38619.00
1400.972, 38688.49
1402.024, 38748.00
1403.077, 38764.00
1404.129, 38820.00
1405.181, 38838.00
1406.233, 39110.00
1407.285, 39022.00
1408.337, 38960.00
1409.389, 38794.00
1410.440, 39042.00
1411.491, 39216.00
1412.542, 39004.00
1413.593, 38918.00
1414.644, 39204.00
1415.695, 39200.00
1416.745, 39210.00
1417.795, 39308.00
1418.845, 39173.00
1419.895, 39327.00
1420.945, 39088.00
1421.995, 39219.00
1423.044, 39016.00
1424.093, 39454.00
1425.142, 39160.00
1426.191, 39315.00
1427.240, 39357.00
1428.289, 39425.00
1429.337, 39784.00
1430.385, 39481.00
1431.433, 39744.00
1432.481, 39778.00
1433.529, 39594.00
1434.577, 39542.00
1435.624, 39505.00
1436.672, 39421.41
1437.719, 39452.39
1438.766, 39404.00
1439.812, 39463.00
1440.859, 39588.00
1441.905, 39507.00
1442.952, 40064.00
1443.998, 39945.00
1445.044, 39944.00
1446.090, 39855.00
1447.135, 39840.72
1448.181, 39825.18
1449.226, 39823.00
1450.271, 39832.00
1451.316, 39826.00
1452.361, 39878.00
1453.405, 39991.00
1454.450, 40001.87
1455.494, 40098.00
1456.538, 40079.00
1457.582, 40175.00
1458.626, 40179.00
1459.670, 40261.00
1460.713, 40227.00
1461.757, 40151.00
1462.800, 40305.00
1463.843, 40129.00
1464.886, 40137.00
1465.928, 40050.00
1466.971, 40335.00
1468.013, 40149.00
1469.055, 40321.00
1470.097, 40611.00
1471.139, 40407.00
1472.181, 40482.00
1473.222, 40474.00
1474.263, 40610.00
1475.305, 40468.00
1476.346, 40636.00
1477.386, 40681.00
1478.427, 40817.00
1479.468, 40685.00
1480.508, 40821.00
1481.548, 40703.00
1482.588, 40987.00
1483.628, 40905.00
1484.668, 40984.00
1485.707, 41283.00
1486.747, 41350.00
1487.786, 41068.00
1488.825, 41116.00
1489.864, 41081.00
1490.902, 40968.00
1491.941, 41263.00
1492.979, 41115.00
1494.017, 41249.00
1495.055, 41401.00
1496.093, 41504.00
1497.131, 41564.57
1498.168, 41572.00
1499.206, 41638.00
1500.243, 41631.47
1501.280, 41663.75
1502.317, 41708.00
1503.354, 41650.00
1504.390, 41781.00
1505.426, 41832.00
1506.463, 41607.00
1507.499, 41777.00
1508.535, 42068.00
1509.570, 41947.00
1510.606, 42091.00
1511.641, 42163.00
1512.676, 42090.00
1513.711, 42389.00
1514.746, 42388.00
1515.781, 42243.00
1516.816, 42062.00
1517.850, 42479.00
1518.884, 42336.00
1519.918, 42479.00
1520.952, 42706.00
1521.986, 42701.00
1523.019, 42993.00
1524.053, 42633.00
1525.086, 43150.00
1526.119, 42890.00
1527.152, 42809.00
1528.185, 43060.00
1529.217, 42969.00
1530.250, 43044.00
1531.282, 43211.00
1532.314, 43149.00
1533.346, 43321.00
1534.377, 43362.00
1535.409, 43442.00
1536.440, 43601.00
1537.472, 43751.00
1538.503, 43956.00
1539.534, 43566.00
1540.564, 43588.00
1541.595, 43824.00
1542.625, 43672.00
1543.656, 43917.00
1544.686, 43861.00
1545.716, 44006.00
1546.745, 44358.00
1547.775, 44295.00
1548.804, 44165.00
1549.834, 44364.00
1550.863, 44349.70
1551.892, 44895.00
1552.920, 44570.00
1553.949, 44983.00
1554.977, 45164.00
1556.006, 44951.00
1557.034, 44946.00
1558.062, 45073.00
1559.089, 44879.00
1560.117, 45105.00
1561.144, 45078.00
1562.172, 45375.00
1563.199, 45036.00
1564.226, 45301.00
1565.252, 45226.00
1566.279, 45590.00
1567.305, 45422.00
1568.332, 45523.00
1569.358, 45504.00
1570.384, 45711.00
1571.409, 45494.00
##END=



