##NAMES=Annite
##RRUFFID=R060211
##IDEAL CHEMISTRY=KFe^2+^_3_AlSi_3_O_10_(OH)_2_
##LOCALITY=Mont Saint-Hilaire, Rouville County, Quebec, Canada
##OWNER=RRUFF
##SOURCE=Royal Ontario Museum
##DESCRIPTION=Black mica
##STATUS=The identification of this mineral has been confirmed by X-ray diffraction and chemical analysis
##URL=rruff.info/R060211
##MEASURED CHEMISTRY=(K_0.94_[box]_0.03_Na_0.02_)_Σ=1_(Fe^2+^_2.07_Mg_0.57_Mn_0.33_Ti_0.03_)_Σ=3_(Si_2.98_Al_1.02_)O_10_((OH)_1.72_F_0.28_)_Σ=2_
##PIN_ID=L00722
##ORIENTATION=Laser parallel to a* (1 0 0). Fiducial mark perpendicular to laser is parallel to b [0 1 0]
230.7650, 14497.00
231.9820, 14480.00
233.1990, 14530.00
234.4160, 14541.00
235.6330, 14656.00
236.8490, 14576.00
238.0660, 14536.00
239.2820, 14471.00
240.4980, 14390.00
241.7140, 14362.00
242.9300, 14530.00
244.1460, 14385.00
245.3610, 14343.00
246.5770, 14516.00
247.7920, 14723.00
249.0070, 14576.00
250.2220, 14660.00
251.4370, 14857.00
252.6510, 14601.00
253.8660, 14675.00
255.0800, 14764.00
256.2940, 14690.00
257.5080, 14898.00
258.7220, 15089.00
259.9360, 15813.00
261.1490, 16370.00
262.3630, 15727.00
263.5760, 15393.00
264.7890, 15357.00
266.0020, 15374.00
267.2150, 15432.00
268.4270, 15641.00
269.6400, 15396.00
270.8520, 15798.00
272.0640, 15866.00
273.2760, 15725.00
274.4880, 15741.00
275.7000, 15512.00
276.9120, 15769.00
278.1230, 15646.00
279.3340, 15096.00
280.5450, 15246.00
281.7560, 15084.00
282.9670, 15112.00
284.1780, 14935.00
285.3880, 14931.12
286.5980, 14938.00
287.8090, 14874.00
289.0190, 14727.00
290.2290, 14653.00
291.4380, 14519.00
292.6480, 14554.00
293.8570, 14528.00
295.0670, 14494.00
296.2760, 14400.00
297.4850, 14310.00
298.6930, 14407.00
299.9020, 14374.00
301.1110, 14425.00
302.3190, 14557.00
303.5270, 14387.00
304.7350, 14405.00
305.9430, 14234.00
307.1510, 14284.00
308.3580, 14205.00
309.5660, 14177.00
310.7730, 14305.00
311.9800, 14220.00
313.1870, 14450.00
314.3940, 14458.00
315.6010, 14615.00
316.8070, 14473.00
318.0130, 14340.00
319.2200, 14319.00
320.4260, 14427.00
321.6310, 14446.00
322.8370, 14468.00
324.0430, 14505.40
325.2480, 14471.00
326.4540, 14600.00
327.6590, 14576.00
328.8640, 14775.00
330.0680, 14741.00
331.2730, 14711.00
332.4780, 14549.00
333.6820, 14592.00
334.8860, 14556.00
336.0900, 14555.00
337.2940, 14612.67
338.4980, 14708.00
339.7010, 14750.00
340.9050, 14779.00
342.1080, 14899.00
343.3110, 14783.00
344.5140, 14747.00
345.7170, 14850.00
346.9200, 14730.00
348.1220, 14825.00
349.3240, 14915.00
350.5270, 14850.00
351.7290, 14858.00
352.9310, 15094.00
354.1320, 15117.00
355.3340, 14977.00
356.5350, 15248.00
357.7370, 15024.00
358.9380, 15067.00
360.1390, 15014.00
361.3400, 15127.00
362.5400, 15065.00
363.7410, 14936.00
364.9410, 15188.00
366.1410, 15177.00
367.3410, 15319.00
368.5410, 15481.00
369.7410, 15493.00
370.9400, 15742.00
372.1400, 15594.00
373.3390, 15612.00
374.5380, 15552.00
375.7370, 15618.70
376.9360, 15835.00
378.1350, 15880.00
379.3330, 16042.00
380.5310, 16312.00
381.7300, 16371.00
382.9280, 16555.00
384.1260, 16531.00
385.3230, 16599.00
386.5210, 16739.00
387.7180, 16697.00
388.9160, 16792.00
390.1130, 16798.00
391.3100, 16935.00
392.5060, 16929.10
393.7030, 17226.00
394.9000, 17017.00
396.0960, 16776.00
397.2920, 16938.00
398.4880, 16731.00
399.6840, 16598.00
400.8800, 16484.00
402.0750, 16305.00
403.2710, 16288.00
404.4660, 16176.00
405.6610, 16112.00
406.8560, 16071.00
408.0510, 15899.00
409.2450, 15773.00
410.4400, 15735.94
411.6340, 15605.29
412.8280, 15634.00
414.0220, 15488.00
415.2160, 15410.00
416.4100, 15456.00
417.6030, 15410.00
418.7970, 15439.67
419.9900, 15373.72
421.1830, 15358.37
422.3760, 15268.00
423.5690, 15263.00
424.7610, 15294.00
425.9540, 15181.00
427.1460, 15230.00
428.3380, 14956.00
429.5300, 15004.00
430.7220, 15113.00
431.9140, 15241.00
433.1050, 15375.00
434.2970, 15287.00
435.4880, 15203.00
436.6790, 15197.00
437.8700, 15166.63
439.0610, 15163.91
440.2510, 15175.00
441.4420, 15208.00
442.6320, 15204.00
443.8220, 15256.00
445.0120, 15414.00
446.2020, 15561.00
447.3910, 15576.00
448.5810, 15758.00
449.7700, 15679.00
450.9600, 15587.00
452.1490, 15674.00
453.3370, 15806.00
454.5260, 15779.00
455.7150, 15723.00
456.9030, 15812.00
458.0910, 16036.00
459.2800, 16030.00
460.4670, 16168.00
461.6550, 15858.00
462.8430, 15927.00
464.0300, 15789.00
465.2180, 15526.00
466.4050, 15422.00
467.5920, 15439.00
468.7790, 15492.00
469.9650, 15484.00
471.1520, 15531.00
472.3380, 15593.60
473.5250, 15778.00
474.7110, 15777.00
475.8970, 15837.00
477.0820, 16014.00
478.2680, 15986.00
479.4540, 16203.00
480.6390, 16092.00
481.8240, 16093.00
483.0090, 16045.00
484.1940, 16106.00
485.3780, 16433.00
486.5630, 16527.00
487.7470, 16602.00
488.9320, 16782.00
490.1160, 16785.03
491.3000, 16891.00
492.4830, 16859.00
493.6670, 16920.00
494.8500, 17005.00
496.0340, 17051.00
497.2170, 17209.00
498.4000, 17523.00
499.5820, 17724.00
500.7650, 17935.00
501.9480, 18071.27
503.1300, 18167.71
504.3120, 18215.00
505.4940, 18231.00
506.6760, 18201.00
507.8580, 18114.00
509.0390, 18243.00
510.2210, 18144.00
511.4020, 18573.00
512.5830, 18288.00
513.7640, 18583.00
514.9450, 18741.00
516.1250, 18491.00
517.3060, 18579.00
518.4860, 18285.00
519.6660, 18449.00
520.8460, 18524.00
522.0260, 18374.00
523.2060, 18268.00
524.3850, 18494.00
525.5650, 18404.00
526.7440, 18598.00
527.9230, 18704.00
529.1020, 18482.00
530.2810, 18545.00
531.4590, 18340.00
532.6380, 18467.00
533.8160, 18321.00
534.9940, 18192.00
536.1720, 18071.00
537.3500, 17975.00
538.5270, 18013.00
539.7050, 17930.00
540.8820, 17961.00
542.0590, 17888.00
543.2360, 17987.00
544.4130, 17642.00
545.5900, 17546.00
546.7660, 17632.00
547.9430, 17414.00
549.1190, 17315.00
550.2950, 17333.00
551.4710, 17218.00
552.6470, 17219.00
553.8220, 17259.00
554.9980, 17219.00
556.1730, 17154.00
557.3480, 17111.96
558.5230, 16957.00
559.6980, 16915.00
560.8730, 16710.00
562.0470, 16514.00
563.2220, 16683.00
564.3960, 16532.00
565.5700, 16517.00
566.7440, 16576.00
567.9170, 16508.00
569.0910, 16503.00
570.2640, 16535.00
571.4380, 16509.00
572.6110, 16408.00
573.7840, 16321.00
574.9570, 16095.00
576.1290, 16168.00
577.3020, 16123.00
578.4740, 16143.68
579.6460, 16240.00
580.8180, 16282.00
581.9900, 16325.00
583.1620, 16388.00
584.3330, 16250.00
585.5040, 15986.00
586.6760, 16264.00
587.8470, 15989.00
589.0180, 16071.00
590.1880, 16056.00
591.3590, 16252.00
592.5290, 16251.00
593.7000, 16427.00
594.8700, 16440.00
596.0400, 16447.00
597.2090, 16517.66
598.3790, 16432.00
599.5490, 16522.00
600.7180, 16558.00
601.8870, 16479.00
603.0560, 16688.00
604.2250, 16774.00
605.3940, 17027.00
606.5620, 17038.00
607.7300, 17371.00
608.8990, 17435.00
610.0670, 17592.00
611.2350, 17618.00
612.4020, 17846.00
613.5700, 17763.00
614.7370, 17998.00
615.9050, 18170.00
617.0720, 18062.00
618.2390, 18497.00
619.4060, 18657.90
620.5720, 18940.00
621.7390, 19218.00
622.9050, 19287.00
624.0710, 19451.00
625.2370, 19739.00
626.4030, 19707.00
627.5690, 19887.00
628.7340, 19881.00
629.9000, 20012.00
631.0650, 20015.00
632.2300, 20269.00
633.3950, 20465.00
634.5600, 20471.00
635.7240, 20425.00
636.8890, 20304.00
638.0530, 20018.00
639.2170, 20032.00
640.3810, 19762.00
641.5450, 19745.00
642.7080, 19565.00
643.8720, 19492.00
645.0350, 19361.90
646.1980, 19277.92
647.3610, 19192.00
648.5240, 19131.00
649.6870, 19282.00
650.8490, 19216.00
652.0120, 19037.00
653.1740, 18989.00
654.3360, 18750.00
655.4980, 18788.00
656.6600, 18900.00
657.8210, 19121.00
658.9830, 19164.00
660.1440, 19345.00
661.3050, 19661.00
662.4660, 19571.00
663.6270, 19624.00
664.7870, 19692.00
665.9480, 19523.00
667.1080, 19447.00
668.2680, 19406.00
669.4280, 19587.00
670.5880, 19617.00
671.7480, 19470.00
672.9070, 19294.00
674.0670, 19398.00
675.2260, 19298.00
676.3850, 19139.00
677.5440, 19011.00
678.7030, 18717.00
679.8610, 18623.00
681.0200, 18455.00
682.1780, 18700.00
683.3360, 18353.00
684.4940, 18424.00
685.6520, 18271.00
686.8090, 18250.00
687.9670, 18507.00
689.1240, 18424.00
690.2810, 18389.00
691.4380, 18356.00
692.5950, 18358.00
693.7520, 18219.00
694.9080, 18139.00
696.0650, 18249.00
697.2210, 18413.00
698.3770, 18277.00
699.5330, 18511.00
700.6880, 18376.00
701.8440, 18398.00
702.9990, 18505.00
704.1550, 18668.00
705.3100, 18614.00
706.4650, 18531.00
707.6190, 18505.00
708.7740, 18442.00
709.9290, 18448.85
711.0830, 18419.50
712.2370, 18468.00
713.3910, 18476.00
714.5450, 18456.00
715.6980, 18446.84
716.8520, 18499.00
718.0050, 18421.00
719.1580, 18286.00
720.3110, 18360.00
721.4640, 18142.00
722.6170, 17971.00
723.7700, 17974.00
724.9220, 18130.00
726.0740, 18361.00
727.2260, 18245.00
728.3780, 18110.00
729.5300, 18291.00
730.6810, 18113.00
731.8330, 17946.00
732.9840, 17945.00
734.1350, 17782.00
735.2860, 17891.00
736.4370, 17921.00
737.5880, 17868.00
738.7380, 17842.00
739.8880, 17999.00
741.0390, 18193.00
742.1890, 18250.00
743.3380, 18197.00
744.4880, 18121.00
745.6380, 18291.00
746.7870, 17933.00
747.9360, 18127.00
749.0850, 18049.00
750.2340, 18193.00
751.3830, 18228.00
752.5310, 18371.00
753.6800, 18491.00
754.8280, 18475.00
755.9760, 18697.00
757.1240, 18549.00
758.2720, 18845.00
759.4190, 18541.00
760.5670, 18599.00
761.7140, 18604.00
762.8610, 18473.00
764.0080, 18721.00
765.1550, 18777.00
766.3020, 18748.51
767.4480, 18672.00
768.5950, 18712.00
769.7410, 18909.00
770.8870, 18865.00
772.0330, 18789.00
773.1780, 18807.00
774.3240, 18605.00
775.4690, 18564.00
776.6140, 18532.00
777.7590, 18604.00
778.9040, 18654.00
780.0490, 18667.00
781.1940, 18605.00
782.3380, 18554.00
783.4820, 18284.00
784.6260, 18366.00
785.7700, 18066.00
786.9140, 17893.00
788.0580, 17812.00
789.2010, 17820.00
790.3450, 17793.00
791.4880, 17837.00
792.6310, 17777.00
793.7730, 17533.00
794.9160, 17637.00
796.0590, 17487.00
797.2010, 17321.00
798.3430, 17499.00
799.4850, 17022.00
800.6270, 17118.00
801.7690, 17077.00
802.9100, 17005.75
804.0520, 17111.00
805.1930, 17001.00
806.3340, 17080.00
807.4750, 16865.00
808.6160, 17034.00
809.7560, 16804.00
810.8970, 16977.00
812.0370, 16887.00
813.1770, 16829.00
814.3170, 16837.00
815.4570, 16726.00
816.5960, 16675.00
817.7360, 16710.00
818.8750, 16737.00
820.0140, 16702.00
821.1530, 17049.00
822.2920, 16902.00
823.4310, 17090.00
824.5690, 17028.00
825.7070, 16758.00
826.8460, 16949.00
827.9840, 16874.00
829.1220, 16868.00
830.2590, 16714.00
831.3970, 17021.00
832.5340, 17021.00
833.6710, 16966.00
834.8080, 17127.00
835.9450, 17033.00
837.0820, 17106.00
838.2190, 16983.00
839.3550, 16940.00
840.4910, 16908.00
841.6270, 16991.00
842.7630, 17033.00
843.8990, 16956.00
845.0350, 17082.00
846.1700, 16932.00
847.3060, 17087.00
848.4410, 17078.00
849.5760, 17145.00
850.7100, 17183.00
851.8450, 17095.00
852.9800, 16915.00
854.1140, 17034.00
855.2480, 16997.00
856.3820, 16961.00
857.5160, 17137.00
858.6500, 17143.00
859.7830, 17338.00
860.9170, 17399.00
862.0500, 17262.00
863.1830, 17547.00
864.3160, 17244.00
865.4480, 17342.00
866.5810, 17348.00
867.7130, 17303.00
868.8460, 17246.00
869.9780, 17339.00
871.1100, 17357.00
872.2410, 17523.00
873.3730, 17397.00
874.5050, 17571.00
875.6360, 17529.00
876.7670, 17592.00
877.8980, 17645.00
879.0290, 17571.00
880.1590, 17560.00
881.2900, 17466.00
882.4200, 17403.00
883.5500, 17600.00
884.6800, 17440.00
885.8100, 17700.00
886.9400, 17648.00
888.0690, 17863.00
889.1990, 17879.00
890.3280, 17969.00
891.4570, 17703.00
892.5860, 17666.00
893.7140, 17856.00
894.8430, 17595.00
895.9710, 17712.00
897.1000, 17747.00
898.2280, 17742.00
899.3560, 17863.00
900.4830, 18120.00
901.6110, 18054.00
902.7380, 17909.00
903.8660, 18191.00
904.9930, 17834.00
906.1200, 17910.00
907.2460, 17814.00
908.3730, 17780.00
909.5000, 17829.00
910.6260, 17935.00
911.7520, 18027.00
912.8780, 18119.00
914.0040, 18146.00
915.1290, 18136.00
916.2550, 18154.98
917.3800, 18195.00
918.5050, 18070.00
919.6300, 18005.00
920.7550, 17851.00
921.8800, 18029.00
923.0040, 18047.00
924.1290, 18020.00
925.2530, 18322.00
926.3770, 18335.00
927.5010, 18219.00
928.6250, 18413.00
929.7480, 18445.00
930.8720, 18278.00
931.9950, 18298.00
933.1180, 18305.00
934.2410, 18365.00
935.3640, 18346.00
936.4860, 18250.00
937.6090, 18254.00
938.7310, 18577.00
939.8530, 18451.00
940.9750, 18644.00
942.0970, 18675.00
943.2180, 18565.00
944.3400, 18679.00
945.4610, 18503.00
946.5820, 18367.00
947.7030, 18490.00
948.8240, 18321.00
949.9450, 18391.00
951.0650, 18346.00
952.1860, 18380.00
953.3060, 18459.00
954.4260, 18635.00
955.5460, 18453.32
956.6650, 18627.74
957.7850, 18732.11
958.9040, 18770.15
960.0230, 18543.30
961.1420, 18658.51
962.2610, 18636.63
963.3800, 18609.13
964.4990, 18772.49
965.6170, 18584.15
966.7350, 18744.46
967.8530, 18765.60
968.9710, 18850.44
970.0890, 18797.34
971.2070, 18786.85
972.3240, 18914.32
973.4410, 18965.39
974.5580, 18896.40
975.6750, 18985.27
976.7920, 18792.10
977.9090, 18846.42
979.0250, 19007.52
980.1410, 18945.46
981.2580, 19036.85
982.3740, 19069.79
983.4890, 18837.13
984.6050, 19066.37
985.7200, 19095.84
986.8360, 18920.22
987.9510, 19133.62
989.0660, 18986.27
990.1810, 18967.69
991.2950, 19045.99
992.4100, 19023.29
993.5240, 19159.85
994.6390, 19142.98
995.7530, 19112.39
996.8660, 19141.62
997.9800, 19001.32
999.0940, 19175.54
1000.207, 19134.91
1001.320, 19201.07
1002.433, 19291.43
1003.546, 19196.46
1004.659, 19297.70
1005.772, 19094.65
1006.884, 19146.20
1007.996, 19170.33
1009.108, 19357.20
1010.220, 19155.63
1011.332, 19346.00
1012.444, 19309.00
1013.555, 19181.00
1014.666, 19143.00
1015.777, 19172.62
1016.888, 19157.00
1017.999, 19274.00
1019.110, 19306.00
1020.220, 19347.00
1021.331, 19423.00
1022.441, 19594.00
1023.551, 19387.00
1024.661, 19453.00
1025.770, 19295.00
1026.880, 19293.00
1027.989, 19139.00
1029.098, 19245.00
1030.207, 19162.00
1031.316, 19220.00
1032.425, 19228.00
1033.533, 19435.00
1034.642, 19396.00
1035.750, 19613.00
1036.858, 19623.00
1037.966, 19458.00
1039.073, 19412.00
1040.181, 19196.00
1041.288, 19344.00
1042.396, 19249.00
1043.503, 19182.00
1044.610, 19309.00
1045.716, 19214.00
1046.823, 19300.67
1047.929, 19335.00
1049.036, 19440.00
1050.142, 19581.00
1051.248, 19681.00
1052.353, 19622.00
1053.459, 19437.00
1054.564, 19203.00
1055.670, 19307.00
1056.775, 19536.00
1057.880, 19244.00
1058.985, 19446.00
1060.089, 19627.00
1061.194, 19659.00
1062.298, 19740.74
1063.402, 19692.00
1064.506, 19592.78
1065.610, 19745.20
1066.713, 19827.55
1067.817, 19843.59
1068.920, 19594.73
1070.023, 19687.94
1071.126, 19644.06
1072.229, 19594.57
1073.332, 19735.92
1074.435, 19525.59
1075.537, 19663.93
1076.639, 19663.08
1077.741, 19725.94
1078.843, 19650.86
1079.945, 19618.39
1081.046, 19723.90
1082.148, 19753.00
1083.249, 19662.05
1084.350, 19728.96
1085.451, 19513.83
1086.551, 19546.20
1087.652, 19685.35
1088.752, 19601.35
1089.853, 19670.78
1090.953, 19681.78
1092.053, 19427.19
1093.152, 19634.50
1094.252, 19642.04
1095.351, 19444.49
1096.451, 19635.96
1097.550, 19335.00
1098.649, 19526.00
1099.748, 19406.00
1100.846, 19554.00
1101.945, 19600.00
1103.043, 19596.00
1104.141, 19724.00
1105.239, 19741.00
1106.337, 19717.00
1107.434, 19838.00
1108.532, 19729.00
1109.629, 19326.00
1110.726, 19253.00
1111.823, 19470.00
1112.920, 19492.00
1114.017, 19696.00
1115.113, 19642.00
1116.210, 19581.00
1117.306, 19989.00
1118.402, 19618.00
1119.498, 19714.00
1120.593, 19477.00
1121.689, 19619.00
1122.784, 19530.00
1123.879, 19573.00
1124.974, 19732.00
1126.069, 19819.00
1127.164, 19940.00
1128.259, 19918.00
1129.353, 19892.00
1130.447, 20081.00
1131.541, 20001.73
1132.635, 20025.00
1133.729, 19918.00
1134.822, 19944.00
1135.916, 19759.00
1137.009, 19803.00
1138.102, 20085.00
1139.195, 19879.00
1140.288, 19905.00
1141.380, 20111.00
1142.473, 19825.00
1143.565, 20288.00
1144.657, 20009.00
1145.749, 19890.00
1146.841, 19976.00
1147.932, 19673.00
1149.024, 19606.00
1150.115, 19865.00
1151.206, 19937.00
1152.297, 19830.00
1153.388, 20005.00
1154.479, 20178.00
1155.569, 19950.00
1156.659, 20231.00
1157.750, 20134.00
1158.839, 20138.00
1159.929, 20015.00
1161.019, 20081.00
1162.108, 19940.00
1163.198, 19924.00
1164.287, 20016.00
1165.376, 20011.56
1166.465, 20033.00
1167.553, 20149.00
1168.642, 20238.00
1169.730, 20265.00
1170.818, 20285.55
1171.906, 20233.00
1172.994, 20236.00
1174.082, 20086.00
1175.170, 20030.00
1176.257, 20007.00
1177.344, 20026.00
1178.431, 19985.00
1179.518, 20395.00
1180.605, 20329.00
1181.691, 20223.00
1182.778, 20569.00
1183.864, 20527.00
1184.950, 20594.00
1186.036, 20872.00
1187.122, 20399.00
1188.207, 20143.00
1189.292, 20216.72
1190.378, 20352.00
1191.463, 20116.00
1192.548, 20361.00
1193.632, 20234.00
1194.717, 20587.00
1195.801, 20620.00
1196.886, 20636.00
1197.970, 20472.00
1199.054, 20543.00
1200.137, 20698.00
1201.221, 20417.00
1202.305, 20493.00
1203.388, 20370.00
1204.471, 20585.00
1205.554, 20193.00
1206.637, 20551.00
1207.719, 20537.00
1208.802, 20619.00
1209.884, 20836.00
1210.966, 20803.00
1212.048, 20767.00
1213.130, 20756.00
1214.212, 20760.00
1215.293, 20552.00
1216.374, 20508.00
1217.456, 20577.00
1218.536, 20721.00
1219.617, 20716.00
1220.698, 20975.00
1221.778, 20978.00
1222.859, 21277.00
1223.939, 21144.00
1225.019, 21165.00
1226.099, 20950.00
1227.178, 20809.00
1228.258, 20844.00
1229.337, 20801.00
1230.417, 20756.00
1231.496, 20703.00
1232.574, 20938.00
1233.653, 21028.00
1234.732, 21317.00
1235.810, 21235.00
1236.888, 21316.00
1237.966, 21272.00
1239.044, 21221.00
1240.122, 21148.00
1241.199, 21136.00
1242.277, 21133.80
1243.354, 21035.00
1244.431, 21118.00
1245.508, 21223.00
1246.585, 21094.00
1247.661, 21418.00
1248.738, 21457.00
1249.814, 21227.00
1250.890, 21397.00
1251.966, 21467.00
1253.042, 21359.00
1254.117, 21408.00
1255.193, 21370.00
1256.268, 21284.00
1257.343, 21244.00
1258.418, 21380.00
1259.493, 21348.00
1260.567, 21442.00
1261.642, 21615.00
1262.716, 21816.00
1263.790, 21819.00
1264.864, 22057.00
1265.938, 21931.00
1267.011, 21732.10
1268.085, 21744.00
1269.158, 21693.22
1270.231, 21426.00
1271.304, 21695.00
1272.377, 21636.00
1273.450, 21541.00
1274.522, 21828.00
1275.594, 21858.00
1276.666, 22072.00
1277.738, 21984.00
1278.810, 22138.00
1279.882, 21891.00
1280.953, 21874.00
1282.025, 21730.00
1283.096, 21606.00
1284.167, 21890.00
1285.238, 21891.00
1286.308, 21934.00
1287.379, 22385.00
1288.449, 22217.00
1289.519, 22123.00
1290.589, 22327.00
1291.659, 22239.00
1292.729, 22260.00
1293.798, 22154.00
1294.868, 21982.00
1295.937, 22169.00
1297.006, 22032.00
1298.075, 21982.00
1299.143, 22238.00
1300.212, 22368.00
1301.280, 22452.00
1302.348, 22419.00
1303.416, 22683.00
1304.484, 22546.00
1305.552, 22456.00
1306.620, 22547.00
1307.687, 22313.00
1308.754, 22351.00
1309.821, 22321.00
1310.888, 22384.00
1311.955, 22225.00
1313.021, 22366.00
1314.088, 22693.00
1315.154, 22566.00
1316.220, 22751.00
1317.286, 22748.00
1318.352, 22759.00
1319.417, 22795.00
1320.483, 22707.83
1321.548, 22448.00
1322.613, 22515.00
1323.678, 22328.00
1324.743, 22177.00
1325.807, 22546.00
1326.872, 22717.00
1327.936, 22873.00
1329.000, 22855.00
1330.064, 22998.00
1331.128, 22744.00
1332.191, 22781.00
1333.255, 22790.00
1334.318, 22541.00
1335.381, 22702.00
1336.444, 22472.00
1337.507, 22530.00
1338.569, 22773.00
1339.632, 22725.00
1340.694, 22841.00
1341.756, 23124.00
1342.818, 23121.00
1343.880, 23084.00
1344.941, 23161.00
1346.003, 23180.00
1347.064, 22987.00
1348.125, 22754.00
1349.186, 22908.00
1350.247, 22707.00
1351.308, 22738.00
1352.368, 22958.00
1353.428, 23211.00
1354.489, 23043.00
1355.549, 23234.00
1356.608, 23287.00
1357.668, 23318.00
1358.727, 23344.00
1359.787, 23227.00
1360.846, 23032.00
1361.905, 23077.00
1362.964, 22821.00
1364.022, 22988.00
1365.081, 22947.00
1366.139, 23058.00
1367.197, 22978.00
1368.255, 23335.00
1369.313, 23430.00
1370.371, 23483.00
1371.428, 23277.00
1372.486, 23475.00
1373.543, 23271.00
1374.600, 23174.00
1375.657, 23079.00
1376.713, 23058.00
1377.770, 23105.00
1378.826, 23036.00
1379.882, 23142.00
1380.938, 23168.53
1381.994, 23211.81
1383.050, 23241.00
1384.106, 23445.00
1385.161, 23371.00
1386.216, 23351.66
1387.271, 23377.00
1388.326, 23184.00
1389.381, 23127.00
1390.435, 23082.00
1391.490, 23317.00
1392.544, 23273.00
1393.598, 23307.00
1394.652, 23500.00
1395.705, 23561.00
1396.759, 23718.00
1397.812, 23601.00
1398.866, 23444.00
1399.919, 23498.00
1400.972, 23250.00
1402.024, 23116.00
1403.077, 23169.00
1404.129, 23080.44
1405.181, 23360.00
1406.233, 23233.00
1407.285, 23430.00
1408.337, 23743.00
1409.389, 23635.03
1410.440, 23749.00
1411.491, 23712.00
1412.542, 23425.00
1413.593, 23585.00
1414.644, 23636.00
1415.695, 23270.00
1416.745, 23467.00
1417.795, 23189.00
1418.845, 23376.00
1419.895, 23538.00
1420.945, 23716.00
1421.995, 23928.00
1423.044, 23710.00
1424.093, 24008.00
1425.142, 23940.00
1426.191, 23438.00
1427.240, 23616.00
1428.289, 23581.00
1429.337, 23557.00
1430.385, 23605.00
1431.433, 23797.00
1432.481, 23732.00
1433.529, 24024.00
1434.577, 23935.00
1435.624, 23830.00
1436.672, 24193.00
1437.719, 24023.00
1438.766, 23951.00
1439.812, 23860.00
1440.859, 23764.45
1441.905, 23669.00
1442.952, 23652.00
1443.998, 23578.00
1445.044, 23593.00
1446.090, 23709.14
1447.135, 24017.00
1448.181, 24015.00
1449.226, 24102.00
1450.271, 24244.00
1451.316, 24151.92
1452.361, 24056.00
1453.405, 23979.00
1454.450, 23909.00
1455.494, 23729.00
1456.538, 23552.00
1457.582, 23626.73
1458.626, 23733.00
1459.670, 23806.00
1460.713, 23989.00
1461.757, 24166.00
1462.800, 24331.00
1463.843, 24463.00
1464.886, 23983.00
1465.928, 24394.00
1466.971, 23923.00
1468.013, 23933.00
1469.055, 23960.00
1470.097, 23851.00
1471.139, 23984.00
1472.181, 23990.00
1473.222, 24108.00
1474.263, 24117.00
1475.305, 24340.00
1476.346, 24357.00
1477.386, 24468.00
1478.427, 24383.00
1479.468, 24317.00
1480.508, 24292.26
1481.548, 24182.00
1482.588, 24165.00
1483.628, 24068.00
1484.668, 24053.00
1485.707, 24306.00
1486.747, 24465.00
1487.786, 24488.00
1488.825, 24768.00
1489.864, 24550.00
1490.902, 24481.00
1491.941, 24700.00
1492.979, 24706.00
1494.017, 24332.00
1495.055, 24328.00
1496.093, 24415.00
1497.131, 24483.00
1498.168, 24367.00
1499.206, 24741.00
1500.243, 24520.00
1501.280, 24834.00
1502.317, 24901.00
1503.354, 24901.00
1504.390, 24828.00
1505.426, 24909.00
1506.463, 24854.00
1507.499, 24570.00
1508.535, 24763.00
1509.570, 24724.00
1510.606, 24701.00
1511.641, 24798.00
1512.676, 24874.00
1513.711, 24906.00
1514.746, 25085.00
1515.781, 25108.97
1516.816, 25324.00
1517.850, 25159.00
1518.884, 25155.00
1519.918, 25013.00
1520.952, 25120.00
1521.986, 25074.95
1523.019, 24908.00
1524.053, 25099.00
1525.086, 25003.00
1526.119, 25000.00
1527.152, 25199.00
1528.185, 25420.00
1529.217, 25434.00
1530.250, 25521.47
1531.282, 25403.00
1532.314, 25481.00
1533.346, 25441.00
1534.377, 25325.00
1535.409, 25254.00
1536.440, 25052.00
1537.472, 25431.00
1538.503, 25397.00
1539.534, 25255.00
1540.564, 25613.00
1541.595, 25764.00
1542.625, 25618.00
1543.656, 25783.00
1544.686, 25880.00
1545.716, 25695.00
1546.745, 25827.00
1547.775, 25605.00
1548.804, 25400.00
1549.834, 25585.00
1550.863, 25786.00
1551.892, 25724.00
1552.920, 26272.00
1553.949, 26839.00
1554.977, 26635.00
1556.006, 26748.00
1557.034, 26338.00
1558.062, 26317.00
1559.089, 25879.00
1560.117, 25789.00
1561.144, 25920.00
1562.172, 25882.00
1563.199, 25778.00
1564.226, 25890.00
1565.252, 25843.00
1566.279, 26022.00
1567.305, 26142.00
1568.332, 26248.00
1569.358, 26318.00
1570.384, 26618.00
1571.409, 26607.00
##END=



