##NAMES=Annite
##RRUFFID=R060211
##IDEAL CHEMISTRY=KFe^2+^_3_AlSi_3_O_10_(OH)_2_
##LOCALITY=Mont Saint-Hilaire, Rouville County, Quebec, Canada
##OWNER=RRUFF
##SOURCE=Royal Ontario Museum
##DESCRIPTION=Black mica
##STATUS=The identification of this mineral has been confirmed by X-ray diffraction and chemical analysis
##URL=rruff.info/R060211
##MEASURED CHEMISTRY=(K_0.94_[box]_0.03_Na_0.02_)_Σ=1_(Fe^2+^_2.07_Mg_0.57_Mn_0.33_Ti_0.03_)_Σ=3_(Si_2.98_Al_1.02_)O_10_((OH)_1.72_F_0.28_)_Σ=2_
##PIN_ID=M00144
##ORIENTATION=Laser parallel to (-1 0 -1). Fiducial mark perpendicular to laser is parallel to -b [0 -1 0]
307.1510, 18987.00
308.3580, 18792.00
309.5660, 18799.00
310.7730, 18899.00
311.9800, 18807.00
313.1870, 18784.00
314.3940, 18925.00
315.6010, 18933.00
316.8070, 18995.00
318.0130, 18959.00
319.2200, 18998.00
320.4260, 18898.00
321.6310, 18911.00
322.8370, 19001.00
324.0430, 19127.00
325.2480, 19153.00
326.4540, 19165.00
327.6590, 19212.00
328.8640, 19231.00
330.0680, 19296.00
331.2730, 19256.00
332.4780, 19378.00
333.6820, 19401.00
334.8860, 19436.36
336.0900, 19394.00
337.2940, 19509.00
338.4980, 19456.00
339.7010, 19461.00
340.9050, 19471.00
342.1080, 19567.00
343.3110, 19800.00
344.5140, 19626.00
345.7170, 19864.00
346.9200, 19814.00
348.1220, 19830.00
349.3240, 19671.00
350.5270, 19797.00
351.7290, 19625.00
352.9310, 19639.36
354.1320, 19664.58
355.3340, 19645.00
356.5350, 19638.00
357.7370, 19718.00
358.9380, 19568.00
360.1390, 19560.00
361.3400, 19613.34
362.5400, 19575.45
363.7410, 19804.00
364.9410, 19608.00
366.1410, 19855.00
367.3410, 19838.00
368.5410, 19763.00
369.7410, 19861.00
370.9400, 19496.00
372.1400, 19551.00
373.3390, 19630.00
374.5380, 19562.00
375.7370, 19905.00
376.9360, 19855.23
378.1350, 19885.87
379.3330, 19925.00
380.5310, 19921.00
381.7300, 19862.00
382.9280, 20025.00
384.1260, 19983.00
385.3230, 20068.00
386.5210, 20115.00
387.7180, 20100.15
388.9160, 20142.73
390.1130, 20108.00
391.3100, 20152.00
392.5060, 20173.00
393.7030, 20171.00
394.9000, 20006.00
396.0960, 20062.00
397.2920, 20122.00
398.4880, 19975.00
399.6840, 20000.00
400.8800, 19758.00
402.0750, 19559.00
403.2710, 19975.00
404.4660, 19752.00
405.6610, 19815.00
406.8560, 19635.00
408.0510, 19527.00
409.2450, 19441.90
410.4400, 19566.38
411.6340, 19615.64
412.8280, 19593.66
414.0220, 19287.11
415.2160, 19348.02
416.4100, 19261.67
417.6030, 19169.32
418.7970, 19281.96
419.9900, 19016.84
421.1830, 19126.26
422.3760, 19086.17
423.5690, 19114.51
424.7610, 18994.72
425.9540, 18920.65
427.1460, 18994.84
428.3380, 18986.96
429.5300, 18691.00
430.7220, 18681.00
431.9140, 18728.00
433.1050, 18530.00
434.2970, 18557.00
435.4880, 18451.00
436.6790, 18579.00
437.8700, 18482.13
439.0610, 18577.00
440.2510, 18415.00
441.4420, 18485.00
442.6320, 18547.00
443.8220, 18680.00
445.0120, 18672.41
446.2020, 18500.00
447.3910, 18713.00
448.5810, 18634.00
449.7700, 18703.00
450.9600, 18694.00
452.1490, 18703.00
453.3370, 18807.00
454.5260, 18713.09
455.7150, 18950.75
456.9030, 19113.08
458.0910, 19204.17
459.2800, 19010.75
460.4670, 19184.69
461.6550, 19211.42
462.8430, 19232.11
464.0300, 19457.77
465.2180, 19305.68
466.4050, 19528.09
467.5920, 19600.98
468.7790, 19742.30
469.9650, 19735.39
471.1520, 19774.31
472.3380, 19690.00
473.5250, 19718.00
474.7110, 19939.00
475.8970, 19967.00
477.0820, 20036.00
478.2680, 20114.00
479.4540, 20233.00
480.6390, 20276.00
481.8240, 20388.00
483.0090, 20472.00
484.1940, 20656.00
485.3780, 20627.00
486.5630, 21043.00
487.7470, 21183.00
488.9320, 21186.13
490.1160, 21365.44
491.3000, 21199.00
492.4830, 21368.00
493.6670, 21429.00
494.8500, 21259.00
496.0340, 21543.00
497.2170, 21885.00
498.4000, 21750.00
499.5820, 21903.00
500.7650, 21880.00
501.9480, 21785.00
503.1300, 21893.00
504.3120, 22061.00
505.4940, 22148.00
506.6760, 22275.00
507.8580, 22337.00
509.0390, 22408.00
510.2210, 22434.00
511.4020, 22516.00
512.5830, 22716.00
513.7640, 22557.00
514.9450, 22830.00
516.1250, 22908.00
517.3060, 22619.00
518.4860, 23197.00
519.6660, 23220.00
520.8460, 23127.00
522.0260, 23402.00
523.2060, 23235.00
524.3850, 23382.00
525.5650, 23650.00
526.7440, 23787.00
527.9230, 23666.00
529.1020, 23944.00
530.2810, 23806.00
531.4590, 23923.00
532.6380, 23875.00
533.8160, 23800.00
534.9940, 23896.00
536.1720, 23860.65
537.3500, 23958.00
538.5270, 23869.00
539.7050, 23828.00
540.8820, 23742.00
542.0590, 23729.00
543.2360, 23565.00
544.4130, 23466.00
545.5900, 23213.00
546.7660, 22906.00
547.9430, 22916.00
549.1190, 23009.00
550.2950, 22706.02
551.4710, 22628.00
552.6470, 22360.00
553.8220, 22152.00
554.9980, 22121.00
556.1730, 21747.00
557.3480, 21458.00
558.5230, 21541.00
559.6980, 21327.00
560.8730, 20928.00
562.0470, 21068.00
563.2220, 20719.00
564.3960, 20723.00
565.5700, 20436.00
566.7440, 20344.00
567.9170, 20274.00
569.0910, 20103.62
570.2640, 20068.00
571.4380, 19991.00
572.6110, 19843.00
573.7840, 19811.62
574.9570, 19797.00
576.1290, 19686.00
577.3020, 19722.00
578.4740, 19680.00
579.6460, 19393.00
580.8180, 19545.00
581.9900, 19397.26
583.1620, 19715.00
584.3330, 19249.00
585.5040, 19346.00
586.6760, 19178.00
587.8470, 19241.00
589.0180, 18959.06
590.1880, 19167.54
591.3590, 19300.79
592.5290, 19362.76
593.7000, 19140.20
594.8700, 19285.07
596.0400, 19282.68
597.2090, 19274.22
598.3790, 19470.81
599.5490, 19289.61
600.7180, 19482.92
601.8870, 19349.00
603.0560, 19646.00
604.2250, 19522.46
605.3940, 19576.21
606.5620, 19405.00
607.7300, 19593.00
608.8990, 19674.00
610.0670, 19712.00
611.2350, 19789.00
612.4020, 19779.00
613.5700, 19840.00
614.7370, 19858.37
615.9050, 19898.31
617.0720, 19910.00
618.2390, 19930.00
619.4060, 19984.00
620.5720, 19875.00
621.7390, 20054.00
622.9050, 20160.00
624.0710, 19993.00
625.2370, 20039.00
626.4030, 20218.00
627.5690, 20193.00
628.7340, 20239.85
629.9000, 20305.00
631.0650, 20246.00
632.2300, 20534.00
633.3950, 20579.00
634.5600, 20815.00
635.7240, 20700.00
636.8890, 20932.00
638.0530, 20679.00
639.2170, 20952.00
640.3810, 21156.00
641.5450, 21602.00
642.7080, 21374.00
643.8720, 21836.00
645.0350, 22273.00
646.1980, 22001.00
647.3610, 22216.00
648.5240, 22364.00
649.6870, 22652.00
650.8490, 23000.00
652.0120, 22934.00
653.1740, 23588.00
654.3360, 23771.00
655.4980, 24283.00
656.6600, 24842.00
657.8210, 25042.00
658.9830, 25644.00
660.1440, 25997.00
661.3050, 26723.00
662.4660, 26816.00
663.6270, 27227.00
664.7870, 27446.00
665.9480, 27621.00
667.1080, 27459.00
668.2680, 27495.00
669.4280, 27963.00
670.5880, 27346.00
671.7480, 26832.00
672.9070, 26688.00
674.0670, 25843.00
675.2260, 25738.00
676.3850, 25418.00
677.5440, 25119.00
678.7030, 24827.00
679.8610, 24635.00
681.0200, 24525.00
682.1780, 24467.00
683.3360, 24404.00
684.4940, 24524.00
685.6520, 24523.74
686.8090, 24599.62
687.9670, 24670.00
689.1240, 24773.00
690.2810, 24846.00
691.4380, 24931.00
692.5950, 25058.00
693.7520, 25202.55
694.9080, 25390.01
696.0650, 25557.00
697.2210, 25822.00
698.3770, 26031.00
699.5330, 26248.07
700.6880, 26543.00
701.8440, 26812.00
702.9990, 27004.00
704.1550, 27341.00
705.3100, 27473.00
706.4650, 27571.00
707.6190, 27739.00
708.7740, 27957.00
709.9290, 27953.00
711.0830, 27977.00
712.2370, 28205.00
713.3910, 28280.00
714.5450, 27969.00
715.6980, 28017.00
716.8520, 27964.00
718.0050, 27977.00
719.1580, 27506.00
720.3110, 26987.00
721.4640, 26997.00
722.6170, 26824.00
723.7700, 26736.00
724.9220, 26591.00
726.0740, 26240.00
727.2260, 26280.00
728.3780, 26006.00
729.5300, 25910.05
730.6810, 25624.00
731.8330, 25694.00
732.9840, 25378.00
734.1350, 25213.00
735.2860, 25089.00
736.4370, 25552.00
737.5880, 25079.00
738.7380, 25281.00
739.8880, 25028.00
741.0390, 25240.00
742.1890, 25285.00
743.3380, 25395.00
744.4880, 25644.00
745.6380, 25660.00
746.7870, 25748.00
747.9360, 25784.00
749.0850, 25876.00
750.2340, 26265.00
751.3830, 26113.00
752.5310, 26461.00
753.6800, 26585.00
754.8280, 26570.00
755.9760, 26646.00
757.1240, 26707.00
758.2720, 27072.00
759.4190, 26966.00
760.5670, 26994.00
761.7140, 26864.00
762.8610, 26899.00
764.0080, 26918.00
765.1550, 26878.00
766.3020, 26583.00
767.4480, 26506.00
768.5950, 26341.00
769.7410, 26186.85
770.8870, 26145.00
772.0330, 25994.00
773.1780, 25766.00
774.3240, 25778.00
775.4690, 25203.00
776.6140, 25090.00
777.7590, 24926.00
778.9040, 24596.00
780.0490, 24556.00
781.1940, 24142.00
782.3380, 24113.00
783.4820, 23661.00
784.6260, 23401.00
785.7700, 22991.00
786.9140, 22731.00
788.0580, 22393.00
789.2010, 22195.00
790.3450, 22014.00
791.4880, 21535.00
792.6310, 21472.00
793.7730, 21254.00
794.9160, 20972.00
796.0590, 21015.00
797.2010, 20638.00
798.3430, 20363.00
799.4850, 20194.00
800.6270, 19951.18
801.7690, 19924.00
802.9100, 19696.00
804.0520, 19521.00
805.1930, 19555.00
806.3340, 19491.00
807.4750, 19326.00
808.6160, 19414.00
809.7560, 19227.00
810.8970, 19014.00
812.0370, 18974.00
813.1770, 19064.00
814.3170, 18919.00
815.4570, 18933.00
816.5960, 18958.00
817.7360, 18952.00
818.8750, 18911.00
820.0140, 19006.00
821.1530, 18923.00
822.2920, 18849.00
823.4310, 19001.00
824.5690, 18886.00
825.7070, 18906.00
826.8460, 18803.00
827.9840, 18859.00
829.1220, 18886.00
830.2590, 18867.00
831.3970, 18826.00
832.5340, 18835.00
833.6710, 18940.00
834.8080, 19042.00
835.9450, 18935.00
837.0820, 18998.00
838.2190, 18907.00
839.3550, 18904.01
840.4910, 19003.00
841.6270, 18857.00
842.7630, 18908.00
843.8990, 18839.00
845.0350, 19065.00
846.1700, 18822.00
847.3060, 19049.00
848.4410, 19012.00
849.5760, 19050.00
850.7100, 19230.00
851.8450, 19246.00
852.9800, 19140.00
854.1140, 19128.00
855.2480, 19190.00
856.3820, 19374.00
857.5160, 19286.00
858.6500, 19425.80
859.7830, 19483.00
860.9170, 19551.00
862.0500, 19604.00
863.1830, 19615.00
864.3160, 19772.00
865.4480, 19675.00
866.5810, 19792.00
867.7130, 19660.00
868.8460, 19769.00
869.9780, 19893.00
871.1100, 20063.00
872.2410, 19785.00
873.3730, 20107.00
874.5050, 19972.00
875.6360, 20395.00
876.7670, 20218.00
877.8980, 20245.00
879.0290, 20167.00
880.1590, 20294.00
881.2900, 20495.00
882.4200, 20221.00
883.5500, 20500.00
884.6800, 20389.00
885.8100, 20550.00
886.9400, 20500.00
888.0690, 20734.00
889.1990, 20590.00
890.3280, 20364.00
891.4570, 20719.00
892.5860, 20708.00
893.7140, 20590.00
894.8430, 20732.00
895.9710, 20963.00
897.1000, 20698.00
898.2280, 20885.00
899.3560, 20922.70
900.4830, 20933.22
901.6110, 21048.00
902.7380, 21006.00
903.8660, 20993.00
904.9930, 20819.00
906.1200, 20884.38
907.2460, 20891.77
908.3730, 20908.00
909.5000, 21021.00
910.6260, 20982.00
911.7520, 21035.00
912.8780, 21018.00
914.0040, 21167.00
915.1290, 21124.00
916.2550, 21209.00
917.3800, 21211.00
918.5050, 21038.39
919.6300, 21224.89
920.7550, 21336.12
921.8800, 21376.11
923.0040, 21131.52
924.1290, 21254.41
925.2530, 21230.03
926.3770, 21199.60
927.5010, 21374.20
928.6250, 21171.00
929.7480, 21342.33
930.8720, 21364.17
931.9950, 21454.42
933.1180, 21396.49
934.2410, 21384.34
935.3640, 21520.40
936.4860, 21574.38
937.6090, 21499.40
938.7310, 21593.98
939.8530, 21385.58
940.9750, 21443.06
942.0970, 21615.25
943.2180, 21547.69
944.3400, 21644.99
945.4610, 21423.00
946.5820, 21316.00
947.7030, 21146.00
948.8240, 21264.00
949.9450, 21219.00
951.0650, 21120.00
952.1860, 21022.00
953.3060, 21206.00
954.4260, 20973.00
955.5460, 21174.00
956.6650, 21237.00
957.7850, 20903.00
958.9040, 21074.00
960.0230, 20906.00
961.1420, 20873.00
962.2610, 21084.00
963.3800, 20657.00
964.4990, 20635.00
965.6170, 20638.00
966.7350, 20807.00
967.8530, 20404.40
968.9710, 20599.75
970.0890, 20719.82
971.2070, 20768.67
972.3240, 20532.91
973.4410, 20664.63
974.5580, 20649.08
975.6750, 20627.49
976.7920, 20810.93
977.9090, 20616.57
979.0250, 20796.73
980.1410, 20827.38
981.2580, 20926.48
982.3740, 20877.39
983.4890, 20874.04
984.6050, 21018.93
985.7200, 21081.73
986.8360, 21015.58
987.9510, 21118.99
989.0660, 20919.41
990.1810, 20985.70
991.2950, 21166.69
992.4100, 21107.96
993.5240, 21214.06
994.6390, 21125.00
995.7530, 21148.99
996.8660, 21170.29
997.9800, 21169.00
999.0940, 21201.00
1000.207, 21230.07
1001.320, 21293.00
1002.433, 21175.96
1003.546, 21360.39
1004.659, 21469.55
1005.772, 21507.47
1006.884, 21260.81
1007.996, 21381.62
1009.108, 21355.16
1010.220, 21322.67
1011.332, 21495.20
1012.444, 21289.93
1013.555, 21459.19
1014.666, 21478.95
1015.777, 21567.13
1016.888, 21507.13
1017.999, 21492.91
1019.110, 21626.90
1020.220, 21678.82
1021.331, 21601.77
1022.441, 21694.29
1023.551, 21483.82
1024.661, 21539.22
1025.770, 21709.34
1026.880, 21639.72
1027.989, 21734.94
1029.098, 21767.38
1030.207, 21514.51
1031.316, 21757.82
1032.425, 21786.54
1033.533, 21594.93
1034.642, 21821.24
1035.750, 21648.00
1036.858, 21489.00
1037.966, 21727.00
1039.073, 21699.00
1040.181, 21557.00
1041.288, 21636.00
1042.396, 21876.00
1043.503, 21568.00
1044.610, 21608.00
1045.716, 21805.00
1046.823, 21659.00
1047.929, 21544.00
1049.036, 21754.00
1050.142, 21669.00
1051.248, 21743.00
1052.353, 21711.00
1053.459, 21808.00
1054.564, 21826.00
1055.670, 21818.29
1056.775, 21821.65
1057.880, 21776.00
1058.985, 21863.00
1060.089, 21790.00
1061.194, 21811.65
1062.298, 21790.00
1063.402, 21754.00
1064.506, 21840.00
1065.610, 21702.00
1066.713, 21826.00
1067.817, 21719.00
1068.920, 21838.00
1070.023, 21456.00
1071.126, 21591.00
1072.229, 21739.00
1073.332, 21617.00
1074.435, 21812.00
1075.537, 21660.00
1076.639, 21698.00
1077.741, 21614.00
1078.843, 21290.00
1079.945, 21603.00
1081.046, 21411.00
1082.148, 21217.00
1083.249, 21370.00
1084.350, 21121.00
1085.451, 21172.00
1086.551, 21106.00
1087.652, 21024.00
1088.752, 20836.00
1089.853, 20879.00
1090.953, 20855.00
1092.053, 20582.00
1093.152, 20822.00
1094.252, 20764.00
1095.351, 20645.05
1096.451, 20809.29
1097.550, 20898.26
1098.649, 20915.99
1099.748, 20649.16
1100.846, 20749.80
1101.945, 20703.17
1103.043, 20650.51
1104.141, 20802.87
1105.239, 20577.43
1106.337, 20726.54
1107.434, 20726.14
1108.532, 20794.17
1109.629, 20714.02
1110.726, 20679.65
1111.823, 20793.49
1112.920, 20825.27
1114.017, 20728.07
1115.113, 20800.46
1116.210, 20569.85
1117.306, 20605.13
1118.402, 20755.12
1119.498, 20665.38
1120.593, 20740.48
1121.689, 20752.80
1122.784, 20479.81
1123.879, 20703.01
1124.974, 20711.62
1126.069, 20363.00
1127.164, 20178.00
1128.259, 20168.00
1129.353, 20370.00
1130.447, 20324.00
1131.541, 20187.00
1132.635, 20068.00
1133.729, 20122.00
1134.822, 20337.00
1135.916, 19926.00
1137.009, 19926.00
1138.102, 20085.00
1139.195, 19938.00
1140.288, 20055.00
1141.380, 20136.00
1142.473, 20075.00
1143.565, 20239.00
1144.657, 20075.00
1145.749, 19954.00
1146.841, 20003.00
1147.932, 20053.00
1149.024, 20027.00
1150.115, 19899.00
1151.206, 19982.00
1152.297, 19803.00
1153.388, 19927.00
1154.479, 19799.00
1155.569, 20042.00
1156.659, 19771.00
1157.750, 19945.00
1158.839, 20083.00
1159.929, 19904.00
1161.019, 19947.00
1162.108, 19757.00
1163.198, 19734.00
1164.287, 19968.00
1165.376, 19925.00
1166.465, 19803.43
1167.553, 19980.49
1168.642, 20082.29
1169.730, 20112.85
1170.818, 19858.83
1171.906, 19972.29
1172.994, 19938.47
1174.082, 19898.62
1175.170, 20063.80
1176.257, 19851.17
1177.344, 20013.08
1178.431, 20025.49
1179.518, 20106.32
1180.605, 20038.98
1181.691, 20017.40
1182.778, 20144.04
1183.864, 20188.62
1184.950, 20104.21
1186.036, 20189.39
1187.122, 19971.58
1188.207, 20019.64
1189.292, 20182.41
1190.378, 20105.46
1191.463, 20193.34
1192.548, 20218.45
1193.632, 19958.23
1194.717, 20194.21
1195.801, 20215.59
1196.886, 20016.65
1197.970, 20235.62
1199.054, 20067.05
1200.137, 20036.81
1201.221, 20110.67
1202.305, 20076.01
1203.388, 20212.44
1204.471, 20184.04
1205.554, 20140.91
1206.637, 20162.05
1207.719, 20001.07
1208.802, 20177.96
1209.884, 20124.05
1210.966, 20184.87
1212.048, 20271.69
1213.130, 20159.40
1214.212, 20257.90
1215.293, 20029.52
1216.374, 20074.65
1217.456, 20090.33
1218.536, 20280.82
1219.617, 20054.03
1220.698, 20091.56
1221.778, 20241.63
1222.859, 20234.23
1223.939, 20292.66
1225.019, 20156.18
1226.099, 20202.81
1227.178, 20198.96
1228.258, 20369.52
1229.337, 20402.39
1230.417, 20269.22
1231.496, 20136.74
1232.574, 20319.85
1233.653, 20203.84
1234.732, 20249.21
1235.810, 20127.91
1236.888, 20150.51
1237.966, 20170.82
1239.044, 20264.90
1240.122, 20135.31
1241.199, 20295.85
1242.277, 20288.71
1243.354, 20330.95
1244.431, 20367.70
1245.508, 20179.42
1246.585, 20175.61
1247.661, 20435.76
1248.738, 20293.36
1249.814, 20232.20
1250.890, 20228.80
1251.966, 20497.99
1253.042, 20379.00
1254.117, 20419.00
1255.193, 20261.00
1256.268, 20461.00
1257.343, 20381.00
1258.418, 20253.00
1259.493, 20310.00
1260.567, 20437.00
1261.642, 20566.00
1262.716, 20424.00
1263.790, 20641.00
1264.864, 20395.00
1265.938, 20378.00
1267.011, 20697.00
1268.085, 20422.00
1269.158, 20380.00
1270.231, 20259.00
1271.304, 20350.00
1272.377, 20311.28
1273.450, 20490.84
1274.522, 20595.12
1275.594, 20628.17
1276.666, 20376.64
1277.738, 20492.58
1278.810, 20461.26
1279.882, 20423.89
1280.953, 20591.55
1282.025, 20381.41
1283.096, 20545.81
1284.167, 20560.71
1285.238, 20644.02
1286.308, 20579.16
1287.379, 20560.07
1288.449, 20689.20
1289.519, 20736.25
1290.589, 20654.33
1291.659, 20741.99
1292.729, 20526.66
1293.798, 20577.20
1294.868, 20742.47
1295.937, 20667.99
1297.006, 20758.35
1298.075, 20785.93
1299.143, 20528.20
1300.212, 20766.65
1301.280, 20790.52
1302.348, 20594.06
1303.416, 20815.50
1304.484, 20649.41
1305.552, 20621.65
1306.620, 20697.99
1307.687, 20665.80
1308.754, 20804.70
1309.821, 20778.78
1310.888, 20738.13
1311.955, 20761.74
1313.021, 20603.24
1314.088, 20782.60
1315.154, 20892.00
1316.220, 20791.00
1317.286, 20848.00
1318.352, 21054.00
1319.417, 20903.00
1320.483, 20910.00
1321.548, 20962.00
1322.613, 20911.00
1323.678, 20841.00
1324.743, 20844.00
1325.807, 20770.00
1326.872, 20862.87
1327.936, 20902.00
1329.000, 21036.00
1330.064, 20975.00
1331.128, 20990.00
1332.191, 20997.00
1333.255, 21095.00
1334.318, 21020.00
1335.381, 20925.00
1336.444, 21024.00
1337.507, 21045.00
1338.569, 20859.00
1339.632, 20977.00
1340.694, 20962.40
1341.756, 20975.38
1342.818, 21058.00
1343.880, 21075.00
1344.941, 21108.00
1346.003, 21147.00
1347.064, 21092.96
1348.125, 21143.00
1349.186, 20994.00
1350.247, 21031.47
1351.308, 21208.65
1352.368, 21310.54
1353.428, 21341.21
1354.489, 21087.30
1355.549, 21200.86
1356.608, 21167.15
1357.668, 21127.41
1358.727, 21292.68
1359.787, 21080.16
1360.846, 21242.19
1361.905, 21254.70
1362.964, 21335.63
1364.022, 21268.39
1365.081, 21246.92
1366.139, 21373.67
1367.197, 21418.35
1368.255, 21334.05
1369.313, 21419.33
1370.371, 21201.62
1371.428, 21249.79
1372.486, 21412.68
1373.543, 21335.82
1374.600, 21423.81
1375.657, 21449.02
1376.713, 21188.91
1377.770, 21424.99
1378.826, 21446.48
1379.882, 21247.64
1380.938, 21466.71
1381.994, 21298.25
1383.050, 21268.12
1384.106, 21342.08
1385.161, 21307.52
1386.216, 21444.05
1387.271, 21415.75
1388.326, 21372.73
1389.381, 21393.98
1390.435, 21233.11
1391.490, 21410.10
1392.544, 21356.29
1393.598, 21417.21
1394.652, 21504.13
1395.705, 21391.95
1396.759, 21490.55
1397.812, 21262.28
1398.866, 21307.51
1399.919, 21323.29
1400.972, 21513.89
1402.024, 21287.21
1403.077, 21324.84
1404.129, 21475.01
1405.181, 21422.00
1406.233, 21601.00
1407.285, 21347.00
1408.337, 21375.00
1409.389, 21382.00
1410.440, 21457.00
1411.491, 21457.00
1412.542, 21657.00
1413.593, 21387.00
1414.644, 21467.00
1415.695, 21392.02
1416.745, 21537.00
1417.795, 21283.00
1418.845, 21423.00
1419.895, 21485.00
1420.945, 21269.00
1421.995, 21396.00
1423.044, 21658.00
1424.093, 21494.00
1425.142, 21633.00
1426.191, 21688.87
1427.240, 21851.79
1428.289, 21939.44
1429.337, 21955.87
1430.385, 21687.72
1431.433, 21787.04
1432.481, 21739.10
1433.529, 21685.12
1434.577, 21836.16
1435.624, 21609.41
1436.672, 21757.20
1437.719, 21755.49
1438.766, 21822.21
1439.812, 21740.75
1440.859, 21705.06
1441.905, 21817.60
1442.952, 21848.06
1443.998, 21749.55
1445.044, 21820.62
1446.090, 21588.71
1447.135, 21622.68
1448.181, 21771.35
1449.226, 21581.00
1450.271, 21460.00
1451.316, 21636.00
1452.361, 21586.00
1453.405, 21687.00
1454.450, 21407.00
1455.494, 21687.00
1456.538, 21564.00
1457.582, 21357.00
1458.626, 21565.00
1459.670, 21523.99
1460.713, 21728.00
1461.757, 21681.00
1462.800, 21626.00
1463.843, 21575.00
1464.886, 21728.00
1465.928, 21605.00
1466.971, 21751.00
1468.013, 21606.00
1469.055, 21682.00
1470.097, 21478.00
1471.139, 21521.00
1472.181, 21667.00
1473.222, 21567.00
1474.263, 21718.00
1475.305, 21758.88
1476.346, 21716.00
1477.386, 21861.00
1478.427, 21769.00
1479.468, 21727.00
1480.508, 21766.00
1481.548, 21708.78
1482.588, 21690.00
1483.628, 21663.00
1484.668, 21690.00
1485.707, 21625.88
1486.747, 21614.00
1487.786, 21695.00
1488.825, 21635.00
1489.864, 21819.00
1490.902, 21869.00
1491.941, 21830.00
1492.979, 21782.00
1494.017, 21717.00
1495.055, 21618.00
1496.093, 21746.00
1497.131, 21836.00
1498.168, 21759.00
1499.206, 21685.00
1500.243, 21954.00
1501.280, 21812.00
1502.317, 21933.00
1503.354, 21977.00
1504.390, 22048.00
1505.426, 21898.00
1506.463, 21934.00
1507.499, 21921.00
1508.535, 21869.00
1509.570, 21870.00
1510.606, 22048.00
1511.641, 21711.00
1512.676, 22010.00
1513.711, 21898.00
1514.746, 22081.00
1515.781, 21896.00
1516.816, 21971.00
1517.850, 22098.00
1518.884, 22193.00
1519.918, 22174.00
1520.952, 22194.14
1521.986, 21977.00
1523.019, 22069.00
1524.053, 22014.00
1525.086, 21863.00
1526.119, 22009.00
1527.152, 21859.00
1528.185, 22099.00
1529.217, 22114.00
1530.250, 22153.00
1531.282, 22103.00
1532.314, 22214.00
1533.346, 22114.00
1534.377, 21937.00
1535.409, 22213.00
1536.440, 22002.53
1537.472, 22183.00
1538.503, 22288.20
1539.534, 22322.16
1540.564, 22071.54
1541.595, 22188.39
1542.625, 22157.97
1543.656, 22121.53
1544.686, 22290.09
1545.716, 22080.86
1546.745, 22246.17
1547.775, 22261.97
1548.804, 22346.20
1549.834, 22282.25
1550.863, 22264.07
1551.892, 22394.11
1552.920, 22442.06
1553.949, 22361.05
1554.977, 22449.62
1556.006, 22235.21
1557.034, 22286.66
1558.062, 22452.83
1559.089, 22379.25
1560.117, 22470.53
1561.144, 22499.01
1562.172, 22242.20
1563.199, 22481.55
1564.226, 22506.33
1565.252, 22316.00
1566.279, 22545.00
1567.305, 22349.00
1568.332, 22339.00
1569.358, 22496.00
1570.384, 22334.00
##END=



