##NAMES=Annite
##RRUFFID=R060204
##IDEAL CHEMISTRY=KFe^2+^_3_AlSi_3_O_10_(OH)_2_
##LOCALITY=Mont Saint-Hilaire, Rouville County, Quebec, Canada
##OWNER=RRUFF
##SOURCE=Royal Ontario Museum
##DESCRIPTION=Black mica with pseudohexagonal outines
##STATUS=The identification of this mineral has been confirmed by X-ray diffraction and chemical analysis
##URL=rruff.info/R060204
##MEASURED CHEMISTRY=(K_0.96_Na_0.04_)_Σ=1_(Fe^2+^_2.04_Mg_0.81_Mn_0.09_Ti_0.03_[box]_0.03_)_Σ=3_(Si_3.00_Al_1.00_)O_10_((OH)_1.54_F_0.46_)_Σ=2_
##PIN_ID=M00140
##ORIENTATION=Laser parallel to c* (0 0 1). Fiducial mark perpendicular to laser is parallel to -a [-1 0 0]
307.1510, 45720.00
308.3580, 46014.00
309.5660, 46087.00
310.7730, 46530.00
311.9800, 45740.00
313.1870, 45990.00
314.3940, 46055.00
315.6010, 46190.00
316.8070, 46059.00
318.0130, 46140.75
319.2200, 45993.00
320.4260, 46212.00
321.6310, 46147.00
322.8370, 46330.00
324.0430, 46570.00
325.2480, 46346.00
326.4540, 46562.00
327.6590, 46422.00
328.8640, 46382.00
330.0680, 46577.00
331.2730, 46716.00
332.4780, 47088.00
333.6820, 46503.00
334.8860, 47165.00
336.0900, 46774.00
337.2940, 47077.00
338.4980, 46824.00
339.7010, 47198.00
340.9050, 46801.00
342.1080, 47467.00
343.3110, 47359.00
344.5140, 47301.00
345.7170, 47474.00
346.9200, 47191.00
348.1220, 47709.00
349.3240, 47552.00
350.5270, 47461.00
351.7290, 47375.00
352.9310, 47551.00
354.1320, 47815.00
355.3340, 47660.00
356.5350, 47558.00
357.7370, 47738.43
358.9380, 47931.84
360.1390, 48049.99
361.3400, 48096.91
362.5400, 47859.23
363.7410, 47989.04
364.9410, 47971.56
366.1410, 47948.05
367.3410, 48129.56
368.5410, 47933.27
369.7410, 48111.53
370.9400, 48140.26
372.1400, 48237.44
373.3390, 48186.42
374.5380, 48181.17
375.7370, 48324.14
376.9360, 48385.04
378.1350, 48316.96
379.3330, 48418.45
380.5310, 48216.95
381.7300, 48281.35
382.9280, 48460.44
384.1260, 48399.80
385.3230, 48503.98
386.5210, 48545.39
387.7180, 48301.48
388.9160, 48553.77
390.1130, 48591.46
391.3100, 48408.82
392.5060, 48644.08
393.7030, 48491.81
394.9000, 48477.88
396.0960, 48568.02
397.2920, 48549.64
398.4880, 48702.36
399.6840, 48690.25
400.8800, 48663.41
402.0750, 48686.00
403.2710, 49025.00
404.4660, 48591.00
405.6610, 48864.00
406.8560, 48832.00
408.0510, 48894.00
409.2450, 48998.45
410.4400, 49133.00
411.6340, 49067.00
412.8280, 48635.00
414.0220, 48540.00
415.2160, 48635.00
416.4100, 48900.00
417.6030, 48817.00
418.7970, 48881.00
419.9900, 48804.00
421.1830, 48973.00
422.3760, 48545.00
423.5690, 48575.00
424.7610, 48684.00
425.9540, 48735.00
427.1460, 48832.00
428.3380, 48641.00
429.5300, 48591.00
430.7220, 48863.00
431.9140, 48408.00
433.1050, 48617.00
434.2970, 48545.00
435.4880, 48732.00
436.6790, 48682.13
437.8700, 48682.56
439.0610, 48582.00
440.2510, 48612.00
441.4420, 48546.00
442.6320, 48461.00
443.8220, 48460.11
445.0120, 48541.95
446.2020, 48333.00
447.3910, 48730.00
448.5810, 48566.00
449.7700, 48491.00
450.9600, 48682.00
452.1490, 48780.00
453.3370, 48812.00
454.5260, 48717.00
455.7150, 48850.00
456.9030, 48812.00
458.0910, 48893.00
459.2800, 48976.00
460.4670, 48836.00
461.6550, 49267.00
462.8430, 48835.00
464.0300, 49381.00
465.2180, 48998.00
466.4050, 49528.00
467.5920, 49349.00
468.7790, 49364.00
469.9650, 49483.00
471.1520, 49896.00
472.3380, 49652.00
473.5250, 49849.00
474.7110, 50001.00
475.8970, 49948.00
477.0820, 50003.00
478.2680, 49882.00
479.4540, 50028.68
480.6390, 50365.00
481.8240, 50300.00
483.0090, 50424.00
484.1940, 50587.00
485.3780, 50573.99
486.5630, 50732.00
487.7470, 50679.00
488.9320, 50920.00
490.1160, 51012.00
491.3000, 51090.00
492.4830, 50812.00
493.6670, 50870.00
494.8500, 51038.00
496.0340, 51491.00
497.2170, 51564.72
498.4000, 51613.64
499.5820, 51935.00
500.7650, 51468.00
501.9480, 51516.00
503.1300, 51343.00
504.3120, 51416.00
505.4940, 51532.00
506.6760, 51500.61
507.8580, 51496.02
509.0390, 51688.00
510.2210, 51533.00
511.4020, 51782.00
512.5830, 51727.19
513.7640, 52002.00
514.9450, 51695.00
516.1250, 51896.00
517.3060, 51864.00
518.4860, 51997.00
519.6660, 52090.91
520.8460, 52011.00
522.0260, 52236.54
523.2060, 52248.66
524.3850, 52227.00
525.5650, 52397.00
526.7440, 52230.00
527.9230, 52443.00
529.1020, 52645.00
530.2810, 52247.00
531.4590, 52388.00
532.6380, 52685.00
533.8160, 52829.00
534.9940, 52582.00
536.1720, 53066.00
537.3500, 52815.00
538.5270, 52972.00
539.7050, 53026.00
540.8820, 52968.00
542.0590, 53025.00
543.2360, 53052.00
544.4130, 53036.05
545.5900, 53047.81
546.7660, 53064.00
547.9430, 53008.00
549.1190, 53068.00
550.2950, 53038.00
551.4710, 53272.00
552.6470, 53288.00
553.8220, 53179.00
554.9980, 53221.00
556.1730, 52984.00
557.3480, 52905.00
558.5230, 52906.00
559.6980, 52762.03
560.8730, 52849.00
562.0470, 52726.00
563.2220, 52417.00
564.3960, 52601.00
565.5700, 52286.00
566.7440, 52199.00
567.9170, 52186.00
569.0910, 51920.00
570.2640, 52082.00
571.4380, 52146.00
572.6110, 52155.00
573.7840, 51642.00
574.9570, 51440.00
576.1290, 51479.00
577.3020, 51183.00
578.4740, 51059.00
579.6460, 51031.00
580.8180, 51125.00
581.9900, 51245.00
583.1620, 51473.00
584.3330, 51329.85
585.5040, 50927.00
586.6760, 51085.00
587.8470, 51099.00
589.0180, 51011.59
590.1880, 50970.36
591.3590, 50785.00
592.5290, 50785.00
593.7000, 50804.00
594.8700, 50900.00
596.0400, 51044.00
597.2090, 51068.00
598.3790, 50876.00
599.5490, 51046.00
600.7180, 50737.11
601.8870, 50970.52
603.0560, 51128.65
604.2250, 51215.55
605.3940, 51017.88
606.5620, 51187.62
607.7300, 51210.09
608.8990, 51226.58
610.0670, 51448.04
611.2350, 51165.00
612.4020, 51364.00
613.5700, 51358.38
614.7370, 51628.00
615.9050, 51205.00
617.0720, 51524.00
618.2390, 51338.00
619.4060, 51532.00
620.5720, 51595.00
621.7390, 51679.00
622.9050, 51875.00
624.0710, 51584.00
625.2370, 51399.00
626.4030, 51737.00
627.5690, 52130.00
628.7340, 51767.00
629.9000, 51854.00
631.0650, 51810.00
632.2300, 52022.00
633.3950, 52314.00
634.5600, 52377.00
635.7240, 52158.00
636.8890, 52026.00
638.0530, 52301.00
639.2170, 52336.00
640.3810, 52318.00
641.5450, 52420.00
642.7080, 52439.49
643.8720, 52518.00
645.0350, 52488.00
646.1980, 52637.00
647.3610, 52555.00
648.5240, 52703.00
649.6870, 53080.00
650.8490, 53090.00
652.0120, 53390.00
653.1740, 53182.00
654.3360, 53352.00
655.4980, 53516.76
656.6600, 53740.00
657.8210, 53937.00
658.9830, 54376.00
660.1440, 54726.00
661.3050, 54552.00
662.4660, 55098.00
663.6270, 55357.14
664.7870, 55637.00
665.9480, 56010.00
667.1080, 56490.00
668.2680, 56483.00
669.4280, 57025.00
670.5880, 56885.00
671.7480, 57606.00
672.9070, 57563.00
674.0670, 57472.00
675.2260, 57719.00
676.3850, 57439.00
677.5440, 57621.00
678.7030, 57207.00
679.8610, 57738.00
681.0200, 56854.00
682.1780, 56764.00
683.3360, 56730.00
684.4940, 56218.81
685.6520, 56298.00
686.8090, 55722.00
687.9670, 55858.00
689.1240, 55776.00
690.2810, 56122.00
691.4380, 55927.00
692.5950, 56506.00
693.7520, 56306.00
694.9080, 56714.00
696.0650, 56825.00
697.2210, 57350.00
698.3770, 57357.00
699.5330, 57529.00
700.6880, 57893.00
701.8440, 58926.00
702.9990, 59332.00
704.1550, 59573.00
705.3100, 59296.00
706.4650, 59677.00
707.6190, 60120.00
708.7740, 60177.00
709.9290, 60455.00
711.0830, 60818.00
712.2370, 61231.00
713.3910, 61222.00
714.5450, 61467.00
715.6980, 61356.00
716.8520, 61693.00
718.0050, 61602.00
719.1580, 61826.00
720.3110, 61570.00
721.4640, 61587.00
722.6170, 61255.00
723.7700, 61185.00
724.9220, 60702.00
726.0740, 60730.00
727.2260, 60262.00
728.3780, 60008.00
729.5300, 59619.00
730.6810, 59365.78
731.8330, 58984.00
732.9840, 58852.00
734.1350, 58581.00
735.2860, 58213.00
736.4370, 57918.00
737.5880, 57808.00
738.7380, 57342.00
739.8880, 57712.00
741.0390, 57323.00
742.1890, 57022.00
743.3380, 57215.00
744.4880, 57091.00
745.6380, 56672.00
746.7870, 56578.00
747.9360, 56877.00
749.0850, 56845.00
750.2340, 56925.00
751.3830, 56898.00
752.5310, 56913.00
753.6800, 57045.00
754.8280, 57276.00
755.9760, 57093.00
757.1240, 57388.00
758.2720, 57647.00
759.4190, 57510.00
760.5670, 57818.00
761.7140, 57732.00
762.8610, 58041.00
764.0080, 57964.00
765.1550, 58042.00
766.3020, 57825.00
767.4480, 58188.00
768.5950, 58037.00
769.7410, 58053.00
770.8870, 57599.00
772.0330, 57554.29
773.1780, 57309.57
774.3240, 57258.00
775.4690, 56932.00
776.6140, 56867.00
777.7590, 56840.00
778.9040, 56529.00
780.0490, 56554.00
781.1940, 56095.00
782.3380, 55827.00
783.4820, 55633.00
784.6260, 55795.00
785.7700, 55105.00
786.9140, 55295.00
788.0580, 54702.00
789.2010, 54538.00
790.3450, 54396.00
791.4880, 54517.00
792.6310, 54111.00
793.7730, 53945.00
794.9160, 53797.00
796.0590, 53684.00
797.2010, 53531.49
798.3430, 53441.00
799.4850, 53258.00
800.6270, 53160.00
801.7690, 53015.00
802.9100, 52993.00
804.0520, 52754.00
805.1930, 52543.00
806.3340, 52564.56
807.4750, 52490.38
808.6160, 52476.00
809.7560, 52566.00
810.8970, 52372.00
812.0370, 52387.00
813.1770, 51927.00
814.3170, 52110.00
815.4570, 52407.00
816.5960, 51904.00
817.7360, 52390.00
818.8750, 52016.00
820.0140, 52211.00
821.1530, 52177.00
822.2920, 52117.00
823.4310, 52032.00
824.5690, 52159.00
825.7070, 51916.00
826.8460, 52070.00
827.9840, 52135.00
829.1220, 52531.00
830.2590, 52191.00
831.3970, 51657.00
832.5340, 51905.00
833.6710, 51966.00
834.8080, 51773.00
835.9450, 51912.00
837.0820, 51804.00
838.2190, 51793.00
839.3550, 51957.00
840.4910, 52079.00
841.6270, 51819.00
842.7630, 51825.00
843.8990, 52176.00
845.0350, 51729.00
846.1700, 52126.00
847.3060, 52249.00
848.4410, 52100.00
849.5760, 52214.00
850.7100, 52278.00
851.8450, 52149.08
852.9800, 52416.00
854.1140, 51952.00
855.2480, 52206.00
856.3820, 52102.00
857.5160, 51949.00
858.6500, 52361.00
859.7830, 52244.00
860.9170, 52236.00
862.0500, 52383.00
863.1830, 52409.00
864.3160, 52430.74
865.4480, 52439.00
866.5810, 52470.00
867.7130, 52496.00
868.8460, 52546.00
869.9780, 52546.98
871.1100, 52595.00
872.2410, 52476.00
873.3730, 52577.00
874.5050, 52376.00
875.6360, 52484.00
876.7670, 52731.00
877.8980, 52665.00
879.0290, 52824.00
880.1590, 52849.09
881.2900, 52849.00
882.4200, 52903.00
883.5500, 52863.00
884.6800, 52934.00
885.8100, 53010.89
886.9400, 53145.00
888.0690, 53081.00
889.1990, 53174.00
890.3280, 52924.00
891.4570, 53275.00
892.5860, 53256.00
893.7140, 53321.00
894.8430, 53641.00
895.9710, 53761.00
897.1000, 53313.00
898.2280, 53254.00
899.3560, 53387.00
900.4830, 53407.00
901.6110, 53706.00
902.7380, 53516.00
903.8660, 53813.00
904.9930, 53713.00
906.1200, 53980.00
907.2460, 53955.00
908.3730, 53396.00
909.5000, 53846.00
910.6260, 53658.00
911.7520, 53818.00
912.8780, 53831.00
914.0040, 53981.00
915.1290, 53949.50
916.2550, 54254.00
917.3800, 53973.00
918.5050, 53976.00
919.6300, 54193.00
920.7550, 54024.00
921.8800, 54265.00
923.0040, 54009.00
924.1290, 53997.00
925.2530, 54034.00
926.3770, 54314.00
927.5010, 54341.00
928.6250, 54290.00
929.7480, 54273.00
930.8720, 54242.34
931.9950, 54401.00
933.1180, 54190.00
934.2410, 54322.00
935.3640, 54376.00
936.4860, 54332.00
937.6090, 54581.00
938.7310, 54710.00
939.8530, 54372.00
940.9750, 54678.00
942.0970, 54392.00
943.2180, 54599.00
944.3400, 54654.00
945.4610, 54407.00
946.5820, 54816.00
947.7030, 54587.32
948.8240, 54622.00
949.9450, 54439.00
951.0650, 54473.00
952.1860, 54452.00
953.3060, 54482.00
954.4260, 54501.00
955.5460, 54327.00
956.6650, 54540.00
957.7850, 54361.00
958.9040, 54486.00
960.0230, 54536.00
961.1420, 54391.00
962.2610, 54354.00
963.3800, 54190.00
964.4990, 54277.00
965.6170, 54249.00
966.7350, 54264.00
967.8530, 54376.23
968.9710, 54266.00
970.0890, 54465.00
971.2070, 54493.00
972.3240, 54260.00
973.4410, 54339.00
974.5580, 54446.00
975.6750, 54137.00
976.7920, 54229.00
977.9090, 54437.00
979.0250, 54517.00
980.1410, 54542.00
981.2580, 54629.92
982.3740, 54729.69
983.4890, 54671.00
984.6050, 54810.00
985.7200, 54817.00
986.8360, 54531.00
987.9510, 54525.00
989.0660, 54494.00
990.1810, 54427.00
991.2950, 54318.00
992.4100, 54750.00
993.5240, 54648.00
994.6390, 54510.00
995.7530, 54885.00
996.8660, 54775.00
997.9800, 54810.00
999.0940, 54988.00
1000.207, 54644.00
1001.320, 54460.00
1002.433, 54724.00
1003.546, 54572.00
1004.659, 54699.00
1005.772, 54716.00
1006.884, 55052.00
1007.996, 54739.00
1009.108, 54883.00
1010.220, 54560.00
1011.332, 55081.00
1012.444, 54779.00
1013.555, 54922.00
1014.666, 54905.00
1015.777, 54851.00
1016.888, 55192.00
1017.999, 55180.93
1019.110, 55307.00
1020.220, 55400.00
1021.331, 55309.00
1022.441, 55320.00
1023.551, 55265.00
1024.661, 55305.00
1025.770, 55262.00
1026.880, 54992.00
1027.989, 55236.00
1029.098, 55332.00
1030.207, 55614.00
1031.316, 55473.00
1032.425, 55585.86
1033.533, 55448.00
1034.642, 55597.00
1035.750, 55446.00
1036.858, 55476.00
1037.966, 55571.00
1039.073, 55213.00
1040.181, 55578.00
1041.288, 55433.00
1042.396, 55553.00
1043.503, 55481.00
1044.610, 55684.00
1045.716, 55299.00
1046.823, 55412.00
1047.929, 55740.00
1049.036, 55401.00
1050.142, 55362.00
1051.248, 55852.00
1052.353, 55579.00
1053.459, 55841.00
1054.564, 55671.00
1055.670, 55688.83
1056.775, 55854.29
1057.880, 55944.48
1058.985, 55963.44
1060.089, 55697.83
1061.194, 55799.68
1062.298, 55754.28
1063.402, 55702.83
1064.506, 55856.41
1065.610, 55632.20
1066.713, 55782.53
1067.817, 55783.34
1068.920, 55852.59
1070.023, 55773.67
1071.126, 55492.00
1072.229, 56160.00
1073.332, 55630.00
1074.435, 56074.00
1075.537, 55667.00
1076.639, 55735.00
1077.741, 55754.00
1078.843, 56314.00
1079.945, 56420.00
1081.046, 55932.00
1082.148, 55898.00
1083.249, 55662.00
1084.350, 55700.00
1085.451, 55690.00
1086.551, 55748.00
1087.652, 55607.00
1088.752, 55764.00
1089.853, 55649.22
1090.953, 55972.00
1092.053, 55612.00
1093.152, 55453.00
1094.252, 55636.00
1095.351, 55156.00
1096.451, 55206.00
1097.550, 55195.00
1098.649, 55224.00
1099.748, 54986.00
1100.846, 55301.00
1101.945, 54800.00
1103.043, 55189.00
1104.141, 54967.00
1105.239, 55095.00
1106.337, 54632.00
1107.434, 54838.00
1108.532, 54847.00
1109.629, 54850.00
1110.726, 55082.00
1111.823, 54783.00
1112.920, 54898.00
1114.017, 55150.00
1115.113, 54934.00
1116.210, 54888.00
1117.306, 54881.00
1118.402, 54882.00
1119.498, 55156.00
1120.593, 54917.12
1121.689, 55043.40
1122.784, 55094.44
1123.879, 55074.25
1124.974, 54769.49
1126.069, 54832.20
1127.164, 54747.64
1128.259, 54657.04
1129.353, 54771.51
1130.447, 54508.18
1131.541, 54619.39
1132.635, 54581.10
1133.729, 54611.23
1134.822, 54493.23
1135.916, 54420.96
1137.009, 54213.00
1138.102, 54081.00
1139.195, 54204.00
1140.288, 54373.00
1141.380, 54095.00
1142.473, 54083.00
1143.565, 54247.00
1144.657, 54108.00
1145.749, 54250.00
1146.841, 53971.00
1147.932, 54167.00
1149.024, 54139.00
1150.115, 54113.00
1151.206, 53997.00
1152.297, 53921.00
1153.388, 53915.57
1154.479, 53812.00
1155.569, 53895.00
1156.659, 53995.00
1157.750, 53978.00
1158.839, 53744.00
1159.929, 54054.18
1161.019, 53935.57
1162.108, 54375.00
1163.198, 54057.00
1164.287, 53863.00
1165.376, 54058.00
1166.465, 53910.00
1167.553, 53773.00
1168.642, 53931.00
1169.730, 53696.00
1170.818, 53920.00
1171.906, 53791.00
1172.994, 53679.00
1174.082, 53916.00
1175.170, 53949.00
1176.257, 54012.00
1177.344, 53832.00
1178.431, 53772.00
1179.518, 54005.00
1180.605, 53683.00
1181.691, 53935.00
1182.778, 53625.00
1183.864, 53642.00
1184.950, 53732.00
1186.036, 53552.00
1187.122, 53986.00
1188.207, 53751.00
1189.292, 53928.00
1190.378, 53615.00
1191.463, 53565.00
1192.548, 53940.00
1193.632, 53656.00
1194.717, 53486.00
1195.801, 53792.00
1196.886, 53521.00
1197.970, 53666.00
1199.054, 53658.00
1200.137, 53955.00
1201.221, 53878.00
1202.305, 53984.00
1203.388, 53539.00
1204.471, 53541.00
1205.554, 53647.00
1206.637, 53240.00
1207.719, 53649.00
1208.802, 53500.00
1209.884, 53518.08
1210.966, 53595.26
1212.048, 53632.00
1213.130, 53646.00
1214.212, 53672.64
1215.293, 53709.50
1216.374, 53686.00
1217.456, 53685.00
1218.536, 53705.00
1219.617, 53481.00
1220.698, 53533.00
1221.778, 53906.00
1222.859, 53667.00
1223.939, 53692.00
1225.019, 53786.00
1226.099, 53649.40
1227.178, 53774.00
1228.258, 53704.00
1229.337, 53536.00
1230.417, 53856.00
1231.496, 53717.00
1232.574, 53692.00
1233.653, 53769.00
1234.732, 53488.00
1235.810, 53496.07
1236.888, 53670.49
1237.966, 53769.63
1239.044, 53797.54
1240.122, 53540.88
1241.199, 53651.68
1242.277, 53615.22
1243.354, 53572.72
1244.431, 53735.24
1245.508, 53519.96
1246.585, 53679.23
1247.661, 53688.99
1248.738, 53767.18
1249.814, 53697.19
1250.890, 53672.96
1251.966, 53796.96
1253.042, 53838.89
1254.117, 53751.84
1255.193, 53834.38
1256.268, 53613.92
1257.343, 53659.34
1258.418, 53819.47
1259.493, 53739.88
1260.567, 53825.11
1261.642, 53847.57
1262.716, 53584.72
1263.790, 53818.05
1264.864, 53836.80
1265.938, 53635.22
1267.011, 53851.55
1268.085, 53680.34
1269.158, 53647.46
1270.231, 53718.68
1271.304, 53681.38
1272.377, 53815.17
1273.450, 53784.13
1274.522, 53738.37
1275.594, 53756.87
1276.666, 53593.26
1277.738, 53767.51
1278.810, 53710.97
1279.882, 53769.15
1280.953, 53853.33
1282.025, 53738.41
1283.096, 53834.27
1284.167, 53603.26
1285.238, 53645.76
1286.308, 53658.80
1287.379, 53846.67
1288.449, 53617.24
1289.519, 53652.14
1290.589, 53799.58
1291.659, 53789.54
1292.729, 53845.35
1293.798, 53706.23
1294.868, 53750.23
1295.937, 53743.76
1297.006, 53911.69
1298.075, 53941.93
1299.143, 53806.12
1300.212, 53671.02
1301.280, 53851.50
1302.348, 53732.87
1303.416, 53775.61
1304.484, 53651.68
1305.552, 53671.66
1306.620, 53689.35
1307.687, 53780.80
1308.754, 53648.58
1309.821, 53806.50
1310.888, 53796.73
1311.955, 53836.36
1313.021, 53870.48
1314.088, 53679.58
1315.154, 53673.15
1316.220, 53930.68
1317.286, 53785.65
1318.352, 53721.88
1319.417, 53715.86
1320.483, 53982.42
1321.548, 53995.62
1322.613, 53705.97
1323.678, 53960.53
1324.743, 53880.28
1325.807, 53899.52
1326.872, 53882.46
1327.936, 53876.14
1329.000, 53733.15
1330.064, 53770.27
1331.128, 53953.85
1332.191, 53887.75
1333.255, 53991.30
1334.318, 53785.66
1335.381, 53763.55
1336.444, 53847.00
1337.507, 53888.00
1338.569, 53882.00
1339.632, 53947.00
1340.694, 54003.00
1341.756, 54067.00
1342.818, 53780.00
1343.880, 54005.00
1344.941, 53823.00
1346.003, 53845.00
1347.064, 54142.00
1348.125, 53697.00
1349.186, 53926.00
1350.247, 53896.00
1351.308, 53717.00
1352.368, 53857.00
1353.428, 53857.00
1354.489, 53989.00
1355.549, 53995.00
1356.608, 53890.00
1357.668, 53846.00
1358.727, 53648.00
1359.787, 53728.35
1360.846, 53803.00
1361.905, 53874.00
1362.964, 54004.00
1364.022, 54140.00
1365.081, 54341.00
1366.139, 53826.00
1367.197, 53851.00
1368.255, 54628.00
1369.313, 54166.23
1370.371, 54466.00
1371.428, 54152.00
1372.486, 53659.00
1373.543, 53864.00
1374.600, 54074.00
1375.657, 53765.00
1376.713, 54165.00
1377.770, 54127.00
1378.826, 53944.00
1379.882, 53571.00
1380.938, 53953.00
1381.994, 54102.00
1383.050, 54065.00
1384.106, 53929.00
1385.161, 54095.00
1386.216, 53935.00
1387.271, 54049.00
1388.326, 53960.00
1389.381, 54152.00
1390.435, 53921.00
1391.490, 54137.00
1392.544, 53750.00
1393.598, 54000.00
1394.652, 54036.00
1395.705, 54161.00
1396.759, 53942.00
1397.812, 54131.00
1398.866, 53891.00
1399.919, 54364.00
1400.972, 54687.00
1402.024, 54215.00
1403.077, 54260.00
1404.129, 54012.00
1405.181, 54264.00
1406.233, 54323.00
1407.285, 53887.00
1408.337, 54256.00
1409.389, 54296.00
1410.440, 53922.00
1411.491, 54268.00
1412.542, 54299.00
1413.593, 54355.00
1414.644, 54441.00
1415.695, 54266.00
1416.745, 54326.00
1417.795, 54279.00
1418.845, 54306.00
1419.895, 54529.00
1420.945, 54244.00
1421.995, 54146.00
1423.044, 54584.00
1424.093, 54067.00
1425.142, 54139.00
1426.191, 54203.00
1427.240, 53983.00
1428.289, 54148.00
1429.337, 54317.00
1430.385, 54339.00
1431.433, 54516.00
1432.481, 54033.00
1433.529, 54347.00
1434.577, 54406.00
1435.624, 54405.00
1436.672, 54664.00
1437.719, 54558.00
1438.766, 54818.00
1439.812, 54298.00
1440.859, 54222.00
1441.905, 54157.00
1442.952, 54570.00
1443.998, 54468.00
1445.044, 54405.00
1446.090, 54280.00
1447.135, 54297.00
1448.181, 54280.75
1449.226, 54393.00
1450.271, 54355.00
1451.316, 54407.00
1452.361, 54479.00
1453.405, 54402.00
1454.450, 54439.43
1455.494, 54391.91
1456.538, 54415.00
1457.582, 54288.00
1458.626, 54280.00
1459.670, 54228.00
1460.713, 54196.43
1461.757, 54286.57
1462.800, 54172.00
1463.843, 54490.00
1464.886, 54501.00
1465.928, 54598.00
1466.971, 54325.00
1468.013, 54374.00
1469.055, 54412.80
1470.097, 54357.00
1471.139, 54570.31
1472.181, 54494.93
1473.222, 54581.00
1474.263, 54539.90
1475.305, 54623.00
1476.346, 54397.00
1477.386, 54203.00
1478.427, 54129.00
1479.468, 54420.00
1480.508, 54550.00
1481.548, 54499.00
1482.588, 54329.00
1483.628, 54302.00
1484.668, 54679.00
1485.707, 54328.00
1486.747, 54229.00
1487.786, 54722.00
1488.825, 54304.00
1489.864, 54248.00
1490.902, 54507.00
1491.941, 54621.00
1492.979, 54416.00
1494.017, 54394.00
1495.055, 54470.00
1496.093, 54435.00
1497.131, 54286.00
1498.168, 54215.00
1499.206, 54247.91
1500.243, 54303.00
1501.280, 54437.00
1502.317, 54366.00
1503.354, 54655.00
1504.390, 54664.00
1505.426, 54453.00
1506.463, 54670.00
1507.499, 54571.00
1508.535, 54509.00
1509.570, 54292.00
1510.606, 54336.00
1511.641, 54282.00
1512.676, 54603.00
1513.711, 54442.00
1514.746, 54715.00
1515.781, 54565.00
1516.816, 54424.00
1517.850, 54382.00
1518.884, 54390.53
1519.918, 54367.12
1520.952, 54509.00
1521.986, 54428.00
1523.019, 54441.00
1524.053, 54469.00
1525.086, 54751.00
1526.119, 54475.00
1527.152, 54862.00
1528.185, 54534.00
1529.217, 54252.00
1530.250, 54519.00
1531.282, 54244.00
1532.314, 54660.00
1533.346, 54672.00
1534.377, 54132.84
1535.409, 54315.54
1536.440, 54422.95
1537.472, 54459.14
1538.503, 54210.74
1539.534, 54329.81
1540.564, 54301.61
1541.595, 54267.38
1542.625, 54438.16
1543.656, 54231.16
1544.686, 54398.69
1545.716, 54416.71
1546.745, 54503.15
1547.775, 54441.42
1548.804, 54425.45
1549.834, 54557.71
1550.863, 54607.89
1551.892, 54529.10
1552.920, 54619.88
1553.949, 54407.67
1554.977, 54461.34
1556.006, 54629.73
1557.034, 54558.37
1558.062, 54651.86
1559.089, 54682.55
1560.117, 54427.95
1561.144, 54669.52
1562.172, 54696.51
1563.199, 54503.16
1564.226, 54727.73
1565.252, 54564.75
1566.279, 54540.11
1567.305, 54619.55
1568.332, 54590.49
1569.358, 54732.51
1570.384, 54655.00
##END=



