##NAMES=Annite
##RRUFFID=R060211
##IDEAL CHEMISTRY=KFe^2+^_3_AlSi_3_O_10_(OH)_2_
##LOCALITY=Mont Saint-Hilaire, Rouville County, Quebec, Canada
##OWNER=RRUFF
##SOURCE=Royal Ontario Museum
##DESCRIPTION=Black mica
##STATUS=The identification of this mineral has been confirmed by X-ray diffraction and chemical analysis
##URL=rruff.info/R060211
##MEASURED CHEMISTRY=(K_0.94_[box]_0.03_Na_0.02_)_Σ=1_(Fe^2+^_2.07_Mg_0.57_Mn_0.33_Ti_0.03_)_Σ=3_(Si_2.98_Al_1.02_)O_10_((OH)_1.72_F_0.28_)_Σ=2_
##PIN_ID=L01073
##ORIENTATION=Laser parallel to c* (0 0 1). Fiducial mark perpendicular to laser is parallel to a [1 0 0]
230.8490, 51515.00
232.0700, 51469.00
233.2910, 51543.00
234.5120, 51407.00
235.7320, 51295.00
236.9530, 51361.59
238.1730, 51284.00
239.3930, 51408.00
240.6130, 51211.00
241.8320, 51181.00
243.0520, 51004.00
244.2710, 51057.06
245.4900, 51113.00
246.7090, 51111.00
247.9280, 51073.00
249.1470, 50929.00
250.3650, 50687.00
251.5840, 50889.00
252.8020, 51018.00
254.0200, 51266.00
255.2370, 51355.00
256.4550, 51536.64
257.6720, 51773.37
258.8900, 51936.80
260.1070, 52030.77
261.3240, 51847.44
262.5400, 52022.12
263.7570, 52053.37
264.9730, 52078.68
266.1900, 52303.81
267.4060, 52109.47
268.6220, 52157.00
269.8370, 52288.00
271.0530, 51879.00
272.2680, 51722.00
273.4830, 51419.00
274.6980, 51638.00
275.9130, 51430.00
277.1280, 51629.00
278.3420, 51489.00
279.5570, 51271.00
280.7710, 50887.00
281.9850, 51132.00
283.1990, 51447.00
284.4120, 50993.00
285.6260, 50775.00
286.8390, 50778.00
288.0520, 50234.00
289.2650, 50385.00
290.4780, 49899.00
291.6910, 50064.00
292.9030, 50092.00
294.1160, 49933.00
295.3280, 49963.44
296.5400, 49414.00
297.7510, 49752.00
298.9630, 49312.36
300.1740, 49479.29
301.3860, 49572.86
302.5970, 49597.03
303.8080, 49343.91
305.0180, 49448.86
306.2290, 49410.30
307.4390, 49365.87
308.6500, 49521.21
309.8600, 49308.42
311.0700, 49460.59
312.2790, 49151.00
313.4890, 49444.00
314.6980, 49364.00
315.9080, 49216.00
317.1170, 49098.00
318.3250, 48929.00
319.5340, 49228.00
320.7430, 49326.00
321.9510, 49123.00
323.1590, 48944.00
324.3670, 49069.00
325.5750, 49373.00
326.7830, 49217.00
327.9900, 49600.00
329.1980, 49613.00
330.4050, 49340.00
331.6120, 49389.00
332.8190, 49637.00
334.0250, 49492.00
335.2320, 49609.00
336.4380, 49496.00
337.6440, 49505.00
338.8500, 49624.00
340.0560, 49691.58
341.2620, 50076.00
342.4670, 50054.00
343.6730, 49944.00
344.8780, 50209.00
346.0830, 50142.06
347.2870, 50261.00
348.4920, 50186.00
349.6970, 49966.00
350.9010, 49854.00
352.1050, 50171.00
353.3090, 49918.00
354.5130, 49979.00
355.7160, 50125.00
356.9200, 49900.00
358.1230, 50158.00
359.3260, 49936.00
360.5290, 49837.00
361.7320, 49835.00
362.9340, 49638.00
364.1370, 49787.00
365.3390, 49805.00
366.5410, 49803.00
367.7430, 49907.33
368.9450, 49951.00
370.1460, 49947.00
371.3480, 49990.00
372.5490, 49818.00
373.7500, 49873.59
374.9510, 49827.02
376.1520, 49822.00
377.3520, 49799.00
378.5520, 49690.00
379.7530, 49686.00
380.9530, 49847.00
382.1530, 49737.03
383.3520, 49860.80
384.5520, 49756.00
385.7510, 49930.00
386.9500, 50114.00
388.1490, 49990.00
389.3480, 50046.00
390.5470, 50272.00
391.7450, 50165.00
392.9440, 50371.00
394.1420, 50494.00
395.3400, 50485.00
396.5380, 50438.88
397.7350, 50303.00
398.9330, 50196.00
400.1300, 50191.00
401.3270, 50178.00
402.5240, 50427.00
403.7210, 50160.00
404.9180, 50127.00
406.1140, 50220.00
407.3110, 50043.00
408.5070, 49740.00
409.7030, 49999.00
410.8990, 49938.00
412.0940, 49941.00
413.2900, 50036.00
414.4850, 49869.00
415.6800, 49980.32
416.8750, 50082.00
418.0700, 49994.00
419.2650, 49978.00
420.4590, 49807.00
421.6530, 49449.00
422.8470, 49628.00
424.0410, 49444.00
425.2350, 49682.00
426.4290, 49879.00
427.6220, 49214.00
428.8160, 49561.00
430.0090, 49401.00
431.2020, 49527.00
432.3940, 49479.00
433.5870, 49666.00
434.7790, 49396.00
435.9720, 49152.00
437.1640, 49221.00
438.3560, 48807.00
439.5470, 48852.00
440.7390, 49114.00
441.9300, 48920.00
443.1220, 48872.00
444.3130, 49034.00
445.5040, 48750.00
446.6940, 48828.35
447.8850, 49237.00
449.0750, 48908.00
450.2660, 48903.00
451.4560, 49232.00
452.6460, 49512.00
453.8350, 49589.00
455.0250, 49320.00
456.2140, 49145.00
457.4040, 49245.00
458.5930, 49280.00
459.7820, 49483.00
460.9700, 49489.40
462.1590, 49785.00
463.3470, 49645.00
464.5350, 49836.00
465.7240, 50074.00
466.9110, 50157.00
468.0990, 49998.00
469.2870, 50089.00
470.4740, 50340.00
471.6610, 50616.00
472.8480, 50531.00
474.0350, 50762.00
475.2220, 50811.00
476.4090, 51132.00
477.5950, 51205.00
478.7810, 51127.00
479.9670, 51586.00
481.1530, 51681.00
482.3390, 51689.00
483.5240, 51548.00
484.7100, 51705.00
485.8950, 51975.00
487.0800, 52166.00
488.2650, 52425.00
489.4490, 52407.00
490.6340, 52607.00
491.8180, 53057.00
493.0030, 52978.00
494.1870, 53195.34
495.3700, 53223.00
496.5540, 53324.00
497.7380, 53382.00
498.9210, 53397.00
500.1040, 53675.00
501.2870, 53985.00
502.4700, 54002.00
503.6530, 54143.36
504.8350, 54108.00
506.0180, 54184.00
507.2000, 54160.00
508.3820, 54168.00
509.5640, 54487.00
510.7450, 54410.00
511.9270, 54779.00
513.1080, 54896.00
514.2890, 54910.00
515.4700, 55292.00
516.6510, 55152.00
517.8320, 55284.00
519.0130, 55344.00
520.1930, 55591.00
521.3730, 55951.00
522.5530, 55646.00
523.7330, 55948.00
524.9130, 56238.00
526.0920, 55978.00
527.2710, 56481.00
528.4510, 55986.00
529.6300, 56535.00
530.8080, 56408.00
531.9870, 56701.00
533.1660, 56585.00
534.3440, 56510.00
535.5220, 56214.00
536.7000, 56530.00
537.8780, 56609.00
539.0560, 56420.00
540.2330, 56125.00
541.4110, 56302.00
542.5880, 55724.00
543.7650, 55783.00
544.9420, 55744.00
546.1180, 55279.00
547.2950, 55174.00
548.4710, 55131.00
549.6470, 54833.00
550.8230, 54897.00
551.9990, 54747.00
553.1750, 54438.00
554.3500, 54097.00
555.5260, 53928.00
556.7010, 53854.00
557.8760, 53781.00
559.0510, 54096.00
560.2250, 54205.00
561.4000, 53586.00
562.5740, 52688.00
563.7480, 52566.00
564.9220, 52550.00
566.0960, 52181.00
567.2700, 52364.00
568.4430, 52389.00
569.6170, 51785.00
570.7900, 52410.00
571.9630, 51911.55
573.1360, 51764.76
574.3080, 51529.00
575.4810, 51465.00
576.6530, 51497.00
577.8250, 51802.00
578.9980, 51521.40
580.1690, 51576.00
581.3410, 51108.00
582.5130, 50999.00
583.6840, 50715.00
584.8550, 50584.00
586.0260, 50546.00
587.1970, 50403.00
588.3680, 50370.00
589.5380, 50500.00
590.7080, 50419.00
591.8790, 50516.00
593.0490, 50401.00
594.2190, 50486.00
595.3880, 50269.00
596.5580, 50433.00
597.7270, 50446.00
598.8960, 50525.00
600.0650, 50185.00
601.2340, 50530.00
602.4030, 50499.00
603.5710, 50428.00
604.7400, 50886.00
605.9080, 50828.00
607.0760, 50826.00
608.2440, 50844.00
609.4120, 51045.00
610.5790, 51095.00
611.7460, 50959.00
612.9140, 50836.00
614.0810, 51244.00
615.2480, 51025.00
616.4140, 51322.00
617.5810, 51158.00
618.7470, 51200.00
619.9130, 51224.00
621.0790, 51403.00
622.2450, 51400.00
623.4110, 51109.00
624.5770, 51621.00
625.7420, 51302.00
626.9070, 51593.00
628.0720, 51549.00
629.2370, 51541.00
630.4020, 51602.00
631.5660, 51819.00
632.7310, 51847.00
633.8950, 51537.00
635.0590, 51801.00
636.2230, 51788.00
637.3870, 52069.00
638.5500, 52114.00
639.7140, 52353.00
640.8770, 52413.00
642.0400, 52594.00
643.2030, 52623.00
644.3660, 52903.00
645.5280, 52959.00
646.6910, 53377.00
647.8530, 53291.00
649.0150, 53643.00
650.1770, 53600.00
651.3390, 54208.00
652.5000, 54385.00
653.6620, 54824.00
654.8230, 55439.00
655.9840, 55751.00
657.1450, 56073.00
658.3060, 56714.00
659.4660, 57126.00
660.6270, 57552.00
661.7870, 57836.00
662.9470, 58180.00
664.1070, 58817.00
665.2670, 59132.00
666.4260, 59195.00
667.5860, 59474.00
668.7450, 59214.00
669.9040, 59537.00
671.0630, 58774.00
672.2220, 58863.00
673.3800, 59178.00
674.5390, 58273.00
675.6970, 57630.00
676.8550, 57135.00
678.0130, 56957.00
679.1710, 56401.00
680.3290, 56195.00
681.4860, 55703.00
682.6430, 55667.00
683.8000, 55343.00
684.9570, 55499.00
686.1140, 55287.00
687.2710, 54804.00
688.4270, 55319.00
689.5840, 54723.00
690.7400, 54693.00
691.8960, 54907.00
693.0520, 54914.00
694.2070, 54851.00
695.3630, 54920.00
696.5180, 54912.94
697.6730, 55105.00
698.8280, 55013.00
699.9830, 55135.00
701.1380, 55298.00
702.2920, 55198.00
703.4470, 55316.00
704.6010, 55540.00
705.7550, 55423.00
706.9090, 55293.00
708.0620, 55531.00
709.2160, 55776.00
710.3690, 55759.00
711.5220, 55907.00
712.6750, 55972.00
713.8280, 55991.46
714.9810, 56128.00
716.1340, 56088.00
717.2860, 56113.87
718.4380, 56251.00
719.5900, 55911.00
720.7420, 55930.00
721.8940, 55618.00
723.0450, 55520.00
724.1970, 55681.00
725.3480, 55764.00
726.4990, 55611.52
727.6500, 55534.00
728.8010, 55366.00
729.9510, 55253.00
731.1020, 55183.00
732.2520, 55096.00
733.4020, 55014.00
734.5520, 55153.00
735.7020, 55032.00
736.8510, 54996.00
738.0010, 55156.00
739.1500, 55596.00
740.2990, 55418.00
741.4480, 55458.00
742.5970, 55533.00
743.7450, 55404.00
744.8940, 55648.00
746.0420, 55546.00
747.1900, 55926.00
748.3380, 56009.00
749.4860, 56133.00
750.6330, 56307.00
751.7810, 56299.00
752.9280, 56773.00
754.0750, 56558.00
755.2220, 56853.00
756.3690, 56705.00
757.5160, 56731.00
758.6620, 56989.00
759.8090, 57141.00
760.9550, 57201.00
762.1010, 57347.00
763.2470, 57376.00
764.3920, 57501.00
765.5380, 57581.00
766.6830, 57534.00
767.8280, 57737.00
768.9730, 57300.00
770.1180, 57209.00
771.2630, 57497.00
772.4070, 57873.00
773.5520, 57297.00
774.6960, 56912.00
775.8400, 57373.00
776.9840, 56918.00
778.1280, 56986.00
779.2710, 56512.00
780.4140, 56441.00
781.5580, 56142.00
782.7010, 55910.00
783.8440, 55666.00
784.9860, 55662.00
786.1290, 55210.00
787.2710, 54701.00
788.4140, 54657.00
789.5560, 54533.00
790.6980, 54125.00
791.8390, 53602.00
792.9810, 53725.00
794.1220, 53239.00
795.2640, 53100.00
796.4050, 52766.00
797.5460, 52695.00
798.6860, 52442.00
799.8270, 51886.00
800.9680, 52202.00
802.1080, 51604.00
803.2480, 51885.00
804.3880, 51599.20
805.5280, 51342.46
806.6670, 51214.00
807.8070, 50977.00
808.9460, 50925.00
810.0850, 51010.00
811.2240, 51063.00
812.3630, 50811.00
813.5020, 50930.00
814.6400, 50775.00
815.7790, 50904.00
816.9170, 50589.00
818.0550, 51246.00
819.1930, 50558.00
820.3300, 50724.00
821.4680, 50589.00
822.6050, 50385.00
823.7430, 50826.00
824.8800, 50865.00
826.0170, 50756.00
827.1530, 50750.00
828.2900, 50869.00
829.4260, 50970.00
830.5620, 50912.57
831.6990, 50721.00
832.8340, 50901.00
833.9700, 50986.00
835.1060, 51158.00
836.2410, 51194.36
837.3760, 51020.00
838.5120, 51186.00
839.6470, 51036.00
840.7810, 50867.00
841.9160, 50884.00
843.0500, 51150.00
844.1850, 50962.00
845.3190, 51040.00
846.4530, 51100.00
847.5870, 50969.00
848.7200, 51069.00
849.8540, 51523.00
850.9870, 50987.00
852.1200, 51322.00
853.2530, 51021.00
854.3860, 51157.00
855.5190, 51563.00
856.6510, 51694.00
857.7840, 51511.00
858.9160, 51639.00
860.0480, 51920.00
861.1800, 51847.00
862.3110, 52083.00
863.4430, 52123.00
864.5740, 52306.00
865.7060, 52324.00
866.8370, 52392.00
867.9680, 52419.00
869.0980, 52335.00
870.2290, 52469.52
871.3590, 52543.59
872.4900, 52705.00
873.6200, 52787.00
874.7500, 53008.00
875.8790, 53067.00
877.0090, 52677.00
878.1380, 52967.00
879.2680, 52473.00
880.3970, 52787.00
881.5260, 52996.00
882.6550, 52777.00
883.7830, 52699.00
884.9120, 52651.00
886.0400, 52602.00
887.1680, 52614.80
888.2960, 52634.04
889.4240, 52624.00
890.5520, 52818.00
891.6790, 52727.00
892.8070, 52985.00
893.9340, 52693.00
895.0610, 52465.00
896.1880, 52915.00
897.3140, 52605.00
898.4410, 52671.00
899.5670, 52789.00
900.6940, 53103.00
901.8200, 52969.22
902.9450, 52892.00
904.0710, 52779.00
905.1970, 52691.00
906.3220, 52512.00
907.4470, 52852.00
908.5730, 52785.00
909.6980, 52987.00
910.8220, 52812.00
911.9470, 52899.00
913.0710, 52941.07
914.1960, 53008.00
915.3200, 53112.00
916.4440, 52957.00
917.5680, 53217.00
918.6910, 53072.00
919.8150, 53351.00
920.9380, 53289.05
922.0610, 53315.59
923.1840, 53321.00
924.3070, 53353.00
925.4300, 53569.00
926.5520, 53643.39
927.6750, 53602.17
928.7970, 53620.00
929.9190, 53534.00
931.0410, 53416.00
932.1630, 53509.00
933.2840, 53478.00
934.4060, 53707.00
935.5270, 53522.00
936.6480, 53291.00
937.7690, 53338.00
938.8900, 53604.00
940.0100, 53880.00
941.1310, 53464.00
942.2510, 53592.00
943.3710, 53440.00
944.4910, 53669.00
945.6110, 53761.00
946.7310, 53361.00
947.8500, 53547.00
948.9690, 52813.00
950.0890, 53266.00
951.2080, 53292.00
952.3260, 52920.00
953.4450, 53206.00
954.5640, 52933.00
955.6820, 52944.00
956.8000, 53178.00
957.9180, 53146.00
959.0360, 52837.00
960.1540, 52976.00
961.2710, 52990.00
962.3890, 52559.00
963.5060, 52716.00
964.6230, 52583.00
965.7400, 52478.50
966.8570, 52743.00
967.9730, 52449.00
969.0900, 52584.00
970.2060, 52731.00
971.3220, 52729.00
972.4380, 52499.00
973.5540, 53064.00
974.6700, 52510.00
975.7850, 52654.00
976.9010, 52711.00
978.0160, 52613.00
979.1310, 52940.00
980.2460, 52501.00
981.3600, 52581.00
982.4750, 53001.00
983.5890, 52674.00
984.7030, 52774.00
985.8170, 52910.00
986.9310, 52922.00
988.0450, 52800.00
989.1590, 52544.00
990.2720, 53086.00
991.3850, 52961.00
992.4980, 53066.00
993.6110, 52704.00
994.7240, 53248.00
995.8370, 53120.00
996.9490, 53381.00
998.0620, 53339.00
999.1740, 53517.00
1000.286, 53510.00
1001.398, 53597.00
1002.509, 53830.00
1003.621, 53529.00
1004.732, 53791.00
1005.843, 53844.00
1006.954, 53744.00
1008.065, 53896.00
1009.176, 54206.00
1010.286, 53977.00
1011.397, 54363.00
1012.507, 54154.00
1013.617, 54577.00
1014.727, 54442.00
1015.837, 54732.00
1016.946, 54516.00
1018.056, 54496.00
1019.165, 54664.00
1020.274, 54462.00
1021.383, 54497.00
1022.492, 54781.00
1023.601, 54263.00
1024.709, 54311.00
1025.817, 54439.00
1026.926, 54186.00
1028.034, 54336.00
1029.141, 54229.00
1030.249, 54194.00
1031.357, 54306.00
1032.464, 54095.00
1033.571, 54186.00
1034.678, 54353.00
1035.785, 54083.00
1036.892, 54061.00
1037.999, 54037.30
1039.105, 53972.97
1040.211, 53961.00
1041.317, 54079.00
1042.423, 54090.00
1043.529, 54317.00
1044.635, 54114.00
1045.740, 54177.00
1046.845, 54329.00
1047.951, 54038.00
1049.056, 54143.00
1050.160, 53914.00
1051.265, 54069.00
1052.370, 54332.00
1053.474, 53873.00
1054.578, 54278.00
1055.682, 53975.00
1056.786, 53860.00
1057.890, 54011.00
1058.993, 53915.00
1060.097, 54216.00
1061.200, 54277.00
1062.303, 54159.00
1063.406, 53873.52
1064.509, 54109.05
1065.612, 54271.24
1066.714, 54363.95
1067.816, 54179.38
1068.919, 54352.92
1070.021, 54382.91
1071.122, 54406.94
1072.224, 54096.00
1073.326, 53887.00
1074.427, 54028.00
1075.528, 54080.00
1076.629, 53843.00
1077.730, 53713.00
1078.831, 53703.00
1079.931, 53571.00
1081.032, 53300.00
1082.132, 53415.00
1083.232, 53512.00
1084.332, 53294.00
1085.432, 53480.00
1086.531, 53248.00
1087.631, 53385.00
1088.730, 53201.00
1089.829, 53351.00
1090.928, 53204.00
1092.027, 53085.00
1093.126, 52977.00
1094.224, 53012.00
1095.323, 52928.88
1096.421, 52881.83
1097.519, 52858.00
1098.617, 52825.00
1099.715, 52737.00
1100.812, 52812.88
1101.910, 52349.00
1103.007, 52653.00
1104.104, 52735.00
1105.201, 52340.00
1106.298, 52552.00
1107.394, 52435.00
1108.491, 52528.00
1109.587, 52497.00
1110.683, 52599.00
1111.779, 52685.00
1112.875, 52438.00
1113.971, 52514.00
1115.066, 52529.00
1116.162, 52545.00
1117.257, 52394.00
1118.352, 52611.00
1119.447, 52475.00
1120.542, 52544.00
1121.636, 52369.00
1122.731, 52725.00
1123.825, 52591.00
1124.919, 52678.00
1126.013, 52380.00
1127.107, 52315.00
1128.200, 52182.00
1129.294, 52173.00
1130.387, 52153.95
1131.480, 52292.00
1132.573, 52121.00
1133.666, 52160.00
1134.759, 51995.00
1135.851, 52030.04
1136.944, 51934.00
1138.036, 52065.00
1139.128, 51982.28
1140.220, 52025.39
1141.312, 51951.00
1142.403, 52092.00
1143.495, 52199.00
1144.586, 52259.00
1145.677, 52211.68
1146.768, 52129.00
1147.859, 52019.00
1148.950, 51861.00
1150.040, 51756.00
1151.130, 52239.00
1152.221, 51842.00
1153.311, 52049.00
1154.401, 51933.00
1155.490, 51930.00
1156.580, 51966.00
1157.669, 51981.00
1158.759, 52020.00
1159.848, 51890.00
1160.937, 51868.00
1162.025, 51849.00
1163.114, 51857.99
1164.202, 52080.00
1165.291, 51936.00
1166.379, 52025.00
1167.467, 52020.00
1168.555, 51970.00
1169.642, 51748.00
1170.730, 51858.00
1171.817, 51875.00
1172.905, 52062.00
1173.992, 51806.00
1175.078, 51862.00
1176.165, 52284.00
1177.252, 51984.00
1178.338, 51698.00
1179.425, 52130.00
1180.511, 51904.00
1181.597, 52043.00
1182.682, 52174.00
1183.768, 52259.00
1184.854, 52058.00
1185.939, 52083.00
1187.024, 52001.00
1188.109, 52018.00
1189.194, 51985.00
1190.279, 51865.00
1191.363, 52118.00
1192.448, 52174.00
1193.532, 52072.00
1194.616, 52098.00
1195.700, 52073.47
1196.784, 51940.00
1197.867, 52042.00
1198.951, 51897.00
1200.034, 51889.00
1201.117, 51956.00
1202.200, 52001.00
1203.283, 52011.81
1204.366, 51927.00
1205.448, 52078.00
1206.531, 52102.00
1207.613, 52189.00
1208.695, 52009.00
1209.777, 51945.00
1210.859, 51845.00
1211.940, 51922.00
1213.022, 51829.00
1214.103, 52143.00
1215.184, 51875.00
1216.265, 52176.00
1217.346, 52172.00
1218.427, 52057.00
1219.507, 51990.00
1220.587, 52040.00
1221.668, 52255.00
1222.748, 52155.00
1223.828, 52195.00
1224.907, 52221.00
1225.987, 52238.00
1227.066, 51917.00
1228.146, 52077.00
1229.225, 51853.00
1230.304, 52127.00
1231.382, 52430.00
1232.461, 52284.00
1233.540, 51867.00
1234.618, 52092.00
1235.696, 52079.00
1236.774, 52459.00
1237.852, 52403.00
1238.930, 51909.00
1240.007, 52093.00
1241.085, 52103.00
1242.162, 51932.00
1243.239, 52323.00
1244.316, 52392.00
1245.393, 52022.00
1246.469, 52195.00
1247.546, 52288.00
1248.622, 52099.00
1249.698, 52291.00
1250.774, 52256.00
1251.850, 52082.00
1252.926, 52250.03
1254.001, 52210.90
1255.077, 52365.00
1256.152, 52251.00
1257.227, 52254.00
1258.302, 52106.00
1259.377, 52146.00
1260.451, 52124.00
1261.526, 52174.00
1262.600, 52223.32
1263.674, 52316.00
1264.748, 52354.00
1265.822, 52459.00
1266.896, 52532.00
1267.969, 52622.00
1269.043, 52551.83
1270.116, 52442.00
1271.189, 52398.00
1272.262, 52466.00
1273.335, 52470.00
1274.407, 52539.00
1275.480, 52494.31
1276.552, 52510.14
1277.624, 52440.00
1278.696, 52456.00
1279.768, 52524.00
1280.840, 52436.00
1281.911, 52461.00
1282.982, 52402.00
1284.054, 52510.00
1285.125, 52626.00
1286.196, 52609.00
1287.266, 52629.00
1288.337, 52383.00
1289.407, 52800.00
1290.478, 52399.00
1291.548, 52581.00
1292.618, 52631.00
1293.688, 52510.00
1294.757, 52474.00
1295.827, 52693.00
1296.896, 52665.00
1297.965, 52760.00
1299.034, 52603.00
1300.103, 52549.00
1301.172, 52552.00
1302.241, 52735.00
1303.309, 52712.00
1304.377, 52681.00
1305.445, 52563.00
1306.513, 52477.00
1307.581, 52855.00
1308.649, 52772.00
1309.716, 52698.00
1310.784, 52896.00
1311.851, 52643.00
1312.918, 52926.00
1313.985, 52627.00
1315.052, 52626.00
1316.118, 53017.00
1317.185, 52476.00
1318.251, 52600.00
1319.317, 52783.00
1320.383, 52513.00
1321.449, 52881.00
1322.514, 52694.00
1323.580, 52709.00
1324.645, 52707.00
1325.711, 52784.00
1326.776, 52572.00
1327.840, 53392.29
1328.905, 53000.79
1329.970, 53092.69
1331.034, 52702.00
1332.099, 52914.00
1333.163, 52704.00
1334.227, 52671.00
1335.290, 52590.00
1336.354, 52838.00
1337.418, 52653.00
1338.481, 52654.00
1339.544, 52706.00
1340.607, 52467.00
1341.670, 52738.00
1342.733, 52600.00
1343.795, 52873.00
1344.858, 52746.00
1345.920, 52612.00
1346.982, 52933.00
1348.044, 52775.22
1349.106, 52862.00
1350.168, 52888.00
1351.229, 52771.00
1352.291, 53036.00
1353.352, 52719.00
1354.413, 52703.00
1355.474, 52823.00
1356.534, 52758.00
1357.595, 52821.00
1358.656, 52838.00
1359.716, 53108.00
1360.776, 52873.00
1361.836, 52679.00
1362.896, 52878.00
1363.955, 52516.00
1365.015, 52885.00
1366.074, 52686.00
1367.134, 52838.00
1368.193, 53136.00
1369.252, 53136.00
1370.310, 53376.00
1371.369, 52729.00
1372.427, 52891.00
1373.486, 52847.00
1374.544, 52962.00
1375.602, 52858.00
1376.660, 52708.00
1377.717, 52596.00
1378.775, 52639.25
1379.832, 52852.00
1380.889, 52821.00
1381.946, 52799.00
1383.003, 52987.00
1384.060, 52893.00
1385.117, 53009.00
1386.173, 52905.00
1387.230, 53011.00
1388.286, 52942.00
1389.342, 53052.00
1390.398, 52980.00
1391.453, 53181.00
1392.509, 53270.00
1393.564, 53164.00
1394.619, 52992.00
1395.675, 53068.00
1396.729, 53233.00
1397.784, 52964.00
1398.839, 53200.00
1399.893, 53131.00
1400.948, 53069.00
1402.002, 53014.00
1403.056, 52973.34
1404.110, 53040.79
1405.163, 52967.00
1406.217, 53081.00
1407.270, 53218.00
1408.324, 52940.00
1409.377, 53058.00
1410.430, 53196.00
1411.483, 53177.00
1412.535, 53216.30
1413.588, 53203.50
1414.640, 53169.00
1415.692, 53175.00
1416.744, 53158.00
1417.796, 53268.00
1418.848, 53300.00
1419.900, 53396.00
1420.951, 53402.00
1422.002, 53339.00
1423.053, 53431.00
1424.104, 53364.00
1425.155, 53430.00
1426.206, 53359.00
1427.256, 53186.00
1428.307, 53209.00
1429.357, 53305.00
1430.407, 53587.00
1431.457, 53327.00
1432.507, 52999.00
1433.556, 53343.00
1434.606, 53204.00
1435.655, 53462.00
1436.704, 53348.00
1437.753, 53658.00
1438.802, 53449.00
1439.851, 53915.00
1440.899, 53395.00
1441.948, 53343.00
1442.996, 53215.00
1444.044, 53289.00
1445.092, 53527.00
1446.140, 53451.00
1447.187, 53248.00
1448.235, 53507.00
1449.282, 53455.00
1450.329, 53292.00
1451.376, 53543.00
1452.423, 53661.00
1453.470, 53144.00
1454.517, 53475.00
1455.563, 53413.00
1456.609, 53303.71
1457.655, 53499.00
1458.701, 53328.00
1459.747, 53395.00
1460.793, 53586.00
1461.838, 53560.00
1462.884, 53622.50
1463.929, 53361.00
1464.974, 53633.00
1466.019, 53409.00
1467.064, 53386.00
1468.108, 53743.00
1469.153, 53294.00
1470.197, 53050.00
1471.241, 53257.00
1472.285, 53492.00
1473.329, 53452.00
1474.373, 53365.00
1475.416, 53593.00
1476.460, 53642.00
1477.503, 53214.00
1478.546, 53275.00
1479.589, 53477.00
1480.632, 53625.00
1481.674, 53489.00
1482.717, 53396.00
1483.759, 53485.00
1484.801, 53357.00
1485.843, 53375.00
1486.885, 53313.00
1487.927, 53543.00
1488.968, 53505.00
1490.010, 53370.00
1491.051, 53653.00
1492.092, 53301.00
1493.133, 53295.00
1494.174, 53659.00
1495.215, 53331.00
1496.255, 53439.00
1497.296, 53410.00
1498.336, 53337.00
1499.376, 53670.00
1500.416, 53595.00
1501.456, 53645.00
1502.495, 53304.00
1503.535, 53480.55
1504.574, 53848.00
1505.613, 53596.00
1506.652, 53658.00
1507.691, 53577.00
1508.730, 53479.00
1509.768, 53613.00
1510.807, 53587.00
1511.845, 53650.00
1512.883, 53685.00
1513.921, 53667.00
1514.959, 53587.00
1515.996, 53846.00
1517.034, 53633.00
1518.071, 53823.00
1519.109, 53426.00
1520.146, 53862.00
1521.183, 53804.00
1522.219, 53481.00
1523.256, 53673.00
1524.292, 53655.00
1525.329, 53620.00
1526.365, 53703.00
1527.401, 53795.00
1528.437, 53740.88
1529.472, 53911.46
1530.508, 54008.69
1531.543, 54036.51
1532.579, 53787.05
1533.614, 53895.64
1534.649, 53860.74
1535.683, 53819.95
1536.718, 53978.95
1537.753, 53769.81
1538.787, 53925.63
1539.821, 53935.77
1540.855, 54012.57
1541.889, 53945.00
1542.923, 53922.03
1543.956, 54043.48
1544.990, 54084.96
1546.023, 54000.77
1547.056, 54081.81
1548.089, 53867.63
1549.122, 53912.51
1550.155, 54069.18
1551.187, 53992.24
1552.220, 54075.93
1553.252, 54098.43
1554.284, 53842.94
1555.316, 54070.92
1556.348, 54089.82
1557.379, 53894.02
1558.411, 54105.44
1559.442, 53939.24
1560.474, 53907.83
1561.505, 53977.85
1562.535, 53942.12
1563.566, 54073.12
1564.597, 54043.50
1565.627, 53999.54
1566.658, 54018.20
1567.688, 53859.40
1568.718, 54029.81
1569.748, 53975.34
1570.777, 54378.00
##END=



