##NAMES=Annite
##RRUFFID=R060211
##IDEAL CHEMISTRY=KFe^2+^_3_AlSi_3_O_10_(OH)_2_
##LOCALITY=Mont Saint-Hilaire, Rouville County, Quebec, Canada
##OWNER=RRUFF
##SOURCE=Royal Ontario Museum
##DESCRIPTION=Black mica
##STATUS=The identification of this mineral has been confirmed by X-ray diffraction and chemical analysis
##URL=rruff.info/R060211
##MEASURED CHEMISTRY=(K_0.94_[box]_0.03_Na_0.02_)_Σ=1_(Fe^2+^_2.07_Mg_0.57_Mn_0.33_Ti_0.03_)_Σ=3_(Si_2.98_Al_1.02_)O_10_((OH)_1.72_F_0.28_)_Σ=2_
##PIN_ID=L01834
##ORIENTATION=Laser parallel to b* (0 1 0). Fiducial mark perpendicular to laser is parallel to c [0 0 1]
230.8490, 39938.00
232.0700, 39711.00
233.2910, 40039.00
234.5120, 39962.00
235.7320, 39583.00
236.9530, 39711.00
238.1730, 39563.82
239.3930, 39693.00
240.6130, 39395.00
241.8320, 39361.00
243.0520, 39047.00
244.2710, 39049.00
245.4900, 39323.00
246.7090, 39310.00
247.9280, 39447.00
249.1470, 39403.00
250.3650, 39346.00
251.5840, 39339.00
252.8020, 39467.00
254.0200, 39234.79
255.2370, 39508.18
256.4550, 39691.54
257.6720, 39789.59
258.8900, 39547.09
260.1070, 39744.35
261.3240, 39765.35
262.5400, 39779.07
263.7570, 40038.24
264.9730, 39845.17
266.1900, 40100.45
267.4060, 40176.72
268.6220, 39998.00
269.8370, 40011.00
271.0530, 39811.00
272.2680, 39984.00
273.4830, 39998.00
274.6980, 39930.00
275.9130, 40066.00
277.1280, 39969.00
278.3420, 39593.00
279.5570, 39579.00
280.7710, 39324.00
281.9850, 39243.00
283.1990, 38918.00
284.4120, 39042.00
285.6260, 38918.00
286.8390, 38829.00
288.0520, 38862.00
289.2650, 38703.00
290.4780, 38761.00
291.6910, 38264.00
292.9030, 38390.00
294.1160, 38428.00
295.3280, 37879.00
296.5400, 38123.00
297.7510, 38110.00
298.9630, 38186.00
300.1740, 38000.00
301.3860, 38001.00
302.5970, 37880.00
303.8080, 37953.00
305.0180, 37935.00
306.2290, 37792.00
307.4390, 37618.00
308.6500, 37693.00
309.8600, 38009.00
311.0700, 38253.00
312.2790, 37928.00
313.4890, 37972.00
314.6980, 38043.00
315.9080, 37988.00
317.1170, 38037.00
318.3250, 38057.04
319.5340, 38276.00
320.7430, 38100.00
321.9510, 38115.00
323.1590, 38116.00
324.3670, 38088.60
325.5750, 38161.22
326.7830, 38142.00
327.9900, 38344.31
329.1980, 38390.02
330.4050, 38587.00
331.6120, 38491.00
332.8190, 38338.00
334.0250, 38643.00
335.2320, 38499.00
336.4380, 39053.00
337.6440, 38891.64
338.8500, 39007.36
340.0560, 38749.00
341.2620, 39104.00
342.4670, 38997.00
343.6730, 39120.00
344.8780, 39210.00
346.0830, 39094.00
347.2870, 39061.00
348.4920, 39164.00
349.6970, 38969.00
350.9010, 39140.00
352.1050, 39148.00
353.3090, 38870.00
354.5130, 39181.00
355.7160, 39114.00
356.9200, 38955.00
358.1230, 39011.00
359.3260, 38835.00
360.5290, 38720.00
361.7320, 38644.00
362.9340, 38722.00
364.1370, 38717.00
365.3390, 38709.00
366.5410, 38740.00
367.7430, 38737.00
368.9450, 38766.00
370.1460, 38776.40
371.3480, 38776.47
372.5490, 38789.00
373.7500, 38787.00
374.9510, 38765.00
376.1520, 38790.00
377.3520, 38719.00
378.5520, 38865.00
379.7530, 38726.00
380.9530, 38904.00
382.1530, 39091.00
383.3520, 39006.00
384.5520, 39022.00
385.7510, 39133.00
386.9500, 38962.00
388.1490, 38799.00
389.3480, 38974.00
390.5470, 39223.00
391.7450, 39120.00
392.9440, 39163.00
394.1420, 39175.00
395.3400, 39278.00
396.5380, 38931.00
397.7350, 39123.00
398.9330, 39002.00
400.1300, 38822.00
401.3270, 38922.00
402.5240, 38620.00
403.7210, 38907.00
404.9180, 38882.00
406.1140, 38964.00
407.3110, 38624.00
408.5070, 38543.00
409.7030, 38587.00
410.8990, 38649.00
412.0940, 38315.00
413.2900, 38417.00
414.4850, 38151.00
415.6800, 38301.00
416.8750, 38555.00
418.0700, 38273.00
419.2650, 38401.00
420.4590, 38118.00
421.6530, 38140.00
422.8470, 38141.00
424.0410, 38061.00
425.2350, 37987.00
426.4290, 37920.00
427.6220, 37771.00
428.8160, 37769.02
430.0090, 37949.00
431.2020, 37769.00
432.3940, 38043.00
433.5870, 38161.00
434.7790, 38062.00
435.9720, 37732.00
437.1640, 37589.00
438.3560, 37774.00
439.5470, 37823.00
440.7390, 37721.00
441.9300, 37512.00
443.1220, 37557.00
444.3130, 37852.00
445.5040, 38072.00
446.6940, 37851.00
447.8850, 37678.00
449.0750, 37718.00
450.2660, 37999.00
451.4560, 38031.00
452.6460, 37810.00
453.8350, 37914.00
455.0250, 37646.00
456.2140, 37942.00
457.4040, 38051.00
458.5930, 38230.00
459.7820, 38387.50
460.9700, 38557.00
462.1590, 38626.00
463.3470, 38598.00
464.5350, 38670.00
465.7240, 38744.00
466.9110, 38773.03
468.0990, 39080.00
469.2870, 39020.00
470.4740, 39086.00
471.6610, 39492.00
472.8480, 39376.00
474.0350, 39924.00
475.2220, 39679.00
476.4090, 39961.00
477.5950, 40078.00
478.7810, 40081.00
479.9670, 40016.00
481.1530, 40554.00
482.3390, 40507.12
483.5240, 40878.00
484.7100, 40912.00
485.8950, 40964.00
487.0800, 41357.00
488.2650, 41710.00
489.4490, 41548.00
490.6340, 41751.00
491.8180, 41585.00
493.0030, 41935.00
494.1870, 41955.00
495.3700, 42142.00
496.5540, 41957.00
497.7380, 42320.00
498.9210, 42474.00
500.1040, 42331.00
501.2870, 42645.00
502.4700, 42779.00
503.6530, 42991.00
504.8350, 43025.00
506.0180, 42867.00
507.2000, 42616.00
508.3820, 42995.00
509.5640, 42950.00
510.7450, 43421.00
511.9270, 43517.00
513.1080, 43766.00
514.2890, 43567.00
515.4700, 43556.00
516.6510, 43783.00
517.8320, 43575.00
519.0130, 43481.00
520.1930, 44256.00
521.3730, 44218.57
522.5530, 44394.56
523.7330, 44726.00
524.9130, 44665.00
526.0920, 44562.00
527.2710, 44878.00
528.4510, 44502.00
529.6300, 44916.00
530.8080, 44892.00
531.9870, 44863.00
533.1660, 45067.00
534.3440, 45250.00
535.5220, 45244.29
536.7000, 45506.00
537.8780, 45279.00
539.0560, 45360.00
540.2330, 45294.00
541.4110, 44840.00
542.5880, 45070.00
543.7650, 45144.00
544.9420, 44694.00
546.1180, 44269.00
547.2950, 44128.00
548.4710, 43611.00
549.6470, 43643.00
550.8230, 43822.00
551.9990, 43354.00
553.1750, 43152.00
554.3500, 43168.00
555.5260, 42655.00
556.7010, 42725.00
557.8760, 42596.00
559.0510, 42357.00
560.2250, 41909.00
561.4000, 41669.00
562.5740, 41619.00
563.7480, 41671.00
564.9220, 41071.00
566.0960, 41360.00
567.2700, 40963.00
568.4430, 40956.00
569.6170, 40747.00
570.7900, 40621.00
571.9630, 40568.64
573.1360, 40545.00
574.3080, 40412.00
575.4810, 40232.00
576.6530, 40105.00
577.8250, 40106.00
578.9980, 40335.00
580.1690, 40068.00
581.3410, 39924.00
582.5130, 39740.00
583.6840, 39636.94
584.8550, 39552.00
586.0260, 39519.00
587.1970, 39543.86
588.3680, 39547.45
589.5380, 39653.00
590.7080, 39630.00
591.8790, 39564.00
593.0490, 39714.00
594.2190, 39801.00
595.3880, 39786.00
596.5580, 39585.00
597.7270, 39702.00
598.8960, 39861.00
600.0650, 39762.00
601.2340, 40187.00
602.4030, 39749.00
603.5710, 40105.00
604.7400, 39821.00
605.9080, 40323.00
607.0760, 40253.00
608.2440, 40011.00
609.4120, 40603.00
610.5790, 40109.00
611.7460, 40674.00
612.9140, 40417.00
614.0810, 40534.00
615.2480, 40761.00
616.4140, 40499.00
617.5810, 40743.00
618.7470, 40682.00
619.9130, 40712.00
621.0790, 40808.00
622.2450, 40774.00
623.4110, 41002.00
624.5770, 41013.00
625.7420, 40871.00
626.9070, 40976.00
628.0720, 40870.00
629.2370, 41022.00
630.4020, 41105.00
631.5660, 41348.00
632.7310, 41216.00
633.8950, 41133.00
635.0590, 41469.00
636.2230, 41476.46
637.3870, 41880.00
638.5500, 41831.00
639.7140, 42052.00
640.8770, 42176.00
642.0400, 42358.77
643.2030, 42432.98
644.3660, 42864.00
645.5280, 42745.00
646.6910, 43056.00
647.8530, 43656.00
649.0150, 43789.00
650.1770, 44079.00
651.3390, 44232.00
652.5000, 44906.00
653.6620, 45430.00
654.8230, 45668.00
655.9840, 46341.00
657.1450, 46690.00
658.3060, 47680.00
659.4660, 48178.00
660.6270, 48856.00
661.7870, 50132.00
662.9470, 49822.00
664.1070, 50597.00
665.2670, 50480.00
666.4260, 50950.00
667.5860, 51038.00
668.7450, 50970.00
669.9040, 50952.00
671.0630, 50654.90
672.2220, 50222.00
673.3800, 49846.00
674.5390, 49245.00
675.6970, 48628.00
676.8550, 48084.00
678.0130, 47565.23
679.1710, 46986.00
680.3290, 46627.00
681.4860, 46233.00
682.6430, 45838.00
683.8000, 45861.00
684.9570, 45243.00
686.1140, 45429.00
687.2710, 45084.49
688.4270, 45148.00
689.5840, 44742.00
690.7400, 44583.00
691.8960, 44652.00
693.0520, 44386.00
694.2070, 44544.00
695.3630, 44680.00
696.5180, 44792.00
697.6730, 44468.00
698.8280, 44748.00
699.9830, 44776.00
701.1380, 44736.00
702.2920, 44936.00
703.4470, 45104.00
704.6010, 44947.00
705.7550, 44994.00
706.9090, 45253.00
708.0620, 45055.00
709.2160, 45250.00
710.3690, 45195.00
711.5220, 45508.00
712.6750, 45484.00
713.8280, 45690.00
714.9810, 45572.00
716.1340, 45531.00
717.2860, 45342.00
718.4380, 45352.00
719.5900, 45339.00
720.7420, 45167.00
721.8940, 45079.00
723.0450, 45174.00
724.1970, 44856.00
725.3480, 44935.00
726.4990, 45069.00
727.6500, 45123.00
728.8010, 44702.00
729.9510, 44858.00
731.1020, 44723.30
732.2520, 44665.95
733.4020, 44675.00
734.5520, 44636.00
735.7020, 44694.00
736.8510, 44618.00
738.0010, 44856.00
739.1500, 44634.00
740.2990, 44874.00
741.4480, 45025.00
742.5970, 45485.00
743.7450, 44993.00
744.8940, 45255.00
746.0420, 45424.00
747.1900, 45469.00
748.3380, 45591.00
749.4860, 45619.00
750.6330, 45741.00
751.7810, 45852.00
752.9280, 46003.17
754.0750, 46265.00
755.2220, 46408.00
756.3690, 46552.00
757.5160, 46838.00
758.6620, 46778.00
759.8090, 46766.00
760.9550, 46990.00
762.1010, 47082.00
763.2470, 46982.00
764.3920, 47384.00
765.5380, 47300.00
766.6830, 47315.00
767.8280, 47336.00
768.9730, 47441.00
770.1180, 47191.00
771.2630, 47356.00
772.4070, 47100.00
773.5520, 46961.00
774.6960, 47075.00
775.8400, 46739.00
776.9840, 46598.00
778.1280, 46526.00
779.2710, 46380.00
780.4140, 46198.40
781.5580, 45924.00
782.7010, 45727.00
783.8440, 45294.00
784.9860, 44885.00
786.1290, 44614.30
787.2710, 44439.00
788.4140, 43988.00
789.5560, 43694.00
790.6980, 43412.00
791.8390, 43777.00
792.9810, 43449.00
794.1220, 42875.00
795.2640, 43221.00
796.4050, 42418.00
797.5460, 42408.00
798.6860, 41843.00
799.8270, 41903.00
800.9680, 41747.00
802.1080, 41498.00
803.2480, 41334.00
804.3880, 41232.00
805.5280, 41352.00
806.6670, 41164.79
807.8070, 41352.00
808.9460, 40965.00
810.0850, 40896.00
811.2240, 40778.00
812.3630, 40748.00
813.5020, 40935.00
814.6400, 40460.00
815.7790, 40659.00
816.9170, 40820.00
818.0550, 40632.00
819.1930, 40480.00
820.3300, 40653.34
821.4680, 41094.00
822.6050, 40790.00
823.7430, 40896.00
824.8800, 40759.00
826.0170, 41103.00
827.1530, 41110.00
828.2900, 40756.00
829.4260, 41133.00
830.5620, 41106.00
831.6990, 40808.00
832.8340, 41175.00
833.9700, 41231.00
835.1060, 41378.00
836.2410, 41393.81
837.3760, 41442.00
838.5120, 41251.00
839.6470, 41138.00
840.7810, 41010.00
841.9160, 41252.00
843.0500, 41306.00
844.1850, 41395.07
845.3190, 41351.85
846.4530, 41650.00
847.5870, 41389.00
848.7200, 41501.00
849.8540, 42068.00
850.9870, 41526.00
852.1200, 41193.00
853.2530, 41685.00
854.3860, 41629.00
855.5190, 41797.00
856.6510, 41795.00
857.7840, 41806.00
858.9160, 41917.83
860.0480, 42161.00
861.1800, 42077.00
862.3110, 42186.00
863.4430, 42290.71
864.5740, 42635.00
865.7060, 42670.00
866.8370, 42507.00
867.9680, 42687.00
869.0980, 43112.00
870.2290, 42796.00
871.3590, 42972.00
872.4900, 42912.00
873.6200, 42941.00
874.7500, 43021.31
875.8790, 43076.00
877.0090, 43086.00
878.1380, 43119.00
879.2680, 43064.00
880.3970, 43108.00
881.5260, 43359.00
882.6550, 43326.25
883.7830, 43628.00
884.9120, 43479.00
886.0400, 43512.00
887.1680, 43625.00
888.2960, 43478.00
889.4240, 43373.00
890.5520, 43544.00
891.6790, 43429.00
892.8070, 43490.00
893.9340, 43296.00
895.0610, 43405.00
896.1880, 43496.00
897.3140, 43553.00
898.4410, 43705.00
899.5670, 43718.00
900.6940, 43921.00
901.8200, 43677.00
902.9450, 43787.00
904.0710, 43889.00
905.1970, 43699.00
906.3220, 43731.00
907.4470, 43997.00
908.5730, 43997.00
909.6980, 43939.00
910.8220, 44218.00
911.9470, 44350.00
913.0710, 44028.00
914.1960, 44345.00
915.3200, 44449.00
916.4440, 44620.00
917.5680, 44382.00
918.6910, 44625.00
919.8150, 44579.00
920.9380, 44118.00
922.0610, 44512.00
923.1840, 44718.00
924.3070, 44551.00
925.4300, 44751.00
926.5520, 44886.00
927.6750, 44807.00
928.7970, 45053.00
929.9190, 44973.00
931.0410, 45259.00
932.1630, 45260.00
933.2840, 45179.36
934.4060, 45294.32
935.5270, 44998.00
936.6480, 45289.00
937.7690, 45317.00
938.8900, 45287.00
940.0100, 45505.78
941.1310, 45646.00
942.2510, 45781.00
943.3710, 45514.00
944.4910, 45634.00
945.6110, 45355.00
946.7310, 45444.00
947.8500, 45282.00
948.9690, 45212.00
950.0890, 45246.00
951.2080, 45221.64
952.3260, 45143.00
953.4450, 45171.00
954.5640, 45203.00
955.6820, 44851.00
956.8000, 45262.00
957.9180, 44832.00
959.0360, 44643.00
960.1540, 44727.00
961.2710, 44548.00
962.3890, 44555.00
963.5060, 44746.00
964.6230, 44507.00
965.7400, 44726.00
966.8570, 45155.00
967.9730, 44710.00
969.0900, 44861.00
970.2060, 44938.00
971.3220, 44649.00
972.4380, 44684.00
973.5540, 44445.00
974.6700, 44262.00
975.7850, 44406.00
976.9010, 44708.00
978.0160, 44642.00
979.1310, 44727.00
980.2460, 44544.00
981.3600, 44496.00
982.4750, 44655.00
983.5890, 44470.00
984.7030, 44633.00
985.8170, 44539.00
986.9310, 44604.00
988.0450, 44712.00
989.1590, 44465.00
990.2720, 44730.00
991.3850, 44772.00
992.4980, 44877.00
993.6110, 44678.00
994.7240, 44928.00
995.8370, 45155.00
996.9490, 44805.00
998.0620, 45121.00
999.1740, 45233.00
1000.286, 45000.00
1001.398, 45120.00
1002.509, 45343.00
1003.621, 45637.00
1004.732, 45810.00
1005.843, 45990.00
1006.954, 46255.00
1008.065, 46246.00
1009.176, 47042.00
1010.286, 46459.00
1011.397, 46600.00
1012.507, 46079.00
1013.617, 46450.00
1014.727, 46421.00
1015.837, 46545.00
1016.946, 46449.00
1018.056, 46617.00
1019.165, 46461.00
1020.274, 46596.00
1021.383, 46950.00
1022.492, 46508.00
1023.601, 46740.00
1024.709, 46557.00
1025.817, 46492.00
1026.926, 46254.00
1028.034, 46183.00
1029.141, 46371.00
1030.249, 46141.00
1031.357, 46327.00
1032.464, 46369.00
1033.571, 46047.00
1034.678, 46306.00
1035.785, 46520.00
1036.892, 45991.00
1037.999, 46492.00
1039.105, 46615.00
1040.211, 46120.00
1041.317, 45761.00
1042.423, 45991.00
1043.529, 46026.00
1044.635, 45896.83
1045.740, 46096.00
1046.845, 45790.00
1047.951, 46109.00
1049.056, 46074.00
1050.160, 46206.00
1051.265, 46179.00
1052.370, 46111.00
1053.474, 46003.00
1054.578, 46086.00
1055.682, 46123.00
1056.786, 45865.00
1057.890, 46076.00
1058.993, 45938.00
1060.097, 45797.00
1061.200, 46432.00
1062.303, 45901.00
1063.406, 46385.00
1064.509, 46096.00
1065.612, 46238.00
1066.714, 45984.00
1067.816, 46029.00
1068.919, 45996.00
1070.021, 46123.00
1071.122, 45784.00
1072.224, 45801.00
1073.326, 45659.00
1074.427, 46046.00
1075.528, 45431.00
1076.629, 45623.00
1077.730, 45684.00
1078.831, 45357.00
1079.931, 45161.00
1081.032, 45512.00
1082.132, 45142.00
1083.232, 45292.00
1084.332, 45153.00
1085.432, 45105.00
1086.531, 45148.00
1087.631, 45081.55
1088.730, 45190.00
1089.829, 44867.35
1090.928, 45020.52
1092.027, 45083.60
1093.126, 45061.41
1094.224, 44698.68
1095.323, 44775.71
1096.421, 44676.53
1097.519, 44570.12
1098.617, 44709.11
1099.715, 44395.91
1100.812, 44531.04
1101.910, 44487.18
1103.007, 44795.00
1104.104, 44490.00
1105.201, 44312.00
1106.298, 44413.00
1107.394, 44458.00
1108.491, 44383.00
1109.587, 44181.00
1110.683, 44326.00
1111.779, 44485.00
1112.875, 44688.00
1113.971, 44501.00
1115.066, 44835.00
1116.162, 44452.00
1117.257, 44396.00
1118.352, 44328.00
1119.447, 44527.00
1120.542, 44220.00
1121.636, 44325.00
1122.731, 44314.00
1123.825, 44529.00
1124.919, 44491.00
1126.013, 44477.00
1127.107, 44526.00
1128.200, 44396.00
1129.294, 44435.00
1130.387, 44236.00
1131.480, 44213.00
1132.573, 44173.00
1133.666, 44340.00
1134.759, 44458.00
1135.851, 44107.00
1136.944, 44467.00
1138.036, 44258.00
1139.128, 44418.00
1140.220, 44060.00
1141.312, 44369.00
1142.403, 44354.00
1143.495, 44238.00
1144.586, 44421.00
1145.677, 44405.00
1146.768, 44094.00
1147.859, 44009.00
1148.950, 44096.00
1150.040, 44334.00
1151.130, 44446.00
1152.221, 44481.00
1153.311, 44462.00
1154.401, 44403.00
1155.490, 44598.00
1156.580, 44370.00
1157.669, 44179.00
1158.759, 44517.00
1159.848, 43956.00
1160.937, 44340.00
1162.025, 44644.00
1163.114, 44303.00
1164.202, 43917.00
1165.291, 44710.00
1166.379, 44599.00
1167.467, 44902.00
1168.555, 44537.00
1169.642, 44247.00
1170.730, 44348.00
1171.817, 44470.00
1172.905, 44459.00
1173.992, 44593.00
1175.078, 44437.00
1176.165, 44409.00
1177.252, 44471.00
1178.338, 44601.00
1179.425, 44493.00
1180.511, 44712.00
1181.597, 44602.00
1182.682, 44712.00
1183.768, 44437.00
1184.854, 44600.00
1185.939, 44782.00
1187.024, 44402.00
1188.109, 44734.00
1189.194, 44551.00
1190.279, 44504.00
1191.363, 44814.00
1192.448, 44529.00
1193.532, 44638.00
1194.616, 44629.00
1195.700, 44676.00
1196.784, 44831.00
1197.867, 44763.00
1198.951, 44422.00
1200.034, 44646.00
1201.117, 44514.00
1202.200, 44608.00
1203.283, 44816.00
1204.366, 44943.00
1205.448, 44676.00
1206.531, 44761.00
1207.613, 44917.00
1208.695, 44788.00
1209.777, 45081.00
1210.859, 44955.00
1211.940, 44740.00
1213.022, 44919.00
1214.103, 44872.00
1215.184, 44841.00
1216.265, 45071.00
1217.346, 44868.00
1218.427, 45031.00
1219.507, 45091.00
1220.587, 45114.26
1221.668, 45334.09
1222.748, 45369.00
1223.828, 45747.00
1224.907, 46061.00
1225.987, 46339.00
1227.066, 45747.00
1228.146, 45460.00
1229.225, 44802.00
1230.304, 44775.00
1231.382, 45169.00
1232.461, 45202.00
1233.540, 45443.00
1234.618, 45645.00
1235.696, 45172.00
1236.774, 45524.00
1237.852, 45043.00
1238.930, 45517.00
1240.007, 45113.00
1241.085, 45158.00
1242.162, 44971.00
1243.239, 45178.00
1244.316, 45472.00
1245.393, 45179.00
1246.469, 45500.00
1247.546, 45558.00
1248.622, 45736.00
1249.698, 45641.00
1250.774, 45426.00
1251.850, 45569.00
1252.926, 45566.00
1254.001, 45238.00
1255.077, 45240.00
1256.152, 45360.00
1257.227, 45374.00
1258.302, 45448.00
1259.377, 45541.93
1260.451, 45677.00
1261.526, 45711.00
1262.600, 45729.00
1263.674, 45780.00
1264.748, 45655.00
1265.822, 45613.00
1266.896, 45612.14
1267.969, 45676.00
1269.043, 45611.00
1270.116, 45705.00
1271.189, 45767.00
1272.262, 45735.00
1273.335, 45913.00
1274.407, 46220.00
1275.480, 46054.00
1276.552, 46095.00
1277.624, 45953.00
1278.696, 46114.00
1279.768, 45926.00
1280.840, 45752.00
1281.911, 45858.00
1282.982, 45856.00
1284.054, 45840.00
1285.125, 46020.00
1286.196, 46029.00
1287.266, 46093.00
1288.337, 46020.00
1289.407, 46100.00
1290.478, 46078.98
1291.548, 46184.00
1292.618, 46115.00
1293.688, 46112.00
1294.757, 46222.00
1295.827, 46086.00
1296.896, 46206.00
1297.965, 46190.00
1299.034, 46527.00
1300.103, 46153.00
1301.172, 46447.00
1302.241, 46616.00
1303.309, 46323.00
1304.377, 46197.00
1305.445, 46396.00
1306.513, 46146.00
1307.581, 46344.00
1308.649, 47437.00
1309.716, 46826.00
1310.784, 46972.53
1311.851, 46448.00
1312.918, 46728.00
1313.985, 46300.00
1315.052, 46952.00
1316.118, 46613.00
1317.185, 46525.00
1318.251, 46439.00
1319.317, 46628.00
1320.383, 46251.00
1321.449, 46486.00
1322.514, 46555.00
1323.580, 46500.00
1324.645, 46715.00
1325.711, 46738.00
1326.776, 46774.00
1327.840, 46891.00
1328.905, 47037.00
1329.970, 46649.00
1331.034, 46926.00
1332.099, 46723.00
1333.163, 46634.00
1334.227, 46659.00
1335.290, 46621.00
1336.354, 46656.41
1337.418, 46848.00
1338.481, 46721.00
1339.544, 46982.00
1340.607, 46950.00
1341.670, 46711.00
1342.733, 47007.00
1343.795, 47053.00
1344.858, 47033.00
1345.920, 47035.00
1346.982, 46991.00
1348.044, 47095.00
1349.106, 47099.23
1350.168, 46956.00
1351.229, 47137.00
1352.291, 47169.00
1353.352, 47054.00
1354.413, 47204.20
1355.474, 47123.00
1356.534, 47300.00
1357.595, 47227.00
1358.656, 47207.00
1359.716, 47273.00
1360.776, 47014.00
1361.836, 46971.00
1362.896, 47100.00
1363.955, 47109.00
1365.015, 47299.00
1366.074, 47401.00
1367.134, 47462.00
1368.193, 47518.00
1369.252, 47517.91
1370.310, 47482.00
1371.369, 47493.00
1372.427, 47374.00
1373.486, 47400.00
1374.544, 47382.00
1375.602, 47514.00
1376.660, 47339.00
1377.717, 47376.00
1378.775, 47281.00
1379.832, 47359.00
1380.889, 47374.00
1381.946, 47545.00
1383.003, 47533.00
1384.060, 47806.00
1385.117, 47606.00
1386.173, 47695.00
1387.230, 47389.00
1388.286, 47368.00
1389.342, 47549.00
1390.398, 47196.00
1391.453, 47603.00
1392.509, 47709.00
1393.564, 47731.00
1394.619, 47684.00
1395.675, 48087.00
1396.729, 47832.61
1397.784, 47884.00
1398.839, 47593.00
1399.893, 47666.00
1400.948, 47638.00
1402.002, 47301.00
1403.056, 47843.00
1404.110, 47752.00
1405.163, 47727.00
1406.217, 48003.00
1407.270, 47967.00
1408.324, 47950.00
1409.377, 47977.00
1410.430, 47996.00
1411.483, 47991.92
1412.535, 47946.00
1413.588, 48027.00
1414.640, 47856.00
1415.692, 47918.00
1416.744, 48338.00
1417.796, 47974.00
1418.848, 48373.00
1419.900, 48220.05
1420.951, 47910.00
1422.002, 48037.00
1423.053, 48014.00
1424.104, 47988.00
1425.155, 48360.00
1426.206, 48273.00
1427.256, 47938.00
1428.307, 47822.00
1429.357, 48119.00
1430.407, 47986.00
1431.457, 48117.00
1432.507, 48133.00
1433.556, 48051.00
1434.606, 48329.00
1435.655, 48234.00
1436.704, 48063.00
1437.753, 48260.00
1438.802, 48112.14
1439.851, 48339.00
1440.899, 48020.00
1441.948, 48170.00
1442.996, 48088.00
1444.044, 48058.00
1445.092, 48523.00
1446.140, 48242.00
1447.187, 48338.00
1448.235, 48258.00
1449.282, 48635.00
1450.329, 48402.00
1451.376, 48270.00
1452.423, 48665.00
1453.470, 48172.00
1454.517, 48056.00
1455.563, 48281.00
1456.609, 48501.00
1457.655, 48808.00
1458.701, 48798.18
1459.747, 48455.00
1460.793, 48672.00
1461.838, 48835.00
1462.884, 48552.00
1463.929, 48757.00
1464.974, 48358.00
1466.019, 48762.00
1467.064, 48732.00
1468.108, 48556.00
1469.153, 48465.00
1470.197, 48257.00
1471.241, 48380.28
1472.285, 48471.45
1473.329, 48600.00
1474.373, 48816.00
1475.416, 48823.00
1476.460, 48805.00
1477.503, 48904.00
1478.546, 48842.00
1479.589, 48921.00
1480.632, 48786.00
1481.674, 48770.00
1482.717, 48695.00
1483.759, 48884.00
1484.801, 48831.00
1485.843, 48950.00
1486.885, 49173.00
1487.927, 49016.00
1488.968, 49165.00
1490.010, 49240.00
1491.051, 49315.00
1492.092, 49142.00
1493.133, 49000.00
1494.174, 48737.00
1495.215, 49074.00
1496.255, 48902.00
1497.296, 48968.00
1498.336, 49014.00
1499.376, 49167.00
1500.416, 49319.00
1501.456, 49423.00
1502.495, 49415.00
1503.535, 49566.00
1504.574, 49378.00
1505.613, 49263.00
1506.652, 49451.00
1507.691, 49389.00
1508.730, 49046.00
1509.768, 49447.00
1510.807, 49498.00
1511.845, 49311.00
1512.883, 49482.00
1513.921, 49444.00
1514.959, 49468.91
1515.996, 49554.41
1517.034, 49507.00
1518.071, 49684.00
1519.109, 49588.00
1520.146, 49683.00
1521.183, 49615.00
1522.219, 49642.05
1523.256, 49613.30
1524.292, 49770.00
1525.329, 49596.00
1526.365, 49824.00
1527.401, 49985.00
1528.437, 49858.00
1529.472, 50117.00
1530.508, 50301.00
1531.543, 49951.00
1532.579, 49803.00
1533.614, 49909.00
1534.649, 49722.00
1535.683, 49972.00
1536.718, 50035.00
1537.753, 49947.00
1538.787, 50075.00
1539.821, 49838.00
1540.855, 50170.00
1541.889, 50344.00
1542.923, 50061.00
1543.956, 50452.00
1544.990, 50319.00
1546.023, 50121.00
1547.056, 49500.81
1548.089, 49747.62
1549.122, 49904.33
1550.155, 49975.80
1551.187, 49706.61
1552.220, 49877.28
1553.252, 49871.65
1554.284, 49858.80
1555.316, 50091.34
1556.348, 49871.69
1557.379, 50100.29
1558.411, 50149.98
1559.442, 50281.54
1560.474, 50235.78
1561.505, 50244.76
1562.535, 50431.11
1563.566, 50519.27
1564.597, 50568.00
1565.627, 50783.00
1566.658, 50580.00
1567.688, 51068.00
1568.718, 51014.00
1569.748, 50861.00
1570.777, 51039.00
##END=



