##NAMES=Annite
##RRUFFID=R060204
##IDEAL CHEMISTRY=KFe^2+^_3_AlSi_3_O_10_(OH)_2_
##LOCALITY=Mont Saint-Hilaire, Rouville County, Quebec, Canada
##OWNER=RRUFF
##SOURCE=Royal Ontario Museum
##DESCRIPTION=Black mica with pseudohexagonal outines
##STATUS=The identification of this mineral has been confirmed by X-ray diffraction and chemical analysis
##URL=rruff.info/R060204
##MEASURED CHEMISTRY=(K_0.96_Na_0.04_)_Σ=1_(Fe^2+^_2.04_Mg_0.81_Mn_0.09_Ti_0.03_[box]_0.03_)_Σ=3_(Si_3.00_Al_1.00_)O_10_((OH)_1.54_F_0.46_)_Σ=2_
##PIN_ID=L01689
##ORIENTATION=Laser parallel to (1 0 1). Fiducial mark perpendicular to laser is parallel to b [0 1 0]
230.8490, 19223.00
232.0700, 19535.00
233.2910, 18321.00
234.5120, 18260.00
235.7320, 18311.00
236.9530, 18236.00
238.1730, 18580.00
239.3930, 18651.00
240.6130, 18265.00
241.8320, 18384.64
243.0520, 18082.00
244.2710, 18140.00
245.4900, 18160.00
246.7090, 18102.00
247.9280, 18287.00
249.1470, 17992.00
250.3650, 18146.00
251.5840, 18250.00
252.8020, 18492.00
254.0200, 18368.19
255.2370, 18529.04
256.4550, 18631.78
257.6720, 18679.49
258.8900, 18507.46
260.1070, 18619.19
261.3240, 18617.18
262.5400, 18610.50
263.7570, 18762.16
264.9730, 18622.05
266.1900, 18771.21
267.4060, 18681.00
268.6220, 18628.00
269.8370, 18735.00
271.0530, 18792.00
272.2680, 18825.00
273.4830, 18765.00
274.6980, 18724.00
275.9130, 19107.00
277.1280, 19189.00
278.3420, 19027.00
279.5570, 18800.00
280.7710, 18716.00
281.9850, 18609.39
283.1990, 18599.00
284.4120, 18501.00
285.6260, 18498.00
286.8390, 18474.00
288.0520, 18393.00
289.2650, 18349.00
290.4780, 18353.00
291.6910, 18313.00
292.9030, 18321.53
294.1160, 18322.00
295.3280, 18343.00
296.5400, 18270.00
297.7510, 18282.00
298.9630, 18254.00
300.1740, 18233.00
301.3860, 18035.00
302.5970, 18148.78
303.8080, 18118.71
305.0180, 18303.00
306.2290, 18128.00
307.4390, 18225.00
308.6500, 18050.00
309.8600, 18244.00
311.0700, 18435.00
312.2790, 18283.00
313.4890, 18160.00
314.6980, 18414.00
315.9080, 18099.00
317.1170, 18302.00
318.3250, 18340.00
319.5340, 18431.00
320.7430, 18218.00
321.9510, 18342.00
323.1590, 18239.00
324.3670, 18436.00
325.5750, 18275.00
326.7830, 18235.00
327.9900, 18464.00
329.1980, 18515.00
330.4050, 18449.00
331.6120, 18623.00
332.8190, 18505.00
334.0250, 18546.00
335.2320, 18682.00
336.4380, 18584.00
337.6440, 18631.00
338.8500, 18660.00
340.0560, 18636.00
341.2620, 18814.00
342.4670, 19027.00
343.6730, 18964.85
344.8780, 18963.00
346.0830, 18990.00
347.2870, 18943.00
348.4920, 19059.00
349.6970, 18977.00
350.9010, 18988.31
352.1050, 19029.32
353.3090, 18908.00
354.5130, 19109.00
355.7160, 19005.00
356.9200, 19097.00
358.1230, 19050.00
359.3260, 19052.00
360.5290, 19073.11
361.7320, 19064.94
362.9340, 19074.00
364.1370, 19090.00
365.3390, 19087.00
366.5410, 19092.00
367.7430, 19100.00
368.9450, 19116.53
370.1460, 19039.00
371.3480, 19176.00
372.5490, 19129.00
373.7500, 19187.00
374.9510, 19019.00
376.1520, 18871.00
377.3520, 19022.00
378.5520, 19087.00
379.7530, 19186.00
380.9530, 19159.00
382.1530, 19125.00
383.3520, 19163.00
384.5520, 19111.00
385.7510, 19052.00
386.9500, 19153.00
388.1490, 19123.00
389.3480, 19276.00
390.5470, 19414.00
391.7450, 19333.00
392.9440, 19391.00
394.1420, 19376.00
395.3400, 19314.00
396.5380, 19442.00
397.7350, 19480.00
398.9330, 19622.00
400.1300, 19503.00
401.3270, 19487.00
402.5240, 19552.00
403.7210, 19721.00
404.9180, 19656.00
406.1140, 19610.00
407.3110, 19748.00
408.5070, 19592.00
409.7030, 19589.00
410.8990, 19635.00
412.0940, 19664.00
413.2900, 19593.00
414.4850, 19576.00
415.6800, 19452.00
416.8750, 19287.00
418.0700, 19434.00
419.2650, 19386.00
420.4590, 19197.00
421.6530, 19471.00
422.8470, 19115.00
424.0410, 19250.00
425.2350, 19320.00
426.4290, 19084.00
427.6220, 19159.00
428.8160, 19273.00
430.0090, 19378.00
431.2020, 19450.31
432.3940, 19408.98
433.5870, 19588.86
434.7790, 19473.77
435.9720, 19495.00
437.1640, 19191.00
438.3560, 18962.00
439.5470, 18757.00
440.7390, 19440.00
441.9300, 19024.77
443.1220, 19454.00
444.3130, 18932.00
445.5040, 18606.00
446.6940, 18793.00
447.8850, 18666.00
449.0750, 18756.00
450.2660, 18685.00
451.4560, 18440.00
452.6460, 18629.00
453.8350, 18544.19
455.0250, 18602.89
456.2140, 18602.00
457.4040, 18775.00
458.5930, 18776.00
459.7820, 18857.00
460.9700, 18720.00
462.1590, 18883.00
463.3470, 18745.00
464.5350, 18930.00
465.7240, 18880.00
466.9110, 18841.00
468.0990, 19174.00
469.2870, 19034.00
470.4740, 19066.00
471.6610, 19150.00
472.8480, 19189.00
474.0350, 19216.00
475.2220, 19372.00
476.4090, 19268.00
477.5950, 19377.00
478.7810, 20046.00
479.9670, 19601.00
481.1530, 19671.00
482.3390, 20166.00
483.5240, 19720.00
484.7100, 19618.00
485.8950, 19765.00
487.0800, 19870.00
488.2650, 19907.00
489.4490, 19899.00
490.6340, 19941.00
491.8180, 19939.00
493.0030, 20061.00
494.1870, 20014.45
495.3700, 19935.00
496.5540, 19994.00
497.7380, 20118.00
498.9210, 20166.00
500.1040, 20336.00
501.2870, 20101.00
502.4700, 20251.00
503.6530, 20331.00
504.8350, 20103.00
506.0180, 20283.00
507.2000, 20330.00
508.3820, 20451.00
509.5640, 20398.00
510.7450, 20267.00
511.9270, 20308.00
513.1080, 20375.00
514.2890, 20326.79
515.4700, 20370.16
516.6510, 20317.00
517.8320, 20441.00
519.0130, 20393.00
520.1930, 20548.00
521.3730, 20679.00
522.5530, 20577.00
523.7330, 20820.00
524.9130, 20827.00
526.0920, 20754.00
527.2710, 20723.00
528.4510, 20690.00
529.6300, 20728.00
530.8080, 20904.00
531.9870, 20927.00
533.1660, 20921.00
534.3440, 21024.03
535.5220, 20982.60
536.7000, 21166.00
537.8780, 20960.00
539.0560, 21093.00
540.2330, 21111.00
541.4110, 21332.00
542.5880, 21264.00
543.7650, 21109.00
544.9420, 21250.00
546.1180, 21119.00
547.2950, 21070.00
548.4710, 21059.00
549.6470, 21006.54
550.8230, 20989.68
551.9990, 20954.00
553.1750, 20949.00
554.3500, 20860.00
555.5260, 20833.50
556.7010, 20781.00
557.8760, 20765.00
559.0510, 20672.00
560.2250, 20502.00
561.4000, 20484.00
562.5740, 20717.00
563.7480, 20922.00
564.9220, 20128.00
566.0960, 20356.00
567.2700, 20122.00
568.4430, 20207.00
569.6170, 19972.00
570.7900, 19958.00
571.9630, 20012.00
573.1360, 19874.00
574.3080, 19933.00
575.4810, 19565.00
576.6530, 19766.00
577.8250, 19657.00
578.9980, 19535.00
580.1690, 19625.00
581.3410, 19508.00
582.5130, 19562.00
583.6840, 19395.00
584.8550, 19383.00
586.0260, 19355.00
587.1970, 19313.00
588.3680, 19421.00
589.5380, 19267.00
590.7080, 19475.00
591.8790, 19367.00
593.0490, 19427.00
594.2190, 19475.00
595.3880, 19476.00
596.5580, 19378.00
597.7270, 19277.00
598.8960, 19380.00
600.0650, 19523.00
601.2340, 19350.00
602.4030, 19535.00
603.5710, 19514.00
604.7400, 19579.00
605.9080, 19512.00
607.0760, 19601.00
608.2440, 19599.00
609.4120, 19664.00
610.5790, 19823.00
611.7460, 19822.63
612.9140, 19770.00
614.0810, 19915.00
615.2480, 19924.00
616.4140, 19957.00
617.5810, 19831.00
618.7470, 19909.00
619.9130, 20062.00
621.0790, 20133.00
622.2450, 19984.00
623.4110, 19977.00
624.5770, 20128.00
625.7420, 20021.00
626.9070, 20355.00
628.0720, 20280.73
629.2370, 20257.00
630.4020, 20259.00
631.5660, 20274.00
632.7310, 20187.00
633.8950, 20530.00
635.0590, 20483.00
636.2230, 20660.00
637.3870, 20425.00
638.5500, 20678.00
639.7140, 20674.00
640.8770, 20827.00
642.0400, 20830.00
643.2030, 21052.00
644.3660, 21122.00
645.5280, 21200.00
646.6910, 21224.00
647.8530, 21167.00
649.0150, 21473.00
650.1770, 21430.00
651.3390, 21840.00
652.5000, 21738.00
653.6620, 21935.00
654.8230, 22201.00
655.9840, 22354.00
657.1450, 22680.00
658.3060, 22813.00
659.4660, 22891.00
660.6270, 23307.00
661.7870, 23461.00
662.9470, 23887.00
664.1070, 24171.64
665.2670, 24711.00
666.4260, 24810.00
667.5860, 25229.00
668.7450, 25577.00
669.9040, 26141.00
671.0630, 26385.00
672.2220, 26349.00
673.3800, 26327.00
674.5390, 26579.00
675.6970, 26586.00
676.8550, 26362.00
678.0130, 26141.00
679.1710, 25985.00
680.3290, 25869.00
681.4860, 25540.00
682.6430, 25342.00
683.8000, 25288.00
684.9570, 25013.00
686.1140, 24969.00
687.2710, 24648.00
688.4270, 24702.00
689.5840, 24743.00
690.7400, 24954.00
691.8960, 24906.00
693.0520, 24717.00
694.2070, 25029.00
695.3630, 25316.00
696.5180, 25681.00
697.6730, 25624.00
698.8280, 26128.00
699.9830, 26194.00
701.1380, 26418.00
702.2920, 26953.00
703.4470, 26917.00
704.6010, 27316.00
705.7550, 27721.00
706.9090, 27966.00
708.0620, 28080.00
709.2160, 28581.00
710.3690, 28562.00
711.5220, 28934.00
712.6750, 29060.00
713.8280, 29102.00
714.9810, 29489.00
716.1340, 29183.00
717.2860, 29229.00
718.4380, 29341.00
719.5900, 29259.00
720.7420, 29266.00
721.8940, 29184.00
723.0450, 29012.00
724.1970, 28503.00
725.3480, 28495.00
726.4990, 28073.00
727.6500, 27817.00
728.8010, 27594.00
729.9510, 27375.00
731.1020, 26949.00
732.2520, 26633.00
733.4020, 26413.00
734.5520, 26329.00
735.7020, 25946.00
736.8510, 26269.00
738.0010, 25545.00
739.1500, 25169.00
740.2990, 25259.00
741.4480, 25194.00
742.5970, 25052.00
743.7450, 24904.00
744.8940, 24744.00
746.0420, 24750.00
747.1900, 24679.18
748.3380, 24703.30
749.4860, 24719.00
750.6330, 24822.00
751.7810, 24945.00
752.9280, 25036.00
754.0750, 24972.00
755.2220, 25115.00
756.3690, 25148.00
757.5160, 25281.00
758.6620, 25413.00
759.8090, 25251.00
760.9550, 25262.00
762.1010, 25502.00
763.2470, 25450.00
764.3920, 25778.00
765.5380, 25639.00
766.6830, 25529.00
767.8280, 25587.00
768.9730, 25235.00
770.1180, 25436.00
771.2630, 25158.00
772.4070, 24764.00
773.5520, 24868.00
774.6960, 24581.00
775.8400, 24357.00
776.9840, 24258.00
778.1280, 24093.53
779.2710, 23925.00
780.4140, 23829.00
781.5580, 23534.00
782.7010, 23202.00
783.8440, 23126.00
784.9860, 22870.00
786.1290, 22579.00
787.2710, 22737.00
788.4140, 22965.00
789.5560, 22261.00
790.6980, 22802.00
791.8390, 22581.00
792.9810, 22499.00
794.1220, 21718.00
795.2640, 21375.00
796.4050, 21459.00
797.5460, 21246.00
798.6860, 21421.00
799.8270, 21027.00
800.9680, 20970.00
802.1080, 20819.00
803.2480, 20788.00
804.3880, 20781.00
805.5280, 20611.00
806.6670, 20649.00
807.8070, 20559.73
808.9460, 20492.00
810.0850, 20524.00
811.2240, 20288.00
812.3630, 20420.00
813.5020, 20358.00
814.6400, 20214.00
815.7790, 20109.00
816.9170, 20331.00
818.0550, 20315.00
819.1930, 20380.00
820.3300, 20264.92
821.4680, 20230.00
822.6050, 20162.00
823.7430, 20186.00
824.8800, 20152.88
826.0170, 20004.00
827.1530, 20105.00
828.2900, 20220.00
829.4260, 20128.00
830.5620, 20098.00
831.6990, 20219.00
832.8340, 19944.00
833.9700, 20133.00
835.1060, 20297.00
836.2410, 20039.00
837.3760, 20132.00
838.5120, 20317.00
839.6470, 20197.00
840.7810, 20110.00
841.9160, 20023.00
843.0500, 20173.00
844.1850, 20129.00
845.3190, 20161.00
846.4530, 20176.84
847.5870, 20311.72
848.7200, 20388.46
849.8540, 20410.20
850.9870, 20212.16
852.1200, 20297.91
853.2530, 20269.94
854.3860, 20237.30
855.5190, 20362.99
856.6510, 20196.92
857.7840, 20504.00
858.9160, 20645.00
860.0480, 20612.00
861.1800, 20560.00
862.3110, 20593.00
863.4430, 20778.00
864.5740, 20687.00
865.7060, 20900.00
866.8370, 20766.00
867.9680, 20903.00
869.0980, 20723.00
870.2290, 20809.00
871.3590, 20934.00
872.4900, 20852.00
873.6200, 20965.00
874.7500, 21096.00
875.8790, 20961.00
877.0090, 21267.00
878.1380, 21159.00
879.2680, 21022.00
880.3970, 21051.00
881.5260, 21121.00
882.6550, 21376.00
883.7830, 21297.00
884.9120, 21364.00
886.0400, 21332.00
887.1680, 21282.00
888.2960, 21451.00
889.4240, 21303.00
890.5520, 21623.00
891.6790, 21386.00
892.8070, 21558.00
893.9340, 21430.00
895.0610, 21473.00
896.1880, 21608.00
897.3140, 21521.00
898.4410, 21751.00
899.5670, 21410.00
900.6940, 21848.00
901.8200, 21734.00
902.9450, 21772.00
904.0710, 21969.00
905.1970, 21860.00
906.3220, 21923.00
907.4470, 21934.00
908.5730, 22058.00
909.6980, 22145.00
910.8220, 22239.00
911.9470, 22108.00
913.0710, 22143.00
914.1960, 22181.00
915.3200, 22294.00
916.4440, 22288.00
917.5680, 22347.00
918.6910, 22281.00
919.8150, 22358.00
920.9380, 22515.00
922.0610, 22520.00
923.1840, 22401.00
924.3070, 22436.00
925.4300, 22628.00
926.5520, 22495.00
927.6750, 22723.00
928.7970, 22625.00
929.9190, 22547.00
931.0410, 22632.00
932.1630, 22699.00
933.2840, 22711.00
934.4060, 22675.00
935.5270, 22784.00
936.6480, 22742.00
937.7690, 22705.00
938.8900, 22833.00
940.0100, 22910.00
941.1310, 22885.00
942.2510, 22877.00
943.3710, 22859.27
944.4910, 22899.15
945.6110, 22813.00
946.7310, 22918.00
947.8500, 22999.00
948.9690, 22846.00
950.0890, 22817.00
951.2080, 22879.44
952.3260, 22993.00
953.4450, 22993.00
954.5640, 22988.00
955.6820, 23036.00
956.8000, 23058.00
957.9180, 22959.00
959.0360, 23120.00
960.1540, 23102.00
961.2710, 22960.00
962.3890, 23078.00
963.5060, 23215.00
964.6230, 22964.00
965.7400, 23010.00
966.8570, 22967.00
967.9730, 22904.00
969.0900, 22984.00
970.2060, 22820.00
971.3220, 22861.00
972.4380, 22891.00
973.5540, 23021.00
974.6700, 22917.00
975.7850, 23272.00
976.9010, 23072.00
978.0160, 23258.00
979.1310, 23099.00
980.2460, 23175.00
981.3600, 23350.00
982.4750, 23248.00
983.5890, 23283.00
984.7030, 23283.00
985.8170, 23231.00
986.9310, 23313.00
988.0450, 23234.00
989.1590, 23521.00
990.2720, 23571.00
991.3850, 23552.00
992.4980, 23595.00
993.6110, 23596.00
994.7240, 23630.00
995.8370, 23559.00
996.9490, 23528.00
998.0620, 23577.00
999.1740, 23644.00
1000.286, 23680.00
1001.398, 23630.00
1002.509, 23701.00
1003.621, 23657.00
1004.732, 23756.97
1005.843, 23812.00
1006.954, 23898.00
1008.065, 23851.00
1009.176, 23776.58
1010.286, 23923.00
1011.397, 23898.00
1012.507, 24105.00
1013.617, 24127.00
1014.727, 24206.00
1015.837, 24257.00
1016.946, 24295.98
1018.056, 24496.00
1019.165, 24386.00
1020.274, 24442.41
1021.383, 24499.00
1022.492, 24404.00
1023.601, 24541.00
1024.709, 24417.00
1025.817, 24305.00
1026.926, 24502.00
1028.034, 24507.00
1029.141, 24495.00
1030.249, 24586.00
1031.357, 24378.00
1032.464, 24375.00
1033.571, 24432.00
1034.678, 24298.00
1035.785, 24453.00
1036.892, 24375.00
1037.999, 24413.00
1039.105, 24299.00
1040.211, 24407.00
1041.317, 24147.00
1042.423, 24449.00
1043.529, 24205.00
1044.635, 24466.00
1045.740, 24385.00
1046.845, 24307.00
1047.951, 24308.00
1049.056, 24400.00
1050.160, 24488.00
1051.265, 24516.00
1052.370, 24564.52
1053.474, 24450.00
1054.578, 24681.00
1055.682, 24548.82
1056.786, 24758.00
1057.890, 24521.00
1058.993, 24614.00
1060.097, 24554.00
1061.200, 24623.00
1062.303, 24548.47
1063.406, 24629.00
1064.509, 24531.00
1065.612, 24406.00
1066.714, 24697.00
1067.816, 24559.00
1068.919, 24639.00
1070.021, 24837.00
1071.122, 24637.00
1072.224, 24837.00
1073.326, 24543.00
1074.427, 24750.00
1075.528, 24715.00
1076.629, 24650.00
1077.730, 24615.00
1078.831, 24482.00
1079.931, 24435.00
1081.032, 24342.00
1082.132, 24390.00
1083.232, 24801.00
1084.332, 24548.00
1085.432, 24550.00
1086.531, 24624.00
1087.631, 24190.00
1088.730, 24380.00
1089.829, 24413.00
1090.928, 24270.00
1092.027, 24192.00
1093.126, 24258.00
1094.224, 24193.00
1095.323, 24199.00
1096.421, 24169.00
1097.519, 24093.00
1098.617, 24050.00
1099.715, 24306.00
1100.812, 24218.42
1101.910, 24534.00
1103.007, 24156.00
1104.104, 23979.00
1105.201, 23675.00
1106.298, 23983.00
1107.394, 23794.00
1108.491, 24053.00
1109.587, 23811.00
1110.683, 23954.00
1111.779, 23908.00
1112.875, 23906.00
1113.971, 23793.00
1115.066, 24188.00
1116.162, 23985.00
1117.257, 24176.00
1118.352, 24007.00
1119.447, 24090.00
1120.542, 23991.00
1121.636, 24045.00
1122.731, 23813.00
1123.825, 23889.00
1124.919, 23901.00
1126.013, 23959.00
1127.107, 23834.00
1128.200, 23975.00
1129.294, 23750.00
1130.387, 23783.46
1131.480, 23831.00
1132.573, 23732.00
1133.666, 23677.00
1134.759, 23654.00
1135.851, 23685.00
1136.944, 23751.65
1138.036, 23752.53
1139.128, 23834.00
1140.220, 23775.00
1141.312, 23810.13
1142.403, 23749.00
1143.495, 23747.00
1144.586, 23743.00
1145.677, 23671.00
1146.768, 23558.00
1147.859, 23824.00
1148.950, 23626.00
1150.040, 23801.00
1151.130, 23614.00
1152.221, 23843.00
1153.311, 23672.00
1154.401, 23588.25
1155.490, 23724.28
1156.580, 23802.19
1157.669, 23825.08
1158.759, 23628.20
1159.848, 23715.11
1160.937, 23688.29
1162.025, 23656.80
1163.114, 23783.65
1164.202, 23618.73
1165.291, 23743.07
1166.379, 23751.94
1167.467, 23813.66
1168.555, 23760.94
1169.642, 23743.57
1170.730, 23840.67
1171.817, 23874.38
1172.905, 23808.49
1173.992, 23873.56
1175.078, 23704.65
1176.165, 23741.06
1177.252, 23866.06
1178.338, 23875.00
1179.425, 23798.25
1180.511, 23994.00
1181.597, 23766.00
1182.682, 23862.00
1183.768, 23758.60
1184.854, 23839.42
1185.939, 23841.00
1187.024, 23986.00
1188.109, 23973.00
1189.194, 23865.00
1190.279, 23978.00
1191.363, 23737.00
1192.448, 23934.00
1193.532, 23909.00
1194.616, 23953.00
1195.700, 23946.00
1196.784, 23881.65
1197.867, 24038.26
1198.951, 24136.76
1200.034, 24180.23
1201.117, 24003.92
1202.200, 24111.41
1203.283, 24105.17
1204.366, 24094.26
1205.448, 24241.67
1206.531, 24097.33
1207.613, 24242.23
1208.695, 24271.66
1209.777, 24353.93
1210.859, 24321.78
1211.940, 24324.95
1213.022, 24442.60
1214.103, 24496.86
1215.184, 24451.51
1216.265, 24537.12
1217.346, 24369.73
1218.427, 24325.00
1219.507, 24312.00
1220.587, 24236.00
1221.668, 24185.00
1222.748, 24446.00
1223.828, 24327.00
1224.907, 24575.00
1225.987, 24414.04
1227.066, 24869.00
1228.146, 24314.00
1229.225, 24517.00
1230.304, 24956.00
1231.382, 24553.00
1232.461, 24771.00
1233.540, 24556.00
1234.618, 24429.00
1235.696, 24338.00
1236.774, 24576.00
1237.852, 24554.00
1238.930, 24621.00
1240.007, 24854.00
1241.085, 24655.00
1242.162, 24414.00
1243.239, 24742.00
1244.316, 24593.00
1245.393, 24982.00
1246.469, 24797.00
1247.546, 24844.00
1248.622, 24961.00
1249.698, 24780.00
1250.774, 24758.00
1251.850, 24888.00
1252.926, 25008.00
1254.001, 25319.00
1255.077, 24904.00
1256.152, 25138.00
1257.227, 24888.00
1258.302, 25118.00
1259.377, 25035.00
1260.451, 24924.00
1261.526, 25140.00
1262.600, 24960.00
1263.674, 25023.00
1264.748, 25118.00
1265.822, 25040.00
1266.896, 25126.00
1267.969, 25142.00
1269.043, 25215.00
1270.116, 25120.00
1271.189, 25235.00
1272.262, 25141.00
1273.335, 25184.14
1274.407, 25138.00
1275.480, 25305.00
1276.552, 25204.00
1277.624, 25398.00
1278.696, 25406.00
1279.768, 25370.00
1280.840, 25613.00
1281.911, 25369.00
1282.982, 25545.00
1284.054, 25665.00
1285.125, 25516.00
1286.196, 25559.00
1287.266, 25505.00
1288.337, 25772.00
1289.407, 25705.00
1290.478, 25616.00
1291.548, 25654.00
1292.618, 25522.00
1293.688, 25651.00
1294.757, 25899.00
1295.827, 25769.00
1296.896, 25813.00
1297.965, 25788.00
1299.034, 25832.06
1300.103, 25730.00
1301.172, 25915.78
1302.241, 25941.00
1303.309, 25830.00
1304.377, 26104.00
1305.445, 26057.00
1306.513, 25965.00
1307.581, 26097.00
1308.649, 26052.00
1309.716, 26147.00
1310.784, 26180.00
1311.851, 25977.00
1312.918, 26114.00
1313.985, 26155.00
1315.052, 26237.00
1316.118, 26320.15
1317.185, 26302.00
1318.251, 26423.00
1319.317, 26344.00
1320.383, 26296.00
1321.449, 26589.00
1322.514, 26300.00
1323.580, 26319.00
1324.645, 26403.00
1325.711, 26539.00
1326.776, 26773.00
1327.840, 26680.00
1328.905, 26457.00
1329.970, 26454.00
1331.034, 26605.00
1332.099, 26509.00
1333.163, 26622.00
1334.227, 26611.00
1335.290, 26432.00
1336.354, 26777.00
1337.418, 26676.00
1338.481, 26560.00
1339.544, 26801.00
1340.607, 26755.00
1341.670, 26556.00
1342.733, 26744.00
1343.795, 26607.00
1344.858, 26715.00
1345.920, 26782.00
1346.982, 26854.00
1348.044, 27121.00
1349.106, 26914.00
1350.168, 26719.00
1351.229, 26824.00
1352.291, 26871.00
1353.352, 26714.00
1354.413, 26836.00
1355.474, 26800.00
1356.534, 26809.00
1357.595, 26790.00
1358.656, 26916.00
1359.716, 26882.00
1360.776, 27022.00
1361.836, 26766.00
1362.896, 26800.00
1363.955, 26690.00
1365.015, 26883.00
1366.074, 26931.00
1367.134, 26906.00
1368.193, 26922.00
1369.252, 27016.00
1370.310, 26879.00
1371.369, 26822.00
1372.427, 27014.00
1373.486, 26825.00
1374.544, 27174.00
1375.602, 26741.00
1376.660, 26841.00
1377.717, 26908.00
1378.775, 27078.00
1379.832, 26834.00
1380.889, 26960.00
1381.946, 27322.00
1383.003, 27160.00
1384.060, 26774.00
1385.117, 26930.00
1386.173, 26827.00
1387.230, 26796.00
1388.286, 27158.00
1389.342, 26916.00
1390.398, 26912.00
1391.453, 26896.00
1392.509, 26798.00
1393.564, 27042.00
1394.619, 26893.00
1395.675, 27019.00
1396.729, 26841.00
1397.784, 26833.00
1398.839, 26929.00
1399.893, 26677.00
1400.948, 27045.00
1402.002, 26898.00
1403.056, 26879.00
1404.110, 26953.00
1405.163, 27043.00
1406.217, 26943.00
1407.270, 26954.00
1408.324, 27033.00
1409.377, 26981.99
1410.430, 26970.00
1411.483, 26977.00
1412.535, 26973.00
1413.588, 26945.00
1414.640, 27159.00
1415.692, 26880.00
1416.744, 26862.00
1417.796, 27106.00
1418.848, 27034.00
1419.900, 26996.00
1420.951, 27148.00
1422.002, 26996.00
1423.053, 26882.00
1424.104, 27079.00
1425.155, 26867.00
1426.206, 26967.00
1427.256, 27074.00
1428.307, 27005.00
1429.357, 27115.00
1430.407, 27154.00
1431.457, 27068.00
1432.507, 26968.00
1433.556, 27064.00
1434.606, 27085.00
1435.655, 27204.00
1436.704, 27204.00
1437.753, 27186.00
1438.802, 27231.71
1439.851, 27205.00
1440.899, 27244.00
1441.948, 27104.00
1442.996, 27102.00
1444.044, 27059.00
1445.092, 27364.00
1446.140, 27227.00
1447.187, 27247.00
1448.235, 27248.75
1449.282, 27199.13
1450.329, 27087.00
1451.376, 27228.00
1452.423, 27118.00
1453.470, 27241.00
1454.517, 27052.00
1455.563, 27267.00
1456.609, 26982.00
1457.655, 27094.00
1458.701, 27306.00
1459.747, 27123.00
1460.793, 27072.00
1461.838, 27124.00
1462.884, 27190.00
1463.929, 27087.00
1464.974, 27261.00
1466.019, 27425.00
1467.064, 27142.00
1468.108, 27302.00
1469.153, 27206.00
1470.197, 27323.00
1471.241, 27316.00
1472.285, 27396.00
1473.329, 27136.00
1474.373, 27195.00
1475.416, 27190.00
1476.460, 27344.00
1477.503, 27268.00
1478.546, 27269.00
1479.589, 27339.00
1480.632, 27325.99
1481.674, 27257.00
1482.717, 27453.00
1483.759, 27330.00
1484.801, 27496.00
1485.843, 27627.00
1486.885, 27535.00
1487.927, 27578.00
1488.968, 27344.00
1490.010, 27379.00
1491.051, 27359.00
1492.092, 27339.00
1493.133, 27367.38
1494.174, 27326.81
1495.215, 27425.00
1496.255, 27324.00
1497.296, 27397.00
1498.336, 27506.00
1499.376, 27525.00
1500.416, 27443.00
1501.456, 27425.00
1502.495, 27543.00
1503.535, 27648.00
1504.574, 27515.00
1505.613, 27847.00
1506.652, 27449.00
1507.691, 27778.00
1508.730, 27586.00
1509.768, 27812.00
1510.807, 27783.00
1511.845, 27595.00
1512.883, 27899.00
1513.921, 27645.00
1514.959, 27841.00
1515.996, 27887.00
1517.034, 27954.00
1518.071, 27870.00
1519.109, 27916.00
1520.146, 27882.68
1521.183, 27917.00
1522.219, 27887.00
1523.256, 27790.58
1524.292, 27921.00
1525.329, 27322.01
1526.365, 27482.75
1527.401, 27585.36
1528.437, 27632.96
1529.472, 27460.76
1530.508, 27572.37
1531.543, 27570.22
1532.579, 27563.44
1533.614, 27714.97
1534.649, 27574.73
1535.683, 28205.00
1536.718, 28172.00
1537.753, 28257.00
1538.787, 27979.00
1539.821, 28195.00
1540.855, 28173.90
1541.889, 28207.52
1542.923, 28331.00
1543.956, 28377.00
1544.990, 28476.00
1546.023, 28550.00
1547.056, 28812.00
1548.089, 28868.97
1549.122, 28659.27
1550.155, 28800.75
1551.187, 28884.09
1552.220, 28912.42
1553.252, 28720.98
1554.284, 28813.32
1555.316, 28791.94
1556.348, 28765.89
1557.379, 28898.17
1558.411, 28738.69
1559.442, 28868.46
1560.474, 28882.77
1561.505, 28949.91
1562.535, 28902.62
1563.566, 28890.68
1564.597, 28993.21
1565.627, 29032.35
1566.658, 28971.89
1567.688, 29042.39
1568.718, 28878.90
1569.748, 29194.00
1570.777, 29481.00
##END=



