##NAMES=Annite
##RRUFFID=R060211
##IDEAL CHEMISTRY=KFe^2+^_3_AlSi_3_O_10_(OH)_2_
##LOCALITY=Mont Saint-Hilaire, Rouville County, Quebec, Canada
##OWNER=RRUFF
##SOURCE=Royal Ontario Museum
##DESCRIPTION=Black mica
##STATUS=The identification of this mineral has been confirmed by X-ray diffraction and chemical analysis
##URL=rruff.info/R060211
##MEASURED CHEMISTRY=(K_0.94_[box]_0.03_Na_0.02_)_Σ=1_(Fe^2+^_2.07_Mg_0.57_Mn_0.33_Ti_0.03_)_Σ=3_(Si_2.98_Al_1.02_)O_10_((OH)_1.72_F_0.28_)_Σ=2_
##PIN_ID=M00144
##ORIENTATION=Laser parallel to (-1 0 -1). Fiducial mark perpendicular to laser is parallel to -b [0 -1 0]
307.1510, 17124.00
308.3580, 17150.00
309.5660, 16974.00
310.7730, 17079.00
311.9800, 17037.00
313.1870, 17089.00
314.3940, 17056.87
315.6010, 17039.00
316.8070, 17044.00
318.0130, 16986.00
319.2200, 17144.00
320.4260, 16890.00
321.6310, 17174.00
322.8370, 16944.00
324.0430, 17097.77
325.2480, 17305.41
326.4540, 17437.80
327.6590, 17498.94
328.8640, 17275.50
330.0680, 17419.49
331.2730, 17416.26
332.4780, 17406.98
333.6820, 17602.70
334.8860, 17420.62
336.0900, 17613.09
337.2940, 17656.04
338.4980, 17767.43
339.7010, 17680.00
340.9050, 17795.00
342.1080, 17784.09
343.3110, 17673.00
344.5140, 17770.00
345.7170, 17659.00
346.9200, 17683.00
348.1220, 17714.00
349.3240, 17748.00
350.5270, 17843.00
351.7290, 17562.00
352.9310, 17593.00
354.1320, 17908.00
355.3340, 17641.00
356.5350, 17659.00
357.7370, 17534.00
358.9380, 17713.00
360.1390, 17658.86
361.3400, 17855.00
362.5400, 17804.00
363.7410, 17668.00
364.9410, 17954.00
366.1410, 17632.00
367.3410, 17633.00
368.5410, 17585.00
369.7410, 17769.00
370.9400, 17802.00
372.1400, 17720.00
373.3390, 17869.00
374.5380, 17762.00
375.7370, 17819.00
376.9360, 17811.00
378.1350, 17870.00
379.3330, 17935.00
380.5310, 17967.00
381.7300, 17972.82
382.9280, 18018.92
384.1260, 18005.00
385.3230, 18042.00
386.5210, 18182.00
387.7180, 18136.00
388.9160, 18131.00
390.1130, 18014.00
391.3100, 18127.00
392.5060, 18006.00
393.7030, 18109.00
394.9000, 18113.00
396.0960, 18173.00
397.2920, 18095.00
398.4880, 18060.00
399.6840, 18088.00
400.8800, 18291.00
402.0750, 18131.00
403.2710, 18097.00
404.4660, 18194.00
405.6610, 17952.99
406.8560, 18075.24
408.0510, 18122.22
409.2450, 18098.00
410.4400, 17789.17
411.6340, 17847.84
412.8280, 17759.26
414.0220, 17664.63
415.2160, 17775.03
416.4100, 17507.63
417.6030, 17614.82
418.7970, 17572.45
419.9900, 17598.55
421.1830, 17476.48
422.3760, 17400.18
423.5690, 17472.10
424.7610, 17461.99
425.9540, 17322.86
427.1460, 17353.35
428.3380, 17080.86
429.5300, 17074.24
430.7220, 17182.34
431.9140, 17050.71
433.1050, 17083.95
434.2970, 17119.00
435.4880, 17047.00
436.6790, 17084.00
437.8700, 17013.00
439.0610, 17041.00
440.2510, 17073.00
441.4420, 17105.00
442.6320, 17012.00
443.8220, 17115.00
445.0120, 17280.00
446.2020, 17127.00
447.3910, 17178.00
448.5810, 17240.00
449.7700, 17198.00
450.9600, 17241.00
452.1490, 17213.00
453.3370, 17262.00
454.5260, 17276.93
455.7150, 17308.38
456.9030, 17360.00
458.0910, 17305.00
459.2800, 17308.00
460.4670, 17178.05
461.6550, 17412.40
462.8430, 17571.47
464.0300, 17659.25
465.2180, 17462.52
466.4050, 17633.20
467.5920, 17656.61
468.7790, 17673.99
469.9650, 17896.33
471.1520, 17740.94
472.3380, 17960.03
473.5250, 18029.67
474.7110, 18167.68
475.8970, 18157.52
477.0820, 18249.00
478.2680, 18165.00
479.4540, 18299.00
480.6390, 18434.00
481.8240, 18517.00
483.0090, 18449.00
484.1940, 18511.00
485.3780, 18530.00
486.5630, 18566.13
487.7470, 18616.36
488.9320, 18674.00
490.1160, 18699.00
491.3000, 18722.73
492.4830, 18741.30
493.6670, 18871.00
494.8500, 18815.00
496.0340, 19003.00
497.2170, 19055.00
498.4000, 18904.00
499.5820, 19082.00
500.7650, 18899.99
501.9480, 19113.27
503.1300, 19251.25
504.3120, 19318.00
505.4940, 19100.17
506.6760, 19249.81
507.8580, 19252.18
509.0390, 19248.48
510.2210, 19449.84
511.4020, 19273.37
512.5830, 19471.44
513.7640, 19520.00
514.9450, 19636.99
516.1250, 19551.00
517.3060, 19581.00
518.4860, 19754.00
519.6660, 19653.00
520.8460, 19643.00
522.0260, 19822.00
523.2060, 19695.00
524.3850, 19744.00
525.5650, 19771.00
526.7440, 19754.90
527.9230, 19877.00
529.1020, 19817.00
530.2810, 19762.00
531.4590, 19807.00
532.6380, 19986.00
533.8160, 19959.56
534.9940, 19897.00
536.1720, 20044.00
537.3500, 19750.00
538.5270, 19741.00
539.7050, 19752.00
540.8820, 19652.00
542.0590, 19550.00
543.2360, 19472.00
544.4130, 19392.00
545.5900, 19347.00
546.7660, 19397.00
547.9430, 19270.00
549.1190, 19156.00
550.2950, 19067.00
551.4710, 18835.00
552.6470, 18822.00
553.8220, 18683.00
554.9980, 18753.00
556.1730, 18650.00
557.3480, 18572.04
558.5230, 18444.94
559.6980, 18424.00
560.8730, 18145.00
562.0470, 18128.00
563.2220, 18114.00
564.3960, 18226.00
565.5700, 18067.00
566.7440, 18139.00
567.9170, 17983.00
569.0910, 17788.00
570.2640, 17618.00
571.4380, 17539.66
572.6110, 17677.00
573.7840, 17530.00
574.9570, 17667.00
576.1290, 17623.45
577.3020, 17756.00
578.4740, 17597.00
579.6460, 17430.00
580.8180, 17434.00
581.9900, 17325.51
583.1620, 17394.00
584.3330, 17233.00
585.5040, 17217.00
586.6760, 17148.00
587.8470, 17240.87
589.0180, 17431.38
590.1880, 17546.59
591.3590, 17590.59
592.5290, 17350.00
593.7000, 17476.89
594.8700, 17456.50
596.0400, 17430.08
597.2090, 17608.66
598.3790, 17409.46
599.5490, 17584.80
600.7180, 17610.62
601.8870, 17704.87
603.0560, 17650.94
604.2250, 17642.78
605.3940, 17782.84
606.5620, 17840.81
607.7300, 17769.81
608.8990, 17868.40
610.0670, 17664.00
611.2350, 17725.46
612.4020, 17699.00
613.5700, 17816.00
614.7370, 17828.00
615.9050, 17836.00
617.0720, 17888.00
618.2390, 17948.00
619.4060, 17983.00
620.5720, 18014.00
621.7390, 17903.00
622.9050, 17957.00
624.0710, 17939.00
625.2370, 17958.04
626.4030, 18057.00
627.5690, 18070.00
628.7340, 18224.00
629.9000, 18345.00
631.0650, 18337.00
632.2300, 18253.00
633.3950, 18325.00
634.5600, 18583.00
635.7240, 18505.00
636.8890, 18761.00
638.0530, 18766.00
639.2170, 18725.00
640.3810, 19172.00
641.5450, 19157.00
642.7080, 19256.00
643.8720, 19408.00
645.0350, 19611.00
646.1980, 19761.00
647.3610, 19850.00
648.5240, 20404.00
649.6870, 20524.00
650.8490, 20693.00
652.0120, 20884.00
653.1740, 21449.00
654.3360, 21887.00
655.4980, 22313.00
656.6600, 22692.55
657.8210, 22927.00
658.9830, 23233.00
660.1440, 23440.00
661.3050, 23619.30
662.4660, 23663.00
663.6270, 23844.00
664.7870, 23935.00
665.9480, 23742.40
667.1080, 23812.22
668.2680, 23806.76
669.4280, 23730.07
670.5880, 23368.80
671.7480, 23375.00
672.9070, 23234.03
674.0670, 23086.92
675.2260, 22764.00
676.3850, 22255.00
677.5440, 21855.00
678.7030, 21413.00
679.8610, 21210.00
681.0200, 21172.00
682.1780, 20976.00
683.3360, 20944.00
684.4940, 20779.00
685.6520, 20749.00
686.8090, 20654.00
687.9670, 20599.00
689.1240, 20553.00
690.2810, 20412.00
691.4380, 20385.00
692.5950, 20247.00
693.7520, 20367.00
694.9080, 20240.00
696.0650, 20325.50
697.2210, 20566.00
698.3770, 20379.00
699.5330, 20562.00
700.6880, 20388.00
701.8440, 20448.80
702.9990, 20650.00
704.1550, 20537.00
705.3100, 20451.00
706.4650, 20517.00
707.6190, 20557.00
708.7740, 20663.00
709.9290, 20470.00
711.0830, 20491.00
712.2370, 20167.74
713.3910, 20284.51
714.5450, 20326.01
715.6980, 20296.33
716.8520, 19982.02
718.0050, 20035.23
719.1580, 19941.17
720.3110, 19841.08
721.4640, 19946.01
722.6170, 19673.14
723.7700, 19774.82
724.9220, 19727.04
726.0740, 19747.68
727.2260, 19590.00
728.3780, 19566.00
729.5300, 19539.00
730.6810, 19399.97
731.8330, 19574.35
732.9840, 19673.44
734.1350, 19701.31
735.2860, 19444.60
736.4370, 19555.36
737.5880, 19518.85
738.7380, 19476.31
739.8880, 19638.78
741.0390, 19423.46
742.1890, 19582.69
743.3380, 19729.00
744.4880, 19663.00
745.6380, 19954.00
746.7870, 20043.00
747.9360, 20144.00
749.0850, 19910.00
750.2340, 19939.00
751.3830, 20141.00
752.5310, 19984.00
753.6800, 20244.00
754.8280, 20076.00
755.9760, 20119.00
757.1240, 20232.00
758.2720, 20200.00
759.4190, 20278.00
760.5670, 20323.82
761.7140, 20301.49
762.8610, 20317.00
764.0080, 20327.00
765.1550, 20244.58
766.3020, 20193.00
767.4480, 20065.00
768.5950, 20035.00
769.7410, 19926.00
770.8870, 19951.00
772.0330, 19850.00
773.1780, 19693.00
774.3240, 19624.00
775.4690, 19500.15
776.6140, 19472.00
777.7590, 19342.00
778.9040, 19116.00
780.0490, 19141.00
781.1940, 19019.00
782.3380, 18814.00
783.4820, 18807.00
784.6260, 18500.00
785.7700, 18415.00
786.9140, 18505.00
788.0580, 18142.00
789.2010, 18082.00
790.3450, 18191.00
791.4880, 17983.00
792.6310, 17857.00
793.7730, 18074.00
794.9160, 17650.00
796.0590, 17675.00
797.2010, 17539.71
798.3430, 17415.00
799.4850, 17287.00
800.6270, 17284.00
801.7690, 17255.00
802.9100, 17113.00
804.0520, 17109.00
805.1930, 16990.00
806.3340, 17046.00
807.4750, 17006.00
808.6160, 16739.79
809.7560, 16917.98
810.8970, 17020.90
812.0370, 17052.59
813.1770, 16799.70
814.3170, 16914.29
815.4570, 16881.60
816.5960, 16842.88
817.7360, 17009.18
818.8750, 16797.68
820.0140, 16960.72
821.1530, 16974.26
822.2920, 17056.22
823.4310, 16963.00
824.5690, 16951.00
825.7070, 17044.00
826.8460, 17004.60
827.9840, 17007.00
829.1220, 16991.00
830.2590, 16936.00
831.3970, 16926.00
832.5340, 17047.00
833.6710, 16860.00
834.8080, 17044.00
835.9450, 17061.00
837.0820, 17043.00
838.2190, 17070.00
839.3550, 17163.00
840.4910, 17112.00
841.6270, 17184.00
842.7630, 17203.00
843.8990, 17128.00
845.0350, 17148.00
846.1700, 17240.00
847.3060, 17130.00
848.4410, 17059.00
849.5760, 17314.00
850.7100, 17225.00
851.8450, 17426.00
852.9800, 17301.00
854.1140, 17404.00
855.2480, 17436.00
856.3820, 17319.00
857.5160, 17438.00
858.6500, 17542.00
859.7830, 17375.00
860.9170, 17534.00
862.0500, 17516.00
863.1830, 17621.00
864.3160, 17731.00
865.4480, 17734.00
866.5810, 17897.00
867.7130, 17798.00
868.8460, 17829.00
869.9780, 17948.00
871.1100, 18086.00
872.2410, 18082.00
873.3730, 17993.00
874.5050, 18131.00
875.6360, 17966.65
876.7670, 18158.94
877.8980, 18275.94
879.0290, 18321.72
880.1590, 18082.90
881.2900, 18211.57
882.4200, 18192.96
883.5500, 18168.31
884.6800, 18348.68
885.8100, 18151.26
886.9400, 18328.38
888.0690, 18355.97
889.1990, 18452.00
890.3280, 18399.85
891.4570, 18393.46
892.5860, 18535.29
893.7140, 18455.00
894.8430, 18574.00
895.9710, 18538.00
897.1000, 18725.00
898.2280, 18467.00
899.3560, 18624.00
900.4830, 18725.00
901.6110, 18554.00
902.7380, 18672.00
903.8660, 18699.00
904.9930, 18684.00
906.1200, 18752.00
907.2460, 18751.00
908.3730, 18875.00
909.5000, 18782.00
910.6260, 18818.00
911.7520, 18809.00
912.8780, 18960.00
914.0040, 18801.00
915.1290, 18966.00
916.2550, 19133.00
917.3800, 18890.00
918.5050, 19186.00
919.6300, 18968.26
920.7550, 19084.00
921.8800, 19175.00
923.0040, 19344.00
924.1290, 19317.73
925.2530, 19391.28
926.3770, 19255.00
927.5010, 19483.00
928.6250, 19426.00
929.7480, 19597.00
930.8720, 19658.00
931.9950, 19534.00
933.1180, 19483.00
934.2410, 19426.71
935.3640, 19591.21
936.4860, 19680.44
937.6090, 19698.43
938.7310, 19431.86
939.8530, 19532.75
940.9750, 19486.37
942.0970, 19433.96
943.2180, 19586.58
944.3400, 19361.39
945.4610, 19510.76
946.5820, 19510.61
947.7030, 19578.89
948.8240, 19499.00
949.9450, 19464.88
951.0650, 19578.98
952.1860, 19611.00
953.3060, 19514.06
954.4260, 19402.00
955.5460, 19319.00
956.6650, 19533.00
957.7850, 19393.00
958.9040, 19347.00
960.0230, 19734.00
961.1420, 19542.73
962.2610, 19723.00
963.3800, 19512.00
964.4990, 19202.00
965.6170, 19173.64
966.7350, 19436.00
967.8530, 19295.00
968.9710, 19554.00
970.0890, 19529.00
971.2070, 19375.00
972.3240, 19368.00
973.4410, 19376.00
974.5580, 19551.00
975.6750, 19446.00
976.7920, 19762.00
977.9090, 19737.00
979.0250, 19707.00
980.1410, 19652.00
981.2580, 19685.00
982.3740, 19669.10
983.4890, 19758.00
984.6050, 19805.00
985.7200, 19806.00
986.8360, 20107.00
987.9510, 19918.00
989.0660, 19980.00
990.1810, 20175.00
991.2950, 20065.00
992.4100, 20262.00
993.5240, 20307.00
994.6390, 20202.00
995.7530, 20649.00
996.8660, 20620.00
997.9800, 20450.00
999.0940, 20862.00
1000.207, 20644.00
1001.320, 20858.00
1002.433, 21156.00
1003.546, 21054.00
1004.659, 21194.00
1005.772, 21343.00
1006.884, 21325.00
1007.996, 21460.36
1009.108, 21431.00
1010.220, 21508.00
1011.332, 21556.00
1012.444, 21359.00
1013.555, 21542.00
1014.666, 21527.00
1015.777, 21436.00
1016.888, 21228.00
1017.999, 21471.00
1019.110, 21524.00
1020.220, 21288.00
1021.331, 21426.00
1022.441, 21242.18
1023.551, 21085.22
1024.661, 21008.00
1025.770, 20811.00
1026.880, 20766.00
1027.989, 20862.00
1029.098, 20824.00
1030.207, 20575.00
1031.316, 20682.00
1032.425, 20307.23
1033.533, 20471.44
1034.642, 20560.36
1035.750, 20578.05
1036.858, 20311.17
1037.966, 20411.76
1039.073, 20365.10
1040.181, 20312.38
1041.288, 20464.70
1042.396, 20239.21
1043.503, 20388.28
1044.610, 20387.83
1045.716, 20232.00
1046.823, 20378.00
1047.929, 20431.00
1049.036, 20344.00
1050.142, 20318.00
1051.248, 20287.00
1052.353, 20208.00
1053.459, 20248.59
1054.564, 20339.00
1055.670, 20288.00
1056.775, 20346.00
1057.880, 20323.00
1058.985, 20294.00
1060.089, 20370.00
1061.194, 20251.00
1062.298, 20118.00
1063.402, 20168.00
1064.506, 20050.58
1065.610, 20208.00
1066.713, 19946.00
1067.817, 20058.00
1068.920, 20020.00
1070.023, 19961.00
1071.126, 19822.00
1072.229, 19861.00
1073.332, 20090.00
1074.435, 19879.00
1075.537, 19678.09
1076.639, 19798.03
1077.741, 19842.70
1078.843, 19816.14
1079.945, 19505.00
1081.046, 19561.38
1082.148, 19470.44
1083.249, 19373.51
1084.350, 19481.61
1085.451, 19211.90
1086.551, 19316.80
1087.652, 19272.13
1088.752, 19295.94
1089.853, 19171.52
1090.953, 19271.00
1092.053, 19030.00
1093.152, 19310.00
1094.252, 19299.00
1095.351, 19074.00
1096.451, 19153.00
1097.550, 19128.00
1098.649, 19130.00
1099.748, 18922.00
1100.846, 19040.00
1101.945, 19112.00
1103.043, 19247.00
1104.141, 18914.00
1105.239, 18906.00
1106.337, 18970.00
1107.434, 18781.89
1108.532, 18947.03
1109.629, 19036.91
1110.726, 19055.55
1111.823, 18789.62
1112.920, 18891.16
1114.017, 18845.43
1115.113, 18793.67
1116.210, 18946.93
1117.306, 18722.40
1118.402, 18872.41
1119.498, 18872.91
1120.593, 18941.85
1121.689, 18862.60
1122.784, 18829.13
1123.879, 18943.88
1124.974, 18976.55
1126.069, 18880.26
1127.164, 18953.54
1128.259, 18723.84
1129.353, 18760.02
1130.447, 18910.91
1131.541, 18822.07
1132.635, 18898.07
1133.729, 18911.29
1134.822, 18639.21
1135.916, 18863.30
1137.009, 18766.00
1138.102, 18747.00
1139.195, 18700.00
1140.288, 18683.00
1141.380, 18555.00
1142.473, 18586.99
1143.565, 18750.00
1144.657, 18622.00
1145.749, 18618.00
1146.841, 18679.00
1147.932, 18646.00
1149.024, 18608.00
1150.115, 18629.00
1151.206, 18575.03
1152.297, 18598.00
1153.388, 18587.00
1154.479, 18397.00
1155.569, 18569.00
1156.659, 18463.95
1157.750, 18664.00
1158.839, 18484.00
1159.929, 18469.00
1161.019, 18608.00
1162.108, 18613.00
1163.198, 18530.00
1164.287, 18590.00
1165.376, 18643.00
1166.465, 18646.00
1167.553, 18521.00
1168.642, 18646.00
1169.730, 18534.00
1170.818, 18577.00
1171.906, 18576.00
1172.994, 18518.00
1174.082, 18345.00
1175.170, 18618.00
1176.257, 18413.00
1177.344, 18646.00
1178.431, 18383.00
1179.518, 18554.00
1180.605, 18487.00
1181.691, 18651.00
1182.778, 18486.00
1183.864, 18374.00
1184.950, 18443.00
1186.036, 18378.00
1187.122, 18473.00
1188.207, 18452.00
1189.292, 18475.00
1190.378, 18517.00
1191.463, 18701.00
1192.548, 18607.00
1193.632, 18737.00
1194.717, 18701.00
1195.801, 18423.00
1196.886, 18804.00
1197.970, 18539.00
1199.054, 18671.00
1200.137, 18488.00
1201.221, 18409.00
1202.305, 18705.00
1203.388, 18571.00
1204.471, 18707.00
1205.554, 18593.00
1206.637, 18617.00
1207.719, 18836.00
1208.802, 18460.00
1209.884, 18360.00
1210.966, 18436.00
1212.048, 18554.00
1213.130, 18441.00
1214.212, 18611.00
1215.293, 18493.00
1216.374, 18694.00
1217.456, 18549.00
1218.536, 18625.00
1219.617, 18634.00
1220.698, 18787.00
1221.778, 18678.14
1222.859, 18656.00
1223.939, 18549.00
1225.019, 18606.00
1226.099, 18675.00
1227.178, 18726.00
1228.258, 18650.00
1229.337, 18618.00
1230.417, 18626.77
1231.496, 18646.00
1232.574, 18603.00
1233.653, 18646.19
1234.732, 18615.61
1235.810, 18640.00
1236.888, 18692.00
1237.966, 18678.00
1239.044, 18732.00
1240.122, 18690.00
1241.199, 18571.00
1242.277, 18754.00
1243.354, 18730.00
1244.431, 18878.00
1245.508, 18760.00
1246.585, 18790.00
1247.661, 18733.00
1248.738, 18699.00
1249.814, 18768.00
1250.890, 18742.00
1251.966, 18628.00
1253.042, 18715.00
1254.117, 18652.00
1255.193, 18633.00
1256.268, 18621.00
1257.343, 18720.00
1258.418, 18831.00
1259.493, 18963.00
1260.567, 18927.00
1261.642, 18852.00
1262.716, 18911.00
1263.790, 18895.00
1264.864, 18783.00
1265.938, 18845.00
1267.011, 18906.00
1268.085, 18767.00
1269.158, 18811.54
1270.231, 18789.00
1271.304, 18749.00
1272.377, 18938.00
1273.450, 18928.00
1274.522, 18892.00
1275.594, 19201.00
1276.666, 18901.00
1277.738, 19047.79
1278.810, 18799.00
1279.882, 19179.00
1280.953, 18976.00
1282.025, 19236.00
1283.096, 18923.00
1284.167, 19189.00
1285.238, 19101.28
1286.308, 19348.00
1287.379, 19000.00
1288.449, 19113.00
1289.519, 19012.00
1290.589, 19098.00
1291.659, 19046.00
1292.729, 19080.00
1293.798, 19136.00
1294.868, 19211.00
1295.937, 19201.00
1297.006, 19141.00
1298.075, 19474.00
1299.143, 19283.00
1300.212, 19078.00
1301.280, 19331.00
1302.348, 19317.00
1303.416, 18930.00
1304.484, 19081.00
1305.552, 19255.00
1306.620, 19047.00
1307.687, 19144.00
1308.754, 19471.00
1309.821, 19289.00
1310.888, 19231.00
1311.955, 19276.00
1313.021, 19063.42
1314.088, 19243.51
1315.154, 19348.31
1316.220, 19381.89
1317.286, 19130.89
1318.352, 19247.36
1319.417, 19216.56
1320.483, 19179.73
1321.548, 19347.91
1322.613, 19138.30
1323.678, 19303.23
1324.743, 19318.65
1325.807, 19402.49
1326.872, 19338.16
1327.936, 19319.59
1329.000, 19449.24
1330.064, 19496.83
1331.128, 19415.44
1332.191, 19503.62
1333.255, 19288.82
1334.318, 19339.89
1335.381, 19505.67
1336.444, 19431.72
1337.507, 19522.61
1338.569, 19550.71
1339.632, 19293.52
1340.694, 19532.49
1341.756, 19556.88
1342.818, 19360.95
1343.880, 19582.92
1344.941, 19417.35
1346.003, 19390.12
1347.064, 19466.97
1348.125, 19435.31
1349.186, 19574.74
1350.247, 19549.35
1351.308, 19509.22
1352.368, 19533.36
1353.428, 19375.38
1354.489, 19555.27
1355.549, 19504.37
1356.608, 19568.17
1357.668, 19657.99
1358.727, 19548.70
1359.787, 19650.20
1360.846, 19424.81
1361.905, 19472.94
1362.964, 19491.61
1364.022, 19685.10
1365.081, 19461.31
1366.139, 19501.82
1367.197, 19654.89
1368.255, 19650.47
1369.313, 19711.90
1370.371, 19578.41
1371.428, 19628.03
1372.486, 19627.18
1373.543, 19800.73
1374.600, 19836.59
1375.657, 19706.40
1376.713, 19576.91
1377.770, 19763.01
1378.826, 19649.99
1379.882, 19698.34
1380.938, 19580.03
1381.994, 19605.61
1383.050, 19628.92
1384.106, 19725.99
1385.161, 19599.37
1386.216, 19762.90
1387.271, 19758.74
1388.326, 19803.97
1389.381, 19843.71
1390.435, 19658.40
1391.490, 19657.58
1392.544, 19920.71
1393.598, 19781.29
1394.652, 19723.11
1395.705, 19722.69
1396.759, 19994.86
1397.812, 20013.65
1398.866, 19729.61
1399.919, 19989.76
1400.972, 19915.11
1402.024, 19939.94
1403.077, 19928.47
1404.129, 19927.75
1405.181, 19790.35
1406.233, 19863.00
1407.285, 19718.00
1408.337, 19801.00
1409.389, 19910.00
1410.440, 19928.00
1411.491, 19993.90
1412.542, 20147.00
1413.593, 20082.49
1414.644, 20081.87
1415.695, 20161.00
1416.745, 20103.00
1417.795, 19969.00
1418.845, 20173.00
1419.895, 20043.00
1420.945, 20067.00
1421.995, 19860.00
1423.044, 20121.00
1424.093, 20130.00
1425.142, 19859.00
1426.191, 19955.00
1427.240, 19853.00
1428.289, 20048.00
1429.337, 19963.00
1430.385, 19884.00
1431.433, 20220.00
1432.481, 20135.00
1433.529, 20244.00
1434.577, 20113.00
1435.624, 20058.00
1436.672, 20194.00
1437.719, 20039.00
1438.766, 20126.00
1439.812, 20063.00
1440.859, 20071.00
1441.905, 20142.00
1442.952, 20080.00
1443.998, 20080.00
1445.044, 20040.00
1446.090, 20131.00
1447.135, 20024.00
1448.181, 20168.00
1449.226, 20371.00
1450.271, 20209.68
1451.316, 20249.63
1452.361, 20101.00
1453.405, 20037.00
1454.450, 20157.00
1455.494, 20024.00
1456.538, 20018.00
1457.582, 20240.00
1458.626, 20224.00
1459.670, 20236.00
1460.713, 20040.00
1461.757, 20173.00
1462.800, 20049.00
1463.843, 19948.00
1464.886, 20036.00
1465.928, 20140.00
1466.971, 20061.00
1468.013, 20323.00
1469.055, 20274.00
1470.097, 20292.00
1471.139, 20280.00
1472.181, 20471.00
1473.222, 20310.79
1474.263, 20380.00
1475.305, 20029.09
1476.346, 20225.71
1477.386, 20347.04
1478.427, 20397.15
1479.468, 20162.70
1480.508, 20295.69
1481.548, 20281.41
1482.588, 20261.10
1483.628, 20445.81
1484.668, 20252.71
1485.707, 20434.15
1486.747, 20466.09
1487.786, 20566.44
1488.825, 20518.62
1489.864, 20516.56
1490.902, 20662.70
1491.941, 20726.79
1492.979, 20661.88
1494.017, 20766.56
1495.055, 20568.25
1496.093, 20635.81
1497.131, 20407.00
1498.168, 20397.00
1499.206, 20665.00
1500.243, 20571.00
1501.280, 20561.00
1502.317, 20595.00
1503.354, 20592.00
1504.390, 20590.00
1505.426, 20556.98
1506.463, 20602.00
1507.499, 20537.00
1508.535, 20511.00
1509.570, 20669.00
1510.606, 20436.00
1511.641, 20561.00
1512.676, 20702.00
1513.711, 20631.00
1514.746, 20838.00
1515.781, 20658.00
1516.816, 20535.00
1517.850, 20518.00
1518.884, 20731.00
1519.918, 20635.00
1520.952, 20682.00
1521.986, 20904.00
1523.019, 20791.00
1524.053, 20634.00
1525.086, 20826.00
1526.119, 20690.00
1527.152, 20645.00
1528.185, 20954.00
1529.217, 20718.00
1530.250, 20631.00
1531.282, 20772.00
1532.314, 20748.00
1533.346, 20801.00
1534.377, 20844.70
1535.409, 20762.00
1536.440, 20861.00
1537.472, 20749.73
1538.503, 20924.41
1539.534, 21023.82
1540.564, 21051.99
1541.595, 20795.59
1542.625, 20906.66
1543.656, 20870.47
1544.686, 20828.23
1545.716, 20991.02
1546.745, 20776.01
1547.775, 20935.54
1548.804, 20945.57
1549.834, 21024.02
1550.863, 20954.29
1551.892, 20930.34
1552.920, 21054.60
1553.949, 21096.79
1554.977, 21010.00
1556.006, 21092.80
1557.034, 20872.61
1558.062, 20918.29
1559.089, 21078.69
1560.117, 20999.36
1561.144, 21084.86
1562.172, 21107.58
1563.199, 20845.00
1564.226, 21078.59
1565.252, 21097.60
1566.279, 20896.28
1567.305, 21112.88
1568.332, 20941.93
1569.358, 20909.31
1570.384, 20944.00
##END=



