##NAMES=Annite
##RRUFFID=R060204
##IDEAL CHEMISTRY=KFe^2+^_3_AlSi_3_O_10_(OH)_2_
##LOCALITY=Mont Saint-Hilaire, Rouville County, Quebec, Canada
##OWNER=RRUFF
##SOURCE=Royal Ontario Museum
##DESCRIPTION=Black mica with pseudohexagonal outines
##STATUS=The identification of this mineral has been confirmed by X-ray diffraction and chemical analysis
##URL=rruff.info/R060204
##MEASURED CHEMISTRY=(K_0.96_Na_0.04_)_Σ=1_(Fe^2+^_2.04_Mg_0.81_Mn_0.09_Ti_0.03_[box]_0.03_)_Σ=3_(Si_3.00_Al_1.00_)O_10_((OH)_1.54_F_0.46_)_Σ=2_
##PIN_ID=M00366
##ORIENTATION=Laser parallel to -b* (0 -1 0). Fiducial mark perpendicular to laser is parallel to c [0 0 1]
235.6330, 26307.00
236.8490, 26318.00
238.0660, 26316.00
239.2820, 26321.00
240.4980, 26435.00
241.7140, 26290.00
242.9300, 26552.00
244.1460, 26663.00
245.3610, 26532.00
246.5770, 26573.00
247.7920, 26595.00
249.0070, 26671.00
250.2220, 26594.00
251.4370, 26774.00
252.6510, 26611.10
253.8660, 26832.18
255.0800, 26982.32
256.2940, 27065.38
257.5080, 26880.45
258.7220, 27041.57
259.9360, 27064.01
261.1490, 27080.71
262.3630, 27290.55
263.5760, 27144.54
264.7890, 27351.26
266.0020, 27417.18
267.2150, 27657.00
268.4270, 27663.00
269.6400, 27751.00
270.8520, 27984.00
272.0640, 28110.00
273.2760, 27966.00
274.4880, 27736.00
275.7000, 27854.00
276.9120, 27675.00
278.1230, 27804.00
279.3340, 27333.00
280.5450, 27400.00
281.7560, 27453.00
282.9670, 27288.00
284.1780, 27487.00
285.3880, 27310.00
286.5980, 27559.00
287.8090, 27406.00
289.0190, 27096.00
290.2290, 27134.00
291.4380, 27176.00
292.6480, 27059.00
293.8570, 27196.00
295.0670, 27132.00
296.2760, 27084.00
297.4850, 27302.00
298.6930, 27103.00
299.9020, 27105.00
301.1110, 27135.00
302.3190, 27046.00
303.5270, 27060.00
304.7350, 27360.00
305.9430, 27131.00
307.1510, 27267.00
308.3580, 27125.00
309.5660, 27398.00
310.7730, 27564.00
311.9800, 27434.00
313.1870, 27479.00
314.3940, 27556.00
315.6010, 27275.00
316.8070, 27452.00
318.0130, 27391.00
319.2200, 27535.00
320.4260, 27635.00
321.6310, 27583.79
322.8370, 27543.00
324.0430, 27584.00
325.2480, 27611.00
326.4540, 27718.00
327.6590, 27772.00
328.8640, 27595.00
330.0680, 27659.00
331.2730, 27592.00
332.4780, 27812.00
333.6820, 27790.90
334.8860, 27780.80
336.0900, 27909.00
337.2940, 27760.00
338.4980, 27853.00
339.7010, 27949.00
340.9050, 27882.58
342.1080, 27748.00
343.3110, 27914.00
344.5140, 27867.00
345.7170, 27967.00
346.9200, 27987.00
348.1220, 28084.00
349.3240, 28138.00
350.5270, 28292.00
351.7290, 28062.00
352.9310, 28157.00
354.1320, 28114.00
355.3340, 28239.00
356.5350, 28450.00
357.7370, 28397.00
358.9380, 28412.00
360.1390, 28371.00
361.3400, 28443.00
362.5400, 28443.33
363.7410, 28666.00
364.9410, 28581.00
366.1410, 28662.00
367.3410, 28907.00
368.5410, 28914.00
369.7410, 28713.00
370.9400, 28764.00
372.1400, 29069.00
373.3390, 28844.00
374.5380, 29231.00
375.7370, 29245.00
376.9360, 29518.00
378.1350, 29751.00
379.3330, 29703.00
380.5310, 29581.00
381.7300, 29934.00
382.9280, 29924.00
384.1260, 30164.00
385.3230, 30147.00
386.5210, 30283.00
387.7180, 30260.00
388.9160, 30485.00
390.1130, 30605.00
391.3100, 30700.00
392.5060, 30688.00
393.7030, 30685.00
394.9000, 30988.00
396.0960, 30781.96
397.2920, 31148.00
398.4880, 30599.00
399.6840, 30231.00
400.8800, 30221.00
402.0750, 30243.00
403.2710, 30090.00
404.4660, 30008.00
405.6610, 29965.00
406.8560, 29762.00
408.0510, 29784.00
409.2450, 29499.00
410.4400, 29647.00
411.6340, 29418.00
412.8280, 29420.00
414.0220, 29450.00
415.2160, 29186.00
416.4100, 29240.00
417.6030, 29507.00
418.7970, 29275.00
419.9900, 29167.00
421.1830, 29413.00
422.3760, 28943.00
423.5690, 29178.00
424.7610, 29146.00
425.9540, 28992.00
427.1460, 29091.00
428.3380, 29077.00
429.5300, 29174.00
430.7220, 29183.00
431.9140, 29324.00
433.1050, 29375.00
434.2970, 29067.00
435.4880, 29129.00
436.6790, 29305.00
437.8700, 29357.00
439.0610, 28890.00
440.2510, 29376.00
441.4420, 29246.00
442.6320, 29087.00
443.8220, 29383.00
445.0120, 29544.00
446.2020, 29410.00
447.3910, 29543.00
448.5810, 29463.00
449.7700, 29358.00
450.9600, 29379.00
452.1490, 29590.00
453.3370, 29517.00
454.5260, 29727.00
455.7150, 29915.00
456.9030, 29863.00
458.0910, 29873.00
459.2800, 29995.00
460.4670, 29921.00
461.6550, 30032.00
462.8430, 30177.00
464.0300, 30067.00
465.2180, 30071.00
466.4050, 30570.00
467.5920, 30401.00
468.7790, 30917.00
469.9650, 30893.00
471.1520, 30801.00
472.3380, 31228.00
473.5250, 31422.00
474.7110, 31468.00
475.8970, 31400.00
477.0820, 31764.00
478.2680, 31387.00
479.4540, 31550.00
480.6390, 31689.00
481.8240, 31858.00
483.0090, 31893.00
484.1940, 32011.00
485.3780, 31864.00
486.5630, 31952.00
487.7470, 31794.00
488.9320, 31965.00
490.1160, 31740.00
491.3000, 31652.00
492.4830, 32077.00
493.6670, 32257.00
494.8500, 32312.00
496.0340, 32209.00
497.2170, 32332.00
498.4000, 32214.00
499.5820, 32268.61
500.7650, 32387.00
501.9480, 32463.00
503.1300, 32639.00
504.3120, 32736.13
505.4940, 32890.00
506.6760, 33027.00
507.8580, 33010.00
509.0390, 33241.00
510.2210, 33029.00
511.4020, 33134.00
512.5830, 33191.00
513.7640, 32849.00
514.9450, 33151.00
516.1250, 32937.00
517.3060, 32944.00
518.4860, 32861.00
519.6660, 32979.00
520.8460, 32872.00
522.0260, 33059.00
523.2060, 32959.00
524.3850, 32819.00
525.5650, 32892.06
526.7440, 33089.00
527.9230, 32851.00
529.1020, 32730.00
530.2810, 32679.00
531.4590, 32921.00
532.6380, 32799.00
533.8160, 32942.00
534.9940, 33046.00
536.1720, 32821.00
537.3500, 32994.00
538.5270, 33020.00
539.7050, 32812.00
540.8820, 32847.00
542.0590, 32889.00
543.2360, 32761.00
544.4130, 32810.00
545.5900, 32892.00
546.7660, 32841.00
547.9430, 32903.00
549.1190, 32963.00
550.2950, 33195.00
551.4710, 33119.00
552.6470, 33054.00
553.8220, 33235.00
554.9980, 32983.00
556.1730, 32810.00
557.3480, 33212.00
558.5230, 33006.00
559.6980, 32852.00
560.8730, 33077.00
562.0470, 32970.00
563.2220, 32822.00
564.3960, 33359.00
565.5700, 32870.00
566.7440, 33127.00
567.9170, 32926.00
569.0910, 32851.00
570.2640, 32839.00
571.4380, 32948.00
572.6110, 32941.91
573.7840, 32951.25
574.9570, 33077.00
576.1290, 32949.00
577.3020, 33031.00
578.4740, 33056.00
579.6460, 32984.00
580.8180, 33041.00
581.9900, 33062.00
583.1620, 32783.00
584.3330, 33023.00
585.5040, 32874.00
586.6760, 33270.00
587.8470, 33099.00
589.0180, 33285.00
590.1880, 33052.00
591.3590, 33206.00
592.5290, 33374.00
593.7000, 33194.00
594.8700, 33321.00
596.0400, 33257.00
597.2090, 33329.38
598.3790, 33500.00
599.5490, 33544.00
600.7180, 33676.17
601.8870, 33830.00
603.0560, 33918.00
604.2250, 34007.00
605.3940, 33944.00
606.5620, 34117.00
607.7300, 34139.00
608.8990, 34179.00
610.0670, 34388.00
611.2350, 34385.00
612.4020, 34660.00
613.5700, 34878.00
614.7370, 34979.00
615.9050, 35382.00
617.0720, 35292.00
618.2390, 35631.00
619.4060, 35835.00
620.5720, 36067.00
621.7390, 36040.00
622.9050, 36099.00
624.0710, 36513.00
625.2370, 36802.00
626.4030, 36733.00
627.5690, 36909.00
628.7340, 37415.00
629.9000, 37689.00
631.0650, 37514.00
632.2300, 37650.00
633.3950, 37404.00
634.5600, 37522.00
635.7240, 37653.00
636.8890, 37599.00
638.0530, 37210.00
639.2170, 37307.00
640.3810, 37129.00
641.5450, 37295.00
642.7080, 37220.00
643.8720, 37223.00
645.0350, 37321.00
646.1980, 37261.00
647.3610, 36995.00
648.5240, 37009.57
649.6870, 37000.82
650.8490, 36888.00
652.0120, 37067.00
653.1740, 37219.00
654.3360, 37149.00
655.4980, 37523.00
656.6600, 37364.00
657.8210, 37556.00
658.9830, 37761.00
660.1440, 37945.00
661.3050, 38026.00
662.4660, 38062.00
663.6270, 38202.00
664.7870, 38632.00
665.9480, 38955.00
667.1080, 38943.00
668.2680, 39444.00
669.4280, 40040.00
670.5880, 39883.00
671.7480, 40670.00
672.9070, 40437.02
674.0670, 41478.00
675.2260, 40278.00
676.3850, 40587.00
677.5440, 40823.00
678.7030, 40630.00
679.8610, 40810.00
681.0200, 41070.00
682.1780, 41219.00
683.3360, 41137.00
684.4940, 41508.00
685.6520, 41558.00
686.8090, 41902.00
687.9670, 41925.00
689.1240, 42066.00
690.2810, 41789.00
691.4380, 42154.00
692.5950, 41837.00
693.7520, 41920.00
694.9080, 41584.00
696.0650, 40993.00
697.2210, 40647.00
698.3770, 40262.00
699.5330, 39655.00
700.6880, 39530.00
701.8440, 39178.00
702.9990, 38895.00
704.1550, 38772.00
705.3100, 38535.43
706.4650, 38238.00
707.6190, 38176.00
708.7740, 38164.00
709.9290, 37862.00
711.0830, 37924.00
712.2370, 37900.00
713.3910, 37734.00
714.5450, 37501.00
715.6980, 37483.80
716.8520, 37301.00
718.0050, 37356.00
719.1580, 37437.00
720.3110, 37414.00
721.4640, 37372.00
722.6170, 36972.00
723.7700, 37021.00
724.9220, 37046.00
726.0740, 37144.00
727.2260, 37189.00
728.3780, 36962.00
729.5300, 36962.00
730.6810, 36916.00
731.8330, 36786.00
732.9840, 36766.00
734.1350, 36764.00
735.2860, 36685.00
736.4370, 37007.00
737.5880, 36995.00
738.7380, 36971.00
739.8880, 37018.00
741.0390, 36840.00
742.1890, 36899.66
743.3380, 37030.00
744.4880, 36873.00
745.6380, 36870.00
746.7870, 36792.00
747.9360, 36915.00
749.0850, 36734.00
750.2340, 37035.00
751.3830, 37021.00
752.5310, 37195.00
753.6800, 37101.00
754.8280, 37120.00
755.9760, 36905.00
757.1240, 36853.00
758.2720, 36928.00
759.4190, 37091.00
760.5670, 37272.00
761.7140, 37249.00
762.8610, 37508.00
764.0080, 37552.00
765.1550, 37573.00
766.3020, 37774.00
767.4480, 37510.00
768.5950, 37598.00
769.7410, 37552.00
770.8870, 37349.00
772.0330, 37487.00
773.1780, 37249.00
774.3240, 37191.00
775.4690, 37435.00
776.6140, 37494.00
777.7590, 37452.00
778.9040, 37600.00
780.0490, 37564.00
781.1940, 37071.00
782.3380, 37476.00
783.4820, 37224.00
784.6260, 37452.00
785.7700, 37211.00
786.9140, 37430.00
788.0580, 37253.00
789.2010, 37340.00
790.3450, 37191.00
791.4880, 37437.00
792.6310, 37345.00
793.7730, 37149.00
794.9160, 37330.00
796.0590, 37176.00
797.2010, 37038.00
798.3430, 37063.00
799.4850, 37051.00
800.6270, 36904.00
801.7690, 36848.00
802.9100, 37130.00
804.0520, 37053.00
805.1930, 37092.94
806.3340, 36973.00
807.4750, 37090.00
808.6160, 37023.00
809.7560, 37057.00
810.8970, 36917.00
812.0370, 37085.00
813.1770, 37010.00
814.3170, 37223.00
815.4570, 36888.00
816.5960, 37114.00
817.7360, 37164.00
818.8750, 37274.00
820.0140, 37105.00
821.1530, 37178.00
822.2920, 37300.00
823.4310, 37046.00
824.5690, 37329.00
825.7070, 37166.00
826.8460, 37056.00
827.9840, 37304.00
829.1220, 37299.00
830.2590, 37386.00
831.3970, 37487.00
832.5340, 37243.00
833.6710, 37354.00
834.8080, 37681.00
835.9450, 37410.00
837.0820, 37177.00
838.2190, 37449.00
839.3550, 37422.00
840.4910, 37354.00
841.6270, 37501.00
842.7630, 37662.00
843.8990, 37775.00
845.0350, 37717.00
846.1700, 37824.00
847.3060, 37765.00
848.4410, 37981.00
849.5760, 37727.00
850.7100, 37879.00
851.8450, 37846.00
852.9800, 37958.00
854.1140, 37839.00
855.2480, 37927.00
856.3820, 38291.00
857.5160, 38408.00
858.6500, 38266.00
859.7830, 38279.00
860.9170, 38165.00
862.0500, 38172.00
863.1830, 37907.00
864.3160, 38345.00
865.4480, 38110.00
866.5810, 38408.00
867.7130, 38390.00
868.8460, 38340.00
869.9780, 38159.00
871.1100, 38312.86
872.2410, 38722.00
873.3730, 38563.00
874.5050, 38524.00
875.6360, 38655.00
876.7670, 38499.00
877.8980, 38812.00
879.0290, 38769.00
880.1590, 38611.00
881.2900, 38743.00
882.4200, 38690.00
883.5500, 39088.00
884.6800, 38810.00
885.8100, 38981.00
886.9400, 39095.00
888.0690, 39026.00
889.1990, 39082.00
890.3280, 39224.00
891.4570, 39001.00
892.5860, 38989.00
893.7140, 38840.35
894.8430, 39077.97
895.9710, 39244.63
897.1000, 39344.28
898.2280, 39175.86
899.3560, 39353.51
900.4830, 39392.40
901.6110, 39425.68
902.7380, 39651.96
903.8660, 39522.52
904.9930, 39745.75
906.1200, 39828.17
907.2460, 39974.96
908.3730, 39982.29
909.5000, 40032.71
910.6260, 40222.64
911.7520, 39983.00
912.8780, 40049.00
914.0040, 40048.00
915.1290, 40114.00
916.2550, 40148.15
917.3800, 40168.63
918.5050, 40192.00
919.6300, 40246.00
920.7550, 40187.00
921.8800, 40276.00
923.0040, 40206.00
924.1290, 40582.00
925.2530, 40544.00
926.3770, 40827.00
927.5010, 40502.00
928.6250, 40794.00
929.7480, 40741.00
930.8720, 40535.00
931.9950, 40695.00
933.1180, 41029.00
934.2410, 40495.62
935.3640, 40739.16
936.4860, 40911.74
937.6090, 41017.30
938.7310, 40854.80
939.8530, 41038.36
940.9750, 41083.23
942.0970, 41122.41
943.2180, 41354.61
944.3400, 41231.08
945.4610, 41460.21
946.5820, 41548.53
947.7030, 41701.30
948.8240, 41714.52
949.9450, 41682.00
951.0650, 41849.00
952.1860, 41799.00
953.3060, 41771.00
954.4260, 41535.00
955.5460, 42346.00
956.6650, 41973.00
957.7850, 42052.00
958.9040, 41776.00
960.0230, 41663.00
961.1420, 41648.00
962.2610, 42056.00
963.3800, 41973.00
964.4990, 42177.00
965.6170, 42128.00
966.7350, 42037.00
967.8530, 42058.00
968.9710, 42361.00
970.0890, 42041.00
971.2070, 42202.00
972.3240, 42375.00
973.4410, 42099.00
974.5580, 42365.00
975.6750, 42543.00
976.7920, 42781.00
977.9090, 42753.00
979.0250, 43014.00
980.1410, 42916.00
981.2580, 42897.00
982.3740, 43134.00
983.4890, 43005.00
984.6050, 43116.10
985.7200, 43053.00
986.8360, 43197.00
987.9510, 43152.00
989.0660, 43165.00
990.1810, 43448.00
991.2950, 43269.00
992.4100, 43406.00
993.5240, 43294.00
994.6390, 43497.00
995.7530, 43607.00
996.8660, 43428.00
997.9800, 43408.00
999.0940, 43595.00
1000.207, 43484.00
1001.320, 43697.52
1002.433, 43785.32
1003.546, 43960.00
1004.659, 44063.00
1005.772, 43998.00
1006.884, 44142.00
1007.996, 44487.00
1009.108, 44436.00
1010.220, 44513.00
1011.332, 44809.00
1012.444, 44528.00
1013.555, 45055.00
1014.666, 45066.00
1015.777, 45165.00
1016.888, 45135.00
1017.999, 45289.00
1019.110, 45201.00
1020.220, 45381.00
1021.331, 45515.00
1022.441, 45366.00
1023.551, 45346.00
1024.661, 45247.00
1025.770, 45214.00
1026.880, 45470.00
1027.989, 45144.00
1029.098, 45374.00
1030.207, 45561.00
1031.316, 45427.00
1032.425, 45822.00
1033.533, 45270.00
1034.642, 45359.00
1035.750, 45299.00
1036.858, 45466.00
1037.966, 45071.00
1039.073, 45024.00
1040.181, 45240.00
1041.288, 45311.00
1042.396, 45343.00
1043.503, 45263.00
1044.610, 45486.00
1045.716, 45504.00
1046.823, 45415.82
1047.929, 45574.00
1049.036, 45260.00
1050.142, 45466.00
1051.248, 45519.00
1052.353, 45436.00
1053.459, 45687.00
1054.564, 45563.00
1055.670, 45660.14
1056.775, 45870.00
1057.880, 45826.00
1058.985, 45629.00
1060.089, 45831.00
1061.194, 45636.00
1062.298, 45643.00
1063.402, 45854.00
1064.506, 45668.00
1065.610, 45685.00
1066.713, 45798.00
1067.817, 45804.00
1068.920, 45945.20
1070.023, 46013.00
1071.126, 46158.00
1072.229, 46325.00
1073.332, 46302.00
1074.435, 46310.44
1075.537, 46694.00
1076.639, 46454.00
1077.741, 46562.00
1078.843, 47276.00
1079.945, 47262.00
1081.046, 47535.00
1082.148, 48546.00
1083.249, 49249.00
1084.350, 49264.00
1085.451, 49420.00
1086.551, 48527.00
1087.652, 47616.00
1088.752, 47286.00
1089.853, 46839.00
1090.953, 46742.00
1092.053, 46530.00
1093.152, 46630.00
1094.252, 46472.00
1095.351, 46620.00
1096.451, 46917.00
1097.550, 46619.00
1098.649, 46839.00
1099.748, 46885.00
1100.846, 46935.00
1101.945, 46938.00
1103.043, 46720.00
1104.141, 46505.00
1105.239, 46707.00
1106.337, 46624.00
1107.434, 46688.00
1108.532, 46832.00
1109.629, 47045.00
1110.726, 46995.00
1111.823, 47080.00
1112.920, 47263.00
1114.017, 47055.00
1115.113, 47056.00
1116.210, 47145.00
1117.306, 46870.00
1118.402, 47246.00
1119.498, 47290.00
1120.593, 47134.00
1121.689, 47364.00
1122.784, 47646.00
1123.879, 47512.00
1124.974, 47839.00
1126.069, 47603.00
1127.164, 47444.00
1128.259, 47546.00
1129.353, 47552.00
1130.447, 47523.00
1131.541, 47823.00
1132.635, 47687.18
1133.729, 47526.00
1134.822, 47745.00
1135.916, 47578.00
1137.009, 47888.00
1138.102, 48140.00
1139.195, 47742.00
1140.288, 47685.00
1141.380, 47791.00
1142.473, 47352.00
1143.565, 47416.00
1144.657, 47310.00
1145.749, 47549.00
1146.841, 47262.00
1147.932, 47683.00
1149.024, 47452.00
1150.115, 47680.00
1151.206, 47567.00
1152.297, 47622.00
1153.388, 47630.00
1154.479, 47605.14
1155.569, 47827.00
1156.659, 47549.00
1157.750, 47659.00
1158.839, 47504.00
1159.929, 47668.00
1161.019, 48054.00
1162.108, 47691.00
1163.198, 48097.00
1164.287, 48202.00
1165.376, 48112.00
1166.465, 48252.00
1167.553, 47888.00
1168.642, 48235.00
1169.730, 48136.00
1170.818, 48393.00
1171.906, 48179.00
1172.994, 48211.00
1174.082, 48258.00
1175.170, 48173.00
1176.257, 47883.81
1177.344, 48088.84
1178.431, 48222.99
1179.518, 48290.05
1180.605, 48089.11
1181.691, 48234.20
1182.778, 48240.64
1183.864, 48241.35
1184.950, 48435.14
1186.036, 48273.15
1187.122, 48606.00
1188.207, 48673.00
1189.292, 48750.00
1190.378, 48909.00
1191.463, 48652.00
1192.548, 48950.00
1193.632, 49430.00
1194.717, 49217.00
1195.801, 49094.00
1196.886, 49235.00
1197.970, 49052.00
1199.054, 49131.78
1200.137, 48930.00
1201.221, 49211.00
1202.305, 49236.00
1203.388, 49272.00
1204.471, 49201.00
1205.554, 49567.00
1206.637, 49714.00
1207.719, 49487.00
1208.802, 49436.00
1209.884, 49781.00
1210.966, 49565.00
1212.048, 49339.00
1213.130, 49936.00
1214.212, 49438.00
1215.293, 49397.00
1216.374, 49746.00
1217.456, 49735.00
1218.536, 50011.00
1219.617, 50226.00
1220.698, 50093.00
1221.778, 49903.00
1222.859, 50258.00
1223.939, 50004.00
1225.019, 49876.00
1226.099, 50140.00
1227.178, 49883.00
1228.258, 49821.00
1229.337, 50386.00
1230.417, 50135.00
1231.496, 50116.00
1232.574, 50445.00
1233.653, 50233.00
1234.732, 50769.00
1235.810, 50542.00
1236.888, 50402.00
1237.966, 50189.00
1239.044, 50630.00
1240.122, 50662.00
1241.199, 50359.00
1242.277, 50784.00
1243.354, 50607.00
1244.431, 50941.00
1245.508, 51208.00
1246.585, 50736.00
1247.661, 50718.00
1248.738, 50992.00
1249.814, 50528.00
1250.890, 50413.00
1251.966, 50505.00
1253.042, 50444.00
1254.117, 50611.00
1255.193, 50932.00
1256.268, 50803.00
1257.343, 50776.00
1258.418, 51202.00
1259.493, 51416.00
1260.567, 51090.00
1261.642, 51770.00
1262.716, 51479.00
1263.790, 51526.00
1264.864, 51148.00
1265.938, 51398.00
1267.011, 51010.00
1268.085, 51156.00
1269.158, 51368.00
1270.231, 51396.00
1271.304, 51590.00
1272.377, 51607.70
1273.450, 51562.00
1274.522, 51556.00
1275.594, 51576.55
1276.666, 51523.00
1277.738, 51615.00
1278.810, 51709.72
1279.882, 51721.00
1280.953, 51861.00
1282.025, 51973.00
1283.096, 51864.00
1284.167, 52418.00
1285.238, 52857.00
1286.308, 52461.00
1287.379, 52400.00
1288.449, 52553.00
1289.519, 52510.00
1290.589, 52573.00
1291.659, 52697.00
1292.729, 52387.00
1293.798, 52357.00
1294.868, 52440.47
1295.937, 52692.00
1297.006, 52654.00
1298.075, 52889.00
1299.143, 53070.00
1300.212, 53304.00
1301.280, 53007.00
1302.348, 53276.00
1303.416, 53000.00
1304.484, 53237.00
1305.552, 53195.00
1306.620, 52987.00
1307.687, 53332.00
1308.754, 53376.00
1309.821, 53379.00
1310.888, 53578.00
1311.955, 53599.00
1313.021, 53788.00
1314.088, 53828.00
1315.154, 53573.00
1316.220, 53709.00
1317.286, 53763.00
1318.352, 53660.00
1319.417, 53742.00
1320.483, 53715.00
1321.548, 53653.00
1322.613, 54088.00
1323.678, 53910.00
1324.743, 54167.00
1325.807, 54182.00
1326.872, 54249.00
1327.936, 54376.00
1329.000, 54064.00
1330.064, 54362.00
1331.128, 54373.00
1332.191, 54296.00
1333.255, 54580.00
1334.318, 54296.00
1335.381, 54361.00
1336.444, 54832.00
1337.507, 54538.00
1338.569, 54597.00
1339.632, 54607.00
1340.694, 54686.00
1341.756, 54916.00
1342.818, 54927.00
1343.880, 54786.00
1344.941, 54599.00
1346.003, 55030.00
1347.064, 55089.00
1348.125, 54545.00
1349.186, 54780.00
1350.247, 55196.00
1351.308, 55043.00
1352.368, 55305.00
1353.428, 55228.00
1354.489, 54976.00
1355.549, 55203.00
1356.608, 55405.00
1357.668, 55307.00
1358.727, 55187.00
1359.787, 55214.00
1360.846, 54982.00
1361.905, 55154.00
1362.964, 55515.00
1364.022, 55505.00
1365.081, 55499.00
1366.139, 55820.00
1367.197, 55729.00
1368.255, 55716.00
1369.313, 55656.00
1370.371, 55705.00
1371.428, 55952.00
1372.486, 55766.00
1373.543, 55615.00
1374.600, 55386.00
1375.657, 55843.00
1376.713, 55972.00
1377.770, 55840.00
1378.826, 56155.00
1379.882, 56089.00
1380.938, 56080.00
1381.994, 56123.00
1383.050, 55919.00
1384.106, 55940.00
1385.161, 55973.00
1386.216, 56072.00
1387.271, 55890.00
1388.326, 55873.00
1389.381, 56516.00
1390.435, 55956.00
1391.490, 56181.00
1392.544, 56457.00
1393.598, 56241.00
1394.652, 56801.00
1395.705, 56432.00
1396.759, 56317.00
1397.812, 56233.00
1398.866, 56488.00
1399.919, 56315.00
1400.972, 56761.00
1402.024, 56617.00
1403.077, 56488.00
1404.129, 56677.00
1405.181, 56577.45
1406.233, 56969.00
1407.285, 56647.00
1408.337, 56904.00
1409.389, 56992.00
1410.440, 56533.00
1411.491, 56627.00
1412.542, 56809.00
1413.593, 56934.00
1414.644, 57002.00
1415.695, 56825.00
1416.745, 56892.00
1417.795, 56971.00
1418.845, 57054.03
1419.895, 57112.60
1420.945, 57191.51
1421.995, 57200.00
1423.044, 57315.00
1424.093, 57287.00
1425.142, 57302.00
1426.191, 57095.00
1427.240, 57317.00
1428.289, 57241.00
1429.337, 56934.00
1430.385, 57397.00
1431.433, 57524.00
1432.481, 57627.00
1433.529, 57983.00
1434.577, 57744.00
1435.624, 58177.00
1436.672, 57892.00
1437.719, 57620.00
1438.766, 57543.00
1439.812, 57876.00
1440.859, 57971.00
1441.905, 57905.00
1442.952, 57684.00
1443.998, 58094.00
1445.044, 57999.00
1446.090, 58239.00
1447.135, 58199.00
1448.181, 58296.00
1449.226, 58185.00
1450.271, 58234.00
1451.316, 58145.00
1452.361, 58193.06
1453.405, 58065.00
1454.450, 58233.00
1455.494, 58232.00
1456.538, 58118.00
1457.582, 58618.00
1458.626, 58369.00
1459.670, 58791.00
1460.713, 58630.00
1461.757, 58541.00
1462.800, 58634.00
1463.843, 58970.00
1464.886, 58341.00
1465.928, 58660.00
1466.971, 58676.00
1468.013, 58338.00
1469.055, 58999.00
1470.097, 58993.00
1471.139, 58728.00
1472.181, 58930.00
1473.222, 59314.00
1474.263, 59273.00
1475.305, 59090.00
1476.346, 59562.00
1477.386, 59363.00
1478.427, 59122.00
1479.468, 59174.00
1480.508, 59268.00
1481.548, 59023.00
1482.588, 59525.00
1483.628, 58945.00
1484.668, 59282.00
1485.707, 59844.00
1486.747, 59888.00
1487.786, 59708.00
1488.825, 59940.00
1489.864, 59911.00
1490.902, 60002.00
1491.941, 59628.00
1492.979, 59950.00
1494.017, 59683.00
1495.055, 59781.00
1496.093, 60093.00
1497.131, 60001.00
1498.168, 60088.00
1499.206, 60537.00
1500.243, 60299.00
1501.280, 60404.00
1502.317, 60766.00
1503.354, 60456.00
1504.390, 60235.00
1505.426, 60620.00
1506.463, 60509.00
1507.499, 60335.00
1508.535, 60677.00
1509.570, 60540.00
1510.606, 60677.00
1511.641, 61197.00
1512.676, 61082.00
1513.711, 61911.00
1514.746, 61638.58
1515.781, 61728.00
1516.816, 61376.00
1517.850, 61141.00
1518.884, 61103.00
1519.918, 61011.45
1520.952, 61191.00
1521.986, 61093.00
1523.019, 61542.00
1524.053, 61627.00
1525.086, 61787.00
1526.119, 61968.00
1527.152, 61911.00
1528.185, 62161.00
1529.217, 62076.00
1530.250, 61766.00
1531.282, 61818.00
1532.314, 62067.00
1533.346, 61957.00
1534.377, 62132.00
1535.409, 62268.00
1536.440, 62176.00
1537.472, 62319.00
1538.503, 62756.00
1539.534, 62451.00
1540.564, 62345.00
1541.595, 63100.00
1542.625, 62684.00
1543.656, 62540.00
1544.686, 62959.00
1545.716, 62749.00
1546.745, 62521.00
1547.775, 62596.00
1548.804, 62752.00
1549.834, 62922.00
1550.863, 63294.00
1551.892, 63624.00
1552.920, 63629.00
1553.949, 64092.00
1554.977, 63741.00
1556.006, 63346.00
1557.034, 63660.00
1558.062, 63961.00
1559.089, 63196.00
1560.117, 63509.00
1561.144, 63762.00
1562.172, 63413.00
1563.199, 63583.00
1564.226, 63817.00
1565.252, 63896.00
1566.279, 63985.00
1567.305, 64024.00
1568.332, 63805.00
1569.358, 64251.00
1570.384, 64828.00
##END=



