##NAMES=Annite
##RRUFFID=R060204
##IDEAL CHEMISTRY=KFe^2+^_3_AlSi_3_O_10_(OH)_2_
##LOCALITY=Mont Saint-Hilaire, Rouville County, Quebec, Canada
##OWNER=RRUFF
##SOURCE=Royal Ontario Museum
##DESCRIPTION=Black mica with pseudohexagonal outines
##STATUS=The identification of this mineral has been confirmed by X-ray diffraction and chemical analysis
##URL=rruff.info/R060204
##MEASURED CHEMISTRY=(K_0.96_Na_0.04_)_Σ=1_(Fe^2+^_2.04_Mg_0.81_Mn_0.09_Ti_0.03_[box]_0.03_)_Σ=3_(Si_3.00_Al_1.00_)O_10_((OH)_1.54_F_0.46_)_Σ=2_
##PIN_ID=L01689
##ORIENTATION=Laser parallel to (1 0 1). Fiducial mark perpendicular to laser is parallel to b [0 1 0]
230.8490, 16951.00
232.0700, 16709.00
233.2910, 16898.00
234.5120, 16916.00
235.7320, 16791.00
236.9530, 16856.00
238.1730, 16868.00
239.3930, 16856.00
240.6130, 16847.14
241.8320, 17300.00
243.0520, 16737.00
244.2710, 16853.00
245.4900, 16738.00
246.7090, 17189.00
247.9280, 16921.00
249.1470, 16880.00
250.3650, 16850.00
251.5840, 16835.00
252.8020, 16874.00
254.0200, 16945.83
255.2370, 17150.21
256.4550, 17280.88
257.6720, 17341.73
258.8900, 17123.82
260.1070, 17265.89
261.3240, 17263.68
262.5400, 17255.53
263.7570, 17448.27
264.9730, 17270.85
266.1900, 17452.00
267.4060, 17652.00
268.6220, 17422.00
269.8370, 17670.00
271.0530, 17569.44
272.2680, 17883.00
273.4830, 17605.00
274.6980, 17688.00
275.9130, 18010.00
277.1280, 17805.00
278.3420, 17807.00
279.5570, 17498.00
280.7710, 17410.00
281.9850, 17558.00
283.1990, 17469.00
284.4120, 17325.00
285.6260, 17372.00
286.8390, 17169.00
288.0520, 17096.00
289.2650, 17065.00
290.4780, 17004.00
291.6910, 17042.00
292.9030, 16873.00
294.1160, 17015.00
295.3280, 16781.00
296.5400, 16741.00
297.7510, 16759.00
298.9630, 16943.00
300.1740, 16790.00
301.3860, 16776.00
302.5970, 16655.00
303.8080, 16729.00
305.0180, 16704.00
306.2290, 16839.00
307.4390, 16678.00
308.6500, 16764.75
309.8600, 16767.00
311.0700, 16778.00
312.2790, 16882.00
313.4890, 16819.00
314.6980, 16815.22
315.9080, 16820.68
317.1170, 16778.00
318.3250, 16728.00
319.5340, 16836.00
320.7430, 16686.00
321.9510, 16796.00
323.1590, 16850.00
324.3670, 16862.00
325.5750, 16836.00
326.7830, 16769.00
327.9900, 17055.00
329.1980, 17281.00
330.4050, 17412.00
331.6120, 17002.00
332.8190, 16988.00
334.0250, 17145.00
335.2320, 17172.00
336.4380, 17236.00
337.6440, 17215.00
338.8500, 17224.00
340.0560, 17267.00
341.2620, 17342.00
342.4670, 17301.00
343.6730, 17338.00
344.8780, 17406.00
346.0830, 17596.00
347.2870, 17392.00
348.4920, 17533.00
349.6970, 17632.00
350.9010, 17404.00
352.1050, 17577.00
353.3090, 17631.00
354.5130, 17813.00
355.7160, 17623.00
356.9200, 17820.00
358.1230, 17847.00
359.3260, 17692.00
360.5290, 17807.00
361.7320, 17710.00
362.9340, 17663.00
364.1370, 17885.00
365.3390, 17725.00
366.5410, 17875.00
367.7430, 17551.00
368.9450, 17594.00
370.1460, 17626.00
371.3480, 17663.00
372.5490, 17681.00
373.7500, 17514.00
374.9510, 17682.00
376.1520, 17727.00
377.3520, 17550.00
378.5520, 17557.00
379.7530, 17682.00
380.9530, 17742.00
382.1530, 17760.14
383.3520, 17848.83
384.5520, 17864.97
385.7510, 17937.00
386.9500, 17926.00
388.1490, 17917.00
389.3480, 17955.00
390.5470, 17904.00
391.7450, 18059.00
392.9440, 17848.00
394.1420, 17967.00
395.3400, 18139.00
396.5380, 18121.00
397.7350, 18063.00
398.9330, 18265.00
400.1300, 18440.00
401.3270, 18361.00
402.5240, 18448.40
403.7210, 18418.30
404.9180, 18344.00
406.1140, 18371.00
407.3110, 18214.00
408.5070, 18281.00
409.7030, 18323.00
410.8990, 17987.00
412.0940, 18228.00
413.2900, 18187.00
414.4850, 18137.00
415.6800, 17975.00
416.8750, 17782.00
418.0700, 17893.00
419.2650, 17777.00
420.4590, 17792.16
421.6530, 17777.63
422.8470, 17808.00
424.0410, 17703.00
425.2350, 17647.00
426.4290, 17571.00
427.6220, 17524.70
428.8160, 17480.93
430.0090, 17461.00
431.2020, 17431.00
432.3940, 17418.00
433.5870, 17439.46
434.7790, 17334.49
435.9720, 17450.00
437.1640, 17191.00
438.3560, 17206.00
439.5470, 17257.00
440.7390, 16936.00
441.9300, 17386.00
443.1220, 17388.00
444.3130, 17049.00
445.5040, 16959.00
446.6940, 16800.00
447.8850, 16927.00
449.0750, 16821.00
450.2660, 16753.00
451.4560, 16801.00
452.6460, 16642.00
453.8350, 16750.00
455.0250, 16723.00
456.2140, 16706.00
457.4040, 16748.50
458.5930, 16822.00
459.7820, 16766.00
460.9700, 16866.00
462.1590, 16877.00
463.3470, 16956.00
464.5350, 17022.00
465.7240, 16919.00
466.9110, 17065.00
468.0990, 17024.00
469.2870, 17087.00
470.4740, 17133.00
471.6610, 17116.00
472.8480, 17185.00
474.0350, 17354.00
475.2220, 17342.00
476.4090, 17487.00
477.5950, 17546.00
478.7810, 17604.00
479.9670, 17677.00
481.1530, 17606.00
482.3390, 17612.00
483.5240, 17822.00
484.7100, 17842.00
485.8950, 18010.00
487.0800, 17938.00
488.2650, 18010.00
489.4490, 17942.00
490.6340, 18098.00
491.8180, 18040.00
493.0030, 18140.00
494.1870, 18074.00
495.3700, 18118.00
496.5540, 18014.00
497.7380, 18229.00
498.9210, 18147.00
500.1040, 18196.00
501.2870, 18323.00
502.4700, 18017.00
503.6530, 18223.00
504.8350, 18195.96
506.0180, 18286.00
507.2000, 18296.00
508.3820, 18201.00
509.5640, 18224.00
510.7450, 18264.00
511.9270, 18480.00
513.1080, 18232.00
514.2890, 18359.00
515.4700, 18516.00
516.6510, 18465.00
517.8320, 18363.00
519.0130, 18545.00
520.1930, 18520.00
521.3730, 18413.00
522.5530, 18702.00
523.7330, 18513.00
524.9130, 18833.00
526.0920, 18565.00
527.2710, 18847.00
528.4510, 18564.00
529.6300, 18968.00
530.8080, 18943.90
531.9870, 19012.06
533.1660, 18930.00
534.3440, 19207.00
535.5220, 18868.00
536.7000, 18934.00
537.8780, 18903.00
539.0560, 19169.00
540.2330, 19154.00
541.4110, 19059.00
542.5880, 19037.00
543.7650, 19267.00
544.9420, 19237.00
546.1180, 19187.00
547.2950, 19005.00
548.4710, 19113.00
549.6470, 18801.00
550.8230, 19069.00
551.9990, 18754.00
553.1750, 18873.00
554.3500, 18787.00
555.5260, 18670.64
556.7010, 18761.00
557.8760, 18521.00
559.0510, 18456.00
560.2250, 18393.00
561.4000, 18115.07
562.5740, 18233.12
563.7480, 18277.41
564.9220, 18251.93
566.0960, 17947.65
567.2700, 18003.37
568.4430, 17914.86
569.6170, 17820.39
570.7900, 17926.83
571.9630, 17663.14
573.1360, 17536.00
574.3080, 17450.00
575.4810, 17521.00
576.6530, 17367.00
577.8250, 17439.00
578.9980, 17448.00
580.1690, 17301.00
581.3410, 17536.00
582.5130, 17594.00
583.6840, 16992.00
584.8550, 17050.00
586.0260, 17179.00
587.1970, 17169.00
588.3680, 17115.00
589.5380, 17020.00
590.7080, 17176.00
591.8790, 17191.00
593.0490, 17170.54
594.2190, 17202.00
595.3880, 17143.00
596.5580, 17172.00
597.7270, 17151.00
598.8960, 17163.00
600.0650, 17176.00
601.2340, 17202.00
602.4030, 17243.00
603.5710, 17289.00
604.7400, 17277.00
605.9080, 17491.00
607.0760, 17579.00
608.2440, 17539.00
609.4120, 17405.00
610.5790, 17435.00
611.7460, 17487.00
612.9140, 17697.00
614.0810, 17593.00
615.2480, 17742.85
616.4140, 17715.00
617.5810, 17818.62
618.7470, 18009.24
619.9130, 18126.12
621.0790, 18173.21
622.2450, 17941.51
623.4110, 18069.81
624.5770, 18053.84
625.7420, 18031.94
626.9070, 18210.89
628.0720, 18233.00
629.2370, 18099.00
630.4020, 18266.00
631.5660, 18322.00
632.7310, 18442.00
633.8950, 18519.64
635.0590, 18577.87
636.2230, 18653.00
637.3870, 18720.00
638.5500, 18785.00
639.7140, 18921.00
640.8770, 18776.00
642.0400, 18952.00
643.2030, 19344.00
644.3660, 19231.00
645.5280, 19487.00
646.6910, 19594.00
647.8530, 19790.84
649.0150, 19979.20
650.1770, 20275.00
651.3390, 20399.00
652.5000, 20565.00
653.6620, 20892.00
654.8230, 21071.00
655.9840, 21316.00
657.1450, 21520.00
658.3060, 22012.00
659.4660, 22370.56
660.6270, 22824.97
661.7870, 23310.00
662.9470, 23804.00
664.1070, 24270.00
665.2670, 24728.00
666.4260, 25493.00
667.5860, 26036.00
668.7450, 26601.00
669.9040, 27314.00
671.0630, 27310.00
672.2220, 28044.00
673.3800, 28162.00
674.5390, 28033.00
675.6970, 27863.00
676.8550, 27837.00
678.0130, 27693.00
679.1710, 27370.00
680.3290, 27037.00
681.4860, 26248.00
682.6430, 25997.00
683.8000, 25782.00
684.9570, 25349.00
686.1140, 25248.00
687.2710, 24953.00
688.4270, 24960.00
689.5840, 24812.00
690.7400, 25056.00
691.8960, 24878.00
693.0520, 25137.00
694.2070, 25194.00
695.3630, 25362.56
696.5180, 25673.25
697.6730, 25903.00
698.8280, 26287.00
699.9830, 26751.00
701.1380, 27028.00
702.2920, 27240.00
703.4470, 27762.00
704.6010, 28040.04
705.7550, 28749.00
706.9090, 28883.00
708.0620, 29257.00
709.2160, 29858.00
710.3690, 29977.00
711.5220, 30169.00
712.6750, 30575.00
713.8280, 30677.00
714.9810, 30828.00
716.1340, 30597.00
717.2860, 30864.00
718.4380, 30703.00
719.5900, 30977.00
720.7420, 30453.00
721.8940, 30288.00
723.0450, 29913.00
724.1970, 29574.00
725.3480, 29241.00
726.4990, 29022.00
727.6500, 29126.00
728.8010, 28113.00
729.9510, 27418.00
731.1020, 27659.00
732.2520, 26556.00
733.4020, 26631.00
734.5520, 26409.00
735.7020, 25631.00
736.8510, 25051.00
738.0010, 24831.00
739.1500, 24725.00
740.2990, 24415.00
741.4480, 24293.00
742.5970, 24261.00
743.7450, 24061.00
744.8940, 23940.00
746.0420, 23947.00
747.1900, 23818.00
748.3380, 23483.00
749.4860, 23920.00
750.6330, 23642.00
751.7810, 23786.00
752.9280, 24026.00
754.0750, 24151.00
755.2220, 24150.00
756.3690, 24226.00
757.5160, 24356.00
758.6620, 24413.00
759.8090, 24421.00
760.9550, 24472.00
762.1010, 24680.00
763.2470, 24554.00
764.3920, 24602.36
765.5380, 24519.00
766.6830, 24366.00
767.8280, 24552.37
768.9730, 24132.00
770.1180, 24203.00
771.2630, 23942.00
772.4070, 23689.00
773.5520, 23602.00
774.6960, 23268.04
775.8400, 23007.00
776.9840, 22713.00
778.1280, 22438.32
779.2710, 22172.29
780.4140, 21992.00
781.5580, 21484.00
782.7010, 21230.00
783.8440, 20919.00
784.9860, 20750.00
786.1290, 20505.00
787.2710, 20204.00
788.4140, 20026.00
789.5560, 19947.00
790.6980, 19736.00
791.8390, 19556.00
792.9810, 19347.00
794.1220, 19075.00
795.2640, 18867.00
796.4050, 18722.00
797.5460, 18649.00
798.6860, 18450.00
799.8270, 18539.00
800.9680, 18263.00
802.1080, 18023.00
803.2480, 18169.00
804.3880, 17966.00
805.5280, 17829.00
806.6670, 17628.00
807.8070, 17593.00
808.9460, 17633.00
810.0850, 17560.00
811.2240, 17500.00
812.3630, 17412.00
813.5020, 17525.00
814.6400, 17286.00
815.7790, 17099.00
816.9170, 17189.00
818.0550, 17266.00
819.1930, 17146.00
820.3300, 17092.00
821.4680, 17099.15
822.6050, 17022.54
823.7430, 17100.00
824.8800, 16948.00
826.0170, 17016.00
827.1530, 16977.00
828.2900, 16953.00
829.4260, 17012.67
830.5620, 16916.00
831.6990, 17027.77
832.8340, 16978.00
833.9700, 16830.00
835.1060, 16830.00
836.2410, 16815.35
837.3760, 16919.00
838.5120, 16877.00
839.6470, 16914.00
840.7810, 16974.00
841.9160, 16924.00
843.0500, 17054.00
844.1850, 17063.00
845.3190, 16970.00
846.4530, 16999.00
847.5870, 17025.00
848.7200, 17152.00
849.8540, 17158.91
850.9870, 17143.58
852.1200, 17171.00
853.2530, 17119.00
854.3860, 16968.00
855.5190, 17083.00
856.6510, 17144.00
857.7840, 17267.00
858.9160, 17182.00
860.0480, 17282.00
861.1800, 17175.00
862.3110, 17191.00
863.4430, 17453.00
864.5740, 17393.01
865.7060, 17418.33
866.8370, 17571.00
867.9680, 17316.00
869.0980, 17492.00
870.2290, 17419.00
871.3590, 17491.00
872.4900, 17658.00
873.6200, 17557.00
874.7500, 17522.00
875.8790, 17501.00
877.0090, 17598.00
878.1380, 17563.81
879.2680, 17740.00
880.3970, 17654.00
881.5260, 17681.00
882.6550, 17867.00
883.7830, 17753.00
884.9120, 17896.00
886.0400, 17886.00
887.1680, 17839.00
888.2960, 18008.00
889.4240, 17978.00
890.5520, 17940.00
891.6790, 18027.00
892.8070, 18162.00
893.9340, 18097.00
895.0610, 18290.00
896.1880, 18327.00
897.3140, 18261.00
898.4410, 18510.00
899.5670, 18306.00
900.6940, 18376.00
901.8200, 18594.00
902.9450, 18723.00
904.0710, 18444.00
905.1970, 18564.00
906.3220, 18756.00
907.4470, 18665.00
908.5730, 18815.00
909.6980, 18625.00
910.8220, 18780.00
911.9470, 18800.00
913.0710, 18765.00
914.1960, 19042.00
915.3200, 18799.00
916.4440, 19147.00
917.5680, 18975.00
918.6910, 19321.00
919.8150, 19757.00
920.9380, 18958.00
922.0610, 19147.00
923.1840, 19174.00
924.3070, 19327.00
925.4300, 19322.00
926.5520, 19148.00
927.6750, 19149.00
928.7970, 19199.00
929.9190, 19449.00
931.0410, 19481.68
932.1630, 19403.00
933.2840, 19912.00
934.4060, 19691.13
935.5270, 19713.36
936.6480, 19577.00
937.7690, 19517.00
938.8900, 19466.00
940.0100, 19439.00
941.1310, 19624.04
942.2510, 19554.58
943.3710, 19607.11
944.4910, 19593.00
945.6110, 19597.00
946.7310, 19648.00
947.8500, 19572.00
948.9690, 19701.00
950.0890, 19862.00
951.2080, 19655.00
952.3260, 19549.00
953.4450, 19807.00
954.5640, 19751.00
955.6820, 19885.00
956.8000, 19545.00
957.9180, 19711.00
959.0360, 19595.84
960.1540, 19781.00
961.2710, 19648.00
962.3890, 19498.00
963.5060, 19874.00
964.6230, 19707.00
965.7400, 19513.00
966.8570, 19497.00
967.9730, 19487.00
969.0900, 19586.00
970.2060, 19544.00
971.3220, 19468.00
972.4380, 19531.00
973.5540, 19555.00
974.6700, 19580.00
975.7850, 19662.00
976.9010, 19666.55
978.0160, 19686.54
979.1310, 19704.00
980.2460, 19778.00
981.3600, 19781.00
982.4750, 20012.00
983.5890, 19955.00
984.7030, 20003.00
985.8170, 19849.00
986.9310, 20008.00
988.0450, 20077.00
989.1590, 20039.00
990.2720, 20153.65
991.3850, 20079.00
992.4980, 20181.00
993.6110, 20226.00
994.7240, 20080.00
995.8370, 20323.00
996.9490, 20208.00
998.0620, 20236.00
999.1740, 20333.00
1000.286, 20194.00
1001.398, 20372.00
1002.509, 20329.00
1003.621, 20505.00
1004.732, 20468.00
1005.843, 20461.00
1006.954, 20559.00
1008.065, 20725.00
1009.176, 20871.00
1010.286, 20960.55
1011.397, 21081.00
1012.507, 21154.00
1013.617, 21137.00
1014.727, 21231.00
1015.837, 21282.13
1016.946, 21341.85
1018.056, 21481.00
1019.165, 21494.00
1020.274, 21711.00
1021.383, 21797.00
1022.492, 21842.00
1023.601, 21856.00
1024.709, 21782.74
1025.817, 21646.00
1026.926, 21592.00
1028.034, 21649.00
1029.141, 21645.00
1030.249, 21515.00
1031.357, 21546.00
1032.464, 21359.00
1033.571, 21260.00
1034.678, 21036.00
1035.785, 20974.00
1036.892, 20978.00
1037.999, 20947.00
1039.105, 20830.00
1040.211, 20876.69
1041.317, 20941.00
1042.423, 20886.00
1043.529, 20784.00
1044.635, 20743.00
1045.740, 20793.00
1046.845, 20524.00
1047.951, 20764.00
1049.056, 20917.00
1050.160, 20791.00
1051.265, 20788.82
1052.370, 20863.00
1053.474, 20612.00
1054.578, 20686.00
1055.682, 20898.00
1056.786, 20772.00
1057.890, 20847.00
1058.993, 20770.00
1060.097, 20653.00
1061.200, 20793.00
1062.303, 20877.00
1063.406, 20732.00
1064.509, 20799.00
1065.612, 20809.00
1066.714, 20616.00
1067.816, 20611.00
1068.919, 20618.00
1070.021, 20430.00
1071.122, 20633.00
1072.224, 20563.00
1073.326, 20410.00
1074.427, 20534.00
1075.528, 20503.00
1076.629, 20495.00
1077.730, 20371.00
1078.831, 20449.00
1079.931, 20367.00
1081.032, 20205.00
1082.132, 20715.08
1083.232, 20386.71
1084.332, 20341.79
1085.432, 20181.00
1086.531, 20027.00
1087.631, 20027.00
1088.730, 20075.00
1089.829, 20063.00
1090.928, 19910.00
1092.027, 19838.00
1093.126, 19920.00
1094.224, 19636.00
1095.323, 19666.00
1096.421, 19472.00
1097.519, 19517.00
1098.617, 19622.00
1099.715, 19556.00
1100.812, 19423.00
1101.910, 19397.00
1103.007, 19350.00
1104.104, 19360.00
1105.201, 19308.00
1106.298, 19200.00
1107.394, 19135.00
1108.491, 19139.00
1109.587, 19162.00
1110.683, 19067.00
1111.779, 19179.00
1112.875, 19099.00
1113.971, 19121.00
1115.066, 19144.00
1116.162, 19128.00
1117.257, 19004.44
1118.352, 19156.69
1119.447, 19235.19
1120.542, 19243.91
1121.636, 18973.85
1122.731, 19063.78
1123.825, 19009.45
1124.919, 18949.21
1126.013, 19089.82
1127.107, 18860.31
1128.200, 18997.76
1129.294, 18988.71
1130.387, 19046.71
1131.480, 18959.56
1132.573, 18917.23
1133.666, 19020.12
1134.759, 19042.61
1135.851, 18938.76
1136.944, 19001.02
1138.036, 18766.47
1139.128, 18792.39
1140.220, 18930.70
1141.312, 18834.15
1142.403, 18899.10
1143.495, 18902.53
1144.586, 18626.46
1145.677, 18836.50
1146.768, 18836.31
1147.859, 18620.27
1148.950, 18813.65
1150.040, 18627.38
1151.130, 18576.62
1152.221, 18627.84
1153.311, 18572.76
1154.401, 18685.29
1155.490, 18636.36
1156.580, 18572.99
1157.669, 18572.60
1158.759, 18393.77
1159.848, 18545.96
1160.937, 18472.04
1162.025, 18510.54
1163.114, 18471.00
1164.202, 18443.00
1165.291, 18318.00
1166.379, 18535.00
1167.467, 18360.00
1168.555, 18445.00
1169.642, 18395.00
1170.730, 18514.00
1171.817, 18391.00
1172.905, 18354.00
1173.992, 18397.00
1175.078, 18292.00
1176.165, 18295.00
1177.252, 18467.00
1178.338, 18427.00
1179.425, 18342.00
1180.511, 18370.00
1181.597, 18250.00
1182.682, 18304.00
1183.768, 18420.00
1184.854, 18410.00
1185.939, 18292.00
1187.024, 18418.00
1188.109, 18291.00
1189.194, 18283.00
1190.279, 18420.00
1191.363, 18204.00
1192.448, 18278.00
1193.532, 18329.00
1194.616, 18269.32
1195.700, 18284.62
1196.784, 18295.00
1197.867, 18173.00
1198.951, 18180.00
1200.034, 18051.04
1201.117, 18325.00
1202.200, 18040.00
1203.283, 18313.00
1204.366, 18447.00
1205.448, 18348.00
1206.531, 18400.00
1207.613, 18266.00
1208.695, 18259.00
1209.777, 18100.00
1210.859, 18341.00
1211.940, 18367.00
1213.022, 18291.00
1214.103, 18336.00
1215.184, 18222.00
1216.265, 18318.00
1217.346, 18268.00
1218.427, 18406.00
1219.507, 18382.53
1220.587, 18236.00
1221.668, 18321.00
1222.748, 18309.00
1223.828, 18142.00
1224.907, 18392.00
1225.987, 18358.00
1227.066, 18222.00
1228.146, 18332.00
1229.225, 18336.00
1230.304, 18386.00
1231.382, 18472.00
1232.461, 18390.00
1233.540, 18325.00
1234.618, 18310.00
1235.696, 18255.37
1236.774, 18344.00
1237.852, 18238.00
1238.930, 18281.00
1240.007, 18366.00
1241.085, 18697.00
1242.162, 18588.24
1243.239, 18555.00
1244.316, 18528.00
1245.393, 18466.00
1246.469, 18425.00
1247.546, 18312.00
1248.622, 18344.00
1249.698, 18381.00
1250.774, 18323.00
1251.850, 18367.68
1252.926, 18448.00
1254.001, 18396.00
1255.077, 18350.00
1256.152, 18367.80
1257.227, 18338.55
1258.302, 18441.00
1259.377, 18326.00
1260.451, 18404.00
1261.526, 18384.00
1262.600, 18229.00
1263.674, 18270.00
1264.748, 18304.00
1265.822, 18453.00
1266.896, 18433.00
1267.969, 18459.00
1269.043, 18569.00
1270.116, 18560.00
1271.189, 18529.00
1272.262, 18316.00
1273.335, 18398.00
1274.407, 18687.00
1275.480, 18367.00
1276.552, 18508.00
1277.624, 18626.00
1278.696, 18427.00
1279.768, 18513.00
1280.840, 18555.00
1281.911, 18548.00
1282.982, 18563.00
1284.054, 18577.99
1285.125, 18540.00
1286.196, 18586.00
1287.266, 18595.00
1288.337, 18575.00
1289.407, 18637.00
1290.478, 18571.96
1291.548, 18487.00
1292.618, 18509.00
1293.688, 18482.00
1294.757, 18532.00
1295.827, 18465.00
1296.896, 18804.00
1297.965, 18662.11
1299.034, 18664.00
1300.103, 18630.00
1301.172, 18471.00
1302.241, 18548.00
1303.309, 18579.00
1304.377, 18455.00
1305.445, 18628.00
1306.513, 18538.00
1307.581, 18732.00
1308.649, 18566.00
1309.716, 18578.00
1310.784, 18647.00
1311.851, 18582.00
1312.918, 18712.00
1313.985, 18651.00
1315.052, 19090.00
1316.118, 18481.00
1317.185, 18567.00
1318.251, 18797.00
1319.317, 18528.00
1320.383, 18689.00
1321.449, 18737.00
1322.514, 18636.00
1323.580, 18723.00
1324.645, 18568.00
1325.711, 18763.00
1326.776, 18642.00
1327.840, 18700.00
1328.905, 18726.00
1329.970, 18746.00
1331.034, 18808.00
1332.099, 18733.00
1333.163, 18751.00
1334.227, 18797.00
1335.290, 18736.00
1336.354, 18728.00
1337.418, 18757.99
1338.481, 18945.00
1339.544, 18739.00
1340.607, 18862.00
1341.670, 18711.00
1342.733, 18840.00
1343.795, 18769.00
1344.858, 18676.00
1345.920, 18634.00
1346.982, 18809.00
1348.044, 18616.00
1349.106, 18787.00
1350.168, 18927.00
1351.229, 18750.00
1352.291, 18963.00
1353.352, 18766.00
1354.413, 18697.00
1355.474, 18708.00
1356.534, 18632.28
1357.595, 18784.00
1358.656, 18664.00
1359.716, 18824.00
1360.776, 18940.00
1361.836, 18986.90
1362.896, 19081.00
1363.955, 19074.00
1365.015, 18929.00
1366.074, 18992.03
1367.134, 18943.00
1368.193, 18981.00
1369.252, 19014.00
1370.310, 19043.86
1371.369, 19057.91
1372.427, 18922.00
1373.486, 19037.00
1374.544, 18952.00
1375.602, 18851.00
1376.660, 18997.00
1377.717, 18827.00
1378.775, 18917.00
1379.832, 19021.00
1380.889, 19090.00
1381.946, 18890.00
1383.003, 18907.00
1384.060, 18847.00
1385.117, 19067.00
1386.173, 19027.00
1387.230, 18948.00
1388.286, 18848.00
1389.342, 19040.00
1390.398, 18843.00
1391.453, 19167.00
1392.509, 19124.00
1393.564, 19188.71
1394.619, 19157.53
1395.675, 19284.00
1396.729, 19046.00
1397.784, 18973.00
1398.839, 19162.00
1399.893, 19248.00
1400.948, 19205.00
1402.002, 19100.00
1403.056, 19068.00
1404.110, 19166.00
1405.163, 19212.00
1406.217, 19117.00
1407.270, 19099.00
1408.324, 19268.00
1409.377, 19355.00
1410.430, 19209.00
1411.483, 19238.00
1412.535, 19154.00
1413.588, 19413.00
1414.640, 19306.66
1415.692, 19400.61
1416.744, 19263.00
1417.796, 19434.00
1418.848, 19420.00
1419.900, 19279.00
1420.951, 19334.00
1422.002, 19279.00
1423.053, 19232.00
1424.104, 19468.00
1425.155, 19369.00
1426.206, 19229.00
1427.256, 19475.00
1428.307, 19499.00
1429.357, 19452.00
1430.407, 19548.11
1431.457, 19619.00
1432.507, 19566.00
1433.556, 19666.00
1434.606, 19700.00
1435.655, 19673.98
1436.704, 19424.00
1437.753, 19607.00
1438.802, 19414.00
1439.851, 19288.00
1440.899, 19427.00
1441.948, 19250.00
1442.996, 19483.00
1444.044, 19330.00
1445.092, 19436.00
1446.140, 19228.92
1447.187, 19398.56
1448.235, 19494.45
1449.282, 19520.56
1450.329, 19267.87
1451.376, 19375.18
1452.423, 19338.22
1453.470, 19295.35
1454.517, 19453.34
1455.563, 19448.00
1456.609, 19554.00
1457.655, 19671.00
1458.701, 19407.00
1459.747, 19612.00
1460.793, 19616.90
1461.838, 19809.00
1462.884, 19806.00
1463.929, 19473.00
1464.974, 19571.00
1466.019, 19542.00
1467.064, 19656.00
1468.108, 19549.00
1469.153, 19618.00
1470.197, 19671.00
1471.241, 19431.00
1472.285, 19596.00
1473.329, 19608.00
1474.373, 19693.00
1475.416, 19639.00
1476.460, 19651.00
1477.503, 19667.00
1478.546, 19589.00
1479.589, 19684.00
1480.632, 19694.00
1481.674, 19604.00
1482.717, 19717.00
1483.759, 19647.00
1484.801, 19677.00
1485.843, 19829.00
1486.885, 19767.00
1487.927, 19736.00
1488.968, 19775.00
1490.010, 19713.00
1491.051, 19812.00
1492.092, 19821.00
1493.133, 19855.00
1494.174, 19847.00
1495.215, 19838.00
1496.255, 19858.79
1497.296, 19729.00
1498.336, 19847.00
1499.376, 19718.98
1500.416, 19633.00
1501.456, 19698.00
1502.495, 19806.00
1503.535, 19931.00
1504.574, 19695.00
1505.613, 19837.00
1506.652, 19910.00
1507.691, 20066.00
1508.730, 19901.41
1509.768, 19914.00
1510.807, 19785.00
1511.845, 19751.00
1512.883, 19793.76
1513.921, 19761.38
1514.959, 19907.00
1515.996, 19887.00
1517.034, 19955.30
1518.071, 20171.00
1519.109, 19942.00
1520.146, 19733.00
1521.183, 19796.00
1522.219, 19859.00
1523.256, 19875.00
1524.292, 19869.05
1525.329, 19867.27
1526.365, 19794.00
1527.401, 19808.00
1528.437, 19750.99
1529.472, 19711.05
1530.508, 19783.00
1531.543, 19705.00
1532.579, 19861.00
1533.614, 19927.00
1534.649, 19863.00
1535.683, 19806.00
1536.718, 19867.00
1537.753, 19870.00
1538.787, 19881.00
1539.821, 19941.00
1540.855, 19893.00
1541.889, 19910.38
1542.923, 19875.00
1543.956, 19923.00
1544.990, 19980.00
1546.023, 20069.00
1547.056, 19984.76
1548.089, 20166.88
1549.122, 20275.24
1550.155, 20313.82
1551.187, 20073.60
1552.220, 20193.39
1553.252, 20168.89
1554.284, 20138.48
1555.316, 20308.93
1556.348, 20109.26
1557.379, 20276.51
1558.411, 20297.30
1559.442, 20385.11
1560.474, 20327.77
1561.505, 20100.00
1562.535, 20039.72
1563.566, 19959.00
1564.597, 19991.00
1565.627, 20044.00
1566.658, 20121.00
1567.688, 20102.00
1568.718, 20261.00
1569.748, 20162.00
1570.777, 20287.00
##END=



