##NAMES=Annite
##RRUFFID=R060211
##IDEAL CHEMISTRY=KFe^2+^_3_AlSi_3_O_10_(OH)_2_
##LOCALITY=Mont Saint-Hilaire, Rouville County, Quebec, Canada
##OWNER=RRUFF
##SOURCE=Royal Ontario Museum
##DESCRIPTION=Black mica
##STATUS=The identification of this mineral has been confirmed by X-ray diffraction and chemical analysis
##URL=rruff.info/R060211
##MEASURED CHEMISTRY=(K_0.94_[box]_0.03_Na_0.02_)_Σ=1_(Fe^2+^_2.07_Mg_0.57_Mn_0.33_Ti_0.03_)_Σ=3_(Si_2.98_Al_1.02_)O_10_((OH)_1.72_F_0.28_)_Σ=2_
##PIN_ID=L01073
##ORIENTATION=Laser parallel to c* (0 0 1). Fiducial mark perpendicular to laser is parallel to a [1 0 0]
230.8490, 54666.00
232.0700, 54667.00
233.2910, 54892.00
234.5120, 54976.00
235.7320, 55053.00
236.9530, 54880.00
238.1730, 54989.00
239.3930, 55124.00
240.6130, 54481.00
241.8320, 54735.00
243.0520, 54886.00
244.2710, 54515.00
245.4900, 54757.00
246.7090, 55543.00
247.9280, 54978.00
249.1470, 55175.00
250.3650, 54183.00
251.5840, 55152.00
252.8020, 55093.00
254.0200, 54319.14
255.2370, 54565.75
256.4550, 54737.29
257.6720, 54837.67
258.8900, 54654.05
260.1070, 54837.16
261.3240, 54873.29
262.5400, 54903.32
263.7570, 55138.06
264.9730, 54995.62
266.1900, 55227.12
267.4060, 55309.32
268.6220, 55459.81
269.8370, 55462.34
271.0530, 55939.00
272.2680, 55067.00
273.4830, 54831.00
274.6980, 55185.00
275.9130, 55054.00
277.1280, 55340.00
278.3420, 55149.00
279.5570, 54549.00
280.7710, 55138.00
281.9850, 54925.00
283.1990, 54525.00
284.4120, 54725.00
285.6260, 54598.00
286.8390, 54320.00
288.0520, 53410.00
289.2650, 54059.00
290.4780, 53616.00
291.6910, 53830.00
292.9030, 53678.00
294.1160, 53627.00
295.3280, 54432.00
296.5400, 53794.00
297.7510, 54602.00
298.9630, 53847.00
300.1740, 53426.00
301.3860, 53347.00
302.5970, 53201.00
303.8080, 53165.00
305.0180, 53146.00
306.2290, 53095.38
307.4390, 53161.00
308.6500, 53149.00
309.8600, 53278.00
311.0700, 53472.00
312.2790, 53227.00
313.4890, 52985.00
314.6980, 53248.00
315.9080, 53429.00
317.1170, 53397.00
318.3250, 53341.00
319.5340, 53280.00
320.7430, 52862.00
321.9510, 53275.00
323.1590, 53086.00
324.3670, 53574.00
325.5750, 53339.00
326.7830, 53309.00
327.9900, 53655.00
329.1980, 53419.00
330.4050, 53278.00
331.6120, 53120.00
332.8190, 53352.00
334.0250, 53305.00
335.2320, 53459.00
336.4380, 53617.00
337.6440, 53723.00
338.8500, 53659.00
340.0560, 53623.00
341.2620, 53890.00
342.4670, 53840.00
343.6730, 53966.00
344.8780, 54115.00
346.0830, 54080.00
347.2870, 54108.00
348.4920, 54212.54
349.6970, 54063.00
350.9010, 54273.00
352.1050, 54214.00
353.3090, 54001.00
354.5130, 54204.47
355.7160, 53988.00
356.9200, 54282.00
358.1230, 54016.00
359.3260, 53805.00
360.5290, 54035.00
361.7320, 53664.00
362.9340, 53575.00
364.1370, 53729.00
365.3390, 54226.00
366.5410, 54109.00
367.7430, 54054.00
368.9450, 53956.00
370.1460, 54014.00
371.3480, 53843.00
372.5490, 53848.14
373.7500, 53919.00
374.9510, 53832.66
376.1520, 53811.06
377.3520, 53918.00
378.5520, 53937.00
379.7530, 53651.00
380.9530, 54079.00
382.1530, 53927.00
383.3520, 53890.00
384.5520, 54211.00
385.7510, 54322.00
386.9500, 54271.00
388.1490, 54156.00
389.3480, 53936.00
390.5470, 54232.00
391.7450, 54244.00
392.9440, 54374.00
394.1420, 54183.00
395.3400, 54478.00
396.5380, 54273.00
397.7350, 54697.00
398.9330, 54337.00
400.1300, 54170.00
401.3270, 54496.00
402.5240, 54168.00
403.7210, 54614.00
404.9180, 54457.00
406.1140, 54316.00
407.3110, 54237.00
408.5070, 54241.00
409.7030, 54210.00
410.8990, 54183.00
412.0940, 54103.00
413.2900, 54273.00
414.4850, 53936.00
415.6800, 54205.00
416.8750, 54374.00
418.0700, 53888.00
419.2650, 54403.00
420.4590, 54031.00
421.6530, 53935.00
422.8470, 53869.00
424.0410, 53821.00
425.2350, 54006.00
426.4290, 53803.00
427.6220, 53766.00
428.8160, 53880.00
430.0090, 53646.00
431.2020, 53746.00
432.3940, 53711.00
433.5870, 53854.00
434.7790, 53344.00
435.9720, 53416.00
437.1640, 53305.00
438.3560, 53368.00
439.5470, 53267.00
440.7390, 53332.00
441.9300, 53280.00
443.1220, 53404.00
444.3130, 53499.00
445.5040, 53503.26
446.6940, 53508.00
447.8850, 53645.00
449.0750, 53578.71
450.2660, 53234.00
451.4560, 53555.00
452.6460, 53525.00
453.8350, 53574.00
455.0250, 53819.00
456.2140, 53542.00
457.4040, 53650.00
458.5930, 53521.00
459.7820, 53892.00
460.9700, 54159.00
462.1590, 54099.00
463.3470, 54273.00
464.5350, 54129.00
465.7240, 54099.00
466.9110, 54286.00
468.0990, 54517.00
469.2870, 54983.00
470.4740, 54577.00
471.6610, 55003.00
472.8480, 54949.00
474.0350, 55283.00
475.2220, 55002.00
476.4090, 55365.00
477.5950, 55336.00
478.7810, 55652.00
479.9670, 55892.00
481.1530, 55972.00
482.3390, 55933.00
483.5240, 56113.00
484.7100, 56374.00
485.8950, 56336.00
487.0800, 56635.00
488.2650, 57088.00
489.4490, 56920.00
490.6340, 56996.00
491.8180, 56964.00
493.0030, 57379.00
494.1870, 57329.00
495.3700, 57598.00
496.5540, 57821.00
497.7380, 57787.49
498.9210, 57884.00
500.1040, 57899.00
501.2870, 57948.01
502.4700, 58031.18
503.6530, 58119.00
504.8350, 58176.00
506.0180, 58387.00
507.2000, 58450.00
508.3820, 58812.00
509.5640, 58863.00
510.7450, 59185.00
511.9270, 59051.00
513.1080, 59408.00
514.2890, 59511.00
515.4700, 59384.00
516.6510, 59410.00
517.8320, 59306.00
519.0130, 59425.00
520.1930, 59895.00
521.3730, 59751.00
522.5530, 60209.00
523.7330, 59934.00
524.9130, 60200.00
526.0920, 60710.00
527.2710, 60582.00
528.4510, 60718.00
529.6300, 60475.00
530.8080, 60361.00
531.9870, 60769.00
533.1660, 60497.00
534.3440, 60724.00
535.5220, 60683.64
536.7000, 61002.00
537.8780, 60711.00
539.0560, 60334.00
540.2330, 60606.00
541.4110, 60173.00
542.5880, 60448.00
543.7650, 60078.00
544.9420, 59809.00
546.1180, 59916.00
547.2950, 59510.00
548.4710, 59323.00
549.6470, 59254.00
550.8230, 59261.00
551.9990, 58985.00
553.1750, 59020.00
554.3500, 58432.00
555.5260, 58512.00
556.7010, 58834.00
557.8760, 58228.00
559.0510, 57788.00
560.2250, 57542.00
561.4000, 57582.00
562.5740, 57623.00
563.7480, 57485.00
564.9220, 58073.00
566.0960, 57500.43
567.2700, 57663.00
568.4430, 56794.00
569.6170, 56664.00
570.7900, 56615.00
571.9630, 56526.00
573.1360, 56527.00
574.3080, 56191.00
575.4810, 56080.00
576.6530, 56133.00
577.8250, 56383.00
578.9980, 56060.00
580.1690, 56079.00
581.3410, 55552.00
582.5130, 55559.00
583.6840, 55766.00
584.8550, 55451.00
586.0260, 55343.00
587.1970, 55538.00
588.3680, 55444.00
589.5380, 55480.49
590.7080, 55420.51
591.8790, 55426.00
593.0490, 55353.00
594.2190, 55157.00
595.3880, 55415.00
596.5580, 55575.00
597.7270, 55088.00
598.8960, 55744.00
600.0650, 55338.00
601.2340, 55424.00
602.4030, 55486.65
603.5710, 55497.45
604.7400, 55399.00
605.9080, 55771.00
607.0760, 55789.00
608.2440, 55829.00
609.4120, 55606.00
610.5790, 56003.00
611.7460, 55861.00
612.9140, 55807.00
614.0810, 56006.00
615.2480, 56244.00
616.4140, 56382.00
617.5810, 56341.00
618.7470, 56099.00
619.9130, 56098.00
621.0790, 56288.00
622.2450, 56665.00
623.4110, 56273.00
624.5770, 56583.00
625.7420, 56449.00
626.9070, 56443.00
628.0720, 56754.00
629.2370, 56768.00
630.4020, 56971.00
631.5660, 56713.00
632.7310, 56526.00
633.8950, 56838.00
635.0590, 57019.00
636.2230, 57023.00
637.3870, 57289.00
638.5500, 57285.00
639.7140, 57633.00
640.8770, 57480.00
642.0400, 57671.00
643.2030, 57846.00
644.3660, 58038.00
645.5280, 58490.00
646.6910, 58148.00
647.8530, 58399.00
649.0150, 58647.00
650.1770, 59063.00
651.3390, 59476.00
652.5000, 59723.00
653.6620, 59842.00
654.8230, 60135.00
655.9840, 60618.00
657.1450, 61216.00
658.3060, 61548.00
659.4660, 62071.00
660.6270, 62594.00
661.7870, 63069.00
662.9470, 63170.00
664.1070, 63743.00
665.2670, 63814.00
666.4260, 63735.00
667.5860, 64476.00
668.7450, 64346.00
669.9040, 64232.00
671.0630, 63668.00
672.2220, 63529.00
673.3800, 63430.00
674.5390, 62736.00
675.6970, 62593.00
676.8550, 62499.00
678.0130, 61729.00
679.1710, 61527.00
680.3290, 61170.00
681.4860, 60962.00
682.6430, 60740.30
683.8000, 60599.00
684.9570, 60372.00
686.1140, 60285.00
687.2710, 60183.00
688.4270, 60088.00
689.5840, 60049.00
690.7400, 60034.00
691.8960, 60081.00
693.0520, 59998.00
694.2070, 60200.00
695.3630, 60469.00
696.5180, 60254.00
697.6730, 60483.00
698.8280, 60138.00
699.9830, 60339.00
701.1380, 60680.00
702.2920, 60382.00
703.4470, 60757.00
704.6010, 60647.00
705.7550, 61053.00
706.9090, 60956.00
708.0620, 60944.00
709.2160, 61112.00
710.3690, 60949.00
711.5220, 61434.00
712.6750, 61281.00
713.8280, 61369.00
714.9810, 61153.00
716.1340, 61562.00
717.2860, 61472.00
718.4380, 61265.00
719.5900, 61497.00
720.7420, 61251.00
721.8940, 61320.00
723.0450, 61117.00
724.1970, 60639.00
725.3480, 61016.00
726.4990, 60793.00
727.6500, 60610.00
728.8010, 60716.00
729.9510, 60512.00
731.1020, 60622.00
732.2520, 60324.00
733.4020, 60442.00
734.5520, 60511.00
735.7020, 60460.00
736.8510, 60397.00
738.0010, 60475.00
739.1500, 60762.00
740.2990, 60706.00
741.4480, 60803.20
742.5970, 61191.00
743.7450, 60819.00
744.8940, 61114.00
746.0420, 61111.00
747.1900, 61321.00
748.3380, 61511.00
749.4860, 61500.00
750.6330, 61478.00
751.7810, 61765.00
752.9280, 61707.00
754.0750, 61676.00
755.2220, 62439.00
756.3690, 62921.00
757.5160, 62240.00
758.6620, 62440.00
759.8090, 62399.00
760.9550, 62675.00
762.1010, 62728.66
763.2470, 62564.00
764.3920, 62870.00
765.5380, 63189.00
766.6830, 63141.00
767.8280, 62950.00
768.9730, 62952.00
770.1180, 62446.00
771.2630, 62716.00
772.4070, 62697.00
773.5520, 62307.00
774.6960, 62713.00
775.8400, 62438.00
776.9840, 62201.00
778.1280, 62343.00
779.2710, 62022.23
780.4140, 62209.00
781.5580, 61509.00
782.7010, 61621.00
783.8440, 61054.00
784.9860, 60815.00
786.1290, 60216.00
787.2710, 60333.00
788.4140, 60092.00
789.5560, 59460.00
790.6980, 59461.00
791.8390, 58926.00
792.9810, 58980.00
794.1220, 59192.00
795.2640, 58975.00
796.4050, 58346.00
797.5460, 58072.00
798.6860, 57702.00
799.8270, 57695.00
800.9680, 57356.00
802.1080, 57524.00
803.2480, 57203.00
804.3880, 57004.00
805.5280, 57175.00
806.6670, 56989.00
807.8070, 56724.00
808.9460, 56743.00
810.0850, 56728.00
811.2240, 56527.00
812.3630, 56580.18
813.5020, 56408.00
814.6400, 56504.00
815.7790, 56317.00
816.9170, 56180.00
818.0550, 56524.00
819.1930, 56481.00
820.3300, 56406.00
821.4680, 56443.00
822.6050, 56504.00
823.7430, 56453.74
824.8800, 56753.00
826.0170, 56496.00
827.1530, 56349.00
828.2900, 56514.00
829.4260, 56780.00
830.5620, 56636.78
831.6990, 56768.75
832.8340, 56643.00
833.9700, 56729.00
835.1060, 56931.00
836.2410, 56855.00
837.3760, 56805.00
838.5120, 56800.00
839.6470, 57109.00
840.7810, 56637.00
841.9160, 56707.00
843.0500, 57096.00
844.1850, 57290.00
845.3190, 57052.00
846.4530, 56743.00
847.5870, 56968.00
848.7200, 56981.00
849.8540, 57218.00
850.9870, 57338.00
852.1200, 57003.00
853.2530, 57331.00
854.3860, 57352.00
855.5190, 57603.00
856.6510, 57910.00
857.7840, 57926.00
858.9160, 57697.00
860.0480, 57865.00
861.1800, 57683.00
862.3110, 57732.00
863.4430, 58008.00
864.5740, 57789.00
865.7060, 58223.00
866.8370, 58194.00
867.9680, 58183.00
869.0980, 58388.00
870.2290, 58351.57
871.3590, 58853.00
872.4900, 58427.00
873.6200, 58782.00
874.7500, 58809.00
875.8790, 58798.00
877.0090, 59011.00
878.1380, 58937.00
879.2680, 58728.00
880.3970, 58647.00
881.5260, 58571.27
882.6550, 58554.05
883.7830, 58578.00
884.9120, 58645.00
886.0400, 58915.00
887.1680, 59023.00
888.2960, 59061.84
889.4240, 58689.00
890.5520, 58971.00
891.6790, 58741.00
892.8070, 58406.00
893.9340, 58482.00
895.0610, 58544.00
896.1880, 58902.00
897.3140, 58659.00
898.4410, 58720.00
899.5670, 58916.00
900.6940, 59001.00
901.8200, 58913.00
902.9450, 58527.00
904.0710, 59050.00
905.1970, 58772.00
906.3220, 58853.00
907.4470, 59489.00
908.5730, 59206.00
909.6980, 58837.00
910.8220, 59101.00
911.9470, 59117.00
913.0710, 59110.00
914.1960, 59098.00
915.3200, 59147.73
916.4440, 59260.00
917.5680, 59161.00
918.6910, 59233.00
919.8150, 59067.00
920.9380, 59291.00
922.0610, 59315.00
923.1840, 59154.00
924.3070, 59529.00
925.4300, 59601.00
926.5520, 59455.00
927.6750, 59431.00
928.7970, 59484.00
929.9190, 59347.00
931.0410, 59487.55
932.1630, 59962.00
933.2840, 59514.00
934.4060, 59899.00
935.5270, 59534.00
936.6480, 59772.00
937.7690, 59787.00
938.8900, 60061.00
940.0100, 59814.00
941.1310, 59889.00
942.2510, 59652.00
943.3710, 59643.00
944.4910, 59747.00
945.6110, 59446.00
946.7310, 59684.00
947.8500, 59612.00
948.9690, 59439.00
950.0890, 59825.00
951.2080, 59741.00
952.3260, 59311.00
953.4450, 59351.00
954.5640, 59212.00
955.6820, 59321.00
956.8000, 59102.00
957.9180, 59015.00
959.0360, 59232.00
960.1540, 58952.00
961.2710, 59058.00
962.3890, 59169.00
963.5060, 58901.00
964.6230, 58901.00
965.7400, 59111.00
966.8570, 58804.00
967.9730, 58801.00
969.0900, 59133.00
970.2060, 59006.00
971.3220, 58900.00
972.4380, 58885.00
973.5540, 58927.00
974.6700, 58922.00
975.7850, 58986.00
976.9010, 58898.00
978.0160, 59254.00
979.1310, 59343.00
980.2460, 59106.00
981.3600, 59417.00
982.4750, 59377.00
983.5890, 59412.00
984.7030, 59222.00
985.8170, 59049.00
986.9310, 59109.00
988.0450, 59098.00
989.1590, 59208.00
990.2720, 59332.00
991.3850, 59593.00
992.4980, 59583.00
993.6110, 59427.00
994.7240, 59860.00
995.8370, 59618.00
996.9490, 59717.00
998.0620, 59644.00
999.1740, 59667.00
1000.286, 60036.00
1001.398, 59855.00
1002.509, 60074.00
1003.621, 60223.00
1004.732, 59959.00
1005.843, 60247.00
1006.954, 59896.00
1008.065, 60378.00
1009.176, 60775.00
1010.286, 60782.00
1011.397, 60851.00
1012.507, 60823.00
1013.617, 60846.03
1014.727, 60712.00
1015.837, 60853.67
1016.946, 60902.48
1018.056, 60918.00
1019.165, 61090.00
1020.274, 61042.00
1021.383, 61089.00
1022.492, 60856.00
1023.601, 61046.00
1024.709, 60697.00
1025.817, 60783.00
1026.926, 60942.00
1028.034, 60773.00
1029.141, 60788.00
1030.249, 60584.00
1031.357, 60666.00
1032.464, 60667.00
1033.571, 60661.00
1034.678, 60821.00
1035.785, 60448.00
1036.892, 60696.00
1037.999, 60541.00
1039.105, 60825.00
1040.211, 60791.00
1041.317, 60944.00
1042.423, 60970.73
1043.529, 60787.00
1044.635, 60943.00
1045.740, 60848.00
1046.845, 60777.00
1047.951, 60752.00
1049.056, 60686.00
1050.160, 60530.00
1051.265, 60963.00
1052.370, 60637.00
1053.474, 60788.00
1054.578, 60802.00
1055.682, 60655.00
1056.786, 60692.00
1057.890, 61038.00
1058.993, 60622.00
1060.097, 60880.00
1061.200, 60876.00
1062.303, 60719.00
1063.406, 60931.00
1064.509, 60711.00
1065.612, 60585.21
1066.714, 60729.43
1067.816, 60798.50
1068.919, 60796.45
1070.021, 60510.36
1071.122, 60591.09
1072.224, 60524.81
1073.326, 60452.50
1074.427, 60584.86
1075.528, 60340.12
1076.629, 60469.23
1077.730, 60449.11
1078.831, 60497.29
1079.931, 60397.59
1081.032, 60343.55
1082.132, 60437.49
1083.232, 60449.51
1084.332, 60332.78
1085.432, 60385.33
1086.531, 60135.46
1087.631, 60150.97
1088.730, 60281.00
1089.829, 60171.74
1090.928, 60227.02
1092.027, 60219.63
1093.126, 59927.45
1094.224, 60130.57
1095.323, 60119.48
1096.421, 59888.48
1097.519, 60074.64
1098.617, 59873.96
1099.715, 59811.36
1100.812, 59852.70
1101.910, 59785.68
1103.007, 59889.48
1104.104, 59828.75
1105.201, 59753.31
1106.298, 59742.03
1107.394, 59548.99
1108.491, 59693.17
1109.587, 59607.00
1110.683, 59957.00
1111.779, 59595.00
1112.875, 59663.00
1113.971, 59464.00
1115.066, 59506.00
1116.162, 59625.00
1117.257, 59587.00
1118.352, 59582.00
1119.447, 59541.00
1120.542, 59578.00
1121.636, 59776.31
1122.731, 59648.22
1123.825, 59912.00
1124.919, 59637.00
1126.013, 59654.41
1127.107, 59659.83
1128.200, 59522.00
1129.294, 59729.00
1130.387, 59757.00
1131.480, 60075.00
1132.573, 59556.00
1133.666, 59553.00
1134.759, 59689.00
1135.851, 59466.00
1136.944, 59635.00
1138.036, 59461.00
1139.128, 59740.00
1140.220, 59359.00
1141.312, 59681.00
1142.403, 59454.61
1143.495, 59636.00
1144.586, 59742.24
1145.677, 59777.38
1146.768, 59528.46
1147.859, 59646.34
1148.950, 59617.22
1150.040, 59582.07
1151.130, 59751.57
1152.221, 59543.96
1153.311, 59710.22
1154.401, 59727.23
1155.490, 59812.54
1156.580, 59749.95
1157.669, 59733.04
1158.759, 59864.09
1159.848, 59913.20
1160.937, 59833.58
1162.025, 59923.22
1163.114, 59710.43
1164.202, 59763.03
1165.291, 59930.14
1166.379, 59857.94
1167.467, 59950.29
1168.555, 59979.96
1169.642, 59724.84
1170.730, 59965.01
1171.817, 59990.98
1172.905, 59797.02
1173.992, 60020.21
1175.078, 59856.56
1176.165, 59830.99
1177.252, 59909.34
1178.338, 59879.35
1179.425, 60020.15
1180.511, 59996.42
1181.597, 59957.98
1182.682, 59983.69
1183.768, 59827.62
1184.854, 60008.80
1185.939, 59959.61
1187.024, 60024.92
1188.109, 60116.19
1189.194, 60008.72
1190.279, 60111.65
1191.363, 59888.29
1192.448, 59937.95
1193.532, 59958.20
1194.616, 60152.96
1195.700, 59931.19
1196.784, 59973.25
1197.867, 60127.65
1198.951, 60124.87
1200.034, 60187.80
1201.117, 60056.17
1202.200, 60107.31
1203.283, 60108.07
1204.366, 60282.93
1205.448, 60320.34
1206.531, 60192.01
1207.613, 60064.37
1208.695, 60251.75
1209.777, 60140.55
1210.859, 60190.43
1211.940, 60073.94
1213.022, 60101.10
1214.103, 60125.97
1215.184, 60224.48
1216.265, 60099.71
1217.346, 60264.56
1218.427, 60262.02
1219.507, 60308.78
1220.587, 60350.05
1221.668, 60158.00
1222.748, 60127.00
1223.828, 60106.00
1224.907, 60333.00
1225.987, 60221.00
1227.066, 60223.00
1228.146, 60078.00
1229.225, 60068.00
1230.304, 60431.00
1231.382, 60418.00
1232.461, 60487.00
1233.540, 60508.00
1234.618, 60096.00
1235.696, 60416.00
1236.774, 60550.00
1237.852, 60214.00
1238.930, 60454.00
1240.007, 60366.00
1241.085, 60594.00
1242.162, 60546.00
1243.239, 60315.00
1244.316, 60389.00
1245.393, 60581.00
1246.469, 60244.00
1247.546, 60510.00
1248.622, 60613.00
1249.698, 60410.00
1250.774, 60458.00
1251.850, 60496.00
1252.926, 60782.00
1254.001, 60577.00
1255.077, 60560.00
1256.152, 60488.00
1257.227, 60868.00
1258.302, 60484.00
1259.377, 60686.00
1260.451, 61025.00
1261.526, 60656.00
1262.600, 60835.00
1263.674, 60803.05
1264.748, 60810.73
1265.822, 60850.00
1266.896, 60801.00
1267.969, 61019.00
1269.043, 60616.00
1270.116, 60673.00
1271.189, 61276.00
1272.262, 60860.00
1273.335, 60752.00
1274.407, 61248.00
1275.480, 61381.00
1276.552, 61214.00
1277.624, 61024.00
1278.696, 61190.00
1279.768, 60990.00
1280.840, 61018.00
1281.911, 61226.00
1282.982, 61467.00
1284.054, 61170.00
1285.125, 61211.00
1286.196, 61455.00
1287.266, 61087.00
1288.337, 61353.00
1289.407, 61254.00
1290.478, 61424.00
1291.548, 61385.00
1292.618, 61499.00
1293.688, 61229.00
1294.757, 61480.00
1295.827, 61335.00
1296.896, 61312.00
1297.965, 61452.00
1299.034, 61363.72
1300.103, 61599.00
1301.172, 61392.00
1302.241, 61686.00
1303.309, 61766.00
1304.377, 61345.00
1305.445, 61834.00
1306.513, 61739.00
1307.581, 61454.00
1308.649, 61631.00
1309.716, 61763.00
1310.784, 61442.00
1311.851, 61809.00
1312.918, 61342.00
1313.985, 61861.00
1315.052, 61660.00
1316.118, 61361.00
1317.185, 61833.00
1318.251, 61849.00
1319.317, 61655.00
1320.383, 62034.00
1321.449, 61673.00
1322.514, 61770.00
1323.580, 61650.00
1324.645, 61692.00
1325.711, 61770.00
1326.776, 61751.00
1327.840, 61770.00
1328.905, 61955.00
1329.970, 61797.00
1331.034, 61928.00
1332.099, 61826.00
1333.163, 61912.00
1334.227, 62044.00
1335.290, 62039.00
1336.354, 62149.00
1337.418, 62406.00
1338.481, 61956.00
1339.544, 61969.00
1340.607, 61953.00
1341.670, 62313.00
1342.733, 61969.00
1343.795, 62037.00
1344.858, 61816.00
1345.920, 62161.00
1346.982, 61998.00
1348.044, 61940.00
1349.106, 62192.00
1350.168, 62298.00
1351.229, 62272.00
1352.291, 62283.00
1353.352, 62299.00
1354.413, 62256.00
1355.474, 62200.00
1356.534, 62284.00
1357.595, 62071.00
1358.656, 62233.00
1359.716, 62450.00
1360.776, 62401.00
1361.836, 62289.00
1362.896, 62492.00
1363.955, 62229.00
1365.015, 62287.00
1366.074, 62409.00
1367.134, 62126.00
1368.193, 62302.00
1369.252, 62141.00
1370.310, 62468.00
1371.369, 62312.00
1372.427, 62305.00
1373.486, 62578.00
1374.544, 62378.00
1375.602, 62347.00
1376.660, 62511.00
1377.717, 62338.00
1378.775, 62339.00
1379.832, 62414.00
1380.889, 62537.00
1381.946, 62652.00
1383.003, 62635.00
1384.060, 62709.00
1385.117, 62543.00
1386.173, 62475.00
1387.230, 62508.00
1388.286, 62292.00
1389.342, 62660.00
1390.398, 62154.00
1391.453, 62162.00
1392.509, 62391.00
1393.564, 62570.00
1394.619, 62634.00
1395.675, 62645.67
1396.729, 62223.00
1397.784, 62501.00
1398.839, 62580.00
1399.893, 62504.56
1400.948, 62803.00
1402.002, 62450.00
1403.056, 62378.00
1404.110, 62534.00
1405.163, 62850.00
1406.217, 62527.00
1407.270, 62467.00
1408.324, 62733.00
1409.377, 62764.00
1410.430, 62915.00
1411.483, 62611.00
1412.535, 62411.00
1413.588, 62657.00
1414.640, 62622.00
1415.692, 62637.00
1416.744, 62767.00
1417.796, 62492.00
1418.848, 62614.00
1419.900, 62778.00
1420.951, 62547.00
1422.002, 62563.00
1423.053, 62570.62
1424.104, 62450.00
1425.155, 62535.00
1426.206, 62565.00
1427.256, 62484.00
1428.307, 62560.06
1429.357, 62554.97
1430.407, 62599.00
1431.457, 62652.00
1432.507, 62661.00
1433.556, 62806.00
1434.606, 62469.00
1435.655, 62899.00
1436.704, 62737.00
1437.753, 62578.00
1438.802, 62772.00
1439.851, 62737.00
1440.899, 62712.00
1441.948, 62741.00
1442.996, 62733.00
1444.044, 62758.86
1445.092, 62775.98
1446.140, 62843.00
1447.187, 62818.00
1448.235, 62908.00
1449.282, 62937.00
1450.329, 62939.00
1451.376, 63068.00
1452.423, 62763.00
1453.470, 62902.00
1454.517, 62853.00
1455.563, 63208.00
1456.609, 62628.00
1457.655, 62998.00
1458.701, 62946.00
1459.747, 63081.00
1460.793, 63120.00
1461.838, 62956.00
1462.884, 63040.00
1463.929, 62861.00
1464.974, 62891.96
1466.019, 63254.00
1467.064, 62851.00
1468.108, 63067.00
1469.153, 62935.00
1470.197, 62848.00
1471.241, 62873.00
1472.285, 63024.00
1473.329, 63120.00
1474.373, 63266.00
1475.416, 63226.51
1476.460, 63084.00
1477.503, 63137.00
1478.546, 63089.00
1479.589, 63095.00
1480.632, 63189.00
1481.674, 63157.77
1482.717, 63155.41
1483.759, 63151.00
1484.801, 63066.00
1485.843, 62977.00
1486.885, 62871.00
1487.927, 63133.00
1488.968, 63275.00
1490.010, 63347.00
1491.051, 63104.00
1492.092, 63321.00
1493.133, 63321.00
1494.174, 63012.00
1495.215, 63417.00
1496.255, 63357.00
1497.296, 63128.00
1498.336, 63478.00
1499.376, 63473.00
1500.416, 63126.00
1501.456, 63556.00
1502.495, 63507.00
1503.535, 63439.00
1504.574, 63148.00
1505.613, 63371.00
1506.652, 63536.00
1507.691, 63620.00
1508.730, 63542.80
1509.768, 63653.00
1510.807, 63431.00
1511.845, 63503.00
1512.883, 63458.61
1513.921, 63468.00
1514.959, 63493.00
1515.996, 63612.00
1517.034, 63817.00
1518.071, 63718.00
1519.109, 63580.00
1520.146, 63438.00
1521.183, 63541.00
1522.219, 63532.00
1523.256, 63722.00
1524.292, 63655.00
1525.329, 63847.00
1526.365, 63787.00
1527.401, 63750.00
1528.437, 63924.00
1529.472, 64039.00
1530.508, 63999.84
1531.543, 63966.00
1532.579, 63966.00
1533.614, 63735.00
1534.649, 63518.08
1535.683, 63716.91
1536.718, 63840.64
1537.753, 63893.26
1538.787, 63661.79
1539.821, 63797.14
1540.855, 63785.48
1541.889, 63767.79
1542.923, 63954.75
1543.956, 63764.58
1544.990, 63948.30
1546.023, 63982.75
1547.056, 64085.51
1548.089, 64040.36
1549.122, 64040.89
1550.155, 64189.38
1551.187, 64255.91
1552.220, 64193.73
1553.252, 64300.80
1554.284, 64105.44
1555.316, 64175.46
1556.348, 64360.00
1557.379, 64305.20
1558.411, 64414.98
1559.442, 64462.05
1560.474, 64224.37
1561.505, 64271.00
1562.535, 64309.00
1563.566, 64142.00
1564.597, 64181.04
1565.627, 64282.31
1566.658, 64240.00
1567.688, 64476.00
1568.718, 64589.00
1569.748, 64485.00
1570.777, 65137.00
##END=



