##NAMES=Annite
##RRUFFID=R060211
##IDEAL CHEMISTRY=KFe^2+^_3_AlSi_3_O_10_(OH)_2_
##LOCALITY=Mont Saint-Hilaire, Rouville County, Quebec, Canada
##OWNER=RRUFF
##SOURCE=Royal Ontario Museum
##DESCRIPTION=Black mica
##STATUS=The identification of this mineral has been confirmed by X-ray diffraction and chemical analysis
##URL=rruff.info/R060211
##MEASURED CHEMISTRY=(K_0.94_[box]_0.03_Na_0.02_)_Σ=1_(Fe^2+^_2.07_Mg_0.57_Mn_0.33_Ti_0.03_)_Σ=3_(Si_2.98_Al_1.02_)O_10_((OH)_1.72_F_0.28_)_Σ=2_
##PIN_ID=L01073
##ORIENTATION=Laser parallel to c* (0 0 1). Fiducial mark perpendicular to laser is parallel to a [1 0 0]
230.8490, 52488.00
232.0700, 52492.00
233.2910, 52697.00
234.5120, 52501.00
235.7320, 52473.00
236.9530, 52119.00
238.1730, 52270.00
239.3930, 52210.00
240.6130, 52340.00
241.8320, 51910.00
243.0520, 52172.00
244.2710, 51754.00
245.4900, 51704.00
246.7090, 52259.00
247.9280, 51849.00
249.1470, 51959.38
250.3650, 51964.00
251.5840, 51840.00
252.8020, 52135.00
254.0200, 52287.00
255.2370, 52077.42
256.4550, 52486.67
257.6720, 52815.97
258.8900, 53069.98
260.1070, 53022.27
261.3240, 53363.93
262.5400, 53549.37
263.7570, 53728.58
264.9730, 54124.86
266.1900, 54121.01
267.4060, 54220.00
268.6220, 53713.00
269.8370, 54044.42
271.0530, 53760.00
272.2680, 53575.00
273.4830, 53802.00
274.6980, 53203.00
275.9130, 52644.00
277.1280, 52737.00
278.3420, 52719.00
279.5570, 52675.00
280.7710, 52199.00
281.9850, 52330.00
283.1990, 52017.00
284.4120, 52136.00
285.6260, 51916.00
286.8390, 52036.00
288.0520, 51806.00
289.2650, 51628.00
290.4780, 51476.00
291.6910, 51280.00
292.9030, 51169.00
294.1160, 50991.00
295.3280, 50987.80
296.5400, 50972.39
297.7510, 51014.00
298.9630, 51014.00
300.1740, 51022.00
301.3860, 50925.00
302.5970, 50871.00
303.8080, 51003.00
305.0180, 51301.00
306.2290, 50849.00
307.4390, 51003.00
308.6500, 50585.00
309.8600, 51026.00
311.0700, 50916.00
312.2790, 50935.00
313.4890, 51077.00
314.6980, 50948.00
315.9080, 50819.00
317.1170, 51109.00
318.3250, 50813.00
319.5340, 51231.00
320.7430, 50997.00
321.9510, 50872.00
323.1590, 50968.00
324.3670, 50919.00
325.5750, 51281.00
326.7830, 51474.00
327.9900, 51055.00
329.1980, 51253.00
330.4050, 50770.00
331.6120, 51202.00
332.8190, 51579.00
334.0250, 51709.00
335.2320, 51012.00
336.4380, 51255.00
337.6440, 51484.00
338.8500, 51745.00
340.0560, 51918.00
341.2620, 51495.00
342.4670, 52036.00
343.6730, 51863.00
344.8780, 52096.00
346.0830, 52059.00
347.2870, 51834.00
348.4920, 51987.00
349.6970, 52027.00
350.9010, 52213.00
352.1050, 51983.00
353.3090, 51935.00
354.5130, 51917.00
355.7160, 51901.00
356.9200, 52242.00
358.1230, 51933.00
359.3260, 52123.00
360.5290, 51818.00
361.7320, 51852.00
362.9340, 51917.00
364.1370, 51873.00
365.3390, 51901.00
366.5410, 51851.00
367.7430, 51829.00
368.9450, 51899.00
370.1460, 51751.00
371.3480, 52017.00
372.5490, 51673.00
373.7500, 51946.00
374.9510, 51721.00
376.1520, 51783.00
377.3520, 51772.00
378.5520, 52023.00
379.7530, 52028.00
380.9530, 52196.00
382.1530, 52277.89
383.3520, 52264.04
384.5520, 52341.00
385.7510, 52316.00
386.9500, 52175.00
388.1490, 52363.00
389.3480, 52072.95
390.5470, 52238.95
391.7450, 52325.19
392.9440, 52335.95
394.1420, 52045.18
395.3400, 52143.79
396.5380, 52086.35
397.7350, 52022.53
398.9330, 52175.93
400.1300, 51929.04
401.3270, 52079.02
402.5240, 52070.57
403.7210, 52134.63
404.9180, 52041.68
406.1140, 51997.25
407.3110, 52109.85
408.5070, 52166.00
409.7030, 51978.00
410.8990, 51950.00
412.0940, 52002.00
413.2900, 51934.00
414.4850, 51855.00
415.6800, 51853.00
416.8750, 51933.33
418.0700, 51933.45
419.2650, 51949.92
420.4590, 51974.00
421.6530, 51938.00
422.8470, 51795.00
424.0410, 51724.59
425.2350, 51771.00
426.4290, 51594.00
427.6220, 51620.00
428.8160, 51599.00
430.0090, 51471.00
431.2020, 51852.00
432.3940, 51545.00
433.5870, 51584.00
434.7790, 51051.00
435.9720, 51450.00
437.1640, 51508.00
438.3560, 51341.00
439.5470, 51271.00
440.7390, 51069.00
441.9300, 51295.00
443.1220, 51073.00
444.3130, 51313.00
445.5040, 50971.00
446.6940, 51365.00
447.8850, 51359.00
449.0750, 51641.00
450.2660, 51061.00
451.4560, 51360.11
452.6460, 51177.00
453.8350, 51617.00
455.0250, 51504.00
456.2140, 51831.00
457.4040, 51577.00
458.5930, 51552.00
459.7820, 51761.00
460.9700, 51703.00
462.1590, 51905.63
463.3470, 52173.53
464.5350, 52361.67
465.7240, 52474.41
466.9110, 52285.46
468.0990, 52485.96
469.2870, 52530.41
470.4740, 52568.40
471.6610, 52823.62
472.8480, 52678.54
474.0350, 52930.31
475.2220, 53023.67
476.4090, 53120.00
477.5950, 53219.00
478.7810, 53664.00
479.9670, 53610.00
481.1530, 53929.00
482.3390, 53828.00
483.5240, 54048.00
484.7100, 54028.00
485.8950, 54228.00
487.0800, 54594.00
488.2650, 54842.00
489.4490, 54853.96
490.6340, 54962.00
491.8180, 54941.00
493.0030, 54961.00
494.1870, 55285.00
495.3700, 55482.00
496.5540, 55672.00
497.7380, 55850.57
498.9210, 55890.69
500.1040, 56122.00
501.2870, 55952.00
502.4700, 56081.00
503.6530, 56190.00
504.8350, 56273.00
506.0180, 56299.46
507.2000, 56193.00
508.3820, 56319.00
509.5640, 56643.00
510.7450, 56723.00
511.9270, 57057.00
513.1080, 56964.00
514.2890, 57088.00
515.4700, 57070.00
516.6510, 57269.00
517.8320, 57475.00
519.0130, 57680.00
520.1930, 57803.71
521.3730, 57655.00
522.5530, 57939.00
523.7330, 57988.00
524.9130, 57846.00
526.0920, 58344.00
527.2710, 58451.00
528.4510, 58913.00
529.6300, 58293.00
530.8080, 58668.00
531.9870, 58308.00
533.1660, 58776.00
534.3440, 58718.00
535.5220, 58686.00
536.7000, 58496.00
537.8780, 58756.00
539.0560, 58263.00
540.2330, 58573.00
541.4110, 58607.00
542.5880, 58214.00
543.7650, 58250.00
544.9420, 58198.00
546.1180, 57828.00
547.2950, 57759.00
548.4710, 57722.00
549.6470, 57056.00
550.8230, 56903.00
551.9990, 57173.00
553.1750, 56796.00
554.3500, 56222.00
555.5260, 56650.00
556.7010, 56110.00
557.8760, 55932.00
559.0510, 55835.00
560.2250, 55668.00
561.4000, 55687.00
562.5740, 55366.00
563.7480, 55281.00
564.9220, 55032.00
566.0960, 55113.00
567.2700, 54701.00
568.4430, 54618.00
569.6170, 54803.00
570.7900, 54317.00
571.9630, 54645.00
573.1360, 54020.00
574.3080, 53956.00
575.4810, 54020.00
576.6530, 54066.00
577.8250, 53789.00
578.9980, 53960.00
580.1690, 53503.00
581.3410, 53561.00
582.5130, 53253.00
583.6840, 53411.00
584.8550, 53124.00
586.0260, 53219.00
587.1970, 53422.00
588.3680, 53240.00
589.5380, 53091.00
590.7080, 53003.00
591.8790, 52987.00
593.0490, 52907.52
594.2190, 53044.00
595.3880, 52868.00
596.5580, 53001.00
597.7270, 53045.00
598.8960, 53032.00
600.0650, 53010.00
601.2340, 52790.00
602.4030, 52931.00
603.5710, 53171.00
604.7400, 52957.00
605.9080, 53311.00
607.0760, 53326.00
608.2440, 53566.00
609.4120, 53542.00
610.5790, 53740.00
611.7460, 53714.00
612.9140, 53736.00
614.0810, 53801.00
615.2480, 53584.00
616.4140, 53754.00
617.5810, 54047.00
618.7470, 53734.00
619.9130, 53985.11
621.0790, 54733.00
622.2450, 54244.00
623.4110, 53965.00
624.5770, 54352.00
625.7420, 54055.00
626.9070, 53790.00
628.0720, 54397.00
629.2370, 54446.00
630.4020, 54518.00
631.5660, 54311.00
632.7310, 54568.00
633.8950, 54689.00
635.0590, 54861.00
636.2230, 54943.00
637.3870, 54962.00
638.5500, 55070.00
639.7140, 55000.00
640.8770, 55332.00
642.0400, 55190.00
643.2030, 55297.00
644.3660, 55721.00
645.5280, 55763.00
646.6910, 56003.00
647.8530, 56367.00
649.0150, 56405.00
650.1770, 56528.00
651.3390, 57139.00
652.5000, 57388.00
653.6620, 57495.00
654.8230, 57830.00
655.9840, 58221.00
657.1450, 58895.00
658.3060, 59447.00
659.4660, 59906.00
660.6270, 60455.00
661.7870, 60850.84
662.9470, 61263.50
664.1070, 61638.00
665.2670, 61861.00
666.4260, 62255.00
667.5860, 62256.00
668.7450, 62366.00
669.9040, 62211.00
671.0630, 62062.00
672.2220, 61603.00
673.3800, 61276.00
674.5390, 60950.00
675.6970, 60472.00
676.8550, 60046.00
678.0130, 59398.00
679.1710, 59231.00
680.3290, 58823.00
681.4860, 59124.00
682.6430, 58890.00
683.8000, 58359.00
684.9570, 58822.00
686.1140, 58082.00
687.2710, 58221.00
688.4270, 58075.00
689.5840, 57995.00
690.7400, 57960.00
691.8960, 57980.63
693.0520, 58190.00
694.2070, 58150.00
695.3630, 58355.00
696.5180, 58505.00
697.6730, 58258.00
698.8280, 58121.00
699.9830, 58394.32
701.1380, 58753.00
702.2920, 58815.00
703.4470, 59052.00
704.6010, 59102.00
705.7550, 59473.00
706.9090, 59542.00
708.0620, 59592.00
709.2160, 59622.00
710.3690, 59766.00
711.5220, 59972.00
712.6750, 59878.00
713.8280, 60042.00
714.9810, 60014.00
716.1340, 60216.00
717.2860, 60063.38
718.4380, 59917.00
719.5900, 59729.00
720.7420, 59742.00
721.8940, 59503.00
723.0450, 59477.53
724.1970, 59370.00
725.3480, 59300.00
726.4990, 59109.00
727.6500, 58871.00
728.8010, 58686.00
729.9510, 58647.00
731.1020, 58533.60
732.2520, 58457.00
733.4020, 58442.00
734.5520, 58531.00
735.7020, 58439.00
736.8510, 58258.00
738.0010, 59755.00
739.1500, 59663.00
740.2990, 59432.00
741.4480, 58757.00
742.5970, 58782.00
743.7450, 59014.00
744.8940, 59014.00
746.0420, 59152.00
747.1900, 59279.00
748.3380, 59518.00
749.4860, 59463.00
750.6330, 59601.86
751.7810, 59491.00
752.9280, 59749.00
754.0750, 59648.00
755.2220, 59789.00
756.3690, 60180.00
757.5160, 60340.00
758.6620, 60521.00
759.8090, 60498.00
760.9550, 60434.00
762.1010, 60537.00
763.2470, 60472.00
764.3920, 60400.00
765.5380, 60456.00
766.6830, 60475.51
767.8280, 60756.00
768.9730, 60586.00
770.1180, 60630.00
771.2630, 60593.00
772.4070, 60250.00
773.5520, 60055.00
774.6960, 59900.00
775.8400, 60016.00
776.9840, 60022.00
778.1280, 60067.00
779.2710, 59527.00
780.4140, 59020.00
781.5580, 59103.00
782.7010, 58795.00
783.8440, 58556.00
784.9860, 58223.00
786.1290, 58032.00
787.2710, 57733.00
788.4140, 57826.00
789.5560, 57478.00
790.6980, 57305.00
791.8390, 56753.00
792.9810, 56333.00
794.1220, 56179.00
795.2640, 55712.00
796.4050, 55778.00
797.5460, 55538.00
798.6860, 55352.00
799.8270, 55044.00
800.9680, 54690.00
802.1080, 54413.00
803.2480, 54371.00
804.3880, 54470.00
805.5280, 54416.00
806.6670, 54165.00
807.8070, 54052.00
808.9460, 54165.00
810.0850, 53611.00
811.2240, 53767.00
812.3630, 53786.00
813.5020, 53334.00
814.6400, 53427.00
815.7790, 53522.00
816.9170, 53750.00
818.0550, 53705.00
819.1930, 53657.00
820.3300, 53774.00
821.4680, 53397.00
822.6050, 53710.00
823.7430, 53913.00
824.8800, 53525.00
826.0170, 53890.00
827.1530, 53566.00
828.2900, 53380.00
829.4260, 53591.00
830.5620, 53729.00
831.6990, 53654.00
832.8340, 53804.00
833.9700, 53802.00
835.1060, 53686.00
836.2410, 54043.00
837.3760, 53795.00
838.5120, 53670.00
839.6470, 54052.00
840.7810, 53794.00
841.9160, 53921.00
843.0500, 53716.00
844.1850, 53794.00
845.3190, 53871.00
846.4530, 53580.00
847.5870, 54114.00
848.7200, 54288.00
849.8540, 53685.00
850.9870, 54313.00
852.1200, 53900.00
853.2530, 54349.00
854.3860, 54111.00
855.5190, 54247.00
856.6510, 54064.00
857.7840, 54260.00
858.9160, 54249.00
860.0480, 54650.00
861.1800, 54792.00
862.3110, 54423.00
863.4430, 54881.00
864.5740, 54950.00
865.7060, 54938.00
866.8370, 55265.00
867.9680, 55759.00
869.0980, 55336.00
870.2290, 55300.00
871.3590, 55076.00
872.4900, 55602.00
873.6200, 55353.00
874.7500, 55413.00
875.8790, 55635.00
877.0090, 55488.00
878.1380, 55647.00
879.2680, 55459.00
880.3970, 55788.00
881.5260, 55644.00
882.6550, 55649.00
883.7830, 55451.00
884.9120, 55785.00
886.0400, 55614.98
887.1680, 55838.00
888.2960, 55677.00
889.4240, 55446.00
890.5520, 55753.00
891.6790, 55758.00
892.8070, 55816.00
893.9340, 55906.00
895.0610, 55486.00
896.1880, 55950.00
897.3140, 55672.00
898.4410, 55846.00
899.5670, 55804.00
900.6940, 55621.00
901.8200, 55487.00
902.9450, 55758.00
904.0710, 55786.00
905.1970, 55854.00
906.3220, 55922.00
907.4470, 55805.00
908.5730, 55854.00
909.6980, 56010.00
910.8220, 55656.00
911.9470, 55946.00
913.0710, 56339.00
914.1960, 56220.00
915.3200, 55664.00
916.4440, 56317.00
917.5680, 56111.00
918.6910, 56300.00
919.8150, 56392.00
920.9380, 55971.00
922.0610, 56147.30
923.1840, 56126.05
924.3070, 56092.00
925.4300, 56240.00
926.5520, 56260.00
927.6750, 56216.00
928.7970, 56620.00
929.9190, 56461.00
931.0410, 56400.00
932.1630, 56150.00
933.2840, 56176.00
934.4060, 56178.07
935.5270, 56600.00
936.6480, 56319.00
937.7690, 56629.00
938.8900, 56708.00
940.0100, 56447.00
941.1310, 56692.00
942.2510, 56309.00
943.3710, 56452.00
944.4910, 56222.00
945.6110, 56073.00
946.7310, 56454.00
947.8500, 56487.00
948.9690, 56115.00
950.0890, 56021.00
951.2080, 56112.00
952.3260, 56106.00
953.4450, 56154.00
954.5640, 55965.00
955.6820, 55785.00
956.8000, 55866.00
957.9180, 56315.00
959.0360, 55862.00
960.1540, 56027.00
961.2710, 55960.00
962.3890, 55783.00
963.5060, 55708.00
964.6230, 55531.00
965.7400, 55530.00
966.8570, 55594.00
967.9730, 55619.00
969.0900, 55579.00
970.2060, 55819.00
971.3220, 55741.00
972.4380, 56178.00
973.5540, 56243.00
974.6700, 55730.00
975.7850, 55452.00
976.9010, 55629.00
978.0160, 55752.00
979.1310, 55895.00
980.2460, 55906.00
981.3600, 55661.00
982.4750, 55607.00
983.5890, 55614.00
984.7030, 55665.00
985.8170, 55917.00
986.9310, 56020.00
988.0450, 56014.39
989.1590, 55724.00
990.2720, 56010.00
991.3850, 55934.00
992.4980, 56031.00
993.6110, 56067.00
994.7240, 56056.00
995.8370, 56163.00
996.9490, 56469.00
998.0620, 56006.00
999.1740, 56052.00
1000.286, 56443.00
1001.398, 56460.00
1002.509, 56626.00
1003.621, 56657.00
1004.732, 56443.00
1005.843, 56977.00
1006.954, 56987.00
1008.065, 56676.00
1009.176, 57016.00
1010.286, 57183.00
1011.397, 57334.00
1012.507, 57553.00
1013.617, 57481.00
1014.727, 57577.00
1015.837, 57446.00
1016.946, 57406.00
1018.056, 57237.00
1019.165, 57486.00
1020.274, 57229.00
1021.383, 57649.00
1022.492, 57197.00
1023.601, 57134.00
1024.709, 57321.00
1025.817, 57372.00
1026.926, 57333.00
1028.034, 57143.00
1029.141, 56927.00
1030.249, 57193.00
1031.357, 57358.00
1032.464, 57125.00
1033.571, 57180.00
1034.678, 57009.00
1035.785, 56753.00
1036.892, 56883.99
1037.999, 57177.00
1039.105, 56975.00
1040.211, 57038.00
1041.317, 57011.00
1042.423, 56910.49
1043.529, 56908.32
1044.635, 56889.00
1045.740, 56852.00
1046.845, 57081.00
1047.951, 57197.00
1049.056, 57093.00
1050.160, 56794.00
1051.265, 57331.00
1052.370, 56879.00
1053.474, 56983.00
1054.578, 57175.00
1055.682, 56951.00
1056.786, 56733.00
1057.890, 56844.00
1058.993, 57146.00
1060.097, 57712.00
1061.200, 56999.00
1062.303, 57392.00
1063.406, 56932.00
1064.509, 57093.00
1065.612, 57046.00
1066.714, 56860.00
1067.816, 56959.00
1068.919, 56906.00
1070.021, 56856.00
1071.122, 56990.00
1072.224, 56856.00
1073.326, 56649.00
1074.427, 56956.00
1075.528, 56886.00
1076.629, 56640.00
1077.730, 56461.00
1078.831, 56650.00
1079.931, 56391.00
1081.032, 56391.00
1082.132, 56647.00
1083.232, 56390.00
1084.332, 56192.00
1085.432, 56174.00
1086.531, 56207.91
1087.631, 56167.00
1088.730, 56410.00
1089.829, 56023.00
1090.928, 55871.00
1092.027, 56008.00
1093.126, 55761.00
1094.224, 55734.05
1095.323, 56005.00
1096.421, 55653.00
1097.519, 55874.39
1098.617, 56087.00
1099.715, 55884.00
1100.812, 55733.00
1101.910, 55769.00
1103.007, 55890.00
1104.104, 55667.32
1105.201, 55513.00
1106.298, 55360.00
1107.394, 55549.00
1108.491, 55459.00
1109.587, 55572.00
1110.683, 55448.00
1111.779, 55458.00
1112.875, 55734.00
1113.971, 56111.00
1115.066, 55506.00
1116.162, 56078.00
1117.257, 55709.00
1118.352, 55487.00
1119.447, 55609.00
1120.542, 55678.00
1121.636, 55569.00
1122.731, 55437.00
1123.825, 55589.00
1124.919, 55450.00
1126.013, 55361.44
1127.107, 55363.00
1128.200, 55275.61
1129.294, 55285.00
1130.387, 55253.00
1131.480, 55217.55
1132.573, 55316.67
1133.666, 55304.00
1134.759, 55260.00
1135.851, 55479.00
1136.944, 55126.00
1138.036, 55185.00
1139.128, 55029.00
1140.220, 55270.00
1141.312, 55142.00
1142.403, 55257.00
1143.495, 55102.00
1144.586, 55002.00
1145.677, 55104.00
1146.768, 55124.00
1147.859, 55549.00
1148.950, 55134.00
1150.040, 55392.00
1151.130, 55938.00
1152.221, 55416.00
1153.311, 54929.00
1154.401, 54837.00
1155.490, 54729.00
1156.580, 55132.00
1157.669, 54720.00
1158.759, 54772.00
1159.848, 55073.00
1160.937, 54985.00
1162.025, 54850.00
1163.114, 55044.00
1164.202, 54901.00
1165.291, 54928.14
1166.379, 55181.00
1167.467, 54863.00
1168.555, 55003.00
1169.642, 54882.00
1170.730, 55121.00
1171.817, 54960.00
1172.905, 55080.00
1173.992, 54908.00
1175.078, 55087.00
1176.165, 55046.00
1177.252, 55139.00
1178.338, 55114.00
1179.425, 55381.00
1180.511, 55115.00
1181.597, 55124.00
1182.682, 55044.00
1183.768, 55289.00
1184.854, 55649.00
1185.939, 55113.00
1187.024, 55299.00
1188.109, 54997.00
1189.194, 55268.00
1190.279, 54797.00
1191.363, 55371.00
1192.448, 55153.00
1193.532, 55047.00
1194.616, 54818.00
1195.700, 55201.00
1196.784, 55374.00
1197.867, 55284.98
1198.951, 55423.55
1200.034, 55322.00
1201.117, 55206.00
1202.200, 55392.00
1203.283, 54976.00
1204.366, 55117.00
1205.448, 55263.00
1206.531, 54836.00
1207.613, 55206.00
1208.695, 55077.00
1209.777, 55184.00
1210.859, 55212.00
1211.940, 55190.00
1213.022, 55138.00
1214.103, 55141.00
1215.184, 55330.00
1216.265, 54982.00
1217.346, 54929.00
1218.427, 55213.00
1219.507, 54971.00
1220.587, 55240.00
1221.668, 54880.00
1222.748, 55052.00
1223.828, 55203.00
1224.907, 55219.00
1225.987, 55129.00
1227.066, 55089.00
1228.146, 55078.00
1229.225, 55109.00
1230.304, 55273.00
1231.382, 55514.00
1232.461, 54930.00
1233.540, 55318.00
1234.618, 55344.00
1235.696, 54978.00
1236.774, 55167.00
1237.852, 55456.00
1238.930, 55324.00
1240.007, 55437.42
1241.085, 55328.00
1242.162, 55320.00
1243.239, 55459.00
1244.316, 55297.00
1245.393, 55390.00
1246.469, 55267.00
1247.546, 55462.00
1248.622, 55300.00
1249.698, 55464.00
1250.774, 55173.00
1251.850, 55314.00
1252.926, 55565.00
1254.001, 55092.00
1255.077, 55434.00
1256.152, 55149.00
1257.227, 55091.00
1258.302, 55613.00
1259.377, 55528.00
1260.451, 55220.00
1261.526, 55725.00
1262.600, 55602.00
1263.674, 55388.00
1264.748, 55531.00
1265.822, 55511.00
1266.896, 55537.00
1267.969, 55632.00
1269.043, 55234.00
1270.116, 55356.00
1271.189, 55465.00
1272.262, 55239.00
1273.335, 55553.00
1274.407, 55744.00
1275.480, 55766.00
1276.552, 55467.00
1277.624, 55737.00
1278.696, 55524.00
1279.768, 55936.00
1280.840, 55392.00
1281.911, 55673.00
1282.982, 55612.00
1284.054, 55383.00
1285.125, 55656.00
1286.196, 55747.00
1287.266, 55477.00
1288.337, 55542.00
1289.407, 55764.00
1290.478, 55430.00
1291.548, 55825.00
1292.618, 55735.00
1293.688, 55744.00
1294.757, 55823.00
1295.827, 55604.00
1296.896, 55715.00
1297.965, 55600.00
1299.034, 55540.00
1300.103, 55677.00
1301.172, 55635.00
1302.241, 56041.00
1303.309, 55850.00
1304.377, 55858.00
1305.445, 55623.00
1306.513, 55527.00
1307.581, 55565.27
1308.649, 55882.00
1309.716, 55679.00
1310.784, 55795.00
1311.851, 55916.00
1312.918, 55841.00
1313.985, 55778.00
1315.052, 55951.00
1316.118, 55826.00
1317.185, 55899.00
1318.251, 55815.64
1319.317, 55811.14
1320.383, 55612.00
1321.449, 55803.00
1322.514, 55736.00
1323.580, 55735.67
1324.645, 55489.00
1325.711, 56100.00
1326.776, 55781.00
1327.840, 56022.00
1328.905, 55940.00
1329.970, 55869.00
1331.034, 56022.00
1332.099, 56189.00
1333.163, 55801.00
1334.227, 55795.00
1335.290, 55886.00
1336.354, 55841.00
1337.418, 55957.00
1338.481, 56038.00
1339.544, 55957.60
1340.607, 55872.00
1341.670, 55893.00
1342.733, 55868.00
1343.795, 55977.00
1344.858, 55968.49
1345.920, 55902.00
1346.982, 56034.42
1348.044, 55969.00
1349.106, 56016.00
1350.168, 55959.00
1351.229, 55981.00
1352.291, 56059.00
1353.352, 56099.00
1354.413, 56061.70
1355.474, 55930.00
1356.534, 55975.00
1357.595, 55988.00
1358.656, 55966.55
1359.716, 56043.00
1360.776, 56081.00
1361.836, 55973.00
1362.896, 56450.00
1363.955, 55860.00
1365.015, 56220.00
1366.074, 55862.00
1367.134, 56330.00
1368.193, 56214.05
1369.252, 56205.00
1370.310, 56152.00
1371.369, 56106.00
1372.427, 56021.00
1373.486, 56012.80
1374.544, 55990.00
1375.602, 55990.00
1376.660, 56115.00
1377.717, 56133.00
1378.775, 56499.00
1379.832, 55949.00
1380.889, 56100.00
1381.946, 56044.00
1383.003, 56349.00
1384.060, 56212.00
1385.117, 56215.00
1386.173, 56422.00
1387.230, 56083.00
1388.286, 56176.00
1389.342, 55954.00
1390.398, 56171.00
1391.453, 56179.00
1392.509, 56286.00
1393.564, 56286.00
1394.619, 56350.05
1395.675, 56158.00
1396.729, 56343.00
1397.784, 56295.00
1398.839, 56045.00
1399.893, 56658.00
1400.948, 56252.00
1402.002, 56447.00
1403.056, 56017.00
1404.110, 56517.00
1405.163, 56085.00
1406.217, 55974.00
1407.270, 56213.00
1408.324, 56283.00
1409.377, 56136.00
1410.430, 56242.82
1411.483, 56370.22
1412.535, 56156.00
1413.588, 56661.00
1414.640, 56584.00
1415.692, 56543.00
1416.744, 56425.00
1417.796, 56312.00
1418.848, 56205.00
1419.900, 56319.00
1420.951, 56279.11
1422.002, 56346.00
1423.053, 56260.00
1424.104, 56371.00
1425.155, 56446.61
1426.206, 56609.00
1427.256, 56644.00
1428.307, 56549.00
1429.357, 56547.00
1430.407, 56528.40
1431.457, 56571.00
1432.507, 56547.00
1433.556, 56453.00
1434.606, 56572.00
1435.655, 56466.00
1436.704, 56490.00
1437.753, 56471.00
1438.802, 56550.00
1439.851, 56721.00
1440.899, 56735.00
1441.948, 56649.20
1442.996, 56746.00
1444.044, 56409.00
1445.092, 56434.00
1446.140, 56438.00
1447.187, 56568.00
1448.235, 56537.00
1449.282, 56549.44
1450.329, 56814.00
1451.376, 56475.00
1452.423, 56443.00
1453.470, 56331.00
1454.517, 56532.00
1455.563, 56707.00
1456.609, 56630.00
1457.655, 56678.00
1458.701, 56590.35
1459.747, 56599.03
1460.793, 56591.84
1461.838, 56605.00
1462.884, 56609.00
1463.929, 56646.00
1464.974, 56723.00
1466.019, 56792.00
1467.064, 56614.00
1468.108, 56786.00
1469.153, 56407.00
1470.197, 56845.00
1471.241, 56648.00
1472.285, 56622.00
1473.329, 56471.00
1474.373, 56542.00
1475.416, 56844.00
1476.460, 56832.00
1477.503, 56864.61
1478.546, 56465.00
1479.589, 56751.00
1480.632, 56757.00
1481.674, 56635.00
1482.717, 57027.00
1483.759, 56888.22
1484.801, 57447.00
1485.843, 56857.00
1486.885, 56674.00
1487.927, 56547.00
1488.968, 56806.00
1490.010, 56832.00
1491.051, 57023.00
1492.092, 57029.92
1493.133, 56824.00
1494.174, 56993.00
1495.215, 56876.55
1496.255, 56822.00
1497.296, 56964.00
1498.336, 56689.00
1499.376, 56696.52
1500.416, 56877.05
1501.456, 56977.82
1502.495, 57003.12
1503.535, 56726.89
1504.574, 56840.02
1505.613, 56797.12
1506.652, 56747.81
1507.691, 56915.75
1508.730, 56683.37
1509.768, 56847.86
1510.807, 56853.93
1511.845, 56932.51
1512.883, 56854.08
1513.921, 56824.14
1514.959, 56951.27
1515.996, 56991.43
1517.034, 56894.92
1518.071, 56978.11
1519.109, 56740.25
1520.146, 56784.11
1521.183, 56949.52
1522.219, 56860.92
1523.256, 56946.98
1524.292, 56966.51
1525.329, 56683.74
1526.365, 56926.71
1527.401, 56942.32
1528.437, 56724.46
1529.472, 56949.43
1530.508, 56763.76
1531.543, 56724.66
1532.579, 56795.87
1533.614, 56752.09
1534.649, 56889.59
1535.683, 56852.46
1536.718, 56799.71
1537.753, 56815.06
1538.787, 56637.45
1539.821, 56817.83
1540.855, 56753.67
1541.889, 56811.06
1542.923, 56896.01
1543.956, 56770.00
1544.990, 56867.32
1546.023, 56618.29
1547.056, 56659.07
1548.089, 56668.65
1549.122, 56863.46
1550.155, 56616.12
1551.187, 56648.86
1552.220, 56800.83
1553.252, 56785.96
1554.284, 56840.84
1555.316, 56689.20
1556.348, 56731.57
1557.379, 56720.47
1558.411, 56894.17
1559.442, 56921.98
1560.474, 56773.84
1561.505, 56626.45
1562.535, 56813.45
1563.566, 56683.51
1564.597, 56724.55
1565.627, 57168.00
1566.658, 57378.00
1567.688, 56604.00
1568.718, 56942.00
1569.748, 57377.00
1570.777, 57441.00
##END=



