##NAMES=Annite
##RRUFFID=R060204
##IDEAL CHEMISTRY=KFe^2+^_3_AlSi_3_O_10_(OH)_2_
##LOCALITY=Mont Saint-Hilaire, Rouville County, Quebec, Canada
##OWNER=RRUFF
##SOURCE=Royal Ontario Museum
##DESCRIPTION=Black mica with pseudohexagonal outines
##STATUS=The identification of this mineral has been confirmed by X-ray diffraction and chemical analysis
##URL=rruff.info/R060204
##MEASURED CHEMISTRY=(K_0.96_Na_0.04_)_Σ=1_(Fe^2+^_2.04_Mg_0.81_Mn_0.09_Ti_0.03_[box]_0.03_)_Σ=3_(Si_3.00_Al_1.00_)O_10_((OH)_1.54_F_0.46_)_Σ=2_
##PIN_ID=L01689
##ORIENTATION=Laser parallel to (1 0 1). Fiducial mark perpendicular to laser is parallel to b [0 1 0]
230.8490, 13234.00
232.0700, 13360.00
233.2910, 13379.00
234.5120, 13349.00
235.7320, 13435.00
236.9530, 13399.00
238.1730, 13427.91
239.3930, 13213.00
240.6130, 13416.00
241.8320, 13272.00
243.0520, 13162.00
244.2710, 13294.00
245.4900, 13235.00
246.7090, 13374.00
247.9280, 13241.00
249.1470, 13368.00
250.3650, 13223.00
251.5840, 13513.00
252.8020, 13541.00
254.0200, 13393.68
255.2370, 13630.21
256.4550, 13783.71
257.6720, 13858.55
258.8900, 13619.35
260.1070, 13785.68
261.3240, 13789.48
262.5400, 13786.57
263.7570, 14009.98
264.9730, 13816.39
266.1900, 14036.21
267.4060, 13946.00
268.6220, 13753.00
269.8370, 13831.00
271.0530, 13676.56
272.2680, 13703.00
273.4830, 13615.00
274.6980, 13768.00
275.9130, 14014.00
277.1280, 13802.00
278.3420, 13860.00
279.5570, 13801.00
280.7710, 13399.00
281.9850, 13531.87
283.1990, 13425.98
284.4120, 13541.00
285.6260, 13418.00
286.8390, 13470.00
288.0520, 13387.00
289.2650, 13425.00
290.4780, 13380.00
291.6910, 13139.02
292.9030, 13310.46
294.1160, 13398.80
295.3280, 13408.54
296.5400, 13104.21
297.7510, 13205.45
298.9630, 13144.14
300.1740, 13076.19
301.3860, 13234.50
302.5970, 12975.87
303.8080, 13245.00
305.0180, 13060.00
306.2290, 13294.00
307.4390, 13286.88
308.6500, 13332.73
309.8600, 13392.00
311.0700, 13406.00
312.2790, 13383.00
313.4890, 13258.00
314.6980, 13243.00
315.9080, 13197.00
317.1170, 13126.00
318.3250, 13210.00
319.5340, 13403.00
320.7430, 13321.00
321.9510, 13390.00
323.1590, 13393.00
324.3670, 13287.00
325.5750, 13561.00
326.7830, 13376.00
327.9900, 13326.00
329.1980, 13550.00
330.4050, 13436.00
331.6120, 13515.00
332.8190, 13582.00
334.0250, 13647.00
335.2320, 13614.00
336.4380, 13793.00
337.6440, 13692.00
338.8500, 13495.75
340.0560, 13720.49
341.2620, 13862.16
342.4670, 13925.18
343.6730, 13674.17
344.8780, 13828.68
346.0830, 13820.66
347.2870, 13805.95
348.4920, 14017.54
349.6970, 13812.17
350.9010, 14053.00
352.1050, 14029.29
353.3090, 13784.00
354.5130, 14006.00
355.7160, 13826.00
356.9200, 13858.00
358.1230, 13787.00
359.3260, 13980.00
360.5290, 13751.00
361.7320, 13907.00
362.9340, 13948.00
364.1370, 13860.00
365.3390, 13786.00
366.5410, 13756.00
367.7430, 13727.91
368.9450, 13732.00
370.1460, 13740.00
371.3480, 13743.00
372.5490, 13781.00
373.7500, 13917.00
374.9510, 13977.00
376.1520, 13878.00
377.3520, 13855.00
378.5520, 13830.00
379.7530, 13866.00
380.9530, 13844.00
382.1530, 13728.59
383.3520, 13952.06
384.5520, 14092.47
385.7510, 14154.25
386.9500, 13901.95
388.1490, 14055.21
389.3480, 14045.95
390.5470, 14030.01
391.7450, 14240.33
392.9440, 14033.71
394.1420, 14199.00
395.3400, 14184.00
396.5380, 14245.00
397.7350, 14285.00
398.9330, 14312.00
400.1300, 14228.00
401.3270, 14395.00
402.5240, 14288.00
403.7210, 14256.00
404.9180, 14408.00
406.1140, 14364.00
407.3110, 14322.00
408.5070, 14093.00
409.7030, 14032.00
410.8990, 14131.00
412.0940, 14224.00
413.2900, 14164.00
414.4850, 14064.00
415.6800, 14146.00
416.8750, 14047.20
418.0700, 13799.42
419.2650, 13958.95
420.4590, 14035.42
421.6530, 14033.29
422.8470, 13717.08
424.0410, 13806.43
425.2350, 13733.25
426.4290, 13827.00
427.6220, 13723.00
428.8160, 13606.00
430.0090, 13645.00
431.2020, 13603.00
432.3940, 13523.57
433.5870, 13501.07
434.7790, 13395.00
435.9720, 13377.00
437.1640, 13352.00
438.3560, 13288.00
439.5470, 13359.00
440.7390, 13609.00
441.9300, 13483.00
443.1220, 13350.00
444.3130, 13081.00
445.5040, 13187.00
446.6940, 13185.00
447.8850, 13210.00
449.0750, 13073.00
450.2660, 13153.00
451.4560, 13070.00
452.6460, 13210.00
453.8350, 13213.00
455.0250, 13242.00
456.2140, 13161.00
457.4040, 13319.00
458.5930, 13353.00
459.7820, 13211.00
460.9700, 13288.00
462.1590, 13150.00
463.3470, 13263.00
464.5350, 13279.00
465.7240, 13577.00
466.9110, 13584.00
468.0990, 13591.00
469.2870, 13589.00
470.4740, 13766.00
471.6610, 13748.00
472.8480, 13707.00
474.0350, 13679.00
475.2220, 13864.00
476.4090, 13898.00
477.5950, 14062.00
478.7810, 14165.00
479.9670, 14137.00
481.1530, 14256.00
482.3390, 14291.00
483.5240, 14367.00
484.7100, 14267.00
485.8950, 14245.00
487.0800, 14305.00
488.2650, 14403.00
489.4490, 14447.00
490.6340, 14496.88
491.8180, 14524.97
493.0030, 14542.00
494.1870, 14567.00
495.3700, 14529.00
496.5540, 14592.00
497.7380, 14540.00
498.9210, 14568.93
500.1040, 14526.78
501.2870, 14564.68
502.4700, 14438.00
503.6530, 14678.00
504.8350, 14679.00
506.0180, 14805.00
507.2000, 14717.00
508.3820, 14723.00
509.5640, 14732.01
510.7450, 14638.45
511.9270, 14787.00
513.1080, 14444.05
514.2890, 14657.31
515.4700, 14787.49
516.6510, 14839.06
517.8320, 14576.55
519.0130, 14719.61
520.1930, 14700.11
521.3730, 14673.95
522.5530, 14773.00
523.7330, 14871.00
524.9130, 14935.00
526.0920, 14920.00
527.2710, 15070.00
528.4510, 14986.00
529.6300, 14898.00
530.8080, 15121.00
531.9870, 15010.00
533.1660, 15153.00
534.3440, 15126.00
535.5220, 15159.00
536.7000, 15215.00
537.8780, 15304.00
539.0560, 15244.01
540.2330, 15194.00
541.4110, 15109.00
542.5880, 15066.00
543.7650, 14945.00
544.9420, 15129.00
546.1180, 15070.00
547.2950, 15029.00
548.4710, 14898.00
549.6470, 14974.00
550.8230, 14910.00
551.9990, 14713.00
553.1750, 14597.00
554.3500, 14692.00
555.5260, 14472.00
556.7010, 14524.00
557.8760, 14358.00
559.0510, 14459.00
560.2250, 14319.00
561.4000, 14436.00
562.5740, 14379.00
563.7480, 14118.00
564.9220, 14258.00
566.0960, 13941.00
567.2700, 14021.00
568.4430, 13872.00
569.6170, 13966.00
570.7900, 13814.00
571.9630, 13885.00
573.1360, 13625.06
574.3080, 13794.01
575.4810, 13879.86
576.6530, 13887.12
577.8250, 13580.31
578.9980, 13679.03
580.1690, 13615.26
581.3410, 13544.81
582.5130, 13700.64
583.6840, 13439.52
584.8550, 13591.77
586.0260, 13579.02
587.1970, 13641.78
588.3680, 13541.01
589.5380, 13490.77
590.7080, 13604.12
591.8790, 13626.86
593.0490, 13507.29
594.2190, 13574.87
595.3880, 13298.00
596.5580, 13409.00
597.7270, 13307.00
598.8960, 13455.00
600.0650, 13483.00
601.2340, 13370.00
602.4030, 13500.00
603.5710, 13514.00
604.7400, 13542.00
605.9080, 13615.00
607.0760, 13483.00
608.2440, 13369.00
609.4120, 13616.00
610.5790, 13665.00
611.7460, 13568.00
612.9140, 13597.00
614.0810, 13718.00
615.2480, 13623.00
616.4140, 13862.00
617.5810, 13905.00
618.7470, 13898.87
619.9130, 13882.00
621.0790, 13879.00
622.2450, 13804.00
623.4110, 13738.00
624.5770, 13899.00
625.7420, 13873.00
626.9070, 14030.00
628.0720, 13957.00
629.2370, 14148.00
630.4020, 14124.00
631.5660, 14112.00
632.7310, 14149.00
633.8950, 14196.00
635.0590, 14206.03
636.2230, 14358.00
637.3870, 14273.00
638.5500, 14421.00
639.7140, 14494.00
640.8770, 14699.00
642.0400, 14655.00
643.2030, 14756.00
644.3660, 14835.00
645.5280, 14950.00
646.6910, 15063.00
647.8530, 15254.00
649.0150, 15186.00
650.1770, 15279.00
651.3390, 15553.00
652.5000, 15611.67
653.6620, 15969.00
654.8230, 15959.00
655.9840, 16370.00
657.1450, 16558.00
658.3060, 16774.00
659.4660, 16895.00
660.6270, 17092.00
661.7870, 17432.00
662.9470, 17844.00
664.1070, 18017.00
665.2670, 18382.00
666.4260, 18599.00
667.5860, 18724.00
668.7450, 18955.00
669.9040, 18840.00
671.0630, 19204.00
672.2220, 18917.00
673.3800, 18865.00
674.5390, 18789.00
675.6970, 18600.00
676.8550, 18394.00
678.0130, 18295.27
679.1710, 18264.00
680.3290, 18100.00
681.4860, 17965.00
682.6430, 18011.00
683.8000, 17964.00
684.9570, 17893.00
686.1140, 17782.00
687.2710, 17747.00
688.4270, 17746.00
689.5840, 17955.00
690.7400, 17850.00
691.8960, 18276.00
693.0520, 18376.00
694.2070, 18626.00
695.3630, 18734.00
696.5180, 18956.00
697.6730, 19190.00
698.8280, 19527.00
699.9830, 19593.00
701.1380, 19884.00
702.2920, 19925.00
703.4470, 20370.00
704.6010, 21521.00
705.7550, 21973.00
706.9090, 22458.00
708.0620, 22094.00
709.2160, 21510.00
710.3690, 21713.00
711.5220, 21699.00
712.6750, 21871.00
713.8280, 21755.00
714.9810, 21558.00
716.1340, 21758.00
717.2860, 21509.00
718.4380, 21502.00
719.5900, 21452.00
720.7420, 21238.00
721.8940, 20969.00
723.0450, 20740.00
724.1970, 20485.00
725.3480, 20242.04
726.4990, 20045.00
727.6500, 19747.76
728.8010, 19513.80
729.9510, 19241.00
731.1020, 18937.00
732.2520, 18993.00
733.4020, 18670.00
734.5520, 18391.00
735.7020, 18370.00
736.8510, 18111.00
738.0010, 18195.00
739.1500, 17866.00
740.2990, 17676.00
741.4480, 17651.00
742.5970, 17530.52
743.7450, 17539.88
744.8940, 17567.00
746.0420, 17614.00
747.1900, 17733.00
748.3380, 17793.00
749.4860, 17788.00
750.6330, 17852.00
751.7810, 17831.00
752.9280, 17810.00
754.0750, 17949.00
755.2220, 17942.00
756.3690, 17809.00
757.5160, 18080.00
758.6620, 18074.00
759.8090, 18319.00
760.9550, 18155.00
762.1010, 18153.00
763.2470, 18161.00
764.3920, 18040.00
765.5380, 18101.00
766.6830, 17901.00
767.8280, 17805.00
768.9730, 17636.00
770.1180, 17464.57
771.2630, 17133.00
772.4070, 17091.00
773.5520, 16900.00
774.6960, 16654.00
775.8400, 16621.00
776.9840, 16452.00
778.1280, 16155.00
779.2710, 15990.00
780.4140, 15802.24
781.5580, 15709.00
782.7010, 15401.00
783.8440, 15333.00
784.9860, 15000.00
786.1290, 14945.98
787.2710, 15390.00
788.4140, 14747.00
789.5560, 14884.00
790.6980, 14677.00
791.8390, 14429.00
792.9810, 14195.00
794.1220, 13992.00
795.2640, 13913.00
796.4050, 14036.00
797.5460, 13852.00
798.6860, 13737.00
799.8270, 13764.00
800.9680, 13663.00
802.1080, 13516.00
803.2480, 13569.00
804.3880, 13451.00
805.5280, 13351.00
806.6670, 13445.00
807.8070, 13141.00
808.9460, 13376.00
810.0850, 13174.00
811.2240, 13026.00
812.3630, 13067.00
813.5020, 13049.00
814.6400, 12996.37
815.7790, 12960.39
816.9170, 12947.00
818.0550, 12990.00
819.1930, 12965.00
820.3300, 13350.00
821.4680, 12997.00
822.6050, 13057.93
823.7430, 13211.00
824.8800, 12836.00
826.0170, 13054.00
827.1530, 12995.00
828.2900, 12959.00
829.4260, 12845.00
830.5620, 12981.00
831.6990, 12970.00
832.8340, 12922.00
833.9700, 12981.00
835.1060, 12845.00
836.2410, 12799.00
837.3760, 12977.00
838.5120, 13022.00
839.6470, 12916.00
840.7810, 12982.00
841.9160, 13156.00
843.0500, 12915.00
844.1850, 13086.00
845.3190, 12930.00
846.4530, 12987.00
847.5870, 13078.00
848.7200, 12987.83
849.8540, 13034.00
850.9870, 12943.00
852.1200, 13125.00
853.2530, 13132.00
854.3860, 13165.00
855.5190, 13160.00
856.6510, 13286.00
857.7840, 13197.00
858.9160, 13158.00
860.0480, 13201.00
861.1800, 13317.00
862.3110, 13161.00
863.4430, 13282.00
864.5740, 13407.00
865.7060, 13395.00
866.8370, 13415.00
867.9680, 13534.00
869.0980, 13530.00
870.2290, 13683.00
871.3590, 13545.00
872.4900, 13573.00
873.6200, 13691.00
874.7500, 13590.00
875.8790, 13676.00
877.0090, 13737.00
878.1380, 13639.00
879.2680, 13628.00
880.3970, 13726.00
881.5260, 13837.00
882.6550, 13804.00
883.7830, 13847.00
884.9120, 13803.00
886.0400, 13995.00
887.1680, 13931.00
888.2960, 14032.00
889.4240, 13867.00
890.5520, 14000.00
891.6790, 14098.00
892.8070, 14022.00
893.9340, 14231.00
895.0610, 14255.00
896.1880, 14342.00
897.3140, 14305.00
898.4410, 14256.00
899.5670, 14171.00
900.6940, 14200.00
901.8200, 14253.00
902.9450, 14238.00
904.0710, 14405.00
905.1970, 14318.00
906.3220, 14652.00
907.4470, 14421.00
908.5730, 14626.00
909.6980, 14620.00
910.8220, 14642.00
911.9470, 14486.00
913.0710, 14544.00
914.1960, 14609.00
915.3200, 14617.00
916.4440, 14693.00
917.5680, 14762.00
918.6910, 14834.00
919.8150, 14867.02
920.9380, 14718.00
922.0610, 14892.00
923.1840, 14892.00
924.3070, 14839.00
925.4300, 14987.00
926.5520, 15143.00
927.6750, 14764.00
928.7970, 14925.00
929.9190, 14922.00
931.0410, 14839.00
932.1630, 14963.00
933.2840, 14941.34
934.4060, 14925.00
935.5270, 14977.00
936.6480, 15051.00
937.7690, 14994.00
938.8900, 15094.00
940.0100, 15036.00
941.1310, 15098.00
942.2510, 15079.39
943.3710, 15034.30
944.4910, 15023.00
945.6110, 15075.00
946.7310, 15026.00
947.8500, 15341.00
948.9690, 15156.00
950.0890, 15260.00
951.2080, 15196.00
952.3260, 15206.00
953.4450, 15177.54
954.5640, 15137.63
955.6820, 15081.00
956.8000, 15074.00
957.9180, 15048.00
959.0360, 15034.00
960.1540, 15048.00
961.2710, 15014.00
962.3890, 15022.57
963.5060, 15224.68
964.6230, 15343.71
965.7400, 15384.13
966.8570, 15110.47
967.9730, 15242.36
969.0900, 15211.74
970.2060, 15174.44
971.3220, 15363.41
972.4380, 15135.42
973.5540, 15320.81
974.6700, 15341.18
975.7850, 15437.07
976.9010, 15369.43
978.0160, 15352.29
979.1310, 15498.74
980.2460, 15554.61
981.3600, 15468.12
982.4750, 15568.81
983.5890, 15335.09
984.7030, 15394.81
985.8170, 15581.13
986.9310, 15502.86
988.0450, 15606.53
989.1590, 15640.90
990.2720, 15360.39
991.3850, 15627.48
992.4980, 15657.75
993.6110, 15444.86
994.7240, 15693.19
995.8370, 15513.82
996.9490, 15487.10
998.0620, 15575.28
999.1740, 15543.68
1000.286, 15700.91
1001.398, 15676.23
1002.509, 15635.28
1003.621, 15665.28
1004.732, 15494.27
1005.843, 15696.14
1006.954, 15643.30
1008.065, 15717.08
1009.176, 15819.55
1010.286, 15702.27
1011.397, 15630.00
1012.507, 15725.00
1013.617, 15640.00
1014.727, 15821.00
1015.837, 16090.00
1016.946, 15913.00
1018.056, 16009.00
1019.165, 15985.00
1020.274, 15950.00
1021.383, 15918.00
1022.492, 15858.00
1023.601, 15649.00
1024.709, 15857.00
1025.817, 15781.00
1026.926, 15954.00
1028.034, 15899.00
1029.141, 15985.00
1030.249, 15753.00
1031.357, 15747.00
1032.464, 15797.00
1033.571, 15607.00
1034.678, 15747.00
1035.785, 15660.00
1036.892, 15589.00
1037.999, 15711.00
1039.105, 15593.00
1040.211, 15746.00
1041.317, 15771.00
1042.423, 15740.00
1043.529, 15650.00
1044.635, 15758.00
1045.740, 15667.91
1046.845, 15653.00
1047.951, 15677.00
1049.056, 15590.00
1050.160, 15766.00
1051.265, 15609.86
1052.370, 15826.00
1053.474, 15792.00
1054.578, 16056.00
1055.682, 15936.11
1056.786, 15900.00
1057.890, 15804.00
1058.993, 15643.00
1060.097, 15734.00
1061.200, 15671.00
1062.303, 15891.00
1063.406, 15933.00
1064.509, 15966.79
1065.612, 15866.00
1066.714, 16031.00
1067.816, 15964.00
1068.919, 15959.00
1070.021, 15866.00
1071.122, 15764.00
1072.224, 15827.00
1073.326, 15809.00
1074.427, 15753.00
1075.528, 15697.00
1076.629, 15702.00
1077.730, 15658.00
1078.831, 15582.00
1079.931, 15606.00
1081.032, 15786.00
1082.132, 15620.00
1083.232, 15758.00
1084.332, 15559.00
1085.432, 15668.00
1086.531, 15516.00
1087.631, 15470.00
1088.730, 15315.00
1089.829, 15183.00
1090.928, 15185.00
1092.027, 15203.00
1093.126, 15264.00
1094.224, 15158.00
1095.323, 15182.53
1096.421, 15143.00
1097.519, 15110.00
1098.617, 15019.00
1099.715, 14940.00
1100.812, 14913.00
1101.910, 14897.00
1103.007, 14855.00
1104.104, 14781.00
1105.201, 14828.00
1106.298, 14741.00
1107.394, 14630.00
1108.491, 14729.00
1109.587, 14663.00
1110.683, 14724.00
1111.779, 14715.00
1112.875, 14796.00
1113.971, 14502.32
1115.066, 14676.89
1116.162, 14768.37
1117.257, 14781.24
1118.352, 14480.04
1119.447, 14584.41
1120.542, 14526.24
1121.636, 14461.42
1122.731, 14622.87
1123.825, 14367.36
1124.919, 14525.23
1126.013, 14518.09
1127.107, 14586.47
1128.200, 14491.33
1129.294, 14446.69
1130.387, 14565.64
1131.480, 14594.02
1132.573, 14480.06
1133.666, 14553.25
1134.759, 14292.05
1135.851, 14324.30
1136.944, 14483.14
1138.036, 14377.41
1139.128, 14453.61
1140.220, 14460.52
1141.312, 14152.54
1142.403, 14392.20
1143.495, 14395.01
1144.586, 14154.68
1145.677, 14375.57
1146.768, 14168.75
1147.859, 14114.60
1148.950, 14175.34
1150.040, 14116.33
1151.130, 14246.14
1152.221, 14194.03
1153.311, 14125.68
1154.401, 14128.26
1155.490, 13929.86
1156.580, 14104.32
1157.669, 14024.10
1158.759, 13958.00
1159.848, 13811.00
1160.937, 14051.00
1162.025, 13793.00
1163.114, 14058.00
1164.202, 13906.35
1165.291, 13921.00
1166.379, 13821.00
1167.467, 13693.00
1168.555, 13712.30
1169.642, 13690.69
1170.730, 13715.00
1171.817, 13750.00
1172.905, 13822.00
1173.992, 13823.00
1175.078, 13800.00
1176.165, 13936.00
1177.252, 13709.00
1178.338, 13840.00
1179.425, 13812.00
1180.511, 13704.00
1181.597, 13747.00
1182.682, 13710.00
1183.768, 13793.00
1184.854, 13652.00
1185.939, 13829.00
1187.024, 13725.00
1188.109, 13789.00
1189.194, 13827.00
1190.279, 13747.00
1191.363, 13642.00
1192.448, 13706.00
1193.532, 13665.00
1194.616, 13789.00
1195.700, 13668.00
1196.784, 13633.00
1197.867, 13760.00
1198.951, 13694.00
1200.034, 13663.00
1201.117, 13828.00
1202.200, 13952.63
1203.283, 13819.17
1204.366, 13806.25
1205.448, 13639.00
1206.531, 13559.00
1207.613, 13463.55
1208.695, 13657.06
1209.777, 13767.48
1210.859, 13799.30
1211.940, 13517.04
1213.022, 13640.34
1214.103, 13601.10
1215.184, 13555.21
1216.265, 13735.58
1217.346, 13499.00
1218.427, 13675.79
1219.507, 13687.57
1220.587, 13774.87
1221.668, 13650.00
1222.748, 13665.21
1223.828, 13579.00
1224.907, 13647.00
1225.987, 13659.00
1227.066, 13578.00
1228.146, 13645.00
1229.225, 13550.00
1230.304, 13621.00
1231.382, 13738.00
1232.461, 13578.00
1233.540, 13612.00
1234.618, 13641.00
1235.696, 13585.00
1236.774, 13622.51
1237.852, 13617.40
1238.930, 13668.00
1240.007, 13570.00
1241.085, 13658.00
1242.162, 13507.00
1243.239, 13509.85
1244.316, 13829.00
1245.393, 13534.00
1246.469, 13465.00
1247.546, 13673.00
1248.622, 13499.00
1249.698, 13670.00
1250.774, 13647.99
1251.850, 13601.17
1252.926, 13699.00
1254.001, 13529.00
1255.077, 13660.00
1256.152, 13615.00
1257.227, 13685.00
1258.302, 13636.00
1259.377, 13735.00
1260.451, 13604.00
1261.526, 13504.00
1262.600, 13649.00
1263.674, 13570.93
1264.748, 13695.00
1265.822, 13667.00
1266.896, 13661.00
1267.969, 13802.00
1269.043, 13751.00
1270.116, 13668.00
1271.189, 13585.47
1272.262, 13765.45
1273.335, 13862.35
1274.407, 13880.65
1275.480, 13584.86
1276.552, 13694.64
1277.624, 13641.89
1278.696, 13582.48
1279.768, 13749.34
1280.840, 13499.25
1281.911, 13662.53
1282.982, 13660.80
1284.054, 13734.59
1285.125, 13644.85
1286.196, 13605.62
1287.266, 13729.98
1288.337, 13763.76
1289.407, 13655.21
1290.478, 13733.80
1291.548, 13478.01
1292.618, 13838.00
1293.688, 13664.00
1294.757, 13656.00
1295.827, 13780.00
1296.896, 13727.00
1297.965, 13690.00
1299.034, 13661.00
1300.103, 13576.00
1301.172, 13606.26
1302.241, 13760.00
1303.309, 13746.00
1304.377, 13746.61
1305.445, 13746.00
1306.513, 13685.00
1307.581, 13615.34
1308.649, 13620.00
1309.716, 13498.00
1310.784, 13705.00
1311.851, 13660.00
1312.918, 13591.00
1313.985, 13745.00
1315.052, 13596.00
1316.118, 13680.00
1317.185, 13568.00
1318.251, 13623.00
1319.317, 13691.00
1320.383, 13647.67
1321.449, 13733.00
1322.514, 13679.00
1323.580, 13653.00
1324.645, 13713.00
1325.711, 13613.00
1326.776, 13689.00
1327.840, 13579.00
1328.905, 13615.00
1329.970, 13628.00
1331.034, 13696.00
1332.099, 13675.33
1333.163, 13682.00
1334.227, 13577.00
1335.290, 13829.00
1336.354, 13644.00
1337.418, 13623.35
1338.481, 13817.83
1339.544, 13929.23
1340.607, 13962.02
1341.670, 13680.73
1342.733, 13805.00
1343.795, 13766.74
1344.858, 13721.82
1345.920, 13903.17
1346.982, 13667.56
1348.044, 13845.33
1349.106, 13858.08
1350.168, 13946.35
1351.229, 13871.08
1352.291, 13846.33
1353.352, 13985.16
1354.413, 14033.42
1355.474, 13939.32
1356.534, 14032.39
1357.595, 13791.06
1358.656, 13843.17
1359.716, 14021.88
1360.776, 13936.01
1361.836, 14032.06
1362.896, 14058.83
1363.955, 13770.71
1365.015, 14030.21
1366.074, 14052.87
1367.134, 13832.38
1368.193, 14073.10
1369.252, 13886.13
1370.310, 13851.81
1371.369, 13932.39
1372.427, 13893.19
1373.486, 14042.83
1374.544, 14010.55
1375.602, 13962.02
1376.660, 13984.42
1377.717, 13805.82
1378.775, 14000.10
1379.832, 13939.68
1380.889, 14005.86
1381.946, 14100.74
1383.003, 13975.88
1384.060, 14083.66
1385.117, 13830.67
1386.173, 13879.54
1387.230, 13895.91
1388.286, 14105.22
1389.342, 13853.99
1390.398, 13894.48
1391.453, 14059.17
1392.509, 14050.06
1393.564, 14113.62
1394.619, 13962.06
1395.675, 14012.59
1396.729, 14007.41
1397.784, 14194.72
1398.839, 14230.07
1399.893, 14082.15
1400.948, 13935.02
1402.002, 14136.17
1403.056, 14007.21
1404.110, 14056.35
1405.163, 13921.54
1406.217, 13945.55
1407.270, 13967.04
1408.324, 14069.95
1409.377, 13925.99
1410.430, 14102.25
1411.483, 14093.43
1412.535, 14139.12
1413.588, 14178.75
1414.640, 13970.03
1415.692, 13964.89
1416.744, 14251.08
1417.796, 14092.99
1418.848, 14024.56
1419.900, 14019.89
1420.951, 14185.00
1422.002, 14012.00
1423.053, 14114.00
1424.104, 13949.00
1425.155, 14200.00
1426.206, 14180.00
1427.256, 14136.00
1428.307, 14222.00
1429.357, 14220.00
1430.407, 14230.00
1431.457, 14204.00
1432.507, 14206.18
1433.556, 14189.96
1434.606, 14181.00
1435.655, 14166.40
1436.704, 14134.13
1437.753, 14102.00
1438.802, 14120.00
1439.851, 14070.00
1440.899, 14101.00
1441.948, 14254.00
1442.996, 14229.00
1444.044, 14251.00
1445.092, 14430.00
1446.140, 14277.00
1447.187, 14203.00
1448.235, 14097.00
1449.282, 14137.00
1450.329, 13969.00
1451.376, 14199.00
1452.423, 13978.00
1453.470, 14252.00
1454.517, 14254.67
1455.563, 14282.00
1456.609, 14340.00
1457.655, 14190.00
1458.701, 14124.00
1459.747, 14325.00
1460.793, 14239.00
1461.838, 14040.00
1462.884, 14126.00
1463.929, 14110.00
1464.974, 14050.00
1466.019, 14252.00
1467.064, 14311.00
1468.108, 14262.00
1469.153, 14330.00
1470.197, 14261.00
1471.241, 14316.00
1472.285, 14257.00
1473.329, 14095.00
1474.373, 14196.00
1475.416, 14160.00
1476.460, 14254.00
1477.503, 14298.00
1478.546, 14075.00
1479.589, 14376.00
1480.632, 14272.00
1481.674, 14212.00
1482.717, 14546.00
1483.759, 14293.00
1484.801, 14437.00
1485.843, 14307.00
1486.885, 14294.00
1487.927, 14299.14
1488.968, 14385.00
1490.010, 14291.00
1491.051, 14136.00
1492.092, 14214.00
1493.133, 14250.00
1494.174, 14370.00
1495.215, 14409.00
1496.255, 14330.00
1497.296, 14282.00
1498.336, 14381.00
1499.376, 14269.00
1500.416, 14315.00
1501.456, 14381.00
1502.495, 14258.00
1503.535, 14165.00
1504.574, 14234.00
1505.613, 14411.00
1506.652, 14493.00
1507.691, 14317.00
1508.730, 14334.00
1509.768, 14292.73
1510.807, 14219.83
1511.845, 14268.00
1512.883, 14172.00
1513.921, 14268.00
1514.959, 14331.00
1515.996, 14371.00
1517.034, 14210.00
1518.071, 14245.00
1519.109, 14215.00
1520.146, 14319.00
1521.183, 14291.00
1522.219, 14420.00
1523.256, 14341.00
1524.292, 14260.00
1525.329, 14314.00
1526.365, 14131.00
1527.401, 14319.00
1528.437, 14259.00
1529.472, 14317.00
1530.508, 14318.00
1531.543, 14108.00
1532.579, 14289.00
1533.614, 14115.00
1534.649, 14405.00
1535.683, 14251.00
1536.718, 14355.00
1537.753, 14229.00
1538.787, 14285.00
1539.821, 14309.00
1540.855, 14396.00
1541.889, 14034.83
1542.923, 14224.94
1543.956, 14331.98
1544.990, 14360.40
1546.023, 14074.75
1547.056, 14194.66
1548.089, 14152.04
1549.122, 14102.75
1550.155, 14279.74
1551.187, 14039.77
1552.220, 14213.17
1553.252, 14221.56
1554.284, 14305.47
1555.316, 14225.85
1556.348, 14196.74
1557.379, 14331.21
1558.411, 14375.11
1559.442, 14276.66
1560.474, 14365.38
1561.505, 14119.69
1562.535, 14167.45
1563.566, 14294.00
1564.597, 14295.00
1565.627, 14343.00
1566.658, 14348.00
1567.688, 14159.00
1568.718, 14374.00
1569.748, 14310.00
1570.777, 14346.00
##END=



