##NAMES=Annite
##RRUFFID=R060204
##IDEAL CHEMISTRY=KFe^2+^_3_AlSi_3_O_10_(OH)_2_
##LOCALITY=Mont Saint-Hilaire, Rouville County, Quebec, Canada
##OWNER=RRUFF
##SOURCE=Royal Ontario Museum
##DESCRIPTION=Black mica with pseudohexagonal outines
##STATUS=The identification of this mineral has been confirmed by X-ray diffraction and chemical analysis
##URL=rruff.info/R060204
##MEASURED CHEMISTRY=(K_0.96_Na_0.04_)_Σ=1_(Fe^2+^_2.04_Mg_0.81_Mn_0.09_Ti_0.03_[box]_0.03_)_Σ=3_(Si_3.00_Al_1.00_)O_10_((OH)_1.54_F_0.46_)_Σ=2_
##PIN_ID=M00078
##ORIENTATION=Laser parallel to a* (1 0 0). Fiducial mark perpendicular to laser is parallel to -b [0 -1 0]
307.1510, 28262.46
308.3580, 28235.00
309.5660, 28274.00
310.7730, 27934.00
311.9800, 28424.00
313.1870, 28670.00
314.3940, 28136.00
315.6010, 28311.00
316.8070, 28461.00
318.0130, 28106.00
319.2200, 28287.00
320.4260, 28361.00
321.6310, 28401.00
322.8370, 28429.00
324.0430, 28466.00
325.2480, 28598.00
326.4540, 28681.00
327.6590, 28695.00
328.8640, 28642.00
330.0680, 28771.00
331.2730, 28564.00
332.4780, 28648.00
333.6820, 28830.00
334.8860, 28858.00
336.0900, 28744.00
337.2940, 28944.00
338.4980, 28607.00
339.7010, 28916.00
340.9050, 28954.00
342.1080, 28848.00
343.3110, 28966.00
344.5140, 28922.00
345.7170, 29056.00
346.9200, 29090.00
348.1220, 29162.58
349.3240, 29318.00
350.5270, 29409.00
351.7290, 29180.00
352.9310, 29431.00
354.1320, 29368.72
355.3340, 29354.00
356.5350, 29506.00
357.7370, 29322.00
358.9380, 29539.00
360.1390, 29661.00
361.3400, 29908.00
362.5400, 30238.00
363.7410, 29899.00
364.9410, 29946.87
366.1410, 29642.00
367.3410, 29679.00
368.5410, 29731.00
369.7410, 29935.00
370.9400, 29926.00
372.1400, 29923.00
373.3390, 30183.00
374.5380, 30008.00
375.7370, 30166.00
376.9360, 30156.00
378.1350, 30323.00
379.3330, 30412.00
380.5310, 30360.00
381.7300, 30434.00
382.9280, 30586.00
384.1260, 30511.00
385.3230, 30692.00
386.5210, 30662.00
387.7180, 30961.00
388.9160, 30840.00
390.1130, 30664.00
391.3100, 30996.00
392.5060, 31047.00
393.7030, 30882.00
394.9000, 31445.00
396.0960, 31288.14
397.2920, 31273.00
398.4880, 31456.00
399.6840, 31198.00
400.8800, 31438.00
402.0750, 30894.00
403.2710, 31289.00
404.4660, 31164.00
405.6610, 31096.00
406.8560, 31071.00
408.0510, 31050.00
409.2450, 30901.00
410.4400, 31007.00
411.6340, 31009.00
412.8280, 31085.00
414.0220, 30842.00
415.2160, 30953.00
416.4100, 30685.00
417.6030, 30897.00
418.7970, 30970.00
419.9900, 30808.00
421.1830, 30645.00
422.3760, 30749.00
423.5690, 30591.00
424.7610, 30784.00
425.9540, 30727.00
427.1460, 30647.00
428.3380, 30758.00
429.5300, 30666.00
430.7220, 30544.00
431.9140, 30573.00
433.1050, 30521.00
434.2970, 30517.00
435.4880, 30412.03
436.6790, 30576.01
437.8700, 30664.71
439.0610, 30682.18
440.2510, 30415.08
441.4420, 30515.44
442.6320, 30468.55
443.8220, 30415.62
445.0120, 30567.71
446.2020, 30342.00
447.3910, 30493.00
448.5810, 30582.00
449.7700, 30470.00
450.9600, 30631.00
452.1490, 30703.00
453.3370, 30640.00
454.5260, 30517.00
455.7150, 30513.00
456.9030, 30688.00
458.0910, 30807.00
459.2800, 30589.00
460.4670, 30771.00
461.6550, 30792.00
462.8430, 30876.00
464.0300, 30910.00
465.2180, 30968.00
466.4050, 30750.00
467.5920, 31181.00
468.7790, 31136.00
469.9650, 31404.00
471.1520, 31047.00
472.3380, 31307.00
473.5250, 31432.00
474.7110, 31430.00
475.8970, 31758.00
477.0820, 31467.00
478.2680, 31741.00
479.4540, 31840.00
480.6390, 32115.00
481.8240, 31871.00
483.0090, 32075.00
484.1940, 31947.00
485.3780, 31999.90
486.5630, 32280.00
487.7470, 32136.00
488.9320, 32500.00
490.1160, 32627.00
491.3000, 32717.00
492.4830, 32649.00
493.6670, 32967.00
494.8500, 32868.00
496.0340, 32996.00
497.2170, 33047.00
498.4000, 33114.00
499.5820, 33332.00
500.7650, 33357.00
501.9480, 33366.00
503.1300, 33517.00
504.3120, 33497.00
505.4940, 33715.00
506.6760, 33796.00
507.8580, 34078.00
509.0390, 34159.00
510.2210, 34113.00
511.4020, 34241.00
512.5830, 34416.00
513.7640, 34574.00
514.9450, 34481.00
516.1250, 34597.00
517.3060, 34663.00
518.4860, 34546.00
519.6660, 34517.00
520.8460, 34705.00
522.0260, 34771.00
523.2060, 34607.00
524.3850, 34671.00
525.5650, 35020.00
526.7440, 34749.00
527.9230, 35033.00
529.1020, 34789.00
530.2810, 34801.00
531.4590, 34766.00
532.6380, 35218.00
533.8160, 34926.00
534.9940, 35135.00
536.1720, 35019.00
537.3500, 35265.00
538.5270, 35202.00
539.7050, 35255.00
540.8820, 35216.00
542.0590, 35361.00
543.2360, 35371.00
544.4130, 35360.00
545.5900, 35378.00
546.7660, 35263.00
547.9430, 35505.00
549.1190, 35386.00
550.2950, 35226.00
551.4710, 35521.00
552.6470, 35347.00
553.8220, 35439.00
554.9980, 35372.00
556.1730, 35284.58
557.3480, 35291.09
558.5230, 35201.00
559.6980, 35179.00
560.8730, 35153.38
562.0470, 35217.00
563.2220, 35067.00
564.3960, 35060.00
565.5700, 34937.97
566.7440, 34931.65
567.9170, 34787.00
569.0910, 34860.00
570.2640, 34841.00
571.4380, 34655.00
572.6110, 34664.00
573.7840, 34383.00
574.9570, 34351.00
576.1290, 34584.00
577.3020, 34817.00
578.4740, 34339.00
579.6460, 34446.00
580.8180, 34287.00
581.9900, 34102.00
583.1620, 34288.00
584.3330, 33892.00
585.5040, 34013.00
586.6760, 33913.00
587.8470, 33918.00
589.0180, 33955.00
590.1880, 34116.00
591.3590, 34017.00
592.5290, 33931.00
593.7000, 33816.00
594.8700, 34062.00
596.0400, 34262.00
597.2090, 34224.00
598.3790, 34077.00
599.5490, 34090.00
600.7180, 34159.00
601.8870, 34162.00
603.0560, 34199.57
604.2250, 34273.14
605.3940, 34315.00
606.5620, 34383.00
607.7300, 34572.00
608.8990, 34558.00
610.0670, 34286.00
611.2350, 34636.00
612.4020, 34507.00
613.5700, 34768.00
614.7370, 34569.00
615.9050, 34646.00
617.0720, 34635.00
618.2390, 34706.99
619.4060, 34776.16
620.5720, 35013.00
621.7390, 34965.00
622.9050, 35198.00
624.0710, 35364.00
625.2370, 35387.00
626.4030, 35589.00
627.5690, 35539.00
628.7340, 35787.00
629.9000, 35780.00
631.0650, 35863.00
632.2300, 35985.76
633.3950, 36004.00
634.5600, 36231.00
635.7240, 36093.00
636.8890, 36347.00
638.0530, 36227.00
639.2170, 36024.00
640.3810, 36301.00
641.5450, 36119.00
642.7080, 36078.00
643.8720, 36334.00
645.0350, 36298.00
646.1980, 36197.00
647.3610, 36299.00
648.5240, 36470.00
649.6870, 36095.00
650.8490, 36380.00
652.0120, 36332.00
653.1740, 36266.00
654.3360, 36578.00
655.4980, 36594.00
656.6600, 36622.00
657.8210, 36716.00
658.9830, 36631.00
660.1440, 36560.00
661.3050, 36643.00
662.4660, 36900.00
663.6270, 37159.00
664.7870, 37063.00
665.9480, 37347.00
667.1080, 37170.00
668.2680, 37285.00
669.4280, 37842.00
670.5880, 37743.00
671.7480, 38117.00
672.9070, 37946.00
674.0670, 38364.00
675.2260, 38372.00
676.3850, 38659.00
677.5440, 38746.00
678.7030, 38785.00
679.8610, 38951.00
681.0200, 38939.00
682.1780, 39094.00
683.3360, 39159.00
684.4940, 38925.00
685.6520, 38748.00
686.8090, 38786.00
687.9670, 38900.00
689.1240, 38573.00
690.2810, 38838.00
691.4380, 38637.00
692.5950, 38598.00
693.7520, 38751.00
694.9080, 38530.00
696.0650, 38703.00
697.2210, 38727.00
698.3770, 38926.00
699.5330, 38673.00
700.6880, 38794.00
701.8440, 38597.00
702.9990, 38898.00
704.1550, 38970.00
705.3100, 39087.00
706.4650, 39244.00
707.6190, 39732.00
708.7740, 39818.02
709.9290, 39895.00
711.0830, 40253.00
712.2370, 39538.00
713.3910, 39697.00
714.5450, 39532.00
715.6980, 39686.00
716.8520, 39521.00
718.0050, 39877.00
719.1580, 39719.00
720.3110, 39902.00
721.4640, 39715.00
722.6170, 39525.00
723.7700, 39638.00
724.9220, 39546.00
726.0740, 39547.00
727.2260, 39419.00
728.3780, 39366.05
729.5300, 39254.00
730.6810, 39235.00
731.8330, 39082.00
732.9840, 39057.00
734.1350, 38918.00
735.2860, 38864.00
736.4370, 39055.00
737.5880, 38884.00
738.7380, 38910.00
739.8880, 38719.00
741.0390, 38768.00
742.1890, 38873.00
743.3380, 38817.00
744.4880, 38623.00
745.6380, 38856.00
746.7870, 39014.18
747.9360, 39221.32
749.0850, 39353.20
750.2340, 39413.83
751.3830, 39189.89
752.5310, 39333.40
753.6800, 39329.67
754.8280, 39319.87
755.9760, 39515.09
757.1240, 39332.52
758.2720, 39524.49
759.4190, 39566.92
760.5670, 39677.81
761.7140, 39640.50
762.8610, 39648.95
764.0080, 39805.62
765.1550, 39880.23
766.3020, 39663.00
767.4480, 39689.00
768.5950, 39663.26
769.7410, 39693.00
770.8870, 39604.00
772.0330, 39686.00
773.1780, 39615.00
774.3240, 39360.00
775.4690, 39158.00
776.6140, 39592.00
777.7590, 39162.00
778.9040, 39435.00
780.0490, 39244.00
781.1940, 39133.00
782.3380, 38983.00
783.4820, 39067.00
784.6260, 38814.00
785.7700, 38620.00
786.9140, 38497.00
788.0580, 38620.00
789.2010, 38483.00
790.3450, 38087.00
791.4880, 38225.00
792.6310, 37866.00
793.7730, 37847.00
794.9160, 37970.00
796.0590, 37687.00
797.2010, 37700.00
798.3430, 37546.00
799.4850, 37439.00
800.6270, 37576.00
801.7690, 37402.00
802.9100, 37409.00
804.0520, 37116.00
805.1930, 37053.00
806.3340, 36961.00
807.4750, 37120.00
808.6160, 37160.00
809.7560, 37036.00
810.8970, 37065.00
812.0370, 36984.00
813.1770, 36846.00
814.3170, 36872.00
815.4570, 37103.00
816.5960, 36935.00
817.7360, 36957.00
818.8750, 36566.00
820.0140, 37006.00
821.1530, 36619.00
822.2920, 36847.00
823.4310, 36507.00
824.5690, 36821.00
825.7070, 36949.00
826.8460, 36892.00
827.9840, 36715.00
829.1220, 36986.00
830.2590, 36758.00
831.3970, 36754.00
832.5340, 36732.00
833.6710, 36701.43
834.8080, 36949.00
835.9450, 36842.00
837.0820, 36955.00
838.2190, 37187.00
839.3550, 37177.00
840.4910, 37366.00
841.6270, 37234.86
842.7630, 37096.00
843.8990, 37047.00
845.0350, 37117.00
846.1700, 37297.00
847.3060, 37075.00
848.4410, 37274.00
849.5760, 37173.00
850.7100, 37408.00
851.8450, 37303.00
852.9800, 37333.00
854.1140, 37544.00
855.2480, 37374.00
856.3820, 37644.00
857.5160, 37440.00
858.6500, 37370.00
859.7830, 37686.00
860.9170, 37672.00
862.0500, 37721.00
863.1830, 37758.00
864.3160, 37941.00
865.4480, 37841.00
866.5810, 37667.00
867.7130, 37972.00
868.8460, 37937.00
869.9780, 37884.00
871.1100, 38144.00
872.2410, 37869.00
873.3730, 38070.00
874.5050, 38290.00
875.6360, 37877.00
876.7670, 38106.00
877.8980, 38075.00
879.0290, 37950.00
880.1590, 38377.00
881.2900, 38212.00
882.4200, 38525.00
883.5500, 38294.00
884.6800, 38644.00
885.8100, 38467.00
886.9400, 38469.00
888.0690, 38777.00
889.1990, 38884.00
890.3280, 38717.00
891.4570, 38586.00
892.5860, 38812.00
893.7140, 38982.00
894.8430, 38980.00
895.9710, 39077.00
897.1000, 38997.00
898.2280, 39163.00
899.3560, 39172.00
900.4830, 39279.35
901.6110, 39261.00
902.7380, 39203.00
903.8660, 39204.75
904.9930, 39271.33
906.1200, 39407.00
907.2460, 39392.00
908.3730, 39568.00
909.5000, 39503.00
910.6260, 39423.00
911.7520, 39664.00
912.8780, 39637.00
914.0040, 40203.00
915.1290, 39761.00
916.2550, 39978.00
917.3800, 39746.00
918.5050, 39954.00
919.6300, 39959.00
920.7550, 40032.00
921.8800, 39905.00
923.0040, 40203.00
924.1290, 40029.00
925.2530, 39838.00
926.3770, 40414.00
927.5010, 40486.00
928.6250, 40578.00
929.7480, 40156.00
930.8720, 40527.00
931.9950, 40381.00
933.1180, 40467.00
934.2410, 40424.00
935.3640, 40638.00
936.4860, 40638.00
937.6090, 40670.00
938.7310, 41201.00
939.8530, 40906.09
940.9750, 41032.51
942.0970, 40774.00
943.2180, 40838.00
944.3400, 41110.00
945.4610, 40899.00
946.5820, 40858.00
947.7030, 40970.00
948.8240, 40866.00
949.9450, 41057.00
951.0650, 40754.00
952.1860, 41057.00
953.3060, 40875.00
954.4260, 41026.00
955.5460, 41413.00
956.6650, 40929.00
957.7850, 41011.00
958.9040, 41010.00
960.0230, 40936.00
961.1420, 41003.00
962.2610, 40645.00
963.3800, 41271.00
964.4990, 41155.00
965.6170, 41808.00
966.7350, 41087.00
967.8530, 41324.00
968.9710, 41226.00
970.0890, 41364.00
971.2070, 41326.00
972.3240, 41522.00
973.4410, 41367.00
974.5580, 41580.00
975.6750, 41432.00
976.7920, 41583.00
977.9090, 41630.54
979.0250, 41603.35
980.1410, 41744.00
981.2580, 41658.00
982.3740, 41677.00
983.4890, 41772.00
984.6050, 41558.00
985.7200, 41842.00
986.8360, 41946.00
987.9510, 41822.00
989.0660, 41771.00
990.1810, 41839.00
991.2950, 41947.00
992.4100, 41894.00
993.5240, 41888.00
994.6390, 41905.00
995.7530, 41950.00
996.8660, 42240.00
997.9800, 42225.00
999.0940, 42182.00
1000.207, 42027.00
1001.320, 42065.00
1002.433, 42087.00
1003.546, 42109.00
1004.659, 42050.00
1005.772, 42168.00
1006.884, 42033.00
1007.996, 42155.00
1009.108, 42178.11
1010.220, 42205.00
1011.332, 42352.00
1012.444, 42259.00
1013.555, 42475.00
1014.666, 42217.00
1015.777, 42475.00
1016.888, 42167.02
1017.999, 42383.38
1019.110, 42524.45
1020.220, 42594.26
1021.331, 42379.54
1022.441, 42532.24
1023.551, 42537.68
1024.661, 42537.08
1025.770, 42741.46
1026.880, 42568.08
1027.989, 42769.21
1029.098, 42820.83
1030.207, 42940.88
1031.316, 42912.75
1032.425, 42930.39
1033.533, 43096.20
1034.642, 43179.99
1035.750, 43134.77
1036.858, 43259.12
1037.966, 43080.49
1039.073, 42923.00
1040.181, 43343.00
1041.288, 43270.00
1042.396, 43352.00
1043.503, 43132.00
1044.610, 43256.00
1045.716, 43327.00
1046.823, 43455.00
1047.929, 43541.00
1049.036, 43469.00
1050.142, 43537.00
1051.248, 43602.00
1052.353, 43581.00
1053.459, 43682.00
1054.564, 43734.00
1055.670, 43880.00
1056.775, 43873.27
1057.880, 43954.00
1058.985, 43912.00
1060.089, 43883.00
1061.194, 43964.00
1062.298, 43979.00
1063.402, 44053.62
1064.506, 44110.10
1065.610, 44163.00
1066.713, 44210.00
1067.817, 44127.00
1068.920, 44114.00
1070.023, 43875.50
1071.126, 44062.64
1072.229, 44174.50
1073.332, 44215.14
1074.435, 43971.20
1075.537, 44094.71
1076.639, 44070.96
1077.741, 44041.17
1078.843, 44216.40
1079.945, 44013.84
1081.046, 44185.81
1082.148, 44208.28
1083.249, 44299.16
1084.350, 44241.87
1085.451, 44230.35
1086.551, 44367.04
1087.652, 44421.66
1088.752, 44347.30
1089.853, 44442.54
1090.953, 44234.77
1092.053, 44292.88
1093.152, 44465.68
1094.252, 44398.77
1095.351, 44496.69
1096.451, 44531.84
1097.550, 44281.66
1098.649, 44527.67
1099.748, 44559.10
1100.846, 44370.18
1101.945, 44599.18
1103.043, 44440.64
1104.141, 44420.43
1105.239, 44504.31
1106.337, 44479.67
1107.434, 44626.12
1108.532, 44607.75
1109.629, 44574.64
1110.726, 44605.79
1111.823, 44454.84
1112.920, 44641.74
1114.017, 44597.85
1115.113, 44668.68
1116.210, 44765.51
1117.306, 44663.23
1118.402, 44771.74
1119.498, 44553.37
1120.593, 44608.49
1121.689, 44634.18
1122.784, 44834.68
1123.879, 44617.89
1124.974, 44665.41
1126.069, 44825.48
1127.164, 44828.07
1128.259, 44896.51
1129.353, 44770.02
1130.447, 44826.64
1131.541, 45117.00
1132.635, 45075.00
1133.729, 44793.00
1134.822, 45092.00
1135.916, 44986.00
1137.009, 45116.00
1138.102, 45043.00
1139.195, 44921.00
1140.288, 45065.00
1141.380, 44965.00
1142.473, 44954.00
1143.565, 45091.00
1144.657, 45220.00
1145.749, 45186.00
1146.841, 45146.00
1147.932, 45180.00
1149.024, 45190.25
1150.115, 45069.00
1151.206, 45225.00
1152.297, 45082.07
1153.388, 45268.86
1154.479, 45380.37
1155.569, 45420.63
1156.659, 45176.32
1157.750, 45299.50
1158.839, 45275.38
1159.929, 45245.23
1161.019, 45420.11
1162.108, 45217.18
1163.198, 45388.80
1164.287, 45410.91
1165.376, 45501.43
1166.465, 45443.79
1167.553, 45431.90
1168.642, 45568.24
1169.730, 45622.50
1170.818, 45547.79
1171.906, 45642.65
1172.994, 45434.53
1174.082, 45492.28
1175.170, 45664.75
1176.257, 45597.47
1177.344, 45695.03
1178.431, 45729.81
1179.518, 45479.28
1180.605, 45724.94
1181.691, 45977.00
1182.778, 45864.00
1183.864, 45909.00
1184.950, 45956.00
1186.036, 45930.47
1187.122, 46180.00
1188.207, 46029.00
1189.292, 46024.00
1190.378, 46201.00
1191.463, 45763.00
1192.548, 45908.00
1193.632, 45913.00
1194.717, 46129.00
1195.801, 46485.00
1196.886, 45851.00
1197.970, 46529.00
1199.054, 46190.00
1200.137, 46332.00
1201.221, 46272.00
1202.305, 46227.00
1203.388, 46142.00
1204.471, 46369.00
1205.554, 46492.00
1206.637, 46249.00
1207.719, 46288.00
1208.802, 46599.00
1209.884, 46526.00
1210.966, 46680.00
1212.048, 46709.45
1213.130, 46693.00
1214.212, 46613.00
1215.293, 46837.00
1216.374, 46608.00
1217.456, 46786.00
1218.536, 46758.00
1219.617, 46740.00
1220.698, 46821.00
1221.778, 46911.00
1222.859, 47061.00
1223.939, 47049.00
1225.019, 47032.00
1226.099, 47156.00
1227.178, 46968.00
1228.258, 47110.00
1229.337, 47058.00
1230.417, 47099.00
1231.496, 46982.00
1232.574, 47086.32
1233.653, 47253.00
1234.732, 47241.00
1235.810, 47314.00
1236.888, 47358.00
1237.966, 47575.00
1239.044, 47436.00
1240.122, 47265.00
1241.199, 47234.00
1242.277, 47739.00
1243.354, 47751.00
1244.431, 47503.00
1245.508, 47784.00
1246.585, 47470.00
1247.661, 47581.00
1248.738, 47512.00
1249.814, 47927.00
1250.890, 47711.00
1251.966, 47948.00
1253.042, 47936.00
1254.117, 47803.00
1255.193, 48202.00
1256.268, 47900.00
1257.343, 47905.00
1258.418, 48155.00
1259.493, 47866.00
1260.567, 47989.00
1261.642, 48034.00
1262.716, 48091.91
1263.790, 48213.42
1264.864, 48448.00
1265.938, 48355.00
1267.011, 48597.00
1268.085, 48511.00
1269.158, 48665.00
1270.231, 48407.00
1271.304, 48185.00
1272.377, 48627.00
1273.450, 48198.00
1274.522, 48435.00
1275.594, 48793.00
1276.666, 48693.00
1277.738, 48755.00
1278.810, 48504.00
1279.882, 48969.00
1280.953, 48742.00
1282.025, 48954.00
1283.096, 48659.00
1284.167, 49009.00
1285.238, 48763.00
1286.308, 48737.26
1287.379, 48945.79
1288.449, 49079.02
1289.519, 49141.01
1290.589, 48918.42
1291.659, 49063.31
1292.729, 49060.93
1293.798, 49052.48
1294.868, 49249.08
1295.937, 49067.86
1297.006, 49261.18
1298.075, 49304.98
1299.143, 49417.18
1300.212, 49381.25
1301.280, 49391.04
1302.348, 49549.05
1303.416, 49625.00
1304.484, 49571.96
1305.552, 49688.52
1306.620, 49502.08
1307.687, 49581.48
1308.754, 49775.60
1309.821, 49729.98
1310.888, 49849.21
1311.955, 49905.65
1313.021, 49676.75
1314.088, 49944.07
1315.154, 49996.77
1316.220, 49829.14
1317.286, 50079.43
1318.352, 49942.17
1319.417, 49943.21
1320.483, 50048.38
1321.548, 50045.00
1322.613, 50212.71
1323.678, 50215.59
1324.743, 50203.75
1325.807, 50256.14
1326.872, 50126.45
1327.936, 50334.59
1329.000, 50311.94
1330.064, 50404.00
1331.128, 50522.08
1332.191, 50304.79
1333.255, 50505.47
1334.318, 50630.84
1335.381, 50684.99
1336.444, 50454.55
1337.507, 50591.59
1338.569, 50581.34
1339.632, 50565.07
1340.694, 50753.80
1341.756, 50564.74
1342.818, 50750.22
1343.880, 50786.19
1344.941, 50890.56
1346.003, 50846.78
1347.064, 50848.74
1348.125, 50998.92
1349.186, 51067.04
1350.247, 51006.17
1351.308, 51114.89
1352.368, 50920.59
1353.428, 50992.17
1354.489, 51178.49
1355.549, 51125.05
1356.608, 51236.43
1357.668, 51285.05
1358.727, 51048.33
1359.787, 51307.82
1360.846, 51352.71
1361.905, 51177.26
1362.964, 51419.73
1364.022, 51274.63
1365.081, 51267.89
1366.139, 51365.21
1367.197, 51354.02
1368.255, 51513.93
1369.313, 51509.00
1370.371, 51489.35
1371.428, 51533.94
1372.486, 51396.44
1373.543, 51596.77
1374.600, 51566.32
1375.657, 51650.59
1376.713, 51760.83
1377.770, 51672.00
1378.826, 51793.93
1379.882, 51588.97
1380.938, 51657.53
1381.994, 51696.64
1383.050, 51910.57
1384.106, 51707.21
1385.161, 51768.14
1386.216, 51941.62
1387.271, 51957.62
1388.326, 52039.46
1389.381, 51926.39
1390.435, 51996.40
1391.490, 52015.96
1392.544, 51737.00
1393.598, 51807.00
1394.652, 51947.00
1395.705, 51788.00
1396.759, 52198.00
1397.812, 51906.00
1398.866, 51792.00
1399.919, 51912.00
1400.972, 52095.00
1402.024, 52105.00
1403.077, 52083.00
1404.129, 52132.00
1405.181, 52225.00
1406.233, 51993.00
1407.285, 52147.00
1408.337, 51989.00
1409.389, 52362.00
1410.440, 52066.00
1411.491, 52232.00
1412.542, 52062.00
1413.593, 52213.00
1414.644, 52166.59
1415.695, 52181.00
1416.745, 52163.00
1417.795, 52185.00
1418.845, 52282.00
1419.895, 52322.00
1420.945, 52547.00
1421.995, 52339.00
1423.044, 52318.00
1424.093, 52939.00
1425.142, 52584.00
1426.191, 52607.00
1427.240, 52526.00
1428.289, 52459.00
1429.337, 52436.00
1430.385, 52577.00
1431.433, 52545.00
1432.481, 52559.00
1433.529, 52457.00
1434.577, 52749.00
1435.624, 52571.00
1436.672, 52882.00
1437.719, 52644.00
1438.766, 53042.00
1439.812, 52572.00
1440.859, 52875.00
1441.905, 52688.00
1442.952, 53001.00
1443.998, 53079.00
1445.044, 52649.00
1446.090, 52952.78
1447.135, 52985.00
1448.181, 53079.00
1449.226, 52808.00
1450.271, 52830.00
1451.316, 52855.00
1452.361, 52927.00
1453.405, 52985.00
1454.450, 53092.00
1455.494, 53149.09
1456.538, 52905.00
1457.582, 53161.00
1458.626, 53223.00
1459.670, 52952.00
1460.713, 53138.00
1461.757, 53190.00
1462.800, 53112.00
1463.843, 53263.00
1464.886, 53499.00
1465.928, 53232.00
1466.971, 53785.00
1468.013, 53619.00
1469.055, 53539.00
1470.097, 53749.00
1471.139, 53525.00
1472.181, 53959.00
1473.222, 53792.00
1474.263, 53599.00
1475.305, 53563.00
1476.346, 53971.00
1477.386, 54018.00
1478.427, 53681.53
1479.468, 53904.67
1480.508, 54052.49
1481.548, 54129.07
1482.588, 53921.09
1483.628, 54080.57
1484.668, 54092.79
1485.707, 54098.92
1486.747, 54310.12
1487.786, 54143.47
1488.825, 54351.37
1489.864, 54409.77
1490.902, 54536.53
1491.941, 54515.18
1492.979, 54539.54
1494.017, 54712.11
1495.055, 54802.63
1496.093, 54764.16
1497.131, 54895.28
1498.168, 54723.36
1499.206, 54817.37
1500.243, 55026.04
1501.280, 54994.97
1502.317, 55128.75
1503.354, 55199.75
1504.390, 55092.00
1505.426, 54959.00
1506.463, 55081.00
1507.499, 55042.00
1508.535, 55102.00
1509.570, 55161.00
1510.606, 55099.00
1511.641, 55024.00
1512.676, 54880.00
1513.711, 55115.00
1514.746, 55560.00
1515.781, 54997.00
1516.816, 55380.00
1517.850, 55494.00
1518.884, 55302.00
1519.918, 55529.00
1520.952, 55761.00
1521.986, 55442.00
1523.019, 55786.00
1524.053, 55378.00
1525.086, 55644.00
1526.119, 55670.00
1527.152, 55840.00
1528.185, 55751.00
1529.217, 55850.00
1530.250, 56201.00
1531.282, 55970.00
1532.314, 56008.00
1533.346, 56166.00
1534.377, 56069.00
1535.409, 56200.00
1536.440, 56034.00
1537.472, 56126.00
1538.503, 56263.00
1539.534, 56262.00
1540.564, 56153.08
1541.595, 56363.71
1542.625, 56499.04
1543.656, 56563.16
1544.686, 56342.67
1545.716, 56489.65
1546.745, 56489.33
1547.775, 56483.01
1548.804, 56681.67
1549.834, 56502.58
1550.863, 56697.99
1551.892, 56743.89
1552.920, 56858.18
1553.949, 56824.34
1554.977, 56836.22
1556.006, 56996.36
1557.034, 57074.39
1558.062, 57023.45
1559.089, 57142.05
1560.117, 56957.70
1561.144, 57039.20
1562.172, 57235.44
1563.199, 57191.91
1564.226, 57313.22
1565.252, 57371.71
1566.279, 57144.94
1567.305, 57937.00
1568.332, 57482.00
1569.358, 57341.00
1570.384, 58043.00
##END=



