##NAMES=Annite
##RRUFFID=R060204
##IDEAL CHEMISTRY=KFe^2+^_3_AlSi_3_O_10_(OH)_2_
##LOCALITY=Mont Saint-Hilaire, Rouville County, Quebec, Canada
##OWNER=RRUFF
##SOURCE=Royal Ontario Museum
##DESCRIPTION=Black mica with pseudohexagonal outines
##STATUS=The identification of this mineral has been confirmed by X-ray diffraction and chemical analysis
##URL=rruff.info/R060204
##MEASURED CHEMISTRY=(K_0.96_Na_0.04_)_Σ=1_(Fe^2+^_2.04_Mg_0.81_Mn_0.09_Ti_0.03_[box]_0.03_)_Σ=3_(Si_3.00_Al_1.00_)O_10_((OH)_1.54_F_0.46_)_Σ=2_
##PIN_ID=M00366
##ORIENTATION=Laser parallel to -b* (0 -1 0). Fiducial mark perpendicular to laser is parallel to c [0 0 1]
235.6330, 26871.00
236.8490, 26844.00
238.0660, 26784.00
239.2820, 26706.00
240.4980, 26746.00
241.7140, 26501.00
242.9300, 26526.00
244.1460, 26879.00
245.3610, 26743.00
246.5770, 26894.00
247.7920, 26827.00
249.0070, 26905.00
250.2220, 26933.00
251.4370, 26908.00
252.6510, 26990.00
253.8660, 26928.00
255.0800, 27062.00
256.2940, 27135.00
257.5080, 26820.21
258.7220, 27032.27
259.9360, 27179.07
261.1490, 27264.08
262.3630, 27102.45
263.5760, 27259.31
264.7890, 27473.00
266.0020, 27184.00
267.2150, 27455.00
268.4270, 27449.00
269.6400, 27513.00
270.8520, 27518.00
272.0640, 27840.00
273.2760, 27694.00
274.4880, 27860.00
275.7000, 27878.00
276.9120, 27663.00
278.1230, 27640.00
279.3340, 27641.00
280.5450, 27721.00
281.7560, 27528.00
282.9670, 27522.00
284.1780, 27691.00
285.3880, 27911.00
286.5980, 27868.00
287.8090, 27883.00
289.0190, 27773.00
290.2290, 28018.00
291.4380, 28150.00
292.6480, 28034.00
293.8570, 27835.00
295.0670, 27786.00
296.2760, 28114.00
297.4850, 27937.00
298.6930, 27897.00
299.9020, 28153.00
301.1110, 28004.00
302.3190, 28215.00
303.5270, 27970.00
304.7350, 28003.00
305.9430, 28094.00
307.1510, 28246.00
308.3580, 28028.00
309.5660, 28051.00
310.7730, 27873.00
311.9800, 28188.00
313.1870, 28476.00
314.3940, 28306.00
315.6010, 28249.00
316.8070, 28402.00
318.0130, 28247.00
319.2200, 28458.00
320.4260, 28519.00
321.6310, 28319.00
322.8370, 28215.00
324.0430, 28387.00
325.2480, 28315.00
326.4540, 28356.04
327.6590, 28806.00
328.8640, 28467.00
330.0680, 28672.00
331.2730, 28868.00
332.4780, 28672.00
333.6820, 28507.00
334.8860, 28668.00
336.0900, 28810.00
337.2940, 28628.00
338.4980, 28786.00
339.7010, 28862.00
340.9050, 28880.00
342.1080, 29219.00
343.3110, 29177.00
344.5140, 29187.00
345.7170, 29049.00
346.9200, 29077.00
348.1220, 29288.00
349.3240, 29378.00
350.5270, 29563.00
351.7290, 29407.00
352.9310, 29470.00
354.1320, 29607.00
355.3340, 29860.00
356.5350, 29901.00
357.7370, 29673.00
358.9380, 29970.00
360.1390, 29824.00
361.3400, 29771.00
362.5400, 30233.00
363.7410, 30055.00
364.9410, 30416.00
366.1410, 30598.00
367.3410, 30515.00
368.5410, 31063.00
369.7410, 31030.00
370.9400, 31228.00
372.1400, 31402.00
373.3390, 31589.00
374.5380, 31881.00
375.7370, 32035.82
376.9360, 32392.00
378.1350, 32505.00
379.3330, 32514.00
380.5310, 32907.00
381.7300, 33142.00
382.9280, 33218.00
384.1260, 33783.00
385.3230, 33812.00
386.5210, 33982.00
387.7180, 34204.00
388.9160, 34305.00
390.1130, 34444.00
391.3100, 34635.00
392.5060, 34373.00
393.7030, 34310.00
394.9000, 34651.00
396.0960, 34412.00
397.2920, 34020.00
398.4880, 33929.00
399.6840, 33679.00
400.8800, 33460.00
402.0750, 32988.00
403.2710, 32845.03
404.4660, 33012.00
405.6610, 32483.00
406.8560, 32379.00
408.0510, 32360.00
409.2450, 31948.00
410.4400, 31773.00
411.6340, 31619.00
412.8280, 31432.00
414.0220, 31306.00
415.2160, 31160.00
416.4100, 31084.78
417.6030, 31221.00
418.7970, 31050.00
419.9900, 31085.00
421.1830, 31240.00
422.3760, 30957.00
423.5690, 30951.00
424.7610, 30888.00
425.9540, 30991.00
427.1460, 30908.00
428.3380, 30869.00
429.5300, 30749.00
430.7220, 30718.00
431.9140, 30840.00
433.1050, 30983.00
434.2970, 31075.00
435.4880, 30766.00
436.6790, 31051.00
437.8700, 30915.00
439.0610, 30966.00
440.2510, 30938.00
441.4420, 30798.00
442.6320, 30957.00
443.8220, 31014.00
445.0120, 30937.00
446.2020, 31169.00
447.3910, 31323.00
448.5810, 31261.00
449.7700, 31259.00
450.9600, 31333.00
452.1490, 31394.00
453.3370, 31610.00
454.5260, 31617.00
455.7150, 32045.00
456.9030, 31977.28
458.0910, 32431.00
459.2800, 31850.00
460.4670, 32399.00
461.6550, 32070.00
462.8430, 32254.00
464.0300, 32675.00
465.2180, 32599.00
466.4050, 32879.00
467.5920, 33190.00
468.7790, 33496.00
469.9650, 33446.00
471.1520, 33794.00
472.3380, 34003.00
473.5250, 34480.00
474.7110, 34403.00
475.8970, 34622.00
477.0820, 34624.00
478.2680, 34791.00
479.4540, 34988.00
480.6390, 34878.00
481.8240, 34776.00
483.0090, 34941.00
484.1940, 35002.00
485.3780, 34986.46
486.5630, 34973.00
487.7470, 34972.00
488.9320, 35069.00
490.1160, 34986.00
491.3000, 35081.00
492.4830, 35088.00
493.6670, 35035.00
494.8500, 35234.00
496.0340, 35469.00
497.2170, 35551.59
498.4000, 35771.64
499.5820, 35856.00
500.7650, 36109.00
501.9480, 36213.00
503.1300, 36354.00
504.3120, 36368.00
505.4940, 36607.00
506.6760, 36456.00
507.8580, 36791.00
509.0390, 36736.00
510.2210, 36634.00
511.4020, 36659.00
512.5830, 36568.00
513.7640, 36373.00
514.9450, 36521.00
516.1250, 36492.00
517.3060, 36343.00
518.4860, 36418.00
519.6660, 36116.00
520.8460, 36383.00
522.0260, 35759.00
523.2060, 35804.00
524.3850, 35884.00
525.5650, 35773.00
526.7440, 35619.00
527.9230, 35907.00
529.1020, 35642.00
530.2810, 35687.00
531.4590, 35600.00
532.6380, 35606.00
533.8160, 35371.00
534.9940, 35475.00
536.1720, 35328.00
537.3500, 35326.00
538.5270, 35296.00
539.7050, 35508.00
540.8820, 35330.00
542.0590, 35351.00
543.2360, 35487.00
544.4130, 35315.31
545.5900, 35269.00
546.7660, 35109.00
547.9430, 35278.00
549.1190, 35128.00
550.2950, 35254.00
551.4710, 35213.00
552.6470, 35128.00
553.8220, 35372.00
554.9980, 35334.00
556.1730, 35212.00
557.3480, 35478.00
558.5230, 35290.00
559.6980, 35066.00
560.8730, 35044.00
562.0470, 35106.00
563.2220, 34946.00
564.3960, 35109.00
565.5700, 34973.00
566.7440, 35101.00
567.9170, 35492.00
569.0910, 35004.00
570.2640, 35331.00
571.4380, 35281.00
572.6110, 35186.00
573.7840, 35162.00
574.9570, 35156.00
576.1290, 35147.00
577.3020, 35379.00
578.4740, 35054.00
579.6460, 35260.00
580.8180, 35155.00
581.9900, 35418.00
583.1620, 35642.00
584.3330, 35430.00
585.5040, 35159.00
586.6760, 35505.00
587.8470, 35183.00
589.0180, 35462.00
590.1880, 35642.00
591.3590, 35590.00
592.5290, 35852.00
593.7000, 35862.00
594.8700, 35891.00
596.0400, 35974.00
597.2090, 36058.00
598.3790, 36044.00
599.5490, 36135.00
600.7180, 36144.00
601.8870, 36069.00
603.0560, 36362.00
604.2250, 36299.00
605.3940, 36641.00
606.5620, 36949.00
607.7300, 37150.00
608.8990, 37262.00
610.0670, 37282.00
611.2350, 37562.00
612.4020, 37847.00
613.5700, 37967.00
614.7370, 37883.00
615.9050, 38486.00
617.0720, 38752.00
618.2390, 39155.00
619.4060, 39843.00
620.5720, 39969.00
621.7390, 40113.00
622.9050, 40610.00
624.0710, 41012.00
625.2370, 41235.66
626.4030, 41514.00
627.5690, 41782.00
628.7340, 42138.00
629.9000, 42425.00
631.0650, 42618.00
632.2300, 42689.00
633.3950, 42640.00
634.5600, 42645.14
635.7240, 42490.00
636.8890, 42337.00
638.0530, 42071.00
639.2170, 41620.00
640.3810, 41192.00
641.5450, 41169.00
642.7080, 41036.00
643.8720, 40304.00
645.0350, 40321.00
646.1980, 40105.00
647.3610, 39843.00
648.5240, 39890.00
649.6870, 39509.00
650.8490, 39231.00
652.0120, 39067.00
653.1740, 38888.00
654.3360, 38933.00
655.4980, 38885.00
656.6600, 38700.00
657.8210, 38491.00
658.9830, 38449.00
660.1440, 38396.00
661.3050, 38799.00
662.4660, 38237.00
663.6270, 38500.00
664.7870, 38129.00
665.9480, 38273.00
667.1080, 38127.00
668.2680, 38205.00
669.4280, 38155.00
670.5880, 38367.00
671.7480, 38479.00
672.9070, 38407.00
674.0670, 38597.93
675.2260, 38596.00
676.3850, 38679.00
677.5440, 38424.00
678.7030, 38182.00
679.8610, 38184.00
681.0200, 38362.00
682.1780, 38247.00
683.3360, 38263.00
684.4940, 38212.00
685.6520, 38432.00
686.8090, 38760.00
687.9670, 38896.00
689.1240, 39019.00
690.2810, 38813.00
691.4380, 38645.00
692.5950, 38841.00
693.7520, 38898.00
694.9080, 38963.00
696.0650, 38618.00
697.2210, 38388.00
698.3770, 38623.00
699.5330, 38569.00
700.6880, 38503.00
701.8440, 38315.00
702.9990, 38227.00
704.1550, 38365.00
705.3100, 38401.00
706.4650, 38154.00
707.6190, 38241.00
708.7740, 38036.00
709.9290, 37844.00
711.0830, 38195.00
712.2370, 38091.00
713.3910, 37980.00
714.5450, 38302.00
715.6980, 38177.00
716.8520, 38284.00
718.0050, 38077.00
719.1580, 38054.00
720.3110, 37965.00
721.4640, 37938.99
722.6170, 37883.00
723.7700, 37986.00
724.9220, 38079.00
726.0740, 38165.00
727.2260, 38289.00
728.3780, 38083.00
729.5300, 38195.00
730.6810, 38362.00
731.8330, 38175.00
732.9840, 37953.00
734.1350, 38184.00
735.2860, 37926.00
736.4370, 38170.00
737.5880, 38053.00
738.7380, 38419.00
739.8880, 38433.20
741.0390, 38931.00
742.1890, 38434.00
743.3380, 38499.00
744.4880, 38117.00
745.6380, 38467.00
746.7870, 38209.00
747.9360, 38251.00
749.0850, 38233.00
750.2340, 38322.00
751.3830, 38386.00
752.5310, 38603.00
753.6800, 38278.00
754.8280, 38713.00
755.9760, 39109.00
757.1240, 38773.00
758.2720, 38755.00
759.4190, 38752.00
760.5670, 38664.00
761.7140, 38815.00
762.8610, 38758.00
764.0080, 38854.00
765.1550, 38974.00
766.3020, 39225.00
767.4480, 39036.00
768.5950, 39382.00
769.7410, 39321.00
770.8870, 39195.00
772.0330, 39244.00
773.1780, 39014.00
774.3240, 39241.00
775.4690, 39117.00
776.6140, 39208.00
777.7590, 39028.00
778.9040, 39309.00
780.0490, 39355.00
781.1940, 39248.00
782.3380, 39313.00
783.4820, 39427.00
784.6260, 39167.00
785.7700, 39344.00
786.9140, 38860.00
788.0580, 39038.00
789.2010, 39126.00
790.3450, 38982.00
791.4880, 39214.00
792.6310, 38939.00
793.7730, 39077.00
794.9160, 38914.00
796.0590, 39044.00
797.2010, 39053.00
798.3430, 39145.00
799.4850, 39052.00
800.6270, 38928.00
801.7690, 38992.00
802.9100, 38878.00
804.0520, 38728.00
805.1930, 39003.00
806.3340, 38978.00
807.4750, 39165.00
808.6160, 39358.00
809.7560, 38910.00
810.8970, 38908.00
812.0370, 38898.00
813.1770, 38783.00
814.3170, 38874.00
815.4570, 38869.00
816.5960, 38871.00
817.7360, 39149.00
818.8750, 38701.00
820.0140, 38935.00
821.1530, 39272.00
822.2920, 38990.00
823.4310, 39237.00
824.5690, 39277.00
825.7070, 39355.00
826.8460, 38946.00
827.9840, 39323.00
829.1220, 39089.00
830.2590, 39203.00
831.3970, 39286.00
832.5340, 39179.00
833.6710, 39183.00
834.8080, 39531.00
835.9450, 39499.00
837.0820, 39568.00
838.2190, 39623.00
839.3550, 39476.00
840.4910, 39641.00
841.6270, 39450.00
842.7630, 39310.00
843.8990, 39423.00
845.0350, 39777.00
846.1700, 39552.00
847.3060, 39832.00
848.4410, 39986.00
849.5760, 39748.00
850.7100, 39866.00
851.8450, 39872.00
852.9800, 39942.00
854.1140, 39878.00
855.2480, 39823.00
856.3820, 39823.00
857.5160, 39829.00
858.6500, 40161.00
859.7830, 40278.00
860.9170, 40413.00
862.0500, 40194.00
863.1830, 40380.00
864.3160, 40390.00
865.4480, 40139.00
866.5810, 40195.00
867.7130, 40293.00
868.8460, 40250.00
869.9780, 40252.00
871.1100, 40340.00
872.2410, 40508.00
873.3730, 40608.00
874.5050, 40467.00
875.6360, 40538.00
876.7670, 40814.00
877.8980, 40632.00
879.0290, 40594.00
880.1590, 40772.00
881.2900, 40664.00
882.4200, 40825.00
883.5500, 40595.00
884.6800, 40814.00
885.8100, 40917.00
886.9400, 41086.00
888.0690, 41159.00
889.1990, 41204.48
890.3280, 41245.05
891.4570, 41260.00
892.5860, 41186.00
893.7140, 41255.00
894.8430, 41129.70
895.9710, 41418.00
897.1000, 41028.00
898.2280, 41395.00
899.3560, 41263.00
900.4830, 41986.00
901.6110, 41750.00
902.7380, 42065.00
903.8660, 41754.00
904.9930, 41584.00
906.1200, 41731.00
907.2460, 41676.00
908.3730, 41648.00
909.5000, 41861.00
910.6260, 41909.00
911.7520, 41936.00
912.8780, 42015.00
914.0040, 42169.00
915.1290, 41974.00
916.2550, 42421.00
917.3800, 42292.00
918.5050, 42053.00
919.6300, 42444.00
920.7550, 42261.00
921.8800, 42124.00
923.0040, 42165.00
924.1290, 42043.00
925.2530, 42390.00
926.3770, 42416.00
927.5010, 42426.00
928.6250, 42893.00
929.7480, 42816.63
930.8720, 42978.00
931.9950, 42830.00
933.1180, 42851.00
934.2410, 42554.00
935.3640, 42769.00
936.4860, 42655.00
937.6090, 42912.00
938.7310, 43173.00
939.8530, 42887.00
940.9750, 43101.00
942.0970, 43300.00
943.2180, 43293.00
944.3400, 43253.00
945.4610, 43318.35
946.5820, 43307.00
947.7030, 43299.00
948.8240, 43348.41
949.9450, 43386.39
951.0650, 43406.00
952.1860, 43561.00
953.3060, 43583.00
954.4260, 43757.00
955.5460, 43705.52
956.6650, 43741.74
957.7850, 43634.00
958.9040, 43712.00
960.0230, 43743.00
961.1420, 43728.00
962.2610, 43673.00
963.3800, 43896.00
964.4990, 43897.00
965.6170, 44033.00
966.7350, 44115.00
967.8530, 44173.00
968.9710, 44270.00
970.0890, 44197.00
971.2070, 44298.00
972.3240, 44276.00
973.4410, 44496.00
974.5580, 44222.00
975.6750, 44042.00
976.7920, 44197.00
977.9090, 44445.00
979.0250, 44719.00
980.1410, 44809.00
981.2580, 45020.00
982.3740, 45049.00
983.4890, 44993.00
984.6050, 45141.00
985.7200, 44982.00
986.8360, 44693.00
987.9510, 44697.00
989.0660, 44516.00
990.1810, 44457.00
991.2950, 44836.00
992.4100, 44757.00
993.5240, 44807.00
994.6390, 44957.00
995.7530, 44999.00
996.8660, 45314.00
997.9800, 45245.00
999.0940, 45085.00
1000.207, 44878.00
1001.320, 45145.00
1002.433, 44751.00
1003.546, 44994.00
1004.659, 45205.00
1005.772, 45245.00
1006.884, 45118.00
1007.996, 45371.00
1009.108, 45542.00
1010.220, 45547.00
1011.332, 45742.00
1012.444, 45404.00
1013.555, 45712.00
1014.666, 45340.00
1015.777, 45454.00
1016.888, 45621.00
1017.999, 45609.00
1019.110, 45745.00
1020.220, 45671.00
1021.331, 46194.00
1022.441, 46291.00
1023.551, 46562.00
1024.661, 46162.00
1025.770, 45836.00
1026.880, 46211.00
1027.989, 46116.00
1029.098, 45906.00
1030.207, 45898.00
1031.316, 46006.00
1032.425, 46215.00
1033.533, 46369.00
1034.642, 46539.00
1035.750, 46460.00
1036.858, 46890.00
1037.966, 46667.00
1039.073, 46476.00
1040.181, 46758.00
1041.288, 46623.00
1042.396, 46801.00
1043.503, 46757.00
1044.610, 46725.00
1045.716, 46626.00
1046.823, 46861.00
1047.929, 46782.00
1049.036, 47158.00
1050.142, 47352.00
1051.248, 47578.00
1052.353, 47529.99
1053.459, 47253.00
1054.564, 47314.00
1055.670, 47183.00
1056.775, 47158.00
1057.880, 47270.00
1058.985, 47422.00
1060.089, 47659.00
1061.194, 47639.00
1062.298, 47635.00
1063.402, 47929.00
1064.506, 48012.00
1065.610, 47949.00
1066.713, 47835.00
1067.817, 47806.00
1068.920, 47839.00
1070.023, 47842.00
1071.126, 48036.00
1072.229, 48281.00
1073.332, 48436.00
1074.435, 48541.00
1075.537, 48712.00
1076.639, 49006.00
1077.741, 49087.00
1078.843, 49324.00
1079.945, 49407.00
1081.046, 49761.00
1082.148, 50176.00
1083.249, 50446.00
1084.350, 50391.00
1085.451, 50360.00
1086.551, 50365.06
1087.652, 49701.00
1088.752, 50079.00
1089.853, 49613.00
1090.953, 49197.00
1092.053, 49435.00
1093.152, 49399.00
1094.252, 49218.00
1095.351, 49203.00
1096.451, 49332.00
1097.550, 49560.00
1098.649, 49434.00
1099.748, 49550.00
1100.846, 49588.00
1101.945, 49557.00
1103.043, 49652.20
1104.141, 49574.00
1105.239, 49635.00
1106.337, 49621.00
1107.434, 49352.00
1108.532, 49494.00
1109.629, 49453.00
1110.726, 49366.00
1111.823, 49443.00
1112.920, 49794.00
1114.017, 50181.00
1115.113, 50166.00
1116.210, 50047.00
1117.306, 49863.00
1118.402, 50158.00
1119.498, 50105.00
1120.593, 49967.00
1121.689, 49989.00
1122.784, 49691.00
1123.879, 49884.00
1124.974, 50291.00
1126.069, 50165.00
1127.164, 50401.00
1128.259, 50381.00
1129.353, 50482.00
1130.447, 50549.00
1131.541, 50540.32
1132.635, 50495.00
1133.729, 50571.00
1134.822, 50402.00
1135.916, 50446.00
1137.009, 50428.00
1138.102, 50414.00
1139.195, 50526.00
1140.288, 50809.00
1141.380, 50791.39
1142.473, 51358.00
1143.565, 50926.00
1144.657, 51054.00
1145.749, 51109.00
1146.841, 50802.00
1147.932, 50892.00
1149.024, 50669.00
1150.115, 50735.00
1151.206, 50807.00
1152.297, 51134.00
1153.388, 51336.00
1154.479, 51371.00
1155.569, 51357.00
1156.659, 51403.00
1157.750, 51376.00
1158.839, 51375.00
1159.929, 51224.00
1161.019, 51293.92
1162.108, 51298.00
1163.198, 51367.00
1164.287, 51451.00
1165.376, 51511.00
1166.465, 51610.87
1167.553, 51737.61
1168.642, 51832.00
1169.730, 51879.00
1170.818, 52039.00
1171.906, 51806.00
1172.994, 51785.00
1174.082, 51638.00
1175.170, 51698.00
1176.257, 51728.00
1177.344, 51866.00
1178.431, 51974.00
1179.518, 52021.00
1180.605, 52165.26
1181.691, 52195.00
1182.778, 52399.00
1183.864, 52429.00
1184.950, 52541.00
1186.036, 52489.00
1187.122, 52367.00
1188.207, 52514.00
1189.292, 52303.00
1190.378, 52760.00
1191.463, 52456.00
1192.548, 52327.00
1193.632, 52875.00
1194.717, 52915.00
1195.801, 52670.00
1196.886, 52919.00
1197.970, 52682.00
1199.054, 53159.00
1200.137, 53021.00
1201.221, 52954.00
1202.305, 53051.00
1203.388, 52972.00
1204.471, 53099.00
1205.554, 53411.00
1206.637, 53259.00
1207.719, 53450.00
1208.802, 53628.00
1209.884, 53656.00
1210.966, 53778.28
1212.048, 53671.00
1213.130, 53829.00
1214.212, 53545.00
1215.293, 53413.00
1216.374, 53354.00
1217.456, 53562.00
1218.536, 53459.00
1219.617, 53837.00
1220.698, 54026.00
1221.778, 53849.00
1222.859, 54255.00
1223.939, 54266.00
1225.019, 54239.00
1226.099, 54431.00
1227.178, 53896.00
1228.258, 54217.00
1229.337, 54410.00
1230.417, 54074.00
1231.496, 54283.00
1232.574, 54434.00
1233.653, 54528.00
1234.732, 54808.00
1235.810, 54980.00
1236.888, 54851.00
1237.966, 54995.00
1239.044, 54914.00
1240.122, 54648.00
1241.199, 54426.00
1242.277, 54496.63
1243.354, 54493.00
1244.431, 54637.00
1245.508, 54858.00
1246.585, 54951.00
1247.661, 55086.00
1248.738, 55228.00
1249.814, 54593.00
1250.890, 54744.00
1251.966, 55103.00
1253.042, 54674.00
1254.117, 55059.00
1255.193, 55094.00
1256.268, 54723.00
1257.343, 55035.00
1258.418, 55034.00
1259.493, 55333.00
1260.567, 55481.00
1261.642, 55597.73
1262.716, 55866.00
1263.790, 55874.00
1264.864, 56006.00
1265.938, 56145.00
1267.011, 55769.00
1268.085, 55779.00
1269.158, 55473.00
1270.231, 55304.00
1271.304, 55797.00
1272.377, 55598.00
1273.450, 55817.00
1274.522, 56542.00
1275.594, 56222.00
1276.666, 56067.00
1277.738, 56515.00
1278.810, 56647.00
1279.882, 56172.00
1280.953, 56634.00
1282.025, 56415.00
1283.096, 56146.00
1284.167, 56984.00
1285.238, 56610.00
1286.308, 56935.00
1287.379, 57212.00
1288.449, 57196.00
1289.519, 57221.00
1290.589, 57384.00
1291.659, 57607.00
1292.729, 57403.00
1293.798, 57246.00
1294.868, 57764.00
1295.937, 57398.00
1297.006, 57302.00
1298.075, 57774.00
1299.143, 57430.00
1300.212, 57509.00
1301.280, 58027.00
1302.348, 58072.00
1303.416, 58474.00
1304.484, 58312.00
1305.552, 58378.00
1306.620, 57914.00
1307.687, 58269.00
1308.754, 57813.00
1309.821, 57936.00
1310.888, 58329.00
1311.955, 58072.00
1313.021, 58497.00
1314.088, 58819.00
1315.154, 58867.00
1316.220, 59195.00
1317.286, 59087.89
1318.352, 59090.00
1319.417, 58783.00
1320.483, 58908.00
1321.548, 58613.00
1322.613, 58543.00
1323.678, 59126.00
1324.743, 58834.00
1325.807, 58910.00
1326.872, 59187.00
1327.936, 59314.00
1329.000, 59438.00
1330.064, 59387.00
1331.128, 59568.00
1332.191, 59461.00
1333.255, 59282.00
1334.318, 59354.00
1335.381, 59327.00
1336.444, 59541.00
1337.507, 59373.00
1338.569, 59431.00
1339.632, 59548.00
1340.694, 59423.00
1341.756, 59773.00
1342.818, 59980.00
1343.880, 60281.00
1344.941, 60074.00
1346.003, 60012.00
1347.064, 60287.00
1348.125, 59806.00
1349.186, 59755.00
1350.247, 60213.00
1351.308, 60333.00
1352.368, 60021.00
1353.428, 60742.00
1354.489, 60343.00
1355.549, 60503.77
1356.608, 61050.00
1357.668, 60643.00
1358.727, 60271.00
1359.787, 60521.00
1360.846, 60581.00
1361.905, 60762.00
1362.964, 60445.00
1364.022, 60419.00
1365.081, 60574.00
1366.139, 60858.00
1367.197, 60913.00
1368.255, 61103.94
1369.313, 61163.00
1370.371, 61270.00
1371.428, 61076.00
1372.486, 60898.00
1373.543, 60834.00
1374.600, 60769.00
1375.657, 60714.00
1376.713, 60626.00
1377.770, 60714.00
1378.826, 61120.00
1379.882, 61120.00
1380.938, 60997.00
1381.994, 61477.00
1383.050, 61423.00
1384.106, 61538.00
1385.161, 61389.00
1386.216, 61293.00
1387.271, 61172.00
1388.326, 61064.00
1389.381, 61267.00
1390.435, 61248.00
1391.490, 61331.89
1392.544, 61583.00
1393.598, 61517.00
1394.652, 61703.00
1395.705, 61813.00
1396.759, 61665.00
1397.812, 62016.00
1398.866, 61968.00
1399.919, 61855.00
1400.972, 61692.00
1402.024, 61591.00
1403.077, 61620.00
1404.129, 61466.00
1405.181, 61536.00
1406.233, 61769.00
1407.285, 61699.00
1408.337, 62041.00
1409.389, 62140.00
1410.440, 62368.00
1411.491, 61949.00
1412.542, 62264.00
1413.593, 62004.00
1414.644, 62175.00
1415.695, 61641.00
1416.745, 61938.00
1417.795, 62025.00
1418.845, 61979.00
1419.895, 62006.00
1420.945, 62505.00
1421.995, 62352.00
1423.044, 62459.00
1424.093, 62558.00
1425.142, 62452.00
1426.191, 62744.00
1427.240, 62559.00
1428.289, 62468.00
1429.337, 62162.00
1430.385, 62335.00
1431.433, 62582.00
1432.481, 62351.00
1433.529, 62510.00
1434.577, 62907.00
1435.624, 62811.00
1436.672, 62916.00
1437.719, 62990.00
1438.766, 62950.00
1439.812, 62797.00
1440.859, 62867.00
1441.905, 62927.00
1442.952, 62804.00
1443.998, 62886.00
1445.044, 62619.00
1446.090, 63072.00
1447.135, 63246.00
1448.181, 63119.00
1449.226, 63330.00
1450.271, 63387.00
1451.316, 62969.00
1452.361, 63338.00
1453.405, 63162.00
1454.450, 63261.00
1455.494, 62996.00
1456.538, 63142.00
1457.582, 63194.43
1458.626, 62965.00
1459.670, 63484.00
1460.713, 63674.00
1461.757, 63916.00
1462.800, 63814.00
1463.843, 63933.00
1464.886, 63953.00
1465.928, 63937.00
1466.971, 63988.00
1468.013, 63558.00
1469.055, 63624.00
1470.097, 63943.00
1471.139, 64197.00
1472.181, 63665.00
1473.222, 64226.00
1474.263, 64247.00
1475.305, 64214.00
1476.346, 64753.00
1477.386, 64577.00
1478.427, 64426.00
1479.468, 64036.00
1480.508, 64549.00
1481.548, 64349.00
1482.588, 64461.00
1483.628, 63995.00
1484.668, 64416.00
1485.707, 64487.00
1486.747, 64651.00
1487.786, 64683.00
1488.825, 65056.00
1489.864, 65040.00
1490.902, 65128.00
1491.941, 65083.00
##END=



