##NAMES=Annite
##RRUFFID=R060211
##IDEAL CHEMISTRY=KFe^2+^_3_AlSi_3_O_10_(OH)_2_
##LOCALITY=Mont Saint-Hilaire, Rouville County, Quebec, Canada
##OWNER=RRUFF
##SOURCE=Royal Ontario Museum
##DESCRIPTION=Black mica
##STATUS=The identification of this mineral has been confirmed by X-ray diffraction and chemical analysis
##URL=rruff.info/R060211
##MEASURED CHEMISTRY=(K_0.94_[box]_0.03_Na_0.02_)_Σ=1_(Fe^2+^_2.07_Mg_0.57_Mn_0.33_Ti_0.03_)_Σ=3_(Si_2.98_Al_1.02_)O_10_((OH)_1.72_F_0.28_)_Σ=2_
##PIN_ID=L00722
##ORIENTATION=Laser parallel to a* (1 0 0). Fiducial mark perpendicular to laser is parallel to b [0 1 0]
230.7650, 17478.00
231.9820, 17508.00
233.1990, 17465.00
234.4160, 17541.00
235.6330, 17537.00
236.8490, 17457.00
238.0660, 17621.00
239.2820, 17455.00
240.4980, 17329.00
241.7140, 17340.00
242.9300, 17309.72
244.1460, 17507.00
245.3610, 17415.00
246.5770, 17501.00
247.7920, 17586.00
249.0070, 17571.00
250.2220, 17559.00
251.4370, 17647.24
252.6510, 17623.41
253.8660, 17727.00
255.0800, 17716.00
256.2940, 17624.00
257.5080, 17805.00
258.7220, 17900.00
259.9360, 18477.00
261.1490, 18273.52
262.3630, 18335.00
263.5760, 18127.00
264.7890, 17963.00
266.0020, 17962.00
267.2150, 18078.00
268.4270, 18177.00
269.6400, 18238.00
270.8520, 18250.00
272.0640, 18193.00
273.2760, 18136.00
274.4880, 18521.00
275.7000, 18345.00
276.9120, 18273.00
278.1230, 18310.00
279.3340, 18113.00
280.5450, 18166.00
281.7560, 18170.00
282.9670, 18070.00
284.1780, 18078.00
285.3880, 18079.00
286.5980, 18106.00
287.8090, 17882.00
289.0190, 17961.00
290.2290, 17875.00
291.4380, 18001.00
292.6480, 17932.06
293.8570, 18003.00
295.0670, 17876.00
296.2760, 17910.00
297.4850, 17954.00
298.6930, 17949.00
299.9020, 17981.00
301.1110, 17957.36
302.3190, 17819.00
303.5270, 17922.00
304.7350, 17855.00
305.9430, 17881.03
307.1510, 17930.07
308.3580, 17837.00
309.5660, 17947.00
310.7730, 17546.05
311.9800, 17976.46
313.1870, 18223.23
314.3940, 18296.22
315.6010, 17674.98
316.8070, 17950.20
318.0130, 17866.15
319.2200, 17767.38
320.4260, 18168.76
321.6310, 18069.00
322.8370, 18185.00
324.0430, 18136.00
325.2480, 18202.59
326.4540, 18423.00
327.6590, 18224.00
328.8640, 18225.00
330.0680, 18260.00
331.2730, 18098.00
332.4780, 18462.00
333.6820, 18082.00
334.8860, 18177.00
336.0900, 18378.00
337.2940, 18270.00
338.4980, 18365.00
339.7010, 18526.00
340.9050, 18314.00
342.1080, 18394.00
343.3110, 18465.00
344.5140, 18381.00
345.7170, 18615.00
346.9200, 18594.00
348.1220, 18481.00
349.3240, 18584.00
350.5270, 18626.00
351.7290, 18712.00
352.9310, 18770.94
354.1320, 18692.00
355.3340, 18879.00
356.5350, 18745.00
357.7370, 18770.00
358.9380, 18677.00
360.1390, 18700.00
361.3400, 18871.00
362.5400, 18788.00
363.7410, 18867.00
364.9410, 19194.00
366.1410, 19205.00
367.3410, 19288.00
368.5410, 19316.00
369.7410, 19163.00
370.9400, 19264.00
372.1400, 19495.00
373.3390, 19410.00
374.5380, 19599.00
375.7370, 19543.00
376.9360, 19738.00
378.1350, 19897.00
379.3330, 20062.00
380.5310, 20130.00
381.7300, 20227.00
382.9280, 20214.00
384.1260, 20367.04
385.3230, 20485.00
386.5210, 20569.00
387.7180, 20704.00
388.9160, 20685.00
390.1130, 20704.00
391.3100, 20839.00
392.5060, 20961.00
393.7030, 20730.00
394.9000, 20725.00
396.0960, 20908.00
397.2920, 20698.00
398.4880, 20630.00
399.6840, 20448.00
400.8800, 20394.00
402.0750, 20282.00
403.2710, 20075.00
404.4660, 20196.00
405.6610, 20028.00
406.8560, 19871.00
408.0510, 19996.00
409.2450, 19705.00
410.4400, 19820.00
411.6340, 19737.00
412.8280, 19682.00
414.0220, 19447.00
415.2160, 19530.00
416.4100, 19322.00
417.6030, 19591.00
418.7970, 19367.00
419.9900, 19536.00
421.1830, 19273.00
422.3760, 19178.00
423.5690, 19390.00
424.7610, 19155.00
425.9540, 19293.00
427.1460, 19372.00
428.3380, 19151.00
429.5300, 19228.00
430.7220, 19138.00
431.9140, 19188.00
433.1050, 19239.00
434.2970, 19340.00
435.4880, 19139.00
436.6790, 19145.00
437.8700, 19149.00
439.0610, 19196.00
440.2510, 19247.29
441.4420, 19223.00
442.6320, 19367.00
443.8220, 19350.00
445.0120, 19348.00
446.2020, 19473.00
447.3910, 19309.00
448.5810, 19420.00
449.7700, 19489.00
450.9600, 19307.00
452.1490, 19472.00
453.3370, 19523.00
454.5260, 19314.00
455.7150, 19482.00
456.9030, 19713.00
458.0910, 19505.00
459.2800, 19587.00
460.4670, 19808.00
461.6550, 19674.00
462.8430, 19873.00
464.0300, 19737.00
465.2180, 19744.00
466.4050, 19793.00
467.5920, 19484.00
468.7790, 19949.00
469.9650, 19630.00
471.1520, 19742.00
472.3380, 19908.00
473.5250, 19903.00
474.7110, 19952.00
475.8970, 19947.00
477.0820, 20210.00
478.2680, 19985.00
479.4540, 20159.00
480.6390, 20039.00
481.8240, 20145.00
483.0090, 20391.00
484.1940, 20482.00
485.3780, 20638.00
486.5630, 20553.00
487.7470, 20694.00
488.9320, 20714.00
490.1160, 20784.00
491.3000, 20762.00
492.4830, 20852.53
493.6670, 20856.00
494.8500, 21047.00
496.0340, 21061.00
497.2170, 21245.00
498.4000, 21515.00
499.5820, 21467.00
500.7650, 21741.00
501.9480, 21746.00
503.1300, 21981.00
504.3120, 21955.00
505.4940, 22052.00
506.6760, 21934.00
507.8580, 22058.00
509.0390, 22245.00
510.2210, 22194.45
511.4020, 22437.00
512.5830, 22285.00
513.7640, 22128.00
514.9450, 22217.00
516.1250, 22078.00
517.3060, 21991.00
518.4860, 22029.00
519.6660, 21992.00
520.8460, 21979.00
522.0260, 21993.24
523.2060, 21955.00
524.3850, 21975.00
525.5650, 22062.00
526.7440, 22001.00
527.9230, 22055.78
529.1020, 22025.80
530.2810, 22050.00
531.4590, 21956.00
532.6380, 21853.00
533.8160, 21802.00
534.9940, 21749.60
536.1720, 21766.00
537.3500, 21731.00
538.5270, 21722.00
539.7050, 21802.00
540.8820, 21833.00
542.0590, 21838.00
543.2360, 21781.00
544.4130, 21671.00
545.5900, 21692.00
546.7660, 21643.00
547.9430, 21318.00
549.1190, 21562.00
550.2950, 21505.00
551.4710, 21669.00
552.6470, 21424.00
553.8220, 21566.00
554.9980, 21331.00
556.1730, 21411.00
557.3480, 21343.00
558.5230, 21219.00
559.6980, 21095.00
560.8730, 21388.00
562.0470, 21330.00
563.2220, 21281.00
564.3960, 21391.00
565.5700, 21381.00
566.7440, 21244.00
567.9170, 21266.00
569.0910, 21240.00
570.2640, 21300.00
571.4380, 21082.00
572.6110, 21142.00
573.7840, 21108.00
574.9570, 21076.00
576.1290, 21201.00
577.3020, 21161.00
578.4740, 21241.00
579.6460, 21344.00
580.8180, 21258.00
581.9900, 21367.00
583.1620, 21271.00
584.3330, 21393.00
585.5040, 21285.00
586.6760, 21270.00
587.8470, 21271.00
589.0180, 21227.00
590.1880, 21613.00
591.3590, 21559.00
592.5290, 21510.00
593.7000, 21706.00
594.8700, 21550.00
596.0400, 21777.00
597.2090, 21755.00
598.3790, 21926.00
599.5490, 21832.00
600.7180, 21976.00
601.8870, 21981.00
603.0560, 22225.00
604.2250, 22433.00
605.3940, 22341.00
606.5620, 22368.00
607.7300, 22527.00
608.8990, 22901.00
610.0670, 23072.00
611.2350, 23142.00
612.4020, 23252.00
613.5700, 23212.00
614.7370, 23351.00
615.9050, 23636.00
617.0720, 23708.00
618.2390, 23954.00
619.4060, 24260.00
620.5720, 24397.14
621.7390, 24766.00
622.9050, 24818.00
624.0710, 24941.00
625.2370, 25174.00
626.4030, 25319.00
627.5690, 25266.00
628.7340, 25579.00
629.9000, 25411.00
631.0650, 25729.00
632.2300, 25839.00
633.3950, 25668.00
634.5600, 25970.00
635.7240, 25865.00
636.8890, 25855.00
638.0530, 25816.00
639.2170, 25867.00
640.3810, 25794.24
641.5450, 25748.00
642.7080, 25652.00
643.8720, 25505.00
645.0350, 25350.00
646.1980, 25353.00
647.3610, 25275.81
648.5240, 25372.00
649.6870, 25269.00
650.8490, 25253.00
652.0120, 25284.00
653.1740, 25287.00
654.3360, 25506.00
655.4980, 25606.00
656.6600, 25772.41
657.8210, 25979.00
658.9830, 26124.00
660.1440, 26233.00
661.3050, 26351.00
662.4660, 26323.00
663.6270, 26596.00
664.7870, 26503.00
665.9480, 26791.00
667.1080, 26723.00
668.2680, 26781.00
669.4280, 26875.00
670.5880, 26862.00
671.7480, 26757.00
672.9070, 26733.00
674.0670, 26858.00
675.2260, 26700.00
676.3850, 26653.00
677.5440, 26394.00
678.7030, 26200.00
679.8610, 26176.00
681.0200, 25958.00
682.1780, 25855.08
683.3360, 25780.00
684.4940, 25639.00
685.6520, 25564.00
686.8090, 25546.00
687.9670, 25573.00
689.1240, 25326.00
690.2810, 25243.00
691.4380, 25120.00
692.5950, 25109.00
693.7520, 25051.00
694.9080, 25064.00
696.0650, 24921.00
697.2210, 24896.00
698.3770, 24963.00
699.5330, 24756.00
700.6880, 24824.00
701.8440, 24674.00
702.9990, 24730.00
704.1550, 24468.00
705.3100, 24628.00
706.4650, 24540.00
707.6190, 24394.00
708.7740, 24485.00
709.9290, 24237.00
711.0830, 24460.00
712.2370, 24137.00
713.3910, 24282.00
714.5450, 24168.00
715.6980, 23978.00
716.8520, 24021.00
718.0050, 23717.00
719.1580, 23721.00
720.3110, 23959.00
721.4640, 23611.00
722.6170, 23861.00
723.7700, 23614.00
724.9220, 23706.00
726.0740, 23722.00
727.2260, 23586.00
728.3780, 23529.00
729.5300, 23533.00
730.6810, 23425.00
731.8330, 23430.00
732.9840, 23620.00
734.1350, 23343.00
735.2860, 23188.00
736.4370, 23547.00
737.5880, 23357.00
738.7380, 23398.00
739.8880, 23406.00
741.0390, 23310.00
742.1890, 23580.00
743.3380, 23437.00
744.4880, 23509.00
745.6380, 23459.00
746.7870, 23360.00
747.9360, 23421.00
749.0850, 23460.00
750.2340, 23390.00
751.3830, 23446.00
752.5310, 23662.00
753.6800, 23410.00
754.8280, 23462.00
755.9760, 23866.00
757.1240, 23396.00
758.2720, 23557.00
759.4190, 23730.00
760.5670, 23466.00
761.7140, 23752.00
762.8610, 23619.00
764.0080, 23604.00
765.1550, 23836.00
766.3020, 23531.00
767.4480, 23761.00
768.5950, 23882.00
769.7410, 23813.00
770.8870, 23676.00
772.0330, 23667.00
773.1780, 23507.00
774.3240, 23836.00
775.4690, 23871.00
776.6140, 23744.00
777.7590, 23846.00
778.9040, 23711.00
780.0490, 23707.00
781.1940, 23622.00
782.3380, 23755.00
783.4820, 23655.00
784.6260, 23679.00
785.7700, 23675.00
786.9140, 23463.00
788.0580, 23418.00
789.2010, 23377.65
790.3450, 23468.00
791.4880, 23370.00
792.6310, 23394.00
793.7730, 23490.00
794.9160, 23303.00
796.0590, 23351.00
797.2010, 23271.00
798.3430, 23230.00
799.4850, 23137.00
800.6270, 23318.00
801.7690, 23017.00
802.9100, 23133.00
804.0520, 23101.00
805.1930, 23338.00
806.3340, 23077.00
807.4750, 23262.00
808.6160, 23269.00
809.7560, 23397.00
810.8970, 23193.00
812.0370, 23442.00
813.1770, 23265.00
814.3170, 23206.00
815.4570, 23309.00
816.5960, 23191.00
817.7360, 23265.00
818.8750, 23445.00
820.0140, 23560.00
821.1530, 23413.00
822.2920, 23476.00
823.4310, 23457.00
824.5690, 23349.00
825.7070, 23458.00
826.8460, 23427.00
827.9840, 23477.00
829.1220, 23152.00
830.2590, 23439.00
831.3970, 23591.00
832.5340, 23381.00
833.6710, 23721.00
834.8080, 23694.00
835.9450, 23718.00
837.0820, 23539.00
838.2190, 23506.00
839.3550, 23402.00
840.4910, 23627.00
841.6270, 23668.00
842.7630, 23498.00
843.8990, 23720.00
845.0350, 23617.00
846.1700, 23795.00
847.3060, 24009.00
848.4410, 23740.00
849.5760, 23918.00
850.7100, 23768.00
851.8450, 23772.00
852.9800, 23725.00
854.1140, 23538.00
855.2480, 23734.00
856.3820, 23775.00
857.5160, 24030.00
858.6500, 24076.00
859.7830, 24080.00
860.9170, 24163.00
862.0500, 24131.00
863.1830, 24185.00
864.3160, 24258.00
865.4480, 24107.00
866.5810, 24265.00
867.7130, 24261.00
868.8460, 24383.00
869.9780, 24331.00
871.1100, 24348.08
872.2410, 24335.00
873.3730, 24277.00
874.5050, 24379.00
875.6360, 24281.00
876.7670, 24551.00
877.8980, 24454.00
879.0290, 24575.00
880.1590, 24774.00
881.2900, 24540.00
882.4200, 24521.00
883.5500, 24400.00
884.6800, 24427.24
885.8100, 24402.75
886.9400, 24626.00
888.0690, 24469.00
889.1990, 24688.00
890.3280, 24844.00
891.4570, 24529.00
892.5860, 24912.00
893.7140, 24864.00
894.8430, 24731.00
895.9710, 24753.00
897.1000, 24942.00
898.2280, 24986.00
899.3560, 25004.00
900.4830, 25097.00
901.6110, 24985.00
902.7380, 24888.00
903.8660, 25074.00
904.9930, 25222.00
906.1200, 25197.00
907.2460, 25236.00
908.3730, 25204.00
909.5000, 25407.00
910.6260, 25302.00
911.7520, 25527.00
912.8780, 25330.00
914.0040, 25275.00
915.1290, 25550.00
916.2550, 25529.00
917.3800, 25619.00
918.5050, 25491.00
919.6300, 25538.00
920.7550, 25521.00
921.8800, 25645.00
923.0040, 25563.00
924.1290, 25640.00
925.2530, 25839.00
926.3770, 26097.00
927.5010, 26019.51
928.6250, 25976.00
929.7480, 25977.00
930.8720, 25989.00
931.9950, 26096.00
933.1180, 26019.00
934.2410, 26079.00
935.3640, 26050.00
936.4860, 26055.00
937.6090, 26307.00
938.7310, 26154.00
939.8530, 26194.00
940.9750, 26379.00
942.0970, 26243.00
943.2180, 26424.00
944.3400, 26465.00
945.4610, 26460.00
946.5820, 26498.30
947.7030, 26375.00
948.8240, 26494.00
949.9450, 26412.00
951.0650, 26506.00
952.1860, 26602.00
953.3060, 26510.00
954.4260, 26479.00
955.5460, 26760.00
956.6650, 26515.00
957.7850, 26727.00
958.9040, 26625.00
960.0230, 26667.00
961.1420, 26778.00
962.2610, 26624.00
963.3800, 26800.00
964.4990, 26894.00
965.6170, 26743.00
966.7350, 26989.00
967.8530, 27093.00
968.9710, 26850.00
970.0890, 27124.00
971.2070, 27153.00
972.3240, 27130.00
973.4410, 26924.46
974.5580, 27115.11
975.6750, 27256.41
976.7920, 27351.01
977.9090, 27259.01
979.0250, 27407.89
980.1410, 27460.20
981.2580, 27508.63
982.3740, 27691.42
983.4890, 27626.43
984.6050, 27807.08
985.7200, 27889.63
986.8360, 28017.12
987.9510, 28047.39
989.0660, 28107.66
990.1810, 28265.13
991.2950, 28232.00
992.4100, 28220.34
993.5240, 28328.00
994.6390, 28368.16
995.7530, 28549.00
996.8660, 28483.00
997.9800, 28505.00
999.0940, 28538.00
1000.207, 28851.00
1001.320, 28835.00
1002.433, 29011.00
1003.546, 29083.00
1004.659, 29162.00
1005.772, 29184.00
1006.884, 29750.00
1007.996, 29243.00
1009.108, 29662.00
1010.220, 29739.00
1011.332, 29636.00
1012.444, 29723.00
1013.555, 29852.00
1014.666, 29944.00
1015.777, 29814.00
1016.888, 29948.00
1017.999, 30011.00
1019.110, 29814.00
1020.220, 30124.00
1021.331, 29922.00
1022.441, 29966.00
1023.551, 29901.00
1024.661, 29800.00
1025.770, 29449.00
1026.880, 29606.00
1027.989, 29781.00
1029.098, 29407.00
1030.207, 29453.00
1031.316, 29375.00
1032.425, 29465.00
1033.533, 29449.00
1034.642, 29427.48
1035.750, 29307.00
1036.858, 29374.00
1037.966, 29208.00
1039.073, 29135.00
1040.181, 29093.00
1041.288, 29060.00
1042.396, 29209.00
1043.503, 29080.00
1044.610, 29174.00
1045.716, 29074.00
1046.823, 29154.00
1047.929, 29197.00
1049.036, 29239.00
1050.142, 29208.00
1051.248, 29193.00
1052.353, 28990.00
1053.459, 29233.00
1054.564, 28877.00
1055.670, 29329.00
1056.775, 29239.00
1057.880, 29085.00
1058.985, 29330.00
1060.089, 29130.00
1061.194, 29202.00
1062.298, 29489.00
1063.402, 29077.42
1064.506, 29196.37
1065.610, 29265.96
1066.713, 29288.84
1067.817, 29125.14
1068.920, 29202.38
1070.023, 29183.05
1071.126, 29159.77
1072.229, 29270.92
1073.332, 29134.35
1074.435, 29243.37
1075.537, 29254.34
1076.639, 29310.19
1077.741, 29268.88
1078.843, 29257.58
1079.945, 29343.46
1081.046, 29375.52
1082.148, 29323.03
1083.249, 29381.72
1084.350, 29241.75
1085.451, 29276.11
1086.551, 29385.67
1087.652, 29338.06
1088.752, 29398.52
1089.853, 29417.82
1090.953, 29250.05
1092.053, 29407.61
1093.152, 29424.47
1094.252, 29296.87
1095.351, 29443.28
1096.451, 29335.59
1097.550, 29318.60
1098.649, 29369.87
1099.748, 29349.98
1100.846, 29442.26
1101.945, 29426.48
1103.043, 29401.04
1104.141, 29417.73
1105.239, 29315.02
1106.337, 29287.00
1107.434, 29419.00
1108.532, 29381.00
1109.629, 29697.00
1110.726, 29186.00
1111.823, 29556.00
1112.920, 29340.00
1114.017, 29741.00
1115.113, 29760.00
1116.210, 29671.00
1117.306, 29787.00
1118.402, 29780.00
1119.498, 29622.00
1120.593, 29667.00
1121.689, 29760.00
1122.784, 29672.00
1123.879, 29722.00
1124.974, 30164.00
1126.069, 29879.00
1127.164, 30134.00
1128.259, 29913.00
1129.353, 30060.00
1130.447, 30082.00
1131.541, 30059.00
1132.635, 29987.00
1133.729, 30181.00
1134.822, 30161.00
1135.916, 30178.00
1137.009, 30072.00
1138.102, 30170.26
1139.195, 30186.00
1140.288, 30349.00
1141.380, 30350.00
1142.473, 30493.00
1143.565, 30287.00
1144.657, 30369.00
1145.749, 30146.00
1146.841, 30529.00
1147.932, 30361.00
1149.024, 30414.00
1150.115, 30247.00
1151.206, 30480.00
1152.297, 30301.00
1153.388, 30694.00
1154.479, 30343.00
1155.569, 30527.00
1156.659, 30831.00
1157.750, 30780.00
1158.839, 30711.00
1159.929, 30864.00
1161.019, 30762.00
1162.108, 30576.00
1163.198, 30715.00
1164.287, 30946.00
1165.376, 30487.00
1166.465, 30899.00
1167.553, 30940.00
1168.642, 30885.00
1169.730, 30998.00
1170.818, 30877.00
1171.906, 30914.00
1172.994, 31252.00
1174.082, 31456.00
1175.170, 31052.00
1176.257, 31110.00
1177.344, 30770.00
1178.431, 30924.00
1179.518, 31125.00
1180.605, 31423.00
1181.691, 31009.00
1182.778, 31478.00
1183.864, 31266.00
1184.950, 31373.00
1186.036, 31619.00
1187.122, 31574.00
1188.207, 31488.00
1189.292, 31292.00
1190.378, 31614.00
1191.463, 31636.00
1192.548, 31706.62
1193.632, 31776.02
1194.717, 31763.00
1195.801, 31891.00
1196.886, 31612.00
1197.970, 31921.00
1199.054, 31806.00
1200.137, 31853.00
1201.221, 31978.00
1202.305, 31736.00
1203.388, 31719.00
1204.471, 31760.00
1205.554, 31858.00
1206.637, 31834.19
1207.719, 31957.00
1208.802, 31881.00
1209.884, 32132.00
1210.966, 32240.00
1212.048, 32512.00
1213.130, 32200.00
1214.212, 32175.00
1215.293, 31877.00
1216.374, 32023.38
1217.456, 32036.00
1218.536, 32308.00
1219.617, 32449.00
1220.698, 32502.00
1221.778, 32722.00
1222.859, 32510.00
1223.939, 32503.00
1225.019, 32632.00
1226.099, 32512.00
1227.178, 32386.00
1228.258, 32823.00
1229.337, 32771.00
1230.417, 32381.00
1231.496, 32877.00
1232.574, 32626.00
1233.653, 32763.00
1234.732, 32999.00
1235.810, 33003.00
1236.888, 33087.00
1237.966, 33091.08
1239.044, 33026.85
1240.122, 32979.00
1241.199, 33021.00
1242.277, 32919.00
1243.354, 33270.00
1244.431, 33147.00
1245.508, 33388.00
1246.585, 33245.00
1247.661, 33346.00
1248.738, 33590.00
1249.814, 33278.00
1250.890, 33573.00
1251.966, 33540.00
1253.042, 33690.00
1254.117, 33515.00
1255.193, 33473.00
1256.268, 33488.00
1257.343, 33721.00
1258.418, 33757.00
1259.493, 33644.00
1260.567, 33967.00
1261.642, 34011.00
1262.716, 33967.00
1263.790, 33931.00
1264.864, 34111.00
1265.938, 33940.00
1267.011, 34157.00
1268.085, 34116.00
1269.158, 33992.00
1270.231, 34041.00
1271.304, 34464.00
1272.377, 34257.00
1273.450, 34401.00
1274.522, 34773.00
1275.594, 34328.00
1276.666, 34602.00
1277.738, 34791.00
1278.810, 34561.00
1279.882, 34754.00
1280.953, 34240.00
1282.025, 34438.00
1283.096, 34597.00
1284.167, 34910.00
1285.238, 34870.00
1286.308, 34975.00
1287.379, 34866.00
1288.449, 34928.00
1289.519, 35149.00
1290.589, 35428.00
1291.659, 35194.00
1292.729, 34776.00
1293.798, 35056.00
1294.868, 35112.00
1295.937, 35192.00
1297.006, 35339.00
1298.075, 35400.22
1299.143, 35436.52
1300.212, 35564.00
1301.280, 35536.00
1302.348, 35566.00
1303.416, 35775.00
1304.484, 35698.00
1305.552, 35531.00
1306.620, 35878.00
1307.687, 35683.95
1308.754, 35832.00
1309.821, 35639.00
1310.888, 35556.00
1311.955, 35593.00
1313.021, 35598.68
1314.088, 35807.00
1315.154, 35860.00
1316.220, 35962.11
1317.286, 36233.00
1318.352, 36050.00
1319.417, 36130.00
1320.483, 36203.00
1321.548, 35854.00
1322.613, 36320.00
1323.678, 35931.00
1324.743, 35869.00
1325.807, 36400.00
1326.872, 36400.00
1327.936, 36328.00
1329.000, 36474.00
1330.064, 36701.00
1331.128, 36613.00
1332.191, 36740.00
1333.255, 36670.00
1334.318, 36459.00
1335.381, 36608.00
1336.444, 36561.00
1337.507, 36659.00
1338.569, 36553.00
1339.632, 36847.00
1340.694, 36841.00
1341.756, 36960.00
1342.818, 37017.00
1343.880, 37138.00
1344.941, 37099.00
1346.003, 36990.00
1347.064, 36999.00
1348.125, 37224.00
1349.186, 37157.00
1350.247, 37022.00
1351.308, 37401.00
1352.368, 37547.00
1353.428, 37225.00
1354.489, 37350.00
1355.549, 37575.00
1356.608, 37426.00
1357.668, 37337.00
1358.727, 37514.00
1359.787, 37317.00
1360.846, 37296.00
1361.905, 37561.00
1362.964, 37605.00
1364.022, 37386.00
1365.081, 37622.00
1366.139, 37713.00
1367.197, 37739.00
1368.255, 37806.78
1369.313, 37850.41
1370.371, 37794.00
1371.428, 37887.00
1372.486, 37894.00
1373.543, 37818.00
1374.600, 37521.00
1375.657, 37739.00
1376.713, 37507.00
1377.770, 37637.00
1378.826, 37817.00
1379.882, 37899.00
1380.938, 37924.00
1381.994, 38211.00
1383.050, 37894.00
1384.106, 38517.00
1385.161, 38095.00
1386.216, 38006.00
1387.271, 38145.00
1388.326, 37919.00
1389.381, 37846.00
1390.435, 38065.00
1391.490, 38060.00
1392.544, 38037.00
1393.598, 38002.00
1394.652, 38152.00
1395.705, 38250.00
1396.759, 37990.00
1397.812, 38188.00
1398.866, 38039.00
1399.919, 37988.00
1400.972, 38056.00
1402.024, 37950.00
1403.077, 37937.00
1404.129, 38299.00
1405.181, 38217.00
1406.233, 38361.00
1407.285, 38500.00
1408.337, 38593.00
1409.389, 38141.00
1410.440, 38234.00
1411.491, 38456.00
1412.542, 38224.00
1413.593, 38418.00
1414.644, 38408.00
1415.695, 38383.00
1416.745, 38378.00
1417.795, 38531.00
1418.845, 38411.00
1419.895, 38365.00
1420.945, 38659.00
1421.995, 38545.00
1423.044, 38515.00
1424.093, 38841.00
1425.142, 38415.00
1426.191, 38389.00
1427.240, 38615.00
1428.289, 38517.00
1429.337, 38401.00
1430.385, 38300.00
1431.433, 38528.00
1432.481, 38667.00
1433.529, 38777.00
1434.577, 38956.00
1435.624, 39332.00
1436.672, 38934.00
1437.719, 38843.00
1438.766, 38787.00
1439.812, 38990.00
1440.859, 38800.00
1441.905, 38812.00
1442.952, 38659.00
1443.998, 39113.00
1445.044, 38771.00
1446.090, 38908.00
1447.135, 39038.00
1448.181, 38756.00
1449.226, 39050.00
1450.271, 38959.00
1451.316, 38868.00
1452.361, 39095.00
1453.405, 38858.00
1454.450, 39197.00
1455.494, 38999.00
1456.538, 39254.00
1457.582, 39049.00
1458.626, 39102.00
1459.670, 39068.00
1460.713, 39210.00
1461.757, 38947.00
1462.800, 39339.00
1463.843, 39236.00
1464.886, 39009.00
1465.928, 39443.00
1466.971, 39251.00
1468.013, 39225.00
1469.055, 39445.00
1470.097, 39308.00
1471.139, 39120.00
1472.181, 39207.00
1473.222, 39477.00
1474.263, 39669.00
1475.305, 39720.00
1476.346, 39828.00
1477.386, 39513.00
1478.427, 39778.00
1479.468, 39584.00
1480.508, 39639.00
1481.548, 39578.00
1482.588, 39485.00
1483.628, 39577.00
1484.668, 39918.00
1485.707, 40094.00
1486.747, 40030.00
1487.786, 40177.00
1488.825, 40302.00
1489.864, 40169.00
1490.902, 40170.00
1491.941, 40303.00
1492.979, 40222.00
1494.017, 39993.00
1495.055, 40009.00
1496.093, 40284.00
1497.131, 40056.00
1498.168, 40399.00
1499.206, 40305.00
1500.243, 40502.00
1501.280, 40523.00
1502.317, 40569.18
1503.354, 40727.00
1504.390, 40607.00
1505.426, 40710.00
1506.463, 40561.00
1507.499, 40705.00
1508.535, 40876.00
1509.570, 40982.00
1510.606, 40854.00
1511.641, 40877.00
1512.676, 41049.00
1513.711, 41238.00
1514.746, 41087.00
1515.781, 41518.00
1516.816, 41559.00
1517.850, 41472.00
1518.884, 41533.00
1519.918, 41448.00
1520.952, 41545.00
1521.986, 41643.00
1523.019, 41489.00
1524.053, 41790.00
1525.086, 41763.00
1526.119, 41806.00
1527.152, 41843.00
1528.185, 42302.00
1529.217, 42222.00
1530.250, 42232.00
1531.282, 42410.00
1532.314, 42215.00
1533.346, 42197.00
1534.377, 42288.00
1535.409, 42610.00
1536.440, 42328.00
1537.472, 42362.00
1538.503, 42634.00
1539.534, 42469.00
1540.564, 42877.00
1541.595, 42814.00
1542.625, 43337.00
1543.656, 43199.00
1544.686, 43105.00
1545.716, 42830.00
1546.745, 43060.00
1547.775, 43052.00
1548.804, 42966.00
1549.834, 43292.00
1550.863, 43293.00
1551.892, 43446.00
1552.920, 43543.00
1553.949, 44044.00
1554.977, 44414.00
1556.006, 44441.00
1557.034, 44336.00
1558.062, 44038.00
1559.089, 43985.00
1560.117, 44015.00
1561.144, 43618.00
1562.172, 44080.00
1563.199, 43995.00
1564.226, 44499.00
1565.252, 44211.00
1566.279, 44641.00
1567.305, 44509.00
1568.332, 44502.00
1569.358, 44703.00
1570.384, 44671.00
1571.409, 44804.00
##END=



