##NAMES=Annite
##RRUFFID=R060204
##IDEAL CHEMISTRY=KFe^2+^_3_AlSi_3_O_10_(OH)_2_
##LOCALITY=Mont Saint-Hilaire, Rouville County, Quebec, Canada
##OWNER=RRUFF
##SOURCE=Royal Ontario Museum
##DESCRIPTION=Black mica with pseudohexagonal outines
##STATUS=The identification of this mineral has been confirmed by X-ray diffraction and chemical analysis
##URL=rruff.info/R060204
##MEASURED CHEMISTRY=(K_0.96_Na_0.04_)_Σ=1_(Fe^2+^_2.04_Mg_0.81_Mn_0.09_Ti_0.03_[box]_0.03_)_Σ=3_(Si_3.00_Al_1.00_)O_10_((OH)_1.54_F_0.46_)_Σ=2_
##PIN_ID=L01689
##ORIENTATION=Laser parallel to (1 0 1). Fiducial mark perpendicular to laser is parallel to b [0 1 0]
230.8490, 14957.00
232.0700, 14906.00
233.2910, 14958.00
234.5120, 14855.00
235.7320, 14870.00
236.9530, 14700.00
238.1730, 14764.00
239.3930, 14578.00
240.6130, 14787.00
241.8320, 14621.00
243.0520, 14574.00
244.2710, 14741.00
245.4900, 14631.00
246.7090, 14872.00
247.9280, 14931.00
249.1470, 14970.00
250.3650, 15058.42
251.5840, 15181.00
252.8020, 15016.00
254.0200, 15078.00
255.2370, 14751.32
256.4550, 14941.56
257.6720, 15069.30
258.8900, 15137.99
260.1070, 14970.54
261.3240, 15107.96
262.5400, 15123.16
263.7570, 15133.39
264.9730, 15313.68
266.1900, 15180.57
267.4060, 15345.00
268.6220, 15252.00
269.8370, 15417.00
271.0530, 15349.54
272.2680, 15573.00
273.4830, 15343.00
274.6980, 15522.00
275.9130, 15593.00
277.1280, 15861.00
278.3420, 15600.00
279.5570, 15395.00
280.7710, 15302.00
281.9850, 15162.00
283.1990, 15177.00
284.4120, 15085.00
285.6260, 15203.00
286.8390, 15118.00
288.0520, 15271.00
289.2650, 15065.00
290.4780, 14904.00
291.6910, 15135.00
292.9030, 14985.00
294.1160, 14874.00
295.3280, 14832.00
296.5400, 14942.00
297.7510, 14918.00
298.9630, 14882.00
300.1740, 15001.00
301.3860, 14883.00
302.5970, 14839.00
303.8080, 14963.00
305.0180, 14913.00
306.2290, 14852.00
307.4390, 14778.00
308.6500, 14833.00
309.8600, 14871.00
311.0700, 14893.00
312.2790, 14968.00
313.4890, 14844.00
314.6980, 14962.78
315.9080, 14866.03
317.1170, 15084.00
318.3250, 14863.00
319.5340, 14866.00
320.7430, 15163.00
321.9510, 15143.00
323.1590, 15058.00
324.3670, 15157.00
325.5750, 15215.00
326.7830, 15380.00
327.9900, 15282.00
329.1980, 15324.00
330.4050, 15531.00
331.6120, 15702.00
332.8190, 15463.00
334.0250, 15335.00
335.2320, 15280.00
336.4380, 15498.00
337.6440, 15542.00
338.8500, 15435.00
340.0560, 15470.00
341.2620, 15574.00
342.4670, 15556.00
343.6730, 15362.00
344.8780, 15483.00
346.0830, 15449.49
347.2870, 15481.00
348.4920, 15571.00
349.6970, 15598.00
350.9010, 15726.00
352.1050, 15731.00
353.3090, 15792.00
354.5130, 15656.00
355.7160, 15682.66
356.9200, 15766.00
358.1230, 15644.00
359.3260, 15665.00
360.5290, 15704.00
361.7320, 15660.00
362.9340, 15696.00
364.1370, 15724.00
365.3390, 15773.00
366.5410, 15663.00
367.7430, 15675.00
368.9450, 15631.83
370.1460, 15667.00
371.3480, 15608.00
372.5490, 15491.00
373.7500, 15604.00
374.9510, 15568.00
376.1520, 15482.00
377.3520, 15524.00
378.5520, 15758.00
379.7530, 15638.00
380.9530, 15754.00
382.1530, 15875.00
383.3520, 15667.00
384.5520, 15730.00
385.7510, 15688.00
386.9500, 15854.00
388.1490, 15758.00
389.3480, 15709.00
390.5470, 15954.00
391.7450, 15811.00
392.9440, 16135.00
394.1420, 16276.00
395.3400, 16092.00
396.5380, 16138.00
397.7350, 15969.00
398.9330, 16026.00
400.1300, 16082.00
401.3270, 15986.00
402.5240, 16083.00
403.7210, 16094.00
404.9180, 16107.00
406.1140, 16042.00
407.3110, 15998.05
408.5070, 15992.21
409.7030, 15895.00
410.8990, 15903.00
412.0940, 15820.19
413.2900, 15821.00
414.4850, 15693.00
415.6800, 15593.00
416.8750, 15565.20
418.0700, 15695.00
419.2650, 15657.00
420.4590, 15645.00
421.6530, 15575.96
422.8470, 15540.00
424.0410, 15358.00
425.2350, 15356.00
426.4290, 15301.00
427.6220, 15353.00
428.8160, 15103.00
430.0090, 15064.00
431.2020, 15178.00
432.3940, 15236.00
433.5870, 15084.00
434.7790, 15080.00
435.9720, 15180.00
437.1640, 14892.00
438.3560, 14932.00
439.5470, 14827.00
440.7390, 14818.00
441.9300, 14887.00
443.1220, 14808.00
444.3130, 14891.00
445.5040, 14682.00
446.6940, 14778.00
447.8850, 14912.00
449.0750, 14777.00
450.2660, 14721.00
451.4560, 14762.00
452.6460, 14740.00
453.8350, 14736.20
455.0250, 14775.47
456.2140, 14783.00
457.4040, 14824.00
458.5930, 14953.00
459.7820, 14949.00
460.9700, 15047.00
462.1590, 15114.00
463.3470, 15082.00
464.5350, 15160.00
465.7240, 15066.00
466.9110, 15091.00
468.0990, 15143.24
469.2870, 15186.00
470.4740, 15310.00
471.6610, 15434.00
472.8480, 15634.00
474.0350, 15629.00
475.2220, 15727.00
476.4090, 15910.00
477.5950, 15790.00
478.7810, 15791.84
479.9670, 15975.58
481.1530, 16096.86
482.3390, 16159.05
483.5240, 15985.10
484.7100, 16116.06
485.8950, 16124.81
487.0800, 16128.54
488.2650, 16302.38
489.4490, 16162.73
490.6340, 16333.87
491.8180, 16380.93
493.0030, 16484.79
494.1870, 16494.00
495.3700, 16483.00
496.5540, 16544.00
497.7380, 16626.00
498.9210, 16721.00
500.1040, 16712.00
501.2870, 16698.00
502.4700, 16819.00
503.6530, 16795.00
504.8350, 16773.00
506.0180, 16842.00
507.2000, 16656.00
508.3820, 16796.00
509.5640, 16711.00
510.7450, 16953.00
511.9270, 16901.00
513.1080, 17006.00
514.2890, 17184.00
515.4700, 17111.00
516.6510, 17346.00
517.8320, 17071.00
519.0130, 17021.00
520.1930, 17159.00
521.3730, 17232.00
522.5530, 17115.00
523.7330, 17379.00
524.9130, 17211.00
526.0920, 17430.00
527.2710, 17616.00
528.4510, 17553.00
529.6300, 17663.00
530.8080, 17610.00
531.9870, 17538.00
533.1660, 17776.00
534.3440, 17645.00
535.5220, 17693.00
536.7000, 17831.00
537.8780, 17761.00
539.0560, 17857.00
540.2330, 17947.00
541.4110, 17842.00
542.5880, 18031.00
543.7650, 17886.00
544.9420, 17761.00
546.1180, 17640.00
547.2950, 17544.39
548.4710, 17501.00
549.6470, 17432.00
550.8230, 17316.00
551.9990, 17282.04
553.1750, 17293.00
554.3500, 17171.00
555.5260, 17126.00
556.7010, 17071.00
557.8760, 16910.00
559.0510, 16653.00
560.2250, 16780.00
561.4000, 16450.00
562.5740, 16600.00
563.7480, 16347.00
564.9220, 16365.00
566.0960, 16390.00
567.2700, 16348.00
568.4430, 16375.00
569.6170, 16016.00
570.7900, 15927.00
571.9630, 15905.00
573.1360, 15894.00
574.3080, 15650.00
575.4810, 15841.00
576.6530, 15665.96
577.8250, 15664.34
578.9980, 15468.00
580.1690, 15615.00
581.3410, 15467.00
582.5130, 15396.00
583.6840, 15326.00
584.8550, 15294.19
586.0260, 15310.00
587.1970, 15270.00
588.3680, 15203.00
589.5380, 15137.00
590.7080, 15131.00
591.8790, 15149.00
593.0490, 15262.00
594.2190, 15297.00
595.3880, 15355.00
596.5580, 15320.00
597.7270, 15281.00
598.8960, 15370.00
600.0650, 15281.00
601.2340, 15280.00
602.4030, 15409.00
603.5710, 15469.00
604.7400, 15504.00
605.9080, 15542.00
607.0760, 15422.00
608.2440, 15649.00
609.4120, 15464.00
610.5790, 15476.00
611.7460, 15511.00
612.9140, 15511.00
614.0810, 15586.29
615.2480, 15683.00
616.4140, 15718.00
617.5810, 15814.00
618.7470, 15842.00
619.9130, 15868.50
621.0790, 15906.83
622.2450, 15930.00
623.4110, 15880.00
624.5770, 15982.00
625.7420, 15848.00
626.9070, 15852.00
628.0720, 16134.00
629.2370, 16004.00
630.4020, 16062.00
631.5660, 16129.00
632.7310, 16292.00
633.8950, 16457.00
635.0590, 16386.00
636.2230, 16490.00
637.3870, 16606.00
638.5500, 16594.00
639.7140, 16702.38
640.8770, 16636.00
642.0400, 16865.00
643.2030, 16903.00
644.3660, 17056.00
645.5280, 17107.00
646.6910, 17469.00
647.8530, 17263.00
649.0150, 17470.00
650.1770, 17452.00
651.3390, 17741.00
652.5000, 17885.00
653.6620, 18202.00
654.8230, 18080.00
655.9840, 18529.00
657.1450, 18707.00
658.3060, 18902.00
659.4660, 19271.00
660.6270, 19685.00
661.7870, 19953.00
662.9470, 20288.79
664.1070, 20469.60
665.2670, 20773.00
666.4260, 20890.00
667.5860, 20926.00
668.7450, 21401.00
669.9040, 21730.00
671.0630, 21993.00
672.2220, 21941.00
673.3800, 22057.00
674.5390, 21886.00
675.6970, 21791.00
676.8550, 21803.00
678.0130, 21508.00
679.1710, 21240.00
680.3290, 21139.00
681.4860, 20985.00
682.6430, 20713.00
683.8000, 20887.00
684.9570, 20819.00
686.1140, 21131.00
687.2710, 20905.00
688.4270, 21164.00
689.5840, 21309.00
690.7400, 21420.00
691.8960, 21475.00
693.0520, 21795.00
694.2070, 21860.00
695.3630, 22301.00
696.5180, 22795.00
697.6730, 23271.00
698.8280, 23667.43
699.9830, 24030.98
701.1380, 24505.00
702.2920, 24708.00
703.4470, 25212.00
704.6010, 25672.00
705.7550, 25630.00
706.9090, 26193.00
708.0620, 26420.00
709.2160, 26641.00
710.3690, 26974.00
711.5220, 27295.00
712.6750, 27401.00
713.8280, 27733.00
714.9810, 27759.00
716.1340, 27806.00
717.2860, 27575.00
718.4380, 27509.00
719.5900, 27402.00
720.7420, 26877.00
721.8940, 26689.00
723.0450, 26390.00
724.1970, 26064.00
725.3480, 25929.00
726.4990, 25595.00
727.6500, 25231.00
728.8010, 24851.00
729.9510, 24360.00
731.1020, 23986.00
732.2520, 23613.00
733.4020, 23288.00
734.5520, 22988.80
735.7020, 22654.00
736.8510, 22542.00
738.0010, 22298.00
739.1500, 22284.00
740.2990, 22102.00
741.4480, 21952.00
742.5970, 21940.00
743.7450, 21812.00
744.8940, 21646.00
746.0420, 21521.00
747.1900, 21333.00
748.3380, 21715.00
749.4860, 22085.00
750.6330, 21909.00
751.7810, 21749.00
752.9280, 21994.00
754.0750, 22043.00
755.2220, 22349.00
756.3690, 22429.00
757.5160, 22308.00
758.6620, 22352.00
759.8090, 22375.00
760.9550, 22286.00
762.1010, 22405.00
763.2470, 22427.00
764.3920, 22764.00
765.5380, 22488.00
766.6830, 22532.00
767.8280, 22366.00
768.9730, 22197.00
770.1180, 21956.00
771.2630, 21755.65
772.4070, 21388.00
773.5520, 21245.00
774.6960, 21006.00
775.8400, 20650.00
776.9840, 20465.00
778.1280, 19979.00
779.2710, 19935.00
780.4140, 19894.00
781.5580, 19403.00
782.7010, 19299.00
783.8440, 18859.00
784.9860, 18688.00
786.1290, 18203.00
787.2710, 18177.00
788.4140, 18193.00
789.5560, 17753.03
790.6980, 17641.65
791.8390, 17225.00
792.9810, 17113.00
794.1220, 17123.00
795.2640, 16960.00
796.4050, 16878.00
797.5460, 16582.00
798.6860, 16395.00
799.8270, 16380.00
800.9680, 16268.00
802.1080, 16101.00
803.2480, 16071.00
804.3880, 15980.00
805.5280, 15840.00
806.6670, 15708.00
807.8070, 16000.00
808.9460, 15772.36
810.0850, 16092.34
811.2240, 15612.00
812.3630, 15369.00
813.5020, 15275.07
814.6400, 15211.00
815.7790, 15297.00
816.9170, 15359.00
818.0550, 15341.00
819.1930, 15301.00
820.3300, 15286.00
821.4680, 15294.00
822.6050, 15237.00
823.7430, 15271.00
824.8800, 15095.00
826.0170, 15078.00
827.1530, 15082.00
828.2900, 15148.00
829.4260, 15188.00
830.5620, 15013.00
831.6990, 15051.00
832.8340, 15210.00
833.9700, 15047.00
835.1060, 15178.00
836.2410, 15211.00
837.3760, 15107.00
838.5120, 14985.00
839.6470, 15040.00
840.7810, 14936.00
841.9160, 15028.00
843.0500, 15284.00
844.1850, 15058.00
845.3190, 15226.00
846.4530, 15240.89
847.5870, 15225.15
848.7200, 15409.00
849.8540, 15187.00
850.9870, 15479.00
852.1200, 15247.00
853.2530, 15364.00
854.3860, 15361.00
855.5190, 15357.00
856.6510, 15300.00
857.7840, 15313.00
858.9160, 15539.00
860.0480, 15619.00
861.1800, 15531.00
862.3110, 15537.00
863.4430, 15546.00
864.5740, 15501.00
865.7060, 15582.00
866.8370, 15636.00
867.9680, 15710.00
869.0980, 15872.00
870.2290, 15772.00
871.3590, 15756.00
872.4900, 15977.00
873.6200, 15757.00
874.7500, 16048.00
875.8790, 16005.00
877.0090, 15967.00
878.1380, 15873.00
879.2680, 15902.00
880.3970, 15945.00
881.5260, 15873.00
882.6550, 16264.00
883.7830, 16045.00
884.9120, 16181.00
886.0400, 16224.00
887.1680, 16163.00
888.2960, 16221.00
889.4240, 16261.00
890.5520, 16391.00
891.6790, 16274.00
892.8070, 16305.00
893.9340, 16361.00
895.0610, 16491.00
896.1880, 16413.36
897.3140, 16578.44
898.4410, 16681.09
899.5670, 16724.62
900.6940, 16532.07
901.8200, 16644.38
902.9450, 16634.48
904.0710, 16619.60
905.1970, 16774.81
906.3220, 16616.56
907.4470, 16769.06
908.5730, 16797.53
909.6980, 16882.76
910.8220, 16845.03
911.9470, 16845.29
913.0710, 16968.50
914.1960, 17023.65
915.3200, 16971.77
916.4440, 16980.62
917.5680, 16940.74
918.6910, 16977.00
919.8150, 16918.00
920.9380, 17097.00
922.0610, 17037.00
923.1840, 17129.00
924.3070, 17173.00
925.4300, 17062.00
926.5520, 17082.00
927.6750, 17209.00
928.7970, 17434.00
929.9190, 16987.00
931.0410, 17200.00
932.1630, 17185.00
933.2840, 17093.00
934.4060, 17070.00
935.5270, 17133.00
936.6480, 17196.00
937.7690, 17233.68
938.8900, 17216.00
940.0100, 17367.00
941.1310, 17292.00
942.2510, 17362.00
943.3710, 17251.00
944.4910, 17302.00
945.6110, 17136.00
946.7310, 17222.00
947.8500, 17275.00
948.9690, 17308.00
950.0890, 17360.00
951.2080, 17234.00
952.3260, 17239.00
953.4450, 17211.70
954.5640, 17507.00
955.6820, 17200.00
956.8000, 17210.00
957.9180, 17292.00
959.0360, 17004.00
960.1540, 17010.00
961.2710, 17142.00
962.3890, 17086.00
963.5060, 17093.00
964.6230, 16976.00
965.7400, 17143.00
966.8570, 17042.00
967.9730, 17092.00
969.0900, 17007.00
970.2060, 17033.00
971.3220, 17061.00
972.4380, 17392.00
973.5540, 17446.00
974.6700, 17331.00
975.7850, 17122.00
976.9010, 17251.00
978.0160, 17210.00
979.1310, 17232.36
980.2460, 17103.00
981.3600, 17349.00
982.4750, 17265.00
983.5890, 17310.00
984.7030, 17152.00
985.8170, 17197.21
986.9310, 17175.83
988.0450, 17230.00
989.1590, 17203.00
990.2720, 17230.00
991.3850, 17289.00
992.4980, 17336.00
993.6110, 17473.00
994.7240, 17432.00
995.8370, 17352.00
996.9490, 17221.00
998.0620, 17446.00
999.1740, 17238.00
1000.286, 17289.00
1001.398, 17749.00
1002.509, 17576.02
1003.621, 17637.71
1004.732, 17628.00
1005.843, 17468.00
1006.954, 17433.00
1008.065, 17360.00
1009.176, 17445.00
1010.286, 17476.00
1011.397, 17588.00
1012.507, 17405.00
1013.617, 17569.00
1014.727, 17507.00
1015.837, 17534.00
1016.946, 17829.00
1018.056, 17652.00
1019.165, 17459.00
1020.274, 17725.00
1021.383, 17702.00
1022.492, 17776.00
1023.601, 17694.00
1024.709, 17744.00
1025.817, 17641.00
1026.926, 17721.00
1028.034, 17623.00
1029.141, 17656.00
1030.249, 17886.00
1031.357, 17704.28
1032.464, 17723.00
1033.571, 17575.00
1034.678, 17815.00
1035.785, 17897.00
1036.892, 17741.00
1037.999, 17740.00
1039.105, 17662.00
1040.211, 17698.00
1041.317, 17743.00
1042.423, 17722.00
1043.529, 17739.00
1044.635, 17809.00
1045.740, 17894.00
1046.845, 17812.00
1047.951, 18162.00
1049.056, 17693.00
1050.160, 17805.00
1051.265, 17849.00
1052.370, 18091.00
1053.474, 17759.00
1054.578, 17870.00
1055.682, 17894.00
1056.786, 17854.00
1057.890, 17958.00
1058.993, 17932.00
1060.097, 18171.00
1061.200, 18182.00
1062.303, 18210.00
1063.406, 18100.00
1064.509, 18172.00
1065.612, 18014.00
1066.714, 17953.00
1067.816, 17851.00
1068.919, 17974.00
1070.021, 18015.00
1071.122, 18052.00
1072.224, 18206.00
1073.326, 17975.00
1074.427, 18176.00
1075.528, 18401.00
1076.629, 18710.00
1077.730, 18025.00
1078.831, 18153.00
1079.931, 18044.00
1081.032, 18024.00
1082.132, 17807.00
1083.232, 17746.00
1084.332, 17945.00
1085.432, 18332.00
1086.531, 18111.40
1087.631, 18105.00
1088.730, 17886.00
1089.829, 17665.00
1090.928, 17564.00
1092.027, 17696.00
1093.126, 17627.00
1094.224, 17467.00
1095.323, 17322.00
1096.421, 17439.00
1097.519, 17375.00
1098.617, 17280.00
1099.715, 17408.00
1100.812, 17245.00
1101.910, 17139.00
1103.007, 17090.00
1104.104, 17103.00
1105.201, 16982.00
1106.298, 16899.00
1107.394, 17053.00
1108.491, 16845.00
1109.587, 17020.00
1110.683, 17002.00
1111.779, 16861.00
1112.875, 16994.00
1113.971, 16958.00
1115.066, 17157.00
1116.162, 17110.15
1117.257, 17326.00
1118.352, 17029.00
1119.447, 16905.00
1120.542, 16757.00
1121.636, 16864.00
1122.731, 16865.00
1123.825, 16841.00
1124.919, 16825.00
1126.013, 16804.12
1127.107, 16840.00
1128.200, 16737.00
1129.294, 16659.00
1130.387, 16588.00
1131.480, 16699.00
1132.573, 16562.00
1133.666, 16594.00
1134.759, 16379.00
1135.851, 16542.00
1136.944, 16561.00
1138.036, 16483.00
1139.128, 16653.00
1140.220, 16353.00
1141.312, 16616.00
1142.403, 16492.00
1143.495, 16415.00
1144.586, 16383.00
1145.677, 16365.00
1146.768, 16460.00
1147.859, 16351.00
1148.950, 16281.00
1150.040, 16293.00
1151.130, 16145.00
1152.221, 16391.00
1153.311, 16400.00
1154.401, 16406.52
1155.490, 16419.10
1156.580, 16431.00
1157.669, 16336.00
1158.759, 16306.00
1159.848, 16376.00
1160.937, 16250.00
1162.025, 16232.00
1163.114, 16131.00
1164.202, 16285.00
1165.291, 16177.00
1166.379, 16224.00
1167.467, 16189.00
1168.555, 16158.00
1169.642, 16317.00
1170.730, 16136.00
1171.817, 16140.00
1172.905, 16018.00
1173.992, 16092.00
1175.078, 15840.00
1176.165, 15979.00
1177.252, 15918.00
1178.338, 16114.00
1179.425, 16033.00
1180.511, 16175.00
1181.597, 16083.00
1182.682, 16199.00
1183.768, 16182.00
1184.854, 16093.00
1185.939, 15968.00
1187.024, 15927.00
1188.109, 16008.00
1189.194, 16211.00
1190.279, 15991.00
1191.363, 16148.00
1192.448, 15969.00
1193.532, 16058.00
1194.616, 16122.00
1195.700, 15927.00
1196.784, 16099.00
1197.867, 16345.00
1198.951, 16109.00
1200.034, 16542.00
1201.117, 15861.00
1202.200, 15977.00
1203.283, 15934.00
1204.366, 15791.00
1205.448, 16030.00
1206.531, 15913.00
1207.613, 16019.00
1208.695, 16086.00
1209.777, 15890.00
1210.859, 16204.00
1211.940, 16115.00
1213.022, 15951.00
1214.103, 15898.00
1215.184, 15938.00
1216.265, 15978.00
1217.346, 15992.00
1218.427, 15989.00
1219.507, 15962.00
1220.587, 16069.00
1221.668, 15987.00
1222.748, 15957.29
1223.828, 16021.00
1224.907, 15807.00
1225.987, 16024.00
1227.066, 15961.00
1228.146, 15836.00
1229.225, 15868.00
1230.304, 15918.00
1231.382, 15968.00
1232.461, 16015.00
1233.540, 16161.00
1234.618, 15987.00
1235.696, 15901.00
1236.774, 16049.00
1237.852, 15978.00
1238.930, 16042.00
1240.007, 16089.00
1241.085, 15990.60
1242.162, 15844.00
1243.239, 15937.00
1244.316, 15856.00
1245.393, 16058.00
1246.469, 15955.00
1247.546, 16090.00
1248.622, 15927.00
1249.698, 16015.00
1250.774, 16129.00
1251.850, 16021.00
1252.926, 15975.00
1254.001, 15931.11
1255.077, 15977.00
1256.152, 15844.00
1257.227, 15843.00
1258.302, 15992.00
1259.377, 15985.00
1260.451, 15958.00
1261.526, 16072.00
1262.600, 16018.24
1263.674, 15904.00
1264.748, 16023.00
1265.822, 16007.00
1266.896, 16069.00
1267.969, 15929.00
1269.043, 15860.00
1270.116, 16088.00
1271.189, 15863.00
1272.262, 16033.00
1273.335, 16187.00
1274.407, 15912.00
1275.480, 16162.00
1276.552, 16172.00
1277.624, 15925.00
1278.696, 16186.00
1279.768, 16176.00
1280.840, 16153.00
1281.911, 15980.00
1282.982, 15792.00
1284.054, 16040.00
1285.125, 16099.00
1286.196, 16070.00
1287.266, 16225.00
1288.337, 16512.00
1289.407, 16189.00
1290.478, 16029.00
1291.548, 15944.00
1292.618, 16202.00
1293.688, 16047.00
1294.757, 16140.00
1295.827, 16067.00
1296.896, 15905.00
1297.965, 16085.00
1299.034, 15919.00
1300.103, 16073.00
1301.172, 15936.00
1302.241, 16204.00
1303.309, 16073.00
1304.377, 16030.00
1305.445, 16160.00
1306.513, 16163.00
1307.581, 15977.00
1308.649, 15856.00
1309.716, 15994.00
1310.784, 15868.00
1311.851, 16000.00
1312.918, 15924.00
1313.985, 16056.00
1315.052, 16096.00
1316.118, 15985.00
1317.185, 16209.00
1318.251, 16038.00
1319.317, 15975.00
1320.383, 16079.00
1321.449, 16110.00
1322.514, 16087.00
1323.580, 15842.00
1324.645, 16127.00
1325.711, 16032.00
1326.776, 16032.00
1327.840, 16131.00
1328.905, 16142.00
1329.970, 16158.21
1331.034, 16160.00
1332.099, 16147.00
1333.163, 16059.00
1334.227, 15995.00
1335.290, 16077.00
1336.354, 16109.00
1337.418, 16037.00
1338.481, 15998.00
1339.544, 16011.00
1340.607, 16009.00
1341.670, 16236.00
1342.733, 16279.00
1343.795, 16166.00
1344.858, 16243.00
1345.920, 16081.00
1346.982, 16195.00
1348.044, 15939.00
1349.106, 16064.00
1350.168, 16061.32
1351.229, 16245.00
1352.291, 16164.00
1353.352, 16119.00
1354.413, 16181.00
1355.474, 16176.00
1356.534, 16141.00
1357.595, 16196.00
1358.656, 16095.00
1359.716, 16173.00
1360.776, 16303.00
1361.836, 16154.00
1362.896, 16297.00
1363.955, 16460.00
1365.015, 16260.00
1366.074, 16059.00
1367.134, 16215.00
1368.193, 16355.00
1369.252, 16213.00
1370.310, 16295.00
1371.369, 16121.00
1372.427, 16299.00
1373.486, 16164.00
1374.544, 16158.00
1375.602, 16658.00
1376.660, 16236.00
1377.717, 16551.99
1378.775, 16473.47
1379.832, 16719.00
1380.889, 16372.00
1381.946, 16259.00
1383.003, 16284.00
1384.060, 16279.00
1385.117, 16260.00
1386.173, 16329.00
1387.230, 16136.00
1388.286, 16226.00
1389.342, 16193.00
1390.398, 16289.00
1391.453, 16268.00
1392.509, 16137.00
1393.564, 16383.00
1394.619, 16250.00
1395.675, 16503.00
1396.729, 16364.00
1397.784, 16290.00
1398.839, 16480.00
1399.893, 16283.00
1400.948, 16317.00
1402.002, 16165.00
1403.056, 16398.00
1404.110, 16560.00
1405.163, 16341.00
1406.217, 16414.00
1407.270, 16552.00
1408.324, 16476.00
1409.377, 16599.00
1410.430, 16436.00
1411.483, 16580.00
1412.535, 16468.00
1413.588, 16507.00
1414.640, 16484.00
1415.692, 16412.00
1416.744, 16548.00
1417.796, 16502.00
1418.848, 16543.00
1419.900, 16646.00
1420.951, 16684.00
1422.002, 16664.00
1423.053, 16690.00
1424.104, 16702.00
1425.155, 16847.00
1426.206, 16536.00
1427.256, 16717.00
1428.307, 16507.00
1429.357, 16691.00
1430.407, 16628.00
1431.457, 16656.00
1432.507, 16604.00
1433.556, 16773.00
1434.606, 16776.00
1435.655, 16755.67
1436.704, 16717.00
1437.753, 16687.00
1438.802, 16597.00
1439.851, 16548.00
1440.899, 16601.00
1441.948, 16607.00
1442.996, 16809.00
1444.044, 16792.00
1445.092, 16747.00
1446.140, 16768.00
1447.187, 16721.00
1448.235, 16730.00
1449.282, 16707.41
1450.329, 16695.00
1451.376, 16659.00
1452.423, 16690.53
1453.470, 16658.94
1454.517, 16722.00
1455.563, 16702.00
1456.609, 16709.00
1457.655, 16758.00
1458.701, 16772.00
1459.747, 16714.00
1460.793, 16816.00
1461.838, 16914.00
1462.884, 16865.00
1463.929, 16847.00
1464.974, 16850.00
1466.019, 16887.09
1467.064, 16704.00
1468.108, 16905.00
1469.153, 16896.00
1470.197, 16671.00
1471.241, 16960.00
1472.285, 16750.00
1473.329, 16877.00
1474.373, 16925.00
1475.416, 16767.00
1476.460, 16878.00
1477.503, 16989.00
1478.546, 16822.00
1479.589, 16755.00
1480.632, 16832.00
1481.674, 16867.00
1482.717, 16916.00
1483.759, 16640.00
1484.801, 16872.00
1485.843, 16945.00
1486.885, 16777.00
1487.927, 16952.00
1488.968, 16889.00
1490.010, 16702.00
1491.051, 16781.00
1492.092, 16759.00
1493.133, 16868.00
1494.174, 16831.00
1495.215, 16949.00
1496.255, 16816.00
1497.296, 16743.00
1498.336, 16713.00
1499.376, 16738.00
1500.416, 16677.00
1501.456, 16721.87
1502.495, 16852.00
1503.535, 16814.00
1504.574, 16834.00
1505.613, 16931.00
1506.652, 16867.00
1507.691, 16740.00
1508.730, 16687.00
1509.768, 16855.00
1510.807, 16768.86
1511.845, 16836.00
1512.883, 16789.00
1513.921, 16874.00
1514.959, 16864.00
1515.996, 16815.00
1517.034, 16887.00
1518.071, 16945.00
1519.109, 16869.00
1520.146, 16912.00
1521.183, 16610.00
1522.219, 16766.00
1523.256, 16648.00
1524.292, 16831.00
1525.329, 16748.00
1526.365, 16635.00
1527.401, 16926.00
1528.437, 16928.00
1529.472, 16879.95
1530.508, 17062.00
1531.543, 16821.00
1532.579, 16780.00
1533.614, 16897.00
1534.649, 16737.00
1535.683, 16718.00
1536.718, 16760.00
1537.753, 16777.00
1538.787, 16856.00
1539.821, 16831.88
1540.855, 16897.00
1541.889, 16851.00
1542.923, 16831.00
1543.956, 16860.09
1544.990, 16993.91
1546.023, 17065.29
1547.056, 17077.57
1548.089, 16853.75
1549.122, 16934.81
1550.155, 16893.68
1551.187, 16847.56
1552.220, 16971.52
1553.252, 16782.05
1554.284, 16903.33
1555.316, 16900.56
1556.348, 16954.56
1557.379, 16885.64
1558.411, 16854.68
1559.442, 16946.71
1560.474, 16970.63
1561.505, 16797.00
1562.535, 16900.00
1563.566, 16881.00
1564.597, 16890.00
1565.627, 16930.00
1566.658, 17030.00
1567.688, 16696.00
1568.718, 17033.00
1569.748, 16961.00
1570.777, 16944.00
##END=



