##NAMES=Annite
##RRUFFID=R060211
##IDEAL CHEMISTRY=KFe^2+^_3_AlSi_3_O_10_(OH)_2_
##LOCALITY=Mont Saint-Hilaire, Rouville County, Quebec, Canada
##OWNER=RRUFF
##SOURCE=Royal Ontario Museum
##DESCRIPTION=Black mica
##STATUS=The identification of this mineral has been confirmed by X-ray diffraction and chemical analysis
##URL=rruff.info/R060211
##MEASURED CHEMISTRY=(K_0.94_[box]_0.03_Na_0.02_)_Σ=1_(Fe^2+^_2.07_Mg_0.57_Mn_0.33_Ti_0.03_)_Σ=3_(Si_2.98_Al_1.02_)O_10_((OH)_1.72_F_0.28_)_Σ=2_
##PIN_ID=L01834
##ORIENTATION=Laser parallel to b* (0 1 0). Fiducial mark perpendicular to laser is parallel to c [0 0 1]
230.8490, 10813.00
232.0700, 10761.00
233.2910, 10857.00
234.5120, 10814.00
235.7320, 10842.00
236.9530, 10944.00
238.1730, 10967.00
239.3930, 11022.00
240.6130, 11000.77
241.8320, 10947.00
243.0520, 10902.00
244.2710, 10896.00
245.4900, 10815.00
246.7090, 10830.00
247.9280, 10825.00
249.1470, 10790.00
250.3650, 10876.00
251.5840, 10731.00
252.8020, 10886.00
254.0200, 10879.00
255.2370, 10882.00
256.4550, 10931.00
257.6720, 10979.00
258.8900, 11299.00
260.1070, 11191.16
261.3240, 11509.00
262.5400, 11162.00
263.7570, 11115.00
264.9730, 11153.00
266.1900, 11189.00
267.4060, 11179.00
268.6220, 11170.00
269.8370, 11054.00
271.0530, 11169.00
272.2680, 11187.00
273.4830, 11054.00
274.6980, 10980.00
275.9130, 11198.00
277.1280, 11241.00
278.3420, 11236.00
279.5570, 10996.00
280.7710, 11125.00
281.9850, 11023.00
283.1990, 11130.00
284.4120, 10986.00
285.6260, 10960.00
286.8390, 10981.00
288.0520, 10974.00
289.2650, 10945.00
290.4780, 10834.00
291.6910, 10888.00
292.9030, 10791.00
294.1160, 10970.00
295.3280, 10877.00
296.5400, 10858.00
297.7510, 10995.00
298.9630, 10842.00
300.1740, 11004.00
301.3860, 11015.00
302.5970, 10975.00
303.8080, 11039.00
305.0180, 11083.00
306.2290, 10936.00
307.4390, 11119.00
308.6500, 10942.00
309.8600, 10831.00
311.0700, 10965.00
312.2790, 11002.00
313.4890, 11103.00
314.6980, 10970.00
315.9080, 11149.00
317.1170, 10988.00
318.3250, 11014.00
319.5340, 11007.00
320.7430, 10997.00
321.9510, 11032.00
323.1590, 11039.00
324.3670, 11016.00
325.5750, 11000.00
326.7830, 10986.00
327.9900, 11185.00
329.1980, 11025.00
330.4050, 11081.00
331.6120, 11091.00
332.8190, 10985.00
334.0250, 11116.00
335.2320, 11127.00
336.4380, 10995.00
337.6440, 10943.00
338.8500, 10959.00
340.0560, 10996.00
341.2620, 10995.00
342.4670, 11057.00
343.6730, 11030.00
344.8780, 11040.00
346.0830, 11022.00
347.2870, 11103.00
348.4920, 11212.00
349.6970, 11114.00
350.9010, 11035.00
352.1050, 11120.00
353.3090, 11115.00
354.5130, 11212.00
355.7160, 11180.21
356.9200, 11087.00
358.1230, 11163.00
359.3260, 11112.00
360.5290, 11182.00
361.7320, 11174.00
362.9340, 11269.00
364.1370, 11217.04
365.3390, 11126.00
366.5410, 11106.00
367.7430, 11118.00
368.9450, 11024.00
370.1460, 11044.00
371.3480, 10992.00
372.5490, 11005.67
373.7500, 11012.00
374.9510, 10997.00
376.1520, 11142.00
377.3520, 11025.50
378.5520, 11375.00
379.7530, 11109.00
380.9530, 11055.00
382.1530, 11241.00
383.3520, 10982.00
384.5520, 11031.00
385.7510, 10964.00
386.9500, 11201.00
388.1490, 11136.00
389.3480, 11059.00
390.5470, 11303.00
391.7450, 11170.00
392.9440, 11230.00
394.1420, 11207.00
395.3400, 11143.00
396.5380, 11176.00
397.7350, 11347.00
398.9330, 11159.00
400.1300, 11251.00
401.3270, 11384.00
402.5240, 11286.00
403.7210, 11164.00
404.9180, 11278.00
406.1140, 11259.00
407.3110, 11270.00
408.5070, 11249.00
409.7030, 11276.00
410.8990, 11284.00
412.0940, 11357.00
413.2900, 11229.00
414.4850, 11399.00
415.6800, 11372.00
416.8750, 11370.00
418.0700, 11219.00
419.2650, 11421.00
420.4590, 11189.00
421.6530, 11403.00
422.8470, 11185.00
424.0410, 11244.00
425.2350, 11418.00
426.4290, 11462.00
427.6220, 11393.00
428.8160, 11397.00
430.0090, 11248.00
431.2020, 11477.00
432.3940, 11404.00
433.5870, 11614.00
434.7790, 11617.00
435.9720, 11523.00
437.1640, 11878.00
438.3560, 11913.00
439.5470, 11952.00
440.7390, 12050.00
441.9300, 12028.00
443.1220, 12012.08
444.3130, 11930.65
445.5040, 11917.00
446.6940, 11699.00
447.8850, 11670.00
449.0750, 11609.00
450.2660, 11627.00
451.4560, 11542.00
452.6460, 11530.00
453.8350, 11571.00
455.0250, 11572.00
456.2140, 11448.00
457.4040, 11484.00
458.5930, 11413.00
459.7820, 11412.00
460.9700, 11519.00
462.1590, 11449.00
463.3470, 11435.00
464.5350, 11523.00
465.7240, 11470.00
466.9110, 11454.00
468.0990, 11538.00
469.2870, 11486.00
470.4740, 11625.00
471.6610, 11566.00
472.8480, 11668.00
474.0350, 11632.00
475.2220, 11526.00
476.4090, 11636.00
477.5950, 11617.00
478.7810, 11650.00
479.9670, 11581.00
481.1530, 11561.00
482.3390, 11676.00
483.5240, 11716.00
484.7100, 11603.00
485.8950, 11783.00
487.0800, 11830.00
488.2650, 12034.00
489.4490, 12111.00
490.6340, 11826.00
491.8180, 11790.00
493.0030, 11906.00
494.1870, 11948.00
495.3700, 11745.00
496.5540, 11876.00
497.7380, 11732.00
498.9210, 11859.00
500.1040, 11867.00
501.2870, 11922.00
502.4700, 11812.00
503.6530, 11919.00
504.8350, 11912.00
506.0180, 11870.00
507.2000, 11931.00
508.3820, 11977.00
509.5640, 11911.00
510.7450, 11988.00
511.9270, 12010.00
513.1080, 12086.00
514.2890, 12076.00
515.4700, 12010.00
516.6510, 12103.00
517.8320, 12203.00
519.0130, 12084.00
520.1930, 12267.00
521.3730, 12301.00
522.5530, 12292.00
523.7330, 12320.00
524.9130, 12381.34
526.0920, 12597.00
527.2710, 12561.00
528.4510, 12708.00
529.6300, 12891.00
530.8080, 12858.00
531.9870, 13011.00
533.1660, 12940.00
534.3440, 12938.00
535.5220, 12758.00
536.7000, 12683.00
537.8780, 12602.00
539.0560, 12451.00
540.2330, 12504.00
541.4110, 12525.00
542.5880, 12277.00
543.7650, 12220.00
544.9420, 12369.00
546.1180, 12248.00
547.2950, 12140.00
548.4710, 12099.00
549.6470, 12263.00
550.8230, 12207.00
551.9990, 12397.00
553.1750, 12204.00
554.3500, 12301.00
555.5260, 12319.00
556.7010, 12200.00
557.8760, 12327.00
559.0510, 12149.00
560.2250, 12189.00
561.4000, 12357.00
562.5740, 12264.00
563.7480, 12271.00
564.9220, 12343.00
566.0960, 12207.00
567.2700, 12241.00
568.4430, 12264.00
569.6170, 12313.00
570.7900, 12370.00
571.9630, 12327.00
573.1360, 12325.00
574.3080, 12331.00
575.4810, 12359.00
576.6530, 12412.00
577.8250, 12415.64
578.9980, 12247.00
580.1690, 12400.00
581.3410, 12331.00
582.5130, 12209.00
583.6840, 12249.00
584.8550, 12279.00
586.0260, 12287.00
587.1970, 12366.00
588.3680, 12290.00
589.5380, 12390.00
590.7080, 12300.00
591.8790, 12388.00
593.0490, 12479.00
594.2190, 12624.00
595.3880, 12553.00
596.5580, 12511.00
597.7270, 12510.00
598.8960, 12513.00
600.0650, 12581.00
601.2340, 12609.00
602.4030, 12691.00
603.5710, 12775.00
604.7400, 12792.22
605.9080, 12838.29
607.0760, 12820.00
608.2440, 12878.00
609.4120, 12835.00
610.5790, 12861.00
611.7460, 12923.00
612.9140, 13051.00
614.0810, 12940.00
615.2480, 13082.00
616.4140, 13085.00
617.5810, 13172.00
618.7470, 13131.00
619.9130, 13142.00
621.0790, 13093.00
622.2450, 13306.00
623.4110, 13285.62
624.5770, 13502.00
625.7420, 13395.00
626.9070, 13312.00
628.0720, 13331.00
629.2370, 13271.00
630.4020, 13314.00
631.5660, 13527.00
632.7310, 13607.00
633.8950, 13510.00
635.0590, 13468.00
636.2230, 13676.00
637.3870, 13483.00
638.5500, 13738.00
639.7140, 13789.00
640.8770, 13871.00
642.0400, 13716.00
643.2030, 13920.00
644.3660, 14064.00
645.5280, 14048.00
646.6910, 14275.00
647.8530, 14323.00
649.0150, 14444.00
650.1770, 14527.00
651.3390, 14755.00
652.5000, 14814.00
653.6620, 15103.00
654.8230, 15155.00
655.9840, 15564.00
657.1450, 15572.00
658.3060, 15742.00
659.4660, 16116.00
660.6270, 16396.00
661.7870, 16567.00
662.9470, 16963.00
664.1070, 17347.00
665.2670, 17514.00
666.4260, 17711.00
667.5860, 18109.00
668.7450, 18435.00
669.9040, 18563.00
671.0630, 18642.00
672.2220, 18946.00
673.3800, 18982.00
674.5390, 18943.00
675.6970, 18889.00
676.8550, 18732.00
678.0130, 18738.00
679.1710, 18490.00
680.3290, 18376.00
681.4860, 18175.00
682.6430, 18029.00
683.8000, 17872.68
684.9570, 17717.00
686.1140, 17528.00
687.2710, 17394.00
688.4270, 17168.00
689.5840, 17114.00
690.7400, 17018.00
691.8960, 16880.00
693.0520, 16595.00
694.2070, 16708.00
695.3630, 16435.00
696.5180, 16442.00
697.6730, 16388.00
698.8280, 16264.00
699.9830, 16073.00
701.1380, 16149.00
702.2920, 15920.00
703.4470, 15792.00
704.6010, 15743.00
705.7550, 15443.00
706.9090, 15353.00
708.0620, 15151.00
709.2160, 15243.00
710.3690, 15027.00
711.5220, 15019.00
712.6750, 14958.00
713.8280, 14867.00
714.9810, 14852.00
716.1340, 14552.00
717.2860, 14650.00
718.4380, 14394.00
719.5900, 14480.00
720.7420, 14398.00
721.8940, 14476.00
723.0450, 14371.00
724.1970, 14304.00
725.3480, 14363.00
726.4990, 14262.32
727.6500, 14252.00
728.8010, 14178.00
729.9510, 14147.00
731.1020, 14121.00
732.2520, 14070.00
733.4020, 14088.00
734.5520, 14062.00
735.7020, 14029.00
736.8510, 13931.00
738.0010, 14125.00
739.1500, 14033.00
740.2990, 13938.00
741.4480, 14048.00
742.5970, 13877.00
743.7450, 13934.00
744.8940, 13905.00
746.0420, 13938.00
747.1900, 14107.00
748.3380, 13856.00
749.4860, 14011.00
750.6330, 14087.00
751.7810, 13925.00
752.9280, 14132.00
754.0750, 14066.00
755.2220, 14042.00
756.3690, 14001.00
757.5160, 14156.00
758.6620, 14044.00
759.8090, 14145.00
760.9550, 14035.00
762.1010, 14170.00
763.2470, 14148.71
764.3920, 14135.75
765.5380, 14199.00
766.6830, 14093.00
767.8280, 14172.00
768.9730, 14100.00
770.1180, 14025.00
771.2630, 14122.00
772.4070, 14167.00
773.5520, 14034.00
774.6960, 14196.00
775.8400, 14115.00
776.9840, 13961.00
778.1280, 14098.00
779.2710, 13934.00
780.4140, 14132.00
781.5580, 14028.00
782.7010, 13964.00
783.8440, 14105.00
784.9860, 14088.00
786.1290, 13943.00
787.2710, 14089.00
788.4140, 14037.00
789.5560, 14172.00
790.6980, 14151.53
791.8390, 14024.00
792.9810, 14137.00
794.1220, 14059.00
795.2640, 14072.00
796.4050, 13847.00
797.5460, 14088.00
798.6860, 13962.00
799.8270, 13930.00
800.9680, 14048.00
802.1080, 14036.00
803.2480, 14042.00
804.3880, 14086.00
805.5280, 14000.00
806.6670, 13950.00
807.8070, 14080.00
808.9460, 14036.00
810.0850, 14066.00
811.2240, 14219.00
812.3630, 14141.00
813.5020, 13909.00
814.6400, 14079.00
815.7790, 14060.00
816.9170, 14192.00
818.0550, 14070.00
819.1930, 14065.00
820.3300, 14038.00
821.4680, 14079.00
822.6050, 14147.00
823.7430, 14104.00
824.8800, 14150.00
826.0170, 14106.00
827.1530, 14097.56
828.2900, 14330.00
829.4260, 14067.00
830.5620, 14208.00
831.6990, 14222.00
832.8340, 14120.00
833.9700, 14173.00
835.1060, 14307.00
836.2410, 14349.00
837.3760, 14389.00
838.5120, 14259.00
839.6470, 14185.00
840.7810, 14355.00
841.9160, 14187.00
843.0500, 14366.00
844.1850, 14417.00
845.3190, 14383.00
846.4530, 14291.00
847.5870, 14244.00
848.7200, 14357.00
849.8540, 14423.00
850.9870, 14447.95
852.1200, 14577.00
853.2530, 14479.00
854.3860, 14553.00
855.5190, 14424.00
856.6510, 14477.00
857.7840, 14445.04
858.9160, 14546.00
860.0480, 14422.00
861.1800, 14488.00
862.3110, 14520.00
863.4430, 14680.00
864.5740, 14798.00
865.7060, 14643.00
866.8370, 14749.00
867.9680, 14944.00
869.0980, 14732.00
870.2290, 14623.00
871.3590, 14830.00
872.4900, 14754.00
873.6200, 14773.00
874.7500, 14935.00
875.8790, 14662.00
877.0090, 14728.00
878.1380, 14665.00
879.2680, 14716.00
880.3970, 14761.00
881.5260, 14685.00
882.6550, 14836.00
883.7830, 14849.00
884.9120, 14765.00
886.0400, 14832.00
887.1680, 14989.00
888.2960, 14863.00
889.4240, 14690.00
890.5520, 14922.00
891.6790, 14874.00
892.8070, 14900.00
893.9340, 14950.00
895.0610, 14924.73
896.1880, 14963.00
897.3140, 15013.00
898.4410, 15033.00
899.5670, 15260.00
900.6940, 15067.00
901.8200, 14981.00
902.9450, 15150.00
904.0710, 15203.00
905.1970, 15020.00
906.3220, 15195.00
907.4470, 15271.00
908.5730, 15068.00
909.6980, 15177.00
910.8220, 15140.00
911.9470, 15073.00
913.0710, 15257.00
914.1960, 15219.00
915.3200, 15159.00
916.4440, 15203.00
917.5680, 15313.00
918.6910, 15346.00
919.8150, 15361.00
920.9380, 15349.00
922.0610, 15448.00
923.1840, 15364.00
924.3070, 15350.00
925.4300, 15442.00
926.5520, 15506.00
927.6750, 15615.00
928.7970, 15559.00
929.9190, 15650.00
931.0410, 15596.00
932.1630, 15597.00
933.2840, 15735.00
934.4060, 15693.00
935.5270, 15778.00
936.6480, 15671.00
937.7690, 15772.00
938.8900, 15881.00
940.0100, 15683.00
941.1310, 15805.00
942.2510, 15872.00
943.3710, 15870.00
944.4910, 15949.79
945.6110, 15872.00
946.7310, 16013.00
947.8500, 15907.00
948.9690, 15901.00
950.0890, 15920.00
951.2080, 16031.00
952.3260, 16081.00
953.4450, 16165.00
954.5640, 16189.00
955.6820, 16238.71
956.8000, 16263.22
957.9180, 16276.00
959.0360, 16267.00
960.1540, 16214.00
961.2710, 16158.00
962.3890, 16203.00
963.5060, 16191.72
964.6230, 16492.00
965.7400, 16332.00
966.8570, 16342.00
967.9730, 16579.00
969.0900, 16438.00
970.2060, 16539.00
971.3220, 16427.00
972.4380, 16527.00
973.5540, 16539.00
974.6700, 16648.00
975.7850, 16699.00
976.9010, 16746.85
978.0160, 16778.00
979.1310, 16809.00
980.2460, 16827.00
981.3600, 16770.00
982.4750, 16992.00
983.5890, 17065.00
984.7030, 17083.00
985.8170, 17062.00
986.9310, 17063.00
988.0450, 17369.00
989.1590, 17298.00
990.2720, 17432.00
991.3850, 17735.00
992.4980, 17407.00
993.6110, 17665.00
994.7240, 17627.00
995.8370, 17656.00
996.9490, 17934.00
998.0620, 18071.00
999.1740, 18216.00
1000.286, 18259.00
1001.398, 18334.00
1002.509, 18524.00
1003.621, 18616.34
1004.732, 18876.00
1005.843, 18964.00
1006.954, 19130.00
1008.065, 19417.00
1009.176, 19605.00
1010.286, 19826.00
1011.397, 19888.00
1012.507, 20072.00
1013.617, 19933.00
1014.727, 20257.00
1015.837, 20226.00
1016.946, 20406.00
1018.056, 20373.00
1019.165, 20391.00
1020.274, 20365.00
1021.383, 20428.00
1022.492, 20203.00
1023.601, 20393.00
1024.709, 20345.00
1025.817, 20234.00
1026.926, 19911.00
1028.034, 19888.00
1029.141, 19575.00
1030.249, 19846.00
1031.357, 19583.00
1032.464, 19513.00
1033.571, 19279.00
1034.678, 19318.00
1035.785, 19104.00
1036.892, 18982.00
1037.999, 19059.00
1039.105, 18794.00
1040.211, 18721.00
1041.317, 18567.00
1042.423, 18475.00
1043.529, 18438.44
1044.635, 18493.00
1045.740, 18418.00
1046.845, 18342.00
1047.951, 18394.00
1049.056, 18332.00
1050.160, 18397.00
1051.265, 18245.00
1052.370, 18281.00
1053.474, 18163.00
1054.578, 18161.00
1055.682, 17946.00
1056.786, 18000.00
1057.890, 17848.00
1058.993, 17983.00
1060.097, 18065.00
1061.200, 17960.00
1062.303, 18205.00
1063.406, 17923.00
1064.509, 17897.00
1065.612, 17882.00
1066.714, 17986.00
1067.816, 17860.00
1068.919, 17976.00
1070.021, 18002.00
1071.122, 17771.00
1072.224, 17813.00
1073.326, 17563.00
1074.427, 17643.00
1075.528, 17663.00
1076.629, 17622.00
1077.730, 17553.00
1078.831, 17672.00
1079.931, 17461.00
1081.032, 17424.00
1082.132, 17651.00
1083.232, 17412.00
1084.332, 17467.00
1085.432, 17356.00
1086.531, 17387.00
1087.631, 17343.00
1088.730, 17424.00
1089.829, 17401.00
1090.928, 17385.00
1092.027, 17194.00
1093.126, 17180.00
1094.224, 17205.00
1095.323, 17237.00
1096.421, 17136.00
1097.519, 17090.00
1098.617, 17177.00
1099.715, 16894.00
1100.812, 17004.00
1101.910, 17069.00
1103.007, 16872.00
1104.104, 17001.00
1105.201, 17159.00
1106.298, 16894.00
1107.394, 16947.00
1108.491, 17035.00
1109.587, 17040.00
1110.683, 16922.00
1111.779, 16958.00
1112.875, 17039.00
1113.971, 16975.00
1115.066, 17085.00
1116.162, 17012.00
1117.257, 16979.00
1118.352, 17284.00
1119.447, 17223.00
1120.542, 17146.00
1121.636, 17363.00
1122.731, 17211.43
1123.825, 17370.00
1124.919, 17170.00
1126.013, 17184.00
1127.107, 17327.00
1128.200, 17245.00
1129.294, 17210.00
1130.387, 17312.00
1131.480, 17242.00
1132.573, 17153.00
1133.666, 17168.00
1134.759, 17318.00
1135.851, 17124.00
1136.944, 17270.00
1138.036, 17362.00
1139.128, 17289.00
1140.220, 17414.00
1141.312, 17452.00
1142.403, 17403.00
1143.495, 17431.00
1144.586, 17491.00
1145.677, 17376.00
1146.768, 17258.00
1147.859, 17252.00
1148.950, 17395.00
1150.040, 17200.00
1151.130, 17277.00
1152.221, 17317.00
1153.311, 17189.00
1154.401, 17076.00
1155.490, 17304.00
1156.580, 17448.00
1157.669, 17418.00
1158.759, 17295.00
1159.848, 17292.00
1160.937, 17463.00
1162.025, 17211.00
1163.114, 17372.00
1164.202, 17382.00
1165.291, 17370.00
1166.379, 17482.00
1167.467, 17436.00
1168.555, 17439.00
1169.642, 17478.00
1170.730, 17489.00
1171.817, 17534.00
1172.905, 17560.00
1173.992, 17592.84
1175.078, 17525.00
1176.165, 17622.00
1177.252, 17509.00
1178.338, 17421.00
1179.425, 17599.00
1180.511, 17571.00
1181.597, 17489.00
1182.682, 17683.00
1183.768, 17740.00
1184.854, 17624.00
1185.939, 17874.00
1187.024, 17636.00
1188.109, 17586.00
1189.194, 17648.00
1190.279, 17673.00
1191.363, 17519.00
1192.448, 17843.00
1193.532, 17829.00
1194.616, 17579.00
1195.700, 17696.00
1196.784, 17745.00
1197.867, 17656.00
1198.951, 17891.00
1200.034, 17933.00
1201.117, 17838.00
1202.200, 17698.00
1203.283, 17998.00
1204.366, 17874.00
1205.448, 17812.00
1206.531, 17884.00
1207.613, 17852.00
1208.695, 17841.00
1209.777, 17856.00
1210.859, 17830.00
1211.940, 18098.00
1213.022, 17920.00
1214.103, 18112.00
1215.184, 17906.00
1216.265, 18130.00
1217.346, 18016.00
1218.427, 18151.00
1219.507, 17910.00
1220.587, 18072.00
1221.668, 17995.00
1222.748, 18020.00
1223.828, 18038.00
1224.907, 18167.00
1225.987, 18220.00
1227.066, 18118.00
1228.146, 18092.00
1229.225, 18323.00
1230.304, 18248.00
1231.382, 18139.00
1232.461, 18323.00
1233.540, 18205.00
1234.618, 18232.00
1235.696, 18183.00
1236.774, 18223.00
1237.852, 18278.00
1238.930, 18198.00
1240.007, 18328.00
1241.085, 18360.00
1242.162, 18329.00
1243.239, 18418.01
1244.316, 18297.00
1245.393, 18465.00
1246.469, 18402.00
1247.546, 18345.00
1248.622, 18536.00
1249.698, 18500.77
1250.774, 18544.60
1251.850, 18632.00
1252.926, 18538.00
1254.001, 18609.00
1255.077, 18492.00
1256.152, 18353.00
1257.227, 18483.00
1258.302, 18436.00
1259.377, 18633.00
1260.451, 18546.00
1261.526, 18665.00
1262.600, 18590.00
1263.674, 18820.00
1264.748, 18828.00
1265.822, 18531.00
1266.896, 18647.00
1267.969, 18568.44
1269.043, 18686.00
1270.116, 18594.00
1271.189, 18578.00
1272.262, 18643.00
1273.335, 18613.87
1274.407, 18661.89
1275.480, 18660.00
1276.552, 18738.00
1277.624, 18759.35
1278.696, 18796.00
1279.768, 18961.00
1280.840, 18757.00
1281.911, 18873.00
1282.982, 18839.00
1284.054, 18992.00
1285.125, 18857.00
1286.196, 18754.00
1287.266, 18855.11
1288.337, 18894.00
1289.407, 18932.00
1290.478, 19068.00
1291.548, 19078.00
1292.618, 19093.00
1293.688, 18982.00
1294.757, 18968.00
1295.827, 19088.00
1296.896, 18947.00
1297.965, 19047.00
1299.034, 19217.00
1300.103, 19000.00
1301.172, 18957.00
1302.241, 19100.00
1303.309, 19284.00
1304.377, 19169.00
1305.445, 19178.00
1306.513, 19145.00
1307.581, 19236.00
1308.649, 19155.00
1309.716, 19368.00
1310.784, 19330.00
1311.851, 19421.29
1312.918, 19443.56
1313.985, 19476.00
1315.052, 19467.00
1316.118, 19257.00
1317.185, 19327.00
1318.251, 19345.00
1319.317, 19400.00
1320.383, 19424.00
1321.449, 19225.00
1322.514, 19202.00
1323.580, 19383.00
1324.645, 19525.00
1325.711, 19338.00
1326.776, 19475.00
1327.840, 19474.00
1328.905, 19367.00
1329.970, 19531.00
1331.034, 19434.00
1332.099, 19430.00
1333.163, 19635.00
1334.227, 19358.00
1335.290, 19685.00
1336.354, 19664.00
1337.418, 19538.00
1338.481, 19652.00
1339.544, 19584.00
1340.607, 19579.00
1341.670, 19667.00
1342.733, 19783.00
1343.795, 19819.00
1344.858, 19868.00
1345.920, 19911.00
1346.982, 19776.00
1348.044, 19862.00
1349.106, 19975.00
1350.168, 19858.00
1351.229, 19707.00
1352.291, 19879.00
1353.352, 20042.00
1354.413, 19764.00
1355.474, 19874.00
1356.534, 20036.00
1357.595, 19872.00
1358.656, 20029.00
1359.716, 19875.00
1360.776, 19935.00
1361.836, 20066.00
1362.896, 19799.00
1363.955, 19842.00
1365.015, 19934.00
1366.074, 20114.00
1367.134, 19941.00
1368.193, 19998.00
1369.252, 20056.00
1370.310, 19980.00
1371.369, 19986.00
1372.427, 19946.00
1373.486, 20093.00
1374.544, 20143.00
1375.602, 20252.00
1376.660, 20265.37
1377.717, 20034.00
1378.775, 20216.00
1379.832, 20213.00
1380.889, 20090.00
1381.946, 20208.00
1383.003, 20146.00
1384.060, 20135.00
1385.117, 20333.00
1386.173, 20177.00
1387.230, 20238.00
1388.286, 20192.00
1389.342, 20229.00
1390.398, 20242.30
1391.453, 20301.00
1392.509, 20240.00
1393.564, 20244.00
1394.619, 20169.00
1395.675, 20344.00
1396.729, 20140.00
1397.784, 20224.00
1398.839, 20436.00
1399.893, 20257.00
1400.948, 20201.00
1402.002, 20178.00
1403.056, 20187.00
1404.110, 20159.00
1405.163, 20327.00
1406.217, 20136.00
1407.270, 20308.00
1408.324, 20483.00
1409.377, 20283.00
1410.430, 20334.00
1411.483, 20408.00
1412.535, 20264.00
1413.588, 20427.00
1414.640, 20575.00
1415.692, 20307.00
1416.744, 20445.00
1417.796, 20509.00
1418.848, 20506.00
1419.900, 20441.00
1420.951, 20407.00
1422.002, 20625.00
1423.053, 20517.00
1424.104, 20559.00
1425.155, 20780.00
1426.206, 20554.00
1427.256, 20450.00
1428.307, 20602.00
1429.357, 20462.00
1430.407, 20682.00
1431.457, 20627.00
1432.507, 20534.00
1433.556, 20598.00
1434.606, 20668.00
1435.655, 20654.00
1436.704, 20795.00
1437.753, 20658.00
1438.802, 20649.00
1439.851, 20681.00
1440.899, 20688.00
1441.948, 20583.00
1442.996, 20634.00
1444.044, 20622.85
1445.092, 20637.00
1446.140, 20701.00
1447.187, 20759.00
1448.235, 20878.00
1449.282, 20879.00
1450.329, 20824.00
1451.376, 20835.00
1452.423, 20763.00
1453.470, 20864.00
1454.517, 21005.00
1455.563, 21028.00
1456.609, 20958.00
1457.655, 21018.95
1458.701, 20994.00
1459.747, 20926.00
1460.793, 20957.00
1461.838, 20749.00
1462.884, 20917.00
1463.929, 20900.00
1464.974, 20819.00
1466.019, 20996.00
1467.064, 20908.00
1468.108, 20952.79
1469.153, 20986.89
1470.197, 21051.00
1471.241, 20997.00
1472.285, 21182.00
1473.329, 21179.00
1474.373, 21080.00
1475.416, 21024.00
1476.460, 20903.00
1477.503, 20967.88
1478.546, 20946.97
1479.589, 21067.00
1480.632, 21031.00
1481.674, 20982.00
1482.717, 21030.00
1483.759, 21174.00
1484.801, 21069.00
1485.843, 21188.00
1486.885, 21293.00
1487.927, 21108.00
1488.968, 21228.00
1490.010, 21228.35
1491.051, 21281.00
1492.092, 21253.00
1493.133, 21284.00
1494.174, 21177.00
1495.215, 21378.00
1496.255, 21314.00
1497.296, 21048.00
1498.336, 21297.00
1499.376, 21472.00
1500.416, 21245.00
1501.456, 21368.00
1502.495, 21536.00
1503.535, 21391.00
1504.574, 21500.00
1505.613, 21385.00
1506.652, 21481.00
1507.691, 21530.00
1508.730, 21572.00
1509.768, 21478.00
1510.807, 21517.00
1511.845, 21348.00
1512.883, 21457.00
1513.921, 21340.00
1514.959, 21428.60
1515.996, 21690.00
1517.034, 21569.00
1518.071, 21703.00
1519.109, 21670.00
1520.146, 21628.00
1521.183, 21724.00
1522.219, 21669.00
1523.256, 21656.97
1524.292, 21817.00
1525.329, 21670.00
1526.365, 21697.00
1527.401, 21889.00
1528.437, 21846.00
1529.472, 21796.00
1530.508, 21713.00
1531.543, 21884.00
1532.579, 21699.00
1533.614, 21871.00
1534.649, 21921.00
1535.683, 21822.00
1536.718, 21917.00
1537.753, 22139.00
1538.787, 21975.00
1539.821, 21774.00
1540.855, 21974.00
1541.889, 22084.00
1542.923, 22009.00
1543.956, 22059.00
1544.990, 22025.00
1546.023, 21900.00
1547.056, 21921.00
1548.089, 21942.34
1549.122, 22092.00
1550.155, 22082.00
1551.187, 22173.00
1552.220, 22272.00
1553.252, 22240.00
1554.284, 22256.41
1555.316, 22260.85
1556.348, 22171.00
1557.379, 22237.00
1558.411, 22191.00
1559.442, 22197.00
1560.474, 22262.00
1561.505, 22345.00
1562.535, 22295.00
1563.566, 22310.00
1564.597, 22063.00
1565.627, 22224.00
1566.658, 22548.00
1567.688, 22135.00
1568.718, 22369.00
1569.748, 22434.00
1570.777, 22606.00
##END=



