##NAMES=Annite
##RRUFFID=R060211
##IDEAL CHEMISTRY=KFe^2+^_3_AlSi_3_O_10_(OH)_2_
##LOCALITY=Mont Saint-Hilaire, Rouville County, Quebec, Canada
##OWNER=RRUFF
##SOURCE=Royal Ontario Museum
##DESCRIPTION=Black mica
##STATUS=The identification of this mineral has been confirmed by X-ray diffraction and chemical analysis
##URL=rruff.info/R060211
##MEASURED CHEMISTRY=(K_0.94_[box]_0.03_Na_0.02_)_Σ=1_(Fe^2+^_2.07_Mg_0.57_Mn_0.33_Ti_0.03_)_Σ=3_(Si_2.98_Al_1.02_)O_10_((OH)_1.72_F_0.28_)_Σ=2_
##PIN_ID=L00722
##ORIENTATION=Laser parallel to a* (1 0 0). Fiducial mark perpendicular to laser is parallel to b [0 1 0]
230.7650, 9850.000
231.9820, 9840.588
233.1990, 9936.000
234.4160, 9921.000
235.6330, 9953.000
236.8490, 10037.00
238.0660, 10010.00
239.2820, 10065.00
240.4980, 10001.00
241.7140, 9994.209
242.9300, 10010.00
244.1460, 9972.000
245.3610, 10066.00
246.5770, 10152.00
247.7920, 10043.00
249.0070, 10146.00
250.2220, 10205.00
251.4370, 10113.00
252.6510, 10109.00
253.8660, 10205.00
255.0800, 10089.00
256.2940, 10104.00
257.5080, 9992.000
258.7220, 10155.00
259.9360, 10598.00
261.1490, 11070.00
262.3630, 10541.00
263.5760, 10444.00
264.7890, 10436.00
266.0020, 10391.00
267.2150, 10386.00
268.4270, 10557.00
269.6400, 10435.00
270.8520, 10487.00
272.0640, 10358.00
273.2760, 10392.04
274.4880, 10435.95
275.7000, 10399.00
276.9120, 10519.00
278.1230, 10448.00
279.3340, 10374.00
280.5450, 10389.00
281.7560, 10258.00
282.9670, 10152.00
284.1780, 10053.00
285.3880, 10210.00
286.5980, 10296.00
287.8090, 10214.16
289.0190, 10093.00
290.2290, 10153.00
291.4380, 10071.00
292.6480, 10134.00
293.8570, 10010.00
295.0670, 10016.00
296.2760, 10114.00
297.4850, 9903.000
298.6930, 10071.00
299.9020, 10186.00
301.1110, 10124.00
302.3190, 10301.00
303.5270, 10132.00
304.7350, 10105.00
305.9430, 10209.00
307.1510, 10169.00
308.3580, 10092.00
309.5660, 10033.00
310.7730, 10077.00
311.9800, 10170.00
313.1870, 10096.00
314.3940, 10173.00
315.6010, 10206.00
316.8070, 10224.00
318.0130, 10270.00
319.2200, 10221.00
320.4260, 10271.00
321.6310, 10248.85
322.8370, 10296.00
324.0430, 10224.00
325.2480, 10206.00
326.4540, 10199.00
327.6590, 10281.00
328.8640, 10414.00
330.0680, 10450.00
331.2730, 10431.00
332.4780, 10408.00
333.6820, 10444.00
334.8860, 10353.00
336.0900, 10402.00
337.2940, 10291.00
338.4980, 10420.00
339.7010, 10542.00
340.9050, 10457.00
342.1080, 10585.00
343.3110, 10604.00
344.5140, 10559.00
345.7170, 10762.00
346.9200, 10651.00
348.1220, 10659.00
349.3240, 10666.00
350.5270, 10706.00
351.7290, 10642.00
352.9310, 10778.00
354.1320, 10761.00
355.3340, 10965.00
356.5350, 10923.00
357.7370, 10940.00
358.9380, 11072.00
360.1390, 11042.00
361.3400, 10921.00
362.5400, 11102.00
363.7410, 11040.00
364.9410, 11255.00
366.1410, 11373.00
367.3410, 11410.00
368.5410, 11636.00
369.7410, 11833.00
370.9400, 12775.00
372.1400, 12409.04
373.3390, 12972.00
374.5380, 12171.00
375.7370, 12244.00
376.9360, 12369.00
378.1350, 12722.00
379.3330, 12732.00
380.5310, 12970.00
381.7300, 13291.00
382.9280, 13504.00
384.1260, 13457.00
385.3230, 13577.00
386.5210, 13720.00
387.7180, 13778.00
388.9160, 13831.00
390.1130, 13979.00
391.3100, 13955.00
392.5060, 13953.00
393.7030, 13974.00
394.9000, 13784.00
396.0960, 13695.00
397.2920, 13512.00
398.4880, 13458.00
399.6840, 13279.00
400.8800, 13040.00
402.0750, 12942.00
403.2710, 12536.00
404.4660, 12562.00
405.6610, 12367.00
406.8560, 12207.00
408.0510, 12168.00
409.2450, 12069.00
410.4400, 12032.00
411.6340, 11911.00
412.8280, 11703.00
414.0220, 11601.00
415.2160, 11483.00
416.4100, 11379.00
417.6030, 11457.00
418.7970, 11331.00
419.9900, 11364.00
421.1830, 11329.00
422.3760, 11299.00
423.5690, 11321.00
424.7610, 11181.00
425.9540, 11081.00
427.1460, 11051.80
428.3380, 11084.00
429.5300, 11002.00
430.7220, 10991.00
431.9140, 11096.00
433.1050, 10886.00
434.2970, 10989.00
435.4880, 11122.00
436.6790, 11117.00
437.8700, 11147.00
439.0610, 11027.00
440.2510, 10992.00
441.4420, 10966.00
442.6320, 10986.00
443.8220, 11182.00
445.0120, 11168.00
446.2020, 11258.00
447.3910, 11309.00
448.5810, 11324.00
449.7700, 11321.00
450.9600, 11360.00
452.1490, 11329.00
453.3370, 11258.00
454.5260, 11360.00
455.7150, 11306.24
456.9030, 11345.00
458.0910, 11319.00
459.2800, 11312.00
460.4670, 11349.00
461.6550, 11192.00
462.8430, 11403.00
464.0300, 11137.00
465.2180, 11284.00
466.4050, 11123.00
467.5920, 11124.00
468.7790, 11153.00
469.9650, 11138.86
471.1520, 11241.00
472.3380, 11242.00
473.5250, 11379.00
474.7110, 11452.00
475.8970, 11337.00
477.0820, 11487.00
478.2680, 11529.00
479.4540, 11660.00
480.6390, 11599.00
481.8240, 11691.00
483.0090, 11676.00
484.1940, 11831.00
485.3780, 11950.00
486.5630, 11920.00
487.7470, 12114.00
488.9320, 12300.00
490.1160, 12273.00
491.3000, 12389.00
492.4830, 12394.00
493.6670, 12594.00
494.8500, 12643.00
496.0340, 12741.00
497.2170, 12898.34
498.4000, 12914.00
499.5820, 13215.00
500.7650, 13345.00
501.9480, 13586.00
503.1300, 13680.00
504.3120, 13867.00
505.4940, 13819.00
506.6760, 13866.00
507.8580, 13901.00
509.0390, 13834.02
510.2210, 13834.51
511.4020, 13732.00
512.5830, 13731.00
513.7640, 13698.00
514.9450, 13621.00
516.1250, 13586.67
517.3060, 13511.00
518.4860, 13451.00
519.6660, 13400.28
520.8460, 13306.00
522.0260, 13295.00
523.2060, 13230.00
524.3850, 13112.00
525.5650, 13008.00
526.7440, 13078.00
527.9230, 13048.00
529.1020, 12972.00
530.2810, 12963.00
531.4590, 12873.00
532.6380, 12763.00
533.8160, 12655.00
534.9940, 12715.00
536.1720, 12732.00
537.3500, 12589.00
538.5270, 12479.00
539.7050, 12484.00
540.8820, 12416.00
542.0590, 12421.00
543.2360, 12392.00
544.4130, 12413.00
545.5900, 12366.00
546.7660, 12251.00
547.9430, 12273.00
549.1190, 12173.00
550.2950, 12229.00
551.4710, 12206.00
552.6470, 12166.00
553.8220, 12125.00
554.9980, 12010.00
556.1730, 12126.00
557.3480, 12012.95
558.5230, 12039.67
559.6980, 11942.00
560.8730, 11970.00
562.0470, 12012.00
563.2220, 11798.00
564.3960, 11866.60
565.5700, 11928.26
566.7440, 11811.00
567.9170, 12058.00
569.0910, 12011.00
570.2640, 11844.00
571.4380, 11973.00
572.6110, 11997.00
573.7840, 11979.00
574.9570, 11859.00
576.1290, 11759.00
577.3020, 11871.00
578.4740, 11766.00
579.6460, 11866.00
580.8180, 11961.00
581.9900, 12006.00
583.1620, 11878.00
584.3330, 11905.00
585.5040, 11938.00
586.6760, 12042.00
587.8470, 11929.00
589.0180, 12115.00
590.1880, 12125.00
591.3590, 11964.00
592.5290, 12223.00
593.7000, 12096.00
594.8700, 12282.00
596.0400, 12373.00
597.2090, 12469.00
598.3790, 12555.00
599.5490, 12557.00
600.7180, 12656.15
601.8870, 12723.81
603.0560, 12803.00
604.2250, 12911.00
605.3940, 13018.00
606.5620, 13155.00
607.7300, 13330.00
608.8990, 13666.00
610.0670, 13707.00
611.2350, 14031.00
612.4020, 14060.00
613.5700, 14219.00
614.7370, 14546.00
615.9050, 14826.00
617.0720, 14923.00
618.2390, 15300.00
619.4060, 15441.00
620.5720, 15539.00
621.7390, 16344.00
622.9050, 16454.00
624.0710, 16765.00
625.2370, 16795.00
626.4030, 17098.00
627.5690, 17095.00
628.7340, 17446.00
629.9000, 17456.00
631.0650, 17536.00
632.2300, 17464.00
633.3950, 17602.00
634.5600, 17646.00
635.7240, 17583.00
636.8890, 17197.00
638.0530, 17128.00
639.2170, 16771.00
640.3810, 16581.00
641.5450, 16182.00
642.7080, 16122.00
643.8720, 15798.00
645.0350, 15819.00
646.1980, 15637.00
647.3610, 15447.00
648.5240, 15361.00
649.6870, 15137.00
650.8490, 15029.00
652.0120, 15024.00
653.1740, 14992.00
654.3360, 14936.00
655.4980, 14617.00
656.6600, 14614.00
657.8210, 14714.00
658.9830, 14960.00
660.1440, 14843.00
661.3050, 15110.00
662.4660, 14836.00
663.6270, 14970.00
664.7870, 14937.00
665.9480, 14968.00
667.1080, 14924.00
668.2680, 14750.00
669.4280, 14654.00
670.5880, 14716.00
671.7480, 14772.00
672.9070, 14492.00
674.0670, 14627.00
675.2260, 14432.00
676.3850, 14406.00
677.5440, 14312.00
678.7030, 14200.00
679.8610, 14110.00
681.0200, 14077.00
682.1780, 13821.00
683.3360, 13877.00
684.4940, 13753.00
685.6520, 13717.00
686.8090, 13791.00
687.9670, 13787.00
689.1240, 13588.00
690.2810, 13584.00
691.4380, 13483.00
692.5950, 13423.00
693.7520, 13352.00
694.9080, 13368.00
696.0650, 13243.00
697.2210, 13253.00
698.3770, 13253.00
699.5330, 13209.00
700.6880, 13311.00
701.8440, 13229.00
702.9990, 13240.00
704.1550, 13172.00
705.3100, 13204.00
706.4650, 13209.00
707.6190, 13047.00
708.7740, 13207.00
709.9290, 13117.00
711.0830, 13051.00
712.2370, 13087.00
713.3910, 12921.00
714.5450, 12922.00
715.6980, 12928.00
716.8520, 12855.00
718.0050, 12896.00
719.1580, 12839.00
720.3110, 12878.00
721.4640, 12651.00
722.6170, 12630.00
723.7700, 12591.00
724.9220, 12560.00
726.0740, 12510.00
727.2260, 12664.00
728.3780, 12564.00
729.5300, 12658.00
730.6810, 12781.00
731.8330, 12486.00
732.9840, 12424.00
734.1350, 12539.00
735.2860, 12358.00
736.4370, 12414.00
737.5880, 12525.00
738.7380, 12478.00
739.8880, 12450.00
741.0390, 12459.00
742.1890, 12466.41
743.3380, 12616.00
744.4880, 12516.00
745.6380, 12616.00
746.7870, 12616.00
747.9360, 12438.00
749.0850, 12483.00
750.2340, 12537.00
751.3830, 12615.00
752.5310, 12661.00
753.6800, 12694.00
754.8280, 12727.73
755.9760, 12745.00
757.1240, 12744.00
758.2720, 12803.00
759.4190, 12778.00
760.5670, 12869.00
761.7140, 12821.94
762.8610, 12710.00
764.0080, 12765.00
765.1550, 12776.00
766.3020, 12779.00
767.4480, 12825.00
768.5950, 12804.22
769.7410, 12825.66
770.8870, 12786.00
772.0330, 12858.00
773.1780, 12862.00
774.3240, 12913.00
775.4690, 12978.00
776.6140, 12753.00
777.7590, 12731.00
778.9040, 12805.00
780.0490, 12721.00
781.1940, 12847.00
782.3380, 12840.00
783.4820, 12845.00
784.6260, 12794.00
785.7700, 12678.00
786.9140, 12731.00
788.0580, 12634.00
789.2010, 12627.00
790.3450, 12514.00
791.4880, 12630.00
792.6310, 12410.00
793.7730, 12567.00
794.9160, 12535.00
796.0590, 12644.00
797.2010, 12609.00
798.3430, 12511.00
799.4850, 12517.00
800.6270, 12504.00
801.7690, 12479.86
802.9100, 12474.55
804.0520, 12481.00
805.1930, 12441.00
806.3340, 12442.00
807.4750, 12418.00
808.6160, 12393.00
809.7560, 12430.00
810.8970, 12597.00
812.0370, 12556.00
813.1770, 12525.00
814.3170, 12327.00
815.4570, 12379.00
816.5960, 12393.00
817.7360, 12531.00
818.8750, 12418.00
820.0140, 12326.00
821.1530, 12509.00
822.2920, 12374.00
823.4310, 12487.00
824.5690, 12544.00
825.7070, 12399.00
826.8460, 12478.00
827.9840, 12453.00
829.1220, 12537.00
830.2590, 12452.00
831.3970, 12363.00
832.5340, 12457.00
833.6710, 12338.00
834.8080, 12523.00
835.9450, 12594.00
837.0820, 12508.00
838.2190, 12620.00
839.3550, 12615.00
840.4910, 12551.00
841.6270, 12542.00
842.7630, 12408.00
843.8990, 12500.00
845.0350, 12602.00
846.1700, 12497.00
847.3060, 12484.00
848.4410, 12611.00
849.5760, 12851.00
850.7100, 12633.00
851.8450, 12756.00
852.9800, 12673.00
854.1140, 12599.00
855.2480, 12611.00
856.3820, 12625.00
857.5160, 12690.00
858.6500, 12536.00
859.7830, 12762.00
860.9170, 12810.00
862.0500, 12703.00
863.1830, 12647.00
864.3160, 12869.00
865.4480, 12910.00
866.5810, 12776.00
867.7130, 12712.00
868.8460, 12735.00
869.9780, 12827.00
871.1100, 13055.00
872.2410, 12824.00
873.3730, 12938.00
874.5050, 12783.00
875.6360, 12872.00
876.7670, 12759.00
877.8980, 13005.00
879.0290, 12891.00
880.1590, 13079.00
881.2900, 12994.00
882.4200, 13026.00
883.5500, 12865.00
884.6800, 12978.00
885.8100, 12972.00
886.9400, 13099.00
888.0690, 12980.00
889.1990, 13056.00
890.3280, 12930.00
891.4570, 13168.00
892.5860, 13103.00
893.7140, 13082.00
894.8430, 13118.00
895.9710, 13136.00
897.1000, 13031.00
898.2280, 13089.00
899.3560, 13132.00
900.4830, 13125.00
901.6110, 13229.00
902.7380, 13239.00
903.8660, 13219.00
904.9930, 13129.00
906.1200, 13166.19
907.2460, 13184.00
908.3730, 13208.00
909.5000, 13218.00
910.6260, 13292.00
911.7520, 13344.00
912.8780, 13268.00
914.0040, 13414.00
915.1290, 13520.00
916.2550, 13363.00
917.3800, 13452.00
918.5050, 13553.00
919.6300, 13381.00
920.7550, 13442.00
921.8800, 13424.00
923.0040, 13486.00
924.1290, 13637.00
925.2530, 13588.00
926.3770, 13533.00
927.5010, 13673.00
928.6250, 13545.00
929.7480, 13706.00
930.8720, 13690.00
931.9950, 13814.00
933.1180, 13759.00
934.2410, 13735.00
935.3640, 13812.00
936.4860, 13720.00
937.6090, 13583.00
938.7310, 13708.00
939.8530, 13761.00
940.9750, 13672.00
942.0970, 13844.00
943.2180, 13817.00
944.3400, 14020.00
945.4610, 13953.00
946.5820, 13888.00
947.7030, 13833.00
948.8240, 13840.11
949.9450, 13913.00
951.0650, 13873.00
952.1860, 13946.00
953.3060, 13949.00
954.4260, 13972.99
955.5460, 13955.00
956.6650, 14047.00
957.7850, 14030.00
958.9040, 14095.00
960.0230, 14111.00
961.1420, 13912.00
962.2610, 13825.00
963.3800, 13824.75
964.4990, 13829.11
965.6170, 13862.00
966.7350, 13974.00
967.8530, 14105.00
968.9710, 14033.49
970.0890, 14183.56
971.2070, 14281.75
972.3240, 14330.82
973.4410, 14183.77
974.5580, 14289.97
975.6750, 14294.67
976.7920, 14295.22
977.9090, 14437.07
979.0250, 14318.51
980.1410, 14458.09
981.2580, 14494.65
982.3740, 14578.34
983.4890, 14559.89
984.6050, 14573.00
985.7200, 14688.24
986.8360, 14746.95
987.9510, 14716.74
989.0660, 14803.40
990.1810, 14681.25
991.2950, 14742.31
992.4100, 14882.46
993.5240, 14857.35
994.6390, 14945.88
995.7530, 14991.12
996.8660, 14839.69
997.9800, 15030.26
999.0940, 14882.00
1000.207, 14849.00
1001.320, 14764.00
1002.433, 14833.00
1003.546, 14914.00
1004.659, 15121.00
1005.772, 15009.00
1006.884, 15177.00
1007.996, 15115.00
1009.108, 15112.00
1010.220, 15157.00
1011.332, 15279.00
1012.444, 15257.00
1013.555, 15259.00
1014.666, 15354.00
1015.777, 15371.00
1016.888, 15366.00
1017.999, 15367.00
1019.110, 15286.00
1020.220, 15401.00
1021.331, 15319.00
1022.441, 15354.00
1023.551, 15445.00
1024.661, 15398.00
1025.770, 15263.00
1026.880, 15276.00
1027.989, 15203.00
1029.098, 15075.00
1030.207, 15069.00
1031.316, 14966.00
1032.425, 14906.00
1033.533, 15131.00
1034.642, 15066.00
1035.750, 15083.00
1036.858, 15020.00
1037.966, 15100.00
1039.073, 15051.00
1040.181, 14917.00
1041.288, 14938.00
1042.396, 14850.00
1043.503, 14823.00
1044.610, 14747.00
1045.716, 14784.23
1046.823, 15039.00
1047.929, 14850.00
1049.036, 15004.00
1050.142, 14983.00
1051.248, 14800.00
1052.353, 14931.00
1053.459, 14923.00
1054.564, 14927.00
1055.670, 14880.00
1056.775, 14878.33
1057.880, 14804.00
1058.985, 14841.00
1060.089, 14832.00
1061.194, 14808.00
1062.298, 14939.00
1063.402, 14851.00
1064.506, 14959.00
1065.610, 14981.00
1066.713, 15041.00
1067.817, 14970.00
1068.920, 14932.00
1070.023, 14888.00
1071.126, 14776.72
1072.229, 14889.13
1073.332, 14949.67
1074.435, 14961.12
1075.537, 14776.44
1076.639, 14845.02
1077.741, 14812.10
1078.843, 14775.03
1079.945, 14879.25
1081.046, 14723.10
1082.148, 14825.09
1083.249, 14824.04
1084.350, 14870.14
1085.451, 14814.13
1086.551, 14789.66
1087.652, 14867.34
1088.752, 14888.46
1089.853, 14820.69
1090.953, 14869.80
1092.053, 14710.10
1093.152, 14733.63
1094.252, 14836.23
1095.351, 14773.60
1096.451, 14824.58
1097.550, 14832.29
1098.649, 14643.37
1099.748, 14796.42
1100.846, 14801.58
1101.945, 14654.89
1103.043, 14796.23
1104.141, 14670.47
1105.239, 14966.00
1106.337, 14977.00
1107.434, 14794.00
1108.532, 14802.00
1109.629, 14814.00
1110.726, 14654.00
1111.823, 14693.00
1112.920, 14652.00
1114.017, 14823.00
1115.113, 14814.00
1116.210, 14962.00
1117.306, 15117.00
1118.402, 15064.00
1119.498, 15090.00
1120.593, 15093.00
1121.689, 14962.00
1122.784, 15015.00
1123.879, 15020.00
1124.974, 14944.00
1126.069, 14943.00
1127.164, 15047.00
1128.259, 15017.00
1129.353, 15115.00
1130.447, 15221.00
1131.541, 15060.00
1132.635, 15123.00
1133.729, 15149.00
1134.822, 15197.00
1135.916, 15132.00
1137.009, 15163.00
1138.102, 15023.00
1139.195, 15021.00
1140.288, 15104.00
1141.380, 15016.00
1142.473, 15157.00
1143.565, 15115.00
1144.657, 15338.00
1145.749, 15251.00
1146.841, 15047.00
1147.932, 15220.00
1149.024, 14997.00
1150.115, 15083.00
1151.206, 14967.00
1152.297, 14973.00
1153.388, 14970.00
1154.479, 15213.00
1155.569, 15308.00
1156.659, 15185.00
1157.750, 15458.00
1158.839, 15284.00
1159.929, 15312.00
1161.019, 15161.00
1162.108, 15226.00
1163.198, 15270.00
1164.287, 15218.00
1165.376, 15180.00
1166.465, 15266.00
1167.553, 15216.00
1168.642, 15271.00
1169.730, 15223.00
1170.818, 15375.00
1171.906, 15243.00
1172.994, 15286.00
1174.082, 15278.00
1175.170, 15491.00
1176.257, 15316.00
1177.344, 15384.00
1178.431, 15326.00
1179.518, 15223.00
1180.605, 15517.00
1181.691, 15260.00
1182.778, 15379.00
1183.864, 15511.00
1184.950, 15501.00
1186.036, 15496.00
1187.122, 15439.00
1188.207, 15513.00
1189.292, 15481.00
1190.378, 15410.00
1191.463, 15387.00
1192.548, 15427.00
1193.632, 15496.00
1194.717, 15585.00
1195.801, 15508.00
1196.886, 15658.00
1197.970, 15568.00
1199.054, 15652.00
1200.137, 15494.00
1201.221, 15514.00
1202.305, 15606.00
1203.388, 15481.00
1204.471, 15452.00
1205.554, 15301.00
1206.637, 15620.00
1207.719, 15463.00
1208.802, 15702.00
1209.884, 15534.00
1210.966, 15781.00
1212.048, 15793.00
1213.130, 15840.00
1214.212, 15726.00
1215.293, 15749.00
1216.374, 15802.00
1217.456, 15738.00
1218.536, 15689.00
1219.617, 15782.00
1220.698, 15562.00
1221.778, 15810.00
1222.859, 15703.00
1223.939, 15872.00
1225.019, 15907.00
1226.099, 15843.00
1227.178, 15832.00
1228.258, 15959.00
1229.337, 16010.00
1230.417, 15895.00
1231.496, 15821.00
1232.574, 15902.00
1233.653, 15885.00
1234.732, 16076.00
1235.810, 15880.00
1236.888, 15993.00
1237.966, 15933.00
1239.044, 15957.00
1240.122, 15980.00
1241.199, 16033.00
1242.277, 16063.00
1243.354, 15952.00
1244.431, 16134.00
1245.508, 16104.00
1246.585, 15862.00
1247.661, 16039.00
1248.738, 16105.00
1249.814, 16171.00
1250.890, 16243.00
1251.966, 16261.00
1253.042, 16127.00
1254.117, 16361.00
1255.193, 16147.00
1256.268, 16276.00
1257.343, 16151.00
1258.418, 16207.00
1259.493, 16285.00
1260.567, 16295.00
1261.642, 16338.00
1262.716, 16381.00
1263.790, 16424.00
1264.864, 16481.00
1265.938, 16494.00
1267.011, 16305.00
1268.085, 16411.00
1269.158, 16296.00
1270.231, 16346.00
1271.304, 16414.00
1272.377, 16454.00
1273.450, 16342.00
1274.522, 16436.00
1275.594, 16620.00
1276.666, 16499.00
1277.738, 16622.00
1278.810, 16651.00
1279.882, 16587.00
1280.953, 16527.00
1282.025, 16564.58
1283.096, 16582.00
1284.167, 16610.00
1285.238, 16622.14
1286.308, 16567.00
1287.379, 16637.00
1288.449, 16574.00
1289.519, 16570.00
1290.589, 16775.00
1291.659, 16614.00
1292.729, 16796.00
1293.798, 16837.00
1294.868, 16805.00
1295.937, 16726.00
1297.006, 16805.00
1298.075, 16659.00
1299.143, 16693.00
1300.212, 16688.76
1301.280, 16708.00
1302.348, 16752.00
1303.416, 16896.00
1304.484, 17052.00
1305.552, 16891.00
1306.620, 16973.58
1307.687, 16851.00
1308.754, 16912.00
1309.821, 16911.00
1310.888, 16923.00
1311.955, 16961.00
1313.021, 16861.00
1314.088, 16987.00
1315.154, 17163.00
1316.220, 16807.00
1317.286, 17115.00
1318.352, 17114.00
1319.417, 17056.00
1320.483, 17144.00
1321.548, 17148.00
1322.613, 17051.00
1323.678, 17177.00
1324.743, 17066.00
1325.807, 17105.00
1326.872, 17215.00
1327.936, 17006.00
1329.000, 16999.00
1330.064, 17067.00
1331.128, 17074.00
1332.191, 17245.00
1333.255, 17303.00
1334.318, 17204.00
1335.381, 17090.00
1336.444, 17149.00
1337.507, 17163.00
1338.569, 17046.00
1339.632, 17193.00
1340.694, 17209.00
1341.756, 17341.00
1342.818, 17307.00
1343.880, 17298.00
1344.941, 17240.00
1346.003, 17326.00
1347.064, 17340.00
1348.125, 17216.00
1349.186, 17373.00
1350.247, 17330.00
1351.308, 17275.00
1352.368, 17335.00
1353.428, 17217.00
1354.489, 17302.07
1355.549, 17344.00
1356.608, 17444.00
1357.668, 17447.00
1358.727, 17557.00
1359.787, 17491.00
1360.846, 17376.00
1361.905, 17518.00
1362.964, 17382.00
1364.022, 17442.00
1365.081, 17371.00
1366.139, 17424.00
1367.197, 17442.00
1368.255, 17361.00
1369.313, 17505.00
1370.371, 17392.00
1371.428, 17686.00
1372.486, 17617.00
1373.543, 17585.00
1374.600, 17670.00
1375.657, 17640.00
1376.713, 17508.00
1377.770, 17443.00
1378.826, 17487.00
1379.882, 17572.00
1380.938, 17500.00
1381.994, 17442.00
1383.050, 17408.00
1384.106, 17456.85
1385.161, 17721.00
1386.216, 17618.00
1387.271, 17582.00
1388.326, 17673.00
1389.381, 17594.00
1390.435, 17689.00
1391.490, 17641.00
1392.544, 17652.00
1393.598, 17636.00
1394.652, 17653.00
1395.705, 17642.00
1396.759, 17620.00
1397.812, 17791.00
1398.866, 17677.00
1399.919, 17777.00
1400.972, 17838.00
1402.024, 17715.00
1403.077, 17803.00
1404.129, 17705.00
1405.181, 17677.00
1406.233, 17603.00
1407.285, 17629.93
1408.337, 17653.00
1409.389, 17708.00
1410.440, 17831.00
1411.491, 17872.00
1412.542, 18010.00
1413.593, 17972.00
1414.644, 17769.00
1415.695, 17753.00
1416.745, 17791.00
1417.795, 17622.00
1418.845, 17633.00
1419.895, 17709.00
1420.945, 17991.00
1421.995, 17860.00
1423.044, 17996.00
1424.093, 17948.00
1425.142, 18044.00
1426.191, 17867.00
1427.240, 18096.00
1428.289, 17948.00
1429.337, 17990.00
1430.385, 17906.00
1431.433, 17995.00
1432.481, 17881.00
1433.529, 17962.00
1434.577, 18085.00
1435.624, 18008.00
1436.672, 18131.00
1437.719, 18187.00
1438.766, 18124.00
1439.812, 18078.00
1440.859, 18097.00
1441.905, 18177.00
1442.952, 18140.00
1443.998, 18022.00
1445.044, 17873.00
1446.090, 17921.00
1447.135, 18126.00
1448.181, 17984.00
1449.226, 18045.00
1450.271, 18294.00
1451.316, 17874.00
1452.361, 18254.00
1453.405, 18140.00
1454.450, 18250.00
1455.494, 18302.00
1456.538, 18156.00
1457.582, 18130.00
1458.626, 18076.00
1459.670, 18053.07
1460.713, 18143.00
1461.757, 18093.00
1462.800, 18218.00
1463.843, 18303.00
1464.886, 18306.00
1465.928, 18382.00
1466.971, 18446.30
1468.013, 18433.90
1469.055, 18532.00
1470.097, 18425.00
1471.139, 18329.00
1472.181, 18313.00
1473.222, 18259.00
1474.263, 18299.00
1475.305, 18396.00
1476.346, 18565.00
1477.386, 18551.00
1478.427, 18508.00
1479.468, 18464.00
1480.508, 18468.25
1481.548, 18620.00
1482.588, 18468.00
1483.628, 18498.00
1484.668, 18499.00
1485.707, 18429.00
1486.747, 18331.00
1487.786, 18508.00
1488.825, 18514.00
1489.864, 18839.00
1490.902, 18696.00
1491.941, 18816.00
1492.979, 18783.00
1494.017, 18665.00
1495.055, 18683.00
1496.093, 18468.00
1497.131, 18577.00
1498.168, 18542.00
1499.206, 18505.00
1500.243, 18630.00
1501.280, 18640.00
1502.317, 18694.00
1503.354, 18823.00
1504.390, 18672.00
1505.426, 19070.00
1506.463, 18922.00
1507.499, 18779.00
1508.535, 18934.00
1509.570, 18772.00
1510.606, 18730.00
1511.641, 18820.00
1512.676, 18652.00
1513.711, 18654.00
1514.746, 18913.00
1515.781, 18731.00
1516.816, 18799.00
1517.850, 19031.00
1518.884, 19235.00
1519.918, 18865.00
1520.952, 19060.00
1521.986, 19020.00
1523.019, 18946.00
1524.053, 18894.00
1525.086, 18790.00
1526.119, 18831.00
1527.152, 18954.00
1528.185, 19215.00
1529.217, 19140.00
1530.250, 19077.00
1531.282, 19340.00
1532.314, 19283.00
1533.346, 19168.00
1534.377, 19188.00
1535.409, 19097.00
1536.440, 19130.00
1537.472, 19072.00
1538.503, 19161.00
1539.534, 19082.00
1540.564, 19213.00
1541.595, 19388.00
1542.625, 19335.00
1543.656, 19317.00
1544.686, 19376.00
1545.716, 19327.74
1546.745, 19396.00
1547.775, 19285.00
1548.804, 19473.00
1549.834, 19428.00
1550.863, 19556.00
1551.892, 19406.00
1552.920, 19702.00
1553.949, 19883.00
1554.977, 19838.00
1556.006, 19903.00
1557.034, 19700.00
1558.062, 19703.00
1559.089, 19605.00
1560.117, 19777.00
1561.144, 19628.00
1562.172, 19751.00
1563.199, 19619.00
1564.226, 19548.00
1565.252, 19577.00
1566.279, 19583.00
1567.305, 19494.00
1568.332, 19656.00
1569.358, 19838.00
1570.384, 19948.00
1571.409, 19949.00
##END=



