##NAMES=Annite
##RRUFFID=R060204
##IDEAL CHEMISTRY=KFe^2+^_3_AlSi_3_O_10_(OH)_2_
##LOCALITY=Mont Saint-Hilaire, Rouville County, Quebec, Canada
##OWNER=RRUFF
##SOURCE=Royal Ontario Museum
##DESCRIPTION=Black mica with pseudohexagonal outines
##STATUS=The identification of this mineral has been confirmed by X-ray diffraction and chemical analysis
##URL=rruff.info/R060204
##MEASURED CHEMISTRY=(K_0.96_Na_0.04_)_Σ=1_(Fe^2+^_2.04_Mg_0.81_Mn_0.09_Ti_0.03_[box]_0.03_)_Σ=3_(Si_3.00_Al_1.00_)O_10_((OH)_1.54_F_0.46_)_Σ=2_
##PIN_ID=M00078
##ORIENTATION=Laser parallel to a* (1 0 0). Fiducial mark perpendicular to laser is parallel to -b [0 -1 0]
307.1510, 16662.00
308.3580, 16649.00
309.5660, 16529.00
310.7730, 16498.00
311.9800, 16529.00
313.1870, 16534.00
314.3940, 16644.00
315.6010, 16588.92
316.8070, 16629.00
318.0130, 16497.00
319.2200, 16508.00
320.4260, 16408.00
321.6310, 16627.00
322.8370, 16408.00
324.0430, 16592.00
325.2480, 16651.00
326.4540, 16503.00
327.6590, 16455.00
328.8640, 16364.80
330.0680, 16546.00
331.2730, 16326.00
332.4780, 16691.00
333.6820, 16536.79
334.8860, 16724.00
336.0900, 16405.00
337.2940, 16398.00
338.4980, 16325.00
339.7010, 16275.00
340.9050, 16350.00
342.1080, 16411.00
343.3110, 16434.00
344.5140, 16324.00
345.7170, 16384.00
346.9200, 16314.00
348.1220, 16499.00
349.3240, 16392.00
350.5270, 16575.00
351.7290, 16544.00
352.9310, 16599.00
354.1320, 16328.00
355.3340, 16404.00
356.5350, 16376.00
357.7370, 16489.00
358.9380, 16508.00
360.1390, 16451.00
361.3400, 16464.00
362.5400, 16345.00
363.7410, 16446.00
364.9410, 16497.00
366.1410, 16231.00
367.3410, 16384.00
368.5410, 16362.00
369.7410, 16436.00
370.9400, 16284.00
372.1400, 16274.00
373.3390, 16260.00
374.5380, 16141.00
375.7370, 16215.88
376.9360, 16286.00
378.1350, 16251.00
379.3330, 16238.00
380.5310, 16129.00
381.7300, 16357.00
382.9280, 16149.00
384.1260, 16132.00
385.3230, 16456.00
386.5210, 16302.00
387.7180, 16568.00
388.9160, 16392.00
390.1130, 16375.00
391.3100, 16577.00
392.5060, 16443.00
393.7030, 16522.00
394.9000, 16583.00
396.0960, 16481.00
397.2920, 16541.00
398.4880, 16547.00
399.6840, 16568.00
400.8800, 16577.85
402.0750, 16576.25
403.2710, 16529.00
404.4660, 16551.00
405.6610, 16433.00
406.8560, 16372.00
408.0510, 16352.00
409.2450, 16317.00
410.4400, 16383.00
411.6340, 16332.00
412.8280, 16407.00
414.0220, 16472.00
415.2160, 16448.00
416.4100, 16429.21
417.6030, 16344.13
418.7970, 16336.00
419.9900, 16152.00
421.1830, 16177.00
422.3760, 16198.00
423.5690, 16144.00
424.7610, 16351.00
425.9540, 16512.00
427.1460, 16360.74
428.3380, 16427.00
429.5300, 16126.00
430.7220, 16257.00
431.9140, 16201.00
433.1050, 16174.00
434.2970, 16239.00
435.4880, 16097.00
436.6790, 16120.00
437.8700, 16069.00
439.0610, 16139.00
440.2510, 16171.00
441.4420, 16160.00
442.6320, 16327.00
443.8220, 16196.00
445.0120, 16154.00
446.2020, 16161.00
447.3910, 16005.00
448.5810, 16059.28
449.7700, 16256.00
450.9600, 16088.00
452.1490, 16162.00
453.3370, 16173.00
454.5260, 16174.00
455.7150, 16225.00
456.9030, 16176.00
458.0910, 16106.00
459.2800, 16146.00
460.4670, 16387.00
461.6550, 16466.00
462.8430, 16463.04
464.0300, 16421.00
465.2180, 16361.00
466.4050, 16510.00
467.5920, 16370.00
468.7790, 16528.00
469.9650, 16505.00
471.1520, 16404.00
472.3380, 16542.00
473.5250, 16644.00
474.7110, 16564.00
475.8970, 16546.00
477.0820, 16611.00
478.2680, 16583.00
479.4540, 16726.00
480.6390, 16807.00
481.8240, 16933.00
483.0090, 16988.00
484.1940, 17027.37
485.3780, 16948.00
486.5630, 17104.00
487.7470, 16967.00
488.9320, 17083.00
490.1160, 17281.00
491.3000, 17212.00
492.4830, 17231.00
493.6670, 17146.00
494.8500, 17286.00
496.0340, 17387.00
497.2170, 17472.00
498.4000, 17343.00
499.5820, 17416.00
500.7650, 17374.00
501.9480, 17417.00
503.1300, 17428.00
504.3120, 17483.00
505.4940, 17526.00
506.6760, 17556.15
507.8580, 17591.00
509.0390, 17584.00
510.2210, 17739.00
511.4020, 17663.00
512.5830, 17623.00
513.7640, 17735.00
514.9450, 17659.60
516.1250, 17814.00
517.3060, 17643.00
518.4860, 17691.00
519.6660, 17702.00
520.8460, 17661.00
522.0260, 17679.00
523.2060, 17588.00
524.3850, 17792.00
525.5650, 17707.00
526.7440, 17911.00
527.9230, 17641.00
529.1020, 17780.00
530.2810, 17746.00
531.4590, 17775.00
532.6380, 17876.00
533.8160, 17724.00
534.9940, 17608.00
536.1720, 17815.00
537.3500, 17797.00
538.5270, 17724.00
539.7050, 17706.00
540.8820, 17690.00
542.0590, 17672.57
543.2360, 17691.00
544.4130, 17682.00
545.5900, 17654.00
546.7660, 17669.00
547.9430, 17807.00
549.1190, 17785.00
550.2950, 17784.00
551.4710, 17607.00
552.6470, 17687.00
553.8220, 17800.00
554.9980, 17844.00
556.1730, 17921.00
557.3480, 17630.00
558.5230, 17912.00
559.6980, 18266.00
560.8730, 17965.00
562.0470, 17784.00
563.2220, 17830.00
564.3960, 17788.00
565.5700, 17751.00
566.7440, 17781.09
567.9170, 17725.00
569.0910, 17793.00
570.2640, 17696.00
571.4380, 17668.00
572.6110, 17723.00
573.7840, 17589.00
574.9570, 17801.00
576.1290, 17659.00
577.3020, 17579.00
578.4740, 17446.00
579.6460, 17447.27
580.8180, 17483.24
581.9900, 17493.00
583.1620, 17544.00
584.3330, 17614.00
585.5040, 17390.00
586.6760, 17653.00
587.8470, 17465.00
589.0180, 17647.00
590.1880, 17684.00
591.3590, 17600.00
592.5290, 17922.00
593.7000, 17766.00
594.8700, 17792.00
596.0400, 17724.00
597.2090, 17912.00
598.3790, 17902.00
599.5490, 17922.00
600.7180, 17994.00
601.8870, 18123.00
603.0560, 18182.00
604.2250, 18334.00
605.3940, 18413.87
606.5620, 18491.00
607.7300, 18573.00
608.8990, 18673.00
610.0670, 18693.00
611.2350, 18884.00
612.4020, 19036.00
613.5700, 19765.00
614.7370, 19594.63
615.9050, 19765.00
617.0720, 19465.00
618.2390, 19748.00
619.4060, 19476.00
620.5720, 19902.00
621.7390, 19747.00
622.9050, 20033.00
624.0710, 19784.00
625.2370, 20354.00
626.4030, 19951.00
627.5690, 20143.00
628.7340, 20360.00
629.9000, 20370.00
631.0650, 20537.00
632.2300, 20522.00
633.3950, 20566.00
634.5600, 20579.00
635.7240, 20824.00
636.8890, 20712.00
638.0530, 21040.00
639.2170, 20943.00
640.3810, 21235.00
641.5450, 21031.00
642.7080, 21340.00
643.8720, 21393.00
645.0350, 21329.00
646.1980, 21477.00
647.3610, 21632.00
648.5240, 22114.00
649.6870, 22015.00
650.8490, 22446.00
652.0120, 23003.00
653.1740, 23200.00
654.3360, 23300.00
655.4980, 23403.00
656.6600, 23790.00
657.8210, 23969.00
658.9830, 24629.00
660.1440, 24972.00
661.3050, 25794.00
662.4660, 25972.00
663.6270, 26735.00
664.7870, 27379.00
665.9480, 28072.00
667.1080, 28665.00
668.2680, 29360.00
669.4280, 30270.00
670.5880, 30806.00
671.7480, 31420.00
672.9070, 32060.00
674.0670, 32397.00
675.2260, 33161.00
676.3850, 33348.00
677.5440, 33441.00
678.7030, 34049.00
679.8610, 33185.00
681.0200, 33377.00
682.1780, 32808.00
683.3360, 32550.00
684.4940, 32006.00
685.6520, 31696.00
686.8090, 30803.00
687.9670, 30398.00
689.1240, 29559.00
690.2810, 28833.00
691.4380, 28189.00
692.5950, 27551.00
693.7520, 26742.00
694.9080, 26077.00
696.0650, 25730.00
697.2210, 25071.00
698.3770, 24699.00
699.5330, 24077.00
700.6880, 23855.00
701.8440, 23454.00
702.9990, 23035.00
704.1550, 22888.00
705.3100, 22575.00
706.4650, 22242.00
707.6190, 22038.00
708.7740, 21975.00
709.9290, 21762.00
711.0830, 21534.00
712.2370, 21538.00
713.3910, 21199.00
714.5450, 21364.00
715.6980, 21027.00
716.8520, 20998.00
718.0050, 20987.00
719.1580, 20673.00
720.3110, 20838.00
721.4640, 20739.00
722.6170, 20624.00
723.7700, 20652.67
724.9220, 20411.00
726.0740, 20522.00
727.2260, 20330.00
728.3780, 20183.00
729.5300, 20052.00
730.6810, 19953.62
731.8330, 19937.00
732.9840, 19835.00
734.1350, 19858.00
735.2860, 19858.00
736.4370, 19821.00
737.5880, 19810.83
738.7380, 19764.44
739.8880, 19732.00
741.0390, 19650.00
742.1890, 19578.07
743.3380, 19488.00
744.4880, 19511.00
745.6380, 19527.00
746.7870, 19510.59
747.9360, 19582.00
749.0850, 19544.00
750.2340, 19587.00
751.3830, 19619.00
752.5310, 19680.00
753.6800, 19660.81
754.8280, 19734.00
755.9760, 19634.00
757.1240, 19594.00
758.2720, 19601.00
759.4190, 19753.00
760.5670, 19472.00
761.7140, 19693.00
762.8610, 19702.00
764.0080, 19682.00
765.1550, 19575.00
766.3020, 19639.00
767.4480, 19643.00
768.5950, 19730.00
769.7410, 19817.00
770.8870, 19613.00
772.0330, 19462.00
773.1780, 19741.00
774.3240, 19517.00
775.4690, 19587.00
776.6140, 19491.00
777.7590, 19495.00
778.9040, 19498.00
780.0490, 19559.00
781.1940, 19467.00
782.3380, 19502.00
783.4820, 19313.00
784.6260, 19326.00
785.7700, 19210.00
786.9140, 19214.02
788.0580, 19189.00
789.2010, 19278.00
790.3450, 19198.00
791.4880, 19262.00
792.6310, 19344.00
793.7730, 19074.00
794.9160, 19077.10
796.0590, 19254.00
797.2010, 19133.00
798.3430, 19105.00
799.4850, 19131.73
800.6270, 19092.00
801.7690, 19088.00
802.9100, 19000.00
804.0520, 18962.00
805.1930, 19084.00
806.3340, 18968.00
807.4750, 18860.00
808.6160, 19041.00
809.7560, 19019.00
810.8970, 19076.00
812.0370, 19100.13
813.1770, 18985.00
814.3170, 19074.00
815.4570, 19002.12
816.5960, 18963.94
817.7360, 18990.00
818.8750, 18846.00
820.0140, 18822.00
821.1530, 18988.00
822.2920, 18789.00
823.4310, 18876.00
824.5690, 19040.00
825.7070, 18811.00
826.8460, 18923.00
827.9840, 19072.00
829.1220, 19011.00
830.2590, 19039.00
831.3970, 19217.00
832.5340, 19163.00
833.6710, 18998.00
834.8080, 19166.00
835.9450, 19019.00
837.0820, 19133.00
838.2190, 19046.00
839.3550, 19137.00
840.4910, 19295.00
841.6270, 19221.00
842.7630, 19117.00
843.8990, 19142.00
845.0350, 19286.00
846.1700, 19130.00
847.3060, 19204.00
848.4410, 19259.00
849.5760, 19218.00
850.7100, 19370.00
851.8450, 19367.00
852.9800, 19375.54
854.1140, 19300.00
855.2480, 19385.00
856.3820, 19403.00
857.5160, 19441.00
858.6500, 19491.00
859.7830, 19425.00
860.9170, 19447.00
862.0500, 19515.00
863.1830, 19469.00
864.3160, 19578.00
865.4480, 19443.00
866.5810, 19735.00
867.7130, 19550.00
868.8460, 19793.00
869.9780, 19646.00
871.1100, 19629.00
872.2410, 19820.00
873.3730, 19805.00
874.5050, 19856.39
875.6360, 19856.00
876.7670, 19852.00
877.8980, 19944.00
879.0290, 19823.00
880.1590, 19921.00
881.2900, 20018.00
882.4200, 19944.00
883.5500, 19879.00
884.6800, 19983.00
885.8100, 19895.00
886.9400, 19997.00
888.0690, 20045.95
889.1990, 20088.12
890.3280, 20112.00
891.4570, 20297.00
892.5860, 20170.00
893.7140, 20369.00
894.8430, 20216.00
895.9710, 20269.00
897.1000, 20352.00
898.2280, 20479.00
899.3560, 20344.00
900.4830, 20541.00
901.6110, 20453.00
902.7380, 20361.00
903.8660, 20449.00
904.9930, 20519.00
906.1200, 20756.00
907.2460, 20743.00
908.3730, 20824.77
909.5000, 20644.00
910.6260, 20828.00
911.7520, 20803.00
912.8780, 20699.00
914.0040, 20839.00
915.1290, 20823.00
916.2550, 20873.00
917.3800, 20990.00
918.5050, 20995.00
919.6300, 21077.00
920.7550, 21167.00
921.8800, 20980.00
923.0040, 20995.00
924.1290, 21310.00
925.2530, 21174.00
926.3770, 21641.00
927.5010, 21475.02
928.6250, 21418.00
929.7480, 21300.00
930.8720, 21500.00
931.9950, 21478.00
933.1180, 21438.00
934.2410, 21483.00
935.3640, 21480.00
936.4860, 21788.00
937.6090, 21561.00
938.7310, 21744.00
939.8530, 21658.00
940.9750, 21672.55
942.0970, 21804.00
943.2180, 21814.00
944.3400, 21826.00
945.4610, 22068.00
946.5820, 22000.00
947.7030, 22099.00
948.8240, 21970.00
949.9450, 22157.00
951.0650, 22155.00
952.1860, 22490.00
953.3060, 22732.00
954.4260, 22246.00
955.5460, 22430.00
956.6650, 22417.00
957.7850, 22376.00
958.9040, 22508.00
960.0230, 22506.00
961.1420, 22598.00
962.2610, 22451.00
963.3800, 22533.00
964.4990, 22498.00
965.6170, 22624.00
966.7350, 22624.00
967.8530, 22943.00
968.9710, 22880.00
970.0890, 23015.00
971.2070, 22906.00
972.3240, 22927.00
973.4410, 23128.00
974.5580, 23089.00
975.6750, 23218.00
976.7920, 23154.00
977.9090, 23297.00
979.0250, 23420.00
980.1410, 23450.00
981.2580, 23559.00
982.3740, 23469.00
983.4890, 23767.00
984.6050, 23902.00
985.7200, 24025.00
986.8360, 23839.00
987.9510, 24078.00
989.0660, 24133.00
990.1810, 24203.00
991.2950, 24479.00
992.4100, 24281.00
993.5240, 24916.00
994.6390, 25029.00
995.7530, 24954.00
996.8660, 24900.00
997.9800, 25306.00
999.0940, 25187.00
1000.207, 25499.00
1001.320, 25667.00
1002.433, 25715.00
1003.546, 25952.00
1004.659, 26403.00
1005.772, 26500.00
1006.884, 26611.00
1007.996, 27090.00
1009.108, 27119.00
1010.220, 27715.00
1011.332, 27710.00
1012.444, 28117.00
1013.555, 28316.00
1014.666, 28725.00
1015.777, 28850.00
1016.888, 29138.00
1017.999, 29231.00
1019.110, 29489.00
1020.220, 29653.00
1021.331, 29840.00
1022.441, 29639.00
1023.551, 29673.00
1024.661, 29739.00
1025.770, 29547.00
1026.880, 29510.00
1027.989, 29429.00
1029.098, 29275.00
1030.207, 29098.00
1031.316, 29338.00
1032.425, 28759.00
1033.533, 28731.06
1034.642, 28914.00
1035.750, 28265.00
1036.858, 27939.00
1037.966, 27667.00
1039.073, 27728.83
1040.181, 27801.38
1041.288, 27798.76
1042.396, 27724.81
1043.503, 27366.37
1044.610, 27375.40
1045.716, 27237.26
1046.823, 27092.99
1047.929, 27153.83
1049.036, 26836.78
1050.142, 26894.37
1051.248, 26802.44
1052.353, 26779.04
1053.459, 26607.37
1054.564, 26656.00
1055.670, 26411.00
1056.775, 26227.00
1057.880, 26376.00
1058.985, 26211.00
1060.089, 26485.00
1061.194, 26523.00
1062.298, 26331.00
1063.402, 26188.00
1064.506, 26096.00
1065.610, 26173.00
1066.713, 25935.00
1067.817, 26047.00
1068.920, 26082.00
1070.023, 25811.00
1071.126, 25961.00
1072.229, 26022.00
1073.332, 25829.00
1074.435, 25856.00
1075.537, 26069.00
1076.639, 25842.00
1077.741, 25869.00
1078.843, 25600.00
1079.945, 25516.00
1081.046, 25623.00
1082.148, 25549.00
1083.249, 25515.00
1084.350, 25636.00
1085.451, 25830.00
1086.551, 25629.00
1087.652, 25408.00
1088.752, 25061.00
1089.853, 25044.00
1090.953, 24879.00
1092.053, 24931.00
1093.152, 24668.00
1094.252, 24598.00
1095.351, 24511.00
1096.451, 24414.00
1097.550, 24364.00
1098.649, 24229.00
1099.748, 24257.00
1100.846, 24122.00
1101.945, 24250.00
1103.043, 24234.00
1104.141, 24013.00
1105.239, 24079.00
1106.337, 24006.00
1107.434, 23712.98
1108.532, 23872.93
1109.629, 23957.60
1110.726, 23971.05
1111.823, 23699.92
1112.920, 23796.26
1114.017, 23745.34
1115.113, 23688.39
1116.210, 23836.45
1117.306, 23606.72
1118.402, 23751.54
1119.498, 23746.85
1120.593, 23810.60
1121.689, 23726.16
1122.784, 23687.50
1123.879, 23797.06
1124.974, 23824.55
1126.069, 23723.07
1127.164, 23791.17
1128.259, 23556.27
1129.353, 23587.27
1130.447, 23732.98
1131.541, 23638.96
1132.635, 23709.77
1133.729, 23717.81
1134.822, 23440.55
1135.916, 23659.46
1137.009, 23663.79
1138.102, 23447.80
1139.195, 23649.72
1140.288, 23464.10
1141.380, 23416.82
1142.473, 23473.63
1143.565, 23421.93
1144.657, 23541.33
1145.749, 23495.89
1146.841, 23435.73
1147.932, 23439.85
1149.024, 23261.84
1150.115, 23421.71
1151.206, 23350.78
1152.297, 23394.58
1153.388, 23464.38
1154.479, 23335.07
1155.569, 23416.57
1156.659, 23171.18
1157.750, 23406.00
1158.839, 23499.00
1159.929, 23307.00
1161.019, 23193.00
1162.108, 23197.00
1163.198, 23334.00
1164.287, 23379.00
1165.376, 23291.00
1166.465, 23344.00
1167.553, 23312.00
1168.642, 23224.00
1169.730, 23330.51
1170.818, 23718.00
1171.906, 23364.00
1172.994, 23602.00
1174.082, 23383.00
1175.170, 23502.00
1176.257, 23467.40
1177.344, 23494.00
1178.431, 23388.00
1179.518, 23347.00
1180.605, 23302.00
1181.691, 23580.00
1182.778, 23559.00
1183.864, 23701.00
1184.950, 23645.48
1186.036, 23711.00
1187.122, 23531.00
1188.207, 23520.00
1189.292, 23650.00
1190.378, 23676.00
1191.463, 23727.00
1192.548, 23711.79
1193.632, 23772.56
1194.717, 23764.27
1195.801, 23834.00
1196.886, 23774.00
1197.970, 23731.00
1199.054, 23759.00
1200.137, 23680.00
1201.221, 23768.00
1202.305, 23680.00
1203.388, 23754.00
1204.471, 23868.00
1205.554, 23569.00
1206.637, 23944.00
1207.719, 23884.00
1208.802, 23939.00
1209.884, 23772.00
1210.966, 23844.00
1212.048, 24015.00
1213.130, 23847.00
1214.212, 23845.00
1215.293, 23916.00
1216.374, 24116.00
1217.456, 23941.00
1218.536, 23989.00
1219.617, 23810.00
1220.698, 24099.00
1221.778, 23976.74
1222.859, 24321.00
1223.939, 23948.00
1225.019, 24129.00
1226.099, 24145.00
1227.178, 23977.00
1228.258, 24014.00
1229.337, 23966.00
1230.417, 24064.00
1231.496, 24055.00
1232.574, 24079.96
1233.653, 24199.00
1234.732, 24131.00
1235.810, 24220.00
1236.888, 24254.00
1237.966, 24305.00
1239.044, 24351.00
1240.122, 24268.00
1241.199, 24283.00
1242.277, 24251.00
1243.354, 24358.00
1244.431, 24285.00
1245.508, 24405.00
1246.585, 24459.00
1247.661, 24402.00
1248.738, 24552.00
1249.814, 24498.00
1250.890, 24436.00
1251.966, 24288.00
1253.042, 24501.00
1254.117, 24631.00
1255.193, 24594.00
1256.268, 24410.68
1257.343, 24600.91
1258.418, 24715.86
1259.493, 24759.58
1260.567, 24518.71
1261.642, 24645.32
1262.716, 24624.65
1263.790, 24597.95
1264.864, 24776.27
1265.938, 24576.79
1267.011, 24751.84
1268.085, 24777.39
1269.158, 24871.35
1270.231, 24817.14
1271.304, 24808.70
1272.377, 24948.48
1273.450, 25006.19
1274.522, 24934.90
1275.594, 25033.20
1276.666, 24828.51
1277.738, 24889.70
1278.810, 25065.60
1279.882, 25001.77
1280.953, 25102.76
1282.025, 25140.98
1283.096, 24893.88
1284.167, 25142.96
1285.238, 25177.46
1286.308, 24991.62
1287.379, 25223.70
1288.449, 25068.22
1289.519, 25051.08
1290.589, 25138.03
1291.659, 25116.47
1292.729, 25266.00
1293.798, 25250.68
1294.868, 25220.66
1295.937, 25254.88
1297.006, 25106.99
1298.075, 25296.96
1299.143, 25256.12
1300.212, 25330.03
1301.280, 25429.92
1302.348, 25330.70
1303.416, 25442.27
1304.484, 25226.97
1305.552, 25285.17
1306.620, 25313.92
1307.687, 25517.48
1308.754, 25303.75
1309.821, 25354.34
1310.888, 25517.46
1311.955, 25523.12
1313.021, 25594.60
1314.088, 25471.19
1315.154, 25530.86
1316.220, 25540.06
1317.286, 25723.67
1318.352, 25769.59
1319.417, 25649.45
1320.483, 25530.03
1321.548, 25726.17
1322.613, 25623.20
1323.678, 25681.60
1324.743, 25573.34
1325.807, 25608.96
1326.872, 25642.31
1327.936, 25749.42
1329.000, 25632.84
1330.064, 25900.00
1331.128, 25809.00
1332.191, 25993.19
1333.255, 25945.25
1334.318, 26222.00
1335.381, 25901.00
1336.444, 26165.00
1337.507, 26111.00
1338.569, 26075.00
1339.632, 25981.00
1340.694, 26011.00
1341.756, 25991.00
1342.818, 25932.00
1343.880, 25945.00
1344.941, 25931.00
1346.003, 26285.00
1347.064, 26172.00
1348.125, 26263.00
1349.186, 26213.00
1350.247, 26206.00
1351.308, 26240.00
1352.368, 26246.00
1353.428, 26270.85
1354.489, 26270.63
1355.549, 26325.00
1356.608, 26253.00
1357.668, 26272.00
1358.727, 26241.65
1359.787, 26416.00
1360.846, 26273.00
1361.905, 26426.00
1362.964, 26487.00
1364.022, 26371.00
1365.081, 26270.00
1366.139, 26490.00
1367.197, 26114.00
1368.255, 26418.00
1369.313, 26192.00
1370.371, 26661.00
1371.428, 26620.00
1372.486, 26556.00
1373.543, 26457.00
1374.600, 26566.00
1375.657, 26319.00
1376.713, 26557.00
1377.770, 26675.00
1378.826, 26635.00
1379.882, 26575.00
1380.938, 26664.62
1381.994, 26542.00
1383.050, 26743.00
1384.106, 26669.00
1385.161, 26669.00
1386.216, 26719.00
1387.271, 26701.00
1388.326, 26725.00
1389.381, 26726.00
1390.435, 26548.00
1391.490, 26781.00
1392.544, 26805.00
1393.598, 26658.00
1394.652, 26782.00
1395.705, 26651.00
1396.759, 26673.93
1397.812, 26682.00
1398.866, 26712.00
1399.919, 26584.00
1400.972, 26647.00
1402.024, 26836.00
1403.077, 26873.00
1404.129, 26676.00
1405.181, 26794.00
1406.233, 26737.00
1407.285, 26855.00
1408.337, 26837.00
1409.389, 26823.00
1410.440, 26844.00
1411.491, 26691.00
1412.542, 26854.00
1413.593, 26767.00
1414.644, 26901.00
1415.695, 26783.00
1416.745, 26935.00
1417.795, 26850.00
1418.845, 26980.00
1419.895, 26904.00
1420.945, 26929.00
1421.995, 26823.00
1423.044, 26894.38
1424.093, 26963.00
1425.142, 26980.00
1426.191, 27070.00
1427.240, 27031.00
1428.289, 27164.00
1429.337, 27171.00
1430.385, 27284.00
1431.433, 26926.00
1432.481, 27017.00
1433.529, 27071.00
1434.577, 27008.48
1435.624, 27062.04
1436.672, 27058.00
1437.719, 27143.00
1438.766, 27045.00
1439.812, 27259.00
1440.859, 27134.00
1441.905, 27363.00
1442.952, 27364.00
1443.998, 27469.00
1445.044, 27304.00
1446.090, 27336.00
1447.135, 27278.00
1448.181, 27252.00
1449.226, 27349.00
1450.271, 27489.00
1451.316, 27535.00
1452.361, 27543.60
1453.405, 27329.00
1454.450, 27497.00
1455.494, 27399.00
1456.538, 27392.00
1457.582, 27450.00
1458.626, 27469.00
1459.670, 27568.00
1460.713, 27542.00
1461.757, 27440.00
1462.800, 27855.00
1463.843, 27487.00
1464.886, 27676.00
1465.928, 27572.00
1466.971, 27818.00
1468.013, 27580.00
1469.055, 27579.61
1470.097, 27768.14
1471.139, 27881.40
1472.181, 27923.42
1473.222, 27680.86
1474.263, 27805.76
1475.305, 27783.42
1476.346, 27755.02
1477.386, 27931.63
1478.427, 27730.46
1479.468, 27903.83
1480.508, 27927.68
1481.548, 28019.95
1482.588, 27964.05
1483.628, 27953.92
1484.668, 28092.00
1485.707, 28148.00
1486.747, 28061.00
1487.786, 27866.00
1488.825, 28169.00
1489.864, 28162.00
1490.902, 28155.00
1491.941, 28266.00
1492.979, 28213.00
1494.017, 28378.00
1495.055, 28028.00
1496.093, 28131.00
1497.131, 28177.00
1498.168, 28348.00
1499.206, 28223.00
1500.243, 28414.00
1501.280, 28142.00
1502.317, 28343.00
1503.354, 28490.00
1504.390, 28478.00
1505.426, 28394.00
1506.463, 28353.00
1507.499, 28419.00
1508.535, 28488.00
1509.570, 28507.00
1510.606, 28489.00
1511.641, 28489.70
1512.676, 28471.91
1513.711, 28521.00
1514.746, 28423.00
1515.781, 28637.00
1516.816, 28627.00
1517.850, 28695.00
1518.884, 28618.00
1519.918, 28454.59
1520.952, 28645.04
1521.986, 28760.22
1523.019, 28804.15
1524.053, 28563.52
1525.086, 28690.35
1526.119, 28669.90
1527.152, 28643.42
1528.185, 28821.97
1529.217, 28622.70
1530.250, 28797.99
1531.282, 28823.75
1532.314, 28917.94
1533.346, 28863.96
1534.377, 28855.72
1535.409, 28995.72
1536.440, 29053.64
1537.472, 28982.60
1538.503, 29081.12
1539.534, 28876.65
1540.564, 28938.04
1541.595, 29114.17
1542.625, 29050.54
1543.656, 29151.77
1544.686, 29190.21
1545.716, 28943.33
1546.745, 29192.62
1547.775, 29227.34
1548.804, 29041.71
1549.834, 29274.02
1550.863, 29118.77
1551.892, 29101.85
1552.920, 29189.01
1553.949, 29167.66
1554.977, 29317.40
1556.006, 29302.32
1557.034, 29272.50
1558.062, 29306.94
1559.089, 29159.26
1560.117, 29349.45
1561.144, 29308.84
1562.172, 29382.96
1563.199, 29483.07
1564.226, 29384.07
1565.252, 29495.85
1566.279, 29976.00
1567.305, 29421.00
1568.332, 29474.00
1569.358, 29561.00
1570.384, 29756.00
##END=



