##NAMES=Annite
##RRUFFID=R060204
##IDEAL CHEMISTRY=KFe^2+^_3_AlSi_3_O_10_(OH)_2_
##LOCALITY=Mont Saint-Hilaire, Rouville County, Quebec, Canada
##OWNER=RRUFF
##SOURCE=Royal Ontario Museum
##DESCRIPTION=Black mica with pseudohexagonal outines
##STATUS=The identification of this mineral has been confirmed by X-ray diffraction and chemical analysis
##URL=rruff.info/R060204
##MEASURED CHEMISTRY=(K_0.96_Na_0.04_)_Σ=1_(Fe^2+^_2.04_Mg_0.81_Mn_0.09_Ti_0.03_[box]_0.03_)_Σ=3_(Si_3.00_Al_1.00_)O_10_((OH)_1.54_F_0.46_)_Σ=2_
##PIN_ID=M00140
##ORIENTATION=Laser parallel to c* (0 0 1). Fiducial mark perpendicular to laser is parallel to -a [-1 0 0]
307.1510, 41929.00
308.3580, 41904.00
309.5660, 41887.00
310.7730, 42048.00
311.9800, 42122.00
313.1870, 42232.00
314.3940, 42083.00
315.6010, 42163.41
316.8070, 42103.24
318.0130, 42192.00
319.2200, 42005.00
320.4260, 42096.00
321.6310, 41928.69
322.8370, 42137.98
324.0430, 42271.99
325.2480, 42334.74
326.4540, 42112.95
327.6590, 42258.59
328.8640, 42256.98
330.0680, 42249.29
331.2730, 42446.65
332.4780, 42266.22
333.6820, 42460.30
334.8860, 42504.88
336.0900, 42617.88
337.2940, 42582.70
338.4980, 42593.29
339.7010, 42752.08
340.9050, 42828.82
342.1080, 42776.56
343.3110, 42893.88
344.5140, 42736.19
345.7170, 43111.00
346.9200, 42912.00
348.1220, 43119.00
349.3240, 43307.00
350.5270, 43193.00
351.7290, 43364.00
352.9310, 43350.00
354.1320, 43442.00
355.3340, 43405.00
356.5350, 43458.43
357.7370, 43478.05
358.9380, 43479.00
360.1390, 43534.00
361.3400, 43435.00
362.5400, 43499.00
363.7410, 43645.00
364.9410, 43676.00
366.1410, 43580.00
367.3410, 43748.00
368.5410, 43748.00
369.7410, 43510.00
370.9400, 43741.00
372.1400, 43977.00
373.3390, 43687.00
374.5380, 43714.00
375.7370, 44051.00
376.9360, 43834.38
378.1350, 43821.00
379.3330, 43770.00
380.5310, 44018.00
381.7300, 43987.00
382.9280, 44073.00
384.1260, 44036.00
385.3230, 43929.00
386.5210, 43950.00
387.7180, 43853.00
388.9160, 43992.00
390.1130, 44372.00
391.3100, 44196.44
392.5060, 44270.00
393.7030, 44301.00
394.9000, 44151.00
396.0960, 44302.99
397.2920, 44319.03
398.4880, 44448.00
399.6840, 44510.00
400.8800, 44522.00
402.0750, 44641.00
403.2710, 44694.00
404.4660, 44663.22
405.6610, 44727.19
406.8560, 44665.00
408.0510, 44680.00
409.2450, 44854.00
410.4400, 44690.00
411.6340, 45173.00
412.8280, 45026.00
414.0220, 45091.00
415.2160, 45129.00
416.4100, 45100.00
417.6030, 45076.00
418.7970, 45212.00
419.9900, 45150.00
421.1830, 45126.00
422.3760, 45138.00
423.5690, 45297.00
424.7610, 45076.00
425.9540, 45164.00
427.1460, 45134.00
428.3380, 44932.00
429.5300, 45118.00
430.7220, 44921.00
431.9140, 44897.00
433.1050, 44933.00
434.2970, 44796.00
435.4880, 44482.00
436.6790, 44746.00
437.8700, 44522.00
439.0610, 44688.00
440.2510, 44707.00
441.4420, 44611.00
442.6320, 44811.00
443.8220, 44530.00
445.0120, 44559.00
446.2020, 44502.00
447.3910, 44583.00
448.5810, 44476.00
449.7700, 44530.00
450.9600, 44592.08
452.1490, 44454.00
453.3370, 44680.00
454.5260, 44549.00
455.7150, 44419.00
456.9030, 44790.00
458.0910, 44826.00
459.2800, 45267.00
460.4670, 45144.79
461.6550, 45149.00
462.8430, 44992.00
464.0300, 44901.00
465.2180, 44944.00
466.4050, 44989.00
467.5920, 45024.00
468.7790, 45197.00
469.9650, 45389.00
471.1520, 45634.00
472.3380, 45653.00
473.5250, 45725.00
474.7110, 45840.07
475.8970, 45648.00
477.0820, 45877.00
478.2680, 45946.00
479.4540, 45737.00
480.6390, 46140.00
481.8240, 46791.00
483.0090, 46376.00
484.1940, 46496.00
485.3780, 46695.00
486.5630, 46577.00
487.7470, 46668.45
488.9320, 47381.00
490.1160, 46752.00
491.3000, 46978.00
492.4830, 47275.00
493.6670, 47032.00
494.8500, 47351.00
496.0340, 47395.00
497.2170, 47241.00
498.4000, 47750.00
499.5820, 47552.00
500.7650, 47497.00
501.9480, 47344.00
503.1300, 47458.00
504.3120, 47389.00
505.4940, 47630.00
506.6760, 47554.00
507.8580, 47591.00
509.0390, 47721.00
510.2210, 47753.00
511.4020, 48033.00
512.5830, 48064.46
513.7640, 48001.00
514.9450, 48220.00
516.1250, 47918.00
517.3060, 47908.00
518.4860, 48147.00
519.6660, 47822.00
520.8460, 47873.00
522.0260, 48274.00
523.2060, 47800.00
524.3850, 48102.00
525.5650, 47875.00
526.7440, 48156.00
527.9230, 48283.00
529.1020, 48049.00
530.2810, 47826.00
531.4590, 47837.00
532.6380, 48090.00
533.8160, 48094.00
534.9940, 48233.00
536.1720, 48262.13
537.3500, 48208.77
538.5270, 48336.00
539.7050, 48336.88
540.8820, 48300.00
542.0590, 48401.00
543.2360, 48452.00
544.4130, 48420.00
545.5900, 48759.00
546.7660, 48572.00
547.9430, 48267.00
549.1190, 48369.00
550.2950, 48655.00
551.4710, 48487.49
552.6470, 48877.00
553.8220, 48055.00
554.9980, 49048.00
556.1730, 47980.00
557.3480, 48086.00
558.5230, 47961.00
559.6980, 47816.00
560.8730, 47756.00
562.0470, 47742.00
563.2220, 47707.00
564.3960, 47375.00
565.5700, 47582.00
566.7440, 47440.00
567.9170, 47660.00
569.0910, 47449.00
570.2640, 47196.00
571.4380, 47051.00
572.6110, 47158.00
573.7840, 47084.00
574.9570, 47011.84
576.1290, 46944.07
577.3020, 46899.00
578.4740, 46701.00
579.6460, 46726.00
580.8180, 46639.00
581.9900, 46591.00
583.1620, 46370.00
584.3330, 46108.00
585.5040, 46047.00
586.6760, 46671.00
587.8470, 47263.00
589.0180, 46565.00
590.1880, 46336.00
591.3590, 46584.00
592.5290, 46263.00
593.7000, 46331.00
594.8700, 46346.00
596.0400, 46606.00
597.2090, 46535.16
598.3790, 46138.00
599.5490, 46469.00
600.7180, 46419.00
601.8870, 46278.00
603.0560, 46509.00
604.2250, 46698.00
605.3940, 46436.00
606.5620, 46557.00
607.7300, 46542.00
608.8990, 46405.00
610.0670, 46776.00
611.2350, 46728.00
612.4020, 46937.00
613.5700, 46609.00
614.7370, 46873.00
615.9050, 46814.00
617.0720, 46611.00
618.2390, 46856.00
619.4060, 46817.00
620.5720, 47038.00
621.7390, 47098.00
622.9050, 47093.00
624.0710, 47233.00
625.2370, 47209.00
626.4030, 46977.00
627.5690, 46984.00
628.7340, 47183.00
629.9000, 47053.00
631.0650, 47176.00
632.2300, 47382.00
633.3950, 47310.00
634.5600, 47491.00
635.7240, 47156.00
636.8890, 47529.00
638.0530, 47552.00
639.2170, 47764.00
640.3810, 47387.00
641.5450, 47401.00
642.7080, 47544.00
643.8720, 47622.00
645.0350, 47698.00
646.1980, 47803.00
647.3610, 47879.00
648.5240, 48216.00
649.6870, 48167.00
650.8490, 48261.00
652.0120, 48302.00
653.1740, 48713.00
654.3360, 48629.00
655.4980, 48891.00
656.6600, 48861.00
657.8210, 49185.00
658.9830, 49258.00
660.1440, 49661.00
661.3050, 49954.00
662.4660, 50090.00
663.6270, 50442.35
664.7870, 50512.00
665.9480, 50940.00
667.1080, 51240.00
668.2680, 51422.00
669.4280, 52051.00
670.5880, 52484.00
671.7480, 52451.00
672.9070, 53050.00
674.0670, 52530.00
675.2260, 52764.00
676.3850, 52229.00
677.5440, 52475.00
678.7030, 52394.00
679.8610, 52189.00
681.0200, 51827.00
682.1780, 51338.00
683.3360, 51493.00
684.4940, 50922.00
685.6520, 50955.00
686.8090, 51294.00
687.9670, 50264.00
689.1240, 50349.00
690.2810, 50746.00
691.4380, 50623.00
692.5950, 50576.00
693.7520, 50522.00
694.9080, 50564.00
696.0650, 50779.00
697.2210, 50638.00
698.3770, 50834.00
699.5330, 51283.00
700.6880, 51547.00
701.8440, 51272.00
702.9990, 51321.00
704.1550, 52212.00
705.3100, 52043.00
706.4650, 52344.00
707.6190, 52138.00
708.7740, 52603.00
709.9290, 52735.00
711.0830, 52869.00
712.2370, 53007.00
713.3910, 53002.00
714.5450, 53353.00
715.6980, 53263.00
716.8520, 53191.00
718.0050, 53549.00
719.1580, 53505.00
720.3110, 53244.00
721.4640, 53450.00
722.6170, 53357.00
723.7700, 52922.00
724.9220, 52547.00
726.0740, 52622.00
727.2260, 52583.00
728.3780, 52285.00
729.5300, 52006.00
730.6810, 52155.00
731.8330, 52007.00
732.9840, 51419.00
734.1350, 51503.00
735.2860, 51170.00
736.4370, 51204.00
737.5880, 51092.00
738.7380, 50941.00
739.8880, 50884.00
741.0390, 51301.00
742.1890, 50912.69
743.3380, 51186.00
744.4880, 50395.00
745.6380, 51052.00
746.7870, 50716.00
747.9360, 50604.00
749.0850, 50651.00
750.2340, 50827.00
751.3830, 50881.00
752.5310, 50786.00
753.6800, 51363.00
754.8280, 51008.00
755.9760, 51381.41
757.1240, 51347.00
758.2720, 51667.00
759.4190, 51810.00
760.5670, 51586.00
761.7140, 51745.41
762.8610, 52130.00
764.0080, 51792.00
765.1550, 51869.00
766.3020, 52144.00
767.4480, 52152.00
768.5950, 52003.00
769.7410, 52306.00
770.8870, 51939.00
772.0330, 51754.00
773.1780, 51940.00
774.3240, 51852.00
775.4690, 51814.00
776.6140, 51415.00
777.7590, 51214.00
778.9040, 51329.00
780.0490, 51424.00
781.1940, 50993.00
782.3380, 50896.00
783.4820, 50707.00
784.6260, 50528.00
785.7700, 50212.00
786.9140, 50178.00
788.0580, 50022.00
789.2010, 49717.00
790.3450, 49710.00
791.4880, 49618.00
792.6310, 49356.00
793.7730, 49352.00
794.9160, 49256.00
796.0590, 48868.00
797.2010, 49071.00
798.3430, 48774.00
799.4850, 48626.00
800.6270, 48739.00
801.7690, 48628.00
802.9100, 48334.00
804.0520, 48262.00
805.1930, 47994.33
806.3340, 48158.88
807.4750, 48248.15
808.6160, 48266.20
809.7560, 47999.68
810.8970, 48100.61
812.0370, 48054.30
813.1770, 48001.94
814.3170, 48154.60
815.4570, 47929.47
816.5960, 48078.89
817.7360, 48078.79
818.8750, 48147.13
820.0140, 48067.29
821.1530, 48033.22
822.2920, 48147.37
823.4310, 48179.45
824.5690, 48082.56
825.7070, 48155.25
826.8460, 47924.95
827.9840, 47960.54
829.1220, 48110.83
830.2590, 48021.40
831.3970, 48096.80
832.5340, 48109.43
833.6710, 47836.75
834.8080, 48060.25
835.9450, 48069.16
837.0820, 47857.75
838.2190, 48064.25
839.3550, 47883.22
840.4910, 47840.52
841.6270, 47901.92
842.7630, 47854.79
843.8990, 47978.77
845.0350, 47937.91
846.1700, 47882.33
847.3060, 47891.02
848.4410, 47717.59
849.5760, 47882.03
850.7100, 47815.68
851.8450, 47864.05
852.9800, 47938.42
854.1140, 47813.70
855.2480, 47989.00
856.3820, 47937.00
857.5160, 48324.00
858.6500, 48148.00
859.7830, 48241.00
860.9170, 48014.00
862.0500, 48137.00
863.1830, 48384.00
864.3160, 48148.00
865.4480, 48343.00
866.5810, 48430.00
867.7130, 48176.00
868.8460, 48278.00
869.9780, 48342.00
871.1100, 48520.00
872.2410, 48455.00
873.3730, 48367.00
874.5050, 48682.00
875.6360, 48562.00
876.7670, 48710.00
877.8980, 48629.00
879.0290, 48607.00
880.1590, 48817.00
881.2900, 48703.00
882.4200, 48744.00
883.5500, 48765.00
884.6800, 48532.00
885.8100, 49015.00
886.9400, 48896.00
888.0690, 48813.00
889.1990, 48728.00
890.3280, 48978.00
891.4570, 49061.00
892.5860, 49159.00
893.7140, 49218.00
894.8430, 49379.00
895.9710, 49263.00
897.1000, 49158.00
898.2280, 49295.00
899.3560, 49222.00
900.4830, 49401.00
901.6110, 49365.00
902.7380, 49608.00
903.8660, 49525.00
904.9930, 49440.00
906.1200, 49568.00
907.2460, 49519.00
908.3730, 49582.00
909.5000, 49582.36
910.6260, 49591.00
911.7520, 49597.00
912.8780, 49581.00
914.0040, 49666.00
915.1290, 49608.00
916.2550, 49781.00
917.3800, 49712.00
918.5050, 49714.00
919.6300, 50012.00
920.7550, 50122.00
921.8800, 49926.00
923.0040, 49998.00
924.1290, 50022.73
925.2530, 49888.00
926.3770, 50104.00
927.5010, 50010.00
928.6250, 49999.00
929.7480, 50351.00
930.8720, 49948.00
931.9950, 50274.00
933.1180, 50570.00
934.2410, 50488.00
935.3640, 50331.00
936.4860, 50364.00
937.6090, 50404.00
938.7310, 50220.00
939.8530, 50403.00
940.9750, 50481.00
942.0970, 50611.00
943.2180, 50540.00
944.3400, 50476.00
945.4610, 50380.00
946.5820, 50593.00
947.7030, 50456.00
948.8240, 51041.00
949.9450, 50544.00
951.0650, 50796.00
952.1860, 50775.00
953.3060, 50585.00
954.4260, 50860.00
955.5460, 50502.00
956.6650, 50538.00
957.7850, 50630.00
958.9040, 50625.00
960.0230, 50596.00
961.1420, 50427.00
962.2610, 50585.00
963.3800, 50426.00
964.4990, 50452.00
965.6170, 50407.00
966.7350, 50458.00
967.8530, 50269.00
968.9710, 50593.00
970.0890, 50451.00
971.2070, 50595.00
972.3240, 50482.00
973.4410, 50653.00
974.5580, 50706.00
975.6750, 50528.00
976.7920, 50735.00
977.9090, 50675.00
979.0250, 50617.82
980.1410, 50920.00
981.2580, 50524.00
982.3740, 50470.00
983.4890, 50484.20
984.6050, 50688.74
985.7200, 50972.00
986.8360, 51107.00
987.9510, 51197.00
989.0660, 50665.00
990.1810, 51109.00
991.2950, 50906.00
992.4100, 51161.00
993.5240, 50925.00
994.6390, 51018.00
995.7530, 51416.00
996.8660, 50641.00
997.9800, 50973.00
999.0940, 51195.00
1000.207, 51081.00
1001.320, 50941.00
1002.433, 50730.00
1003.546, 50816.97
1004.659, 51182.00
1005.772, 50969.00
1006.884, 51161.00
1007.996, 51226.00
1009.108, 51230.00
1010.220, 51216.00
1011.332, 51166.00
1012.444, 51134.00
1013.555, 51529.00
1014.666, 51266.00
1015.777, 51367.00
1016.888, 51527.00
1017.999, 51445.00
1019.110, 51594.00
1020.220, 51751.00
1021.331, 51318.00
1022.441, 51737.00
1023.551, 51695.70
1024.661, 51439.00
1025.770, 51985.00
1026.880, 51524.00
1027.989, 51695.00
1029.098, 51580.00
1030.207, 51276.00
1031.316, 51615.00
1032.425, 51705.00
1033.533, 51711.00
1034.642, 51708.00
1035.750, 51641.00
1036.858, 51666.00
1037.966, 51726.00
1039.073, 51727.00
1040.181, 51890.00
1041.288, 51668.00
1042.396, 51592.00
1043.503, 51793.00
1044.610, 51777.00
1045.716, 51642.00
1046.823, 51832.00
1047.929, 52009.00
1049.036, 51884.00
1050.142, 52194.00
1051.248, 51887.00
1052.353, 52023.00
1053.459, 52320.00
1054.564, 52083.00
1055.670, 52128.00
1056.775, 51956.00
1057.880, 52149.00
1058.985, 52203.00
1060.089, 52372.00
1061.194, 52386.70
1062.298, 52431.00
1063.402, 52351.00
1064.506, 52284.00
1065.610, 52158.00
1066.713, 52205.00
1067.817, 52075.14
1068.920, 52220.65
1070.023, 52290.88
1071.126, 52289.88
1072.229, 52004.31
1073.332, 52086.20
1074.435, 52020.83
1075.537, 51949.45
1076.639, 52083.09
1077.741, 51838.93
1078.843, 51969.32
1079.945, 51950.20
1081.046, 51999.52
1082.148, 51900.65
1083.249, 51847.57
1084.350, 51942.71
1085.451, 51955.78
1086.551, 51839.90
1087.652, 51893.57
1088.752, 51644.29
1089.853, 51660.85
1090.953, 51792.15
1092.053, 51683.72
1093.152, 51740.16
1094.252, 51733.79
1095.351, 51442.13
1096.451, 51646.63
1097.550, 51636.57
1098.649, 51406.18
1099.748, 51662.00
1100.846, 51752.00
1101.945, 51609.00
1103.043, 51609.00
1104.141, 51557.00
1105.239, 51379.00
1106.337, 51484.00
1107.434, 51408.00
1108.532, 51412.37
1109.629, 51326.00
1110.726, 51429.00
1111.823, 51454.00
1112.920, 51417.00
1114.017, 51258.79
1115.113, 51415.06
1116.210, 51496.05
1117.306, 51505.82
1118.402, 51231.02
1119.498, 51323.69
1120.593, 51269.11
1121.689, 51208.47
1122.784, 51352.87
1123.879, 51119.47
1124.974, 51260.62
1126.069, 51252.26
1127.164, 51312.32
1128.259, 51224.21
1129.353, 51181.88
1130.447, 51287.78
1131.541, 51311.60
1132.635, 51206.45
1133.729, 51270.88
1134.822, 51032.33
1135.916, 51059.65
1137.009, 51201.70
1138.102, 51104.01
1139.195, 51171.16
1140.288, 51175.53
1141.380, 50894.61
1142.473, 51109.85
1143.565, 51110.53
1144.657, 50890.88
1145.749, 51089.14
1146.841, 50899.86
1147.932, 50848.92
1149.024, 50902.07
1150.115, 50846.71
1151.206, 50962.45
1152.297, 50913.36
1153.388, 50849.54
1154.479, 50849.99
1155.569, 50668.34
1156.659, 50824.55
1157.750, 50749.96
1158.839, 50790.12
1159.929, 50856.26
1161.019, 50723.30
1162.108, 50801.14
1163.198, 50552.10
1164.287, 50576.57
1165.376, 50571.59
1166.465, 50741.44
1167.553, 50494.01
1168.642, 50510.89
1169.730, 50640.32
1170.818, 50612.28
1171.906, 50650.08
1172.994, 50492.96
1174.082, 50518.96
1175.170, 50494.48
1176.257, 50644.42
1177.344, 50656.68
1178.431, 50502.89
1179.518, 50349.80
1180.605, 50512.29
1181.691, 50375.68
1182.778, 50660.00
1183.864, 50484.00
1184.950, 50643.00
1186.036, 50567.00
1187.122, 50448.00
1188.207, 50427.00
1189.292, 50438.00
1190.378, 50637.00
1191.463, 50527.00
1192.548, 50333.00
1193.632, 50605.00
1194.717, 50541.00
1195.801, 50639.00
1196.886, 50326.00
1197.970, 50445.00
1199.054, 50050.00
1200.137, 50370.00
1201.221, 50454.00
1202.305, 50494.00
1203.388, 50577.98
1204.471, 50483.00
1205.554, 50529.00
1206.637, 50394.00
1207.719, 50301.00
1208.802, 50327.83
1209.884, 50525.00
1210.966, 50205.00
1212.048, 50496.00
1213.130, 50185.00
1214.212, 50436.00
1215.293, 50305.00
1216.374, 50658.00
1217.456, 50554.00
1218.536, 50568.00
1219.617, 50669.40
1220.698, 50246.00
1221.778, 50688.00
1222.859, 50448.00
1223.939, 50395.00
1225.019, 50604.00
1226.099, 50367.00
1227.178, 50492.00
1228.258, 50263.00
1229.337, 50398.00
1230.417, 50331.00
1231.496, 50335.00
1232.574, 50581.00
1233.653, 50294.00
1234.732, 50498.00
1235.810, 50541.00
1236.888, 50375.00
1237.966, 50416.00
1239.044, 50414.00
1240.122, 50149.00
1241.199, 50563.00
1242.277, 50370.00
1243.354, 50476.00
1244.431, 50329.00
1245.508, 50475.00
1246.585, 50528.00
1247.661, 50645.00
1248.738, 50427.00
1249.814, 50342.00
1250.890, 50558.00
1251.966, 50505.00
1253.042, 50747.00
1254.117, 50364.00
1255.193, 50540.00
1256.268, 50543.00
1257.343, 50408.00
1258.418, 50565.38
1259.493, 50488.15
1260.567, 50655.00
1261.642, 50550.00
1262.716, 50480.00
1263.790, 50671.00
1264.864, 50803.00
1265.938, 50578.00
1267.011, 50386.00
1268.085, 50651.13
1269.158, 50828.26
1270.231, 50930.11
1271.304, 50960.73
1272.377, 50706.77
1273.450, 50820.29
1274.522, 50786.53
1275.594, 50746.74
1276.666, 50911.97
1277.738, 50699.40
1278.810, 50861.38
1279.882, 50873.84
1280.953, 50954.73
1282.025, 50887.45
1283.096, 50865.93
1284.167, 50992.63
1285.238, 51037.26
1286.308, 50952.91
1287.379, 51038.15
1288.449, 50820.39
1289.519, 50868.52
1290.589, 51031.35
1291.659, 50954.46
1292.729, 51042.40
1293.798, 51067.55
1294.868, 50807.41
1295.937, 51043.44
1297.006, 51064.88
1298.075, 50866.00
1299.143, 51085.02
1300.212, 50916.52
1301.280, 50886.33
1302.348, 50960.25
1303.416, 50925.64
1304.484, 51062.13
1305.552, 51033.79
1306.620, 50990.72
1307.687, 51011.92
1308.754, 50851.00
1309.821, 51027.95
1310.888, 50974.10
1311.955, 51034.97
1313.021, 51121.84
1314.088, 51009.62
1315.154, 51108.18
1316.220, 50879.86
1317.286, 50925.04
1318.352, 50940.78
1319.417, 51131.33
1320.483, 50904.60
1321.548, 50942.19
1322.613, 51092.31
1323.678, 51084.96
1324.743, 51143.46
1325.807, 51007.04
1326.872, 51053.72
1327.936, 51049.93
1329.000, 51220.55
1330.064, 51253.48
1331.128, 51120.36
1332.191, 50987.94
1333.255, 51171.11
1334.318, 51055.16
1335.381, 51100.58
1336.444, 50979.34
1337.507, 51002.00
1338.569, 51022.37
1339.632, 51116.51
1340.694, 50986.97
1341.756, 51147.57
1342.818, 51140.48
1343.880, 51182.79
1344.941, 51219.59
1346.003, 51031.37
1347.064, 51027.62
1348.125, 51287.82
1349.186, 51145.48
1350.247, 51084.38
1351.308, 51081.04
1352.368, 51350.29
1353.428, 51366.16
1354.489, 51079.19
1355.549, 51336.42
1356.608, 51258.84
1357.668, 51280.76
1358.727, 51266.38
1359.787, 51262.74
1360.846, 51122.42
1361.905, 51162.22
1362.964, 51348.47
1364.022, 51285.03
1365.081, 51391.26
1366.139, 51188.29
1367.197, 51168.85
1368.255, 51198.13
1369.313, 51245.17
1370.371, 51150.25
1371.428, 51339.23
1372.486, 51339.19
1373.543, 51175.33
1374.600, 51189.17
1375.657, 51173.50
1376.713, 51465.00
1377.770, 51334.18
1378.826, 51173.46
1379.882, 51347.52
1380.938, 51414.28
1381.994, 51335.96
1383.050, 51334.74
1384.106, 51187.27
1385.161, 51264.06
1386.216, 51263.73
1387.271, 51390.48
1388.326, 51243.59
1389.381, 51411.72
1390.435, 51272.16
1391.490, 51453.05
1392.544, 51306.98
1393.598, 51452.16
1394.652, 51249.71
1395.705, 51298.86
1396.759, 51367.96
1397.812, 51501.48
1398.866, 51387.34
1399.919, 51536.14
1400.972, 51454.19
1402.024, 51522.42
1403.077, 51507.38
1404.129, 51388.09
1405.181, 51562.80
1406.233, 51469.38
1407.285, 51557.00
1408.337, 51351.37
1409.389, 51502.24
1410.440, 51576.36
1411.491, 51634.66
1412.542, 51626.46
1413.593, 51588.64
1414.644, 51597.30
1415.695, 51528.37
1416.745, 51346.10
1417.795, 51398.97
1418.845, 51522.98
1419.895, 51611.73
1420.945, 51461.74
1421.995, 51568.67
1423.044, 51559.93
1424.093, 51660.64
1425.142, 51551.53
1426.191, 51692.22
1427.240, 51497.04
1428.289, 51663.11
1429.337, 51731.15
1430.385, 51430.23
1431.433, 51735.27
1432.481, 51493.19
1433.529, 51573.64
1434.577, 51633.73
1435.624, 51535.49
1436.672, 51745.00
1437.719, 51463.29
1438.766, 51528.23
1439.812, 51721.74
1440.859, 51605.08
1441.905, 51792.45
1442.952, 51674.31
1443.998, 51491.99
1445.044, 51760.30
1446.090, 51564.98
1447.135, 51674.08
1448.181, 51530.12
1449.226, 51816.35
1450.271, 51683.46
1451.316, 51569.97
1452.361, 51689.12
1453.405, 51798.68
1454.450, 51635.50
1455.494, 51677.23
1456.538, 51641.51
1457.582, 51776.31
1458.626, 51871.47
1459.670, 51618.55
1460.713, 51800.74
1461.757, 51681.57
1462.800, 51883.62
1463.843, 51582.52
1464.886, 51592.65
1465.928, 51874.14
1466.971, 51776.93
1468.013, 51918.25
1469.055, 51616.64
1470.097, 51624.28
1471.139, 51876.74
1472.181, 51651.20
1473.222, 51942.62
1474.263, 51723.93
1475.305, 51701.86
1476.346, 51903.60
1477.386, 51772.05
1478.427, 51928.81
1479.468, 51852.96
1480.508, 51979.30
1481.548, 51908.16
1482.588, 51724.49
1483.628, 51971.99
1484.668, 51893.96
1485.707, 51689.20
1486.747, 51854.25
1487.786, 51963.69
1488.825, 51936.95
1489.864, 51998.09
1490.902, 51949.53
1491.941, 51765.86
1492.979, 51818.77
1494.017, 51906.04
1495.055, 51780.42
1496.093, 51836.64
1497.131, 51953.94
1498.168, 51868.80
1499.206, 51826.21
1500.243, 51654.00
1501.280, 51804.56
1502.317, 52035.00
1503.354, 51986.00
1504.390, 51814.00
1505.426, 51860.00
1506.463, 51881.00
1507.499, 51841.00
1508.535, 52130.00
1509.570, 52384.00
1510.606, 51923.00
1511.641, 52017.00
1512.676, 51861.00
1513.711, 51792.00
1514.746, 51949.00
1515.781, 52057.00
1516.816, 51987.62
1517.850, 52119.00
1518.884, 51883.00
1519.918, 51849.00
1520.952, 51748.00
1521.986, 52123.00
1523.019, 52192.00
1524.053, 52022.00
1525.086, 51970.00
1526.119, 52098.00
1527.152, 52308.00
1528.185, 52064.00
1529.217, 52280.00
1530.250, 52060.00
1531.282, 52096.00
1532.314, 52207.00
1533.346, 52083.31
1534.377, 52085.00
1535.409, 51976.00
1536.440, 51964.00
1537.472, 51814.00
1538.503, 51930.00
1539.534, 51951.47
1540.564, 52117.05
1541.595, 52207.34
1542.625, 52226.41
1543.656, 51960.90
1544.686, 52062.87
1545.716, 52017.57
1546.745, 51966.24
1547.775, 52119.93
1548.804, 51895.82
1549.834, 52046.25
1550.863, 52047.18
1551.892, 52116.54
1552.920, 52037.73
1553.949, 52004.68
1554.977, 52119.86
1556.006, 52152.96
1557.034, 52057.09
1558.062, 52130.81
1559.089, 51901.54
1560.117, 51938.15
1561.144, 52426.00
1562.172, 52368.00
1563.199, 51930.00
1564.226, 52203.00
1565.252, 51903.00
1566.279, 51889.00
1567.305, 52163.00
1568.332, 51982.00
1569.358, 52251.00
1570.384, 52200.00
##END=



