##NAMES=Annite
##RRUFFID=R060211
##IDEAL CHEMISTRY=KFe^2+^_3_AlSi_3_O_10_(OH)_2_
##LOCALITY=Mont Saint-Hilaire, Rouville County, Quebec, Canada
##OWNER=RRUFF
##SOURCE=Royal Ontario Museum
##DESCRIPTION=Black mica
##STATUS=The identification of this mineral has been confirmed by X-ray diffraction and chemical analysis
##URL=rruff.info/R060211
##MEASURED CHEMISTRY=(K_0.94_[box]_0.03_Na_0.02_)_Σ=1_(Fe^2+^_2.07_Mg_0.57_Mn_0.33_Ti_0.03_)_Σ=3_(Si_2.98_Al_1.02_)O_10_((OH)_1.72_F_0.28_)_Σ=2_
##PIN_ID=M00144
##ORIENTATION=Laser parallel to (-1 0 -1). Fiducial mark perpendicular to laser is parallel to -b [0 -1 0]
307.1510, 21104.00
308.3580, 21184.00
309.5660, 21114.00
310.7730, 21087.00
311.9800, 21142.00
313.1870, 21135.00
314.3940, 21016.00
315.6010, 21114.00
316.8070, 21245.00
318.0130, 20977.00
319.2200, 21133.00
320.4260, 21397.00
321.6310, 21897.00
322.8370, 21220.00
324.0430, 21638.00
325.2480, 21607.00
326.4540, 21499.00
327.6590, 21456.00
328.8640, 21421.00
330.0680, 21694.00
331.2730, 21471.00
332.4780, 21475.00
333.6820, 21312.00
334.8860, 21604.00
336.0900, 21579.00
337.2940, 21691.00
338.4980, 21697.00
339.7010, 21735.00
340.9050, 21871.00
342.1080, 21811.00
343.3110, 21858.00
344.5140, 21865.00
345.7170, 21885.45
346.9200, 22106.00
348.1220, 21981.00
349.3240, 22033.00
350.5270, 22124.00
351.7290, 21919.00
352.9310, 22155.00
354.1320, 22065.00
355.3340, 21972.00
356.5350, 22071.00
357.7370, 21947.00
358.9380, 21841.00
360.1390, 22067.00
361.3400, 22104.00
362.5400, 22144.00
363.7410, 21875.00
364.9410, 21854.00
366.1410, 21849.00
367.3410, 21883.00
368.5410, 22019.00
369.7410, 22022.00
370.9400, 21998.00
372.1400, 21995.00
373.3390, 21966.00
374.5380, 21864.00
375.7370, 21871.74
376.9360, 21943.00
378.1350, 21844.00
379.3330, 21922.00
380.5310, 21957.00
381.7300, 22106.00
382.9280, 22154.64
384.1260, 22172.00
385.3230, 22266.00
386.5210, 22367.00
387.7180, 22328.00
388.9160, 22347.03
390.1130, 22566.38
391.3100, 22710.45
392.5060, 22783.24
393.7030, 22571.51
394.9000, 22727.24
396.0960, 22735.67
397.2920, 22603.00
398.4880, 22575.00
399.6840, 22734.00
400.8800, 22649.00
402.0750, 22547.01
403.2710, 22694.00
404.4660, 22765.73
405.6610, 22766.23
406.8560, 22482.16
408.0510, 22565.56
409.2450, 22501.71
410.4400, 22431.81
411.6340, 22479.00
412.8280, 22230.00
414.0220, 22154.00
415.2160, 22075.00
416.4100, 22233.00
417.6030, 22445.00
418.7970, 22076.00
419.9900, 22069.00
421.1830, 21823.00
422.3760, 22105.00
423.5690, 21863.00
424.7610, 21889.00
425.9540, 21761.00
427.1460, 21874.00
428.3380, 21805.00
429.5300, 21757.00
430.7220, 21785.00
431.9140, 21708.00
433.1050, 21547.00
434.2970, 21330.00
435.4880, 21378.00
436.6790, 21573.00
437.8700, 21442.00
439.0610, 21315.00
440.2510, 21395.00
441.4420, 21194.00
442.6320, 21358.00
443.8220, 21368.00
445.0120, 21433.00
446.2020, 21305.00
447.3910, 21284.00
448.5810, 21450.00
449.7700, 21311.00
450.9600, 21444.00
452.1490, 21462.00
453.3370, 21434.00
454.5260, 21540.00
455.7150, 21533.58
456.9030, 21583.06
458.0910, 21582.00
459.2800, 21649.00
460.4670, 21649.00
461.6550, 21625.00
462.8430, 21721.34
464.0300, 21810.74
465.2180, 21875.00
466.4050, 22051.00
467.5920, 22134.00
468.7790, 22163.00
469.9650, 22312.86
471.1520, 22383.00
472.3380, 22461.00
473.5250, 22455.00
474.7110, 22377.00
475.8970, 22368.00
477.0820, 22549.00
478.2680, 22671.00
479.4540, 22730.72
480.6390, 22953.00
481.8240, 22925.00
483.0090, 22841.00
484.1940, 22972.00
485.3780, 23134.00
486.5630, 23094.98
487.7470, 23154.00
488.9320, 23245.00
490.1160, 23294.35
491.3000, 23320.45
492.4830, 23369.00
493.6670, 23348.00
494.8500, 23450.00
496.0340, 23474.00
497.2170, 23494.00
498.4000, 23606.00
499.5820, 23624.00
500.7650, 23791.00
501.9480, 23566.00
503.1300, 23746.00
504.3120, 23596.00
505.4940, 23743.19
506.6760, 23624.00
507.8580, 24038.00
509.0390, 23899.00
510.2210, 23985.00
511.4020, 24003.00
512.5830, 24019.16
513.7640, 24246.00
514.9450, 24152.00
516.1250, 24232.00
517.3060, 24340.00
518.4860, 24547.00
519.6660, 24466.00
520.8460, 24342.00
522.0260, 24493.33
523.2060, 24654.00
524.3850, 24694.00
525.5650, 24736.00
526.7440, 24969.00
527.9230, 24754.00
529.1020, 25041.00
530.2810, 25107.00
531.4590, 25011.00
532.6380, 25128.83
533.8160, 24948.00
534.9940, 25060.00
536.1720, 25055.00
537.3500, 24913.00
538.5270, 25059.00
539.7050, 24821.00
540.8820, 24777.00
542.0590, 24923.00
543.2360, 24813.00
544.4130, 25090.00
545.5900, 24799.00
546.7660, 24763.00
547.9430, 24340.00
549.1190, 24415.00
550.2950, 24283.00
551.4710, 24439.00
552.6470, 24104.00
553.8220, 23913.00
554.9980, 23984.00
556.1730, 24097.00
557.3480, 23838.39
558.5230, 23855.09
559.6980, 23453.00
560.8730, 23568.00
562.0470, 23422.00
563.2220, 23171.00
564.3960, 23444.00
565.5700, 23124.42
566.7440, 23583.00
567.9170, 22802.00
569.0910, 23119.28
570.2640, 23034.00
571.4380, 22999.00
572.6110, 22714.00
573.7840, 22575.00
574.9570, 22525.00
576.1290, 22389.00
577.3020, 22485.00
578.4740, 22502.00
579.6460, 22327.00
580.8180, 22256.00
581.9900, 22436.00
583.1620, 22124.00
584.3330, 22205.00
585.5040, 22504.00
586.6760, 22290.00
587.8470, 22055.00
589.0180, 22298.00
590.1880, 22102.39
591.3590, 22243.00
592.5290, 22099.00
593.7000, 22234.00
594.8700, 22327.00
596.0400, 22157.00
597.2090, 22410.00
598.3790, 22336.00
599.5490, 22345.00
600.7180, 22602.00
601.8870, 22305.00
603.0560, 22616.00
604.2250, 22578.00
605.3940, 22539.00
606.5620, 22601.00
607.7300, 22786.00
608.8990, 22736.00
610.0670, 22716.00
611.2350, 22875.60
612.4020, 22834.00
613.5700, 23035.00
614.7370, 22813.00
615.9050, 22696.00
617.0720, 22885.00
618.2390, 23007.00
619.4060, 22947.00
620.5720, 23314.00
621.7390, 23092.00
622.9050, 22942.00
624.0710, 22962.00
625.2370, 23217.00
626.4030, 23134.00
627.5690, 23151.00
628.7340, 23165.00
629.9000, 23140.00
631.0650, 23307.00
632.2300, 23447.00
633.3950, 23639.00
634.5600, 23634.00
635.7240, 23795.26
636.8890, 23819.14
638.0530, 24051.00
639.2170, 23851.00
640.3810, 24065.00
641.5450, 24065.00
642.7080, 24161.00
643.8720, 24487.00
645.0350, 24578.00
646.1980, 24922.00
647.3610, 24881.00
648.5240, 25210.00
649.6870, 25389.00
650.8490, 25905.00
652.0120, 25941.00
653.1740, 26495.00
654.3360, 26722.00
655.4980, 27021.00
656.6600, 27444.00
657.8210, 27761.00
658.9830, 28226.00
660.1440, 28713.00
661.3050, 28963.00
662.4660, 29105.00
663.6270, 29545.00
664.7870, 29977.00
665.9480, 30179.00
667.1080, 30057.00
668.2680, 30016.00
669.4280, 29978.00
670.5880, 29840.00
671.7480, 29593.00
672.9070, 29317.00
674.0670, 29023.00
675.2260, 28817.00
676.3850, 29283.00
677.5440, 28678.22
678.7030, 28409.01
679.8610, 28009.00
681.0200, 27538.00
682.1780, 27378.00
683.3360, 27398.00
684.4940, 27253.00
685.6520, 27186.00
686.8090, 27018.00
687.9670, 27015.00
689.1240, 27255.00
690.2810, 27440.00
691.4380, 27367.66
692.5950, 26951.00
693.7520, 27254.00
694.9080, 27344.00
696.0650, 27275.00
697.2210, 27504.00
698.3770, 27445.00
699.5330, 27469.00
700.6880, 27851.00
701.8440, 28210.00
702.9990, 27871.00
704.1550, 28088.00
705.3100, 28089.00
706.4650, 27864.00
707.6190, 28171.00
708.7740, 28375.00
709.9290, 28362.00
711.0830, 28236.00
712.2370, 28249.00
713.3910, 28095.00
714.5450, 28055.00
715.6980, 28212.00
716.8520, 28103.17
718.0050, 28344.00
719.1580, 28033.00
720.3110, 27741.00
721.4640, 27560.00
722.6170, 27622.00
723.7700, 27314.00
724.9220, 27400.00
726.0740, 26960.00
727.2260, 27175.00
728.3780, 26932.00
729.5300, 26960.00
730.6810, 26722.00
731.8330, 26767.00
732.9840, 26856.00
734.1350, 26637.00
735.2860, 26581.00
736.4370, 26649.00
737.5880, 26603.00
738.7380, 26870.00
739.8880, 26668.00
741.0390, 26905.00
742.1890, 26868.00
743.3380, 27069.00
744.4880, 26988.00
745.6380, 26822.00
746.7870, 27072.00
747.9360, 27241.00
749.0850, 27217.00
750.2340, 27351.00
751.3830, 27293.00
752.5310, 27322.00
753.6800, 27657.00
754.8280, 27598.98
755.9760, 27617.00
757.1240, 27740.00
758.2720, 27719.00
759.4190, 27770.00
760.5670, 27739.00
761.7140, 27602.38
762.8610, 27661.14
764.0080, 27644.63
765.1550, 27556.89
766.3020, 27184.58
767.4480, 27179.83
768.5950, 27027.72
769.7410, 26869.67
770.8870, 26916.64
772.0330, 26585.81
773.1780, 26629.64
774.3240, 26523.85
775.4690, 26486.58
776.6140, 26301.14
777.7590, 26161.47
778.9040, 26170.01
780.0490, 26096.49
781.1940, 25894.00
782.3380, 25861.18
783.4820, 25525.37
784.6260, 25455.44
785.7700, 25500.22
786.9140, 25305.28
788.0580, 25275.17
789.2010, 25182.38
790.3450, 24804.18
791.4880, 24735.00
792.6310, 24568.00
793.7730, 24307.00
794.9160, 24236.00
796.0590, 24101.00
797.2010, 24051.00
798.3430, 23967.98
799.4850, 23879.46
800.6270, 23868.00
801.7690, 23684.00
802.9100, 23694.00
804.0520, 23516.00
805.1930, 23352.00
806.3340, 23407.00
807.4750, 23318.00
808.6160, 23213.00
809.7560, 23287.00
810.8970, 23137.00
812.0370, 23095.00
813.1770, 23130.00
814.3170, 23113.00
815.4570, 23050.00
816.5960, 23111.00
817.7360, 23019.00
818.8750, 22996.00
820.0140, 23078.00
821.1530, 23087.00
822.2920, 23093.00
823.4310, 23148.00
824.5690, 23183.00
825.7070, 23122.00
826.8460, 23152.00
827.9840, 23157.00
829.1220, 23196.00
830.2590, 23112.00
831.3970, 23179.00
832.5340, 23194.00
833.6710, 23011.00
834.8080, 23156.00
835.9450, 23321.00
837.0820, 23215.00
838.2190, 23090.00
839.3550, 23350.00
840.4910, 23347.00
841.6270, 23069.71
842.7630, 23290.23
843.8990, 23435.47
845.0350, 23509.49
846.1700, 23298.88
847.3060, 23455.79
848.4410, 23465.38
849.5760, 23468.95
850.7100, 23677.49
851.8450, 23508.27
852.9800, 23713.60
854.1140, 23769.38
855.2480, 23893.58
856.3820, 23869.62
857.5160, 23750.00
858.6500, 23666.00
859.7830, 23504.00
860.9170, 23635.00
862.0500, 23840.00
863.1830, 23984.00
864.3160, 24034.00
865.4480, 24510.00
866.5810, 24030.00
867.7130, 24055.00
868.8460, 24042.00
869.9780, 24483.00
871.1100, 24269.00
872.2410, 24316.00
873.3730, 24446.00
874.5050, 24536.00
875.6360, 24439.00
876.7670, 24449.00
877.8980, 24365.00
879.0290, 24685.00
880.1590, 24458.00
881.2900, 24744.00
882.4200, 24764.00
883.5500, 24769.00
884.6800, 24852.00
885.8100, 24715.00
886.9400, 24691.00
888.0690, 24700.00
889.1990, 24679.67
890.3280, 24745.51
891.4570, 24804.00
892.5860, 24848.00
893.7140, 25049.00
894.8430, 25017.00
895.9710, 25118.00
897.1000, 24975.00
898.2280, 25211.00
899.3560, 25104.00
900.4830, 25369.00
901.6110, 25235.00
902.7380, 25477.00
903.8660, 25353.00
904.9930, 25443.00
906.1200, 25486.00
907.2460, 25446.00
908.3730, 25550.00
909.5000, 25490.00
910.6260, 25591.00
911.7520, 25563.00
912.8780, 25483.00
914.0040, 25795.00
915.1290, 25765.00
916.2550, 25895.00
917.3800, 25789.00
918.5050, 25829.00
919.6300, 26201.00
920.7550, 25937.00
921.8800, 26176.00
923.0040, 26185.18
924.1290, 26100.00
925.2530, 26187.00
926.3770, 26227.00
927.5010, 26157.00
928.6250, 26371.00
929.7480, 26268.00
930.8720, 26182.00
931.9950, 26452.00
933.1180, 26572.00
934.2410, 26455.00
935.3640, 26396.00
936.4860, 26532.00
937.6090, 26596.00
938.7310, 26579.83
939.8530, 26689.89
940.9750, 26685.00
942.0970, 26650.00
943.2180, 26681.12
944.3400, 26557.00
945.4610, 26603.00
946.5820, 26688.00
947.7030, 26549.00
948.8240, 26539.00
949.9450, 26638.00
951.0650, 26574.00
952.1860, 26511.00
953.3060, 26490.00
954.4260, 26457.00
955.5460, 26601.00
956.6650, 26268.46
957.7850, 26428.39
958.9040, 26513.06
960.0230, 26526.50
961.1420, 26255.36
962.2610, 26351.70
963.3800, 26300.76
964.4990, 26243.79
965.6170, 26391.86
966.7350, 26162.12
967.8530, 26306.93
968.9710, 26302.23
970.0890, 26403.00
971.2070, 26071.00
972.3240, 26332.00
973.4410, 26429.00
974.5580, 26371.00
975.6750, 26165.00
976.7920, 26393.00
977.9090, 26292.00
979.0250, 26481.00
980.1410, 26467.00
981.2580, 26531.27
982.3740, 26717.00
983.4890, 26651.00
984.6050, 26577.00
985.7200, 26581.14
986.8360, 26560.00
987.9510, 26704.00
989.0660, 26735.00
990.1810, 26941.00
991.2950, 26792.00
992.4100, 26981.00
993.5240, 27093.00
994.6390, 26759.00
995.7530, 26875.00
996.8660, 27002.00
997.9800, 27246.00
999.0940, 27389.00
1000.207, 27272.00
1001.320, 27491.00
1002.433, 27709.00
1003.546, 27619.33
1004.659, 27840.51
1005.772, 27726.00
1006.884, 27887.00
1007.996, 28257.00
1009.108, 27942.00
1010.220, 28230.00
1011.332, 28330.00
1012.444, 28195.98
1013.555, 28393.44
1014.666, 28515.62
1015.777, 28566.57
1016.888, 28332.94
1017.999, 28466.78
1019.110, 28453.36
1020.220, 28433.88
1021.331, 28338.00
1022.441, 28273.00
1023.551, 28061.00
1024.661, 28224.00
1025.770, 27926.00
1026.880, 28277.00
1027.989, 27903.00
1029.098, 27747.00
1030.207, 27801.00
1031.316, 28066.00
1032.425, 27912.32
1033.533, 27993.12
1034.642, 27795.00
1035.750, 27922.00
1036.858, 27762.00
1037.966, 27679.00
1039.073, 27658.00
1040.181, 27672.00
1041.288, 27586.00
1042.396, 27585.00
1043.503, 27426.00
1044.610, 27585.00
1045.716, 27711.00
1046.823, 27420.00
1047.929, 27534.00
1049.036, 27652.00
1050.142, 27710.00
1051.248, 27794.00
1052.353, 27568.00
1053.459, 27567.00
1054.564, 27530.00
1055.670, 27547.00
1056.775, 27580.00
1057.880, 27622.00
1058.985, 27768.00
1060.089, 27758.00
1061.194, 27673.00
1062.298, 27400.00
1063.402, 27496.00
1064.506, 27634.00
1065.610, 27485.00
1066.713, 27589.00
1067.817, 27624.00
1068.920, 27524.00
1070.023, 27561.00
1071.126, 27410.00
1072.229, 27331.00
1073.332, 27391.16
1074.435, 27357.12
1075.537, 27510.00
1076.639, 27395.00
1077.741, 27477.00
1078.843, 27378.00
1079.945, 27025.00
1081.046, 26984.00
1082.148, 27004.00
1083.249, 26927.00
1084.350, 26863.00
1085.451, 26690.00
1086.551, 26789.00
1087.652, 26852.00
1088.752, 26560.00
1089.853, 26739.00
1090.953, 26786.00
1092.053, 26696.00
1093.152, 26779.00
1094.252, 26668.00
1095.351, 26782.00
1096.451, 26679.00
1097.550, 26645.23
1098.649, 26474.00
1099.748, 26482.00
1100.846, 26635.00
1101.945, 26469.00
1103.043, 26469.00
1104.141, 26304.00
1105.239, 26397.00
1106.337, 26818.00
1107.434, 26484.00
1108.532, 26582.00
1109.629, 26512.00
1110.726, 26387.00
1111.823, 26256.00
1112.920, 26339.00
1114.017, 26458.00
1115.113, 26463.00
1116.210, 26350.00
1117.306, 26469.00
1118.402, 26407.23
1119.498, 26246.00
1120.593, 26468.00
1121.689, 26400.00
1122.784, 26593.00
1123.879, 26286.00
1124.974, 26307.00
1126.069, 26341.00
1127.164, 26327.00
1128.259, 26157.00
1129.353, 26327.00
1130.447, 26461.00
1131.541, 26129.00
1132.635, 26276.00
1133.729, 26334.00
1134.822, 26279.00
1135.916, 26348.00
1137.009, 26255.00
1138.102, 26375.00
1139.195, 26307.00
1140.288, 26282.00
1141.380, 26147.00
1142.473, 26007.00
1143.565, 26089.00
1144.657, 26364.00
1145.749, 26426.00
1146.841, 26238.00
1147.932, 26090.00
1149.024, 26400.00
1150.115, 26309.00
1151.206, 26292.00
1152.297, 26208.00
1153.388, 26063.00
1154.479, 26299.00
1155.569, 26066.00
1156.659, 26190.00
1157.750, 26078.00
1158.839, 26322.00
1159.929, 26245.00
1161.019, 26209.00
1162.108, 26408.00
1163.198, 25960.00
1164.287, 26451.00
1165.376, 26477.00
1166.465, 26235.00
1167.553, 26333.00
1168.642, 26339.00
1169.730, 26334.00
1170.818, 26320.00
1171.906, 26268.00
1172.994, 26268.00
1174.082, 26233.70
1175.170, 26246.94
1176.257, 26197.00
1177.344, 26276.00
1178.431, 26297.00
1179.518, 26290.00
1180.605, 26343.00
1181.691, 26209.00
1182.778, 26247.29
1183.864, 26239.00
1184.950, 26215.00
1186.036, 26317.00
1187.122, 26296.00
1188.207, 26306.00
1189.292, 26202.00
1190.378, 26276.00
1191.463, 26274.00
1192.548, 26386.00
1193.632, 26110.00
1194.717, 26443.00
1195.801, 26350.00
1196.886, 26487.00
1197.970, 26190.00
1199.054, 26117.00
1200.137, 26471.00
1201.221, 26340.98
1202.305, 26451.75
1203.388, 26484.00
1204.471, 26544.00
1205.554, 26510.00
1206.637, 26562.00
1207.719, 26580.55
1208.802, 26571.00
1209.884, 26581.00
1210.966, 26594.00
1212.048, 26484.00
1213.130, 26457.00
1214.212, 26493.21
1215.293, 26509.00
1216.374, 26526.00
1217.456, 26626.00
1218.536, 26527.00
1219.617, 26582.00
1220.698, 26406.00
1221.778, 26628.00
1222.859, 26534.00
1223.939, 26492.00
1225.019, 26611.00
1226.099, 26716.00
1227.178, 26623.00
1228.258, 26588.00
1229.337, 26618.61
1230.417, 26585.20
1231.496, 26636.00
1232.574, 26596.00
1233.653, 26631.00
1234.732, 26617.00
1235.810, 26918.00
1236.888, 26786.00
1237.966, 26923.00
1239.044, 26620.00
1240.122, 26887.00
1241.199, 26839.00
1242.277, 26776.67
1243.354, 26664.00
1244.431, 26729.00
1245.508, 26592.00
1246.585, 26588.00
1247.661, 26644.00
1248.738, 26614.83
1249.814, 26829.00
1250.890, 26700.00
1251.966, 26775.00
1253.042, 26857.00
1254.117, 26749.00
1255.193, 26909.00
1256.268, 26818.00
1257.343, 26930.00
1258.418, 26973.00
1259.493, 26880.00
1260.567, 26910.00
1261.642, 26878.42
1262.716, 27048.61
1263.790, 27143.52
1264.864, 27167.21
1265.938, 26906.32
1267.011, 27012.90
1268.085, 26972.21
1269.158, 26925.49
1270.231, 27083.79
1271.304, 26864.29
1272.377, 27019.34
1273.450, 27024.88
1274.522, 27098.85
1275.594, 27024.64
1276.666, 26996.19
1277.738, 27115.97
1278.810, 27153.68
1279.882, 27062.42
1280.953, 27140.73
1282.025, 27016.00
1283.096, 27230.00
1284.167, 27123.00
1285.238, 27120.00
1286.308, 27033.00
1287.379, 27391.00
1288.449, 27171.00
1289.519, 27448.00
1290.589, 27483.00
1291.659, 27416.00
1292.729, 27598.00
1293.798, 27573.00
1294.868, 27452.00
1295.937, 27324.00
1297.006, 27391.00
1298.075, 27514.00
1299.143, 27397.09
1300.212, 27576.29
1301.280, 27680.19
1302.348, 27712.87
1303.416, 27460.97
1304.484, 27576.54
1305.552, 27544.85
1306.620, 27507.12
1307.687, 27674.40
1308.754, 27463.89
1309.821, 27627.92
1310.888, 27642.44
1311.955, 27725.39
1313.021, 27660.15
1314.088, 27640.70
1315.154, 27769.45
1316.220, 27816.13
1317.286, 27733.84
1318.352, 27821.13
1319.417, 27605.43
1320.483, 27655.61
1321.548, 27820.50
1322.613, 27745.65
1323.678, 27835.64
1324.743, 27862.86
1325.807, 27604.75
1326.872, 27791.10
1327.936, 27717.00
1329.000, 27879.00
1330.064, 27878.00
1331.128, 27892.00
1332.191, 27790.00
1333.255, 27761.00
1334.318, 27959.00
1335.381, 27839.00
1336.444, 28017.00
1337.507, 27713.00
1338.569, 27728.00
1339.632, 27683.00
1340.694, 27997.00
1341.756, 27743.00
1342.818, 27948.00
1343.880, 27919.00
1344.941, 27882.00
1346.003, 28058.19
1347.064, 28007.64
1348.125, 28181.00
1349.186, 28106.00
1350.247, 27894.73
1351.308, 28032.00
1352.368, 27788.00
1353.428, 28063.00
1354.489, 28276.00
1355.549, 28237.00
1356.608, 28091.00
1357.668, 27874.00
1358.727, 28330.00
1359.787, 28115.00
1360.846, 28202.00
1361.905, 28148.00
1362.964, 28127.00
1364.022, 28064.00
1365.081, 28094.50
1366.139, 28081.00
1367.197, 28157.00
1368.255, 28151.00
1369.313, 28173.67
1370.371, 28354.00
1371.428, 28320.00
1372.486, 28367.00
1373.543, 28455.00
1374.600, 28454.00
1375.657, 28396.00
1376.713, 28415.00
1377.770, 28426.49
1378.826, 28374.00
1379.882, 28495.00
1380.938, 28473.00
1381.994, 28522.00
1383.050, 28395.00
1384.106, 28449.35
1385.161, 28430.00
1386.216, 28488.00
1387.271, 28609.00
1388.326, 28662.00
1389.381, 28526.00
1390.435, 28341.00
1391.490, 28471.00
1392.544, 28523.00
1393.598, 28603.00
1394.652, 28535.00
1395.705, 28490.00
1396.759, 28617.00
1397.812, 28863.00
1398.866, 28474.00
1399.919, 28691.00
1400.972, 29178.00
1402.024, 28805.00
1403.077, 28731.00
1404.129, 28692.00
1405.181, 28846.00
1406.233, 28886.00
1407.285, 28881.82
1408.337, 28938.00
1409.389, 28883.00
1410.440, 28764.00
1411.491, 28766.00
1412.542, 28867.00
1413.593, 28723.00
1414.644, 28787.00
1415.695, 28959.00
1416.745, 28673.00
1417.795, 28923.00
1418.845, 29044.00
1419.895, 28895.00
1420.945, 28780.00
1421.995, 28781.00
1423.044, 29042.00
1424.093, 28928.00
1425.142, 29143.00
1426.191, 28944.00
1427.240, 29007.00
1428.289, 29068.00
1429.337, 28993.00
1430.385, 29031.00
1431.433, 29181.00
1432.481, 29007.00
1433.529, 29061.19
1434.577, 29506.00
1435.624, 29112.00
1436.672, 28910.00
1437.719, 29204.00
1438.766, 29048.00
1439.812, 29226.00
1440.859, 29172.00
1441.905, 29359.00
1442.952, 29313.00
1443.998, 29558.00
1445.044, 29223.00
1446.090, 29200.00
1447.135, 29105.00
1448.181, 29208.00
1449.226, 29309.00
1450.271, 29355.00
1451.316, 29417.00
1452.361, 29472.00
1453.405, 29420.00
1454.450, 29376.00
1455.494, 29467.00
1456.538, 29506.00
1457.582, 29195.00
1458.626, 29439.00
1459.670, 29529.00
1460.713, 29325.00
1461.757, 29534.00
1462.800, 29356.00
1463.843, 29385.00
1464.886, 29803.00
1465.928, 29868.00
1466.971, 29614.00
1468.013, 29663.00
1469.055, 29428.00
1470.097, 29482.00
1471.139, 29665.00
1472.181, 29549.00
1473.222, 29518.00
1474.263, 29619.00
1475.305, 29683.00
1476.346, 29748.00
1477.386, 29618.00
1478.427, 29748.00
1479.468, 29703.00
1480.508, 29552.00
1481.548, 29917.00
1482.588, 29763.00
1483.628, 29544.00
1484.668, 29817.00
1485.707, 29860.00
1486.747, 29565.00
1487.786, 29941.00
1488.825, 29694.00
1489.864, 29779.41
1490.902, 29961.08
1491.941, 30067.48
1492.979, 30102.64
1494.017, 29853.23
1495.055, 29971.28
1496.093, 29942.07
1497.131, 29906.82
1498.168, 30076.59
1499.206, 29868.57
1500.243, 30035.08
1501.280, 30052.08
1502.317, 30137.51
1503.354, 30074.77
1504.390, 30057.78
1505.426, 30189.01
1506.463, 30238.18
1507.499, 30158.37
1508.535, 30248.14
1509.570, 30034.91
1510.606, 30087.57
1511.641, 30254.93
1512.676, 30182.56
1513.711, 30275.03
1514.746, 30304.72
1515.781, 30049.10
1516.816, 30289.66
1517.850, 30254.00
1518.884, 30283.36
1519.918, 30360.13
1520.952, 30244.00
1521.986, 30358.76
1523.019, 30385.00
1524.053, 30170.00
1525.086, 30039.00
1526.119, 30113.00
1527.152, 30323.00
1528.185, 30397.00
1529.217, 30427.35
1530.250, 30421.00
1531.282, 30390.00
1532.314, 30321.00
1533.346, 30205.00
1534.377, 30312.96
1535.409, 30318.00
1536.440, 30468.00
1537.472, 30233.26
1538.503, 30417.37
1539.534, 30526.21
1540.564, 30563.80
1541.595, 30316.83
1542.625, 30437.32
1543.656, 30410.56
1544.686, 30377.74
1545.716, 30549.95
1546.745, 30344.35
1547.775, 30513.30
1548.804, 30532.74
1549.834, 30620.61
1550.863, 30560.30
1551.892, 30545.75
1552.920, 30679.41
1553.949, 30731.02
1554.977, 30653.63
1556.006, 30745.84
1557.034, 30535.05
1558.062, 30590.14
1559.089, 30759.93
1560.117, 30689.99
1561.144, 30784.89
1562.172, 30817.02
1563.199, 30563.82
1564.226, 30806.81
1565.252, 30835.21
1566.279, 30643.28
1567.305, 30869.26
1568.332, 30707.71
1569.358, 30684.47
1570.384, 30919.00
##END=



