##NAMES=Annite
##RRUFFID=R060204
##IDEAL CHEMISTRY=KFe^2+^_3_AlSi_3_O_10_(OH)_2_
##LOCALITY=Mont Saint-Hilaire, Rouville County, Quebec, Canada
##OWNER=RRUFF
##SOURCE=Royal Ontario Museum
##DESCRIPTION=Black mica with pseudohexagonal outines
##STATUS=The identification of this mineral has been confirmed by X-ray diffraction and chemical analysis
##URL=rruff.info/R060204
##MEASURED CHEMISTRY=(K_0.96_Na_0.04_)_Σ=1_(Fe^2+^_2.04_Mg_0.81_Mn_0.09_Ti_0.03_[box]_0.03_)_Σ=3_(Si_3.00_Al_1.00_)O_10_((OH)_1.54_F_0.46_)_Σ=2_
##PIN_ID=M00366
##ORIENTATION=Laser parallel to -b* (0 -1 0). Fiducial mark perpendicular to laser is parallel to c [0 0 1]
235.6330, 25337.00
236.8490, 25187.00
238.0660, 25409.00
239.2820, 25568.00
240.4980, 25529.00
241.7140, 25408.00
242.9300, 25407.00
244.1460, 25362.00
245.3610, 25344.00
246.5770, 25501.00
247.7920, 25472.00
249.0070, 25630.00
250.2220, 25526.00
251.4370, 25679.25
252.6510, 25900.00
253.8660, 25936.00
255.0800, 25952.00
256.2940, 26116.00
257.5080, 26504.00
258.7220, 26542.88
259.9360, 26519.06
261.1490, 26806.00
262.3630, 26570.00
263.5760, 26567.00
264.7890, 26608.91
266.0020, 26889.00
267.2150, 26543.00
268.4270, 26485.00
269.6400, 26354.00
270.8520, 26655.00
272.0640, 26478.00
273.2760, 26588.00
274.4880, 26715.00
275.7000, 26644.00
276.9120, 26613.00
278.1230, 26364.00
279.3340, 26614.00
280.5450, 26611.00
281.7560, 26280.00
282.9670, 26264.00
284.1780, 26204.00
285.3880, 26318.00
286.5980, 26170.00
287.8090, 25861.00
289.0190, 26191.00
290.2290, 26164.00
291.4380, 26023.00
292.6480, 26282.00
293.8570, 26559.00
295.0670, 26519.00
296.2760, 26542.00
297.4850, 26708.00
298.6930, 26566.13
299.9020, 26347.00
301.1110, 26375.00
302.3190, 26340.00
303.5270, 26220.00
304.7350, 26067.00
305.9430, 26101.00
307.1510, 26096.00
308.3580, 25924.00
309.5660, 26220.00
310.7730, 26004.00
311.9800, 26294.00
313.1870, 26221.00
314.3940, 26059.00
315.6010, 26375.00
316.8070, 26161.00
318.0130, 26363.00
319.2200, 26212.00
320.4260, 26516.00
321.6310, 26335.00
322.8370, 26378.00
324.0430, 26433.00
325.2480, 26456.00
326.4540, 26521.00
327.6590, 26597.00
328.8640, 26607.00
330.0680, 26682.00
331.2730, 26606.56
332.4780, 26603.00
333.6820, 26460.00
334.8860, 26418.00
336.0900, 26395.00
337.2940, 26503.00
338.4980, 26495.00
339.7010, 26726.00
340.9050, 26699.41
342.1080, 26728.71
343.3110, 26788.00
344.5140, 26741.00
345.7170, 26880.00
346.9200, 26976.00
348.1220, 27004.00
349.3240, 26947.00
350.5270, 27051.00
351.7290, 26980.00
352.9310, 27166.00
354.1320, 27293.00
355.3340, 27290.00
356.5350, 27389.00
357.7370, 27600.00
358.9380, 27639.00
360.1390, 27824.00
361.3400, 27799.00
362.5400, 27842.00
363.7410, 28220.00
364.9410, 28240.00
366.1410, 28361.00
367.3410, 28754.00
368.5410, 28757.00
369.7410, 28907.00
370.9400, 29126.00
372.1400, 29465.00
373.3390, 30519.00
374.5380, 30475.64
375.7370, 30864.00
376.9360, 30907.00
378.1350, 31015.00
379.3330, 31234.00
380.5310, 31375.00
381.7300, 32229.00
382.9280, 32539.00
384.1260, 32839.00
385.3230, 33480.00
386.5210, 33835.00
387.7180, 34094.00
388.9160, 34840.00
390.1130, 35041.00
391.3100, 35206.00
392.5060, 35474.00
393.7030, 35351.00
394.9000, 35772.00
396.0960, 35738.00
397.2920, 35361.00
398.4880, 34634.00
399.6840, 34463.00
400.8800, 33686.10
402.0750, 34173.00
403.2710, 32792.00
404.4660, 32263.00
405.6610, 32888.00
406.8560, 31233.00
408.0510, 30875.00
409.2450, 30621.00
410.4400, 30067.00
411.6340, 29622.00
412.8280, 29428.00
414.0220, 29056.00
415.2160, 28828.00
416.4100, 28609.00
417.6030, 28339.53
418.7970, 28113.00
419.9900, 27936.00
421.1830, 27798.00
422.3760, 27696.00
423.5690, 27701.00
424.7610, 27768.00
425.9540, 27586.00
427.1460, 27686.00
428.3380, 27420.00
429.5300, 27085.00
430.7220, 27397.00
431.9140, 27257.00
433.1050, 27221.00
434.2970, 27002.00
435.4880, 27232.00
436.6790, 27200.00
437.8700, 27203.00
439.0610, 27191.00
440.2510, 27215.00
441.4420, 27222.40
442.6320, 27241.75
443.8220, 27296.00
445.0120, 27320.00
446.2020, 27437.00
447.3910, 27546.00
448.5810, 27424.00
449.7700, 27538.00
450.9600, 27762.00
452.1490, 27652.00
453.3370, 27786.00
454.5260, 28179.00
455.7150, 28271.00
456.9030, 28504.00
458.0910, 28381.00
459.2800, 28638.00
460.4670, 28920.00
461.6550, 29217.00
462.8430, 29538.00
464.0300, 29940.00
465.2180, 30360.46
466.4050, 30800.00
467.5920, 31379.00
468.7790, 31933.00
469.9650, 32613.00
471.1520, 33391.00
472.3380, 34242.57
473.5250, 35181.00
474.7110, 36223.00
475.8970, 37296.00
477.0820, 38462.00
478.2680, 39535.00
479.4540, 39882.00
480.6390, 40098.00
481.8240, 40221.00
483.0090, 39734.00
484.1940, 39344.00
485.3780, 38584.00
486.5630, 38002.00
487.7470, 37229.00
488.9320, 36686.00
490.1160, 36056.00
491.3000, 35527.00
492.4830, 34994.00
493.6670, 34693.00
494.8500, 34217.00
496.0340, 34139.00
497.2170, 33854.00
498.4000, 34097.00
499.5820, 33673.00
500.7650, 34083.00
501.9480, 34234.00
503.1300, 34311.00
504.3120, 34529.00
505.4940, 34599.00
506.6760, 35018.00
507.8580, 35217.00
509.0390, 35303.00
510.2210, 35376.00
511.4020, 35419.00
512.5830, 34931.00
513.7640, 35091.00
514.9450, 34613.00
516.1250, 34541.00
517.3060, 34250.00
518.4860, 34045.00
519.6660, 33944.00
520.8460, 33540.00
522.0260, 33414.00
523.2060, 33042.00
524.3850, 32378.00
525.5650, 32313.00
526.7440, 32068.00
527.9230, 31826.00
529.1020, 31859.00
530.2810, 31542.00
531.4590, 31566.00
532.6380, 31413.00
533.8160, 31030.00
534.9940, 31077.00
536.1720, 30789.00
537.3500, 30544.00
538.5270, 30515.00
539.7050, 30355.43
540.8820, 30227.00
542.0590, 30285.00
543.2360, 30168.00
544.4130, 30210.00
545.5900, 30373.00
546.7660, 30160.00
547.9430, 30128.00
549.1190, 30108.00
550.2950, 29926.00
551.4710, 29979.00
552.6470, 29867.00
553.8220, 29753.00
554.9980, 29938.00
556.1730, 30122.00
557.3480, 29877.00
558.5230, 30014.00
559.6980, 29882.00
560.8730, 29781.00
562.0470, 29778.85
563.2220, 29716.06
564.3960, 29675.00
565.5700, 29607.00
566.7440, 29606.00
567.9170, 29366.00
569.0910, 29509.00
570.2640, 29566.00
571.4380, 29761.00
572.6110, 29874.00
573.7840, 29669.00
574.9570, 30072.00
576.1290, 29809.27
577.3020, 29768.35
578.4740, 29502.00
579.6460, 29526.00
580.8180, 29376.00
581.9900, 29338.00
583.1620, 29383.00
584.3330, 29531.00
585.5040, 29628.00
586.6760, 29735.00
587.8470, 29756.29
589.0180, 29820.00
590.1880, 29761.00
591.3590, 29852.00
592.5290, 29879.00
593.7000, 29966.00
594.8700, 30195.00
596.0400, 30279.00
597.2090, 30449.55
598.3790, 30651.00
599.5490, 30791.00
600.7180, 31012.00
601.8870, 31247.56
603.0560, 31170.00
604.2250, 31666.00
605.3940, 31581.00
606.5620, 31781.00
607.7300, 32033.00
608.8990, 32446.00
610.0670, 32622.00
611.2350, 32977.00
612.4020, 33296.00
613.5700, 33969.00
614.7370, 34351.00
615.9050, 34890.00
617.0720, 35278.00
618.2390, 35853.00
619.4060, 36442.00
620.5720, 37030.00
621.7390, 37819.00
622.9050, 38489.21
624.0710, 39269.00
625.2370, 39997.00
626.4030, 40662.00
627.5690, 41405.00
628.7340, 42074.00
629.9000, 42844.00
631.0650, 43215.99
632.2300, 43594.00
633.3950, 43817.00
634.5600, 43787.00
635.7240, 43856.00
636.8890, 43599.00
638.0530, 43304.00
639.2170, 43143.00
640.3810, 42742.00
641.5450, 41919.00
642.7080, 41669.00
643.8720, 40877.00
645.0350, 40210.00
646.1980, 39563.00
647.3610, 39339.00
648.5240, 38670.00
649.6870, 38621.00
650.8490, 38642.00
652.0120, 38103.00
653.1740, 37812.00
654.3360, 37426.00
655.4980, 37619.00
656.6600, 37176.00
657.8210, 37334.00
658.9830, 37568.00
660.1440, 37305.00
661.3050, 37488.00
662.4660, 37782.00
663.6270, 38022.00
664.7870, 38416.00
665.9480, 38929.00
667.1080, 39107.00
668.2680, 39282.00
669.4280, 39984.00
670.5880, 40207.00
671.7480, 40699.00
672.9070, 41102.00
674.0670, 41127.00
675.2260, 41321.00
676.3850, 41627.00
677.5440, 41486.00
678.7030, 41874.00
679.8610, 41585.00
681.0200, 41792.00
682.1780, 41985.00
683.3360, 41634.00
684.4940, 41724.00
685.6520, 41370.00
686.8090, 41150.00
687.9670, 41182.00
689.1240, 41081.27
690.2810, 41017.80
691.4380, 41167.00
692.5950, 40847.00
693.7520, 40818.00
694.9080, 40542.00
696.0650, 40159.00
697.2210, 39595.43
698.3770, 38649.00
699.5330, 38051.00
700.6880, 37256.00
701.8440, 36262.00
702.9990, 35921.00
704.1550, 35438.00
705.3100, 35068.00
706.4650, 34978.00
707.6190, 34536.00
708.7740, 34502.00
709.9290, 34432.00
711.0830, 34124.46
712.2370, 33895.00
713.3910, 33802.00
714.5450, 33569.00
715.6980, 33656.00
716.8520, 33395.00
718.0050, 33069.00
719.1580, 33313.00
720.3110, 32995.00
721.4640, 32753.00
722.6170, 32728.00
723.7700, 32589.00
724.9220, 32541.00
726.0740, 32161.00
727.2260, 32437.00
728.3780, 32037.00
729.5300, 32064.00
730.6810, 31906.00
731.8330, 32074.00
732.9840, 31937.00
734.1350, 31734.00
735.2860, 31558.00
736.4370, 31496.00
737.5880, 31408.00
738.7380, 31377.00
739.8880, 31343.00
741.0390, 31296.00
742.1890, 31268.94
743.3380, 31235.00
744.4880, 31271.00
745.6380, 31234.00
746.7870, 31376.00
747.9360, 31394.00
749.0850, 31379.71
750.2340, 31365.00
751.3830, 31296.00
752.5310, 31243.00
753.6800, 31106.00
754.8280, 31177.00
755.9760, 31248.00
757.1240, 31199.00
758.2720, 31421.00
759.4190, 31308.00
760.5670, 31278.00
761.7140, 31530.00
762.8610, 31374.00
764.0080, 31484.00
765.1550, 31559.00
766.3020, 31428.00
767.4480, 31425.00
768.5950, 31370.00
769.7410, 31471.00
770.8870, 31519.00
772.0330, 31463.00
773.1780, 31656.00
774.3240, 31506.00
775.4690, 31598.00
776.6140, 31487.00
777.7590, 31451.00
778.9040, 31346.00
780.0490, 31395.00
781.1940, 31503.00
782.3380, 31338.00
783.4820, 31308.00
784.6260, 31199.00
785.7700, 31285.00
786.9140, 31138.00
788.0580, 31098.00
789.2010, 31367.00
790.3450, 31097.00
791.4880, 31239.00
792.6310, 31179.00
793.7730, 31079.15
794.9160, 30895.00
796.0590, 30980.00
797.2010, 31022.00
798.3430, 31060.00
799.4850, 30958.00
800.6270, 30969.00
801.7690, 30816.00
802.9100, 30741.00
804.0520, 30798.00
805.1930, 30644.00
806.3340, 30773.00
807.4750, 30526.00
808.6160, 30321.00
809.7560, 30665.00
810.8970, 30606.00
812.0370, 31101.00
813.1770, 31026.00
814.3170, 30519.00
815.4570, 30785.00
816.5960, 30723.00
817.7360, 30439.00
818.8750, 30429.00
820.0140, 30544.00
821.1530, 30537.00
822.2920, 30476.00
823.4310, 30512.00
824.5690, 30727.00
825.7070, 30435.00
826.8460, 30688.00
827.9840, 30536.00
829.1220, 30735.00
830.2590, 30672.00
831.3970, 30701.00
832.5340, 30615.00
833.6710, 30548.00
834.8080, 30659.00
835.9450, 30709.00
837.0820, 30742.00
838.2190, 30768.23
839.3550, 30734.00
840.4910, 30781.00
841.6270, 30680.00
842.7630, 30720.00
843.8990, 30673.00
845.0350, 30630.00
846.1700, 30826.00
847.3060, 30757.00
848.4410, 30978.00
849.5760, 31037.00
850.7100, 30851.00
851.8450, 30809.00
852.9800, 31015.00
854.1140, 31248.00
855.2480, 30900.00
856.3820, 31051.00
857.5160, 30853.00
858.6500, 31105.00
859.7830, 30998.00
860.9170, 31040.00
862.0500, 31085.00
863.1830, 31137.00
864.3160, 31375.00
865.4480, 31163.00
866.5810, 31367.00
867.7130, 31250.00
868.8460, 30934.00
869.9780, 31135.00
871.1100, 31292.00
872.2410, 31166.00
873.3730, 31322.00
874.5050, 31387.00
875.6360, 31166.00
876.7670, 31352.00
877.8980, 31395.00
879.0290, 31249.00
880.1590, 31693.00
881.2900, 31904.00
882.4200, 31413.00
883.5500, 31601.00
884.6800, 31616.00
885.8100, 31438.00
886.9400, 31593.00
888.0690, 31703.00
889.1990, 31472.00
890.3280, 31825.00
891.4570, 31918.00
892.5860, 31993.00
893.7140, 32126.00
894.8430, 32095.00
895.9710, 31907.00
897.1000, 31994.00
898.2280, 32058.00
899.3560, 31976.00
900.4830, 32121.00
901.6110, 32127.00
902.7380, 32164.00
903.8660, 32070.00
904.9930, 32379.00
906.1200, 32295.00
907.2460, 32504.00
908.3730, 32424.00
909.5000, 32422.00
910.6260, 32413.00
911.7520, 32428.00
912.8780, 32513.00
914.0040, 32554.14
915.1290, 32590.71
916.2550, 32673.00
917.3800, 32653.00
918.5050, 32623.00
919.6300, 32621.00
920.7550, 32867.00
921.8800, 32778.00
923.0040, 33113.00
924.1290, 33160.00
925.2530, 33020.00
926.3770, 33074.00
927.5010, 33229.00
928.6250, 33202.00
929.7480, 33106.00
930.8720, 33173.00
931.9950, 33270.00
933.1180, 33419.00
934.2410, 33395.00
935.3640, 33468.00
936.4860, 33543.00
937.6090, 33438.00
938.7310, 33412.00
939.8530, 33888.00
940.9750, 33696.22
942.0970, 33811.00
943.2180, 33781.00
944.3400, 33772.00
945.4610, 33998.00
946.5820, 34105.00
947.7030, 34007.00
948.8240, 34140.00
949.9450, 34342.00
951.0650, 34360.00
952.1860, 34130.00
953.3060, 34258.00
954.4260, 34095.00
955.5460, 34284.00
956.6650, 34046.00
957.7850, 34339.00
958.9040, 34563.00
960.0230, 34295.00
961.1420, 34940.00
962.2610, 34561.00
963.3800, 34421.00
964.4990, 34141.00
965.6170, 34513.00
966.7350, 34654.00
967.8530, 34351.00
968.9710, 34610.19
970.0890, 34645.18
971.2070, 34669.00
972.3240, 34908.00
973.4410, 34940.00
974.5580, 35035.00
975.6750, 35077.00
976.7920, 35226.00
977.9090, 35276.00
979.0250, 35205.00
980.1410, 35340.00
981.2580, 35305.00
982.3740, 35718.00
983.4890, 35860.00
984.6050, 36032.00
985.7200, 36181.00
986.8360, 35959.00
987.9510, 36031.00
989.0660, 36099.00
990.1810, 35967.00
991.2950, 35994.00
992.4100, 36015.00
993.5240, 35896.00
994.6390, 35989.00
995.7530, 36363.00
996.8660, 36436.00
997.9800, 36340.00
999.0940, 36609.00
1000.207, 36559.00
1001.320, 36960.00
1002.433, 36838.00
1003.546, 37191.00
1004.659, 37096.00
1005.772, 36993.00
1006.884, 37216.00
1007.996, 37376.00
1009.108, 37650.00
1010.220, 37746.00
1011.332, 37968.74
1012.444, 38137.00
1013.555, 38325.00
1014.666, 38642.00
1015.777, 38787.00
1016.888, 38908.56
1017.999, 38973.00
1019.110, 38986.00
1020.220, 39095.00
1021.331, 38976.00
1022.441, 38974.00
1023.551, 39042.00
1024.661, 39064.32
1025.770, 39044.00
1026.880, 39165.00
1027.989, 39230.00
1029.098, 39107.00
1030.207, 38887.00
1031.316, 38823.53
1032.425, 38829.00
1033.533, 38511.00
1034.642, 38699.00
1035.750, 38564.00
1036.858, 38383.00
1037.966, 38377.00
1039.073, 38331.00
1040.181, 38257.81
1041.288, 38296.98
1042.396, 38252.00
1043.503, 38319.73
1044.610, 38476.69
1045.716, 38434.00
1046.823, 38417.00
1047.929, 38349.37
1049.036, 38319.84
1050.142, 38108.00
1051.248, 38290.00
1052.353, 38226.00
1053.459, 38322.00
1054.564, 38405.00
1055.670, 38588.00
1056.775, 38413.00
1057.880, 38270.00
1058.985, 38210.00
1060.089, 38477.00
1061.194, 38426.00
1062.298, 38391.00
1063.402, 38501.00
1064.506, 38499.20
1065.610, 38627.00
1066.713, 38585.00
1067.817, 38592.00
1068.920, 38551.00
1070.023, 38462.00
1071.126, 38528.00
1072.229, 38534.00
1073.332, 38495.00
1074.435, 38763.00
1075.537, 38968.00
1076.639, 38928.00
1077.741, 38885.00
1078.843, 39192.00
1079.945, 39458.00
1081.046, 39718.00
1082.148, 40277.00
1083.249, 41107.00
1084.350, 41711.00
1085.451, 41761.00
1086.551, 41591.00
1087.652, 40396.00
1088.752, 39952.00
1089.853, 39820.00
1090.953, 39477.00
1092.053, 39375.00
1093.152, 39595.00
1094.252, 39431.00
1095.351, 39373.00
1096.451, 39088.00
1097.550, 39108.00
1098.649, 39025.00
1099.748, 39045.00
1100.846, 39062.24
1101.945, 39040.00
1103.043, 39124.00
1104.141, 39067.00
1105.239, 39078.00
1106.337, 39013.00
1107.434, 38761.00
1108.532, 38898.00
1109.629, 38830.00
1110.726, 38965.00
1111.823, 38856.00
1112.920, 38730.00
1114.017, 38651.00
1115.113, 38511.00
1116.210, 38516.00
1117.306, 38489.00
1118.402, 38513.00
1119.498, 38731.00
1120.593, 38834.00
1121.689, 38689.00
1122.784, 38765.00
1123.879, 38718.00
1124.974, 38715.00
1126.069, 38592.00
1127.164, 38455.00
1128.259, 38417.00
1129.353, 38636.00
1130.447, 38307.00
1131.541, 38291.00
1132.635, 38571.00
1133.729, 38486.00
1134.822, 38459.00
1135.916, 38709.00
1137.009, 38689.00
1138.102, 38608.00
1139.195, 38570.00
1140.288, 38484.00
1141.380, 38391.39
1142.473, 38326.00
1143.565, 38237.00
1144.657, 38185.41
1145.749, 38025.00
1146.841, 38034.00
1147.932, 38044.00
1149.024, 37861.00
1150.115, 37785.00
1151.206, 37928.00
1152.297, 37716.00
1153.388, 37650.00
1154.479, 37672.00
1155.569, 37791.00
1156.659, 37680.00
1157.750, 37720.00
1158.839, 37649.00
1159.929, 37585.00
1161.019, 37648.00
1162.108, 37835.00
1163.198, 37789.00
1164.287, 37973.00
1165.376, 37767.00
1166.465, 37831.79
1167.553, 37794.00
1168.642, 37837.00
1169.730, 37949.00
1170.818, 38050.52
1171.906, 37802.00
1172.994, 38158.00
1174.082, 37969.00
1175.170, 38098.00
1176.257, 37791.00
1177.344, 38045.00
1178.431, 38052.00
1179.518, 37882.00
1180.605, 38004.00
1181.691, 37976.00
1182.778, 38019.00
1183.864, 38280.00
1184.950, 38300.00
1186.036, 37985.00
1187.122, 38423.00
1188.207, 38373.00
1189.292, 38167.00
1190.378, 38331.00
1191.463, 38500.00
1192.548, 38339.00
1193.632, 38171.00
1194.717, 38200.00
1195.801, 37991.00
1196.886, 38386.00
1197.970, 38503.00
1199.054, 38589.00
1200.137, 38579.00
1201.221, 38481.00
1202.305, 38706.00
1203.388, 38555.00
1204.471, 38722.00
1205.554, 38519.00
1206.637, 38610.00
1207.719, 38621.00
1208.802, 38592.00
1209.884, 38601.00
1210.966, 38599.00
1212.048, 38700.23
1213.130, 38759.57
1214.212, 38917.00
1215.293, 38978.00
1216.374, 39025.00
1217.456, 39162.00
1218.536, 38839.00
1219.617, 38866.00
1220.698, 39039.00
1221.778, 38706.00
1222.859, 39277.00
1223.939, 39092.00
1225.019, 38977.00
1226.099, 39417.00
1227.178, 39433.00
1228.258, 39164.00
1229.337, 39636.00
1230.417, 39562.00
1231.496, 39224.00
1232.574, 39380.00
1233.653, 39440.00
1234.732, 39327.00
1235.810, 39113.00
1236.888, 39586.00
1237.966, 39307.00
1239.044, 39420.00
1240.122, 39613.00
1241.199, 39598.00
1242.277, 40134.00
1243.354, 39748.00
1244.431, 39629.00
1245.508, 39695.00
1246.585, 40079.00
1247.661, 39874.00
1248.738, 39784.00
1249.814, 39666.00
1250.890, 39796.00
1251.966, 39917.00
1253.042, 40030.00
1254.117, 40213.00
1255.193, 40009.00
1256.268, 40450.00
1257.343, 40168.00
1258.418, 40292.00
1259.493, 40072.00
1260.567, 40017.00
1261.642, 40008.00
1262.716, 40207.00
1263.790, 40268.00
1264.864, 40481.00
1265.938, 40427.00
1267.011, 40432.00
1268.085, 40463.00
1269.158, 40711.00
1270.231, 40691.00
1271.304, 40716.00
1272.377, 40765.00
1273.450, 40398.00
1274.522, 40664.00
1275.594, 40392.00
1276.666, 40477.00
1277.738, 40629.00
1278.810, 40668.00
1279.882, 40742.44
1280.953, 40697.00
1282.025, 40898.00
1283.096, 40866.00
1284.167, 41077.00
1285.238, 40892.00
1286.308, 40994.00
1287.379, 41071.26
1288.449, 41109.68
1289.519, 41243.00
1290.589, 41316.00
1291.659, 41406.00
1292.729, 41448.00
1293.798, 41469.00
1294.868, 41751.00
1295.937, 41791.00
1297.006, 41664.00
1298.075, 42325.00
1299.143, 41735.00
1300.212, 41703.00
1301.280, 41898.00
1302.348, 41598.00
1303.416, 41956.00
1304.484, 41863.00
1305.552, 41860.00
1306.620, 41914.00
1307.687, 42000.00
1308.754, 42295.00
1309.821, 41802.00
1310.888, 42259.00
1311.955, 42099.00
1313.021, 42338.00
1314.088, 41964.00
1315.154, 41846.00
1316.220, 42190.00
1317.286, 42204.00
1318.352, 42513.00
1319.417, 42458.00
1320.483, 42771.00
1321.548, 42557.00
1322.613, 42654.00
1323.678, 42585.00
1324.743, 42824.00
1325.807, 42750.00
1326.872, 42736.00
1327.936, 42575.00
1329.000, 42611.00
1330.064, 42592.00
1331.128, 42952.00
1332.191, 43188.00
1333.255, 43110.00
1334.318, 43384.00
1335.381, 43045.00
1336.444, 42996.00
1337.507, 43251.00
1338.569, 43179.00
1339.632, 43356.00
1340.694, 43174.00
1341.756, 43147.00
1342.818, 43053.00
1343.880, 43078.38
1344.941, 43242.00
1346.003, 43298.00
1347.064, 43445.69
1348.125, 43781.00
1349.186, 43508.00
1350.247, 43760.00
1351.308, 43556.00
1352.368, 43407.00
1353.428, 43666.00
1354.489, 43378.00
1355.549, 43551.00
1356.608, 43722.00
1357.668, 43537.00
1358.727, 43728.00
1359.787, 43931.00
1360.846, 43819.00
1361.905, 43958.00
1362.964, 43915.00
1364.022, 43862.00
1365.081, 43821.00
1366.139, 44017.00
1367.197, 43532.00
1368.255, 43654.00
1369.313, 43562.00
1370.371, 43917.00
1371.428, 43967.00
1372.486, 43980.00
1373.543, 44090.00
1374.600, 44177.00
1375.657, 44151.00
1376.713, 44251.00
1377.770, 44135.00
1378.826, 43886.00
1379.882, 44071.00
1380.938, 43917.00
1381.994, 43862.00
1383.050, 44083.00
1384.106, 43883.00
1385.161, 43985.00
1386.216, 43982.00
1387.271, 44208.00
1388.326, 44368.00
1389.381, 44234.00
1390.435, 44150.00
1391.490, 44161.37
1392.544, 44094.18
1393.598, 44084.00
1394.652, 44099.00
1395.705, 44113.00
1396.759, 44184.00
1397.812, 44217.73
1398.866, 44340.00
1399.919, 44306.00
1400.972, 44409.16
1402.024, 44402.00
1403.077, 44536.00
1404.129, 44469.00
1405.181, 44578.00
1406.233, 44376.00
1407.285, 44273.00
1408.337, 44314.00
1409.389, 44344.24
1410.440, 44462.00
1411.491, 44642.00
1412.542, 44774.00
1413.593, 44989.00
1414.644, 44831.00
1415.695, 44608.00
1416.745, 44805.00
1417.795, 44910.00
1418.845, 45010.00
1419.895, 44683.00
1420.945, 45000.00
1421.995, 44571.00
1423.044, 44465.00
1424.093, 44656.00
1425.142, 44730.00
1426.191, 44755.00
1427.240, 44979.00
1428.289, 45259.00
1429.337, 45330.00
1430.385, 44946.00
1431.433, 45099.00
1432.481, 44957.00
1433.529, 45097.00
1434.577, 45342.00
1435.624, 45097.00
1436.672, 45294.00
1437.719, 45109.00
1438.766, 45012.00
1439.812, 45323.00
1440.859, 45370.00
1441.905, 45637.00
1442.952, 45663.00
1443.998, 45378.00
1445.044, 45661.00
1446.090, 45488.00
1447.135, 45381.00
1448.181, 45509.00
1449.226, 45338.00
1450.271, 45459.49
1451.316, 45449.37
1452.361, 45633.00
1453.405, 45593.00
1454.450, 45662.00
1455.494, 45669.00
1456.538, 45609.39
1457.582, 45611.00
1458.626, 45628.00
1459.670, 45569.00
1460.713, 45886.00
1461.757, 45644.00
1462.800, 45841.00
1463.843, 45827.00
1464.886, 45801.00
1465.928, 45948.00
1466.971, 45881.00
1468.013, 46209.00
1469.055, 46181.00
1470.097, 46369.00
1471.139, 46210.00
1472.181, 46062.00
1473.222, 46335.00
1474.263, 46096.00
1475.305, 45997.00
1476.346, 46130.00
1477.386, 46335.00
1478.427, 46648.00
1479.468, 46321.00
1480.508, 46411.00
1481.548, 46487.00
1482.588, 46346.00
1483.628, 46421.00
1484.668, 46341.00
1485.707, 46546.00
1486.747, 46395.00
1487.786, 46591.00
1488.825, 46430.00
1489.864, 46457.00
1490.902, 46608.00
1491.941, 46628.00
1492.979, 46581.00
1494.017, 46659.00
1495.055, 46632.00
1496.093, 46596.00
1497.131, 46983.00
1498.168, 46754.00
1499.206, 47132.00
1500.243, 46932.00
1501.280, 46952.00
1502.317, 46932.00
1503.354, 47228.00
1504.390, 47252.00
1505.426, 47095.00
1506.463, 47435.00
1507.499, 47145.00
1508.535, 47438.00
1509.570, 47447.00
1510.606, 47570.00
1511.641, 47395.00
1512.676, 47500.00
1513.711, 47341.00
1514.746, 47299.00
1515.781, 47607.00
1516.816, 47481.00
1517.850, 47736.00
1518.884, 47840.00
1519.918, 47924.00
1520.952, 47940.00
1521.986, 47793.00
1523.019, 48335.00
1524.053, 48150.00
1525.086, 48199.00
1526.119, 48429.00
1527.152, 47915.00
1528.185, 48460.00
1529.217, 48210.00
1530.250, 48225.00
1531.282, 48277.00
1532.314, 48674.00
1533.346, 48613.00
1534.377, 48683.00
1535.409, 48547.00
1536.440, 48801.00
1537.472, 48692.00
1538.503, 48923.00
1539.534, 48672.00
1540.564, 48812.00
1541.595, 48920.00
1542.625, 49126.00
1543.656, 48847.00
1544.686, 49295.00
1545.716, 49215.00
1546.745, 49079.00
1547.775, 49894.00
1548.804, 49932.00
1549.834, 49736.00
1550.863, 49619.00
1551.892, 49963.00
1552.920, 50104.00
1553.949, 50104.00
1554.977, 50430.00
1556.006, 50041.00
1557.034, 49909.00
1558.062, 49488.00
1559.089, 49886.00
1560.117, 49841.00
1561.144, 49925.00
1562.172, 50157.00
1563.199, 50120.00
1564.226, 50242.00
1565.252, 50377.00
1566.279, 50291.00
1567.305, 50351.00
1568.332, 54927.00
1569.358, 50410.00
1570.384, 50667.00
##END=



