##NAMES=Annite
##RRUFFID=R060211
##IDEAL CHEMISTRY=KFe^2+^_3_AlSi_3_O_10_(OH)_2_
##LOCALITY=Mont Saint-Hilaire, Rouville County, Quebec, Canada
##OWNER=RRUFF
##SOURCE=Royal Ontario Museum
##DESCRIPTION=Black mica
##STATUS=The identification of this mineral has been confirmed by X-ray diffraction and chemical analysis
##URL=rruff.info/R060211
##MEASURED CHEMISTRY=(K_0.94_[box]_0.03_Na_0.02_)_Σ=1_(Fe^2+^_2.07_Mg_0.57_Mn_0.33_Ti_0.03_)_Σ=3_(Si_2.98_Al_1.02_)O_10_((OH)_1.72_F_0.28_)_Σ=2_
##PIN_ID=M00144
##ORIENTATION=Laser parallel to (-1 0 -1). Fiducial mark perpendicular to laser is parallel to -b [0 -1 0]
307.1510, 16181.00
308.3580, 16268.00
309.5660, 16081.00
310.7730, 16097.00
311.9800, 16027.00
313.1870, 16072.00
314.3940, 16101.00
315.6010, 16330.00
316.8070, 16112.00
318.0130, 16306.00
319.2200, 16240.00
320.4260, 16214.00
321.6310, 16230.00
322.8370, 16387.00
324.0430, 16188.88
325.2480, 16378.27
326.4540, 16492.39
327.6590, 16535.27
328.8640, 16293.58
330.0680, 16419.34
331.2730, 16397.85
332.4780, 16370.32
333.6820, 16547.80
334.8860, 16347.49
336.0900, 16521.71
337.2940, 16546.43
338.4980, 16639.58
339.7010, 16584.53
340.9050, 16575.27
342.1080, 16714.21
343.3110, 16771.09
344.5140, 16698.98
345.7170, 16796.46
346.9200, 16590.96
348.1220, 16651.31
349.3240, 16826.38
350.5270, 16761.73
351.7290, 16861.90
352.9310, 16899.29
354.1320, 16651.37
355.3340, 16899.63
356.5350, 16933.30
357.7370, 16746.66
358.9380, 16977.91
360.1390, 16821.62
361.3400, 16803.66
362.5400, 16889.79
363.7410, 16867.41
364.9410, 17016.11
366.1410, 16999.99
367.3410, 16779.00
368.5410, 16860.00
369.7410, 16830.00
370.9400, 16884.00
372.1400, 16876.00
373.3390, 17001.00
374.5380, 16835.00
375.7370, 16851.00
376.9360, 17121.00
378.1350, 16994.00
379.3330, 16887.00
380.5310, 17004.00
381.7300, 17042.00
382.9280, 17087.00
384.1260, 16998.00
385.3230, 16949.00
386.5210, 17129.00
387.7180, 17183.00
388.9160, 17064.00
390.1130, 17002.00
391.3100, 16997.00
392.5060, 17389.00
393.7030, 17146.00
394.9000, 17305.00
396.0960, 17150.00
397.2920, 17336.00
398.4880, 17197.00
399.6840, 17082.00
400.8800, 17094.00
402.0750, 17004.00
403.2710, 17124.00
404.4660, 17268.00
405.6610, 17124.00
406.8560, 16947.11
408.0510, 17077.46
409.2450, 17132.58
410.4400, 17116.43
411.6340, 16815.74
412.8280, 16882.51
414.0220, 16802.03
415.2160, 16715.50
416.4100, 16834.00
417.6030, 16574.73
418.7970, 16689.98
419.9900, 16655.75
421.1830, 16689.95
422.3760, 16575.97
423.5690, 16423.00
424.7610, 16450.09
425.9540, 16511.00
427.1460, 16465.00
428.3380, 16413.00
429.5300, 16404.00
430.7220, 16347.75
431.9140, 16334.13
433.1050, 16257.00
434.2970, 16310.00
435.4880, 16262.00
436.6790, 16270.00
437.8700, 16291.00
439.0610, 16479.00
440.2510, 16208.00
441.4420, 16484.00
442.6320, 16353.99
443.8220, 16303.00
445.0120, 16255.00
446.2020, 16249.00
447.3910, 16261.00
448.5810, 16414.00
449.7700, 16486.00
450.9600, 16393.00
452.1490, 16487.00
453.3370, 16439.17
454.5260, 16479.00
455.7150, 16411.00
456.9030, 16346.00
458.0910, 16388.00
459.2800, 16620.00
460.4670, 16522.00
461.6550, 16624.00
462.8430, 16543.00
464.0300, 16558.00
465.2180, 16570.00
466.4050, 16734.00
467.5920, 16707.00
468.7790, 16765.00
469.9650, 16686.00
471.1520, 16932.00
472.3380, 16931.00
473.5250, 16983.46
474.7110, 17124.00
475.8970, 17086.00
477.0820, 17125.00
478.2680, 17203.00
479.4540, 17177.00
480.6390, 17367.00
481.8240, 17212.00
483.0090, 17359.57
484.1940, 17666.00
485.3780, 17405.00
486.5630, 17582.00
487.7470, 17339.00
488.9320, 17496.00
490.1160, 17664.00
491.3000, 17572.00
492.4830, 17640.00
493.6670, 17498.00
494.8500, 17720.00
496.0340, 17788.00
497.2170, 17871.00
498.4000, 17863.59
499.5820, 17737.00
500.7650, 17806.00
501.9480, 17701.00
503.1300, 17814.00
504.3120, 17835.00
505.4940, 17772.00
506.6760, 17633.00
507.8580, 17856.00
509.0390, 17902.00
510.2210, 18082.00
511.4020, 18093.00
512.5830, 18141.00
513.7640, 18150.50
514.9450, 17989.00
516.1250, 18054.00
517.3060, 17975.00
518.4860, 17859.00
519.6660, 18043.00
520.8460, 17901.00
522.0260, 18098.00
523.2060, 18073.00
524.3850, 18165.00
525.5650, 18230.00
526.7440, 18151.00
527.9230, 18115.00
529.1020, 18214.00
530.2810, 18178.00
531.4590, 18024.00
532.6380, 18018.00
533.8160, 17981.00
534.9940, 18109.00
536.1720, 17905.00
537.3500, 17977.00
538.5270, 17832.00
539.7050, 18028.00
540.8820, 17774.00
542.0590, 17740.00
543.2360, 17763.00
544.4130, 17595.00
545.5900, 17591.00
546.7660, 17582.00
547.9430, 17604.00
549.1190, 17429.00
550.2950, 17379.00
551.4710, 17464.00
552.6470, 17205.00
553.8220, 17255.00
554.9980, 17330.00
556.1730, 17061.00
557.3480, 17195.00
558.5230, 16970.00
559.6980, 17021.00
560.8730, 16953.00
562.0470, 16982.00
563.2220, 16735.86
564.3960, 16876.00
565.5700, 16940.87
566.7440, 16934.50
567.9170, 16643.58
569.0910, 16720.11
570.2640, 16649.40
571.4380, 16572.62
572.6110, 16700.90
573.7840, 16451.38
574.9570, 16576.40
576.1290, 16551.94
577.3020, 16595.88
578.4740, 16239.00
579.6460, 16424.00
580.8180, 16508.00
581.9900, 16355.00
583.1620, 16320.00
584.3330, 16422.00
585.5040, 16371.00
586.6760, 16350.00
587.8470, 16359.04
589.0180, 16359.01
590.1880, 16303.00
591.3590, 16415.00
592.5290, 16378.00
593.7000, 16419.00
594.8700, 16377.00
596.0400, 16411.75
597.2090, 16608.00
598.3790, 16530.00
599.5490, 16594.00
600.7180, 16784.00
601.8870, 16718.00
603.0560, 16983.00
604.2250, 16731.00
605.3940, 16891.00
606.5620, 17214.00
607.7300, 17191.00
608.8990, 16915.00
610.0670, 16989.00
611.2350, 17056.00
612.4020, 16985.00
613.5700, 17046.54
614.7370, 17128.00
615.9050, 17094.00
617.0720, 17085.00
618.2390, 17177.00
619.4060, 17276.00
620.5720, 17136.00
621.7390, 16988.00
622.9050, 17288.00
624.0710, 17294.00
625.2370, 17161.00
626.4030, 17340.00
627.5690, 17346.00
628.7340, 17419.00
629.9000, 17348.32
631.0650, 17656.83
632.2300, 17890.06
633.3950, 18052.07
634.5600, 17929.50
635.7240, 18174.28
636.8890, 18271.91
638.0530, 18363.39
639.2170, 18659.89
640.3810, 18578.59
641.5450, 18871.84
642.7080, 19015.47
643.8720, 19262.22
645.0350, 19535.89
646.1980, 19811.86
647.3610, 20047.00
648.5240, 20478.00
649.6870, 20787.00
650.8490, 21199.00
652.0120, 21639.47
653.1740, 22016.00
654.3360, 22499.00
655.4980, 22829.00
656.6600, 23142.00
657.8210, 23550.00
658.9830, 23854.00
660.1440, 24023.00
661.3050, 24233.79
662.4660, 24506.00
663.6270, 24490.00
664.7870, 24464.00
665.9480, 24639.00
667.1080, 23973.00
668.2680, 23528.00
669.4280, 23671.00
670.5880, 22948.00
671.7480, 22615.00
672.9070, 22314.00
674.0670, 22227.00
675.2260, 21858.00
676.3850, 21479.00
677.5440, 21248.00
678.7030, 20891.53
679.8610, 20675.55
681.0200, 20370.00
682.1780, 20274.00
683.3360, 20208.00
684.4940, 20064.00
685.6520, 19682.00
686.8090, 19632.00
687.9670, 19456.66
689.1240, 19559.00
690.2810, 19321.00
691.4380, 18965.37
692.5950, 19054.86
693.7520, 19069.06
694.9080, 19012.11
696.0650, 18670.51
697.2210, 18696.45
698.3770, 18575.12
699.5330, 18447.75
700.6880, 18525.48
701.8440, 18225.34
702.9990, 18310.00
704.1550, 18358.00
705.3100, 18464.00
706.4650, 18224.00
707.6190, 18153.00
708.7740, 18326.00
709.9290, 17886.00
711.0830, 18023.00
712.2370, 18000.00
713.3910, 17971.00
714.5450, 17783.00
715.6980, 17938.00
716.8520, 17812.00
718.0050, 17708.00
719.1580, 17682.00
720.3110, 17618.00
721.4640, 17435.00
722.6170, 17501.00
723.7700, 17279.00
724.9220, 17323.00
726.0740, 17363.00
727.2260, 17358.00
728.3780, 17394.00
729.5300, 17314.00
730.6810, 17366.00
731.8330, 17235.00
732.9840, 17274.00
734.1350, 17304.18
735.2860, 17299.00
736.4370, 17376.00
737.5880, 17525.00
738.7380, 17498.00
739.8880, 17327.00
741.0390, 17592.00
742.1890, 17555.00
743.3380, 17174.41
744.4880, 17388.90
745.6380, 17528.11
746.7870, 17596.06
747.9360, 17379.43
749.0850, 17530.27
750.2340, 17533.85
751.3830, 17531.38
752.5310, 17733.90
753.6800, 17558.66
754.8280, 17757.94
755.9760, 17807.70
757.1240, 17925.88
758.2720, 17739.00
759.4190, 17747.00
760.5670, 17741.00
761.7140, 17720.17
762.8610, 17726.82
764.0080, 17723.00
765.1550, 17688.00
766.3020, 17691.00
767.4480, 17597.00
768.5950, 17447.00
769.7410, 17493.00
770.8870, 17415.00
772.0330, 17430.00
773.1780, 17367.00
774.3240, 17316.00
775.4690, 17201.00
776.6140, 17191.00
777.7590, 17128.35
778.9040, 16886.49
780.0490, 16997.98
781.1940, 17034.20
782.3380, 16999.23
783.4820, 16679.70
784.6260, 16727.63
785.7700, 16628.30
786.9140, 16522.93
788.0580, 16622.58
789.2010, 16344.49
790.3450, 16440.89
791.4880, 16387.83
792.6310, 16403.21
793.7730, 16270.45
794.9160, 16156.00
796.0590, 16168.00
797.2010, 16114.00
798.3430, 15978.00
799.4850, 15841.00
800.6270, 15833.00
801.7690, 15923.00
802.9100, 15820.00
804.0520, 15901.00
805.1930, 15715.00
806.3340, 15933.00
807.4750, 15759.00
808.6160, 15760.00
809.7560, 15786.00
810.8970, 15724.00
812.0370, 15768.00
813.1770, 15785.00
814.3170, 15799.00
815.4570, 15791.00
816.5960, 15788.12
817.7360, 15730.00
818.8750, 15767.00
820.0140, 15671.24
821.1530, 15839.80
822.2920, 15933.08
823.4310, 15955.14
824.5690, 15692.62
825.7070, 15797.58
826.8460, 15755.27
827.9840, 15706.92
829.1220, 15863.59
830.2590, 15642.47
831.3970, 15795.89
832.5340, 15799.80
833.6710, 15872.15
834.8080, 15796.31
835.9450, 15766.25
837.0820, 15884.40
838.2190, 15991.00
839.3550, 15989.00
840.4910, 16017.00
841.6270, 16158.00
842.7630, 16023.00
843.8990, 15840.00
845.0350, 15986.00
846.1700, 16045.00
847.3060, 16177.00
848.4410, 16051.00
849.5760, 16156.00
850.7100, 15952.00
851.8450, 16128.00
852.9800, 16251.00
854.1140, 16113.00
855.2480, 16195.00
856.3820, 16437.00
857.5160, 16339.00
858.6500, 16558.00
859.7830, 16260.00
860.9170, 16419.00
862.0500, 16468.00
863.1830, 16440.21
864.3160, 16705.00
865.4480, 16485.00
866.5810, 16717.00
867.7130, 16592.00
868.8460, 16808.00
869.9780, 16788.00
871.1100, 16816.00
872.2410, 16806.00
873.3730, 16874.00
874.5050, 16781.00
875.6360, 16878.00
876.7670, 16864.00
877.8980, 16716.00
879.0290, 16951.00
880.1590, 16875.00
881.2900, 17195.00
882.4200, 17033.00
883.5500, 17140.00
884.6800, 16938.68
885.8100, 17144.37
886.9400, 17274.78
888.0690, 17333.93
889.1990, 17108.54
890.3280, 17250.59
891.4570, 17245.37
892.5860, 17234.11
893.7140, 17427.84
894.8430, 17243.81
895.9710, 17434.29
897.1000, 17475.29
898.2280, 17584.69
899.3560, 17545.92
900.4830, 17552.88
901.6110, 17708.09
902.7380, 17781.20
903.8660, 17718.00
904.9930, 17748.00
906.1200, 17806.97
907.2460, 17607.00
908.3730, 17839.00
909.5000, 17863.00
910.6260, 17619.67
911.7520, 17836.49
912.8780, 17978.03
914.0040, 18048.34
915.1290, 17834.03
916.2550, 17987.24
917.3800, 17993.14
918.5050, 17993.00
919.6300, 18197.88
920.7550, 18024.97
921.8800, 18226.60
923.0040, 18278.68
924.1290, 18399.23
925.2530, 18371.56
926.3770, 18389.66
927.5010, 18555.99
928.6250, 18640.24
929.7480, 18595.47
930.8720, 18627.00
931.9950, 18708.00
933.1180, 18755.00
934.2410, 18867.00
935.3640, 18903.00
936.4860, 18969.00
937.6090, 18959.00
938.7310, 18962.00
939.8530, 18878.00
940.9750, 18913.00
942.0970, 18807.00
943.2180, 19033.00
944.3400, 19096.00
945.4610, 19055.25
946.5820, 19077.38
947.7030, 19032.00
948.8240, 18889.00
949.9450, 18921.00
951.0650, 18757.00
952.1860, 18768.00
953.3060, 18862.00
954.4260, 18809.00
955.5460, 18944.00
956.6650, 18867.00
957.7850, 18649.00
958.9040, 18889.00
960.0230, 18689.00
961.1420, 18713.00
962.2610, 18694.00
963.3800, 18707.00
964.4990, 18708.00
965.6170, 18725.00
966.7350, 18795.00
967.8530, 18874.00
968.9710, 18909.00
970.0890, 18789.00
971.2070, 18992.00
972.3240, 18859.00
973.4410, 18847.17
974.5580, 19088.03
975.6750, 19253.60
976.7920, 19347.95
977.9090, 19157.72
979.0250, 19334.90
980.1410, 19364.81
981.2580, 19388.75
982.3740, 19617.65
983.4890, 19468.69
984.6050, 19694.33
985.7200, 19770.41
986.8360, 19914.97
987.9510, 19911.30
989.0660, 19953.39
990.1810, 20143.71
991.2950, 20251.88
992.4100, 20328.00
993.5240, 20409.00
994.6390, 20572.00
995.7530, 20625.00
996.8660, 20767.00
997.9800, 21006.00
999.0940, 21060.00
1000.207, 21271.00
1001.320, 21378.00
1002.433, 21613.00
1003.546, 21806.31
1004.659, 21571.52
1005.772, 21713.23
1006.884, 21779.70
1007.996, 21774.93
1009.108, 21485.59
1010.220, 21563.72
1011.332, 21494.59
1012.444, 21419.41
1013.555, 21549.29
1014.666, 21301.36
1015.777, 21427.99
1016.888, 21405.10
1017.999, 21450.64
1019.110, 21348.01
1020.220, 21291.17
1021.331, 21382.52
1022.441, 21391.83
1023.551, 20998.00
1024.661, 21145.00
1025.770, 20776.00
1026.880, 20722.00
1027.989, 20638.00
1029.098, 20693.00
1030.207, 20359.00
1031.316, 20434.00
1032.425, 20218.00
1033.533, 20191.00
1034.642, 20077.00
1035.750, 20141.00
1036.858, 20064.00
1037.966, 19871.00
1039.073, 19822.00
1040.181, 19980.00
1041.288, 19757.00
1042.396, 19832.00
1043.503, 19727.00
1044.610, 19803.00
1045.716, 19673.00
1046.823, 19683.96
1047.929, 19852.00
1049.036, 19693.00
1050.142, 19641.00
1051.248, 19718.00
1052.353, 19372.00
1053.459, 19574.00
1054.564, 19475.00
1055.670, 19423.00
1056.775, 19539.00
1057.880, 19396.00
1058.985, 19402.00
1060.089, 19358.00
1061.194, 19656.00
1062.298, 19501.46
1063.402, 19386.94
1064.506, 19361.00
1065.610, 19123.00
1066.713, 18988.00
1067.817, 19241.00
1068.920, 19244.00
1070.023, 19081.00
1071.126, 18851.00
1072.229, 18773.64
1073.332, 18898.40
1074.435, 18947.89
1075.537, 18926.20
1076.639, 18619.92
1077.741, 18681.12
1078.843, 18595.05
1079.945, 18502.95
1081.046, 18615.91
1082.148, 18351.03
1083.249, 18460.73
1084.350, 18420.93
1085.451, 18449.55
1086.551, 18330.05
1087.652, 18256.26
1088.752, 18330.75
1089.853, 18323.11
1090.953, 18186.54
1092.053, 18219.56
1093.152, 17949.63
1094.252, 17945.54
1095.351, 18056.20
1096.451, 17927.08
1097.550, 17917.00
1098.649, 18163.00
1099.748, 17922.00
1100.846, 18102.00
1101.945, 18164.00
1103.043, 17991.00
1104.141, 18087.00
1105.239, 17990.00
1106.337, 18000.00
1107.434, 18006.00
1108.532, 17888.00
1109.629, 17875.99
1110.726, 18037.70
1111.823, 18124.14
1112.920, 18139.35
1114.017, 17869.99
1115.113, 17968.10
1116.210, 17918.94
1117.306, 17863.75
1118.402, 18013.59
1119.498, 17785.62
1120.593, 17932.21
1121.689, 17929.28
1122.784, 17994.79
1123.879, 17912.12
1124.974, 17875.22
1126.069, 17986.54
1127.164, 18015.79
1128.259, 17916.07
1129.353, 17985.94
1130.447, 17752.81
1131.541, 17785.57
1132.635, 17933.04
1133.729, 17840.77
1134.822, 17913.36
1135.916, 17923.15
1137.009, 17647.64
1138.102, 17868.32
1139.195, 17874.42
1140.288, 17660.18
1141.380, 17863.87
1142.473, 17680.01
1143.565, 17634.48
1144.657, 17693.06
1145.749, 17643.11
1146.841, 17764.26
1147.932, 17720.59
1149.024, 17662.19
1150.115, 17668.06
1151.206, 17491.82
1152.297, 17599.00
1153.388, 17645.00
1154.479, 17701.00
1155.569, 17573.00
1156.659, 17418.00
1157.750, 17707.00
1158.839, 17602.00
1159.929, 17528.00
1161.019, 17647.00
1162.108, 17567.22
1163.198, 17624.00
1164.287, 17510.00
1165.376, 17636.00
1166.465, 17490.00
1167.553, 17513.00
1168.642, 17482.00
1169.730, 17391.00
1170.818, 17524.00
1171.906, 17510.00
1172.994, 17494.00
1174.082, 17550.00
1175.170, 17456.00
1176.257, 17424.63
1177.344, 17596.33
1178.431, 17692.77
1179.518, 17717.97
1180.605, 17458.59
1181.691, 17566.69
1182.778, 17527.52
1183.864, 17482.31
1184.950, 17642.13
1186.036, 17424.14
1187.122, 17580.71
1188.207, 17587.76
1189.292, 17663.24
1190.378, 17590.55
1191.463, 17563.62
1192.548, 17684.91
1193.632, 17724.13
1194.717, 17634.38
1195.801, 17714.21
1196.886, 17491.05
1197.970, 17442.00
1199.054, 17515.00
1200.137, 17570.00
1201.221, 17605.00
1202.305, 17513.00
1203.388, 17609.00
1204.471, 17490.00
1205.554, 17597.00
1206.637, 17581.34
1207.719, 17561.48
1208.802, 17605.00
1209.884, 17576.00
1210.966, 17595.00
1212.048, 17661.00
1213.130, 17603.20
1214.212, 17670.94
1215.293, 17559.00
1216.374, 17698.00
1217.456, 17742.00
1218.536, 17652.00
1219.617, 17630.00
1220.698, 17707.00
1221.778, 17693.00
1222.859, 17694.00
1223.939, 17691.07
1225.019, 17722.00
1226.099, 17680.00
1227.178, 17578.00
1228.258, 17655.00
1229.337, 17735.00
1230.417, 17637.00
1231.496, 17693.00
1232.574, 17531.00
1233.653, 17661.00
1234.732, 17747.00
1235.810, 17653.00
1236.888, 17680.00
1237.966, 17743.00
1239.044, 17677.00
1240.122, 17943.00
1241.199, 17608.00
1242.277, 17790.00
1243.354, 17775.00
1244.431, 17986.00
1245.508, 17732.00
1246.585, 17760.00
1247.661, 17882.00
1248.738, 17668.00
1249.814, 17697.00
1250.890, 17670.09
1251.966, 17599.50
1253.042, 17684.00
1254.117, 17492.00
1255.193, 17623.00
1256.268, 17450.00
1257.343, 17532.00
1258.418, 17672.00
1259.493, 17724.00
1260.567, 17669.00
1261.642, 17677.00
1262.716, 17818.00
1263.790, 18017.00
1264.864, 18107.00
1265.938, 17964.00
1267.011, 17806.00
1268.085, 17790.00
1269.158, 17853.00
1270.231, 17871.00
1271.304, 17849.00
1272.377, 18069.00
1273.450, 18020.00
1274.522, 17981.00
1275.594, 17945.00
1276.666, 18107.00
1277.738, 18168.00
1278.810, 18036.00
1279.882, 17967.00
1280.953, 18040.00
1282.025, 17938.87
1283.096, 18055.00
1284.167, 17946.00
1285.238, 17934.00
1286.308, 18090.00
1287.379, 18110.00
1288.449, 18056.00
1289.519, 18187.67
1290.589, 18169.00
1291.659, 18268.00
1292.729, 18209.00
1293.798, 18097.00
1294.868, 18184.00
1295.937, 18104.00
1297.006, 18289.00
1298.075, 18273.00
1299.143, 18275.00
1300.212, 18172.00
1301.280, 18176.00
1302.348, 18111.00
1303.416, 18251.00
1304.484, 18284.00
1305.552, 18232.00
1306.620, 18240.00
1307.687, 18069.00
1308.754, 18318.00
1309.821, 18339.00
1310.888, 18164.00
1311.955, 18264.14
1313.021, 18207.15
1314.088, 18208.00
1315.154, 18217.00
1316.220, 18237.00
1317.286, 18289.00
1318.352, 18453.00
1319.417, 18359.00
1320.483, 18266.00
1321.548, 18457.00
1322.613, 18269.00
1323.678, 18441.00
1324.743, 18557.00
1325.807, 18453.00
1326.872, 18541.04
1327.936, 18523.00
1329.000, 18450.00
1330.064, 18551.00
1331.128, 18387.00
1332.191, 18619.00
1333.255, 18400.00
1334.318, 18527.00
1335.381, 18651.00
1336.444, 18500.00
1337.507, 18342.00
1338.569, 18376.00
1339.632, 18431.00
1340.694, 18595.00
1341.756, 18521.00
1342.818, 18597.00
1343.880, 18557.00
1344.941, 18484.00
1346.003, 18583.00
1347.064, 18582.00
1348.125, 18602.93
1349.186, 18648.80
1350.247, 18646.00
1351.308, 18673.00
1352.368, 18652.00
1353.428, 18598.00
1354.489, 18660.00
1355.549, 18598.00
1356.608, 18629.00
1357.668, 18775.00
1358.727, 18574.00
1359.787, 18579.00
1360.846, 18680.00
1361.905, 18638.00
1362.964, 18652.00
1364.022, 18716.00
1365.081, 18559.00
1366.139, 18600.00
1367.197, 18596.00
1368.255, 18670.00
1369.313, 18652.00
1370.371, 18731.00
1371.428, 18475.00
1372.486, 18843.00
1373.543, 18690.00
1374.600, 18656.00
1375.657, 18850.00
1376.713, 18790.00
1377.770, 18745.00
1378.826, 18592.00
1379.882, 18696.00
1380.938, 18677.00
1381.994, 18738.00
1383.050, 18680.00
1384.106, 18785.00
1385.161, 18904.00
1386.216, 18693.00
1387.271, 18740.00
1388.326, 18816.00
1389.381, 18919.00
1390.435, 18775.00
1391.490, 18618.00
1392.544, 18739.00
1393.598, 18709.00
1394.652, 18753.00
1395.705, 18742.00
1396.759, 18768.07
1397.812, 18808.46
1398.866, 18818.00
1399.919, 18853.00
1400.972, 18865.00
1402.024, 18799.00
1403.077, 18858.00
1404.129, 18875.00
1405.181, 18703.00
1406.233, 18866.00
1407.285, 18631.00
1408.337, 18788.00
1409.389, 18785.00
1410.440, 18777.00
1411.491, 18849.00
1412.542, 18928.00
1413.593, 18771.00
1414.644, 18759.00
1415.695, 18935.00
1416.745, 18981.00
1417.795, 18815.00
1418.845, 18838.00
1419.895, 18996.00
1420.945, 18874.81
1421.995, 18880.00
1423.044, 18902.00
1424.093, 18838.00
1425.142, 19020.00
1426.191, 19062.00
1427.240, 18850.00
1428.289, 18849.00
1429.337, 18986.00
1430.385, 19041.00
1431.433, 18908.00
1432.481, 19043.00
1433.529, 18854.00
1434.577, 18950.00
1435.624, 18953.00
1436.672, 18936.00
1437.719, 18964.00
1438.766, 19164.00
1439.812, 19220.00
1440.859, 18814.00
1441.905, 18999.00
1442.952, 19062.00
1443.998, 18996.00
1445.044, 19084.00
1446.090, 19014.00
1447.135, 18901.00
1448.181, 19102.00
1449.226, 19042.00
1450.271, 18892.00
1451.316, 19063.00
1452.361, 19035.00
1453.405, 19113.00
1454.450, 18973.00
1455.494, 19043.82
1456.538, 18988.55
1457.582, 19099.00
1458.626, 18940.00
1459.670, 18965.00
1460.713, 19010.00
1461.757, 18985.18
1462.800, 19205.00
1463.843, 19020.00
1464.886, 19213.00
1465.928, 19157.00
1466.971, 19149.00
1468.013, 19194.00
1469.055, 19161.00
1470.097, 19189.84
1471.139, 19151.00
1472.181, 19208.00
1473.222, 19175.00
1474.263, 19152.00
1475.305, 19106.00
1476.346, 19233.00
1477.386, 19221.00
1478.427, 19342.00
1479.468, 19253.00
1480.508, 19363.00
1481.548, 19271.00
1482.588, 19333.00
1483.628, 19251.00
1484.668, 19253.00
1485.707, 19305.00
1486.747, 19224.00
1487.786, 19353.00
1488.825, 19355.00
1489.864, 19438.00
1490.902, 19469.73
1491.941, 19492.00
1492.979, 19481.00
1494.017, 19461.00
1495.055, 19388.00
1496.093, 19471.00
1497.131, 19439.00
1498.168, 19367.00
1499.206, 19452.00
1500.243, 19456.00
1501.280, 19599.00
1502.317, 19755.00
1503.354, 19810.00
1504.390, 19601.00
1505.426, 19689.00
1506.463, 19425.00
1507.499, 19583.00
1508.535, 19744.00
1509.570, 19657.00
1510.606, 19517.00
1511.641, 19627.00
1512.676, 19597.00
1513.711, 19731.00
1514.746, 19717.00
1515.781, 19777.00
1516.816, 19799.00
1517.850, 19666.00
1518.884, 19771.69
1519.918, 19677.31
1520.952, 19845.00
1521.986, 19637.00
1523.019, 19611.00
1524.053, 19733.00
1525.086, 19698.00
1526.119, 19869.00
1527.152, 19912.00
1528.185, 19755.00
1529.217, 19782.00
1530.250, 19784.55
1531.282, 19961.38
1532.314, 20062.93
1533.346, 20093.25
1534.377, 19838.99
1535.409, 19952.21
1536.440, 19918.15
1537.472, 19878.06
1538.503, 20042.99
1539.534, 19830.12
1540.564, 19991.79
1541.595, 20003.96
1542.625, 20084.55
1543.656, 20016.97
1544.686, 19995.15
1545.716, 20121.55
1546.745, 20165.88
1547.775, 20081.23
1548.804, 20166.17
1549.834, 19948.12
1550.863, 19995.94
1551.892, 20158.48
1552.920, 20081.28
1553.949, 20168.92
1554.977, 20193.78
1556.006, 19933.33
1557.034, 20169.06
1558.062, 20190.21
1559.089, 19991.02
1560.117, 20209.75
1561.144, 20040.94
1562.172, 20010.46
1563.199, 20084.07
1564.226, 20049.17
1565.252, 20185.35
1566.279, 20156.71
1567.305, 20113.34
1568.332, 20134.25
1569.358, 19973.03
1570.384, 20149.67
##END=



