##NAMES=Annite
##RRUFFID=R060211
##IDEAL CHEMISTRY=KFe^2+^_3_AlSi_3_O_10_(OH)_2_
##LOCALITY=Mont Saint-Hilaire, Rouville County, Quebec, Canada
##OWNER=RRUFF
##SOURCE=Royal Ontario Museum
##DESCRIPTION=Black mica
##STATUS=The identification of this mineral has been confirmed by X-ray diffraction and chemical analysis
##URL=rruff.info/R060211
##MEASURED CHEMISTRY=(K_0.94_[box]_0.03_Na_0.02_)_Σ=1_(Fe^2+^_2.07_Mg_0.57_Mn_0.33_Ti_0.03_)_Σ=3_(Si_2.98_Al_1.02_)O_10_((OH)_1.72_F_0.28_)_Σ=2_
##PIN_ID=L01073
##ORIENTATION=Laser parallel to c* (0 0 1). Fiducial mark perpendicular to laser is parallel to a [1 0 0]
230.8490, 49684.00
232.0700, 49666.00
233.2910, 49426.00
234.5120, 49328.00
235.7320, 49296.00
236.9530, 49176.00
238.1730, 49303.00
239.3930, 49156.98
240.6130, 49007.00
241.8320, 49009.00
243.0520, 48831.00
244.2710, 48806.00
245.4900, 48629.00
246.7090, 48840.00
247.9280, 49035.00
249.1470, 48886.00
250.3650, 48842.00
251.5840, 48620.00
252.8020, 48764.00
254.0200, 49293.00
255.2370, 48593.75
256.4550, 49087.45
257.6720, 49384.33
258.8900, 49495.05
260.1070, 48861.82
261.3240, 49189.19
262.5400, 49131.56
263.7570, 49058.18
264.9730, 49520.71
266.1900, 48995.68
267.4060, 49649.00
268.6220, 49505.00
269.8370, 49436.00
271.0530, 49553.00
272.2680, 49611.00
273.4830, 49244.00
274.6980, 49359.00
275.9130, 49122.00
277.1280, 49437.00
278.3420, 49677.00
279.5570, 49042.00
280.7710, 48972.00
281.9850, 48873.00
283.1990, 48629.29
284.4120, 48801.00
285.6260, 48583.00
286.8390, 48448.00
288.0520, 48699.00
289.2650, 48448.00
290.4780, 48479.00
291.6910, 48403.00
292.9030, 48413.00
294.1160, 48279.41
295.3280, 48268.00
296.5400, 47990.00
297.7510, 47866.00
298.9630, 47723.00
300.1740, 47828.00
301.3860, 47812.00
302.5970, 47840.00
303.8080, 47851.01
305.0180, 47821.02
306.2290, 47782.00
307.4390, 47786.00
308.6500, 47646.00
309.8600, 47668.00
311.0700, 48030.00
312.2790, 48000.00
313.4890, 48007.00
314.6980, 48117.00
315.9080, 47855.00
317.1170, 47939.00
318.3250, 47898.00
319.5340, 48050.00
320.7430, 48030.36
321.9510, 48080.00
323.1590, 48076.00
324.3670, 48141.00
325.5750, 48211.00
326.7830, 48247.00
327.9900, 48404.00
329.1980, 48314.00
330.4050, 48494.00
331.6120, 48404.00
332.8190, 48310.00
334.0250, 48350.00
335.2320, 48412.00
336.4380, 48478.00
337.6440, 48350.00
338.8500, 48506.00
340.0560, 48749.00
341.2620, 48599.00
342.4670, 48640.00
343.6730, 49006.00
344.8780, 48763.00
346.0830, 49157.00
347.2870, 48812.00
348.4920, 49057.00
349.6970, 48966.00
350.9010, 49058.00
352.1050, 48987.00
353.3090, 49077.00
354.5130, 48896.00
355.7160, 49102.00
356.9200, 49054.00
358.1230, 49053.00
359.3260, 48928.00
360.5290, 48932.00
361.7320, 48866.29
362.9340, 48860.26
364.1370, 48817.00
365.3390, 48830.00
366.5410, 48827.97
367.7430, 48812.00
368.9450, 48858.70
370.1460, 48854.00
371.3480, 48884.00
372.5490, 48778.00
373.7500, 48880.00
374.9510, 48982.00
376.1520, 48779.00
377.3520, 49199.00
378.5520, 49019.00
379.7530, 49120.00
380.9530, 48876.00
382.1530, 49266.00
383.3520, 49136.00
384.5520, 49217.00
385.7510, 48941.00
386.9500, 49171.00
388.1490, 49478.00
389.3480, 49257.00
390.5470, 49582.00
391.7450, 49643.00
392.9440, 49407.00
394.1420, 49397.00
395.3400, 49365.00
396.5380, 49656.00
397.7350, 49502.00
398.9330, 49202.00
400.1300, 49565.00
401.3270, 49444.00
402.5240, 49117.00
403.7210, 49350.00
404.9180, 49226.00
406.1140, 48789.00
407.3110, 49024.00
408.5070, 48855.00
409.7030, 48923.00
410.8990, 48746.00
412.0940, 48860.00
413.2900, 48947.00
414.4850, 48881.00
415.6800, 48970.68
416.8750, 49083.00
418.0700, 48987.00
419.2650, 48911.00
420.4590, 48841.00
421.6530, 48641.00
422.8470, 48859.00
424.0410, 48710.00
425.2350, 48543.00
426.4290, 48447.00
427.6220, 48795.00
428.8160, 48733.00
430.0090, 48107.00
431.2020, 48493.00
432.3940, 48381.00
433.5870, 48847.00
434.7790, 48455.00
435.9720, 48327.00
437.1640, 48411.00
438.3560, 48472.00
439.5470, 48437.00
440.7390, 47951.00
441.9300, 48101.00
443.1220, 48177.00
444.3130, 48392.00
445.5040, 48623.00
446.6940, 48980.00
447.8850, 48249.00
449.0750, 48299.00
450.2660, 48059.00
451.4560, 48472.00
452.6460, 48715.00
453.8350, 48726.61
455.0250, 48849.32
456.2140, 48872.00
457.4040, 48857.00
458.5930, 48735.00
459.7820, 48897.00
460.9700, 48895.00
462.1590, 48875.00
463.3470, 49266.00
464.5350, 49288.00
465.7240, 49286.00
466.9110, 49369.00
468.0990, 49370.00
469.2870, 49442.85
470.4740, 49523.91
471.6610, 49587.00
472.8480, 49766.00
474.0350, 49858.00
475.2220, 50110.00
476.4090, 50269.00
477.5950, 50247.00
478.7810, 50607.00
479.9670, 50541.00
481.1530, 50811.00
482.3390, 50986.00
483.5240, 51015.00
484.7100, 51299.00
485.8950, 51541.00
487.0800, 51466.00
488.2650, 51715.00
489.4490, 51834.00
490.6340, 51712.00
491.8180, 51903.00
493.0030, 52123.00
494.1870, 52301.00
495.3700, 52423.69
496.5540, 52309.00
497.7380, 52715.00
498.9210, 52691.00
500.1040, 53002.00
501.2870, 52896.00
502.4700, 53343.00
503.6530, 53302.00
504.8350, 53117.00
506.0180, 53203.00
507.2000, 53422.00
508.3820, 53625.00
509.5640, 53495.00
510.7450, 53921.00
511.9270, 53745.00
513.1080, 53659.00
514.2890, 53989.00
515.4700, 54275.00
516.6510, 54252.00
517.8320, 54448.00
519.0130, 54375.00
520.1930, 54746.00
521.3730, 54569.00
522.5530, 54761.00
523.7330, 54966.00
524.9130, 55144.00
526.0920, 55145.00
527.2710, 55351.07
528.4510, 55330.00
529.6300, 55556.00
530.8080, 55662.00
531.9870, 55622.00
533.1660, 55301.00
534.3440, 55719.00
535.5220, 55753.00
536.7000, 56092.00
537.8780, 55410.00
539.0560, 55426.00
540.2330, 55293.00
541.4110, 55264.00
542.5880, 55171.00
543.7650, 55190.00
544.9420, 55044.00
546.1180, 54713.00
547.2950, 54816.00
548.4710, 54535.00
549.6470, 54325.00
550.8230, 54369.00
551.9990, 53735.00
553.1750, 53620.00
554.3500, 53473.00
555.5260, 53098.00
556.7010, 53278.00
557.8760, 53238.00
559.0510, 52694.00
560.2250, 52536.00
561.4000, 52536.00
562.5740, 52224.00
563.7480, 52109.00
564.9220, 51921.00
566.0960, 51857.71
567.2700, 51765.73
568.4430, 51741.00
569.6170, 51674.00
570.7900, 51439.00
571.9630, 51430.00
573.1360, 51036.00
574.3080, 51106.00
575.4810, 51019.00
576.6530, 50730.00
577.8250, 50460.00
578.9980, 50855.00
580.1690, 50405.00
581.3410, 50548.00
582.5130, 50484.00
583.6840, 50206.00
584.8550, 49969.00
586.0260, 50118.00
587.1970, 49722.00
588.3680, 50166.00
589.5380, 49783.00
590.7080, 50065.00
591.8790, 49939.00
593.0490, 50148.00
594.2190, 49878.00
595.3880, 49957.00
596.5580, 50018.00
597.7270, 49978.00
598.8960, 50039.00
600.0650, 49803.00
601.2340, 50042.00
602.4030, 50094.00
603.5710, 49894.00
604.7400, 50174.00
605.9080, 50549.00
607.0760, 50187.00
608.2440, 50382.00
609.4120, 50304.00
610.5790, 50537.00
611.7460, 50386.00
612.9140, 50309.00
614.0810, 50713.00
615.2480, 50730.00
616.4140, 50959.00
617.5810, 50822.00
618.7470, 50409.89
619.9130, 50880.39
621.0790, 51154.10
622.2450, 51241.61
623.4110, 50585.21
624.5770, 50889.42
625.7420, 50808.64
626.9070, 50712.08
628.0720, 51151.47
629.2370, 51027.00
630.4020, 51431.00
631.5660, 51511.00
632.7310, 51479.00
633.8950, 51421.00
635.0590, 51570.00
636.2230, 51694.00
637.3870, 51509.00
638.5500, 51913.00
639.7140, 51882.00
640.8770, 52158.00
642.0400, 51945.00
643.2030, 52351.00
644.3660, 52495.00
645.5280, 52759.00
646.6910, 53180.00
647.8530, 52988.00
649.0150, 53309.00
650.1770, 53542.00
651.3390, 53961.00
652.5000, 54045.00
653.6620, 55506.00
654.8230, 54830.00
655.9840, 55738.00
657.1450, 55653.00
658.3060, 56076.00
659.4660, 56724.66
660.6270, 57527.00
661.7870, 57858.00
662.9470, 58395.00
664.1070, 58820.00
665.2670, 59149.00
666.4260, 59338.68
667.5860, 59431.00
668.7450, 59392.00
669.9040, 59254.00
671.0630, 59003.00
672.2220, 58713.00
673.3800, 58405.74
674.5390, 58061.59
675.6970, 57635.00
676.8550, 57285.00
678.0130, 56820.00
679.1710, 56347.00
680.3290, 56382.00
681.4860, 55485.00
682.6430, 55810.00
683.8000, 55623.00
684.9570, 55171.00
686.1140, 55266.00
687.2710, 55076.00
688.4270, 55054.00
689.5840, 55007.00
690.7400, 54951.00
691.8960, 55327.00
693.0520, 54985.00
694.2070, 55418.00
695.3630, 55404.00
696.5180, 55914.00
697.6730, 55317.00
698.8280, 55690.00
699.9830, 55619.00
701.1380, 55891.00
702.2920, 56095.00
703.4470, 55988.00
704.6010, 56282.00
705.7550, 56576.00
706.9090, 56576.00
708.0620, 56406.00
709.2160, 56677.00
710.3690, 57267.00
711.5220, 57902.00
712.6750, 57188.00
713.8280, 57131.00
714.9810, 57089.00
716.1340, 56892.00
717.2860, 57129.00
718.4380, 57261.00
719.5900, 56759.00
720.7420, 56695.00
721.8940, 57246.00
723.0450, 56620.00
724.1970, 56612.00
725.3480, 56336.00
726.4990, 56248.00
727.6500, 56245.00
728.8010, 56030.00
729.9510, 55697.00
731.1020, 55893.00
732.2520, 56070.00
733.4020, 56379.00
734.5520, 55729.00
735.7020, 56645.00
736.8510, 55591.00
738.0010, 55623.00
739.1500, 55345.00
740.2990, 55560.00
741.4480, 55489.00
742.5970, 55887.00
743.7450, 55965.00
744.8940, 55959.00
746.0420, 55911.00
747.1900, 56304.00
748.3380, 56144.00
749.4860, 56346.00
750.6330, 56287.00
751.7810, 56733.00
752.9280, 56370.00
754.0750, 57116.00
755.2220, 57040.00
756.3690, 57511.00
757.5160, 57223.00
758.6620, 57459.58
759.8090, 57601.00
760.9550, 57496.00
762.1010, 57842.00
763.2470, 57494.00
764.3920, 57748.00
765.5380, 57323.00
766.6830, 57478.00
767.8280, 57645.00
768.9730, 58005.00
770.1180, 57845.00
771.2630, 57749.00
772.4070, 57560.00
773.5520, 57246.00
774.6960, 57125.00
775.8400, 56712.00
776.9840, 56336.00
778.1280, 56402.00
779.2710, 56238.00
780.4140, 55913.00
781.5580, 55812.00
782.7010, 55438.00
783.8440, 55425.00
784.9860, 55146.00
786.1290, 54915.00
787.2710, 54753.00
788.4140, 54542.00
789.5560, 53901.00
790.6980, 53833.00
791.8390, 53254.00
792.9810, 53125.00
794.1220, 52724.00
795.2640, 52499.72
796.4050, 52582.00
797.5460, 52072.00
798.6860, 52075.00
799.8270, 51762.00
800.9680, 51693.00
802.1080, 51515.00
803.2480, 51253.00
804.3880, 51207.19
805.5280, 51037.36
806.6670, 50991.00
807.8070, 50810.00
808.9460, 50645.00
810.0850, 50494.00
811.2240, 50320.00
812.3630, 50366.00
813.5020, 50260.04
814.6400, 50289.27
815.7790, 50246.00
816.9170, 50295.00
818.0550, 50365.00
819.1930, 50193.00
820.3300, 50287.00
821.4680, 50385.00
822.6050, 50045.00
823.7430, 50242.00
824.8800, 50246.00
826.0170, 50580.00
827.1530, 50377.42
828.2900, 50400.00
829.4260, 50039.00
830.5620, 50447.00
831.6990, 50334.00
832.8340, 50634.00
833.9700, 50456.00
835.1060, 50367.00
836.2410, 50456.00
837.3760, 50366.00
838.5120, 50588.00
839.6470, 50519.00
840.7810, 50532.00
841.9160, 50506.00
843.0500, 50432.00
844.1850, 50372.00
845.3190, 50711.00
846.4530, 50532.00
847.5870, 50398.00
848.7200, 50897.00
849.8540, 50461.00
850.9870, 50627.00
852.1200, 50923.00
853.2530, 50596.00
854.3860, 50762.00
855.5190, 50709.00
856.6510, 51053.00
857.7840, 51180.00
858.9160, 51369.00
860.0480, 51598.00
861.1800, 51294.00
862.3110, 51203.00
863.4430, 51382.00
864.5740, 52355.00
865.7060, 51522.00
866.8370, 52055.00
867.9680, 51574.00
869.0980, 51689.00
870.2290, 51555.00
871.3590, 52053.00
872.4900, 52188.00
873.6200, 52099.00
874.7500, 52159.00
875.8790, 51945.00
877.0090, 52027.00
878.1380, 52090.00
879.2680, 52266.00
880.3970, 52367.00
881.5260, 52353.00
882.6550, 52284.00
883.7830, 52241.00
884.9120, 52404.00
886.0400, 52548.00
887.1680, 52673.00
888.2960, 52602.74
889.4240, 52037.00
890.5520, 52344.00
891.6790, 52355.00
892.8070, 52156.00
893.9340, 52394.00
895.0610, 52220.00
896.1880, 52544.00
897.3140, 52165.00
898.4410, 52412.00
899.5670, 52340.00
900.6940, 52522.00
901.8200, 52192.00
902.9450, 52563.00
904.0710, 52464.00
905.1970, 52633.00
906.3220, 52589.00
907.4470, 52327.00
908.5730, 52529.00
909.6980, 52460.00
910.8220, 52640.00
911.9470, 52502.00
913.0710, 52679.00
914.1960, 52797.00
915.3200, 52610.00
916.4440, 52728.00
917.5680, 52718.00
918.6910, 52652.00
919.8150, 52793.00
920.9380, 52928.00
922.0610, 52841.00
923.1840, 52836.00
924.3070, 52875.00
925.4300, 52994.00
926.5520, 52811.00
927.6750, 52791.00
928.7970, 52843.00
929.9190, 52728.00
931.0410, 52893.00
932.1630, 52962.00
933.2840, 53153.00
934.4060, 53203.59
935.5270, 53070.00
936.6480, 53217.00
937.7690, 53263.00
938.8900, 53034.00
940.0100, 53123.00
941.1310, 53291.00
942.2510, 52914.00
943.3710, 52968.00
944.4910, 53083.00
945.6110, 53084.00
946.7310, 53071.25
947.8500, 53128.93
948.9690, 52935.00
950.0890, 53080.00
951.2080, 52954.00
952.3260, 52719.00
953.4450, 52599.00
954.5640, 52585.00
955.6820, 52638.00
956.8000, 52484.00
957.9180, 52524.00
959.0360, 52523.00
960.1540, 52282.00
961.2710, 52451.00
962.3890, 52324.00
963.5060, 52232.00
964.6230, 52013.00
965.7400, 52046.95
966.8570, 52299.00
967.9730, 52047.00
969.0900, 52172.00
970.2060, 52119.00
971.3220, 51901.00
972.4380, 51962.00
973.5540, 51956.59
974.6700, 52002.00
975.7850, 52020.00
976.9010, 52039.76
978.0160, 52098.39
979.1310, 52098.00
980.2460, 52194.00
981.3600, 52254.00
982.4750, 52270.00
983.5890, 52085.00
984.7030, 52169.00
985.8170, 52281.00
986.9310, 52151.00
988.0450, 52379.00
989.1590, 52398.00
990.2720, 52266.00
991.3850, 52123.00
992.4980, 52371.00
993.6110, 52367.00
994.7240, 52389.00
995.8370, 52571.00
996.9490, 52905.00
998.0620, 52678.00
999.1740, 53623.00
1000.286, 52995.00
1001.398, 53086.00
1002.509, 53059.00
1003.621, 52681.00
1004.732, 53155.41
1005.843, 54040.00
1006.954, 53867.00
1008.065, 53423.00
1009.176, 53655.00
1010.286, 53429.00
1011.397, 53728.00
1012.507, 53897.00
1013.617, 54035.00
1014.727, 54120.82
1015.837, 53967.00
1016.946, 54080.00
1018.056, 53990.00
1019.165, 53785.00
1020.274, 54122.00
1021.383, 54087.00
1022.492, 53880.00
1023.601, 53785.00
1024.709, 53860.00
1025.817, 53474.00
1026.926, 53551.00
1028.034, 54181.00
1029.141, 53280.00
1030.249, 53588.00
1031.357, 53706.00
1032.464, 53435.00
1033.571, 53414.00
1034.678, 53487.57
1035.785, 53557.00
1036.892, 53688.00
1037.999, 53358.00
1039.105, 53510.00
1040.211, 53354.00
1041.317, 53336.00
1042.423, 53394.00
1043.529, 53337.00
1044.635, 53264.00
1045.740, 53326.00
1046.845, 53457.00
1047.951, 53278.00
1049.056, 53601.00
1050.160, 53937.00
1051.265, 53417.00
1052.370, 53577.00
1053.474, 53264.00
1054.578, 53365.00
1055.682, 53135.00
1056.786, 53400.00
1057.890, 53370.00
1058.993, 53515.00
1060.097, 53896.00
1061.200, 53393.00
1062.303, 53378.00
1063.406, 53547.00
1064.509, 53515.00
1065.612, 53337.00
1066.714, 53163.00
1067.816, 53534.00
1068.919, 53465.00
1070.021, 53496.00
1071.122, 53209.00
1072.224, 53269.00
1073.326, 53081.00
1074.427, 53108.00
1075.528, 53064.00
1076.629, 53183.00
1077.730, 53150.00
1078.831, 53043.00
1079.931, 52666.00
1081.032, 52950.00
1082.132, 52880.00
1083.232, 53026.00
1084.332, 52630.00
1085.432, 52601.00
1086.531, 52201.00
1087.631, 52652.00
1088.730, 52651.00
1089.829, 53209.00
1090.928, 52617.00
1092.027, 52239.00
1093.126, 52129.00
1094.224, 52004.00
1095.323, 52165.00
1096.421, 52002.00
1097.519, 51991.00
1098.617, 51895.00
1099.715, 52036.00
1100.812, 52072.00
1101.910, 52079.00
1103.007, 52067.00
1104.104, 51938.00
1105.201, 51971.00
1106.298, 51715.00
1107.394, 51665.18
1108.491, 51872.00
1109.587, 51567.00
1110.683, 51625.00
1111.779, 51865.00
1112.875, 51898.00
1113.971, 51795.00
1115.066, 51767.00
1116.162, 51750.00
1117.257, 51742.00
1118.352, 51956.00
1119.447, 51660.00
1120.542, 51689.00
1121.636, 52114.00
1122.731, 51898.00
1123.825, 51878.00
1124.919, 51839.00
1126.013, 51708.00
1127.107, 51831.00
1128.200, 51903.00
1129.294, 51546.00
1130.387, 51656.00
1131.480, 51655.00
1132.573, 51257.00
1133.666, 51435.00
1134.759, 51538.00
1135.851, 51539.00
1136.944, 51429.00
1138.036, 51250.00
1139.128, 51429.00
1140.220, 51546.00
1141.312, 51559.00
1142.403, 51229.00
1143.495, 51497.00
1144.586, 51182.00
1145.677, 51549.00
1146.768, 51355.00
1147.859, 51272.00
1148.950, 51568.00
1150.040, 51488.00
1151.130, 51297.00
1152.221, 51490.58
1153.311, 51780.00
1154.401, 51458.00
1155.490, 51743.00
1156.580, 51411.00
1157.669, 51282.00
1158.759, 51354.85
1159.848, 51144.93
1160.937, 51446.00
1162.025, 51092.00
1163.114, 51331.00
1164.202, 51551.00
1165.291, 51386.00
1166.379, 51514.00
1167.467, 51363.00
1168.555, 51383.00
1169.642, 51291.00
1170.730, 51269.00
1171.817, 51292.00
1172.905, 51193.71
1173.992, 51132.00
1175.078, 51131.00
1176.165, 51237.00
1177.252, 51377.00
1178.338, 51373.00
1179.425, 51315.00
1180.511, 51581.00
1181.597, 51446.00
1182.682, 51260.00
1183.768, 51280.00
1184.854, 51367.00
1185.939, 51288.00
1187.024, 51256.00
1188.109, 51139.00
1189.194, 51317.00
1190.279, 51403.00
1191.363, 51320.97
1192.448, 51200.00
1193.532, 51218.00
1194.616, 51288.00
1195.700, 51243.00
1196.784, 51282.60
1197.867, 51150.00
1198.951, 51284.00
1200.034, 51253.00
1201.117, 51208.00
1202.200, 51519.00
1203.283, 51493.00
1204.366, 50999.00
1205.448, 51171.00
1206.531, 51165.00
1207.613, 51282.00
1208.695, 51562.00
1209.777, 51462.00
1210.859, 51424.00
1211.940, 51232.00
1213.022, 51226.00
1214.103, 51380.00
1215.184, 51236.00
1216.265, 51163.00
1217.346, 51509.00
1218.427, 51580.00
1219.507, 50986.00
1220.587, 51454.00
1221.668, 51290.00
1222.748, 50948.00
1223.828, 51333.00
1224.907, 51364.00
1225.987, 51512.00
1227.066, 51415.00
1228.146, 51548.00
1229.225, 51516.52
1230.304, 51398.00
1231.382, 51481.00
1232.461, 51347.00
1233.540, 51328.00
1234.618, 51379.00
1235.696, 51564.00
1236.774, 51503.00
1237.852, 51495.00
1238.930, 51612.00
1240.007, 51217.00
1241.085, 51469.00
1242.162, 51482.00
1243.239, 51203.00
1244.316, 51759.00
1245.393, 51536.00
1246.469, 51501.00
1247.546, 51783.00
1248.622, 51423.00
1249.698, 51392.00
1250.774, 51764.00
1251.850, 51553.00
1252.926, 51589.00
1254.001, 51599.00
1255.077, 51187.00
1256.152, 51384.34
1257.227, 51416.42
1258.302, 51560.00
1259.377, 51627.00
1260.451, 51851.00
1261.526, 51670.00
1262.600, 51738.00
1263.674, 51782.00
1264.748, 51639.00
1265.822, 51835.00
1266.896, 51535.00
1267.969, 51724.00
1269.043, 51668.00
1270.116, 51886.00
1271.189, 51903.44
1272.262, 51707.00
1273.335, 51984.00
1274.407, 51738.00
1275.480, 51727.00
1276.552, 51758.00
1277.624, 51686.00
1278.696, 51864.00
1279.768, 51816.00
1280.840, 51826.00
1281.911, 51706.00
1282.982, 51700.00
1284.054, 51852.00
1285.125, 51699.00
1286.196, 51805.00
1287.266, 52072.00
1288.337, 51536.00
1289.407, 51843.00
1290.478, 51667.00
1291.548, 51713.00
1292.618, 51723.00
1293.688, 51689.36
1294.757, 51724.71
1295.827, 51782.00
1296.896, 51788.00
1297.965, 51959.00
1299.034, 52095.00
1300.103, 51844.00
1301.172, 51977.00
1302.241, 51593.00
1303.309, 51978.00
1304.377, 52061.00
1305.445, 51966.91
1306.513, 52164.00
1307.581, 52100.00
1308.649, 51736.00
1309.716, 52101.00
1310.784, 51957.00
1311.851, 51945.00
1312.918, 52106.00
1313.985, 52125.18
1315.052, 52105.80
1316.118, 52239.00
1317.185, 52158.00
1318.251, 51879.00
1319.317, 52155.00
1320.383, 51779.00
1321.449, 51910.00
1322.514, 51845.00
1323.580, 51974.00
1324.645, 52023.00
1325.711, 52195.00
1326.776, 52206.00
1327.840, 51954.00
1328.905, 51915.00
1329.970, 52093.00
1331.034, 51751.00
1332.099, 52124.00
1333.163, 51732.00
1334.227, 51787.00
1335.290, 51973.00
1336.354, 51971.00
1337.418, 52300.00
1338.481, 52192.00
1339.544, 52224.00
1340.607, 52045.00
1341.670, 51939.00
1342.733, 52176.00
1343.795, 52208.00
1344.858, 52102.25
1345.920, 52143.00
1346.982, 52110.46
1348.044, 52137.00
1349.106, 52088.00
1350.168, 51922.00
1351.229, 51914.00
1352.291, 51903.00
1353.352, 52065.00
1354.413, 51885.00
1355.474, 52187.00
1356.534, 52043.00
1357.595, 52002.00
1358.656, 52340.00
1359.716, 52029.00
1360.776, 52272.00
1361.836, 52310.00
1362.896, 52037.00
1363.955, 51964.00
1365.015, 52258.00
1366.074, 51950.00
1367.134, 52056.00
1368.193, 52274.00
1369.252, 52206.00
1370.310, 52052.00
1371.369, 51913.00
1372.427, 51925.51
1373.486, 52122.00
1374.544, 52070.00
1375.602, 52145.08
1376.660, 52241.00
1377.717, 52196.00
1378.775, 52275.47
1379.832, 52109.00
1380.889, 52331.00
1381.946, 52308.00
1383.003, 52312.00
1384.060, 52481.00
1385.117, 52250.00
1386.173, 52329.00
1387.230, 51990.00
1388.286, 52252.00
1389.342, 52174.00
1390.398, 52112.00
1391.453, 52183.00
1392.509, 52184.00
1393.564, 52403.00
1394.619, 52228.00
1395.675, 52275.00
1396.729, 52142.00
1397.784, 52398.00
1398.839, 52326.50
1399.893, 52381.00
1400.948, 52466.00
1402.002, 52469.96
1403.056, 52271.00
1404.110, 52489.00
1405.163, 52417.00
1406.217, 52239.00
1407.270, 52277.00
1408.324, 52304.86
1409.377, 52300.00
1410.430, 52458.00
1411.483, 52622.00
1412.535, 52610.00
1413.588, 52665.84
1414.640, 52596.00
1415.692, 52609.00
1416.744, 52427.00
1417.796, 52353.00
1418.848, 52580.00
1419.900, 52345.00
1420.951, 52362.00
1422.002, 52571.00
1423.053, 52258.00
1424.104, 52913.00
1425.155, 52503.00
1426.206, 52879.00
1427.256, 52532.00
1428.307, 52125.00
1429.357, 52392.00
1430.407, 52534.00
1431.457, 52727.00
1432.507, 52772.54
1433.556, 52366.00
1434.606, 52688.00
1435.655, 52717.00
1436.704, 52450.00
1437.753, 52590.00
1438.802, 52981.00
1439.851, 52324.00
1440.899, 52855.00
1441.948, 52793.00
1442.996, 52534.00
1444.044, 52433.00
1445.092, 52587.00
1446.140, 52780.00
1447.187, 52672.00
1448.235, 52807.00
1449.282, 52699.00
1450.329, 52917.00
1451.376, 52561.00
1452.423, 52662.00
1453.470, 52753.00
1454.517, 52741.00
1455.563, 52967.00
1456.609, 52729.00
1457.655, 52493.00
1458.701, 52656.00
1459.747, 52711.00
1460.793, 52582.00
1461.838, 52366.00
1462.884, 52765.00
1463.929, 52712.00
1464.974, 52627.00
1466.019, 52774.00
1467.064, 52782.00
1468.108, 52827.00
1469.153, 52726.00
1470.197, 52781.00
1471.241, 52642.00
1472.285, 52672.00
1473.329, 52707.00
1474.373, 52687.00
1475.416, 52721.00
1476.460, 52731.17
1477.503, 52735.00
1478.546, 52789.00
1479.589, 52666.00
1480.632, 52740.00
1481.674, 52787.00
1482.717, 53022.00
1483.759, 52648.00
1484.801, 52798.00
1485.843, 52969.00
1486.885, 52678.00
1487.927, 52883.00
1488.968, 52872.00
1490.010, 52908.00
1491.051, 52806.00
1492.092, 52818.66
1493.133, 52751.15
1494.174, 52776.00
1495.215, 52676.00
1496.255, 52667.00
1497.296, 52759.00
1498.336, 52922.00
1499.376, 52826.00
1500.416, 53043.00
1501.456, 53189.00
1502.495, 52545.00
1503.535, 52732.00
1504.574, 52707.00
1505.613, 52570.03
1506.652, 52601.27
1507.691, 52706.00
1508.730, 52502.00
1509.768, 52754.00
1510.807, 52835.00
1511.845, 53017.00
1512.883, 52805.00
1513.921, 52964.00
1514.959, 52598.00
1515.996, 52876.00
1517.034, 53034.00
1518.071, 52910.00
1519.109, 52835.00
1520.146, 53012.00
1521.183, 52826.00
1522.219, 52833.00
1523.256, 52668.00
1524.292, 52839.00
1525.329, 52965.00
1526.365, 52633.00
1527.401, 53288.00
1528.437, 53147.15
1529.472, 52915.00
1530.508, 53157.00
1531.543, 53370.00
1532.579, 52995.00
1533.614, 52795.00
1534.649, 52862.00
1535.683, 52797.00
1536.718, 52847.00
1537.753, 53023.00
1538.787, 52883.00
1539.821, 52900.00
1540.855, 53154.00
1541.889, 53058.00
1542.923, 52933.00
1543.956, 52981.00
1544.990, 52915.00
1546.023, 53021.00
1547.056, 52966.00
1548.089, 52954.11
1549.122, 53422.53
1550.155, 53694.18
1551.187, 53779.60
1552.220, 53121.14
1553.252, 53423.25
1554.284, 53340.41
1555.316, 53241.78
1556.348, 53679.10
1557.379, 53128.80
1558.411, 53557.62
1559.442, 53595.58
1560.474, 53812.44
1561.505, 53641.94
1562.535, 53591.05
1563.566, 53927.66
1564.597, 54049.72
1565.627, 53834.61
1566.658, 54062.82
1567.688, 53498.97
1568.718, 53630.15
1569.748, 53809.00
1570.777, 54970.00
##END=



