##NAMES=Annite
##RRUFFID=R060211
##IDEAL CHEMISTRY=KFe^2+^_3_AlSi_3_O_10_(OH)_2_
##LOCALITY=Mont Saint-Hilaire, Rouville County, Quebec, Canada
##OWNER=RRUFF
##SOURCE=Royal Ontario Museum
##DESCRIPTION=Black mica
##STATUS=The identification of this mineral has been confirmed by X-ray diffraction and chemical analysis
##URL=rruff.info/R060211
##MEASURED CHEMISTRY=(K_0.94_[box]_0.03_Na_0.02_)_Σ=1_(Fe^2+^_2.07_Mg_0.57_Mn_0.33_Ti_0.03_)_Σ=3_(Si_2.98_Al_1.02_)O_10_((OH)_1.72_F_0.28_)_Σ=2_
##PIN_ID=L01834
##ORIENTATION=Laser parallel to b* (0 1 0). Fiducial mark perpendicular to laser is parallel to c [0 0 1]
230.8490, 27915.00
232.0700, 28058.00
233.2910, 28249.00
234.5120, 27850.00
235.7320, 27990.00
236.9530, 28030.00
238.1730, 28087.00
239.3930, 28141.00
240.6130, 28081.00
241.8320, 28076.58
243.0520, 27828.00
244.2710, 27984.00
245.4900, 27874.63
246.7090, 27861.00
247.9280, 27963.00
249.1470, 27941.00
250.3650, 28160.00
251.5840, 28035.00
252.8020, 28123.00
254.0200, 28348.00
255.2370, 28078.38
256.4550, 28251.75
257.6720, 28372.68
258.8900, 28444.06
260.1070, 28317.30
261.3240, 28446.34
262.5400, 28472.82
263.7570, 28495.15
264.9730, 28372.00
266.1900, 28461.00
267.4060, 28418.00
268.6220, 28565.00
269.8370, 28343.00
271.0530, 28445.00
272.2680, 28607.00
273.4830, 28631.00
274.6980, 28464.00
275.9130, 28722.00
277.1280, 28471.00
278.3420, 28528.00
279.5570, 28557.00
280.7710, 28771.00
281.9850, 28671.02
283.1990, 28571.00
284.4120, 28537.00
285.6260, 28363.00
286.8390, 28244.00
288.0520, 28204.04
289.2650, 28143.34
290.4780, 28188.00
291.6910, 28130.00
292.9030, 28298.00
294.1160, 28302.00
295.3280, 28542.00
296.5400, 28553.00
297.7510, 28162.00
298.9630, 28354.00
300.1740, 28419.00
301.3860, 28284.00
302.5970, 28420.00
303.8080, 28546.00
305.0180, 28482.00
306.2290, 28336.00
307.4390, 28534.00
308.6500, 28563.00
309.8600, 28484.00
311.0700, 28713.00
312.2790, 28779.00
313.4890, 28712.15
314.6980, 28827.00
315.9080, 28668.00
317.1170, 28551.00
318.3250, 28695.00
319.5340, 28615.00
320.7430, 28657.00
321.9510, 28800.00
323.1590, 28818.00
324.3670, 28913.00
325.5750, 28780.00
326.7830, 28936.00
327.9900, 28845.00
329.1980, 28965.00
330.4050, 28961.00
331.6120, 29034.00
332.8190, 29131.00
334.0250, 29123.69
335.2320, 29397.00
336.4380, 29146.00
337.6440, 29225.00
338.8500, 29216.00
340.0560, 29414.00
341.2620, 29409.00
342.4670, 29248.00
343.6730, 29229.00
344.8780, 29257.00
346.0830, 29387.00
347.2870, 29555.00
348.4920, 29519.57
349.6970, 29460.00
350.9010, 29498.00
352.1050, 29436.00
353.3090, 29410.00
354.5130, 29330.00
355.7160, 29362.00
356.9200, 29254.00
358.1230, 29304.00
359.3260, 29585.00
360.5290, 29427.00
361.7320, 29535.91
362.9340, 29599.00
364.1370, 29463.00
365.3390, 29510.00
366.5410, 29314.00
367.7430, 29479.00
368.9450, 29695.00
370.1460, 29710.00
371.3480, 29664.00
372.5490, 29650.00
373.7500, 29759.00
374.9510, 29739.00
376.1520, 29375.00
377.3520, 29937.00
378.5520, 30277.00
379.7530, 30029.00
380.9530, 29888.00
382.1530, 30023.00
383.3520, 30036.00
384.5520, 29797.00
385.7510, 29872.00
386.9500, 30135.00
388.1490, 30038.00
389.3480, 30079.00
390.5470, 30220.00
391.7450, 29833.00
392.9440, 30142.00
394.1420, 30040.00
395.3400, 30239.00
396.5380, 29958.00
397.7350, 30082.00
398.9330, 30241.00
400.1300, 30231.00
401.3270, 30178.00
402.5240, 30348.00
403.7210, 30450.00
404.9180, 30174.00
406.1140, 30228.00
407.3110, 30183.00
408.5070, 30255.00
409.7030, 30242.00
410.8990, 30242.00
412.0940, 30346.00
413.2900, 30272.00
414.4850, 30331.00
415.6800, 30212.00
416.8750, 30592.00
418.0700, 30107.00
419.2650, 30313.00
420.4590, 30031.00
421.6530, 30197.00
422.8470, 30311.00
424.0410, 29980.00
425.2350, 30116.00
426.4290, 30355.00
427.6220, 30049.00
428.8160, 30597.00
430.0090, 30499.28
431.2020, 30836.00
432.3940, 30563.00
433.5870, 30064.00
434.7790, 29915.00
435.9720, 30326.00
437.1640, 30080.00
438.3560, 30269.00
439.5470, 30375.00
440.7390, 30281.00
441.9300, 30502.00
443.1220, 30258.00
444.3130, 30497.00
445.5040, 30596.00
446.6940, 30337.00
447.8850, 30378.00
449.0750, 30462.00
450.2660, 30363.00
451.4560, 30506.00
452.6460, 30462.00
453.8350, 30467.00
455.0250, 30391.00
456.2140, 30537.00
457.4040, 30593.00
458.5930, 30554.00
459.7820, 30685.73
460.9700, 30749.00
462.1590, 30813.00
463.3470, 30807.00
464.5350, 30810.00
465.7240, 30875.70
466.9110, 30984.00
468.0990, 30956.00
469.2870, 31076.00
470.4740, 31059.00
471.6610, 31217.00
472.8480, 31122.00
474.0350, 31237.00
475.2220, 31235.00
476.4090, 31282.00
477.5950, 31416.00
478.7810, 31598.00
479.9670, 31467.00
481.1530, 31571.00
482.3390, 31558.00
483.5240, 31679.00
484.7100, 31919.00
485.8950, 31682.00
487.0800, 31839.00
488.2650, 31733.00
489.4490, 31676.00
490.6340, 32036.00
491.8180, 32954.00
493.0030, 32747.00
494.1870, 33091.00
495.3700, 33085.00
496.5540, 33138.00
497.7380, 32543.00
498.9210, 32210.00
500.1040, 32325.00
501.2870, 32386.00
502.4700, 32079.00
503.6530, 32504.00
504.8350, 32175.00
506.0180, 32558.00
507.2000, 32634.00
508.3820, 32666.00
509.5640, 32642.00
510.7450, 32801.00
511.9270, 32622.00
513.1080, 32368.00
514.2890, 32749.00
515.4700, 32738.00
516.6510, 32720.00
517.8320, 33012.00
519.0130, 32717.00
520.1930, 32959.00
521.3730, 33061.00
522.5530, 32960.00
523.7330, 33234.00
524.9130, 33140.00
526.0920, 33118.00
527.2710, 33231.00
528.4510, 33216.00
529.6300, 33246.00
530.8080, 33533.00
531.9870, 33367.00
533.1660, 33806.00
534.3440, 33563.00
535.5220, 33564.00
536.7000, 33845.00
537.8780, 33879.00
539.0560, 33813.00
540.2330, 33757.00
541.4110, 33597.00
542.5880, 33614.05
543.7650, 33594.00
544.9420, 33655.00
546.1180, 33646.00
547.2950, 33792.00
548.4710, 33790.00
549.6470, 33472.00
550.8230, 33593.00
551.9990, 33529.00
553.1750, 33732.00
554.3500, 33539.00
555.5260, 33513.00
556.7010, 33593.00
557.8760, 33607.00
559.0510, 33550.73
560.2250, 33524.04
561.4000, 33454.00
562.5740, 33349.00
563.7480, 33358.00
564.9220, 33245.00
566.0960, 33332.00
567.2700, 33282.84
568.4430, 33283.00
569.6170, 33293.00
570.7900, 33298.00
571.9630, 33359.00
573.1360, 33195.00
574.3080, 33364.00
575.4810, 33195.00
576.6530, 33381.00
577.8250, 33243.00
578.9980, 33357.00
580.1690, 33309.00
581.3410, 33118.00
582.5130, 33556.00
583.6840, 33143.00
584.8550, 33358.00
586.0260, 33285.00
587.1970, 33570.00
588.3680, 33428.00
589.5380, 33407.00
590.7080, 33603.00
591.8790, 33534.00
593.0490, 33469.00
594.2190, 33605.00
595.3880, 33363.00
596.5580, 33602.00
597.7270, 33476.00
598.8960, 33828.00
600.0650, 33686.00
601.2340, 33911.00
602.4030, 34010.00
603.5710, 33970.00
604.7400, 33943.00
605.9080, 33958.00
607.0760, 34098.00
608.2440, 34314.00
609.4120, 34147.00
610.5790, 34379.00
611.7460, 34510.00
612.9140, 34320.00
614.0810, 34506.00
615.2480, 34462.00
616.4140, 34505.00
617.5810, 34668.00
618.7470, 34601.00
619.9130, 34398.00
621.0790, 34841.00
622.2450, 34571.00
623.4110, 34767.00
624.5770, 35093.00
625.7420, 35010.00
626.9070, 35152.00
628.0720, 35407.00
629.2370, 34977.00
630.4020, 35199.00
631.5660, 35359.00
632.7310, 35468.00
633.8950, 35474.00
635.0590, 35655.00
636.2230, 35802.00
637.3870, 35552.00
638.5500, 35960.00
639.7140, 35969.00
640.8770, 36354.00
642.0400, 36482.00
643.2030, 36556.00
644.3660, 37092.00
645.5280, 36947.00
646.6910, 37101.00
647.8530, 37354.00
649.0150, 37327.00
650.1770, 37627.00
651.3390, 38144.00
652.5000, 38137.00
653.6620, 38603.00
654.8230, 39085.00
655.9840, 39274.00
657.1450, 39680.00
658.3060, 39800.00
659.4660, 40207.00
660.6270, 40699.00
661.7870, 40851.00
662.9470, 41445.00
664.1070, 41700.00
665.2670, 41822.00
666.4260, 42209.00
667.5860, 42218.00
668.7450, 42144.00
669.9040, 42421.00
671.0630, 42173.00
672.2220, 42006.00
673.3800, 42005.00
674.5390, 41902.00
675.6970, 41414.00
676.8550, 41504.00
678.0130, 41105.00
679.1710, 41030.00
680.3290, 40985.00
681.4860, 40660.00
682.6430, 40862.00
683.8000, 40242.00
684.9570, 40211.00
686.1140, 39987.00
687.2710, 39449.00
688.4270, 39711.00
689.5840, 39448.00
690.7400, 39460.00
691.8960, 39348.00
693.0520, 39111.00
694.2070, 38825.00
695.3630, 39082.00
696.5180, 38758.00
697.6730, 38797.00
698.8280, 38689.00
699.9830, 38579.00
701.1380, 38547.61
702.2920, 38344.00
703.4470, 38440.00
704.6010, 38160.00
705.7550, 38164.00
706.9090, 37918.00
708.0620, 37740.00
709.2160, 38041.00
710.3690, 37952.00
711.5220, 37745.00
712.6750, 37584.00
713.8280, 37639.00
714.9810, 37564.31
716.1340, 37507.12
717.2860, 37610.00
718.4380, 37491.00
719.5900, 37464.00
720.7420, 37626.00
721.8940, 37401.00
723.0450, 37294.00
724.1970, 37163.00
725.3480, 37155.00
726.4990, 37314.00
727.6500, 37039.00
728.8010, 37370.00
729.9510, 37043.00
731.1020, 36972.00
732.2520, 37394.00
733.4020, 37067.00
734.5520, 37186.00
735.7020, 37178.00
736.8510, 36991.00
738.0010, 37046.00
739.1500, 37151.00
740.2990, 37238.00
741.4480, 37324.00
742.5970, 37316.03
743.7450, 37071.00
744.8940, 37285.00
746.0420, 37106.00
747.1900, 37124.00
748.3380, 37264.00
749.4860, 37116.00
750.6330, 37468.00
751.7810, 37348.00
752.9280, 37503.00
754.0750, 37503.00
755.2220, 37670.00
756.3690, 37430.00
757.5160, 37593.00
758.6620, 37534.00
759.8090, 37558.00
760.9550, 37698.00
762.1010, 37790.00
763.2470, 37782.00
764.3920, 37856.00
765.5380, 37654.00
766.6830, 37563.00
767.8280, 37881.00
768.9730, 37678.00
770.1180, 37735.00
771.2630, 37757.00
772.4070, 37827.00
773.5520, 37628.00
774.6960, 37691.00
775.8400, 37713.00
776.9840, 37619.00
778.1280, 37759.00
779.2710, 37710.00
780.4140, 37748.70
781.5580, 37740.00
782.7010, 37751.00
783.8440, 37528.00
784.9860, 37367.00
786.1290, 37374.00
787.2710, 37614.00
788.4140, 37699.00
789.5560, 37464.00
790.6980, 37507.00
791.8390, 37242.00
792.9810, 37116.00
794.1220, 37426.00
795.2640, 37385.00
796.4050, 37266.00
797.5460, 37431.04
798.6860, 37228.00
799.8270, 37400.00
800.9680, 37349.00
802.1080, 37065.00
803.2480, 37095.00
804.3880, 37404.00
805.5280, 37203.00
806.6670, 37132.00
807.8070, 37312.00
808.9460, 37091.00
810.0850, 37228.00
811.2240, 37262.00
812.3630, 37295.00
813.5020, 37222.00
814.6400, 37354.00
815.7790, 37390.00
816.9170, 37408.00
818.0550, 37461.00
819.1930, 37692.00
820.3300, 37436.00
821.4680, 37154.00
822.6050, 37422.00
823.7430, 37541.00
824.8800, 37332.00
826.0170, 37573.00
827.1530, 37716.00
828.2900, 37597.00
829.4260, 37473.00
830.5620, 37630.00
831.6990, 37639.00
832.8340, 37793.00
833.9700, 37507.00
835.1060, 37840.00
836.2410, 37664.00
837.3760, 37989.00
838.5120, 37748.00
839.6470, 37986.00
840.7810, 37983.00
841.9160, 37879.00
843.0500, 38011.00
844.1850, 37806.00
845.3190, 38035.00
846.4530, 38136.00
847.5870, 37877.00
848.7200, 38087.00
849.8540, 38010.00
850.9870, 38135.00
852.1200, 38421.00
853.2530, 38461.00
854.3860, 38543.45
855.5190, 38398.00
856.6510, 38577.00
857.7840, 38504.00
858.9160, 38502.00
860.0480, 38591.00
861.1800, 38517.00
862.3110, 38619.00
863.4430, 38687.00
864.5740, 38904.00
865.7060, 39013.00
866.8370, 38771.00
867.9680, 39023.00
869.0980, 39036.00
870.2290, 38964.00
871.3590, 39094.00
872.4900, 39026.00
873.6200, 39021.00
874.7500, 39216.00
875.8790, 39260.00
877.0090, 39386.00
878.1380, 39445.00
879.2680, 39302.00
880.3970, 39250.00
881.5260, 39569.00
882.6550, 39350.00
883.7830, 39644.00
884.9120, 39537.00
886.0400, 39385.00
887.1680, 39554.00
888.2960, 39595.00
889.4240, 39471.00
890.5520, 39527.00
891.6790, 39682.00
892.8070, 39796.00
893.9340, 39868.00
895.0610, 39946.25
896.1880, 39990.72
897.3140, 40021.00
898.4410, 40033.00
899.5670, 40037.00
900.6940, 40021.00
901.8200, 40083.00
902.9450, 39989.00
904.0710, 40252.00
905.1970, 40379.00
906.3220, 40361.00
907.4470, 40385.00
908.5730, 40213.00
909.6980, 40293.00
910.8220, 40582.00
911.9470, 40658.00
913.0710, 40475.00
914.1960, 40681.00
915.3200, 40714.00
916.4440, 40662.00
917.5680, 40870.00
918.6910, 40706.00
919.8150, 40946.00
920.9380, 41094.00
922.0610, 41000.00
923.1840, 41349.00
924.3070, 41318.00
925.4300, 41309.00
926.5520, 41285.00
927.6750, 41334.00
928.7970, 41361.00
929.9190, 41333.00
931.0410, 41421.00
932.1630, 41528.00
933.2840, 41578.29
934.4060, 41724.77
935.5270, 41795.00
936.6480, 41973.00
937.7690, 42162.00
938.8900, 42236.00
940.0100, 42162.00
941.1310, 42416.00
942.2510, 42226.00
943.3710, 42335.00
944.4910, 42266.00
945.6110, 42238.00
946.7310, 42502.00
947.8500, 42696.00
948.9690, 42464.00
950.0890, 42832.00
951.2080, 42615.00
952.3260, 42496.00
953.4450, 42523.00
954.5640, 42614.00
955.6820, 42870.00
956.8000, 42698.00
957.9180, 42871.00
959.0360, 42650.00
960.1540, 43228.00
961.2710, 43177.00
962.3890, 43125.00
963.5060, 43524.00
964.6230, 43156.00
965.7400, 43297.00
966.8570, 43461.00
967.9730, 43455.00
969.0900, 43496.00
970.2060, 43611.00
971.3220, 43596.00
972.4380, 43568.00
973.5540, 43425.00
974.6700, 43501.00
975.7850, 43436.00
976.9010, 43868.00
978.0160, 43669.00
979.1310, 43967.00
980.2460, 43888.00
981.3600, 43677.00
982.4750, 43853.00
983.5890, 44140.00
984.7030, 43983.00
985.8170, 44160.00
986.9310, 44406.00
988.0450, 44191.00
989.1590, 44504.00
990.2720, 44741.00
991.3850, 44920.00
992.4980, 44891.00
993.6110, 44890.00
994.7240, 45224.00
995.8370, 45378.00
996.9490, 45444.00
998.0620, 45850.00
999.1740, 46097.00
1000.286, 46420.00
1001.398, 46331.00
1002.509, 46420.00
1003.621, 46969.00
1004.732, 46736.00
1005.843, 47240.00
1006.954, 47271.00
1008.065, 47227.00
1009.176, 47719.00
1010.286, 47681.00
1011.397, 47705.00
1012.507, 48062.00
1013.617, 48042.00
1014.727, 48064.00
1015.837, 48023.00
1016.946, 47811.00
1018.056, 47862.00
1019.165, 47836.00
1020.274, 47910.00
1021.383, 47716.00
1022.492, 47568.00
1023.601, 47568.00
1024.709, 47252.00
1025.817, 47715.00
1026.926, 47180.00
1028.034, 47292.00
1029.141, 47343.00
1030.249, 46598.00
1031.357, 46862.00
1032.464, 47027.00
1033.571, 46654.00
1034.678, 46795.00
1035.785, 46579.00
1036.892, 46598.00
1037.999, 46427.00
1039.105, 46508.00
1040.211, 46548.00
1041.317, 46538.00
1042.423, 46528.28
1043.529, 46266.00
1044.635, 46388.00
1045.740, 46319.00
1046.845, 46153.00
1047.951, 46351.00
1049.056, 46122.00
1050.160, 46189.00
1051.265, 46221.00
1052.370, 45724.00
1053.474, 45888.00
1054.578, 46002.00
1055.682, 46179.00
1056.786, 46019.00
1057.890, 46028.00
1058.993, 45945.00
1060.097, 45795.00
1061.200, 46021.00
1062.303, 45952.00
1063.406, 46013.00
1064.509, 45955.00
1065.612, 46218.00
1066.714, 45864.00
1067.816, 46147.00
1068.919, 46051.00
1070.021, 45820.00
1071.122, 45770.00
1072.224, 45905.00
1073.326, 45840.00
1074.427, 46102.00
1075.528, 45540.00
1076.629, 45838.00
1077.730, 45739.00
1078.831, 45905.00
1079.931, 45698.00
1081.032, 45732.00
1082.132, 45681.00
1083.232, 45631.00
1084.332, 45672.00
1085.432, 45599.00
1086.531, 45408.00
1087.631, 45557.00
1088.730, 45332.00
1089.829, 45683.00
1090.928, 45747.00
1092.027, 45362.00
1093.126, 45489.00
1094.224, 45661.00
1095.323, 45656.00
1096.421, 45467.00
1097.519, 45558.00
1098.617, 45355.00
1099.715, 45492.00
1100.812, 45613.00
1101.910, 45498.59
1103.007, 45631.68
1104.104, 45412.00
1105.201, 45735.00
1106.298, 45703.00
1107.394, 45789.00
1108.491, 45951.00
1109.587, 45614.00
1110.683, 45783.00
1111.779, 45733.00
1112.875, 45594.00
1113.971, 45902.00
1115.066, 45721.00
1116.162, 45791.00
1117.257, 45797.00
1118.352, 45654.00
1119.447, 45893.00
1120.542, 45865.00
1121.636, 45832.00
1122.731, 46138.00
1123.825, 46122.00
1124.919, 46195.00
1126.013, 46138.00
1127.107, 46346.00
1128.200, 46097.00
1129.294, 46214.00
1130.387, 46090.00
1131.480, 45907.00
1132.573, 45891.00
1133.666, 46282.00
1134.759, 46090.00
1135.851, 46391.00
1136.944, 46311.00
1138.036, 46477.00
1139.128, 46506.00
1140.220, 46366.00
1141.312, 46238.00
1142.403, 46216.00
1143.495, 46355.00
1144.586, 46242.64
1145.677, 46473.00
1146.768, 46285.00
1147.859, 46629.00
1148.950, 46896.00
1150.040, 46870.00
1151.130, 46665.00
1152.221, 46666.00
1153.311, 46910.00
1154.401, 46728.00
1155.490, 46694.00
1156.580, 46871.00
1157.669, 46851.00
1158.759, 46984.00
1159.848, 47286.00
1160.937, 47140.00
1162.025, 47156.00
1163.114, 47373.00
1164.202, 47221.00
1165.291, 47437.00
1166.379, 47089.00
1167.467, 46713.00
1168.555, 47068.00
1169.642, 47474.00
1170.730, 47195.00
1171.817, 47517.00
1172.905, 47304.00
1173.992, 47298.00
1175.078, 47387.00
1176.165, 47507.00
1177.252, 47578.00
1178.338, 47605.00
1179.425, 47697.00
1180.511, 47722.00
1181.597, 47711.99
1182.682, 47706.00
1183.768, 47679.00
1184.854, 47768.00
1185.939, 47802.00
1187.024, 48051.00
1188.109, 48107.00
1189.194, 48196.00
1190.279, 48275.43
1191.363, 48003.00
1192.448, 48249.00
1193.532, 48227.00
1194.616, 48023.00
1195.700, 48180.00
1196.784, 48308.00
1197.867, 48246.00
1198.951, 48080.00
1200.034, 48304.00
1201.117, 48538.00
1202.200, 48199.00
1203.283, 48596.00
1204.366, 48642.00
1205.448, 48479.00
1206.531, 48105.00
1207.613, 48383.00
1208.695, 48533.00
1209.777, 48523.00
1210.859, 48730.00
1211.940, 48980.00
1213.022, 48801.00
1214.103, 48933.00
1215.184, 48776.00
1216.265, 48719.00
1217.346, 49044.00
1218.427, 48914.00
1219.507, 48817.00
1220.587, 49137.00
1221.668, 49034.00
1222.748, 48770.00
1223.828, 49203.00
1224.907, 49186.00
1225.987, 49054.00
1227.066, 49491.00
1228.146, 49102.00
1229.225, 49395.00
1230.304, 49370.00
1231.382, 49395.00
1232.461, 49480.00
1233.540, 49433.21
1234.618, 49623.00
1235.696, 49452.00
1236.774, 49668.00
1237.852, 49810.00
1238.930, 49788.00
1240.007, 49711.00
1241.085, 49811.00
1242.162, 49696.00
1243.239, 50011.00
1244.316, 50177.00
1245.393, 49972.00
1246.469, 49977.00
1247.546, 49881.00
1248.622, 49781.00
1249.698, 50060.00
1250.774, 50121.00
1251.850, 50100.00
1252.926, 50253.00
1254.001, 50453.00
1255.077, 50282.00
1256.152, 50392.00
1257.227, 50626.00
1258.302, 50175.00
1259.377, 50423.00
1260.451, 50160.00
1261.526, 50689.00
1262.600, 50589.00
1263.674, 50472.00
1264.748, 50525.00
1265.822, 50736.00
1266.896, 51044.00
1267.969, 50887.00
1269.043, 50802.00
1270.116, 50990.00
1271.189, 50649.00
1272.262, 51114.00
1273.335, 51056.00
1274.407, 51013.00
1275.480, 51199.00
1276.552, 51127.00
1277.624, 51077.00
1278.696, 51356.00
1279.768, 51398.00
1280.840, 51501.28
1281.911, 51513.00
1282.982, 51615.00
1284.054, 51728.00
1285.125, 51588.00
1286.196, 51719.00
1287.266, 51859.00
1288.337, 51765.00
1289.407, 51860.84
1290.478, 51784.00
1291.548, 51911.00
1292.618, 51753.00
1293.688, 51843.00
1294.757, 52191.00
1295.827, 52201.00
1296.896, 52225.00
1297.965, 52415.38
1299.034, 52213.00
1300.103, 52629.00
1301.172, 52185.00
1302.241, 52250.00
1303.309, 52055.00
1304.377, 52133.00
1305.445, 52534.00
1306.513, 52486.00
1307.581, 52311.00
1308.649, 52694.00
1309.716, 52733.00
1310.784, 52442.00
1311.851, 52955.00
1312.918, 52649.00
1313.985, 52865.00
1315.052, 52987.00
1316.118, 52887.00
1317.185, 52737.00
1318.251, 52824.00
1319.317, 52827.99
1320.383, 52836.59
1321.449, 52965.00
1322.514, 53024.00
1323.580, 52978.00
1324.645, 53264.00
1325.711, 53305.00
1326.776, 53297.00
1327.840, 53454.00
1328.905, 53242.00
1329.970, 53290.00
1331.034, 53333.00
1332.099, 53369.00
1333.163, 53542.00
1334.227, 53934.00
1335.290, 54148.00
1336.354, 53548.00
1337.418, 53715.00
1338.481, 53458.00
1339.544, 53795.00
1340.607, 53878.00
1341.670, 54363.00
1342.733, 53758.00
1343.795, 53788.00
1344.858, 54337.00
1345.920, 53727.00
1346.982, 53998.00
1348.044, 54299.00
1349.106, 54422.00
1350.168, 54543.00
1351.229, 54593.92
1352.291, 54522.00
1353.352, 54411.00
1354.413, 54535.00
1355.474, 54142.00
1356.534, 54283.00
1357.595, 54675.00
1358.656, 54465.00
1359.716, 54444.00
1360.776, 54948.00
1361.836, 54526.00
1362.896, 54819.00
1363.955, 54844.00
1365.015, 54636.00
1366.074, 54937.00
1367.134, 54943.00
1368.193, 54880.00
1369.252, 54809.00
1370.310, 54860.00
1371.369, 55108.00
1372.427, 54742.00
1373.486, 54952.00
1374.544, 54972.00
1375.602, 54848.00
1376.660, 54967.00
1377.717, 54968.11
1378.775, 55093.00
1379.832, 55096.00
1380.889, 55029.00
1381.946, 55104.00
1383.003, 55441.00
1384.060, 55197.00
1385.117, 55117.00
1386.173, 54905.00
1387.230, 55197.00
1388.286, 55180.00
1389.342, 55401.00
1390.398, 55560.90
1391.453, 55492.00
1392.509, 55637.00
1393.564, 55708.00
1394.619, 55658.23
1395.675, 55322.00
1396.729, 55463.00
1397.784, 55553.00
1398.839, 55178.00
1399.893, 55787.00
1400.948, 55452.00
1402.002, 55871.00
1403.056, 55525.00
1404.110, 55718.00
1405.163, 55905.00
1406.217, 55836.00
1407.270, 55509.00
1408.324, 55301.00
1409.377, 55875.00
1410.430, 56319.00
1411.483, 56036.00
1412.535, 55970.00
1413.588, 55875.00
1414.640, 55894.00
1415.692, 55902.00
1416.744, 56149.00
1417.796, 55743.00
1418.848, 56190.00
1419.900, 55986.00
1420.951, 55801.05
1422.002, 55953.55
1423.053, 56053.64
1424.104, 56104.16
1425.155, 55956.57
1426.206, 56064.79
1427.256, 56070.46
1428.307, 56071.96
1429.357, 56216.15
1430.407, 56097.34
1431.457, 56239.27
1432.507, 56277.11
1433.556, 56362.57
1434.606, 56344.90
1435.655, 56359.06
1436.704, 56476.40
1437.753, 56536.61
1438.802, 56507.04
1439.851, 56595.52
1440.899, 56473.05
1441.948, 56765.00
1442.996, 56680.00
1444.044, 56414.00
1445.092, 56522.00
1446.140, 56820.00
1447.187, 56439.00
1448.235, 56585.00
1449.282, 56790.00
1450.329, 56487.00
1451.376, 56939.00
1452.423, 57066.00
1453.470, 56872.00
1454.517, 56709.00
1455.563, 56784.00
1456.609, 56938.00
1457.655, 57175.00
1458.701, 57278.00
1459.747, 56853.00
1460.793, 56835.00
1461.838, 56974.00
1462.884, 56796.00
1463.929, 56915.00
1464.974, 56906.00
1466.019, 56822.00
1467.064, 57170.00
1468.108, 57253.00
1469.153, 57529.00
1470.197, 57504.00
1471.241, 57566.00
1472.285, 57362.00
1473.329, 57105.00
1474.373, 57445.00
1475.416, 57564.00
1476.460, 57271.00
1477.503, 57294.00
1478.546, 57388.00
1479.589, 57589.00
1480.632, 58009.00
1481.674, 57457.00
1482.717, 57876.00
1483.759, 57591.00
1484.801, 58094.00
1485.843, 57548.00
1486.885, 57695.00
1487.927, 57862.00
1488.968, 57880.00
1490.010, 57909.00
1491.051, 58052.00
1492.092, 57978.00
1493.133, 58091.00
1494.174, 58296.00
1495.215, 58370.00
1496.255, 58328.00
1497.296, 58257.00
1498.336, 58257.34
1499.376, 58211.00
1500.416, 58213.00
1501.456, 58312.00
1502.495, 58394.00
1503.535, 58692.00
1504.574, 58750.00
1505.613, 58359.00
1506.652, 58628.00
1507.691, 58889.00
1508.730, 59020.00
1509.768, 59053.04
1510.807, 58983.00
1511.845, 58929.00
1512.883, 59057.00
1513.921, 58943.48
1514.959, 59084.47
1515.996, 59119.00
1517.034, 59278.00
1518.071, 59330.00
1519.109, 59348.00
1520.146, 59586.00
1521.183, 59515.00
1522.219, 59442.00
1523.256, 59613.21
1524.292, 59598.98
1525.329, 59769.00
1526.365, 59759.00
1527.401, 59741.00
1528.437, 59800.00
1529.472, 59934.00
1530.508, 60065.00
1531.543, 60221.00
1532.579, 60227.00
1533.614, 60184.00
1534.649, 60415.00
1535.683, 60351.00
1536.718, 60536.00
1537.753, 60594.26
1538.787, 60377.00
1539.821, 60767.00
1540.855, 60492.00
1541.889, 60630.00
1542.923, 60644.00
1543.956, 60852.00
1544.990, 60755.00
1546.023, 60954.00
1547.056, 61040.00
1548.089, 61184.00
1549.122, 61350.00
1550.155, 61529.00
1551.187, 61606.00
1552.220, 61757.00
1553.252, 61719.00
1554.284, 61899.00
1555.316, 62132.00
1556.348, 62082.00
1557.379, 61693.00
1558.411, 61558.00
1559.442, 62024.00
1560.474, 61756.00
1561.505, 62358.00
1562.535, 62021.00
1563.566, 62159.00
1564.597, 62142.00
1565.627, 62264.00
1566.658, 62220.00
1567.688, 62372.00
1568.718, 62292.00
1569.748, 62459.00
1570.777, 62770.00
##END=



