##NAMES=Arfvedsonite
##RRUFFID=R040127
##IDEAL CHEMISTRY=NaNa_2_(Fe^2+^_4_Fe^3+^)Si_8_O_22_(OH)_2_
##LOCALITY=Mont Saint-Hilaire, Rouville County, Quebec, Canada
##OWNER=RRUFF
##SOURCE=Bob Downs
##DESCRIPTION=Black prismatic crystal associated with white analcime, R040128
##STATUS=The identification of this mineral has been confirmed by X-ray diffraction and chemical analysis
##URL=rruff.info/R040127
##MEASURED CHEMISTRY=(Na_0.61_K_0.39_)Na_2.00_(Fe^2+^_2.40_Mg_0.80_Mn_0.75_Ca_0.05_)_&#931;=4_(Fe^3+^_0.60_Al_0.25_Mn_0.15_)(Si_0.99_Ti_0.01_)_8_O_22_((OH)_0.67_F_0.33_)_2_
##PIN_ID=M00386
##ORIENTATION=Laser parallel to -c* (0 0 -1). Fiducial mark perpendicular to laser is parallel to -a [-1 0 0]
131.3060, 31425.00
132.5420, 31583.00
133.7780, 32340.00
135.0140, 33498.00
136.2500, 35563.00
137.4850, 38669.00
138.7200, 43558.00
139.9550, 47038.00
141.1900, 47224.00
142.4250, 46523.00
143.6600, 44081.00
144.8940, 41271.00
146.1280, 39251.00
147.3620, 37305.00
148.5960, 35603.00
149.8300, 35188.00
151.0630, 35531.00
152.2960, 35149.00
153.5300, 34082.00
154.7620, 34834.00
155.9950, 34797.00
157.2280, 34984.00
158.4600, 35432.00
159.6920, 36961.00
160.9250, 39124.00
162.1560, 39189.00
163.3880, 39934.00
164.6200, 41119.00
165.8510, 40910.00
167.0820, 40474.00
168.3130, 40103.00
169.5440, 39718.00
170.7750, 39084.00
172.0050, 38093.00
173.2350, 37080.00
174.4650, 36448.00
175.6950, 35869.00
176.9250, 35867.00
178.1550, 35641.00
179.3840, 35507.00
180.6130, 35196.00
181.8420, 35133.00
183.0710, 35132.00
184.3000, 35558.00
185.5280, 35957.00
186.7570, 36450.79
187.9850, 37093.00
189.2130, 37872.00
190.4400, 38429.00
191.6680, 39458.00
192.8960, 40176.00
194.1230, 40821.00
195.3500, 41378.00
196.5770, 41791.00
197.8030, 42222.00
199.0300, 42570.00
200.2560, 43245.00
201.4830, 43576.00
202.7090, 43357.00
203.9340, 42493.00
205.1600, 41482.00
206.3860, 40969.00
207.6110, 41213.00
208.8360, 41198.00
210.0610, 41751.00
211.2860, 42179.00
212.5100, 42557.00
213.7350, 42607.00
214.9590, 42741.00
216.1830, 41807.00
217.4070, 41602.00
218.6310, 41321.00
219.8540, 40512.00
221.0780, 40003.00
222.3010, 39535.00
223.5240, 39574.00
224.7470, 39666.00
225.9690, 39275.00
227.1920, 38848.00
228.4140, 38657.00
229.6360, 38564.00
230.8580, 38690.00
232.0800, 38502.00
233.3020, 38690.00
234.5230, 38872.00
235.7440, 38850.00
236.9650, 38993.00
238.1860, 39422.00
239.4070, 39436.00
240.6280, 39591.00
241.8480, 39811.00
243.0680, 39432.00
244.2880, 39580.00
245.5080, 39714.00
246.7280, 39300.00
247.9470, 39133.00
249.1660, 38927.00
250.3860, 38424.00
251.6040, 38185.00
252.8230, 38251.00
254.0420, 37697.00
255.2600, 37557.00
256.4790, 37497.00
257.6970, 37873.00
258.9150, 37357.16
260.1320, 36952.08
261.3500, 36675.00
262.5670, 36286.57
263.7840, 36040.06
265.0010, 35694.00
266.2180, 35507.00
267.4350, 35245.00
268.6510, 34868.00
269.8680, 34808.05
271.0840, 34942.00
272.3000, 34598.00
273.5160, 34583.00
274.7310, 34472.00
275.9470, 34366.00
277.1620, 34144.00
278.3770, 34072.00
279.5920, 33949.00
280.8070, 33607.00
282.0210, 33841.00
283.2360, 33578.00
284.4500, 33666.00
285.6640, 33720.00
286.8780, 33982.00
288.0920, 33843.00
289.3050, 33962.00
290.5180, 34309.00
291.7320, 34552.00
292.9450, 34589.00
294.1570, 34621.00
295.3700, 34780.00
296.5830, 34726.00
297.7950, 35034.00
299.0070, 35095.00
300.2190, 35534.00
301.4310, 35494.00
302.6420, 35679.00
303.8540, 35689.00
305.0650, 36359.00
306.2760, 36427.00
307.4870, 37049.00
308.6980, 37183.00
309.9080, 37601.00
311.1190, 37688.00
312.3290, 38248.00
313.5390, 38160.00
314.7490, 38520.00
315.9580, 38407.00
317.1680, 38427.00
318.3770, 38492.00
319.5860, 38248.00
320.7950, 37938.00
322.0040, 37306.00
323.2130, 37061.00
324.4210, 36781.00
325.6290, 36404.00
326.8380, 36320.00
328.0460, 36118.00
329.2530, 35686.00
330.4610, 35754.00
331.6680, 35444.00
332.8760, 35299.00
334.0830, 35304.15
335.2890, 35828.00
336.4960, 35112.00
337.7030, 35440.00
338.9090, 35047.00
340.1150, 35507.00
341.3210, 35521.00
342.5270, 35486.00
343.7330, 35689.00
344.9380, 35799.00
346.1440, 36114.00
347.3490, 36436.00
348.5540, 36405.00
349.7590, 36692.00
350.9630, 36797.00
352.1680, 36972.00
353.3720, 37366.00
354.5760, 37218.00
355.7800, 37481.00
356.9840, 37422.00
358.1870, 37409.57
359.3910, 37376.00
360.5940, 37283.00
361.7970, 37055.00
363.0000, 36830.00
364.2030, 36847.00
365.4050, 36698.00
366.6080, 36268.00
367.8100, 36130.00
369.0120, 36057.00
370.2140, 35816.00
371.4150, 35772.00
372.6170, 35656.00
373.8180, 35646.00
375.0190, 35188.00
376.2200, 35159.00
377.4210, 35071.00
378.6220, 35061.00
379.8220, 35049.41
381.0230, 34897.00
382.2230, 35070.00
383.4230, 34993.00
384.6220, 35009.00
385.8220, 34826.00
387.0220, 34658.00
388.2210, 34538.00
389.4200, 34440.00
390.6190, 34362.00
391.8180, 34374.00
393.0160, 34257.00
394.2150, 34180.00
395.4130, 34172.00
396.6110, 34046.00
397.8090, 33987.00
399.0060, 34083.00
400.2040, 33903.00
401.4010, 33594.00
402.5980, 33819.00
403.7950, 33728.00
404.9920, 33730.00
406.1890, 33757.00
407.3860, 33861.85
408.5820, 34126.00
409.7780, 34272.00
410.9740, 34500.00
412.1700, 34912.00
413.3650, 35159.00
414.5610, 35272.00
415.7560, 35331.00
416.9510, 35294.00
418.1460, 35430.00
419.3410, 35621.00
420.5360, 35558.00
421.7300, 35751.00
422.9240, 35458.00
424.1180, 35511.00
425.3120, 35405.00
426.5060, 35947.00
427.7000, 35255.00
428.8930, 35041.62
430.0860, 34567.00
431.2790, 34061.00
432.4720, 34191.00
433.6650, 34012.00
434.8580, 33400.00
436.0500, 33575.00
437.2420, 33573.00
438.4340, 33459.00
439.6260, 33030.00
440.8180, 33125.84
442.0090, 32847.91
443.2010, 33022.00
444.3920, 32794.00
445.5830, 32638.00
446.7740, 32620.59
447.9640, 32569.73
449.1550, 32485.00
450.3450, 32540.00
451.5350, 32615.00
452.7250, 32378.00
453.9150, 32774.00
455.1050, 32882.00
456.2940, 32815.00
457.4830, 33088.00
458.6720, 33126.00
459.8610, 33242.00
461.0500, 33239.93
462.2390, 33061.00
463.4270, 33073.00
464.6150, 33201.00
465.8040, 33018.00
466.9910, 33046.00
468.1790, 32953.00
469.3670, 33068.00
470.5540, 33179.00
471.7410, 33163.00
472.9280, 33192.00
474.1150, 33129.00
475.3020, 33022.00
476.4890, 33046.00
477.6750, 33191.00
478.8610, 33015.00
480.0470, 33105.00
481.2330, 33052.00
482.4190, 33030.00
483.6040, 33129.00
484.7900, 33230.00
485.9750, 33430.00
487.1600, 33486.92
488.3450, 33599.00
489.5290, 33655.00
490.7140, 33883.00
491.8980, 33959.00
493.0820, 34078.00
494.2660, 34274.00
495.4500, 34345.00
496.6340, 34413.00
497.8170, 34705.00
499.0010, 34566.00
500.1840, 34841.00
501.3670, 34941.00
502.5500, 35406.00
503.7320, 35497.00
504.9150, 35547.00
506.0970, 35730.00
507.2790, 35789.00
508.4610, 35984.00
509.6430, 36203.00
510.8250, 36560.00
512.0060, 36445.00
513.1870, 36598.00
514.3680, 36595.00
515.5490, 36918.00
516.7300, 37161.00
517.9110, 37346.93
519.0910, 37543.00
520.2710, 37853.00
521.4510, 38313.00
522.6310, 38607.00
523.8110, 39307.00
524.9910, 39591.00
526.1700, 40355.00
527.3490, 41207.00
528.5280, 41708.00
529.7070, 42390.00
530.8860, 42851.00
532.0650, 43839.00
533.2430, 44298.00
534.4210, 44925.00
535.5990, 44925.00
536.7770, 45028.00
537.9550, 44804.00
539.1320, 44887.00
540.3100, 44724.00
541.4870, 44319.00
542.6640, 43772.00
543.8410, 43360.00
545.0170, 42933.00
546.1940, 42468.00
547.3700, 41895.00
548.5470, 41420.00
549.7230, 41070.00
550.8980, 40749.00
552.0740, 40285.00
553.2500, 40060.00
554.4250, 39545.00
555.6000, 39312.19
556.7750, 39116.14
557.9500, 38788.00
559.1250, 38787.00
560.2990, 38544.00
561.4730, 38300.00
562.6480, 38467.00
563.8220, 38029.00
564.9950, 38304.00
566.1690, 38449.00
567.3430, 38138.00
568.5160, 38545.00
569.6890, 38454.00
570.8620, 38688.00
572.0350, 38848.00
573.2070, 38417.00
574.3800, 38530.00
575.5520, 38284.00
576.7240, 38390.00
577.8960, 38310.00
579.0680, 36868.00
580.2400, 36508.00
581.4110, 35823.00
582.5830, 35438.00
583.7540, 35200.00
584.9250, 34715.68
586.0950, 34347.00
587.2660, 34085.00
588.4370, 33827.00
589.6070, 33635.00
590.7770, 33492.00
591.9470, 33283.00
593.1170, 33212.45
594.2860, 33161.00
595.4560, 33137.00
596.6250, 33101.00
597.7940, 33202.00
598.9630, 33452.00
600.1320, 33424.88
601.3000, 33429.00
602.4690, 33537.00
603.6370, 33164.00
604.8050, 33177.65
605.9730, 33056.70
607.1410, 33218.00
608.3090, 32862.00
609.4760, 32733.00
610.6430, 32672.00
611.8100, 33074.00
612.9770, 32902.00
614.1440, 32848.00
615.3110, 32896.00
616.4770, 32779.00
617.6430, 32979.00
618.8090, 33007.00
619.9750, 33032.00
621.1410, 33090.25
622.3070, 33046.00
623.4720, 33122.00
624.6370, 33159.00
625.8020, 33230.00
626.9670, 33486.00
628.1320, 33127.00
629.2970, 33239.00
630.4610, 33175.00
631.6250, 33443.00
632.7890, 33341.00
633.9530, 33459.00
635.1170, 33589.00
636.2810, 33716.00
637.4440, 33687.00
638.6070, 33753.00
639.7700, 33857.00
640.9330, 33872.00
642.0960, 34111.00
643.2590, 34151.39
644.4210, 34483.00
645.5830, 34351.00
646.7450, 34537.00
647.9070, 34657.00
649.0690, 34665.00
650.2310, 34855.00
651.3920, 34908.00
652.5530, 35231.00
653.7140, 35478.00
654.8750, 35555.00
656.0360, 36094.00
657.1970, 36494.00
658.3570, 36541.00
659.5170, 37067.00
660.6770, 37380.00
661.8370, 38093.00
662.9970, 38868.00
664.1570, 39793.00
665.3160, 40751.00
666.4750, 41710.00
667.6340, 43167.00
668.7930, 44526.00
669.9520, 46469.00
671.1110, 47834.00
672.2690, 49770.00
673.4270, 50974.00
674.5850, 51923.00
675.7430, 52534.00
676.9010, 51714.00
678.0590, 50547.00
679.2160, 48559.00
680.3730, 46658.00
681.5300, 44534.00
682.6870, 42996.00
683.8440, 41466.00
685.0010, 40269.00
686.1570, 39359.00
687.3130, 37988.00
688.4690, 37411.00
689.6250, 36983.00
690.7810, 36489.00
691.9370, 35979.00
693.0920, 35547.00
694.2470, 35657.00
695.4020, 35876.00
696.5570, 35215.00
697.7120, 35070.00
698.8670, 34749.00
700.0210, 34720.00
701.1750, 34613.00
702.3290, 34638.00
703.4830, 34271.00
704.6370, 34522.00
705.7910, 34565.00
706.9440, 34248.00
708.0970, 34159.00
709.2510, 34310.00
710.4030, 34218.00
711.5560, 34128.00
712.7090, 34077.00
713.8610, 34076.00
715.0140, 34342.00
716.1660, 34077.00
717.3180, 34285.00
718.4690, 34034.00
719.6210, 34012.00
720.7730, 33910.00
721.9240, 33898.00
723.0750, 33902.00
724.2260, 33902.00
725.3770, 34029.00
726.5270, 33970.36
727.6780, 34010.00
728.8280, 33995.00
729.9780, 33958.00
731.1280, 34109.00
732.2780, 34106.00
733.4280, 34125.00
734.5770, 34069.00
735.7260, 34046.00
736.8760, 33728.83
738.0250, 33982.03
739.1730, 34119.08
740.3220, 34146.19
741.4700, 33734.15
742.6190, 33889.18
743.7670, 33816.96
744.9150, 33735.43
746.0630, 33970.29
747.2100, 33622.14
748.3580, 33851.98
749.5050, 33851.11
750.6520, 33770.00
751.7990, 34079.00
752.9460, 33830.00
754.0930, 33942.00
755.2390, 33826.00
756.3860, 33906.00
757.5320, 33595.00
758.6780, 33773.00
759.8240, 33736.00
760.9690, 33810.00
762.1150, 33952.00
763.2600, 33980.00
764.4060, 33831.00
765.5510, 33849.00
766.6950, 34043.00
767.8400, 34167.00
768.9850, 33821.00
770.1290, 34043.00
771.2730, 33935.64
772.4170, 33878.00
773.5610, 33942.00
774.7050, 33978.00
775.8480, 34101.00
776.9920, 33985.00
778.1350, 34076.00
779.2780, 34019.00
780.4210, 34074.35
781.5640, 34157.00
782.7060, 34134.00
783.8490, 34201.00
784.9910, 34080.00
786.1330, 34119.00
787.2750, 34235.00
788.4170, 34500.00
789.5580, 34374.00
790.7000, 34514.00
791.8410, 34373.00
792.9820, 34541.00
794.1230, 34371.00
795.2640, 34513.00
796.4040, 34459.00
797.5450, 34867.00
798.6850, 34668.00
799.8250, 34781.00
800.9650, 34810.00
802.1050, 34537.00
803.2450, 34597.00
804.3840, 34530.00
805.5230, 34721.00
806.6630, 34557.00
807.8020, 34520.00
808.9400, 34327.00
810.0790, 34318.68
811.2170, 34475.00
812.3560, 34316.00
813.4940, 34298.00
814.6320, 34377.00
815.7700, 34210.00
816.9070, 34119.00
818.0450, 34359.00
819.1820, 34200.00
820.3190, 34049.00
821.4560, 33955.00
822.5930, 34094.00
823.7300, 33907.00
824.8670, 34123.00
826.0030, 34159.00
827.1390, 34249.00
828.2750, 34190.00
829.4110, 33945.00
830.5470, 34282.00
831.6820, 34220.00
832.8180, 34131.00
833.9530, 34604.00
835.0880, 34357.00
836.2230, 34206.00
837.3580, 34352.00
838.4920, 34269.00
839.6270, 34152.00
840.7610, 34406.00
841.8950, 34276.00
843.0290, 34442.00
844.1630, 34527.00
845.2960, 34453.00
846.4300, 34318.00
847.5630, 34477.00
848.6960, 34547.00
849.8290, 34770.00
850.9620, 34497.00
852.0940, 34788.00
853.2270, 34712.00
854.3590, 34645.00
855.4910, 34988.00
856.6230, 34774.00
857.7550, 34848.00
858.8870, 34955.00
860.0180, 35104.00
861.1500, 35174.90
862.2810, 35550.00
863.4120, 35380.00
864.5430, 35438.00
865.6730, 35579.00
866.8040, 35144.00
867.9340, 35323.00
869.0640, 35454.00
870.1940, 35373.27
871.3240, 35459.57
872.4540, 35486.00
873.5830, 35562.00
874.7130, 35546.00
875.8420, 35875.00
876.9710, 35874.00
878.1000, 35841.00
879.2290, 36071.00
880.3570, 36001.00
881.4860, 36495.00
882.6140, 36235.00
883.7420, 36484.00
884.8700, 36923.00
885.9980, 36480.00
887.1250, 36656.00
888.2530, 36791.00
889.3800, 37040.00
890.5070, 37024.00
891.6340, 37322.00
892.7610, 37478.00
893.8880, 37889.00
895.0140, 37747.00
896.1400, 37902.00
897.2670, 38190.00
898.3930, 37982.00
899.5180, 38080.00
900.6440, 38751.00
901.7700, 38723.00
902.8950, 38800.00
904.0200, 38953.00
905.1450, 39282.00
906.2700, 39145.00
907.3950, 39602.00
908.5190, 39866.00
909.6440, 39990.00
910.7680, 40161.00
911.8920, 40378.00
913.0160, 40595.00
914.1400, 40714.00
915.2630, 40763.00
916.3870, 41051.00
917.5100, 41258.00
918.6330, 41244.00
919.7560, 41250.00
920.8790, 41565.00
922.0010, 41573.00
923.1240, 41708.00
924.2460, 41347.00
925.3680, 41647.00
926.4900, 41401.00
927.6120, 41508.00
928.7340, 41458.00
929.8550, 41156.00
930.9760, 41223.00
932.0980, 41266.00
933.2190, 41235.00
934.3390, 41299.00
935.4600, 41451.00
936.5810, 41349.00
937.7010, 41175.00
938.8210, 41619.00
939.9410, 41586.00
941.0610, 41514.00
942.1810, 41778.68
943.3010, 42017.00
944.4200, 42161.00
945.5390, 42164.00
946.6580, 42611.00
947.7770, 42624.00
948.8960, 42718.00
950.0150, 43245.00
951.1330, 43511.00
952.2510, 43696.00
953.3690, 44298.00
954.4870, 44462.00
955.6050, 44964.00
956.7230, 45059.00
957.8400, 45882.00
958.9580, 46433.00
960.0750, 47107.00
961.1920, 47742.00
962.3090, 48233.00
963.4250, 49321.00
964.5420, 49685.00
965.6580, 50557.00
966.7740, 51479.00
967.8900, 52477.00
969.0060, 53368.00
970.1220, 54376.00
971.2380, 55129.00
972.3530, 55665.00
973.4680, 56557.00
974.5830, 56882.00
975.6980, 57173.00
976.8130, 57152.00
977.9280, 57046.00
979.0420, 56997.00
980.1560, 56385.00
981.2710, 55694.00
982.3850, 54759.00
983.4980, 54006.00
984.6120, 52730.00
985.7260, 51765.00
986.8390, 50824.00
987.9520, 50101.00
989.0650, 49159.00
990.1780, 48125.00
991.2910, 47322.00
992.4030, 46439.00
993.5160, 45782.00
994.6280, 45356.00
995.7400, 44828.00
996.8520, 43953.00
997.9640, 43881.00
999.0750, 43622.00
1000.187, 43070.00
1001.298, 43084.00
1002.409, 42638.00
1003.520, 42426.00
1004.631, 41973.00
1005.741, 41921.00
1006.852, 41690.00
1007.962, 41527.00
1009.072, 41490.00
1010.182, 41585.00
1011.292, 41009.00
1012.402, 41192.00
1013.511, 41111.00
1014.621, 40729.00
1015.730, 40856.00
1016.839, 40809.00
1017.948, 40945.00
1019.056, 40720.00
1020.165, 40744.00
1021.273, 41079.00
1022.382, 40864.00
1023.490, 40835.59
1024.598, 40919.00
1025.706, 40602.00
1026.813, 40496.00
1027.921, 40631.00
1029.028, 40524.00
1030.135, 40831.00
1031.242, 40492.00
1032.349, 40740.00
1033.456, 41328.00
1034.562, 41116.00
1035.668, 41263.29
1036.775, 40994.00
1037.881, 41154.00
1038.987, 41184.00
1040.092, 41296.00
1041.198, 41442.46
1042.303, 41508.00
1043.408, 41741.00
1044.514, 41878.00
1045.618, 42030.79
1046.723, 42147.40
1047.828, 42183.00
1048.932, 42324.00
1050.037, 42388.00
1051.141, 42476.00
1052.245, 42587.00
1053.349, 42753.49
1054.452, 42815.00
1055.556, 43092.00
1056.659, 43335.00
1057.762, 43407.00
1058.865, 43420.00
1059.968, 43462.00
1061.071, 43716.00
1062.174, 44189.00
1063.276, 44465.00
1064.378, 44720.00
1065.480, 44605.00
1066.582, 44846.00
1067.684, 44814.00
1068.786, 45108.00
1069.887, 44990.00
1070.988, 44604.00
1072.090, 44651.00
1073.191, 44770.00
1074.291, 44412.00
1075.392, 44423.00
1076.493, 44633.00
1077.593, 44634.00
1078.693, 43783.00
1079.793, 44008.00
1080.893, 43589.00
1081.993, 43577.00
1083.092, 43054.00
1084.192, 43296.00
1085.291, 43225.00
1086.390, 43681.00
1087.489, 43408.00
1088.588, 43327.00
1089.686, 43461.00
1090.785, 43646.00
1091.883, 43726.00
1092.981, 43881.00
1094.079, 44018.01
1095.177, 44218.00
1096.275, 44240.00
1097.373, 44429.00
1098.470, 44433.00
1099.567, 44822.00
1100.664, 44877.00
1101.761, 45225.00
1102.858, 45429.00
1103.954, 45177.00
1105.051, 45230.00
1106.147, 45142.00
1107.243, 45177.00
1108.339, 45276.00
1109.435, 45310.00
1110.531, 45470.00
1111.626, 45230.00
1112.722, 45468.00
1113.817, 45216.00
1114.912, 45094.00
1116.007, 45328.00
1117.101, 45337.00
1118.196, 45552.00
1119.290, 45389.00
1120.385, 45655.00
1121.479, 45338.00
1122.573, 45329.00
1123.666, 45597.00
1124.760, 45356.00
1125.853, 45215.00
1126.947, 45092.00
1128.040, 44882.00
1129.133, 44732.00
1130.226, 44616.89
1131.318, 44420.00
1132.411, 44403.00
1133.503, 44231.00
1134.596, 44131.35
1135.688, 44013.20
1136.780, 43813.00
1137.871, 43787.00
1138.963, 43649.00
1140.054, 43634.62
1141.146, 43332.00
1142.237, 43502.00
1143.328, 43214.00
1144.419, 43164.00
1145.509, 43069.00
1146.600, 42891.00
1147.690, 42796.00
1148.780, 42468.00
1149.870, 42408.00
1150.960, 42213.00
1152.050, 42290.00
1153.139, 41807.00
1154.229, 41530.00
1155.318, 41112.00
1156.407, 40753.61
1157.496, 40361.00
1158.585, 40020.00
1159.674, 39922.00
1160.762, 39514.00
1161.850, 39378.00
1162.939, 39149.00
1164.027, 38848.00
1165.114, 38764.00
1166.202, 38605.92
1167.290, 38586.00
1168.377, 38518.00
1169.464, 38409.00
1170.551, 38533.00
1171.638, 38274.00
1172.725, 38247.00
1173.812, 38630.00
1174.898, 38558.00
1175.984, 38159.00
1177.071, 38385.00
1178.157, 38469.00
1179.242, 38241.00
1180.328, 38313.00
1181.414, 38296.00
1182.499, 38451.00
1183.584, 38482.40
1184.669, 38418.14
1185.754, 38562.00
1186.839, 38350.00
1187.924, 38230.00
1189.008, 38391.00
1190.092, 38199.00
1191.177, 38073.00
1192.260, 38125.00
1193.344, 38080.00
1194.428, 38249.00
1195.512, 37943.00
1196.595, 38315.00
1197.678, 38526.00
1198.761, 38329.00
1199.844, 38059.00
1200.927, 38317.00
1202.009, 38259.00
1203.092, 38300.00
1204.174, 38130.00
1205.256, 38523.00
1206.338, 38332.60
1207.420, 38370.00
1208.502, 38395.00
1209.583, 38018.00
1210.665, 38391.00
1211.746, 38332.00
1212.827, 38345.00
1213.908, 38639.00
1214.988, 38377.00
1216.069, 38476.00
1217.149, 38656.00
1218.230, 38385.00
1219.310, 38519.00
1220.390, 38391.00
1221.470, 38312.00
1222.549, 38366.00
1223.629, 38315.75
1224.708, 38617.00
1225.787, 38388.00
1226.866, 38636.00
1227.945, 38765.00
1229.024, 39264.00
1230.103, 39354.00
1231.181, 38848.00
1232.259, 38572.00
1233.337, 38582.00
1234.415, 38680.00
1235.493, 38554.32
1236.571, 38754.00
1237.648, 38614.00
1238.726, 38580.00
1239.803, 38800.00
1240.880, 38371.00
1241.957, 38581.00
1243.034, 38668.00
1244.110, 38576.00
1245.187, 38702.00
1246.263, 38614.24
1247.339, 38702.00
1248.415, 38542.00
1249.491, 38681.00
1250.566, 38791.00
1251.642, 38814.00
1252.717, 38874.00
1253.793, 38941.00
1254.868, 39025.00
1255.943, 38934.00
1257.017, 38947.00
1258.092, 38871.00
1259.166, 38781.00
1260.241, 38927.00
1261.315, 38822.00
1262.389, 38775.00
1263.462, 38726.00
1264.536, 38652.00
1265.610, 38899.00
1266.683, 38894.00
1267.756, 38808.00
1268.829, 39021.00
1269.902, 38960.00
1270.975, 39123.00
1272.048, 38973.00
1273.120, 39056.00
1274.192, 38913.00
1275.264, 38913.00
1276.336, 38863.00
1277.408, 38977.00
1278.480, 38842.00
1279.551, 38900.00
1280.623, 39154.00
1281.694, 38964.00
1282.765, 38936.00
1283.836, 39289.00
1284.907, 39190.00
1285.977, 39313.00
1287.048, 39206.00
1288.118, 39148.00
1289.188, 39401.00
1290.258, 39418.00
1291.328, 39406.00
1292.398, 39237.00
1293.467, 39015.00
1294.537, 39188.00
1295.606, 39067.00
1296.675, 39399.00
1297.744, 39168.00
1298.813, 39409.00
1299.882, 39259.00
1300.950, 39236.61
1302.018, 39373.00
1303.086, 39212.00
1304.155, 39152.00
1305.222, 39270.00
1306.290, 39214.00
1307.358, 39166.00
1308.425, 39228.00
1309.492, 39042.00
1310.559, 39207.00
1311.626, 39184.00
1312.693, 39310.00
1313.760, 39254.00
1314.826, 39367.00
1315.893, 39629.00
1316.959, 39483.00
1318.025, 39713.00
1319.091, 39462.00
1320.157, 39568.00
1321.222, 39520.00
1322.288, 39692.00
1323.353, 39616.00
1324.418, 39518.00
1325.483, 39538.00
1326.548, 39735.00
1327.612, 39431.00
1328.677, 39622.00
1329.741, 39527.00
1330.806, 39584.00
1331.870, 39721.00
1332.934, 39578.00
1333.997, 39802.00
1335.061, 39879.00
1336.124, 39826.00
1337.188, 39695.00
1338.251, 39576.00
1339.314, 39899.00
1340.377, 39803.00
1341.439, 39778.00
1342.502, 40020.00
1343.564, 39786.00
1344.627, 40041.00
1345.689, 39722.00
1346.751, 39655.00
1347.813, 39646.00
1348.874, 40039.00
1349.936, 39833.00
1350.997, 39974.00
1352.058, 40130.00
1353.119, 39939.00
1354.180, 40058.00
1355.241, 39552.00
1356.301, 39882.00
1357.362, 39685.00
1358.422, 39825.00
1359.482, 39854.00
1360.542, 39952.00
1361.602, 39969.00
1362.662, 39973.00
1363.721, 40048.00
1364.781, 40031.00
1365.840, 39916.00
1366.899, 39773.00
1367.958, 40077.00
1369.017, 39941.00
1370.075, 40185.00
1371.134, 40183.00
1372.192, 39913.00
1373.250, 39984.00
1374.308, 40048.00
1375.366, 40144.00
1376.424, 40015.00
1377.481, 40134.00
1378.539, 40122.00
1379.596, 40066.00
1380.653, 40370.00
1381.710, 40047.00
1382.767, 40254.00
1383.824, 40341.00
1384.880, 40169.00
1385.937, 40258.00
1386.993, 39919.00
1388.049, 40186.00
1389.105, 40124.00
1390.161, 40114.97
1391.216, 40543.00
1392.272, 40216.00
1393.327, 40260.00
1394.382, 40372.00
1395.437, 40175.00
1396.492, 40250.00
1397.547, 40506.00
1398.601, 40556.00
1399.656, 40399.00
1400.710, 40698.00
1401.764, 40526.00
1402.818, 40756.00
1403.872, 40574.00
1404.925, 40361.00
1405.979, 40408.00
1407.032, 40558.00
1408.085, 40465.00
1409.139, 40802.00
1410.191, 40539.00
1411.244, 40913.00
1412.297, 40748.00
1413.349, 40758.00
1414.402, 40520.00
1415.454, 40868.00
1416.506, 40779.00
1417.558, 40801.00
1418.609, 40598.00
1419.661, 40722.00
1420.712, 40589.00
1421.764, 40532.00
1422.815, 40464.00
1423.866, 40794.00
1424.916, 40790.94
1425.967, 41010.00
1427.018, 41029.00
1428.068, 40922.00
1429.118, 40892.00
1430.168, 41042.00
1431.218, 40874.00
1432.268, 40863.00
1433.318, 41078.00
1434.367, 41237.00
1435.416, 40724.00
1436.465, 41102.00
1437.514, 40960.00
1438.563, 40821.00
1439.612, 41287.00
1440.661, 40820.00
1441.709, 41207.00
1442.757, 40928.00
1443.805, 41185.00
1444.853, 40873.00
1445.901, 41143.00
1446.949, 41249.00
1447.996, 41018.00
1449.044, 41238.00
1450.091, 41222.00
1451.138, 41522.00
1452.185, 41216.00
1453.232, 41416.00
1454.278, 41214.00
1455.325, 40960.00
1456.371, 41303.00
1457.417, 41234.00
1458.463, 41225.00
1459.509, 41173.00
1460.555, 41484.00
1461.601, 41399.00
1462.646, 41393.00
1463.691, 41218.00
1464.737, 41604.00
1465.782, 41389.00
1466.826, 41461.00
1467.871, 41371.00
1468.916, 41518.00
1469.960, 41412.00
1471.004, 41645.00
1472.048, 41428.00
1473.092, 41501.00
1474.136, 41270.70
1475.180, 41557.46
1476.223, 41728.04
1477.267, 41788.71
1478.310, 41410.21
1479.353, 41598.78
1480.396, 41560.10
1481.439, 41512.09
1482.481, 41780.46
1483.524, 41465.84
1484.566, 41729.19
1485.608, 41761.82
1486.650, 41900.04
1487.692, 41809.60
1488.734, 41789.78
1489.775, 41998.69
1490.817, 42080.96
1491.858, 41964.17
1492.899, 41728.00
1493.940, 42045.00
1494.981, 42074.00
1496.022, 41958.00
1497.062, 41853.00
1498.103, 41841.00
1499.143, 41814.89
1500.183, 41914.00
1501.223, 41814.00
1502.263, 41924.00
1503.302, 41835.00
1504.342, 42047.00
1505.381, 41934.00
1506.420, 41942.00
1507.459, 42123.00
1508.498, 42139.00
1509.537, 42132.00
1510.576, 42021.00
1511.614, 42073.00
1512.652, 41962.00
1513.691, 42084.00
1514.729, 42338.00
1515.767, 42191.00
1516.804, 42249.00
1517.842, 41995.00
1518.879, 42172.00
1519.917, 42025.22
1520.954, 42309.62
1521.991, 42477.86
1523.028, 42536.17
1524.064, 42155.30
1525.101, 42341.54
1526.137, 42300.50
1527.173, 42250.14
1528.210, 42516.19
1529.245, 42199.18
1530.281, 42460.20
1531.317, 42490.48
1532.352, 42626.35
1533.388, 42533.57
1534.423, 42511.40
1535.458, 42717.97
1536.493, 42797.88
1537.528, 42678.76
1538.562, 42821.32
1539.597, 42496.33
1540.631, 42581.62
1541.665, 42468.00
1542.700, 42340.52
1543.733, 42621.39
1544.767, 42786.10
1545.801, 42840.89
1546.834, 42456.50
1547.868, 42639.22
1548.901, 42594.66
1549.934, 42540.77
1550.967, 42803.29
1551.999, 42482.76
1553.032, 42740.25
1554.064, 42767.00
1555.097, 42899.37
1556.129, 42803.05
1557.161, 42777.37
1558.193, 42980.42
1559.224, 43056.80
1560.256, 42934.16
1561.287, 43073.21
1562.318, 42744.68
1563.350, 42826.47
1564.380, 42755.00
1565.411, 42837.00
1566.442, 43342.00
1567.472, 42800.00
1568.503, 42635.00
1569.533, 42604.00
1570.563, 43250.00
##END=



