##NAMES=Arfvedsonite
##RRUFFID=R040127
##IDEAL CHEMISTRY=NaNa_2_(Fe^2+^_4_Fe^3+^)Si_8_O_22_(OH)_2_
##LOCALITY=Mont Saint-Hilaire, Rouville County, Quebec, Canada
##OWNER=RRUFF
##SOURCE=Bob Downs
##DESCRIPTION=Black prismatic crystal associated with white analcime, R040128
##STATUS=The identification of this mineral has been confirmed by X-ray diffraction and chemical analysis
##URL=rruff.info/R040127
##MEASURED CHEMISTRY=(Na_0.61_K_0.39_)Na_2.00_(Fe^2+^_2.40_Mg_0.80_Mn_0.75_Ca_0.05_)_&#931;=4_(Fe^3+^_0.60_Al_0.25_Mn_0.15_)(Si_0.99_Ti_0.01_)_8_O_22_((OH)_0.67_F_0.33_)_2_
##PIN_ID=L01975
##ORIENTATION=Laser parallel to b* (0 1 0). Fiducial mark perpendicular to laser is parallel to c [0 0 1]
180.6130, 20498.00
181.8420, 21196.00
183.0710, 20695.00
184.3000, 20920.00
185.5280, 21874.00
186.7570, 23012.00
187.9850, 24273.00
189.2130, 24929.00
190.4400, 26079.00
191.6680, 27395.00
192.8960, 28641.00
194.1230, 29554.00
195.3500, 30218.00
196.5770, 30981.00
197.8030, 31236.00
199.0300, 31579.00
200.2560, 32497.00
201.4830, 33682.00
202.7090, 34047.00
203.9340, 32249.00
205.1600, 28216.00
206.3860, 24226.00
207.6110, 22838.00
208.8360, 22543.00
210.0610, 22480.00
211.2860, 22248.00
212.5100, 22397.00
213.7350, 23083.00
214.9590, 22383.00
216.1830, 22617.00
217.4070, 21421.00
218.6310, 21242.00
219.8540, 20757.00
221.0780, 20652.00
222.3010, 20248.00
223.5240, 19856.00
224.7470, 19716.00
225.9690, 19446.00
227.1920, 19272.00
228.4140, 19222.00
229.6360, 19378.34
230.8580, 19477.00
232.0800, 19862.00
233.3020, 19234.00
234.5230, 19253.00
235.7440, 19057.00
236.9650, 19254.00
238.1860, 19364.00
239.4070, 19480.29
240.6280, 19559.56
241.8480, 19792.00
243.0680, 19619.00
244.2880, 19533.00
245.5080, 19470.00
246.7280, 19377.76
247.9470, 19480.00
249.1660, 19206.00
250.3860, 19232.00
251.6040, 19022.93
252.8230, 18669.81
254.0420, 18763.00
255.2600, 18420.17
256.4790, 18377.14
257.6970, 18272.55
258.9150, 18109.56
260.1320, 17713.39
261.3500, 17618.36
262.5670, 17402.74
263.7840, 17182.17
265.0010, 17074.00
266.2180, 17017.00
267.4350, 16824.00
268.6510, 16704.00
269.8680, 16445.00
271.0840, 16349.00
272.3000, 15916.00
273.5160, 15945.00
274.7310, 15679.00
275.9470, 15766.00
277.1620, 15707.00
278.3770, 15730.00
279.5920, 15412.00
280.8070, 15174.00
282.0210, 15198.00
283.2360, 15204.00
284.4500, 14950.00
285.6640, 15039.00
286.8780, 15091.00
288.0920, 15162.00
289.3050, 15120.00
290.5180, 15104.00
291.7320, 15422.00
292.9450, 15424.00
294.1570, 15390.00
295.3700, 15641.21
296.5830, 15639.00
297.7950, 15951.00
299.0070, 15920.00
300.2190, 16019.00
301.4310, 16363.00
302.6420, 16424.00
303.8540, 16834.00
305.0650, 17106.00
306.2760, 17346.88
307.4870, 17896.00
308.6980, 17918.00
309.9080, 18250.00
311.1190, 18543.00
312.3290, 18926.23
313.5390, 19205.13
314.7490, 19422.31
315.9580, 19580.98
317.1680, 19411.06
318.3770, 19499.84
319.5860, 19526.89
320.7950, 19495.55
322.0040, 18580.00
323.2130, 18146.00
324.4210, 17720.00
325.6290, 17556.00
326.8380, 17259.00
328.0460, 16732.00
329.2530, 16711.00
330.4610, 16371.00
331.6680, 16234.00
332.8760, 16146.00
334.0830, 16473.00
335.2890, 16063.00
336.4960, 15965.00
337.7030, 16122.00
338.9090, 15906.00
340.1150, 16073.00
341.3210, 16231.00
342.5270, 16396.00
343.7330, 16542.00
344.9380, 16766.00
346.1440, 16906.00
347.3490, 17132.00
348.5540, 17586.00
349.7590, 17780.00
350.9630, 18104.00
352.1680, 18248.00
353.3720, 18400.00
354.5760, 18576.00
355.7800, 18672.63
356.9840, 18913.00
358.1870, 18825.00
359.3910, 18723.00
360.5940, 18675.00
361.7970, 18390.00
363.0000, 18348.00
364.2030, 18151.00
365.4050, 17993.00
366.6080, 17833.12
367.8100, 17633.48
369.0120, 17456.00
370.2140, 17254.00
371.4150, 17081.10
372.6170, 16905.30
373.8180, 16729.00
375.0190, 16611.01
376.2200, 16411.00
377.4210, 16416.00
378.6220, 16295.00
379.8220, 16258.00
381.0230, 16115.00
382.2230, 16142.00
383.4230, 15977.00
384.6220, 15999.00
385.8220, 15938.00
387.0220, 15868.59
388.2210, 15829.50
389.4200, 15741.00
390.6190, 15664.00
391.8180, 15536.00
393.0160, 15381.00
394.2150, 15167.00
395.4130, 15064.00
396.6110, 14962.76
397.8090, 14882.20
399.0060, 14800.00
400.2040, 14819.00
401.4010, 14677.00
402.5980, 14673.00
403.7950, 14543.00
404.9920, 14627.00
406.1890, 14606.00
407.3860, 14723.00
408.5820, 14821.84
409.7780, 14861.00
410.9740, 15106.00
412.1700, 15136.00
413.3650, 15321.00
414.5610, 15411.00
415.7560, 15625.00
416.9510, 15681.00
418.1460, 15765.77
419.3410, 15732.00
420.5360, 15783.00
421.7300, 15717.00
422.9240, 15533.00
424.1180, 15334.00
425.3120, 15358.00
426.5060, 15058.00
427.7000, 15072.00
428.8930, 14888.86
430.0860, 14939.00
431.2790, 14562.00
432.4720, 14384.00
433.6650, 14205.00
434.8580, 14140.00
436.0500, 14001.00
437.2420, 13803.00
438.4340, 13669.11
439.6260, 13608.94
440.8180, 13287.93
442.0090, 13417.18
443.2010, 13484.70
444.3920, 13493.83
445.5830, 13269.63
446.7740, 13346.73
447.9640, 13303.09
449.1550, 13254.49
450.3450, 13374.00
451.5350, 13183.75
452.7250, 13300.59
453.9150, 13294.85
455.1050, 13345.21
456.2940, 13274.09
457.4830, 13240.50
458.6720, 13328.44
459.8610, 13141.00
461.0500, 13371.00
462.2390, 13357.00
463.4270, 13598.00
464.6150, 13492.00
465.8040, 13470.00
466.9910, 13453.00
468.1790, 13735.00
469.3670, 13535.87
470.5540, 13687.59
471.7410, 13777.59
472.9280, 13809.19
474.1150, 13607.46
475.3020, 13707.02
476.4890, 13685.84
477.6750, 13659.70
478.8610, 13801.66
480.0470, 13633.86
481.2330, 13773.16
482.4190, 13789.86
483.6040, 13862.67
484.7900, 13813.99
485.9750, 13802.83
487.1600, 13913.20
488.3450, 13821.00
489.5290, 13897.32
490.7140, 13991.82
491.8980, 14054.00
493.0820, 14223.00
494.2660, 14280.00
495.4500, 14411.81
496.6340, 14556.51
497.8170, 14772.00
499.0010, 14848.00
500.1840, 15078.00
501.3670, 15229.00
502.5500, 15451.00
503.7320, 15564.00
504.9150, 15653.00
506.0970, 16075.00
507.2790, 15989.00
508.4610, 16157.00
509.6430, 16124.00
510.8250, 16206.00
512.0060, 16344.00
513.1870, 16423.00
514.3680, 16562.87
515.5490, 16804.00
516.7300, 16869.00
517.9110, 16934.00
519.0910, 17150.00
520.2710, 17215.00
521.4510, 17668.00
522.6310, 18091.00
523.8110, 18407.00
524.9910, 18840.00
526.1700, 19630.00
527.3490, 19864.00
528.5280, 20862.00
529.7070, 21388.00
530.8860, 22081.00
532.0650, 22801.47
533.2430, 23607.00
534.4210, 23965.00
535.5990, 24515.00
536.7770, 24798.00
537.9550, 24863.00
539.1320, 24783.00
540.3100, 24690.00
541.4870, 24148.00
542.6640, 23778.00
543.8410, 23490.00
545.0170, 22885.00
546.1940, 22421.00
547.3700, 22026.00
548.5470, 21400.00
549.7230, 21104.00
550.8980, 20714.00
552.0740, 20288.00
553.2500, 19877.00
554.4250, 19631.00
555.6000, 19485.00
556.7750, 19208.00
557.9500, 18929.00
559.1250, 18813.00
560.2990, 18652.00
561.4730, 18526.00
562.6480, 18708.00
563.8220, 18351.00
564.9950, 18397.00
566.1690, 18375.00
567.3430, 18220.00
568.5160, 18247.00
569.6890, 18260.00
570.8620, 18445.00
572.0350, 18331.00
573.2070, 18326.00
574.3800, 18044.00
575.5520, 17796.00
576.7240, 17548.00
577.8960, 17297.00
579.0680, 16961.00
580.2400, 16191.00
581.4110, 15672.00
582.5830, 15223.00
583.7540, 14685.94
584.9250, 14304.92
586.0950, 13872.00
587.2660, 13790.00
588.4370, 13510.00
589.6070, 13793.00
590.7770, 13631.00
591.9470, 13211.00
593.1170, 12876.00
594.2860, 12648.00
595.4560, 12559.00
596.6250, 12463.00
597.7940, 12447.00
598.9630, 12432.00
600.1320, 12590.00
601.3000, 12456.93
602.4690, 12962.00
603.6370, 12335.00
604.8050, 12261.00
605.9730, 12298.00
607.1410, 12591.00
608.3090, 12441.42
609.4760, 12421.27
610.6430, 12372.00
611.8100, 12222.00
612.9770, 12207.00
614.1440, 12283.00
615.3110, 12221.00
616.4770, 12222.00
617.6430, 12330.00
618.8090, 12120.00
619.9750, 12172.00
621.1410, 12301.00
622.3070, 12263.00
623.4720, 12302.00
624.6370, 12330.00
625.8020, 12343.87
626.9670, 12435.00
628.1320, 12411.00
629.2970, 12479.00
630.4610, 12521.00
631.6250, 12552.00
632.7890, 12562.00
633.9530, 12780.00
635.1170, 12744.00
636.2810, 12893.00
637.4440, 12925.00
638.6070, 12858.00
639.7700, 13145.00
640.9330, 13080.00
642.0960, 13147.00
643.2590, 13163.00
644.4210, 13371.00
645.5830, 13491.00
646.7450, 13475.29
647.9070, 13318.00
649.0690, 13449.00
650.2310, 13585.00
651.3920, 13582.00
652.5530, 13817.00
653.7140, 14010.00
654.8750, 14073.31
656.0360, 14530.84
657.1970, 14926.65
658.3570, 15263.78
659.5170, 15367.60
660.6770, 15772.69
661.8370, 16057.04
662.9970, 16336.45
664.1570, 16876.00
665.3160, 17729.00
666.4750, 18408.00
667.6340, 19560.00
668.7930, 20601.00
669.9520, 21894.00
671.1110, 23269.00
672.2690, 24720.00
673.4270, 26407.00
674.5850, 27436.00
675.7430, 27858.00
676.9010, 28182.00
678.0590, 27245.09
679.2160, 27904.00
680.3730, 24363.00
681.5300, 22787.00
682.6870, 20926.00
683.8440, 19832.00
685.0010, 18473.00
686.1570, 17710.00
687.3130, 17018.00
688.4690, 16596.00
689.6250, 16065.00
690.7810, 15695.98
691.9370, 15369.00
693.0920, 15120.00
694.2470, 15132.00
695.4020, 14977.00
696.5570, 14949.00
697.7120, 14829.00
698.8670, 14818.00
700.0210, 14877.00
701.1750, 14809.99
702.3290, 14881.00
703.4830, 14840.00
704.6370, 14531.00
705.7910, 14636.00
706.9440, 14570.00
708.0970, 14660.00
709.2510, 14669.00
710.4030, 14699.67
711.5560, 14704.91
712.7090, 14761.00
713.8610, 14682.00
715.0140, 14640.00
716.1660, 14638.00
717.3180, 14695.00
718.4690, 14598.00
719.6210, 14677.00
720.7730, 14691.00
721.9240, 14605.00
723.0750, 14715.00
724.2260, 14636.02
725.3770, 14517.00
726.5270, 14481.00
727.6780, 14560.00
728.8280, 14327.00
729.9780, 14244.00
731.1280, 14397.00
732.2780, 14222.00
733.4280, 14180.98
734.5770, 14136.00
735.7260, 14005.00
736.8760, 14040.00
738.0250, 14051.00
739.1730, 13884.00
740.3220, 13951.00
741.4700, 13841.50
742.6190, 13942.57
743.7670, 13981.96
744.9150, 13962.94
746.0630, 13710.60
747.2100, 13759.58
748.3580, 13687.79
749.5050, 13611.07
750.6520, 13702.46
751.7990, 13484.09
752.9460, 13572.81
754.0930, 13538.95
755.2390, 13561.22
756.3860, 13461.97
757.5320, 13311.64
758.6780, 13533.00
759.8240, 13087.00
760.9690, 13201.00
762.1150, 12914.00
763.2600, 13008.14
764.4060, 12989.51
765.5510, 13199.00
766.6950, 13059.00
767.8400, 12984.00
768.9850, 13062.00
770.1290, 13076.00
771.2730, 12897.00
772.4170, 12930.00
773.5610, 12991.00
774.7050, 12911.00
775.8480, 13025.00
776.9920, 12969.00
778.1350, 12792.00
779.2780, 13091.00
780.4210, 12856.00
781.5640, 13010.00
782.7060, 12956.00
783.8490, 12889.00
784.9910, 12844.00
786.1330, 12818.66
787.2750, 12899.00
788.4170, 12807.00
789.5580, 12971.00
790.7000, 13025.00
791.8410, 13007.00
792.9820, 13043.73
794.1230, 13009.27
795.2640, 12988.00
796.4040, 12948.00
797.5450, 12923.00
798.6850, 12935.00
799.8250, 13073.00
800.9650, 12884.00
802.1050, 12984.00
803.2450, 12895.00
804.3840, 12880.00
805.5230, 12869.00
806.6630, 12654.00
807.8020, 12764.00
808.9400, 12573.00
810.0790, 12652.00
811.2170, 12583.00
812.3560, 12613.00
813.4940, 12431.00
814.6320, 12348.00
815.7700, 12364.00
816.9070, 12359.00
818.0450, 12222.00
819.1820, 12294.00
820.3190, 12199.00
821.4560, 12229.00
822.5930, 12203.00
823.7300, 12098.00
824.8670, 12353.00
826.0030, 12253.00
827.1390, 12216.00
828.2750, 12288.00
829.4110, 12271.00
830.5470, 12353.00
831.6820, 12285.00
832.8180, 12427.46
833.9530, 12546.00
835.0880, 12585.00
836.2230, 12551.00
837.3580, 12407.00
838.4920, 12607.00
839.6270, 12517.00
840.7610, 12576.00
841.8950, 12612.00
843.0290, 12657.00
844.1630, 12635.00
845.2960, 12762.00
846.4300, 12860.87
847.5630, 12681.00
848.6960, 12990.00
849.8290, 13367.00
850.9620, 13098.00
852.0940, 13230.91
853.2270, 13381.00
854.3590, 13030.00
855.4910, 13080.00
856.6230, 13053.00
857.7550, 13148.00
858.8870, 13297.00
860.0180, 13134.00
861.1500, 13379.00
862.2810, 13267.00
863.4120, 13320.00
864.5430, 13484.00
865.6730, 13571.00
866.8040, 13651.00
867.9340, 13657.00
869.0640, 13827.00
870.1940, 13985.00
871.3240, 14039.00
872.4540, 14283.00
873.5830, 14353.00
874.7130, 14488.00
875.8420, 14619.00
876.9710, 15069.00
878.1000, 15061.00
879.2290, 15127.00
880.3570, 15043.00
881.4860, 15224.00
882.6140, 15318.00
883.7420, 15330.00
884.8700, 15655.00
885.9980, 15770.00
887.1250, 15951.00
888.2530, 15938.00
889.3800, 16042.58
890.5070, 16217.00
891.6340, 16089.00
892.7610, 16118.00
893.8880, 16046.00
895.0140, 16159.00
896.1400, 16258.00
897.2670, 16317.04
898.3930, 16447.00
899.5180, 16455.00
900.6440, 16482.00
901.7700, 16374.00
902.8950, 16491.00
904.0200, 16679.00
905.1450, 16608.00
906.2700, 16778.00
907.3950, 16908.00
908.5190, 16942.00
909.6440, 17049.00
910.7680, 17141.01
911.8920, 17252.05
913.0160, 17270.41
914.1400, 17144.00
915.2630, 17063.00
916.3870, 17182.00
917.5100, 17287.00
918.6330, 17195.00
919.7560, 17287.00
920.8790, 17287.00
922.0010, 17359.00
923.1240, 17326.16
924.2460, 17111.00
925.3680, 17236.00
926.4900, 17094.00
927.6120, 17023.00
928.7340, 17229.00
929.8550, 16996.00
930.9760, 17109.00
932.0980, 17177.00
933.2190, 17084.80
934.3390, 17168.00
935.4600, 17038.00
936.5810, 17258.00
937.7010, 17238.00
938.8210, 17409.00
939.9410, 17661.00
941.0610, 17545.00
942.1810, 17729.00
943.3010, 18014.00
944.4200, 18202.00
945.5390, 18104.00
946.6580, 18522.00
947.7770, 18520.00
948.8960, 18744.00
950.0150, 19003.00
951.1330, 19084.00
952.2510, 19237.00
953.3690, 19536.00
954.4870, 19859.00
955.6050, 20310.00
956.7230, 20339.00
957.8400, 20745.00
958.9580, 20729.00
960.0750, 20913.00
961.1920, 21272.00
962.3090, 21710.00
963.4250, 21963.00
964.5420, 22693.00
965.6580, 23100.00
966.7740, 23418.00
967.8900, 23835.00
969.0060, 24653.00
970.1220, 25261.00
971.2380, 25807.00
972.3530, 26475.00
973.4680, 26905.00
974.5830, 27504.00
975.6980, 28241.00
976.8130, 28228.00
977.9280, 28576.00
979.0420, 28723.00
980.1560, 28479.00
981.2710, 28386.00
982.3850, 27962.00
983.4980, 27644.00
984.6120, 27131.73
985.7260, 26460.00
986.8390, 25891.00
987.9520, 25391.00
989.0650, 24668.00
990.1780, 24274.00
991.2910, 23488.08
992.4030, 23302.78
993.5160, 23055.47
994.6280, 22750.04
995.7400, 22211.29
996.8520, 21973.83
997.9640, 21615.62
999.0750, 21252.76
1000.187, 21057.70
1001.298, 20553.19
1002.409, 20355.75
1003.520, 20035.72
1004.631, 19771.82
1005.741, 19386.70
1006.852, 19038.83
1007.962, 18653.00
1009.072, 18332.00
1010.182, 18274.00
1011.292, 18238.00
1012.402, 18323.00
1013.511, 18163.00
1014.621, 18031.00
1015.730, 17923.00
1016.839, 17870.00
1017.948, 17739.00
1019.056, 17579.00
1020.165, 17567.00
1021.273, 17608.00
1022.382, 17603.00
1023.490, 17336.00
1024.598, 17375.00
1025.706, 17223.00
1026.813, 17047.00
1027.921, 17170.00
1029.028, 17006.00
1030.135, 17038.00
1031.242, 16998.29
1032.349, 17129.00
1033.456, 16884.00
1034.562, 16933.00
1035.668, 16841.00
1036.775, 17006.00
1037.881, 17081.00
1038.987, 17196.00
1040.092, 16991.00
1041.198, 17226.00
1042.303, 17108.00
1043.408, 17427.00
1044.514, 17295.00
1045.618, 17506.00
1046.723, 17297.00
1047.828, 17496.00
1048.932, 17496.26
1050.037, 17723.85
1051.141, 17889.65
1052.245, 17997.05
1053.349, 17871.12
1054.452, 18046.40
1055.556, 18101.02
1056.659, 18150.61
1057.762, 18368.29
1058.865, 18276.22
1059.968, 18491.24
1061.071, 18583.67
1062.174, 18732.20
1063.276, 18759.18
1064.378, 18883.00
1065.480, 18986.00
1066.582, 19288.00
1067.684, 19429.00
1068.786, 19323.00
1069.887, 19546.00
1070.988, 19238.00
1072.090, 19371.00
1073.191, 19265.00
1074.291, 19156.00
1075.392, 19017.00
1076.493, 18749.69
1077.593, 18843.60
1078.693, 18875.79
1079.793, 18849.58
1080.893, 18590.05
1081.993, 18631.80
1083.092, 18552.85
1084.192, 18468.91
1085.291, 18553.11
1086.390, 18641.00
1087.489, 18599.00
1088.588, 18366.00
1089.686, 18284.00
1090.785, 18423.00
1091.883, 18085.00
1092.981, 18299.00
1094.079, 18610.00
1095.177, 18312.04
1096.275, 18495.07
1097.373, 18616.39
1098.470, 18679.27
1099.567, 18508.82
1100.664, 18639.67
1101.761, 18649.77
1102.858, 18654.93
1103.954, 18754.00
1105.051, 18740.00
1106.147, 18800.00
1107.243, 18780.00
1108.339, 18738.00
1109.435, 18738.00
1110.531, 18671.00
1111.626, 18738.00
1112.722, 18752.00
1113.817, 18725.00
1114.912, 18731.00
1116.007, 18671.00
1117.101, 18783.00
1118.196, 18750.00
1119.290, 18687.00
1120.385, 18598.00
1121.479, 18722.00
1122.573, 18643.00
1123.666, 18679.00
1124.760, 18510.00
1125.853, 18452.00
1126.947, 18311.00
1128.040, 18234.00
1129.133, 18102.00
1130.226, 17841.00
1131.318, 17740.00
1132.411, 17737.00
1133.503, 17589.92
1134.596, 17574.26
1135.688, 17466.00
1136.780, 17464.00
1137.871, 17413.00
1138.963, 17283.00
1140.054, 17224.89
1141.146, 17245.00
1142.237, 17009.00
1143.328, 16897.00
1144.419, 16774.00
1145.509, 16894.00
1146.600, 16707.00
1147.690, 16301.66
1148.780, 16302.79
1149.870, 16242.21
1150.960, 16123.23
1152.050, 15770.90
1153.139, 15720.01
1154.229, 15548.25
1155.318, 15371.66
1156.407, 15363.17
1157.496, 15044.92
1158.585, 15096.00
1159.674, 14528.00
1160.762, 14233.00
1161.850, 14330.00
1162.939, 13896.00
1164.027, 13993.00
1165.114, 13958.00
1166.202, 13866.00
1167.290, 13803.00
1168.377, 13604.92
1169.464, 13727.68
1170.551, 13788.73
1171.638, 13791.38
1172.725, 13560.70
1173.812, 13631.30
1174.898, 13581.19
1175.984, 13526.12
1177.071, 13639.13
1178.157, 13442.41
1179.242, 13552.79
1180.328, 13540.57
1181.414, 13584.46
1182.499, 13506.87
1183.584, 13466.80
1184.669, 13548.27
1185.754, 13562.44
1186.839, 13470.87
1187.924, 13518.34
1189.008, 13317.40
1190.092, 13334.45
1191.177, 13445.55
1192.260, 13360.12
1193.344, 13409.82
1194.428, 13408.05
1195.512, 13287.27
1196.595, 13376.00
1197.678, 13219.00
1198.761, 13390.00
1199.844, 13328.00
1200.927, 13295.00
1202.009, 13454.00
1203.092, 13288.18
1204.174, 13280.24
1205.256, 13202.00
1206.338, 13114.00
1207.420, 13324.00
1208.502, 13275.00
1209.583, 13233.00
1210.665, 13146.00
1211.746, 13251.81
1212.827, 13060.00
1213.908, 13365.00
1214.988, 13369.00
1216.069, 13187.00
1217.149, 13300.00
1218.230, 13217.00
1219.310, 13421.00
1220.390, 13300.28
1221.470, 13233.00
1222.549, 13141.00
1223.629, 13202.00
1224.708, 13156.00
1225.787, 13212.50
1226.866, 13161.42
1227.945, 13163.31
1229.024, 13091.00
1230.103, 13151.00
1231.181, 13186.00
1232.259, 13203.00
1233.337, 13165.10
1234.415, 13307.73
1235.493, 13388.65
1236.571, 13411.16
1237.648, 13200.35
1238.726, 13290.83
1239.803, 13260.57
1240.880, 13225.35
1241.957, 13358.24
1243.034, 13181.36
1244.110, 13311.58
1245.187, 13319.21
1246.263, 13382.95
1247.339, 13325.19
1248.415, 13304.96
1249.491, 13406.26
1250.566, 13440.27
1251.642, 13368.53
1252.717, 13435.83
1253.793, 13254.71
1254.868, 13291.58
1255.943, 13422.50
1257.017, 13356.87
1258.092, 13426.39
1259.166, 13444.44
1260.241, 13228.56
1261.315, 13419.50
1262.389, 13434.50
1263.462, 13268.86
1264.536, 13445.86
1265.610, 13305.12
1266.683, 13277.79
1267.756, 13335.82
1268.829, 13304.86
1269.902, 13414.19
1270.975, 13388.38
1272.048, 13350.49
1273.120, 13365.29
1274.192, 13230.78
1275.264, 13373.28
1276.336, 13326.56
1277.408, 13373.89
1278.480, 13442.54
1279.551, 13347.96
1280.623, 13426.19
1281.694, 13236.41
1282.765, 13270.89
1283.836, 13281.22
1284.907, 13434.88
1285.977, 13246.41
1287.048, 13274.66
1288.118, 13395.18
1289.188, 13386.58
1290.258, 13431.97
1291.328, 13317.55
1292.398, 13353.25
1293.467, 13347.58
1294.537, 13484.90
1295.606, 13509.33
1296.675, 13397.62
1297.744, 13286.48
1298.813, 13434.09
1299.882, 13336.46
1300.950, 13371.14
1302.018, 13269.16
1303.086, 13285.17
1304.155, 13299.32
1305.222, 13373.94
1306.290, 13265.16
1307.358, 13394.28
1308.425, 13385.90
1309.492, 13418.02
1310.559, 13445.64
1311.626, 13288.75
1312.693, 13283.12
1313.760, 13493.90
1314.826, 13374.63
1315.893, 13321.97
1316.959, 13343.02
1318.025, 13488.19
1319.091, 13571.65
1320.157, 13596.71
1321.222, 13388.44
1322.288, 13481.46
1323.353, 13453.74
1324.418, 13421.06
1325.483, 13556.48
1326.548, 13382.15
1327.612, 13514.90
1328.677, 13525.07
1329.741, 13591.34
1330.806, 13536.13
1331.870, 13518.44
1332.934, 13622.28
1333.997, 13658.82
1335.061, 13589.61
1336.124, 13659.45
1337.188, 13480.87
1338.251, 13520.27
1339.314, 13653.73
1340.377, 13590.64
1341.439, 13662.69
1342.502, 13683.27
1343.564, 13469.92
1344.627, 13663.40
1345.689, 13680.93
1346.751, 13517.82
1347.813, 13697.36
1348.874, 13559.14
1349.936, 13534.35
1350.997, 13594.90
1352.058, 13566.48
1353.119, 13678.34
1354.180, 13655.06
1355.241, 13619.70
1356.301, 13637.03
1357.362, 13505.05
1358.422, 13650.08
1359.482, 13605.88
1360.542, 13655.74
1361.602, 13726.92
1362.662, 13634.86
1363.721, 13715.62
1364.781, 13528.37
1365.840, 13565.37
1366.899, 13578.23
1367.958, 13734.42
1369.017, 13548.47
1370.075, 13579.24
1371.134, 13702.29
1372.192, 13696.21
1373.250, 13744.12
1374.308, 13632.22
1375.366, 13670.45
1376.424, 13667.30
1377.481, 13807.14
1378.539, 13834.10
1379.596, 13724.91
1380.653, 13616.29
1381.710, 13766.42
1382.767, 13671.31
1383.824, 13708.51
1384.880, 13609.05
1385.937, 13627.58
1386.993, 13644.24
1388.049, 13721.38
1389.105, 13615.13
1390.161, 13746.76
1391.216, 13740.90
1392.272, 13775.54
1393.327, 13805.67
1394.382, 13651.30
1395.437, 13648.18
1396.492, 13861.48
1397.547, 13744.72
1398.601, 13694.58
1399.656, 13691.80
1400.710, 13912.51
1401.764, 13925.48
1402.818, 13690.14
1403.872, 13901.00
1404.925, 13837.35
1405.979, 13855.28
1407.032, 13843.44
1408.085, 13840.41
1409.139, 13725.32
1410.191, 13757.90
1411.244, 13910.56
1412.297, 13858.51
1413.349, 13945.56
1414.402, 13779.11
1415.454, 13763.12
1416.506, 13787.08
1417.558, 13825.61
1418.609, 13747.74
1419.661, 13902.64
1420.712, 13902.56
1421.764, 13768.17
1422.815, 13779.47
1423.866, 13766.58
1424.916, 14005.53
1425.967, 13898.23
1427.018, 13766.41
1428.068, 13909.08
1429.118, 13963.77
1430.168, 13899.52
1431.218, 13898.47
1432.268, 13777.51
1433.318, 13840.44
1434.367, 13840.12
1435.416, 13944.00
1436.465, 13823.52
1437.514, 13961.32
1438.563, 13846.86
1439.612, 13995.12
1440.661, 13875.33
1441.709, 13994.32
1442.757, 13828.28
1443.805, 13868.54
1444.853, 13925.15
1445.901, 14034.58
1446.949, 13940.95
1447.996, 14062.91
1449.044, 13995.67
1450.091, 14051.58
1451.138, 14039.20
1452.185, 13941.35
1453.232, 14084.56
1454.278, 14007.92
1455.325, 14079.72
1456.371, 13911.08
1457.417, 14034.73
1458.463, 14095.46
1459.509, 14143.22
1460.555, 14136.46
1461.601, 14105.41
1462.646, 14112.47
1463.691, 14055.90
1464.737, 13906.42
1465.782, 13949.73
1466.826, 14051.37
1467.871, 14124.09
1468.916, 14001.07
1469.960, 14088.70
1471.004, 14081.49
1472.048, 14164.03
1473.092, 14074.52
1474.136, 14189.84
1475.180, 13914.68
1476.223, 14059.52
1477.267, 14142.65
1478.310, 14167.37
1479.353, 13958.77
1480.396, 14051.46
1481.439, 14023.40
1482.481, 13990.39
1483.524, 14125.49
1484.566, 13950.82
1485.608, 14083.24
1486.650, 14093.08
1487.692, 14159.02
1488.734, 14103.47
1489.775, 14085.44
1490.817, 14188.95
1491.858, 14225.16
1492.899, 14155.62
1493.940, 14225.13
1494.981, 14046.21
1496.022, 14085.29
1497.062, 14218.41
1498.103, 14154.98
1499.143, 14226.71
1500.183, 14246.95
1501.223, 14033.28
1502.263, 14226.42
1503.302, 14243.62
1504.342, 14080.18
1505.381, 14259.38
1506.420, 14120.84
1507.459, 14095.71
1508.498, 14155.93
1509.537, 14127.18
1510.576, 14238.71
1511.614, 14215.09
1512.652, 14179.40
1513.691, 14196.41
1514.729, 14064.09
1515.767, 14208.79
1516.804, 14164.26
1517.842, 14213.79
1518.879, 14284.64
1519.917, 14192.25
1520.954, 14272.67
1521.991, 14085.09
1523.028, 14121.77
1524.064, 14134.29
1525.101, 14290.15
1526.137, 14103.87
1527.173, 14134.31
1528.210, 14257.02
1529.245, 14250.62
1530.281, 14298.20
1531.317, 14185.97
1532.352, 14223.87
1533.388, 14220.39
1534.423, 14359.90
1535.458, 14386.52
1536.493, 14277.00
1537.528, 14168.06
1538.562, 14317.86
1539.597, 14222.42
1540.631, 14259.28
1541.665, 14159.50
1542.700, 14177.70
1543.733, 14194.02
1544.767, 14270.83
1545.801, 14164.25
1546.834, 14295.55
1547.868, 14289.36
1548.901, 14323.67
1549.934, 14353.48
1550.967, 14198.78
1551.999, 14195.32
1553.032, 14408.29
1554.064, 14291.21
1555.097, 14240.74
1556.129, 14237.62
1557.161, 14458.00
1558.193, 14470.65
1559.224, 14234.98
1560.256, 14445.51
1561.287, 14381.53
1562.318, 14399.13
1563.350, 14419.00
##END=



