##NAMES=Arfvedsonite
##RRUFFID=R040127
##IDEAL CHEMISTRY=NaNa_2_(Fe^2+^_4_Fe^3+^)Si_8_O_22_(OH)_2_
##LOCALITY=Mont Saint-Hilaire, Rouville County, Quebec, Canada
##OWNER=RRUFF
##SOURCE=Bob Downs
##DESCRIPTION=Black prismatic crystal associated with white analcime, R040128
##STATUS=The identification of this mineral has been confirmed by X-ray diffraction and chemical analysis
##URL=rruff.info/R040127
##MEASURED CHEMISTRY=(Na_0.61_K_0.39_)Na_2.00_(Fe^2+^_2.40_Mg_0.80_Mn_0.75_Ca_0.05_)_&#931;=4_(Fe^3+^_0.60_Al_0.25_Mn_0.15_)(Si_0.99_Ti_0.01_)_8_O_22_((OH)_0.67_F_0.33_)_2_
##PIN_ID=L01975
##ORIENTATION=Laser parallel to b* (0 1 0). Fiducial mark perpendicular to laser is parallel to c [0 0 1]
183.0710, 19627.00
184.3000, 20750.00
185.5280, 20860.00
186.7570, 22119.00
187.9850, 23201.00
189.2130, 24298.00
190.4400, 25488.00
191.6680, 26683.00
192.8960, 28099.00
194.1230, 28999.00
195.3500, 30082.00
196.5770, 30832.00
197.8030, 31111.00
199.0300, 32183.00
200.2560, 32327.00
201.4830, 33636.00
202.7090, 33916.00
203.9340, 33102.00
205.1600, 27992.00
206.3860, 25254.00
207.6110, 24271.00
208.8360, 23369.00
210.0610, 23776.00
211.2860, 24306.00
212.5100, 24905.00
213.7350, 25490.00
214.9590, 25305.00
216.1830, 24895.00
217.4070, 24230.00
218.6310, 23973.00
219.8540, 23392.00
221.0780, 22895.00
222.3010, 22443.34
223.5240, 21911.23
224.7470, 21459.00
225.9690, 21082.00
227.1920, 20687.00
228.4140, 20611.00
229.6360, 20394.04
230.8580, 20414.00
232.0800, 20295.00
233.3020, 20448.00
234.5230, 20559.00
235.7440, 20631.00
236.9650, 20745.00
238.1860, 20830.00
239.4070, 20977.00
240.6280, 20936.00
241.8480, 21037.00
243.0680, 21026.00
244.2880, 21406.00
245.5080, 21249.71
246.7280, 21519.00
247.9470, 20955.00
249.1660, 21032.00
250.3860, 20554.00
251.6040, 20543.00
252.8230, 20339.00
254.0420, 19720.00
255.2600, 19519.00
256.4790, 19082.92
257.6970, 18931.80
258.9150, 18718.96
260.1320, 18447.97
261.3500, 17943.41
262.5670, 17740.38
263.7840, 17416.60
265.0010, 17087.87
266.2180, 16927.25
267.4350, 16456.86
268.6510, 16293.81
269.8680, 16053.00
271.0840, 15917.00
272.3000, 15599.00
273.5160, 15299.00
274.7310, 15298.00
275.9470, 15227.00
277.1620, 15001.45
278.3770, 14798.64
279.5920, 14699.00
280.8070, 14295.00
282.0210, 14249.00
283.2360, 14225.00
284.4500, 14169.81
285.6640, 14411.45
286.8780, 14591.37
288.0920, 14712.89
289.3050, 14601.00
290.5180, 14790.41
291.7320, 14859.15
292.9450, 14922.86
294.1570, 15154.59
295.3700, 15076.64
296.5830, 15305.78
297.7950, 15412.26
299.0070, 15574.83
300.2190, 15750.00
301.4310, 16037.00
302.6420, 16337.00
303.8540, 16606.00
305.0650, 16915.00
306.2760, 17203.00
307.4870, 17584.00
308.6980, 18528.00
309.9080, 19127.00
311.1190, 19289.00
312.3290, 19272.00
313.5390, 19712.00
314.7490, 19969.00
315.9580, 20328.00
317.1680, 20108.00
318.3770, 20224.00
319.5860, 20019.00
320.7950, 19557.00
322.0040, 19216.00
323.2130, 18556.00
324.4210, 18165.00
325.6290, 17575.00
326.8380, 17200.00
328.0460, 16627.00
329.2530, 16342.00
330.4610, 15984.00
331.6680, 15725.00
332.8760, 15602.00
334.0830, 15106.91
335.2890, 15285.96
336.4960, 15403.31
337.7030, 15462.27
338.9090, 15287.87
340.1150, 15414.76
341.3210, 15420.90
342.5270, 15422.10
343.7330, 15591.39
344.9380, 15450.89
346.1440, 15617.52
347.3490, 15851.00
348.5540, 16109.00
349.7590, 16165.00
350.9630, 16324.00
352.1680, 16490.00
353.3720, 16652.00
354.5760, 16891.00
355.7800, 16870.00
356.9840, 17060.00
358.1870, 17049.00
359.3910, 17025.00
360.5940, 16695.00
361.7970, 16868.00
363.0000, 16562.00
364.2030, 16575.00
365.4050, 16397.00
366.6080, 16056.00
367.8100, 15840.00
369.0120, 15586.00
370.2140, 15256.00
371.4150, 15118.00
372.6170, 15191.00
373.8180, 14852.00
375.0190, 14827.39
376.2200, 14841.00
377.4210, 14625.00
378.6220, 14501.00
379.8220, 14476.00
381.0230, 14375.00
382.2230, 14319.00
383.4230, 14224.00
384.6220, 14113.00
385.8220, 14130.00
387.0220, 14152.00
388.2210, 13925.00
389.4200, 13879.00
390.6190, 13916.00
391.8180, 13968.00
393.0160, 13794.00
394.2150, 13697.00
395.4130, 13584.00
396.6110, 13458.38
397.8090, 13396.00
399.0060, 13169.00
400.2040, 13278.00
401.4010, 13001.00
402.5980, 12954.00
403.7950, 13068.00
404.9920, 12939.00
406.1890, 13210.00
407.3860, 13161.40
408.5820, 13183.00
409.7780, 13395.00
410.9740, 13500.00
412.1700, 14001.00
413.3650, 14054.00
414.5610, 14373.00
415.7560, 14514.00
416.9510, 14678.00
418.1460, 14805.00
419.3410, 14759.00
420.5360, 14792.00
421.7300, 14730.00
422.9240, 14645.00
424.1180, 14585.00
425.3120, 14355.00
426.5060, 14165.00
427.7000, 14046.00
428.8930, 13643.00
430.0860, 13518.00
431.2790, 13165.00
432.4720, 13181.00
433.6650, 12795.29
434.8580, 12546.07
436.0500, 12238.00
437.2420, 11929.00
438.4340, 11869.00
439.6260, 11581.00
440.8180, 11637.00
442.0090, 11467.61
443.2010, 11524.00
444.3920, 11237.00
445.5830, 11106.00
446.7740, 10936.00
447.9640, 11120.00
449.1550, 10934.00
450.3450, 10975.00
451.5350, 10907.00
452.7250, 10918.00
453.9150, 10978.00
455.1050, 11038.09
456.2940, 11075.37
457.4830, 11271.00
458.6720, 11183.00
459.8610, 11307.00
461.0500, 11380.00
462.2390, 11306.00
463.4270, 11422.00
464.6150, 11466.00
465.8040, 11518.00
466.9910, 11407.00
468.1790, 11439.00
469.3670, 11441.00
470.5540, 11479.00
471.7410, 11503.00
472.9280, 11482.00
474.1150, 11442.00
475.3020, 11221.00
476.4890, 11408.00
477.6750, 11208.00
478.8610, 11244.00
480.0470, 11302.00
481.2330, 11219.00
482.4190, 11223.00
483.6040, 11518.00
484.7900, 11478.87
485.9750, 11592.00
487.1600, 11615.00
488.3450, 11800.00
489.5290, 11773.00
490.7140, 11858.00
491.8980, 11994.00
493.0820, 12071.25
494.2660, 12209.57
495.4500, 12346.00
496.6340, 12534.00
497.8170, 12697.00
499.0010, 12983.00
500.1840, 13198.00
501.3670, 13211.00
502.5500, 13416.00
503.7320, 13853.00
504.9150, 13852.00
506.0970, 14108.00
507.2790, 14122.00
508.4610, 14218.00
509.6430, 14504.00
510.8250, 14450.00
512.0060, 14603.00
513.1870, 14736.00
514.3680, 14808.00
515.5490, 15033.00
516.7300, 14999.00
517.9110, 15300.00
519.0910, 15431.00
520.2710, 15786.00
521.4510, 16126.00
522.6310, 16407.00
523.8110, 16868.00
524.9910, 17320.00
526.1700, 18082.00
527.3490, 18701.00
528.5280, 19540.00
529.7070, 20428.00
530.8860, 21268.00
532.0650, 22103.00
533.2430, 23037.00
534.4210, 23831.00
535.5990, 24346.00
536.7770, 25017.00
537.9550, 24869.00
539.1320, 25162.00
540.3100, 24785.00
541.4870, 24513.00
542.6640, 24006.34
543.8410, 23349.85
545.0170, 22548.00
546.1940, 21992.00
547.3700, 21183.00
548.5470, 20834.00
549.7230, 20166.00
550.8980, 19659.42
552.0740, 19151.57
553.2500, 18681.00
554.4250, 18137.00
555.6000, 17652.00
556.7750, 17264.00
557.9500, 16967.00
559.1250, 16867.00
560.2990, 16574.00
561.4730, 16586.00
562.6480, 16228.00
563.8220, 16207.00
564.9950, 16081.00
566.1690, 16244.00
567.3430, 16395.00
568.5160, 16260.00
569.6890, 16190.00
570.8620, 16533.00
572.0350, 16588.00
573.2070, 16620.00
574.3800, 16379.00
575.5520, 16269.00
576.7240, 15960.56
577.8960, 15725.00
579.0680, 15147.00
580.2400, 14684.00
581.4110, 14066.00
582.5830, 13323.00
583.7540, 12793.00
584.9250, 12134.00
586.0950, 11697.00
587.2660, 11304.00
588.4370, 10939.00
589.6070, 10622.00
590.7770, 10422.00
591.9470, 10333.00
593.1170, 10153.00
594.2860, 9962.000
595.4560, 9796.000
596.6250, 9665.000
597.7940, 9731.000
598.9630, 9636.000
600.1320, 9613.000
601.3000, 9550.000
602.4690, 9621.000
603.6370, 9506.290
604.8050, 9484.000
605.9730, 9338.000
607.1410, 9330.000
608.3090, 9256.000
609.4760, 9317.000
610.6430, 9297.000
611.8100, 9210.000
612.9770, 9455.000
614.1440, 9421.270
615.3110, 9147.000
616.4770, 9340.000
617.6430, 9223.183
618.8090, 9213.000
619.9750, 9253.000
621.1410, 9207.000
622.3070, 9300.000
623.4720, 9259.000
624.6370, 9268.628
625.8020, 9300.186
626.9670, 9294.000
628.1320, 9303.000
629.2970, 9389.000
630.4610, 9339.000
631.6250, 9446.000
632.7890, 9521.000
633.9530, 9612.000
635.1170, 9626.000
636.2810, 9716.000
637.4440, 9755.000
638.6070, 9862.000
639.7700, 9951.130
640.9330, 9978.000
642.0960, 10147.00
643.2590, 10233.00
644.4210, 10305.00
645.5830, 10499.00
646.7450, 10526.28
647.9070, 10583.00
649.0690, 10648.00
650.2310, 10917.00
651.3920, 10990.00
652.5530, 11147.00
653.7140, 11341.00
654.8750, 11482.88
656.0360, 11808.00
657.1970, 11897.00
658.3570, 12270.00
659.5170, 12602.00
660.6770, 13086.00
661.8370, 13739.00
662.9970, 14318.00
664.1570, 15567.00
665.3160, 15931.00
666.4750, 16832.00
667.6340, 18325.00
668.7930, 19486.00
669.9520, 21348.00
671.1110, 22942.00
672.2690, 24904.00
673.4270, 26824.00
674.5850, 28672.00
675.7430, 29824.00
676.9010, 30039.00
678.0590, 29286.00
679.2160, 27653.00
680.3730, 25544.00
681.5300, 23113.00
682.6870, 21871.00
683.8440, 18777.00
685.0010, 17020.00
686.1570, 15690.00
687.3130, 14676.00
688.4690, 13698.00
689.6250, 13141.00
690.7810, 12471.00
691.9370, 12035.00
693.0920, 11682.00
694.2470, 11371.00
695.4020, 11264.00
696.5570, 10927.00
697.7120, 10749.00
698.8670, 10755.00
700.0210, 10490.64
701.1750, 10508.00
702.3290, 10216.00
703.4830, 10169.00
704.6370, 10113.00
705.7910, 9969.000
706.9440, 9865.000
708.0970, 9914.000
709.2510, 9901.000
710.4030, 9890.000
711.5560, 9714.000
712.7090, 9767.000
713.8610, 9634.000
715.0140, 9749.000
716.1660, 9548.000
717.3180, 9696.000
718.4690, 9565.000
719.6210, 9512.621
720.7730, 9461.000
721.9240, 9444.000
723.0750, 9384.000
724.2260, 9362.288
725.3770, 9460.000
726.5270, 9339.000
727.6780, 9339.000
728.8280, 9394.000
729.9780, 9327.653
731.1280, 9378.257
732.2780, 9332.000
733.4280, 9393.000
734.5770, 9471.000
735.7260, 9414.000
736.8760, 9416.000
738.0250, 9335.000
739.1730, 9264.000
740.3220, 9387.000
741.4700, 9324.000
742.6190, 9205.000
743.7670, 9298.000
744.9150, 9244.000
746.0630, 9147.000
747.2100, 9144.000
748.3580, 9107.000
749.5050, 9159.000
750.6520, 9173.000
751.7990, 9167.000
752.9460, 9177.109
754.0930, 9078.000
755.2390, 9128.000
756.3860, 9058.000
757.5320, 8968.000
758.6780, 9067.000
759.8240, 8982.732
760.9690, 9019.000
762.1150, 9008.000
763.2600, 8934.000
764.4060, 9083.000
765.5510, 9040.000
766.6950, 8983.000
767.8400, 8965.000
768.9850, 8970.000
770.1290, 8983.000
771.2730, 8963.818
772.4170, 9047.000
773.5610, 8983.000
774.7050, 9026.000
775.8480, 9131.000
776.9920, 8999.000
778.1350, 9017.000
779.2780, 9090.000
780.4210, 9213.000
781.5640, 9169.000
782.7060, 9239.188
783.8490, 9201.000
784.9910, 9218.000
786.1330, 9297.000
787.2750, 9167.454
788.4170, 9350.000
789.5580, 9295.000
790.7000, 9410.000
791.8410, 9453.000
792.9820, 9481.000
794.1230, 9544.000
795.2640, 9714.812
796.4040, 9696.135
797.5450, 9691.492
798.6850, 9721.000
799.8250, 9682.743
800.9650, 9659.048
802.1050, 9623.000
803.2450, 9573.000
804.3840, 9521.000
805.5230, 9482.000
806.6630, 9412.842
807.8020, 9336.000
808.9400, 9291.000
810.0790, 9154.000
811.2170, 9114.000
812.3560, 9040.159
813.4940, 8922.000
814.6320, 8906.000
815.7700, 8890.000
816.9070, 8799.000
818.0450, 8688.000
819.1820, 8711.000
820.3190, 8731.000
821.4560, 8701.000
822.5930, 8522.000
823.7300, 8705.000
824.8670, 8602.000
826.0030, 8672.000
827.1390, 8722.000
828.2750, 8722.000
829.4110, 8681.000
830.5470, 8698.000
831.6820, 8690.000
832.8180, 8727.000
833.9530, 8754.890
835.0880, 8732.000
836.2230, 8822.000
837.3580, 8831.019
838.4920, 8831.066
839.6270, 8934.000
840.7610, 8849.000
841.8950, 9010.000
843.0290, 8966.000
844.1630, 9072.000
845.2960, 9082.000
846.4300, 8990.000
847.5630, 9094.000
848.6960, 9065.000
849.8290, 9004.000
850.9620, 9164.000
852.0940, 9037.000
853.2270, 9067.000
854.3590, 9200.000
855.4910, 9190.000
856.6230, 9226.873
857.7550, 9187.000
858.8870, 9221.000
860.0180, 9236.000
861.1500, 9195.000
862.2810, 9400.000
863.4120, 9246.000
864.5430, 9428.000
865.6730, 9373.000
866.8040, 9450.000
867.9340, 9470.000
869.0640, 9497.208
870.1940, 9631.000
871.3240, 9611.000
872.4540, 9810.000
873.5830, 9936.000
874.7130, 9947.535
875.8420, 10205.00
876.9710, 10218.35
878.1000, 10462.00
879.2290, 10359.00
880.3570, 10438.00
881.4860, 10526.00
882.6140, 10688.00
883.7420, 10809.00
884.8700, 11030.00
885.9980, 11053.00
887.1250, 11143.00
888.2530, 11216.00
889.3800, 11447.00
890.5070, 11396.00
891.6340, 11636.00
892.7610, 11532.00
893.8880, 11679.00
895.0140, 11781.00
896.1400, 12015.00
897.2670, 12160.00
898.3930, 12255.77
899.5180, 12218.00
900.6440, 12414.00
901.7700, 12535.00
902.8950, 12573.00
904.0200, 12693.47
905.1450, 12954.59
906.2700, 13154.00
907.3950, 13295.00
908.5190, 13202.57
909.6440, 13411.54
910.7680, 13499.66
911.8920, 13582.83
913.0160, 13834.10
914.1400, 13775.61
915.2630, 14024.10
916.3870, 14150.12
917.5100, 14332.13
918.6330, 14392.65
919.7560, 14490.70
920.8790, 14710.28
922.0010, 14862.45
923.1240, 14909.00
924.2460, 14671.00
925.3680, 14779.00
926.4900, 14621.00
927.6120, 14553.00
928.7340, 14761.00
929.8550, 14710.00
930.9760, 14624.00
932.0980, 14712.00
933.2190, 14746.00
934.3390, 14625.96
935.4600, 14904.86
936.5810, 15122.04
937.7010, 15280.69
938.8210, 15206.02
939.9410, 15432.63
941.0610, 15538.51
942.1810, 15639.44
943.3010, 15908.46
944.4200, 15867.59
945.5390, 16133.83
946.6580, 16277.48
947.7770, 16477.23
948.8960, 16555.49
950.0150, 16671.29
951.1330, 16908.47
952.2510, 17059.00
953.3690, 17494.00
954.4870, 17678.00
955.6050, 18055.00
956.7230, 18485.00
957.8400, 18819.00
958.9580, 19340.00
960.0750, 20039.00
961.1920, 20435.00
962.3090, 20924.00
963.4250, 21771.00
964.5420, 22376.00
965.6580, 23139.00
966.7740, 23851.00
967.8900, 24759.03
969.0060, 25650.00
970.1220, 26703.00
971.2380, 27776.00
972.3530, 28808.00
973.4680, 29436.00
974.5830, 30331.00
975.6980, 31175.00
976.8130, 31558.00
977.9280, 31801.00
979.0420, 31777.00
980.1560, 31769.00
981.2710, 31312.00
982.3850, 30592.00
983.4980, 30313.00
984.6120, 28893.00
985.7260, 27994.00
986.8390, 26555.00
987.9520, 25487.00
989.0650, 24671.00
990.1780, 23468.00
991.2910, 22645.00
992.4030, 21622.00
993.5160, 20610.00
994.6280, 19855.00
995.7400, 19238.00
996.8520, 18569.00
997.9640, 17929.00
999.0750, 17338.00
1000.187, 16894.06
1001.298, 16614.00
1002.409, 16227.00
1003.520, 15670.00
1004.631, 15570.00
1005.741, 15359.00
1006.852, 15076.00
1007.962, 15036.00
1009.072, 14766.00
1010.182, 14573.00
1011.292, 14569.00
1012.402, 14485.00
1013.511, 14244.00
1014.621, 14254.00
1015.730, 14013.00
1016.839, 14134.00
1017.948, 13896.00
1019.056, 13663.00
1020.165, 13716.00
1021.273, 13426.00
1022.382, 13472.00
1023.490, 13479.00
1024.598, 13296.00
1025.706, 13140.00
1026.813, 13211.00
1027.921, 13180.00
1029.028, 13170.00
1030.135, 13009.00
1031.242, 13048.00
1032.349, 13104.00
1033.456, 13186.00
1034.562, 13048.00
1035.668, 12982.00
1036.775, 13133.00
1037.881, 13228.00
1038.987, 13261.00
1040.092, 13392.58
1041.198, 13437.00
1042.303, 13575.00
1043.408, 13624.78
1044.514, 13697.66
1045.618, 13766.00
1046.723, 13816.00
1047.828, 13909.25
1048.932, 13984.68
1050.037, 14104.00
1051.141, 14179.00
1052.245, 14315.00
1053.349, 14453.00
1054.452, 14604.52
1055.556, 14791.00
1056.659, 14939.00
1057.762, 15115.00
1058.865, 15251.00
1059.968, 15381.12
1061.071, 15692.59
1062.174, 15942.32
1063.276, 16133.52
1064.378, 16091.40
1065.480, 16350.55
1066.582, 16500.00
1067.684, 16655.00
1068.786, 16684.00
1069.887, 16763.00
1070.988, 16871.00
1072.090, 16819.00
1073.191, 16617.00
1074.291, 16447.00
1075.392, 16386.00
1076.493, 16013.00
1077.593, 15935.00
1078.693, 15713.00
1079.793, 15654.00
1080.893, 15461.61
1081.993, 15294.00
1083.092, 15135.00
1084.192, 15001.00
1085.291, 14897.00
1086.390, 15091.43
1087.489, 14951.00
1088.588, 14993.99
1089.686, 15212.00
1090.785, 15090.00
1091.883, 15004.00
1092.981, 15253.00
1094.079, 15283.00
1095.177, 15453.00
1096.275, 15607.00
1097.373, 15687.00
1098.470, 15944.00
1099.567, 15973.47
1100.664, 16148.00
1101.761, 16111.00
1102.858, 16157.00
1103.954, 16245.00
1105.051, 16463.00
1106.147, 16422.44
1107.243, 16475.06
1108.339, 16416.00
1109.435, 16441.00
1110.531, 16403.00
1111.626, 16400.00
1112.722, 16415.16
1113.817, 16426.00
1114.912, 16406.00
1116.007, 16289.20
1117.101, 16368.93
1118.196, 16386.88
1119.290, 16346.49
1120.385, 16072.72
1121.479, 16100.30
1122.573, 16007.13
1123.666, 15909.07
1124.760, 15979.05
1125.853, 15739.33
1126.947, 15806.64
1128.040, 15751.43
1129.133, 15752.32
1130.226, 15631.72
1131.318, 15548.70
1132.411, 15456.00
1133.503, 15360.00
1134.596, 15276.00
1135.688, 15158.00
1136.780, 15040.46
1137.871, 14934.00
1138.963, 14757.00
1140.054, 14738.00
1141.146, 14557.00
1142.237, 14634.00
1143.328, 14525.00
1144.419, 14347.00
1145.509, 14146.00
1146.600, 14034.79
1147.690, 13918.00
1148.780, 13763.16
1149.870, 13445.00
1150.960, 13287.00
1152.050, 13140.00
1153.139, 12987.00
1154.229, 12617.00
1155.318, 12429.00
1156.407, 12046.00
1157.496, 11688.44
1158.585, 11359.51
1159.674, 10933.00
1160.762, 10601.00
1161.850, 10283.00
1162.939, 9902.000
1164.027, 9822.926
1165.114, 9588.696
1166.202, 9731.000
1167.290, 9389.000
1168.377, 9412.000
1169.464, 9432.000
1170.551, 9374.000
1171.638, 9269.000
1172.725, 9064.527
1173.812, 9187.093
1174.898, 9247.958
1175.984, 9250.420
1177.071, 9019.541
1178.157, 9089.970
1179.242, 9039.672
1180.328, 8984.405
1181.414, 9097.239
1182.499, 8900.330
1183.584, 9010.515
1184.669, 8998.113
1185.754, 9041.815
1186.839, 8964.030
1187.924, 8923.770
1189.008, 9005.050
1190.092, 9019.042
1191.177, 8927.272
1192.260, 8974.575
1193.344, 8773.441
1194.428, 8790.300
1195.512, 8901.212
1196.595, 8815.583
1197.678, 8865.107
1198.761, 8863.158
1199.844, 8627.282
1200.927, 8713.000
1202.009, 8662.354
1203.092, 8678.871
1204.174, 8654.000
1205.256, 8694.000
1206.338, 8706.000
1207.420, 8736.000
1208.502, 8738.000
1209.583, 8726.667
1210.665, 8639.000
1211.746, 8688.000
1212.827, 8626.000
1213.908, 8610.000
1214.988, 8680.000
1216.069, 8667.000
1217.149, 8763.000
1218.230, 8657.000
1219.310, 8718.000
1220.390, 8651.000
1221.470, 8711.000
1222.549, 8586.000
1223.629, 8593.000
1224.708, 8507.732
1225.787, 8648.684
1226.866, 8727.915
1227.945, 8748.745
1229.024, 8536.252
1230.103, 8625.048
1231.181, 8593.101
1232.259, 8556.201
1233.337, 8687.402
1234.415, 8508.846
1235.493, 8637.380
1236.571, 8643.329
1237.648, 8705.383
1238.726, 8645.948
1239.803, 8511.270
1240.880, 8653.303
1241.957, 8733.617
1243.034, 8755.529
1244.110, 8544.117
1245.187, 8633.995
1246.263, 8603.129
1247.339, 8567.312
1248.415, 8699.593
1249.491, 8522.117
1250.566, 8651.732
1251.642, 8658.763
1252.717, 8721.896
1253.793, 8663.543
1254.868, 8642.713
1255.943, 8743.409
1257.017, 8776.814
1258.092, 8704.475
1259.166, 8771.174
1260.241, 8589.453
1261.315, 8625.725
1262.389, 8756.049
1263.462, 8689.815
1264.536, 8758.736
1265.610, 8776.183
1266.683, 8559.702
1267.756, 8750.043
1268.829, 8764.447
1269.902, 8598.202
1270.975, 8774.604
1272.048, 8633.263
1273.120, 8605.336
1274.192, 8662.761
1275.264, 8631.209
1276.336, 8739.938
1277.408, 8713.525
1278.480, 8675.038
1279.551, 8689.242
1280.623, 8554.132
1281.694, 8696.032
1282.765, 8648.710
1283.836, 8695.445
1284.907, 8763.501
1285.977, 8668.312
1287.048, 8745.946
1288.118, 8555.573
1289.188, 8589.451
1290.258, 8599.182
1291.328, 8752.248
1292.398, 8563.182
1293.467, 8590.828
1294.537, 8710.749
1295.606, 8701.557
1296.675, 8746.347
1297.744, 8631.326
1298.813, 8666.436
1299.882, 8660.164
1300.950, 8796.888
1302.018, 8820.722
1303.086, 8708.412
1304.155, 8596.681
1305.222, 8743.694
1306.290, 8645.465
1307.358, 8679.542
1308.425, 8576.974
1309.492, 8592.388
1310.559, 8605.932
1311.626, 8679.955
1312.693, 8570.585
1313.760, 8699.105
1314.826, 8690.131
1315.893, 8721.659
1316.959, 8748.680
1318.025, 8591.197
1319.091, 8584.963
1320.157, 8795.152
1321.222, 8675.285
1322.288, 8622.034
1323.353, 8616.140
1324.418, 8833.739
1325.483, 8843.604
1326.548, 8605.159
1327.612, 8812.910
1328.677, 8746.152
1329.741, 8705.059
1330.806, 8840.991
1331.870, 8864.034
1332.934, 8750.934
1333.997, 8638.409
1335.061, 8784.633
1336.124, 8685.612
1337.188, 8718.898
1338.251, 8615.540
1339.314, 8630.163
1340.377, 8642.916
1341.439, 8716.149
1342.502, 8605.988
1343.564, 8733.719
1344.627, 8723.954
1345.689, 8754.691
1346.751, 8780.923
1347.813, 8622.650
1348.874, 8615.627
1349.936, 8825.025
1350.997, 8704.369
1352.058, 8650.329
1353.119, 8643.645
1354.180, 8860.456
1355.241, 8869.531
1356.301, 8630.298
1357.362, 8837.260
1358.422, 8769.714
1359.482, 8783.742
1360.542, 8768.009
1361.602, 8761.086
1362.662, 8642.100
1363.721, 8670.791
1364.781, 8819.560
1365.840, 8763.614
1366.899, 8846.771
1367.958, 8676.423
1369.017, 8656.550
1370.075, 8676.619
1371.134, 8711.257
1372.192, 8629.499
1373.250, 8710.269
1374.308, 8820.258
1375.366, 8795.104
1376.424, 8757.875
1377.481, 8773.337
1378.539, 8639.486
1379.596, 8782.644
1380.653, 8736.579
1381.710, 8784.573
1382.767, 8853.887
1383.824, 8759.957
1384.880, 8838.847
1385.937, 8649.732
1386.993, 8684.867
1388.049, 8695.854
1389.105, 8850.178
1390.161, 8662.367
1391.216, 8691.270
1392.272, 8812.447
1393.327, 8804.511
1394.382, 8850.556
1395.437, 8736.791
1396.492, 8773.156
1397.547, 8768.140
1398.601, 8906.117
1399.656, 8931.208
1400.710, 8820.153
1401.764, 8709.675
1402.818, 8857.943
1403.872, 8760.969
1404.925, 8796.298
1405.979, 8694.985
1407.032, 8711.652
1408.085, 8726.448
1409.139, 8801.728
1410.191, 8693.608
1411.244, 8823.382
1412.297, 8815.661
1413.349, 8848.440
1414.402, 8876.715
1415.454, 8720.484
1416.506, 8715.502
1417.558, 8926.943
1418.609, 8808.326
1419.661, 8756.328
1420.712, 8751.684
1421.764, 8970.536
1422.815, 8981.650
1423.866, 8744.457
1424.916, 8953.457
1425.967, 8887.950
1427.018, 8904.019
1428.068, 8890.323
1429.118, 8885.438
1430.168, 8768.489
1431.218, 8799.219
1432.268, 8950.025
1433.318, 8896.118
1434.367, 8981.312
1435.416, 8812.998
1436.465, 8795.161
1437.514, 8817.267
1438.563, 8853.939
1439.612, 8774.218
1440.661, 8927.269
1441.709, 8925.330
1442.757, 8789.084
1443.805, 8798.534
1444.853, 8783.793
1445.901, 9020.892
1446.949, 8911.740
1447.996, 8778.068
1449.044, 8918.890
1450.091, 8971.729
1451.138, 8905.625
1452.185, 8902.724
1453.232, 8779.915
1454.278, 8840.987
1455.325, 8838.820
1456.371, 8940.852
1457.417, 8818.522
1458.463, 8954.478
1459.509, 8838.167
1460.555, 8984.580
1461.601, 8862.936
1462.646, 8980.075
1463.691, 8812.190
1464.737, 8850.606
1465.782, 8905.373
1466.826, 9012.954
1467.871, 8917.478
1468.916, 9037.589
1469.960, 8968.505
1471.004, 9022.565
1472.048, 9008.341
1473.092, 8908.648
1474.136, 9050.013
1475.180, 8971.522
1476.223, 9041.482
1477.267, 8870.995
1478.310, 8992.808
1479.353, 9051.691
1480.396, 9097.611
1481.439, 9089.007
1482.481, 9056.104
1483.524, 9061.329
1484.566, 9002.920
1485.608, 8851.594
1486.650, 8893.062
1487.692, 8992.854
1488.734, 9063.734
1489.775, 8938.877
1490.817, 9024.669
1491.858, 9015.616
1492.899, 9096.313
1493.940, 9004.968
1494.981, 9118.446
1496.022, 8956.532
1497.062, 9090.809
1498.103, 9144.723
1499.143, 8896.120
1500.183, 9144.342
1501.223, 8943.980
1502.263, 9008.062
1503.302, 9055.453
1504.342, 8973.025
1505.381, 9142.921
1506.420, 8910.070
1507.459, 8961.442
1508.498, 9118.225
1509.537, 9020.699
1510.576, 9172.447
1511.614, 9073.709
1512.652, 8922.350
1513.691, 9140.463
1514.729, 8978.439
1515.767, 9066.024
1516.804, 8946.110
1517.842, 9178.922
1518.879, 9068.090
1519.917, 8973.169
1520.954, 9068.991
1521.991, 9156.940
1523.028, 9021.282
1524.064, 9053.623
1525.101, 9022.464
1526.137, 9131.117
1527.173, 9207.266
1528.210, 8998.031
1529.245, 9145.534
1530.281, 9045.955
1531.317, 9209.746
1532.352, 8961.004
1533.388, 8967.446
1534.423, 9196.372
1535.458, 9114.799
1536.493, 9228.804
1537.528, 8979.643
1538.562, 8984.039
1539.597, 9189.162
1540.631, 9002.372
1541.665, 9239.449
1542.700, 9058.283
1543.733, 9038.311
1544.767, 9201.856
1545.801, 9092.143
1546.834, 9218.800
1547.868, 9154.746
1548.901, 9256.467
1549.934, 9196.278
1550.967, 9043.828
1551.999, 9244.887
1553.032, 9179.049
1554.064, 9009.304
1555.097, 9142.763
1556.129, 9230.637
1557.161, 9206.847
1558.193, 9255.117
1559.224, 9213.442
1560.256, 9060.986
1561.287, 9102.509
1562.318, 9172.206
1563.350, 9102.000
##END=



