##NAMES=Arfvedsonite
##RRUFFID=R040127
##IDEAL CHEMISTRY=NaNa_2_(Fe^2+^_4_Fe^3+^)Si_8_O_22_(OH)_2_
##LOCALITY=Mont Saint-Hilaire, Rouville County, Quebec, Canada
##OWNER=RRUFF
##SOURCE=Bob Downs
##DESCRIPTION=Black prismatic crystal associated with white analcime, R040128
##STATUS=The identification of this mineral has been confirmed by X-ray diffraction and chemical analysis
##URL=rruff.info/R040127
##MEASURED CHEMISTRY=(Na_0.61_K_0.39_)Na_2.00_(Fe^2+^_2.40_Mg_0.80_Mn_0.75_Ca_0.05_)_&#931;=4_(Fe^3+^_0.60_Al_0.25_Mn_0.15_)(Si_0.99_Ti_0.01_)_8_O_22_((OH)_0.67_F_0.33_)_2_
##PIN_ID=M00446
##ORIENTATION=Laser parallel to (-1 0 -1). Fiducial mark perpendicular to laser is parallel to -b [0 -1 0]
131.3060, 42531.00
132.5420, 42484.00
133.7780, 42912.00
135.0140, 44135.00
136.2500, 45079.00
137.4850, 46552.00
138.7200, 49243.00
139.9550, 50596.00
141.1900, 50333.00
142.4250, 50016.00
143.6600, 49517.00
144.8940, 48451.00
146.1280, 47555.00
147.3620, 46352.00
148.5960, 45846.01
149.8300, 45106.79
151.0630, 44734.00
152.2960, 44515.00
153.5300, 43802.00
154.7620, 44471.00
155.9950, 44267.00
157.2280, 44031.00
158.4600, 44370.00
159.6920, 45122.00
160.9250, 46205.00
162.1560, 46648.00
163.3880, 48050.00
164.6200, 49095.00
165.8510, 48883.00
167.0820, 48782.00
168.3130, 48453.00
169.5440, 48457.00
170.7750, 48182.00
172.0050, 47310.00
173.2350, 46198.00
174.4650, 45764.00
175.6950, 45480.00
176.9250, 45162.00
178.1550, 44970.07
179.3840, 44784.00
180.6130, 44928.00
181.8420, 45039.00
183.0710, 45561.00
184.3000, 46184.00
185.5280, 46949.00
186.7570, 48071.00
187.9850, 48477.00
189.2130, 49581.00
190.4400, 50552.00
191.6680, 51283.00
192.8960, 52490.00
194.1230, 53475.00
195.3500, 54513.00
196.5770, 54819.00
197.8030, 54989.00
199.0300, 55747.00
200.2560, 56643.00
201.4830, 57077.00
202.7090, 56874.00
203.9340, 54773.00
205.1600, 52774.00
206.3860, 51352.00
207.6110, 50692.00
208.8360, 50317.00
210.0610, 49966.00
211.2860, 50209.00
212.5100, 49892.00
213.7350, 49658.00
214.9590, 49450.00
216.1830, 48927.00
217.4070, 47910.00
218.6310, 47641.00
219.8540, 46860.00
221.0780, 46395.00
222.3010, 45905.00
223.5240, 45383.00
224.7470, 44883.00
225.9690, 44508.74
227.1920, 44151.00
228.4140, 43849.00
229.6360, 43575.00
230.8580, 43373.00
232.0800, 43284.00
233.3020, 43156.84
234.5230, 43054.79
235.7440, 43031.00
236.9650, 42912.00
238.1860, 42796.00
239.4070, 42759.00
240.6280, 42731.84
241.8480, 42909.00
243.0680, 42661.00
244.2880, 42729.00
245.5080, 42485.00
246.7280, 42099.00
247.9470, 41979.00
249.1660, 41954.00
250.3860, 41856.00
251.6040, 41305.00
252.8230, 41466.00
254.0420, 41184.00
255.2600, 40459.00
256.4790, 40749.00
257.6970, 41408.00
258.9150, 41187.65
260.1320, 40924.78
261.3500, 41364.00
262.5670, 39927.00
263.7840, 39442.00
265.0010, 39307.00
266.2180, 39576.00
267.4350, 39101.00
268.6510, 39316.00
269.8680, 39140.00
271.0840, 38872.00
272.3000, 38664.00
273.5160, 38396.00
274.7310, 38158.00
275.9470, 38406.00
277.1620, 38318.00
278.3770, 38037.00
279.5920, 38524.00
280.8070, 38291.33
282.0210, 38031.00
283.2360, 37751.00
284.4500, 37788.40
285.6640, 37829.84
286.8780, 38081.00
288.0920, 38133.35
289.3050, 38304.00
290.5180, 38393.00
291.7320, 38472.00
292.9450, 38585.00
294.1570, 38730.00
295.3700, 38796.00
296.5830, 38838.00
297.7950, 39322.00
299.0070, 39300.00
300.2190, 39522.00
301.4310, 39829.00
302.6420, 39920.00
303.8540, 39751.00
305.0650, 39865.00
306.2760, 40013.00
307.4870, 40279.00
308.6980, 40488.00
309.9080, 40707.00
311.1190, 40751.00
312.3290, 40908.79
313.5390, 41078.00
314.7490, 40954.00
315.9580, 41009.00
317.1680, 40746.00
318.3770, 40585.00
319.5860, 40536.00
320.7950, 40483.00
322.0040, 40388.00
323.2130, 40125.00
324.4210, 39765.00
325.6290, 39681.00
326.8380, 39681.00
328.0460, 39569.00
329.2530, 39156.00
330.4610, 39285.00
331.6680, 39039.00
332.8760, 39029.00
334.0830, 39267.00
335.2890, 39352.00
336.4960, 39171.00
337.7030, 39326.00
338.9090, 39700.00
340.1150, 39484.00
341.3210, 39932.00
342.5270, 40012.00
343.7330, 40463.00
344.9380, 40771.00
346.1440, 41050.00
347.3490, 41602.00
348.5540, 42158.00
349.7590, 42701.00
350.9630, 43181.47
352.1680, 43647.39
353.3720, 44076.00
354.5760, 44458.00
355.7800, 44811.51
356.9840, 45110.18
358.1870, 45273.00
359.3910, 45464.00
360.5940, 45551.00
361.7970, 45480.00
363.0000, 45252.00
364.2030, 45055.00
365.4050, 45090.00
366.6080, 44604.00
367.8100, 44337.00
369.0120, 44500.00
370.2140, 43986.00
371.4150, 43893.00
372.6170, 43976.00
373.8180, 43742.00
375.0190, 43629.00
376.2200, 43221.00
377.4210, 43318.00
378.6220, 43000.00
379.8220, 43012.00
381.0230, 42710.00
382.2230, 42469.00
383.4230, 42620.00
384.6220, 42333.00
385.8220, 41894.00
387.0220, 41711.00
388.2210, 41566.00
389.4200, 41420.00
390.6190, 41157.00
391.8180, 40921.00
393.0160, 40406.00
394.2150, 40408.68
395.4130, 40154.68
396.6110, 40219.00
397.8090, 39948.00
399.0060, 39692.00
400.2040, 39659.00
401.4010, 39739.00
402.5980, 39588.00
403.7950, 39691.00
404.9920, 39900.00
406.1890, 39922.45
407.3860, 40067.00
408.5820, 40287.00
409.7780, 40414.00
410.9740, 40793.00
412.1700, 40696.00
413.3650, 40971.00
414.5610, 41419.00
415.7560, 41683.00
416.9510, 41641.00
418.1460, 41640.00
419.3410, 41837.00
420.5360, 41517.00
421.7300, 41516.00
422.9240, 41631.00
424.1180, 41150.00
425.3120, 41341.00
426.5060, 40943.00
427.7000, 40693.00
428.8930, 40265.00
430.0860, 39839.00
431.2790, 39655.00
432.4720, 39507.00
433.6650, 39132.00
434.8580, 39134.00
436.0500, 38739.00
437.2420, 38386.00
438.4340, 38010.00
439.6260, 37784.87
440.8180, 37565.00
442.0090, 37481.00
443.2010, 37204.50
444.3920, 37267.00
445.5830, 36793.00
446.7740, 36734.00
447.9640, 36849.00
449.1550, 36319.00
450.3450, 36455.00
451.5350, 36425.00
452.7250, 36441.00
453.9150, 36503.00
455.1050, 36410.00
456.2940, 36540.00
457.4830, 36528.00
458.6720, 36547.00
459.8610, 36649.00
461.0500, 36613.00
462.2390, 36710.00
463.4270, 36673.00
464.6150, 36781.00
465.8040, 36782.46
466.9910, 36795.00
468.1790, 36780.00
469.3670, 36845.00
470.5540, 36777.00
471.7410, 36675.05
472.9280, 36724.00
474.1150, 36441.00
475.3020, 36433.00
476.4890, 36450.00
477.6750, 36542.00
478.8610, 36540.29
480.0470, 36605.59
481.2330, 36527.00
482.4190, 36716.00
483.6040, 36557.00
484.7900, 36607.00
485.9750, 36814.00
487.1600, 36803.00
488.3450, 37192.00
489.5290, 37249.00
490.7140, 37117.00
491.8980, 37649.00
493.0820, 37916.00
494.2660, 37797.00
495.4500, 38344.00
496.6340, 38979.00
497.8170, 38631.00
499.0010, 39478.00
500.1840, 39126.00
501.3670, 39348.00
502.5500, 39473.54
503.7320, 39510.12
504.9150, 39652.00
506.0970, 39760.00
507.2790, 40246.00
508.4610, 40210.00
509.6430, 41086.00
510.8250, 40942.25
512.0060, 41714.00
513.1870, 41188.00
514.3680, 41207.00
515.5490, 41831.00
516.7300, 41813.84
517.9110, 42372.00
519.0910, 42892.00
520.2710, 43075.00
521.4510, 43742.53
522.6310, 44349.00
523.8110, 44900.00
524.9910, 45627.00
526.1700, 46349.00
527.3490, 47040.00
528.5280, 47777.00
529.7070, 48605.00
530.8860, 49545.00
532.0650, 50131.00
533.2430, 50967.00
534.4210, 51024.00
535.5990, 51392.00
536.7770, 52014.00
537.9550, 51784.00
539.1320, 51743.00
540.3100, 51224.00
541.4870, 50846.00
542.6640, 50660.00
543.8410, 49946.40
545.0170, 49413.00
546.1940, 48790.00
547.3700, 48331.00
548.5470, 48024.00
549.7230, 47461.39
550.8980, 47089.29
552.0740, 46490.00
553.2500, 46312.00
554.4250, 45761.00
555.6000, 45514.00
556.7750, 45330.00
557.9500, 45051.00
559.1250, 44744.00
560.2990, 44714.00
561.4730, 44520.00
562.6480, 44800.00
563.8220, 44207.00
564.9950, 44324.00
566.1690, 43976.00
567.3430, 44163.00
568.5160, 44084.00
569.6890, 44117.00
570.8620, 43989.00
572.0350, 43600.00
573.2070, 43717.00
574.3800, 43316.00
575.5520, 42842.00
576.7240, 42613.00
577.8960, 42290.00
579.0680, 41847.00
580.2400, 41085.00
581.4110, 40429.00
582.5830, 40173.00
583.7540, 39452.00
584.9250, 39075.00
586.0950, 38578.00
587.2660, 38156.00
588.4370, 38025.00
589.6070, 37645.00
590.7770, 37503.00
591.9470, 37086.00
593.1170, 37177.00
594.2860, 37172.00
595.4560, 36863.00
596.6250, 36759.00
597.7940, 36656.00
598.9630, 36346.00
600.1320, 36389.00
601.3000, 36526.00
602.4690, 36354.00
603.6370, 36496.00
604.8050, 36275.00
605.9730, 36441.00
607.1410, 36213.00
608.3090, 36600.00
609.4760, 36460.00
610.6430, 36048.00
611.8100, 36226.00
612.9770, 36494.00
614.1440, 36275.00
615.3110, 36211.00
616.4770, 36102.00
617.6430, 36223.00
618.8090, 36098.00
619.9750, 36349.00
621.1410, 36205.00
622.3070, 36373.00
623.4720, 36138.00
624.6370, 36287.00
625.8020, 36445.00
626.9670, 36468.00
628.1320, 36348.00
629.2970, 36448.00
630.4610, 36541.00
631.6250, 36728.00
632.7890, 36800.00
633.9530, 36832.12
635.1170, 36872.00
636.2810, 36873.00
637.4440, 36906.00
638.6070, 37011.00
639.7700, 37067.00
640.9330, 37268.00
642.0960, 37320.00
643.2590, 37219.00
644.4210, 37707.00
645.5830, 37399.00
646.7450, 37866.00
647.9070, 37704.00
649.0690, 37920.00
650.2310, 38309.00
651.3920, 38565.00
652.5530, 38492.00
653.7140, 39194.00
654.8750, 39897.00
656.0360, 40421.00
657.1970, 40432.00
658.3570, 40851.00
659.5170, 41518.00
660.6770, 42454.00
661.8370, 43103.00
662.9970, 44104.00
664.1570, 45393.00
665.3160, 46660.00
666.4750, 48698.00
667.6340, 49769.00
668.7930, 51492.00
669.9520, 53579.00
671.1110, 54673.00
672.2690, 56330.00
673.4270, 57626.00
674.5850, 58220.00
675.7430, 58344.23
676.9010, 57845.00
678.0590, 56921.00
679.2160, 55383.00
680.3730, 53259.00
681.5300, 51424.00
682.6870, 49122.00
683.8440, 46946.00
685.0010, 45712.00
686.1570, 44425.00
687.3130, 42923.00
688.4690, 42050.00
689.6250, 41661.00
690.7810, 41119.00
691.9370, 41113.00
693.0920, 40575.87
694.2470, 40622.00
695.4020, 39937.00
696.5570, 39629.00
697.7120, 39615.00
698.8670, 39660.00
700.0210, 39670.00
701.1750, 39546.28
702.3290, 39543.96
703.4830, 39334.00
704.6370, 39317.00
705.7910, 39359.00
706.9440, 39047.00
708.0970, 39112.00
709.2510, 39164.00
710.4030, 39089.00
711.5560, 39264.00
712.7090, 38908.00
713.8610, 38879.00
715.0140, 39277.00
716.1660, 39036.00
717.3180, 38763.00
718.4690, 38824.00
719.6210, 38840.00
720.7730, 38715.00
721.9240, 38766.68
723.0750, 38785.00
724.2260, 38645.00
725.3770, 38865.00
726.5270, 38610.00
727.6780, 38680.00
728.8280, 38502.00
729.9780, 38548.00
731.1280, 38395.00
732.2780, 38614.00
733.4280, 38564.00
734.5770, 38616.00
735.7260, 38686.00
736.8760, 38751.62
738.0250, 38415.00
739.1730, 38967.00
740.3220, 39001.00
741.4700, 39101.00
742.6190, 38180.00
743.7670, 38394.00
744.9150, 38245.00
746.0630, 37787.00
747.2100, 37660.00
748.3580, 37669.00
749.5050, 37640.00
750.6520, 37240.00
751.7990, 37468.00
752.9460, 37815.00
754.0930, 37372.00
755.2390, 37046.00
756.3860, 37466.00
757.5320, 37227.00
758.6780, 37046.00
759.8240, 37177.00
760.9690, 37344.00
762.1150, 37134.00
763.2600, 37308.00
764.4060, 37228.18
765.5510, 36978.00
766.6950, 37221.00
767.8400, 36927.00
768.9850, 37088.00
770.1290, 37156.00
771.2730, 36909.00
772.4170, 36972.00
773.5610, 37105.00
774.7050, 37161.00
775.8480, 36956.00
776.9920, 36892.00
778.1350, 37042.00
779.2780, 37044.00
780.4210, 37107.00
781.5640, 36960.00
782.7060, 37015.00
783.8490, 37033.00
784.9910, 36802.00
786.1330, 36756.00
787.2750, 37158.00
788.4170, 36952.39
789.5580, 36976.53
790.7000, 37053.00
791.8410, 36774.00
792.9820, 37009.00
794.1230, 36927.00
795.2640, 36827.00
796.4040, 36845.00
797.5450, 36736.00
798.6850, 36828.00
799.8250, 36654.00
800.9650, 36861.00
802.1050, 36669.00
803.2450, 36883.00
804.3840, 36503.00
805.5230, 36456.00
806.6630, 36528.00
807.8020, 36506.00
808.9400, 36568.00
810.0790, 36553.36
811.2170, 36340.00
812.3560, 36445.00
813.4940, 36415.00
814.6320, 36187.17
815.7700, 36424.00
816.9070, 36129.00
818.0450, 36133.00
819.1820, 36282.00
820.3190, 36053.00
821.4560, 36301.00
822.5930, 36235.00
823.7300, 36255.00
824.8670, 36493.00
826.0030, 36251.00
827.1390, 36364.00
828.2750, 36073.00
829.4110, 36409.00
830.5470, 36423.00
831.6820, 36463.00
832.8180, 36381.00
833.9530, 36439.00
835.0880, 36579.00
836.2230, 36499.00
837.3580, 36600.00
838.4920, 36663.00
839.6270, 36742.18
840.7610, 36811.19
841.8950, 36897.00
843.0290, 36955.00
844.1630, 37015.33
845.2960, 36927.00
846.4300, 37055.00
847.5630, 37081.00
848.6960, 36959.00
849.8290, 37125.00
850.9620, 37294.00
852.0940, 37338.00
853.2270, 37577.00
854.3590, 37361.00
855.4910, 37602.00
856.6230, 37689.00
857.7550, 37894.00
858.8870, 37819.00
860.0180, 38214.00
861.1500, 38136.00
862.2810, 38325.00
863.4120, 38488.00
864.5430, 38844.00
865.6730, 38991.28
866.8040, 39237.55
867.9340, 39443.00
869.0640, 39745.00
870.1940, 40055.00
871.3240, 40463.00
872.4540, 40734.52
873.5830, 41017.24
874.7130, 41325.82
875.8420, 41477.00
876.9710, 41717.00
878.1000, 41864.00
879.2290, 41999.00
880.3570, 42388.00
881.4860, 42476.72
882.6140, 42706.00
883.7420, 42854.00
884.8700, 42883.00
885.9980, 43127.00
887.1250, 43095.00
888.2530, 43420.00
889.3800, 43976.00
890.5070, 44338.00
891.6340, 44107.00
892.7610, 43598.00
893.8880, 43247.00
895.0140, 43550.00
896.1400, 43426.00
897.2670, 43577.00
898.3930, 43578.00
899.5180, 43501.00
900.6440, 43522.00
901.7700, 43587.77
902.8950, 43511.00
904.0200, 43755.00
905.1450, 43629.00
906.2700, 43649.00
907.3950, 43654.00
908.5190, 43435.00
909.6440, 43498.00
910.7680, 43719.00
911.8920, 43699.00
913.0160, 43342.00
914.1400, 43583.00
915.2630, 43058.00
916.3870, 43264.00
917.5100, 43039.00
918.6330, 43167.00
919.7560, 43314.00
920.8790, 43289.00
922.0010, 43041.00
923.1240, 43055.00
924.2460, 42647.00
925.3680, 42627.00
926.4900, 42784.00
927.6120, 42550.00
928.7340, 42550.00
929.8550, 42612.00
930.9760, 42634.00
932.0980, 42637.36
933.2190, 42788.00
934.3390, 42762.00
935.4600, 42546.00
936.5810, 42849.00
937.7010, 42795.00
938.8210, 43080.00
939.9410, 43039.00
941.0610, 43188.00
942.1810, 43529.00
943.3010, 43485.00
944.4200, 43769.00
945.5390, 43894.00
946.6580, 43855.00
947.7770, 44163.00
948.8960, 44742.00
950.0150, 44736.00
951.1330, 45180.00
952.2510, 45339.00
953.3690, 45531.00
954.4870, 45634.00
955.6050, 45627.00
956.7230, 45704.00
957.8400, 46003.64
958.9580, 46217.38
960.0750, 46704.00
961.1920, 46939.00
962.3090, 47355.00
963.4250, 47805.00
964.5420, 48103.10
965.6580, 48615.13
966.7740, 48884.00
967.8900, 49554.00
969.0060, 50118.00
970.1220, 50571.00
971.2380, 51036.00
972.3530, 51513.00
973.4680, 52152.00
974.5830, 52306.00
975.6980, 52653.00
976.8130, 52564.00
977.9280, 52871.00
979.0420, 52411.00
980.1560, 52500.00
981.2710, 52162.00
982.3850, 51891.00
983.4980, 51490.00
984.6120, 51274.00
985.7260, 50442.00
986.8390, 50036.00
987.9520, 49289.00
989.0650, 49112.00
990.1780, 48659.00
991.2910, 48255.00
992.4030, 47750.00
993.5160, 47450.00
994.6280, 46814.00
995.7400, 46497.00
996.8520, 46330.00
997.9640, 46325.00
999.0750, 45918.00
1000.187, 45694.00
1001.298, 45571.00
1002.409, 45512.00
1003.520, 45422.00
1004.631, 45299.00
1005.741, 45178.00
1006.852, 45148.00
1007.962, 45252.00
1009.072, 45386.00
1010.182, 45367.00
1011.292, 45249.00
1012.402, 45353.00
1013.511, 45535.00
1014.621, 45255.00
1015.730, 45344.00
1016.839, 45024.00
1017.948, 44922.00
1019.056, 45203.00
1020.165, 45298.00
1021.273, 45615.88
1022.382, 45147.00
1023.490, 46177.00
1024.598, 45164.00
1025.706, 44895.00
1026.813, 45206.00
1027.921, 44604.00
1029.028, 44564.00
1030.135, 45084.00
1031.242, 44982.00
1032.349, 44733.00
1033.456, 44613.00
1034.562, 44592.00
1035.668, 44585.00
1036.775, 44720.00
1037.881, 44747.00
1038.987, 44624.00
1040.092, 44819.00
1041.198, 45071.00
1042.303, 44904.00
1043.408, 45034.00
1044.514, 44900.00
1045.618, 45028.92
1046.723, 45242.00
1047.828, 45281.00
1048.932, 45321.00
1050.037, 45422.00
1051.141, 45415.00
1052.245, 45771.00
1053.349, 45560.00
1054.452, 45562.00
1055.556, 45980.00
1056.659, 45830.00
1057.762, 46117.00
1058.865, 46026.00
1059.968, 46206.00
1061.071, 46341.00
1062.174, 46300.00
1063.276, 46347.00
1064.378, 46840.00
1065.480, 46980.00
1066.582, 47160.00
1067.684, 47149.52
1068.786, 47076.00
1069.887, 47020.00
1070.988, 46937.00
1072.090, 46810.50
1073.191, 46908.00
1074.291, 46593.00
1075.392, 46322.00
1076.493, 46334.00
1077.593, 46260.00
1078.693, 46178.00
1079.793, 46111.00
1080.893, 46163.00
1081.993, 46148.10
1083.092, 46080.26
1084.192, 46195.00
1085.291, 45947.00
1086.390, 45872.00
1087.489, 45811.00
1088.588, 45936.00
1089.686, 46065.00
1090.785, 46377.00
1091.883, 46383.00
1092.981, 46429.00
1094.079, 46836.00
1095.177, 47212.00
1096.275, 46827.00
1097.373, 47027.00
1098.470, 47183.00
1099.567, 47279.00
1100.664, 47378.00
1101.761, 47917.00
1102.858, 47252.00
1103.954, 47000.00
1105.051, 47490.00
1106.147, 47402.00
1107.243, 47518.00
1108.339, 47394.00
1109.435, 47055.00
1110.531, 47262.00
1111.626, 46803.00
1112.722, 46922.00
1113.817, 46832.00
1114.912, 46563.00
1116.007, 46609.00
1117.101, 46179.00
1118.196, 46407.00
1119.290, 46382.00
1120.385, 46341.00
1121.479, 46147.00
1122.573, 45940.00
1123.666, 45845.00
1124.760, 45607.12
1125.853, 45307.00
1126.947, 45313.00
1128.040, 45350.00
1129.133, 45470.00
1130.226, 44931.00
1131.318, 44780.00
1132.411, 44680.00
1133.503, 44513.00
1134.596, 44417.00
1135.688, 44256.09
1136.780, 44105.72
1137.871, 43905.00
1138.963, 43778.00
1140.054, 43522.00
1141.146, 43323.00
1142.237, 43227.00
1143.328, 43204.00
1144.419, 43108.00
1145.509, 42990.00
1146.600, 42857.00
1147.690, 42680.00
1148.780, 42441.00
1149.870, 42132.00
1150.960, 41906.00
1152.050, 41618.00
1153.139, 41368.00
1154.229, 41133.00
1155.318, 40872.00
1156.407, 40510.00
1157.496, 40286.00
1158.585, 39982.00
1159.674, 39734.00
1160.762, 39966.00
1161.850, 39443.00
1162.939, 39397.00
1164.027, 38811.00
1165.114, 38940.00
1166.202, 38734.00
1167.290, 38535.00
1168.377, 38538.00
1169.464, 38570.00
1170.551, 38417.00
1171.638, 38621.00
1172.725, 38333.00
1173.812, 38572.00
1174.898, 38458.00
1175.984, 38339.00
1177.071, 38365.00
1178.157, 38354.00
1179.242, 38097.00
1180.328, 38147.26
1181.414, 38478.00
1182.499, 38011.00
1183.584, 38413.00
1184.669, 38285.00
1185.754, 38150.00
1186.839, 38320.00
1187.924, 38094.00
1189.008, 38189.47
1190.092, 38287.00
1191.177, 38271.00
1192.260, 38111.00
1193.344, 38133.00
1194.428, 37969.00
1195.512, 37718.00
1196.595, 38039.00
1197.678, 38163.00
1198.761, 38348.00
1199.844, 38091.00
1200.927, 37881.00
1202.009, 38272.00
1203.092, 38520.00
1204.174, 38271.00
1205.256, 38156.00
1206.338, 38003.00
1207.420, 38034.00
1208.502, 38008.00
1209.583, 38037.00
1210.665, 38107.00
1211.746, 37913.00
1212.827, 38118.00
1213.908, 38440.00
1214.988, 38458.00
1216.069, 38300.00
1217.149, 37905.00
1218.230, 37921.00
1219.310, 37984.00
1220.390, 38117.00
1221.470, 38173.00
1222.549, 37948.00
1223.629, 38213.00
1224.708, 38043.00
1225.787, 38238.00
1226.866, 37947.00
1227.945, 38170.00
1229.024, 38061.00
1230.103, 37886.00
1231.181, 38039.00
1232.259, 38004.00
1233.337, 37951.00
1234.415, 37923.00
1235.493, 38099.00
1236.571, 37909.00
1237.648, 38093.00
1238.726, 38320.00
1239.803, 38235.00
1240.880, 38280.00
1241.957, 38090.00
1243.034, 38291.00
1244.110, 38178.00
1245.187, 38159.00
1246.263, 38113.00
1247.339, 38189.00
1248.415, 38263.00
1249.491, 37958.00
1250.566, 38202.00
1251.642, 38168.00
1252.717, 38336.00
1253.793, 38146.00
1254.868, 38162.00
1255.943, 38236.00
1257.017, 38103.00
1258.092, 38123.00
1259.166, 38336.00
1260.241, 38018.00
1261.315, 38060.00
1262.389, 38234.00
1263.462, 38176.00
1264.536, 38120.00
1265.610, 38289.00
1266.683, 38121.00
1267.756, 38199.00
1268.829, 37989.00
1269.902, 38072.21
1270.975, 38115.80
1272.048, 38252.00
1273.120, 38183.00
1274.192, 38393.00
1275.264, 38203.00
1276.336, 38264.00
1277.408, 38212.00
1278.480, 38266.00
1279.551, 38355.00
1280.623, 38330.00
1281.694, 38350.00
1282.765, 38332.00
1283.836, 38318.39
1284.907, 38435.81
1285.977, 38259.40
1287.048, 38340.05
1288.118, 38265.00
1289.188, 38394.00
1290.258, 38474.00
1291.328, 38388.00
1292.398, 38245.00
1293.467, 38096.00
1294.537, 38227.00
1295.606, 38315.00
1296.675, 38380.00
1297.744, 38472.00
1298.813, 38241.00
1299.882, 38347.00
1300.950, 38146.00
1302.018, 38102.00
1303.086, 38130.00
1304.155, 38044.00
1305.222, 38206.00
1306.290, 38382.00
1307.358, 38425.00
1308.425, 38202.00
1309.492, 38537.00
1310.559, 38377.00
1311.626, 38456.00
1312.693, 38714.00
1313.760, 39032.00
1314.826, 38541.00
1315.893, 38437.00
1316.959, 38539.00
1318.025, 38527.00
1319.091, 38606.00
1320.157, 38385.00
1321.222, 38479.00
1322.288, 38450.00
1323.353, 38409.46
1324.418, 38659.00
1325.483, 38480.00
1326.548, 38375.00
1327.612, 38544.00
1328.677, 38442.61
1329.741, 38561.00
1330.806, 38567.00
1331.870, 38475.00
1332.934, 38686.00
1333.997, 38578.00
1335.061, 38502.00
1336.124, 38616.00
1337.188, 38680.00
1338.251, 38822.00
1339.314, 38794.80
1340.377, 38732.00
1341.439, 38752.00
1342.502, 38695.00
1343.564, 38693.00
1344.627, 38616.27
1345.689, 38610.30
1346.751, 38576.00
1347.813, 38603.00
1348.874, 38606.87
1349.936, 38640.61
1350.997, 38608.00
1352.058, 38714.00
1353.119, 38630.00
1354.180, 38613.72
1355.241, 38547.00
1356.301, 38746.00
1357.362, 38859.00
1358.422, 39026.00
1359.482, 38989.00
1360.542, 38983.82
1361.602, 39018.63
1362.662, 38803.00
1363.721, 38908.00
1364.781, 38808.00
1365.840, 38561.00
1366.899, 38718.00
1367.958, 39198.00
1369.017, 39184.00
1370.075, 38917.00
1371.134, 38482.00
1372.192, 38692.00
1373.250, 38721.00
1374.308, 38844.00
1375.366, 39068.00
1376.424, 38843.00
1377.481, 38710.00
1378.539, 38721.00
1379.596, 39197.00
1380.653, 39486.00
1381.710, 39337.25
1382.767, 38634.00
1383.824, 39018.00
1384.880, 39067.00
1385.937, 38848.00
1386.993, 39249.00
1388.049, 38957.00
1389.105, 39161.28
1390.161, 38906.00
1391.216, 39433.00
1392.272, 38987.00
1393.327, 39101.00
1394.382, 38718.00
1395.437, 38708.00
1396.492, 39082.00
1397.547, 39141.00
1398.601, 39021.00
1399.656, 39111.00
1400.710, 38831.69
1401.764, 39136.52
1402.818, 39309.46
1403.872, 39357.59
1404.925, 38907.10
1405.979, 39100.47
1407.032, 39035.81
1408.085, 38960.57
1409.139, 39244.57
1410.191, 38866.60
1411.244, 39144.89
1412.297, 39161.22
1413.349, 39297.44
1414.402, 39174.04
1415.454, 39130.82
1416.506, 39347.32
1417.558, 39420.01
1418.609, 39266.71
1419.661, 39410.55
1420.712, 39023.51
1421.764, 39102.32
1422.815, 39382.13
1423.866, 39241.89
1424.916, 39390.47
1425.967, 39429.06
1427.018, 38967.73
1428.068, 39375.80
1429.118, 39407.88
1430.168, 39053.90
1431.218, 39432.18
1432.268, 39131.43
1433.318, 39073.04
1434.367, 39197.06
1435.416, 39130.93
1436.465, 39364.59
1437.514, 39309.44
1438.563, 39228.48
1439.612, 39260.14
1440.661, 38972.70
1441.709, 39277.24
1442.757, 39177.41
1443.805, 39278.58
1444.853, 39425.31
1445.901, 39223.19
1446.949, 39390.39
1447.996, 38984.85
1449.044, 39058.55
1450.091, 39080.63
1451.138, 39409.04
1452.185, 39006.29
1453.232, 39066.67
1454.278, 39324.23
1455.325, 39305.88
1456.371, 39402.89
1457.417, 39158.39
1458.463, 39234.71
1459.509, 39222.60
1460.555, 39516.08
1461.601, 39568.30
1462.646, 39329.59
1463.691, 39092.10
1464.737, 39407.57
1465.782, 39198.95
1466.826, 39273.06
1467.871, 39055.16
1468.916, 39089.39
1469.960, 39119.62
1471.004, 39279.11
1472.048, 39046.67
1473.092, 39322.61
1474.136, 39304.73
1475.180, 39373.39
1476.223, 39432.43
1477.267, 39097.17
1478.310, 39085.14
1479.353, 39535.61
1480.396, 39280.74
1481.439, 39168.23
1482.481, 39156.92
1483.524, 39623.23
1484.566, 39645.60
1485.608, 39137.32
1486.650, 39582.58
1487.692, 39441.21
1488.734, 39474.16
1489.775, 39519.00
1490.817, 39344.00
1491.858, 39399.00
1492.899, 39607.00
1493.940, 39524.00
1494.981, 39686.00
1496.022, 39876.00
1497.062, 39748.00
1498.103, 39589.00
1499.143, 39680.38
1500.183, 39607.98
1501.223, 39590.00
1502.263, 39651.00
1503.302, 39588.98
1504.342, 39412.00
1505.381, 39565.00
1506.420, 39471.00
1507.459, 39488.00
1508.498, 39657.00
1509.537, 39602.00
1510.576, 39572.00
1511.614, 39501.00
1512.652, 39746.00
1513.691, 39837.00
1514.729, 39782.84
1515.767, 39944.00
1516.804, 39671.00
1517.842, 39775.00
1518.879, 39679.00
1519.917, 39737.00
1520.954, 39698.00
1521.991, 39826.00
1523.028, 39793.07
1524.064, 39759.04
1525.101, 39842.00
1526.137, 39629.00
1527.173, 39752.00
1528.210, 39674.00
1529.245, 39899.00
1530.281, 39517.00
1531.317, 39536.00
1532.352, 39496.00
1533.388, 39820.00
1534.423, 39717.00
1535.458, 39781.00
1536.493, 39490.00
1537.528, 39485.00
1538.562, 39563.65
1539.597, 39860.58
1540.631, 40025.62
1541.665, 40065.86
1542.700, 39607.47
1543.733, 39792.96
1544.767, 39720.41
1545.801, 39637.27
1546.834, 39913.38
1547.868, 39527.52
1548.901, 39797.93
1549.934, 39806.37
1550.967, 39934.70
1551.999, 39803.42
1553.032, 39752.32
1554.064, 39960.94
1555.097, 40025.74
1556.129, 39864.57
1557.161, 40000.54
1558.193, 39605.61
1559.224, 39676.55
1560.256, 39948.49
1561.287, 39800.38
1562.318, 39941.09
1563.350, 39971.79
1564.380, 39502.60
1565.411, 39902.80
1566.442, 39927.01
1567.472, 39565.17
1568.503, 39935.58
1569.533, 40094.00
1570.563, 40951.00
##END=



