##NAMES=Arfvedsonite
##RRUFFID=R040127
##IDEAL CHEMISTRY=NaNa_2_(Fe^2+^_4_Fe^3+^)Si_8_O_22_(OH)_2_
##LOCALITY=Mont Saint-Hilaire, Rouville County, Quebec, Canada
##OWNER=RRUFF
##SOURCE=Bob Downs
##DESCRIPTION=Black prismatic crystal associated with white analcime, R040128
##STATUS=The identification of this mineral has been confirmed by X-ray diffraction and chemical analysis
##URL=rruff.info/R040127
##MEASURED CHEMISTRY=(Na_0.61_K_0.39_)Na_2.00_(Fe^2+^_2.40_Mg_0.80_Mn_0.75_Ca_0.05_)_&#931;=4_(Fe^3+^_0.60_Al_0.25_Mn_0.15_)(Si_0.99_Ti_0.01_)_8_O_22_((OH)_0.67_F_0.33_)_2_
##PIN_ID=M00441
##ORIENTATION=Laser parallel to a* (1 0 0). Fiducial mark perpendicular to laser is parallel to -b [0 -1 0]
125.1230, 20917.00
126.3600, 20797.00
127.5960, 21215.00
128.8330, 22252.00
130.0700, 23226.00
131.3060, 23708.00
132.5420, 23491.00
133.7780, 23363.00
135.0140, 23532.00
136.2500, 24322.00
137.4850, 25391.00
138.7200, 27122.00
139.9550, 27500.00
141.1900, 26546.00
142.4250, 25566.00
143.6600, 25842.00
144.8940, 24833.00
146.1280, 24354.00
147.3620, 24011.00
148.5960, 23272.00
149.8300, 23153.00
151.0630, 23850.00
152.2960, 24019.00
153.5300, 23951.00
154.7620, 24589.00
155.9950, 25128.00
157.2280, 26034.00
158.4600, 24425.00
159.6920, 24327.00
160.9250, 25000.00
162.1560, 25924.00
163.3880, 26458.00
164.6200, 27092.00
165.8510, 27524.00
167.0820, 26657.00
168.3130, 26634.00
169.5440, 26603.00
170.7750, 26537.00
172.0050, 25653.00
173.2350, 25023.00
174.4650, 24762.00
175.6950, 24587.00
176.9250, 24501.00
178.1550, 24494.80
179.3840, 24593.67
180.6130, 24708.76
181.8420, 24876.00
183.0710, 25120.00
184.3000, 25742.00
185.5280, 26482.00
186.7570, 27412.00
187.9850, 27423.00
189.2130, 28082.00
190.4400, 28729.00
191.6680, 29118.00
192.8960, 29803.00
194.1230, 30131.00
195.3500, 30434.00
196.5770, 30726.00
197.8030, 30989.00
199.0300, 31103.00
200.2560, 31353.00
201.4830, 31548.00
202.7090, 31160.00
203.9340, 29293.00
205.1600, 26914.00
206.3860, 25340.00
207.6110, 24498.00
208.8360, 23906.00
210.0610, 23764.00
211.2860, 23221.00
212.5100, 22774.00
213.7350, 22623.00
214.9590, 22336.00
216.1830, 21721.00
217.4070, 21497.00
218.6310, 21245.00
219.8540, 20943.00
221.0780, 20821.00
222.3010, 20571.00
223.5240, 20429.00
224.7470, 20348.00
225.9690, 20302.00
227.1920, 20146.79
228.4140, 20055.96
229.6360, 19952.00
230.8580, 19883.51
232.0800, 19870.00
233.3020, 19803.00
234.5230, 19760.06
235.7440, 19758.00
236.9650, 19676.00
238.1860, 19671.00
239.4070, 19613.00
240.6280, 19844.00
241.8480, 19673.00
243.0680, 19713.00
244.2880, 19626.00
245.5080, 19443.00
246.7280, 19621.00
247.9470, 19420.00
249.1660, 19526.00
250.3860, 19245.13
251.6040, 19351.43
252.8230, 19395.42
254.0420, 19380.48
255.2600, 19130.15
256.4790, 19183.79
257.6970, 19115.62
258.9150, 19042.46
260.1320, 19138.95
261.3500, 18922.86
262.5670, 19016.65
263.7840, 18986.76
265.0010, 19013.47
266.2180, 18917.61
267.4350, 18859.60
268.6510, 18678.00
269.8680, 18548.00
271.0840, 18716.00
272.3000, 18564.00
273.5160, 18492.00
274.7310, 18711.00
275.9470, 18872.00
277.1620, 18975.00
278.3770, 19006.00
279.5920, 18848.00
280.8070, 18877.00
282.0210, 18842.00
283.2360, 18983.00
284.4500, 18964.00
285.6640, 18957.00
286.8780, 19034.00
288.0920, 19245.00
289.3050, 19407.00
290.5180, 19489.00
291.7320, 19617.00
292.9450, 19918.00
294.1570, 20087.00
295.3700, 20144.00
296.5830, 20306.00
297.7950, 20737.00
299.0070, 20936.00
300.2190, 21373.00
301.4310, 21608.39
302.6420, 22206.94
303.8540, 22604.56
305.0650, 22939.70
306.2760, 23215.90
307.4870, 23256.69
308.6980, 23601.47
309.9080, 23824.22
311.1190, 24042.18
312.3290, 24429.54
313.5390, 24504.36
314.7490, 24889.03
315.9580, 25149.80
317.1680, 25061.00
318.3770, 25010.00
319.5860, 24896.00
320.7950, 24487.00
322.0040, 24338.00
323.2130, 23880.00
324.4210, 23643.00
325.6290, 23275.00
326.8380, 22795.00
328.0460, 22789.00
329.2530, 22440.00
330.4610, 22303.02
331.6680, 21884.00
332.8760, 21769.92
334.0830, 21546.00
335.2890, 21503.00
336.4960, 21448.00
337.7030, 21371.00
338.9090, 21587.00
340.1150, 21740.00
341.3210, 21727.00
342.5270, 21875.00
343.7330, 22031.00
344.9380, 22085.68
346.1440, 22350.00
347.3490, 22300.00
348.5540, 22566.00
349.7590, 22720.00
350.9630, 22921.00
352.1680, 23165.00
353.3720, 23223.00
354.5760, 23368.80
355.7800, 23488.00
356.9840, 23500.00
358.1870, 23440.00
359.3910, 23437.00
360.5940, 23238.00
361.7970, 23458.00
363.0000, 23125.00
364.2030, 23141.00
365.4050, 22772.00
366.6080, 22902.00
367.8100, 22782.00
369.0120, 23029.00
370.2140, 22889.00
371.4150, 22737.00
372.6170, 23053.00
373.8180, 22612.00
375.0190, 22520.41
376.2200, 22631.74
377.4210, 22680.80
378.6220, 22670.93
379.8220, 22425.66
381.0230, 22484.37
382.2230, 22421.27
383.4230, 22353.18
384.6220, 22454.73
385.8220, 22498.00
387.0220, 22918.00
388.2210, 22633.09
389.4200, 23242.00
390.6190, 22484.00
391.8180, 22483.00
393.0160, 22541.00
394.2150, 22271.00
395.4130, 22371.74
396.6110, 22432.00
397.8090, 22306.00
399.0060, 22224.00
400.2040, 22024.00
401.4010, 22168.00
402.5980, 22673.00
403.7950, 23015.00
404.9920, 22607.00
406.1890, 22721.55
407.3860, 22073.00
408.5820, 22296.00
409.7780, 22134.00
410.9740, 22071.00
412.1700, 22130.00
413.3650, 22527.00
414.5610, 22189.11
415.7560, 22173.87
416.9510, 21794.00
418.1460, 21764.00
419.3410, 21689.00
420.5360, 21590.00
421.7300, 21450.00
422.9240, 21454.00
424.1180, 21191.00
425.3120, 21013.00
426.5060, 21000.00
427.7000, 20678.00
428.8930, 20508.00
430.0860, 20410.00
431.2790, 20233.00
432.4720, 20262.00
433.6650, 19974.00
434.8580, 19831.00
436.0500, 19783.00
437.2420, 19851.00
438.4340, 19545.00
439.6260, 19496.46
440.8180, 19206.00
442.0090, 19220.00
443.2010, 18904.00
444.3920, 18859.00
445.5830, 18579.00
446.7740, 18527.72
447.9640, 18588.00
449.1550, 18437.00
450.3450, 18330.00
451.5350, 18294.00
452.7250, 18167.00
453.9150, 18034.00
455.1050, 17968.00
456.2940, 18107.00
457.4830, 18129.00
458.6720, 17972.00
459.8610, 18157.00
461.0500, 18180.00
462.2390, 18491.00
463.4270, 18336.16
464.6150, 18302.00
465.8040, 18144.00
466.9910, 18200.00
468.1790, 18242.00
469.3670, 18184.00
470.5540, 18167.00
471.7410, 18258.00
472.9280, 18254.00
474.1150, 18360.00
475.3020, 18352.73
476.4890, 18522.50
477.6750, 18352.00
478.8610, 18437.00
480.0470, 18436.27
481.2330, 18933.00
482.4190, 18634.00
483.6040, 18944.00
484.7900, 19018.00
485.9750, 19061.00
487.1600, 19232.00
488.3450, 19362.00
489.5290, 19500.00
490.7140, 19713.00
491.8980, 19698.00
493.0820, 19985.00
494.2660, 20216.00
495.4500, 20247.00
496.6340, 20403.00
497.8170, 20633.00
499.0010, 20736.00
500.1840, 21106.00
501.3670, 21232.00
502.5500, 21413.16
503.7320, 21749.00
504.9150, 21772.00
506.0970, 21966.00
507.2790, 22249.00
508.4610, 22381.00
509.6430, 22612.88
510.8250, 23085.00
512.0060, 23045.00
513.1870, 23182.00
514.3680, 23465.00
515.5490, 24011.00
516.7300, 24519.00
517.9110, 25064.56
519.0910, 25199.00
520.2710, 26363.00
521.4510, 26447.00
522.6310, 27180.00
523.8110, 27865.00
524.9910, 28293.00
526.1700, 28982.00
527.3490, 29818.00
528.5280, 30633.00
529.7070, 31330.43
530.8860, 32186.00
532.0650, 32534.00
533.2430, 33141.00
534.4210, 33222.00
535.5990, 33536.00
536.7770, 33438.00
537.9550, 33314.00
539.1320, 33115.00
540.3100, 32667.00
541.4870, 32292.00
542.6640, 31772.00
543.8410, 31254.00
545.0170, 30696.00
546.1940, 29994.00
547.3700, 29534.00
548.5470, 29037.00
549.7230, 28607.00
550.8980, 28301.00
552.0740, 28005.00
553.2500, 27650.00
554.4250, 27386.00
555.6000, 27127.00
556.7750, 26963.43
557.9500, 26849.00
559.1250, 26764.00
560.2990, 26664.00
561.4730, 26647.00
562.6480, 26662.00
563.8220, 26648.14
564.9950, 26614.00
566.1690, 26702.00
567.3430, 26791.00
568.5160, 26827.00
569.6890, 26851.00
570.8620, 26801.89
572.0350, 26704.00
573.2070, 26569.00
574.3800, 26321.00
575.5520, 26042.92
576.7240, 25845.31
577.8960, 25508.92
579.0680, 25029.00
580.2400, 24857.12
581.4110, 24474.00
582.5830, 24135.00
583.7540, 23802.00
584.9250, 23496.00
586.0950, 23175.00
587.2660, 23106.00
588.4370, 22910.00
589.6070, 22612.00
590.7770, 22728.00
591.9470, 22493.00
593.1170, 22066.00
594.2860, 22407.00
595.4560, 22405.00
596.6250, 21896.00
597.7940, 22018.00
598.9630, 22002.00
600.1320, 21837.00
601.3000, 21723.00
602.4690, 21514.00
603.6370, 21549.00
604.8050, 21317.00
605.9730, 21180.00
607.1410, 21137.00
608.3090, 20924.00
609.4760, 20728.00
610.6430, 20642.00
611.8100, 20575.00
612.9770, 20360.00
614.1440, 20469.00
615.3110, 20124.00
616.4770, 19854.00
617.6430, 19917.00
618.8090, 19707.00
619.9750, 19475.00
621.1410, 19701.00
622.3070, 19490.00
623.4720, 19256.00
624.6370, 19278.00
625.8020, 19160.00
626.9670, 19035.00
628.1320, 19123.00
629.2970, 19000.00
630.4610, 18879.00
631.6250, 18895.00
632.7890, 18906.00
633.9530, 18953.00
635.1170, 18916.00
636.2810, 18977.43
637.4440, 18909.83
638.6070, 19079.00
639.7700, 18850.00
640.9330, 18906.00
642.0960, 19028.00
643.2590, 18977.00
644.4210, 19012.00
645.5830, 19218.00
646.7450, 19159.00
647.9070, 19298.00
649.0690, 19352.00
650.2310, 19622.00
651.3920, 19671.44
652.5530, 19742.00
653.7140, 19920.00
654.8750, 20290.00
656.0360, 20539.00
657.1970, 21084.00
658.3570, 21581.00
659.5170, 22274.00
660.6770, 23315.00
661.8370, 24733.00
662.9970, 25848.00
664.1570, 27618.00
665.3160, 28213.86
666.4750, 28665.00
667.6340, 29883.00
668.7930, 31328.00
669.9520, 32926.00
671.1110, 34289.00
672.2690, 34544.00
673.4270, 35057.00
674.5850, 34988.00
675.7430, 34842.00
676.9010, 34184.00
678.0590, 32706.00
679.2160, 31049.00
680.3730, 29778.00
681.5300, 28047.00
682.6870, 26268.00
683.8440, 24854.00
685.0010, 23665.00
686.1570, 22626.00
687.3130, 21684.00
688.4690, 21138.53
689.6250, 21088.63
690.7810, 20976.46
691.9370, 20805.36
693.0920, 20399.01
694.2470, 20296.64
695.4020, 20072.46
696.5570, 19843.27
697.7120, 19783.71
698.8670, 19411.58
700.0210, 19349.48
701.1750, 19163.70
702.3290, 19129.00
703.4830, 19075.00
704.6370, 19105.00
705.7910, 19064.48
706.9440, 18921.00
708.0970, 18971.00
709.2510, 18900.85
710.4030, 18772.00
711.5560, 18828.00
712.7090, 18739.00
713.8610, 18540.00
715.0140, 18659.00
716.1660, 18622.00
717.3180, 18554.00
718.4690, 18287.00
719.6210, 18121.00
720.7730, 18095.00
721.9240, 18077.00
723.0750, 18201.00
724.2260, 17908.00
725.3770, 17779.00
726.5270, 17915.00
727.6780, 17865.00
728.8280, 17802.00
729.9780, 17759.00
731.1280, 17716.28
732.2780, 17638.00
733.4280, 17590.75
734.5770, 17560.60
735.7260, 17474.00
736.8760, 17492.00
738.0250, 17451.00
739.1730, 17373.00
740.3220, 17445.00
741.4700, 17247.00
742.6190, 17315.00
743.7670, 17107.00
744.9150, 17145.00
746.0630, 17303.00
747.2100, 17509.00
748.3580, 17484.79
749.5050, 17107.00
750.6520, 17397.00
751.7990, 17145.00
752.9460, 16846.00
754.0930, 16970.00
755.2390, 16904.00
756.3860, 17002.00
757.5320, 16987.32
758.6780, 17012.00
759.8240, 17018.00
760.9690, 17012.77
762.1150, 16911.00
763.2600, 16973.00
764.4060, 17030.00
765.5510, 16942.00
766.6950, 17040.00
767.8400, 16957.00
768.9850, 17044.00
770.1290, 16945.00
771.2730, 16901.00
772.4170, 16967.00
773.5610, 17126.00
774.7050, 17096.00
775.8480, 17118.00
776.9920, 17063.00
778.1350, 16952.00
779.2780, 17237.00
780.4210, 17095.92
781.5640, 17188.00
782.7060, 17012.00
783.8490, 17194.00
784.9910, 17062.00
786.1330, 17078.00
787.2750, 17021.00
788.4170, 16783.00
789.5580, 16982.00
790.7000, 16881.00
791.8410, 16702.00
792.9820, 16752.00
794.1230, 16792.00
795.2640, 16595.76
796.4040, 16930.00
797.5450, 16355.00
798.6850, 16308.00
799.8250, 16344.00
800.9650, 16037.00
802.1050, 16212.00
803.2450, 15938.00
804.3840, 15987.00
805.5230, 15794.00
806.6630, 15894.00
807.8020, 15699.00
808.9400, 15723.00
810.0790, 15521.00
811.2170, 15708.00
812.3560, 15543.69
813.4940, 15533.43
814.6320, 15364.00
815.7700, 15371.00
816.9070, 15294.00
818.0450, 15216.41
819.1820, 15113.26
820.3190, 15135.00
821.4560, 15130.00
822.5930, 15179.00
823.7300, 15146.00
824.8670, 15158.00
826.0030, 15270.00
827.1390, 15098.00
828.2750, 15125.00
829.4110, 15237.00
830.5470, 15363.00
831.6820, 15357.00
832.8180, 15186.00
833.9530, 15347.00
835.0880, 15744.00
836.2230, 15553.14
837.3580, 15870.00
838.4920, 15507.00
839.6270, 15561.00
840.7610, 15607.00
841.8950, 15521.00
843.0290, 15511.00
844.1630, 15697.00
845.2960, 15832.00
846.4300, 15719.00
847.5630, 16071.00
848.6960, 15903.00
849.8290, 16012.00
850.9620, 16038.00
852.0940, 16025.00
853.2270, 16204.00
854.3590, 16067.00
855.4910, 16303.00
856.6230, 16383.00
857.7550, 16430.00
858.8870, 16772.00
860.0180, 16651.07
861.1500, 16834.95
862.2810, 16667.00
863.4120, 16972.00
864.5430, 17232.00
865.6730, 17219.00
866.8040, 17427.00
867.9340, 17609.00
869.0640, 17856.00
870.1940, 17996.96
871.3240, 18173.59
872.4540, 18324.00
873.5830, 18494.00
874.7130, 18712.00
875.8420, 18921.00
876.9710, 19079.00
878.1000, 19227.00
879.2290, 19363.00
880.3570, 19511.00
881.4860, 19650.00
882.6140, 19836.00
883.7420, 20064.00
884.8700, 20032.00
885.9980, 20231.00
887.1250, 20542.56
888.2530, 20502.91
889.3800, 21115.00
890.5070, 20645.00
891.6340, 20572.00
892.7610, 20728.00
893.8880, 21299.00
895.0140, 20927.00
896.1400, 21169.00
897.2670, 20845.00
898.3930, 21092.00
899.5180, 20761.00
900.6440, 20906.00
901.7700, 21071.00
902.8950, 20877.00
904.0200, 20630.00
905.1450, 20763.00
906.2700, 20667.00
907.3950, 20804.00
908.5190, 20659.00
909.6440, 20666.00
910.7680, 20598.00
911.8920, 20505.00
913.0160, 20453.00
914.1400, 20425.00
915.2630, 20313.61
916.3870, 20328.00
917.5100, 20136.00
918.6330, 20081.00
919.7560, 20028.00
920.8790, 20073.00
922.0010, 19859.00
923.1240, 19760.00
924.2460, 19780.00
925.3680, 19861.00
926.4900, 19713.98
927.6120, 19655.00
928.7340, 19595.00
929.8550, 19628.00
930.9760, 19779.00
932.0980, 19717.00
933.2190, 19637.00
934.3390, 19474.00
935.4600, 19663.00
936.5810, 19707.00
937.7010, 19797.00
938.8210, 19588.00
939.9410, 19943.00
941.0610, 19871.00
942.1810, 19967.00
943.3010, 20163.00
944.4200, 20110.00
945.5390, 20318.00
946.6580, 20455.00
947.7770, 20537.79
948.8960, 20814.00
950.0150, 20793.00
951.1330, 20953.00
952.2510, 21083.00
953.3690, 21218.04
954.4870, 21589.00
955.6050, 21556.00
956.7230, 21856.00
957.8400, 21983.03
958.9580, 22354.00
960.0750, 22374.00
961.1920, 22835.00
962.3090, 22996.00
963.4250, 23173.00
964.5420, 23500.00
965.6580, 23853.00
966.7740, 24068.00
967.8900, 24203.00
969.0060, 24635.00
970.1220, 24747.00
971.2380, 25167.00
972.3530, 25294.00
973.4680, 25678.00
974.5830, 25668.00
975.6980, 25805.00
976.8130, 25804.00
977.9280, 26040.00
979.0420, 25865.00
980.1560, 25956.00
981.2710, 25750.00
982.3850, 25524.00
983.4980, 25389.00
984.6120, 25139.00
985.7260, 24950.00
986.8390, 24967.00
987.9520, 24819.00
989.0650, 24643.00
990.1780, 24462.53
991.2910, 23947.00
992.4030, 24000.00
993.5160, 23778.00
994.6280, 23629.00
995.7400, 24002.00
996.8520, 23856.00
997.9640, 23387.00
999.0750, 23811.00
1000.187, 23351.15
1001.298, 23359.00
1002.409, 23000.00
1003.520, 22755.00
1004.631, 22837.00
1005.741, 22999.00
1006.852, 22632.67
1007.962, 22787.05
1009.072, 22879.15
1010.182, 22912.33
1011.292, 22710.08
1012.402, 22811.83
1013.511, 22791.74
1014.621, 22766.67
1015.730, 22636.00
1016.839, 22706.00
1017.948, 22691.00
1019.056, 22640.34
1020.165, 22778.00
1021.273, 22633.00
1022.382, 22744.00
1023.490, 22772.00
1024.598, 22729.58
1025.706, 22772.85
1026.813, 22731.00
1027.921, 22764.00
1029.028, 22802.00
1030.135, 22819.00
1031.242, 23012.00
1032.349, 23052.00
1033.456, 23141.00
1034.562, 23213.00
1035.668, 23404.00
1036.775, 23407.00
1037.881, 23754.00
1038.987, 23606.00
1040.092, 23896.00
1041.198, 23984.00
1042.303, 24004.00
1043.408, 24129.00
1044.514, 24123.00
1045.618, 24212.00
1046.723, 24242.57
1047.828, 24301.02
1048.932, 24259.00
1050.037, 24380.00
1051.141, 24317.00
1052.245, 24238.00
1053.349, 24317.07
1054.452, 24506.61
1055.556, 24633.92
1056.659, 24702.26
1057.762, 24535.17
1058.865, 24672.09
1059.968, 24687.18
1061.071, 24697.27
1062.174, 24876.97
1063.276, 24744.08
1064.378, 24921.06
1065.480, 24974.33
1066.582, 25084.23
1067.684, 25071.53
1068.786, 25096.70
1069.887, 25244.45
1070.988, 25324.31
1072.090, 25297.50
1073.191, 25410.95
1074.291, 25363.00
1075.392, 24948.00
1076.493, 24971.00
1077.593, 24914.00
1078.693, 24963.00
1079.793, 25037.00
1080.893, 24894.00
1081.993, 24787.00
1083.092, 24560.00
1084.192, 24802.00
1085.291, 24772.00
1086.390, 24672.00
1087.489, 24703.00
1088.588, 24875.00
1089.686, 24673.83
1090.785, 24791.22
1091.883, 24846.37
1092.981, 24842.58
1094.079, 24603.37
1095.177, 24668.16
1096.275, 24611.12
1097.373, 24549.08
1098.470, 24656.69
1099.567, 24451.74
1100.664, 24556.65
1101.761, 24537.87
1102.858, 24575.70
1103.954, 24490.97
1105.051, 24444.08
1106.147, 24519.84
1107.243, 24527.70
1108.339, 24428.86
1109.435, 24470.31
1110.531, 24261.10
1111.626, 24141.60
1112.722, 24186.18
1113.817, 24168.59
1114.912, 24092.07
1116.007, 23780.13
1117.101, 23772.27
1118.196, 23642.49
1119.290, 23507.81
1120.385, 23542.65
1121.479, 23265.04
1122.573, 23297.28
1123.666, 23205.92
1124.760, 23171.09
1125.853, 23013.75
1126.947, 22894.20
1128.040, 22897.35
1129.133, 22832.61
1130.226, 22661.17
1131.318, 22630.11
1132.411, 22348.30
1133.503, 22286.54
1134.596, 22258.00
1135.688, 22214.00
1136.780, 22251.00
1137.871, 22304.00
1138.963, 22124.00
1140.054, 21777.00
1141.146, 20786.00
1142.237, 20456.00
1143.328, 20466.00
1144.419, 20379.00
1145.509, 20301.00
1146.600, 20202.00
1147.690, 20021.43
1148.780, 19813.00
1149.870, 19637.00
1150.960, 19321.00
1152.050, 19145.00
1153.139, 18931.00
1154.229, 18761.00
1155.318, 18588.00
1156.407, 18259.00
1157.496, 18223.00
1158.585, 18073.00
1159.674, 17604.00
1160.762, 17641.00
1161.850, 17472.00
1162.939, 17422.00
1164.027, 17197.00
1165.114, 17217.00
1166.202, 17149.00
1167.290, 17074.52
1168.377, 16970.00
1169.464, 17038.00
1170.551, 16984.00
1171.638, 17046.00
1172.725, 17045.00
1173.812, 17036.81
1174.898, 16978.00
1175.984, 17013.00
1177.071, 16935.00
1178.157, 16873.00
1179.242, 16930.00
1180.328, 16837.00
1181.414, 16784.00
1182.499, 16962.00
1183.584, 16923.00
1184.669, 16907.00
1185.754, 16936.28
1186.839, 16935.00
1187.924, 16905.00
1189.008, 16840.00
1190.092, 16865.00
1191.177, 16830.00
1192.260, 16825.00
1193.344, 16847.63
1194.428, 16745.00
1195.512, 16858.00
1196.595, 16852.00
1197.678, 16787.00
1198.761, 16885.00
1199.844, 16644.00
1200.927, 16630.00
1202.009, 16925.00
1203.092, 16918.00
1204.174, 16730.00
1205.256, 16851.00
1206.338, 16773.00
1207.420, 16690.00
1208.502, 16875.00
1209.583, 16750.00
1210.665, 17078.00
1211.746, 16848.00
1212.827, 16977.00
1213.908, 16801.00
1214.988, 16816.72
1216.069, 17060.00
1217.149, 16734.00
1218.230, 16915.00
1219.310, 16676.00
1220.390, 16769.00
1221.470, 16901.00
1222.549, 16751.00
1223.629, 16950.00
1224.708, 16793.00
1225.787, 16869.00
1226.866, 16937.00
1227.945, 16672.00
1229.024, 16874.00
1230.103, 16728.00
1231.181, 16918.00
1232.259, 16771.00
1233.337, 16842.00
1234.415, 16764.00
1235.493, 16805.00
1236.571, 16806.00
1237.648, 16559.00
1238.726, 16704.00
1239.803, 16774.00
1240.880, 16735.00
1241.957, 16491.00
1243.034, 16636.00
1244.110, 16611.00
1245.187, 16679.00
1246.263, 16704.00
1247.339, 16647.00
1248.415, 16560.00
1249.491, 16573.77
1250.566, 16523.42
1251.642, 16522.00
1252.717, 16465.00
1253.793, 16392.00
1254.868, 16312.00
1255.943, 16272.81
1257.017, 16359.00
1258.092, 16210.00
1259.166, 16386.00
1260.241, 16422.00
1261.315, 16523.00
1262.389, 16547.36
1263.462, 16310.00
1264.536, 16522.00
1265.610, 16394.00
1266.683, 16315.00
1267.756, 16335.00
1268.829, 16218.00
1269.902, 16299.00
1270.975, 16263.11
1272.048, 16262.22
1273.120, 16297.00
1274.192, 16287.00
1275.264, 16367.00
1276.336, 16389.00
1277.408, 16478.00
1278.480, 16521.00
1279.551, 16463.09
1280.623, 16488.00
1281.694, 16340.00
1282.765, 16236.00
1283.836, 16213.00
1284.907, 16182.04
1285.977, 16272.00
1287.048, 16276.00
1288.118, 16157.00
1289.188, 16295.00
1290.258, 16392.00
1291.328, 16217.00
1292.398, 16171.00
1293.467, 16205.00
1294.537, 16127.00
1295.606, 16157.60
1296.675, 16053.00
1297.744, 16175.00
1298.813, 16143.00
1299.882, 16118.99
1300.950, 16142.00
1302.018, 16088.00
1303.086, 16161.00
1304.155, 16138.89
1305.222, 16249.00
1306.290, 16110.00
1307.358, 16235.00
1308.425, 16155.00
1309.492, 16158.00
1310.559, 16040.00
1311.626, 16298.00
1312.693, 16256.00
1313.760, 16291.00
1314.826, 16051.00
1315.893, 16066.00
1316.959, 16238.00
1318.025, 16162.00
1319.091, 16176.00
1320.157, 16265.00
1321.222, 16321.00
1322.288, 16098.00
1323.353, 16096.00
1324.418, 16113.08
1325.483, 16330.00
1326.548, 16193.00
1327.612, 16125.00
1328.677, 16172.00
1329.741, 16089.00
1330.806, 16061.00
1331.870, 16199.00
1332.934, 16190.00
1333.997, 16025.00
1335.061, 15978.00
1336.124, 16068.00
1337.188, 16133.00
1338.251, 16159.00
1339.314, 16126.72
1340.377, 16109.00
1341.439, 16051.00
1342.502, 16002.00
1343.564, 16092.00
1344.627, 16168.00
1345.689, 16115.00
1346.751, 16243.00
1347.813, 15970.28
1348.874, 16108.31
1349.936, 16184.06
1350.997, 16200.89
1352.058, 15982.29
1353.119, 16067.69
1354.180, 16031.27
1355.241, 15989.84
1356.301, 16118.04
1357.362, 15933.68
1358.422, 16059.19
1359.482, 16061.00
1360.542, 16119.43
1361.602, 16055.27
1362.662, 16028.98
1363.721, 16125.31
1364.781, 16133.00
1365.840, 16062.00
1366.899, 15955.00
1367.958, 16036.00
1369.017, 15920.00
1370.075, 15974.00
1371.134, 16133.00
1372.192, 16016.00
1373.250, 16101.00
1374.308, 16122.00
1375.366, 16132.67
1376.424, 16025.00
1377.481, 16157.00
1378.539, 16022.28
1379.596, 16173.88
1380.653, 16263.20
1381.710, 16293.60
1382.767, 16088.57
1383.824, 16187.54
1384.880, 16164.67
1385.937, 16136.82
1386.993, 16278.57
1388.049, 16107.77
1389.105, 16246.84
1390.161, 16262.21
1391.216, 16334.18
1392.272, 16283.58
1393.327, 16270.83
1394.382, 16380.71
1395.437, 16422.69
1396.492, 16291.00
1397.547, 16212.00
1398.601, 16354.00
1399.656, 16125.00
1400.710, 16355.00
1401.764, 16293.00
1402.818, 16408.00
1403.872, 16383.93
1404.925, 16342.00
1405.979, 16228.00
1407.032, 16284.00
1408.085, 16265.09
1409.139, 16245.00
1410.191, 16320.00
1411.244, 16377.00
1412.297, 16387.00
1413.349, 16418.00
1414.402, 16336.00
1415.454, 16377.00
1416.506, 16384.00
1417.558, 16450.00
1418.609, 16424.26
1419.661, 16482.80
1420.712, 16395.00
1421.764, 16533.00
1422.815, 16552.00
1423.866, 16497.00
1424.916, 16446.00
1425.967, 16350.00
1427.018, 16235.00
1428.068, 16283.03
1429.118, 16432.00
1430.168, 16341.00
1431.218, 16389.00
1432.268, 16353.00
1433.318, 16557.00
1434.367, 16336.00
1435.416, 16372.00
1436.465, 16554.00
1437.514, 16379.00
1438.563, 16451.00
1439.612, 16437.00
1440.661, 16468.00
1441.709, 16456.57
1442.757, 16360.00
1443.805, 16450.00
1444.853, 16431.00
1445.901, 16513.00
1446.949, 16531.00
1447.996, 16523.00
1449.044, 16538.00
1450.091, 16605.00
1451.138, 16688.00
1452.185, 16650.00
1453.232, 16572.00
1454.278, 16723.00
1455.325, 16522.00
1456.371, 16570.00
1457.417, 16503.00
1458.463, 16491.00
1459.509, 16636.00
1460.555, 16658.00
1461.601, 16549.00
1462.646, 16508.00
1463.691, 16585.00
1464.737, 16520.00
1465.782, 16567.00
1466.826, 16516.00
1467.871, 16537.00
1468.916, 16463.00
1469.960, 16574.00
1471.004, 16498.00
1472.048, 16576.00
1473.092, 16638.00
1474.136, 16624.00
1475.180, 16582.00
1476.223, 16631.00
1477.267, 16640.00
1478.310, 16609.00
1479.353, 16739.00
1480.396, 16633.00
1481.439, 16767.00
1482.481, 16660.00
1483.524, 16707.00
1484.566, 16721.00
1485.608, 16665.00
1486.650, 16550.00
1487.692, 16553.00
1488.734, 16527.00
1489.775, 16491.94
1490.817, 16513.63
1491.858, 16476.00
1492.899, 16581.00
1493.940, 16597.00
1494.981, 16712.00
1496.022, 16666.00
1497.062, 16512.00
1498.103, 16699.00
1499.143, 16637.00
1500.183, 16597.60
1501.223, 16680.00
1502.263, 16639.05
1503.302, 16770.00
1504.342, 16687.00
1505.381, 16751.00
1506.420, 16833.00
1507.459, 16786.00
1508.498, 16774.00
1509.537, 16718.71
1510.576, 16650.00
1511.614, 16595.00
1512.652, 16649.00
1513.691, 16704.00
1514.729, 16665.00
1515.767, 16751.00
1516.804, 16653.00
1517.842, 16913.00
1518.879, 16639.00
1519.917, 16692.00
1520.954, 16787.00
1521.991, 16660.97
1523.028, 16765.00
1524.064, 16667.00
1525.101, 16592.00
1526.137, 16707.00
1527.173, 16538.00
1528.210, 16782.00
1529.245, 16716.05
1530.281, 16769.37
1531.317, 16722.00
1532.352, 16820.00
1533.388, 16821.00
1534.423, 16727.00
1535.458, 16645.00
1536.493, 16843.00
1537.528, 16803.00
1538.562, 16719.48
1539.597, 16861.15
1540.631, 16940.55
1541.665, 16961.01
1542.700, 16746.05
1543.733, 16835.10
1544.767, 16802.31
1545.801, 16764.53
1546.834, 16896.36
1547.868, 16715.64
1548.901, 16844.79
1549.934, 16850.24
1550.967, 16912.30
1551.999, 16851.78
1553.032, 16829.12
1554.064, 16929.08
1555.097, 16961.15
1556.129, 16886.52
1557.161, 16952.18
1558.193, 16767.18
1559.224, 16802.14
1560.256, 16932.00
1561.287, 16863.53
1562.318, 16931.44
1563.350, 16947.40
1564.380, 16727.33
1565.411, 16894.00
1566.442, 16839.00
1567.472, 16946.00
1568.503, 16818.00
1569.533, 16993.00
1570.563, 16864.00
##END=



