##NAMES=Arfvedsonite
##RRUFFID=R040127
##IDEAL CHEMISTRY=NaNa_2_(Fe^2+^_4_Fe^3+^)Si_8_O_22_(OH)_2_
##LOCALITY=Mont Saint-Hilaire, Rouville County, Quebec, Canada
##OWNER=RRUFF
##SOURCE=Bob Downs
##DESCRIPTION=Black prismatic crystal associated with white analcime, R040128
##STATUS=The identification of this mineral has been confirmed by X-ray diffraction and chemical analysis
##URL=rruff.info/R040127
##MEASURED CHEMISTRY=(Na_0.61_K_0.39_)Na_2.00_(Fe^2+^_2.40_Mg_0.80_Mn_0.75_Ca_0.05_)_&#931;=4_(Fe^3+^_0.60_Al_0.25_Mn_0.15_)(Si_0.99_Ti_0.01_)_8_O_22_((OH)_0.67_F_0.33_)_2_
##PIN_ID=M00386
##ORIENTATION=Laser parallel to -c* (0 0 -1). Fiducial mark perpendicular to laser is parallel to -a [-1 0 0]
125.1230, 33585.00
126.3600, 33827.00
127.5960, 34288.00
128.8330, 34805.00
130.0700, 35026.00
131.3060, 35293.00
132.5420, 35293.00
133.7780, 35660.00
135.0140, 36265.00
136.2500, 37633.00
137.4850, 39053.00
138.7200, 39962.00
139.9550, 39625.00
141.1900, 38747.00
142.4250, 37898.00
143.6600, 37440.00
144.8940, 36814.00
146.1280, 36254.00
147.3620, 36188.00
148.5960, 35825.00
149.8300, 36127.00
151.0630, 36742.00
152.2960, 36446.00
153.5300, 36787.00
154.7620, 36985.00
155.9950, 37054.00
157.2280, 37008.00
158.4600, 37362.00
159.6920, 37825.00
160.9250, 38337.00
162.1560, 38582.34
163.3880, 38850.32
164.6200, 38997.00
165.8510, 39030.00
167.0820, 38939.00
168.3130, 38841.19
169.5440, 38770.00
170.7750, 38358.89
172.0050, 38038.65
173.2350, 37603.00
174.4650, 37416.00
175.6950, 37080.00
176.9250, 37371.00
178.1550, 37399.00
179.3840, 37977.00
180.6130, 37545.00
181.8420, 37747.00
183.0710, 38047.00
184.3000, 38584.00
185.5280, 39018.00
186.7570, 39433.00
187.9850, 39959.45
189.2130, 40326.00
190.4400, 40990.00
191.6680, 41542.00
192.8960, 42141.00
194.1230, 42408.00
195.3500, 42953.00
196.5770, 42809.00
197.8030, 42582.00
199.0300, 43073.00
200.2560, 43033.00
201.4830, 43112.00
202.7090, 42257.00
203.9340, 41312.62
205.1600, 41168.00
206.3860, 38833.00
207.6110, 38284.00
208.8360, 37714.00
210.0610, 37211.00
211.2860, 37115.00
212.5100, 36832.00
213.7350, 36671.00
214.9590, 36336.00
216.1830, 36227.00
217.4070, 35873.00
218.6310, 35664.00
219.8540, 35591.00
221.0780, 35586.00
222.3010, 35438.34
223.5240, 35103.00
224.7470, 35194.00
225.9690, 35173.00
227.1920, 34904.00
228.4140, 35072.00
229.6360, 35047.00
230.8580, 34889.00
232.0800, 34829.00
233.3020, 35075.00
234.5230, 34892.00
235.7440, 34972.00
236.9650, 34708.00
238.1860, 35006.00
239.4070, 34896.00
240.6280, 34870.00
241.8480, 34722.00
243.0680, 34781.00
244.2880, 34633.00
245.5080, 34668.00
246.7280, 34809.00
247.9470, 34798.00
249.1660, 34857.00
250.3860, 34749.00
251.6040, 34297.91
252.8230, 34636.63
254.0420, 34832.52
255.2600, 34893.24
256.4790, 34414.02
257.6970, 34632.02
258.9150, 34570.61
260.1320, 34497.72
261.3500, 34813.86
262.5670, 34413.15
263.7840, 34723.11
265.0010, 34749.38
266.2180, 34547.00
267.4350, 34598.00
268.6510, 34599.00
269.8680, 34855.00
271.0840, 35275.00
272.3000, 34870.00
273.5160, 34533.00
274.7310, 34886.00
275.9470, 34659.00
277.1620, 34836.00
278.3770, 34904.00
279.5920, 34804.00
280.8070, 34724.00
282.0210, 34808.00
283.2360, 34940.00
284.4500, 34707.00
285.6640, 35077.00
286.8780, 35074.00
288.0920, 35312.00
289.3050, 35317.00
290.5180, 35479.00
291.7320, 35509.00
292.9450, 35635.00
294.1570, 35994.00
295.3700, 35849.00
296.5830, 36212.00
297.7950, 36102.00
299.0070, 36369.00
300.2190, 36773.00
301.4310, 37104.00
302.6420, 37472.00
303.8540, 37655.60
305.0650, 37830.00
306.2760, 37956.00
307.4870, 38210.00
308.6980, 38351.00
309.9080, 38753.00
311.1190, 39035.00
312.3290, 39059.00
313.5390, 39436.00
314.7490, 39641.00
315.9580, 39607.00
317.1680, 39727.00
318.3770, 39593.00
319.5860, 39409.00
320.7950, 39018.00
322.0040, 38982.00
323.2130, 38647.00
324.4210, 38732.00
325.6290, 38411.00
326.8380, 38413.00
328.0460, 38103.00
329.2530, 38082.00
330.4610, 37802.00
331.6680, 37681.00
332.8760, 37421.00
334.0830, 37327.00
335.2890, 37331.00
336.4960, 37421.00
337.7030, 37593.00
338.9090, 37456.00
340.1150, 37836.00
341.3210, 37546.00
342.5270, 37765.00
343.7330, 37926.00
344.9380, 38151.00
346.1440, 38178.00
347.3490, 38205.00
348.5540, 38383.57
349.7590, 38425.00
350.9630, 38576.00
352.1680, 38590.00
353.3720, 38524.00
354.5760, 38828.00
355.7800, 38845.00
356.9840, 38892.00
358.1870, 38660.00
359.3910, 38629.00
360.5940, 38633.00
361.7970, 38729.00
363.0000, 38501.00
364.2030, 38600.00
365.4050, 38553.00
366.6080, 38518.00
367.8100, 38547.00
369.0120, 38740.00
370.2140, 38567.00
371.4150, 38735.00
372.6170, 38543.00
373.8180, 38585.00
375.0190, 38296.00
376.2200, 38224.00
377.4210, 38386.00
378.6220, 38306.00
379.8220, 38554.00
381.0230, 38376.00
382.2230, 38664.00
383.4230, 38566.60
384.6220, 38426.00
385.8220, 38585.00
387.0220, 38237.00
388.2210, 38504.00
389.4200, 38379.00
390.6190, 38335.00
391.8180, 38501.00
393.0160, 38480.00
394.2150, 38696.00
395.4130, 38505.00
396.6110, 38601.00
397.8090, 38409.00
399.0060, 38340.24
400.2040, 38534.00
401.4010, 38165.00
402.5980, 38307.00
403.7950, 38295.00
404.9920, 38283.00
406.1890, 38321.00
407.3860, 38420.91
408.5820, 38576.33
409.7780, 38677.00
410.9740, 38815.00
412.1700, 38924.00
413.3650, 38647.00
414.5610, 38611.00
415.7560, 38681.00
416.9510, 38475.00
418.1460, 38749.00
419.3410, 38857.00
420.5360, 38758.00
421.7300, 38803.27
422.9240, 38759.00
424.1180, 38540.00
425.3120, 38627.00
426.5060, 38352.00
427.7000, 38200.00
428.8930, 38009.00
430.0860, 38197.00
431.2790, 38014.91
432.4720, 38023.00
433.6650, 37935.00
434.8580, 37729.00
436.0500, 37735.00
437.2420, 37671.34
438.4340, 37590.00
439.6260, 37619.00
440.8180, 37451.00
442.0090, 37327.00
443.2010, 37332.00
444.3920, 37357.00
445.5830, 37142.00
446.7740, 37307.00
447.9640, 37207.00
449.1550, 37088.00
450.3450, 37145.00
451.5350, 36995.00
452.7250, 37241.00
453.9150, 36760.00
455.1050, 37072.00
456.2940, 37466.00
457.4830, 37238.00
458.6720, 37194.00
459.8610, 37117.00
461.0500, 37438.00
462.2390, 37284.00
463.4270, 37559.00
464.6150, 37772.00
465.8040, 37190.00
466.9910, 37850.00
468.1790, 37643.79
469.3670, 37485.00
470.5540, 37717.00
471.7410, 37453.00
472.9280, 37467.00
474.1150, 37720.00
475.3020, 37478.00
476.4890, 37775.00
477.6750, 37833.00
478.8610, 37430.00
480.0470, 37847.00
481.2330, 38027.00
482.4190, 37861.00
483.6040, 38247.00
484.7900, 38189.00
485.9750, 38017.00
487.1600, 38620.00
488.3450, 38556.00
489.5290, 38581.00
490.7140, 38667.00
491.8980, 38783.00
493.0820, 38966.00
494.2660, 38972.00
495.4500, 39144.00
496.6340, 39088.00
497.8170, 39295.00
499.0010, 39109.00
500.1840, 39513.00
501.3670, 39660.00
502.5500, 40019.00
503.7320, 39942.00
504.9150, 40170.00
506.0970, 40298.00
507.2790, 40300.00
508.4610, 40739.00
509.6430, 40753.00
510.8250, 40991.00
512.0060, 41235.11
513.1870, 41103.00
514.3680, 41668.00
515.5490, 41600.00
516.7300, 41801.00
517.9110, 42029.00
519.0910, 42249.59
520.2710, 42856.00
521.4510, 42919.00
522.6310, 43657.00
523.8110, 44078.00
524.9910, 44608.23
526.1700, 45735.00
527.3490, 45751.00
528.5280, 46565.00
529.7070, 46981.00
530.8860, 47326.00
532.0650, 47665.00
533.2430, 47617.00
534.4210, 47687.00
535.5990, 47725.00
536.7770, 48072.00
537.9550, 47641.00
539.1320, 47594.00
540.3100, 47076.00
541.4870, 47295.00
542.6640, 46723.00
543.8410, 46318.00
545.0170, 45700.00
546.1940, 45670.00
547.3700, 45352.00
548.5470, 45240.00
549.7230, 44736.00
550.8980, 44484.00
552.0740, 44280.00
553.2500, 44247.00
554.4250, 44069.00
555.6000, 43964.00
556.7750, 43996.61
557.9500, 43939.25
559.1250, 43911.00
560.2990, 43993.00
561.4730, 43608.00
562.6480, 43613.00
563.8220, 43736.00
564.9950, 43763.00
566.1690, 43881.00
567.3430, 43858.00
568.5160, 43956.00
569.6890, 44023.40
570.8620, 44148.00
572.0350, 44084.00
573.2070, 43973.00
574.3800, 43789.00
575.5520, 43370.00
576.7240, 43127.00
577.8960, 42700.00
579.0680, 42457.00
580.2400, 42003.00
581.4110, 41744.00
582.5830, 41343.00
583.7540, 41148.00
584.9250, 41020.00
586.0950, 40644.00
587.2660, 40378.00
588.4370, 40079.00
589.6070, 39944.78
590.7770, 39806.73
591.9470, 39832.00
593.1170, 39731.00
594.2860, 39831.00
595.4560, 39935.00
596.6250, 39788.00
597.7940, 39431.00
598.9630, 39173.00
600.1320, 39369.00
601.3000, 39190.07
602.4690, 39240.00
603.6370, 39338.00
604.8050, 39000.00
605.9730, 39222.00
607.1410, 39108.00
608.3090, 39075.00
609.4760, 39283.00
610.6430, 38944.00
611.8100, 39039.00
612.9770, 39025.83
614.1440, 38847.40
615.3110, 39062.00
616.4770, 38626.00
617.6430, 38657.00
618.8090, 38548.00
619.9750, 38689.00
621.1410, 38455.00
622.3070, 38562.00
623.4720, 38541.00
624.6370, 38520.00
625.8020, 38836.00
626.9670, 38495.00
628.1320, 38241.00
629.2970, 38782.00
630.4610, 38691.00
631.6250, 38623.00
632.7890, 38912.00
633.9530, 39069.00
635.1170, 39067.00
636.2810, 38709.00
637.4440, 38751.00
638.6070, 38976.00
639.7700, 39000.00
640.9330, 39072.00
642.0960, 38990.00
643.2590, 39082.00
644.4210, 39134.00
645.5830, 39074.00
646.7450, 39157.00
647.9070, 39111.00
649.0690, 39655.00
650.2310, 39553.00
651.3920, 39852.00
652.5530, 40394.00
653.7140, 40061.00
654.8750, 40294.00
656.0360, 40453.00
657.1970, 40760.00
658.3570, 41298.00
659.5170, 41395.00
660.6770, 42159.00
661.8370, 42936.00
662.9970, 43544.00
664.1570, 44521.00
665.3160, 45017.00
666.4750, 46083.00
667.6340, 47297.00
668.7930, 48449.00
669.9520, 49354.00
671.1110, 50261.00
672.2690, 51343.00
673.4270, 51897.00
674.5850, 51848.00
675.7430, 51289.00
676.9010, 50618.00
678.0590, 49496.00
679.2160, 48445.00
680.3730, 46648.00
681.5300, 45723.00
682.6870, 44456.00
683.8440, 43805.00
685.0010, 43296.00
686.1570, 42580.00
687.3130, 42086.00
688.4690, 41827.00
689.6250, 41374.00
690.7810, 41299.00
691.9370, 41031.00
693.0920, 40812.00
694.2470, 41011.00
695.4020, 40575.00
696.5570, 40466.00
697.7120, 40796.00
698.8670, 40619.00
700.0210, 40730.00
701.1750, 40588.00
702.3290, 41018.00
703.4830, 40712.00
704.6370, 40939.00
705.7910, 40800.00
706.9440, 40620.00
708.0970, 40778.98
709.2510, 40698.15
710.4030, 40872.00
711.5560, 40710.00
712.7090, 40682.00
713.8610, 40521.00
715.0140, 40624.00
716.1660, 40385.00
717.3180, 40512.00
718.4690, 40263.00
719.6210, 40358.00
720.7730, 40235.00
721.9240, 40020.00
723.0750, 40237.00
724.2260, 40226.00
725.3770, 39979.00
726.5270, 39979.00
727.6780, 40201.00
728.8280, 40071.00
729.9780, 40154.00
731.1280, 40271.00
732.2780, 39841.00
733.4280, 39909.00
734.5770, 39909.00
735.7260, 39735.00
736.8760, 39890.00
738.0250, 40035.00
739.1730, 39715.00
740.3220, 39657.00
741.4700, 39926.00
742.6190, 39761.01
743.7670, 40042.00
744.9150, 39871.00
746.0630, 39714.00
747.2100, 39861.00
748.3580, 39843.00
749.5050, 39514.00
750.6520, 40081.00
751.7990, 39827.00
752.9460, 39723.00
754.0930, 39933.00
755.2390, 39745.00
756.3860, 39999.00
757.5320, 39840.00
758.6780, 40190.00
759.8240, 39872.00
760.9690, 40025.00
762.1150, 39720.00
763.2600, 39787.00
764.4060, 40491.00
765.5510, 40012.00
766.6950, 40121.00
767.8400, 39952.00
768.9850, 40859.00
770.1290, 40462.67
771.2730, 40771.00
772.4170, 40244.00
773.5610, 40142.00
774.7050, 40078.00
775.8480, 39853.00
776.9920, 40010.00
778.1350, 40464.00
779.2780, 40326.00
780.4210, 40638.00
781.5640, 40259.00
782.7060, 40422.00
783.8490, 40086.00
784.9910, 40228.00
786.1330, 39965.00
787.2750, 40341.00
788.4170, 40155.00
789.5580, 40175.00
790.7000, 40223.00
791.8410, 40271.00
792.9820, 40073.00
794.1230, 40069.00
795.2640, 40028.42
796.4040, 39997.00
797.5450, 40049.00
798.6850, 40060.00
799.8250, 39999.18
800.9650, 40036.00
802.1050, 39945.00
803.2450, 39866.00
804.3840, 39989.00
805.5230, 39849.00
806.6630, 40316.00
807.8020, 40018.00
808.9400, 40005.00
810.0790, 39797.00
811.2170, 39689.00
812.3560, 39711.00
813.4940, 39348.00
814.6320, 39352.00
815.7700, 39472.00
816.9070, 39509.00
818.0450, 39711.00
819.1820, 39430.00
820.3190, 39784.00
821.4560, 39534.00
822.5930, 39856.00
823.7300, 39626.00
824.8670, 39597.00
826.0030, 39428.00
827.1390, 39681.00
828.2750, 39653.00
829.4110, 39552.00
830.5470, 40006.00
831.6820, 39991.00
832.8180, 39649.00
833.9530, 39714.00
835.0880, 40128.00
836.2230, 40389.00
837.3580, 40141.00
838.4920, 39755.00
839.6270, 39963.00
840.7610, 39976.00
841.8950, 40013.46
843.0290, 39849.00
844.1630, 39971.33
845.2960, 40016.00
846.4300, 40139.00
847.5630, 40135.00
848.6960, 40287.00
849.8290, 40294.80
850.9620, 40205.00
852.0940, 40332.00
853.2270, 40304.00
854.3590, 40292.00
855.4910, 40386.00
856.6230, 40461.00
857.7550, 41026.00
858.8870, 40887.95
860.0180, 40984.46
861.1500, 40911.00
862.2810, 40944.00
863.4120, 40964.00
864.5430, 41119.00
865.6730, 41228.00
866.8040, 41318.00
867.9340, 41185.00
869.0640, 41154.00
870.1940, 41411.00
871.3240, 41794.00
872.4540, 41885.00
873.5830, 41733.00
874.7130, 42115.00
875.8420, 42165.00
876.9710, 42422.00
878.1000, 42368.00
879.2290, 42394.00
880.3570, 42790.00
881.4860, 42626.00
882.6140, 43086.00
883.7420, 42887.00
884.8700, 43258.00
885.9980, 42998.00
887.1250, 43276.00
888.2530, 43392.00
889.3800, 43523.00
890.5070, 43691.00
891.6340, 43883.00
892.7610, 43667.00
893.8880, 43790.00
895.0140, 43913.00
896.1400, 44011.00
897.2670, 44000.00
898.3930, 44063.00
899.5180, 44287.00
900.6440, 44523.00
901.7700, 44533.43
902.8950, 44488.00
904.0200, 44614.00
905.1450, 44608.00
906.2700, 44639.00
907.3950, 44395.00
908.5190, 44250.00
909.6440, 44414.00
910.7680, 44593.00
911.8920, 44637.00
913.0160, 44920.00
914.1400, 44738.00
915.2630, 44798.00
916.3870, 45145.00
917.5100, 44736.00
918.6330, 44659.00
919.7560, 44209.00
920.8790, 44411.00
922.0010, 44275.00
923.1240, 44272.09
924.2460, 44479.00
925.3680, 44333.00
926.4900, 44524.00
927.6120, 44424.00
928.7340, 44433.15
929.8550, 44484.30
930.9760, 44411.00
932.0980, 44474.00
933.2190, 44461.00
934.3390, 44373.00
935.4600, 44424.00
936.5810, 44416.00
937.7010, 44417.00
938.8210, 44825.00
939.9410, 45178.00
941.0610, 45097.00
942.1810, 45223.00
943.3010, 45186.00
944.4200, 45268.00
945.5390, 45480.00
946.6580, 45255.00
947.7770, 45704.00
948.8960, 45979.00
950.0150, 46028.00
951.1330, 45875.00
952.2510, 46441.00
953.3690, 46465.00
954.4870, 46676.00
955.6050, 46754.00
956.7230, 47213.00
957.8400, 47448.00
958.9580, 47572.00
960.0750, 47700.00
961.1920, 48251.00
962.3090, 48546.00
963.4250, 48877.00
964.5420, 49117.00
965.6580, 49727.00
966.7740, 49956.00
967.8900, 50854.00
969.0060, 51236.00
970.1220, 51363.00
971.2380, 51648.00
972.3530, 51740.00
973.4680, 51892.00
974.5830, 52088.00
975.6980, 52323.00
976.8130, 52122.00
977.9280, 52212.00
979.0420, 51783.00
980.1560, 52053.00
981.2710, 51665.00
982.3850, 51311.00
983.4980, 50748.00
984.6120, 50638.00
985.7260, 50035.00
986.8390, 49728.00
987.9520, 49145.00
989.0650, 48836.26
990.1780, 48807.00
991.2910, 48251.00
992.4030, 47919.00
993.5160, 47709.41
994.6280, 48012.00
995.7400, 47323.00
996.8520, 47686.00
997.9640, 47311.00
999.0750, 47423.00
1000.187, 47039.00
1001.298, 47034.00
1002.409, 47044.00
1003.520, 46910.21
1004.631, 46863.00
1005.741, 46830.00
1006.852, 47025.00
1007.962, 46909.00
1009.072, 46710.00
1010.182, 46968.00
1011.292, 46872.00
1012.402, 46751.00
1013.511, 46735.00
1014.621, 46726.00
1015.730, 46378.00
1016.839, 46465.00
1017.948, 46491.00
1019.056, 46699.00
1020.165, 46782.00
1021.273, 46780.00
1022.382, 46543.00
1023.490, 47072.00
1024.598, 47116.00
1025.706, 47260.00
1026.813, 46906.00
1027.921, 46575.00
1029.028, 46852.00
1030.135, 46785.00
1031.242, 46822.00
1032.349, 47076.00
1033.456, 47510.00
1034.562, 47405.00
1035.668, 47273.00
1036.775, 47568.00
1037.881, 47225.00
1038.987, 47665.00
1040.092, 47809.00
1041.198, 47860.00
1042.303, 47645.00
1043.408, 47740.00
1044.514, 48001.00
1045.618, 47868.00
1046.723, 48023.00
1047.828, 48135.00
1048.932, 48192.00
1050.037, 48306.93
1051.141, 48362.60
1052.245, 48440.00
1053.349, 48424.00
1054.452, 48422.00
1055.556, 48328.00
1056.659, 48217.00
1057.762, 48757.00
1058.865, 48373.00
1059.968, 48702.00
1061.071, 48638.00
1062.174, 48557.00
1063.276, 49256.00
1064.378, 49252.00
1065.480, 49167.00
1066.582, 49077.00
1067.684, 49057.00
1068.786, 49080.00
1069.887, 49428.00
1070.988, 49519.00
1072.090, 49392.00
1073.191, 49240.00
1074.291, 49152.00
1075.392, 49275.00
1076.493, 49413.00
1077.593, 49332.00
1078.693, 49099.00
1079.793, 49198.00
1080.893, 48894.00
1081.993, 49088.12
1083.092, 48989.09
1084.192, 49405.00
1085.291, 48996.00
1086.390, 49066.00
1087.489, 49191.00
1088.588, 49167.00
1089.686, 49352.00
1090.785, 49420.00
1091.883, 49459.00
1092.981, 49452.00
1094.079, 49660.00
1095.177, 49780.00
1096.275, 49639.00
1097.373, 49621.00
1098.470, 49852.00
1099.567, 49663.00
1100.664, 49763.00
1101.761, 49594.00
1102.858, 49679.00
1103.954, 49699.00
1105.051, 49592.00
1106.147, 49704.00
1107.243, 49349.00
1108.339, 49258.00
1109.435, 49028.00
1110.531, 48967.92
1111.626, 49021.00
1112.722, 49038.00
1113.817, 48995.00
1114.912, 49262.00
1116.007, 48929.00
1117.101, 49159.00
1118.196, 49230.00
1119.290, 48909.00
1120.385, 48755.00
1121.479, 48721.00
1122.573, 48743.00
1123.666, 48495.00
1124.760, 48358.00
1125.853, 48461.00
1126.947, 48449.00
1128.040, 48436.00
1129.133, 48402.00
1130.226, 47903.00
1131.318, 47902.00
1132.411, 47791.00
1133.503, 47627.55
1134.596, 47654.12
1135.688, 47553.00
1136.780, 47572.00
1137.871, 47633.00
1138.963, 47474.00
1140.054, 47314.00
1141.146, 47413.00
1142.237, 47611.00
1143.328, 47250.00
1144.419, 47642.00
1145.509, 47243.00
1146.600, 47248.00
1147.690, 47183.00
1148.780, 46804.00
1149.870, 46949.00
1150.960, 46843.00
1152.050, 46527.00
1153.139, 47049.00
1154.229, 46529.00
1155.318, 46439.00
1156.407, 46038.00
1157.496, 46413.00
1158.585, 46069.00
1159.674, 45856.00
1160.762, 45911.00
1161.850, 45647.00
1162.939, 45903.00
1164.027, 45699.00
1165.114, 45632.00
1166.202, 45865.00
1167.290, 45641.00
1168.377, 45957.00
1169.464, 45700.00
1170.551, 45896.00
1171.638, 45548.00
1172.725, 45589.00
1173.812, 45685.00
1174.898, 45733.00
1175.984, 45743.42
1177.071, 45686.00
1178.157, 45705.00
1179.242, 45590.00
1180.328, 45478.00
1181.414, 45858.00
1182.499, 45761.00
1183.584, 46058.00
1184.669, 45864.00
1185.754, 45682.00
1186.839, 45548.00
1187.924, 45659.00
1189.008, 45689.00
1190.092, 45705.00
1191.177, 45625.00
1192.260, 45881.00
1193.344, 45597.00
1194.428, 45665.00
1195.512, 45838.00
1196.595, 46049.00
1197.678, 45932.00
1198.761, 45933.00
1199.844, 46071.00
1200.927, 45883.00
1202.009, 46005.00
1203.092, 45921.00
1204.174, 45905.00
1205.256, 46002.00
1206.338, 45823.00
1207.420, 46033.00
1208.502, 45726.00
1209.583, 46135.00
1210.665, 46340.00
1211.746, 46404.00
1212.827, 46369.00
1213.908, 46083.00
1214.988, 45789.00
1216.069, 45853.00
1217.149, 46128.00
1218.230, 46131.00
1219.310, 45966.00
1220.390, 46262.00
1221.470, 46057.00
1222.549, 46412.00
1223.629, 46170.00
1224.708, 46243.00
1225.787, 46647.00
1226.866, 46282.00
1227.945, 46204.00
1229.024, 46185.60
1230.103, 46523.43
1231.181, 46718.42
1232.259, 46778.25
1233.337, 46298.13
1234.415, 46515.25
1235.493, 46452.95
1236.571, 46379.18
1237.648, 46694.42
1238.726, 46292.84
1239.803, 46601.91
1240.880, 46627.29
1241.957, 46782.51
1243.034, 46469.00
1244.110, 46535.00
1245.187, 46700.00
1246.263, 46225.00
1247.339, 46513.00
1248.415, 46706.00
1249.491, 46596.00
1250.566, 46756.00
1251.642, 46929.00
1252.717, 46702.00
1253.793, 46593.00
1254.868, 46641.00
1255.943, 46443.00
1257.017, 46517.21
1258.092, 46757.00
1259.166, 46642.00
1260.241, 46797.00
1261.315, 46970.00
1262.389, 47026.00
1263.462, 47102.00
1264.536, 47009.00
1265.610, 47024.62
1266.683, 46791.00
1267.756, 46958.00
1268.829, 46839.00
1269.902, 46862.00
1270.975, 47185.00
1272.048, 47036.00
1273.120, 46686.00
1274.192, 46920.00
1275.264, 46705.19
1276.336, 47051.59
1277.408, 47255.15
1278.480, 47323.57
1279.551, 46852.01
1280.623, 47077.71
1281.694, 47023.97
1282.765, 46958.77
1283.836, 47282.58
1284.907, 46889.56
1285.977, 47207.19
1287.048, 47241.14
1288.118, 47404.92
1289.188, 47287.55
1290.258, 47257.02
1291.328, 47507.72
1292.398, 47602.70
1293.467, 47452.95
1294.537, 47485.00
1295.606, 47353.00
1296.675, 47306.00
1297.744, 47225.00
1298.813, 47511.00
1299.882, 47519.00
1300.950, 47617.00
1302.018, 47784.00
1303.086, 47748.00
1304.155, 48074.00
1305.222, 47791.00
1306.290, 47871.00
1307.358, 47795.00
1308.425, 47618.00
1309.492, 47800.00
1310.559, 47837.00
1311.626, 47668.00
1312.693, 47887.00
1313.760, 47928.00
1314.826, 48143.00
1315.893, 47719.00
1316.959, 48169.00
1318.025, 48081.00
1319.091, 48103.00
1320.157, 48305.00
1321.222, 48392.00
1322.288, 47714.00
1323.353, 48162.00
1324.418, 47979.00
1325.483, 47969.00
1326.548, 48394.00
1327.612, 48452.00
1328.677, 48158.00
1329.741, 48288.00
1330.806, 48658.00
1331.870, 48222.00
1332.934, 48191.00
1333.997, 48570.00
1335.061, 48316.00
1336.124, 48254.00
1337.188, 48300.00
1338.251, 48127.00
1339.314, 48163.00
1340.377, 48513.00
1341.439, 48425.00
1342.502, 48807.00
1343.564, 48770.00
1344.627, 48698.00
1345.689, 48728.00
1346.751, 48644.00
1347.813, 48352.00
1348.874, 48360.00
1349.936, 48478.00
1350.997, 48731.00
1352.058, 48801.00
1353.119, 48583.00
1354.180, 48346.00
1355.241, 48666.00
1356.301, 48775.00
1357.362, 49013.00
1358.422, 48898.00
1359.482, 48940.00
1360.542, 48635.00
1361.602, 48721.00
1362.662, 48910.00
1363.721, 48631.00
1364.781, 48679.00
1365.840, 48718.00
1366.899, 48784.00
1367.958, 48864.00
1369.017, 48953.00
1370.075, 49308.00
1371.134, 49063.00
1372.192, 49123.00
1373.250, 49125.00
1374.308, 48811.00
1375.366, 48888.00
1376.424, 49152.00
1377.481, 48725.00
1378.539, 49250.00
1379.596, 48984.00
1380.653, 49219.00
1381.710, 49155.00
1382.767, 49386.00
1383.824, 49337.00
1384.880, 49586.00
1385.937, 49473.00
1386.993, 49226.00
1388.049, 49183.00
1389.105, 49179.00
1390.161, 49100.00
1391.216, 49209.00
1392.272, 49156.00
1393.327, 49270.00
1394.382, 49595.00
1395.437, 49531.00
1396.492, 49719.00
1397.547, 49582.00
1398.601, 49680.00
1399.656, 49744.00
1400.710, 49519.00
1401.764, 49619.00
1402.818, 49143.00
1403.872, 49513.00
1404.925, 49772.00
1405.979, 49372.00
1407.032, 49681.00
1408.085, 49598.00
1409.139, 49959.00
1410.191, 49755.00
1411.244, 49644.00
1412.297, 49722.00
1413.349, 49489.00
1414.402, 49938.00
1415.454, 49681.00
1416.506, 49325.00
1417.558, 49873.00
1418.609, 49843.00
1419.661, 49723.00
1420.712, 50019.00
1421.764, 50009.00
1422.815, 49950.00
1423.866, 49771.00
1424.916, 49862.23
1425.967, 50167.98
1427.018, 50330.91
1428.068, 50358.70
1429.118, 49846.53
1430.168, 50031.60
1431.218, 49937.25
1432.268, 49831.44
1433.318, 50114.64
1434.367, 50005.00
1435.416, 50178.00
1436.465, 50110.00
1437.514, 50356.00
1438.563, 50352.00
1439.612, 50156.00
1440.661, 50403.00
1441.709, 50029.00
1442.757, 50019.00
1443.805, 50266.00
1444.853, 50003.00
1445.901, 50194.00
1446.949, 50168.00
1447.996, 50129.00
1449.044, 50406.00
1450.091, 50340.00
1451.138, 50532.00
1452.185, 50684.00
1453.232, 50205.00
1454.278, 50069.54
1455.325, 50411.32
1456.371, 50610.28
1457.417, 50674.07
1458.463, 50197.91
1459.509, 50418.99
1460.555, 50360.65
1461.601, 50290.85
1462.646, 50610.05
1463.691, 50212.41
1464.737, 50525.46
1465.782, 50554.80
1466.826, 50713.97
1467.871, 50592.00
1468.916, 50556.88
1469.960, 50802.96
1471.004, 50893.34
1472.048, 50738.99
1473.092, 50906.41
1474.136, 50498.94
1475.180, 50966.00
1476.223, 51051.00
1477.267, 50823.00
1478.310, 51082.00
1479.353, 51115.00
1480.396, 50981.00
1481.439, 50965.00
1482.481, 51032.00
1483.524, 50787.00
1484.566, 50820.00
1485.608, 50842.00
1486.650, 50908.00
1487.692, 51038.00
1488.734, 51035.80
1489.775, 51158.00
1490.817, 51084.00
1491.858, 51133.85
1492.899, 51145.00
1493.940, 51085.00
1494.981, 51201.00
1496.022, 51150.00
1497.062, 51059.00
1498.103, 50899.00
1499.143, 51191.00
1500.183, 51173.00
1501.223, 51118.00
1502.263, 51457.00
1503.302, 51654.00
1504.342, 51766.00
1505.381, 51742.00
1506.420, 52070.00
1507.459, 51659.00
1508.498, 51401.00
1509.537, 51373.00
1510.576, 51347.00
1511.614, 51424.00
1512.652, 51420.38
1513.691, 51473.00
1514.729, 51524.00
1515.767, 51658.00
1516.804, 51777.00
1517.842, 51765.49
1518.879, 51558.00
1519.917, 51813.00
1520.954, 51570.00
1521.991, 51709.00
1523.028, 51471.00
1524.064, 51887.00
1525.101, 51699.00
1526.137, 51641.00
1527.173, 51762.00
1528.210, 52243.00
1529.245, 52115.00
1530.281, 52211.00
1531.317, 52190.00
1532.352, 52122.00
1533.388, 52313.00
1534.423, 51913.00
1535.458, 51978.00
1536.493, 51930.00
1537.528, 52237.00
1538.562, 51940.00
1539.597, 51760.00
1540.631, 52114.00
1541.665, 52196.00
1542.700, 52461.00
1543.733, 52414.00
1544.767, 52363.95
1545.801, 52696.04
1546.834, 52885.30
1547.868, 52939.42
1548.901, 52453.57
1549.934, 52664.96
1550.967, 52596.94
1551.999, 52517.45
1553.032, 52826.97
1554.064, 52419.65
1555.097, 52723.01
1556.129, 52742.67
1557.161, 52892.17
1558.193, 52760.52
1559.224, 52715.71
1560.256, 52952.14
1561.287, 53032.83
1562.318, 52868.82
1563.350, 53026.57
1564.380, 52609.42
1565.411, 52899.00
1566.442, 52856.00
1567.472, 52866.00
1568.503, 52862.00
1569.533, 52932.00
1570.563, 53525.00
##END=



