##NAMES=Arfvedsonite
##RRUFFID=R040127
##IDEAL CHEMISTRY=NaNa_2_(Fe^2+^_4_Fe^3+^)Si_8_O_22_(OH)_2_
##LOCALITY=Mont Saint-Hilaire, Rouville County, Quebec, Canada
##OWNER=RRUFF
##SOURCE=Bob Downs
##DESCRIPTION=Black prismatic crystal associated with white analcime, R040128
##STATUS=The identification of this mineral has been confirmed by X-ray diffraction and chemical analysis
##URL=rruff.info/R040127
##MEASURED CHEMISTRY=(Na_0.61_K_0.39_)Na_2.00_(Fe^2+^_2.40_Mg_0.80_Mn_0.75_Ca_0.05_)_&#931;=4_(Fe^3+^_0.60_Al_0.25_Mn_0.15_)(Si_0.99_Ti_0.01_)_8_O_22_((OH)_0.67_F_0.33_)_2_
##PIN_ID=M00446
##ORIENTATION=Laser parallel to (-1 0 -1). Fiducial mark perpendicular to laser is parallel to -b [0 -1 0]
158.4600, 39585.00
159.6920, 39877.00
160.9250, 40612.00
162.1560, 41078.00
163.3880, 42242.00
164.6200, 42700.00
165.8510, 42982.00
167.0820, 43046.00
168.3130, 43037.85
169.5440, 42476.00
170.7750, 42433.00
172.0050, 41559.00
173.2350, 40692.00
174.4650, 40696.00
175.6950, 40302.00
176.9250, 40374.00
178.1550, 40259.00
179.3840, 40235.00
180.6130, 40143.00
181.8420, 40244.00
183.0710, 40923.00
184.3000, 41126.00
185.5280, 41530.00
186.7570, 42575.00
187.9850, 42920.00
189.2130, 43372.00
190.4400, 44761.00
191.6680, 45010.26
192.8960, 46031.00
194.1230, 46161.00
195.3500, 46600.00
196.5770, 47030.00
197.8030, 47032.00
199.0300, 47745.00
200.2560, 48004.00
201.4830, 48626.00
202.7090, 47950.00
203.9340, 45985.00
205.1600, 43643.00
206.3860, 41903.00
207.6110, 40934.00
208.8360, 40423.00
210.0610, 39993.00
211.2860, 39527.00
212.5100, 39276.00
213.7350, 39245.00
214.9590, 38775.00
216.1830, 38001.00
217.4070, 37945.00
218.6310, 37371.00
219.8540, 37288.00
221.0780, 37168.00
222.3010, 36945.00
223.5240, 36807.84
224.7470, 36642.00
225.9690, 36414.00
227.1920, 36290.00
228.4140, 36181.70
229.6360, 36084.50
230.8580, 36082.00
232.0800, 36013.00
233.3020, 36073.00
234.5230, 36122.00
235.7440, 35951.00
236.9650, 35950.00
238.1860, 35793.00
239.4070, 35865.00
240.6280, 35809.00
241.8480, 35812.00
243.0680, 35824.10
244.2880, 35750.75
245.5080, 35814.00
246.7280, 35651.00
247.9470, 35611.00
249.1660, 35348.07
250.3860, 35654.69
251.6040, 35820.83
252.8230, 35854.02
254.0420, 35356.07
255.2600, 35543.98
256.4790, 35457.02
257.6970, 35358.80
258.9150, 35643.25
260.1320, 35222.57
261.3500, 35500.95
262.5670, 35500.29
263.7840, 35627.34
265.0010, 35477.83
266.2180, 35413.74
267.4350, 35626.30
268.6510, 35685.69
269.8680, 35504.35
271.0840, 35639.53
272.3000, 35209.21
273.5160, 35275.12
274.7310, 35409.00
275.9470, 35436.00
277.1620, 35445.00
278.3770, 35568.00
279.5920, 35536.00
280.8070, 35409.00
282.0210, 35528.80
283.2360, 35462.58
284.4500, 35552.00
285.6640, 35561.00
286.8780, 35614.11
288.0920, 35636.00
289.3050, 35719.00
290.5180, 35914.00
291.7320, 35899.00
292.9450, 35963.00
294.1570, 36229.00
295.3700, 36528.00
296.5830, 36782.00
297.7950, 36894.00
299.0070, 36831.00
300.2190, 37244.00
301.4310, 37418.00
302.6420, 37678.00
303.8540, 37931.00
305.0650, 38393.00
306.2760, 38772.00
307.4870, 39253.00
308.6980, 39373.00
309.9080, 39640.00
311.1190, 40069.00
312.3290, 40366.00
313.5390, 40608.00
314.7490, 41057.00
315.9580, 41175.00
317.1680, 41233.00
318.3770, 41106.00
319.5860, 41273.00
320.7950, 41031.00
322.0040, 40832.00
323.2130, 40577.00
324.4210, 40187.00
325.6290, 40041.00
326.8380, 39646.00
328.0460, 39413.00
329.2530, 39713.00
330.4610, 39081.00
331.6680, 38843.00
332.8760, 39510.00
334.0830, 38830.82
335.2890, 39644.00
336.4960, 38387.00
337.7030, 38358.00
338.9090, 38357.00
340.1150, 37951.00
341.3210, 38228.00
342.5270, 38076.00
343.7330, 38532.00
344.9380, 38723.00
346.1440, 38830.00
347.3490, 38885.00
348.5540, 39093.00
349.7590, 38976.00
350.9630, 39414.00
352.1680, 39501.00
353.3720, 39402.00
354.5760, 39821.00
355.7800, 39735.00
356.9840, 39769.00
358.1870, 39668.00
359.3910, 39841.00
360.5940, 39731.00
361.7970, 39856.00
363.0000, 39680.00
364.2030, 39645.00
365.4050, 39548.00
366.6080, 39329.00
367.8100, 39404.00
369.0120, 39589.00
370.2140, 39438.00
371.4150, 39637.00
372.6170, 39085.00
373.8180, 39503.00
375.0190, 39144.27
376.2200, 39430.00
377.4210, 38843.00
378.6220, 39002.00
379.8220, 39205.00
381.0230, 39074.00
382.2230, 39210.00
383.4230, 39124.00
384.6220, 39040.00
385.8220, 39180.00
387.0220, 39295.00
388.2210, 39235.00
389.4200, 39309.87
390.6190, 39264.00
391.8180, 39313.00
393.0160, 39187.00
394.2150, 39199.00
395.4130, 39215.00
396.6110, 39025.00
397.8090, 39063.00
399.0060, 38882.00
400.2040, 39025.00
401.4010, 39122.00
402.5980, 39032.00
403.7950, 39337.00
404.9920, 39100.42
406.1890, 39078.36
407.3860, 38856.00
408.5820, 38946.00
409.7780, 39056.00
410.9740, 39293.00
412.1700, 39107.00
413.3650, 39228.00
414.5610, 39319.00
415.7560, 39419.00
416.9510, 39435.00
418.1460, 39459.17
419.3410, 39363.00
420.5360, 39357.00
421.7300, 39321.00
422.9240, 39107.00
424.1180, 39124.00
425.3120, 39255.00
426.5060, 39036.00
427.7000, 39022.00
428.8930, 38766.00
430.0860, 38834.00
431.2790, 38581.00
432.4720, 38444.00
433.6650, 38381.00
434.8580, 38281.78
436.0500, 38312.59
437.2420, 38223.00
438.4340, 38263.00
439.6260, 38235.00
440.8180, 37866.00
442.0090, 37841.00
443.2010, 37683.68
444.3920, 37554.00
445.5830, 37504.00
446.7740, 37335.29
447.9640, 37156.00
449.1550, 37117.00
450.3450, 36978.00
451.5350, 36979.00
452.7250, 36950.68
453.9150, 36863.00
455.1050, 36926.00
456.2940, 36990.00
457.4830, 36912.00
458.6720, 36858.00
459.8610, 37174.00
461.0500, 37173.00
462.2390, 37330.00
463.4270, 37234.00
464.6150, 37284.00
465.8040, 37172.00
466.9910, 37191.00
468.1790, 37191.23
469.3670, 37266.02
470.5540, 37286.00
471.7410, 37365.00
472.9280, 37583.00
474.1150, 37345.00
475.3020, 37320.00
476.4890, 37789.00
477.6750, 37462.00
478.8610, 37530.00
480.0470, 37646.00
481.2330, 38015.00
482.4190, 37806.00
483.6040, 38114.00
484.7900, 38180.00
485.9750, 38509.00
487.1600, 38441.00
488.3450, 38466.00
489.5290, 38763.00
490.7140, 38817.00
491.8980, 39440.00
493.0820, 38968.00
494.2660, 39518.00
495.4500, 39430.00
496.6340, 39369.00
497.8170, 39765.00
499.0010, 39837.00
500.1840, 39684.00
501.3670, 40171.00
502.5500, 40114.00
503.7320, 40463.00
504.9150, 40715.00
506.0970, 40730.00
507.2790, 40939.00
508.4610, 41243.00
509.6430, 41395.00
510.8250, 41499.00
512.0060, 41719.00
513.1870, 41842.00
514.3680, 42118.00
515.5490, 42418.92
516.7300, 42686.00
517.9110, 43129.00
519.0910, 43510.02
520.2710, 43899.00
521.4510, 44389.00
522.6310, 44874.00
523.8110, 45467.00
524.9910, 46105.00
526.1700, 46840.00
527.3490, 47546.00
528.5280, 48197.00
529.7070, 48758.00
530.8860, 49394.00
532.0650, 49889.56
533.2430, 50802.00
534.4210, 50759.00
535.5990, 51195.00
536.7770, 51410.00
537.9550, 50705.00
539.1320, 50852.00
540.3100, 50717.00
541.4870, 50280.00
542.6640, 49951.99
543.8410, 49285.00
545.0170, 48909.00
546.1940, 48522.00
547.3700, 48172.00
548.5470, 47730.00
549.7230, 47057.00
550.8980, 46637.00
552.0740, 46491.00
553.2500, 46162.00
554.4250, 45969.29
555.6000, 45736.00
556.7750, 45661.00
557.9500, 45473.00
559.1250, 45407.00
560.2990, 45066.00
561.4730, 45135.00
562.6480, 45216.00
563.8220, 45354.00
564.9950, 45452.45
566.1690, 45380.00
567.3430, 45709.00
568.5160, 45445.01
569.6890, 45551.11
570.8620, 45375.00
572.0350, 45058.00
573.2070, 45369.00
574.3800, 44785.00
575.5520, 44642.00
576.7240, 44359.00
577.8960, 43699.00
579.0680, 43339.00
580.2400, 42983.00
581.4110, 42439.00
582.5830, 41651.00
583.7540, 41176.00
584.9250, 40897.00
586.0950, 40352.00
587.2660, 39986.00
588.4370, 39832.00
589.6070, 39618.00
590.7770, 39146.00
591.9470, 39086.00
593.1170, 39070.00
594.2860, 38761.00
595.4560, 38416.00
596.6250, 38477.00
597.7940, 38260.43
598.9630, 38502.00
600.1320, 38157.00
601.3000, 38230.00
602.4690, 38234.00
603.6370, 37993.00
604.8050, 37961.00
605.9730, 37561.00
607.1410, 37641.00
608.3090, 37800.00
609.4760, 37757.00
610.6430, 37449.00
611.8100, 37482.00
612.9770, 37458.00
614.1440, 37556.00
615.3110, 37376.00
616.4770, 37180.00
617.6430, 37114.00
618.8090, 37159.00
619.9750, 37228.00
621.1410, 37110.00
622.3070, 36914.00
623.4720, 36955.00
624.6370, 36941.00
625.8020, 36987.00
626.9670, 36886.00
628.1320, 36975.00
629.2970, 37117.00
630.4610, 36987.00
631.6250, 36920.00
632.7890, 37072.00
633.9530, 37042.05
635.1170, 37045.00
636.2810, 37231.00
637.4440, 37223.00
638.6070, 37386.00
639.7700, 37243.73
640.9330, 37593.70
642.0960, 37803.17
643.2590, 37879.69
644.4210, 37425.05
645.5830, 37656.27
646.7450, 37612.62
647.9070, 37557.70
649.0690, 37885.44
650.2310, 38097.00
651.3920, 38400.00
652.5530, 38314.00
653.7140, 38617.00
654.8750, 38861.00
656.0360, 39191.00
657.1970, 39056.00
658.3570, 39706.00
659.5170, 40232.00
660.6770, 40875.00
661.8370, 41708.00
662.9970, 42411.00
664.1570, 43411.43
665.3160, 44385.00
666.4750, 45586.00
667.6340, 46775.00
668.7930, 48091.00
669.9520, 49440.00
671.1110, 50625.00
672.2690, 51622.00
673.4270, 52617.00
674.5850, 53401.00
675.7430, 53458.00
676.9010, 53015.00
678.0590, 52111.00
679.2160, 51022.00
680.3730, 50221.00
681.5300, 47797.00
682.6870, 46425.00
683.8440, 44732.00
685.0010, 43316.00
686.1570, 42413.00
687.3130, 41711.00
688.4690, 41019.00
689.6250, 40797.00
690.7810, 40305.00
691.9370, 40084.00
693.0920, 39502.00
694.2470, 39412.00
695.4020, 39250.00
696.5570, 39013.00
697.7120, 39196.00
698.8670, 39199.00
700.0210, 39203.00
701.1750, 39194.00
702.3290, 39122.00
703.4830, 38958.00
704.6370, 39140.00
705.7910, 39261.00
706.9440, 39614.00
708.0970, 39933.00
709.2510, 39161.00
710.4030, 39594.00
711.5560, 39087.00
712.7090, 38585.00
713.8610, 39020.00
715.0140, 39155.00
716.1660, 38697.00
717.3180, 38774.00
718.4690, 38539.00
719.6210, 38405.00
720.7730, 38362.00
721.9240, 38553.00
723.0750, 38363.00
724.2260, 38449.00
725.3770, 38294.00
726.5270, 38478.00
727.6780, 38168.00
728.8280, 37857.00
729.9780, 38043.00
731.1280, 38505.00
732.2780, 38237.93
733.4280, 38273.00
734.5770, 38111.00
735.7260, 37923.00
736.8760, 37819.00
738.0250, 37930.00
739.1730, 37706.00
740.3220, 37718.00
741.4700, 37946.00
742.6190, 37497.00
743.7670, 37568.00
744.9150, 37735.00
746.0630, 37692.00
747.2100, 37692.00
748.3580, 37594.00
749.5050, 37573.00
750.6520, 37681.00
751.7990, 37633.00
752.9460, 37556.00
754.0930, 37498.00
755.2390, 37421.07
756.3860, 37602.02
757.5320, 37589.00
758.6780, 37637.00
759.8240, 37650.23
760.9690, 37672.00
762.1150, 37692.43
763.2600, 37721.41
764.4060, 37713.00
765.5510, 37785.00
766.6950, 37789.00
767.8400, 37816.43
768.9850, 37767.00
770.1290, 37864.00
771.2730, 37804.00
772.4170, 37750.00
773.5610, 37852.00
774.7050, 37698.47
775.8480, 37746.22
776.9920, 37516.00
778.1350, 37734.00
779.2780, 37735.00
780.4210, 37710.00
781.5640, 37857.00
782.7060, 37699.00
783.8490, 37664.00
784.9910, 37700.00
786.1330, 37823.00
787.2750, 37730.00
788.4170, 37865.00
789.5580, 37739.00
790.7000, 37504.00
791.8410, 37621.00
792.9820, 37566.00
794.1230, 37560.00
795.2640, 37446.00
796.4040, 37503.00
797.5450, 37375.00
798.6850, 37405.00
799.8250, 37238.00
800.9650, 37285.00
802.1050, 37234.00
803.2450, 37093.00
804.3840, 37024.00
805.5230, 36900.64
806.6630, 36784.51
807.8020, 36736.00
808.9400, 36657.00
810.0790, 36759.00
811.2170, 36947.00
812.3560, 36715.83
813.4940, 36976.00
814.6320, 36395.00
815.7700, 36540.00
816.9070, 36496.00
818.0450, 36481.00
819.1820, 36308.00
820.3190, 36308.00
821.4560, 36212.00
822.5930, 36209.00
823.7300, 36114.00
824.8670, 36339.00
826.0030, 36153.00
827.1390, 36099.00
828.2750, 36373.00
829.4110, 36391.00
830.5470, 36440.00
831.6820, 36324.00
832.8180, 36464.00
833.9530, 36162.00
835.0880, 36486.00
836.2230, 36461.00
837.3580, 36336.00
838.4920, 36437.00
839.6270, 36569.00
840.7610, 36609.00
841.8950, 36610.00
843.0290, 36961.00
844.1630, 36792.00
845.2960, 37013.00
846.4300, 36648.00
847.5630, 36958.00
848.6960, 36836.00
849.8290, 36594.00
850.9620, 36948.00
852.0940, 36988.00
853.2270, 37057.00
854.3590, 37116.00
855.4910, 37340.00
856.6230, 37184.00
857.7550, 37349.00
858.8870, 37397.00
860.0180, 37118.00
861.1500, 37461.00
862.2810, 37600.00
863.4120, 37530.00
864.5430, 37833.00
865.6730, 37901.32
866.8040, 37917.56
867.9340, 38270.00
869.0640, 37957.00
870.1940, 38231.00
871.3240, 38282.00
872.4540, 38430.00
873.5830, 38172.00
874.7130, 38703.00
875.8420, 38928.00
876.9710, 39377.00
878.1000, 39257.00
879.2290, 39369.00
880.3570, 39185.00
881.4860, 39708.00
882.6140, 39682.00
883.7420, 39732.00
884.8700, 40130.00
885.9980, 40051.00
887.1250, 39977.00
888.2530, 39761.00
889.3800, 40422.00
890.5070, 40361.00
891.6340, 40550.00
892.7610, 40497.00
893.8880, 40296.00
895.0140, 40516.00
896.1400, 40437.98
897.2670, 40464.56
898.3930, 40544.00
899.5180, 40535.00
900.6440, 40622.00
901.7700, 40675.00
902.8950, 40696.54
904.0200, 40791.00
905.1450, 40743.00
906.2700, 40862.00
907.3950, 40852.00
908.5190, 40708.00
909.6440, 40642.00
910.7680, 40696.00
911.8920, 40526.00
913.0160, 40404.00
914.1400, 40398.00
915.2630, 40455.00
916.3870, 40357.00
917.5100, 40664.00
918.6330, 40491.00
919.7560, 40423.00
920.8790, 40034.00
922.0010, 40239.00
923.1240, 40306.00
924.2460, 40352.00
925.3680, 40017.00
926.4900, 40392.00
927.6120, 39961.00
928.7340, 39983.00
929.8550, 40160.38
930.9760, 40259.00
932.0980, 40458.00
933.2190, 40193.00
934.3390, 40287.00
935.4600, 40287.00
936.5810, 40341.00
937.7010, 40308.00
938.8210, 40270.00
939.9410, 40190.00
941.0610, 40200.00
942.1810, 40427.00
943.3010, 40508.00
944.4200, 40894.00
945.5390, 40690.00
946.6580, 40978.00
947.7770, 41011.00
948.8960, 41063.00
950.0150, 41053.00
951.1330, 41366.00
952.2510, 41531.00
953.3690, 41102.00
954.4870, 41069.00
955.6050, 41379.00
956.7230, 41686.00
957.8400, 41718.00
958.9580, 41867.00
960.0750, 42041.00
961.1920, 42408.00
962.3090, 42491.00
963.4250, 42905.00
964.5420, 42769.00
965.6580, 43196.00
966.7740, 43271.00
967.8900, 43435.00
969.0060, 43945.00
970.1220, 44331.00
971.2380, 44441.00
972.3530, 44716.50
973.4680, 45153.00
974.5830, 44979.00
975.6980, 44864.00
976.8130, 45032.00
977.9280, 45226.00
979.0420, 44822.00
980.1560, 45129.00
981.2710, 44768.00
982.3850, 44833.00
983.4980, 44837.00
984.6120, 44377.00
985.7260, 44290.00
986.8390, 44033.00
987.9520, 43954.00
989.0650, 43744.00
990.1780, 43595.00
991.2910, 43259.00
992.4030, 43285.00
993.5160, 42860.96
994.6280, 43099.62
995.7400, 43197.78
996.8520, 43162.99
997.9640, 42597.07
999.0750, 42717.07
1000.187, 42562.14
1001.298, 42396.01
1002.409, 42612.54
1003.520, 42123.95
1004.631, 42413.00
1005.741, 41943.00
1006.852, 42167.00
1007.962, 42222.00
1009.072, 42204.00
1010.182, 42536.00
1011.292, 42255.00
1012.402, 42325.00
1013.511, 42524.00
1014.621, 42466.00
1015.730, 42343.00
1016.839, 42454.85
1017.948, 42654.00
1019.056, 42519.00
1020.165, 42517.00
1021.273, 42583.00
1022.382, 42432.00
1023.490, 42276.37
1024.598, 42614.00
1025.706, 42395.00
1026.813, 42773.00
1027.921, 42663.20
1029.028, 42543.00
1030.135, 42592.00
1031.242, 42752.00
1032.349, 42842.00
1033.456, 42775.00
1034.562, 43051.00
1035.668, 42989.00
1036.775, 43182.00
1037.881, 43228.00
1038.987, 43405.00
1040.092, 43750.00
1041.198, 43763.55
1042.303, 44011.00
1043.408, 43885.00
1044.514, 43912.00
1045.618, 43804.00
1046.723, 43906.32
1047.828, 44096.00
1048.932, 44049.00
1050.037, 44182.00
1051.141, 44077.00
1052.245, 44145.00
1053.349, 44276.00
1054.452, 44437.00
1055.556, 44464.11
1056.659, 44549.99
1057.762, 44466.00
1058.865, 44599.00
1059.968, 44414.00
1061.071, 44367.00
1062.174, 44571.00
1063.276, 44848.00
1064.378, 44822.00
1065.480, 44871.00
1066.582, 44979.00
1067.684, 45318.00
1068.786, 45517.00
1069.887, 45423.00
1070.988, 45410.00
1072.090, 45475.00
1073.191, 45305.00
1074.291, 45169.00
1075.392, 45019.00
1076.493, 45147.00
1077.593, 45084.00
1078.693, 45151.00
1079.793, 44904.00
1080.893, 45015.00
1081.993, 45038.00
1083.092, 44975.00
1084.192, 45024.00
1085.291, 44809.00
1086.390, 44875.48
1087.489, 45073.00
1088.588, 44949.00
1089.686, 44846.00
1090.785, 44995.00
1091.883, 45276.00
1092.981, 45325.12
1094.079, 45470.00
1095.177, 45472.00
1096.275, 45586.00
1097.373, 45244.00
1098.470, 45260.00
1099.567, 45322.00
1100.664, 45396.00
1101.761, 45285.98
1102.858, 45508.00
1103.954, 45150.00
1105.051, 45009.00
1106.147, 45127.00
1107.243, 44718.00
1108.339, 44810.00
1109.435, 45047.00
1110.531, 44840.00
1111.626, 44659.00
1112.722, 44728.46
1113.817, 44507.56
1114.912, 44538.00
1116.007, 44360.00
1117.101, 43990.00
1118.196, 44113.00
1119.290, 44129.00
1120.385, 43739.00
1121.479, 43682.00
1122.573, 43525.00
1123.666, 43569.00
1124.760, 43253.00
1125.853, 43300.00
1126.947, 43223.00
1128.040, 42876.00
1129.133, 42889.00
1130.226, 42813.00
1131.318, 42536.00
1132.411, 42522.00
1133.503, 42427.00
1134.596, 42426.00
1135.688, 42078.00
1136.780, 42229.00
1137.871, 41804.00
1138.963, 42024.00
1140.054, 41830.00
1141.146, 41584.00
1142.237, 41570.00
1143.328, 41290.00
1144.419, 41312.00
1145.509, 40815.55
1146.600, 40996.48
1147.690, 41037.04
1148.780, 40944.62
1149.870, 40321.10
1150.960, 40383.42
1152.050, 40170.87
1153.139, 39947.19
1154.229, 40106.04
1155.318, 39559.89
1156.407, 39712.80
1157.496, 39586.66
1158.585, 39588.23
1159.674, 39083.00
1160.762, 39262.00
1161.850, 39092.00
1162.939, 38924.00
1164.027, 38747.00
1165.114, 38819.00
1166.202, 38684.92
1167.290, 38754.00
1168.377, 38609.00
1169.464, 38480.00
1170.551, 38441.00
1171.638, 38497.00
1172.725, 38453.85
1173.812, 38534.00
1174.898, 38512.00
1175.984, 38409.00
1177.071, 38460.00
1178.157, 38360.00
1179.242, 38640.00
1180.328, 38416.00
1181.414, 38391.00
1182.499, 38673.00
1183.584, 38282.00
1184.669, 38837.00
1185.754, 38152.00
1186.839, 38387.00
1187.924, 38539.00
1189.008, 38333.00
1190.092, 38348.00
1191.177, 38121.00
1192.260, 38615.00
1193.344, 38177.09
1194.428, 38484.32
1195.512, 38651.04
1196.595, 38684.83
1197.678, 38187.48
1198.761, 38375.99
1199.844, 38289.64
1200.927, 38192.01
1202.009, 38477.06
1203.092, 38056.96
1204.174, 38335.95
1205.256, 38335.88
1206.338, 38463.52
1207.420, 38314.60
1208.502, 38251.11
1209.583, 38464.27
1210.665, 38110.00
1211.746, 38209.00
1212.827, 38146.00
1213.908, 38293.00
1214.988, 38175.00
1216.069, 38278.00
1217.149, 38100.00
1218.230, 38412.00
1219.310, 38059.00
1220.390, 38273.00
1221.470, 38091.00
1222.549, 38187.00
1223.629, 37861.00
1224.708, 37965.23
1225.787, 38181.00
1226.866, 38085.00
1227.945, 38146.00
1229.024, 38285.00
1230.103, 38127.00
1231.181, 38150.00
1232.259, 38070.00
1233.337, 38042.00
1234.415, 37981.00
1235.493, 37950.57
1236.571, 37981.45
1237.648, 37949.00
1238.726, 38095.00
1239.803, 38215.00
1240.880, 38338.00
1241.957, 38172.00
1243.034, 38354.00
1244.110, 38115.00
1245.187, 38237.00
1246.263, 38121.00
1247.339, 38028.00
1248.415, 38285.00
1249.491, 38128.00
1250.566, 38253.00
1251.642, 37873.00
1252.717, 38056.00
1253.793, 38324.00
1254.868, 38186.31
1255.943, 38417.66
1257.017, 38155.00
1258.092, 38536.00
1259.166, 38307.00
1260.241, 38142.00
1261.315, 37970.00
1262.389, 37967.55
1263.462, 37855.00
1264.536, 38169.00
1265.610, 38275.00
1266.683, 38655.00
1267.756, 38045.00
1268.829, 38115.00
1269.902, 38171.00
1270.975, 38270.00
1272.048, 38056.00
1273.120, 38253.00
1274.192, 38137.00
1275.264, 38048.00
1276.336, 38241.00
1277.408, 38124.00
1278.480, 38176.00
1279.551, 38000.00
1280.623, 38157.00
1281.694, 38207.04
1282.765, 38213.00
1283.836, 38335.00
1284.907, 38190.00
1285.977, 37966.00
1287.048, 38216.00
1288.118, 37999.00
1289.188, 37982.00
1290.258, 38012.00
1291.328, 37911.00
1292.398, 38113.00
1293.467, 37690.00
1294.537, 38231.00
1295.606, 37919.00
1296.675, 38121.00
1297.744, 37982.00
1298.813, 38203.00
1299.882, 38007.00
1300.950, 38110.00
1302.018, 38039.00
1303.086, 38000.00
1304.155, 38150.00
1305.222, 38319.00
1306.290, 38163.00
1307.358, 38284.00
1308.425, 38128.00
1309.492, 38316.00
1310.559, 38105.00
1311.626, 38077.00
1312.693, 38128.00
1313.760, 38313.00
1314.826, 38085.00
1315.893, 38280.00
1316.959, 38016.00
1318.025, 38117.00
1319.091, 38022.00
1320.157, 38167.00
1321.222, 38176.16
1322.288, 38189.00
1323.353, 38281.00
1324.418, 38177.00
1325.483, 38245.00
1326.548, 38275.00
1327.612, 38273.00
1328.677, 38187.00
1329.741, 38345.00
1330.806, 38398.00
1331.870, 38219.00
1332.934, 38480.00
1333.997, 38169.00
1335.061, 38290.00
1336.124, 38405.00
1337.188, 38100.00
1338.251, 38079.00
1339.314, 38456.00
1340.377, 38316.00
1341.439, 38207.00
1342.502, 38022.00
1343.564, 38474.00
1344.627, 38276.00
1345.689, 38279.00
1346.751, 38525.00
1347.813, 38049.00
1348.874, 38267.00
1349.936, 38191.00
1350.997, 38264.00
1352.058, 38335.00
1353.119, 38428.00
1354.180, 38251.00
1355.241, 38332.00
1356.301, 38313.00
1357.362, 38621.00
1358.422, 38353.00
1359.482, 38320.00
1360.542, 38098.00
1361.602, 38318.00
1362.662, 38497.00
1363.721, 38310.00
1364.781, 38356.00
1365.840, 38503.00
1366.899, 38381.00
1367.958, 38428.00
1369.017, 38502.00
1370.075, 38255.00
1371.134, 38529.00
1372.192, 38413.00
1373.250, 38331.00
1374.308, 38289.00
1375.366, 38504.00
1376.424, 38550.00
1377.481, 38294.00
1378.539, 38514.00
1379.596, 38275.00
1380.653, 38350.00
1381.710, 38278.00
1382.767, 38305.59
1383.824, 38667.00
1384.880, 38337.00
1385.937, 38573.00
1386.993, 38362.00
1388.049, 38473.00
1389.105, 38541.00
1390.161, 38629.00
1391.216, 38671.00
1392.272, 38935.00
1393.327, 38673.00
1394.382, 38517.00
1395.437, 38689.00
1396.492, 38505.00
1397.547, 38516.00
1398.601, 38784.00
1399.656, 38745.00
1400.710, 38616.00
1401.764, 38784.00
1402.818, 38575.00
1403.872, 38760.00
1404.925, 38623.00
1405.979, 38724.16
1407.032, 38568.00
1408.085, 38638.68
1409.139, 38632.00
1410.191, 38799.00
1411.244, 38766.00
1412.297, 38964.00
1413.349, 38899.60
1414.402, 39251.00
1415.454, 38851.00
1416.506, 38733.00
1417.558, 38811.00
1418.609, 38908.00
1419.661, 38616.00
1420.712, 38748.00
1421.764, 38728.00
1422.815, 38682.00
1423.866, 38888.00
1424.916, 38737.00
1425.967, 38926.00
1427.018, 38689.00
1428.068, 38730.00
1429.118, 39011.00
1430.168, 38834.00
1431.218, 38713.00
1432.268, 38701.00
1433.318, 39003.00
1434.367, 38771.00
1435.416, 38807.00
1436.465, 39088.00
1437.514, 38980.00
1438.563, 39089.00
1439.612, 38816.00
1440.661, 38996.00
1441.709, 38878.00
1442.757, 38892.00
1443.805, 39110.00
1444.853, 38821.00
1445.901, 39068.00
1446.949, 38991.00
1447.996, 38966.00
1449.044, 38962.00
1450.091, 38871.00
1451.138, 38903.47
1452.185, 38952.02
1453.232, 38953.00
1454.278, 38908.00
1455.325, 38983.00
1456.371, 38905.02
1457.417, 38815.00
1458.463, 38844.00
1459.509, 38826.00
1460.555, 38895.00
1461.601, 39048.00
1462.646, 38932.00
1463.691, 39109.00
1464.737, 38814.00
1465.782, 39237.00
1466.826, 39047.00
1467.871, 39295.00
1468.916, 39238.00
1469.960, 39108.00
1471.004, 38885.00
1472.048, 39177.00
1473.092, 38873.00
1474.136, 38998.00
1475.180, 38884.00
1476.223, 39010.00
1477.267, 38901.00
1478.310, 38985.00
1479.353, 39096.00
1480.396, 39062.00
1481.439, 38773.00
1482.481, 38962.00
1483.524, 39226.00
1484.566, 39028.00
1485.608, 39239.00
1486.650, 38989.00
1487.692, 38832.00
1488.734, 39019.00
1489.775, 39041.00
1490.817, 38913.00
1491.858, 39099.00
1492.899, 39041.52
1493.940, 39198.00
1494.981, 39129.00
1496.022, 39141.00
1497.062, 39296.00
1498.103, 39086.00
1499.143, 39184.00
1500.183, 38707.00
1501.223, 39088.00
1502.263, 39007.00
1503.302, 39177.00
1504.342, 39255.00
1505.381, 39089.00
1506.420, 39532.00
1507.459, 38956.00
1508.498, 39132.00
1509.537, 39123.00
1510.576, 38949.00
1511.614, 39083.00
1512.652, 39108.00
1513.691, 39020.00
1514.729, 39067.00
1515.767, 38870.00
1516.804, 39106.00
1517.842, 38981.05
1518.879, 39312.00
1519.917, 38935.00
1520.954, 39094.00
1521.991, 39147.00
1523.028, 39354.00
1524.064, 39412.00
1525.101, 39376.31
1526.137, 39355.00
1527.173, 39287.00
1528.210, 39248.20
1529.245, 39186.28
1530.281, 39140.00
1531.317, 39107.00
1532.352, 39052.00
1533.388, 39220.00
1534.423, 39182.00
1535.458, 39410.00
1536.493, 39345.00
1537.528, 39262.00
1538.562, 39309.24
##END=



