##NAMES=Arfvedsonite
##RRUFFID=R040127
##IDEAL CHEMISTRY=NaNa_2_(Fe^2+^_4_Fe^3+^)Si_8_O_22_(OH)_2_
##LOCALITY=Mont Saint-Hilaire, Rouville County, Quebec, Canada
##OWNER=RRUFF
##SOURCE=Bob Downs
##DESCRIPTION=Black prismatic crystal associated with white analcime, R040128
##STATUS=The identification of this mineral has been confirmed by X-ray diffraction and chemical analysis
##URL=rruff.info/R040127
##MEASURED CHEMISTRY=(Na_0.61_K_0.39_)Na_2.00_(Fe^2+^_2.40_Mg_0.80_Mn_0.75_Ca_0.05_)_&#931;=4_(Fe^3+^_0.60_Al_0.25_Mn_0.15_)(Si_0.99_Ti_0.01_)_8_O_22_((OH)_0.67_F_0.33_)_2_
##PIN_ID=M00446
##ORIENTATION=Laser parallel to (-1 0 -1). Fiducial mark perpendicular to laser is parallel to -b [0 -1 0]
121.4100, 36433.00
122.6480, 36095.86
123.8850, 35823.25
125.1230, 36576.00
126.3600, 36473.00
127.5960, 37688.00
128.8330, 39330.00
130.0700, 41265.00
131.3060, 42190.00
132.5420, 42808.00
133.7780, 44053.00
135.0140, 45197.00
136.2500, 46984.00
137.4850, 49367.00
138.7200, 52793.00
139.9550, 55034.00
141.1900, 55700.00
142.4250, 56018.00
143.6600, 55618.00
144.8940, 54128.00
146.1280, 51390.00
147.3620, 49193.00
148.5960, 46875.00
149.8300, 45038.00
151.0630, 44936.00
152.2960, 44107.00
153.5300, 43292.00
154.7620, 43699.00
155.9950, 43375.00
157.2280, 42864.00
158.4600, 43206.00
159.6920, 43639.00
160.9250, 44157.00
162.1560, 45204.00
163.3880, 46220.00
164.6200, 46837.00
165.8510, 47090.00
167.0820, 47108.00
168.3130, 47256.70
169.5440, 47078.00
170.7750, 46849.00
172.0050, 46328.00
173.2350, 45525.00
174.4650, 45353.00
175.6950, 45036.00
176.9250, 45102.00
178.1550, 45429.00
179.3840, 45813.00
180.6130, 46068.00
181.8420, 46609.00
183.0710, 48173.00
184.3000, 49657.00
185.5280, 50030.00
186.7570, 51583.00
187.9850, 52468.00
189.2130, 54269.00
190.4400, 55461.00
191.6680, 57470.00
192.8960, 58585.00
194.1230, 60132.00
195.3500, 61002.00
196.5770, 62309.00
197.8030, 63008.00
199.0300, 63679.00
200.2560, 64519.00
201.4830, 65163.00
202.7090, 65092.00
203.9340, 63379.00
205.1600, 61559.00
206.3860, 60076.00
207.6110, 59665.00
208.8360, 59586.00
210.0610, 59897.00
211.2860, 59800.00
212.5100, 60188.00
213.7350, 60087.00
214.9590, 59644.00
216.1830, 58566.00
217.4070, 57781.00
218.6310, 56782.00
219.8540, 55351.00
221.0780, 54714.00
222.3010, 53564.00
223.5240, 52508.00
224.7470, 51701.00
225.9690, 51177.00
227.1920, 50222.00
228.4140, 49798.00
229.6360, 49712.00
230.8580, 49736.00
232.0800, 49309.00
233.3020, 49237.00
234.5230, 49301.00
235.7440, 49222.00
236.9650, 49058.00
238.1860, 48970.00
239.4070, 48974.62
240.6280, 49040.00
241.8480, 49047.00
243.0680, 48803.00
244.2880, 48861.00
245.5080, 48300.00
246.7280, 48209.00
247.9470, 47945.00
249.1660, 47493.00
250.3860, 47277.00
251.6040, 46612.00
252.8230, 46171.00
254.0420, 45884.00
255.2600, 45023.00
256.4790, 45221.00
257.6970, 45505.00
258.9150, 45057.14
260.1320, 44540.12
261.3500, 44680.00
262.5670, 43092.00
263.7840, 42594.00
265.0010, 42485.00
266.2180, 42163.00
267.4350, 41748.00
268.6510, 41588.39
269.8680, 41111.00
271.0840, 41041.00
272.3000, 40310.00
273.5160, 39870.00
274.7310, 39469.00
275.9470, 39350.00
277.1620, 39093.00
278.3770, 38729.00
279.5920, 38328.00
280.8070, 38078.00
282.0210, 38535.00
283.2360, 37774.00
284.4500, 37447.00
285.6640, 37421.00
286.8780, 38355.00
288.0920, 37119.00
289.3050, 37406.00
290.5180, 37620.00
291.7320, 37067.00
292.9450, 37570.00
294.1570, 38225.00
295.3700, 37965.00
296.5830, 37936.00
297.7950, 37764.00
299.0070, 38085.00
300.2190, 38271.00
301.4310, 38204.00
302.6420, 38344.00
303.8540, 38668.00
305.0650, 38716.00
306.2760, 39070.00
307.4870, 39119.00
308.6980, 39224.09
309.9080, 39364.79
311.1190, 39310.00
312.3290, 39394.00
313.5390, 39354.00
314.7490, 39116.00
315.9580, 39340.00
317.1680, 38765.00
318.3770, 38886.00
319.5860, 38693.00
320.7950, 38707.00
322.0040, 38479.00
323.2130, 38571.00
324.4210, 38315.00
325.6290, 38576.00
326.8380, 38474.00
328.0460, 38271.00
329.2530, 38407.00
330.4610, 38428.00
331.6680, 38514.00
332.8760, 38477.00
334.0830, 38629.00
335.2890, 38820.05
336.4960, 38926.00
337.7030, 39333.00
338.9090, 39451.00
340.1150, 39729.00
341.3210, 39910.00
342.5270, 40377.00
343.7330, 40910.00
344.9380, 41340.00
346.1440, 41758.00
347.3490, 42442.00
348.5540, 43510.00
349.7590, 43778.00
350.9630, 44913.00
352.1680, 45858.00
353.3720, 46720.00
354.5760, 47399.00
355.7800, 47937.00
356.9840, 48709.00
358.1870, 49121.98
359.3910, 49743.00
360.5940, 49897.00
361.7970, 49640.00
363.0000, 49758.00
364.2030, 49670.00
365.4050, 49353.00
366.6080, 49429.00
367.8100, 49067.00
369.0120, 48906.00
370.2140, 48766.80
371.4150, 47936.00
372.6170, 48364.00
373.8180, 47979.00
375.0190, 47680.00
376.2200, 47811.00
377.4210, 47249.00
378.6220, 47259.00
379.8220, 47084.00
381.0230, 46898.00
382.2230, 46592.00
383.4230, 46148.00
384.6220, 45927.00
385.8220, 45306.00
387.0220, 44868.00
388.2210, 44398.00
389.4200, 43973.00
390.6190, 43490.00
391.8180, 43019.00
393.0160, 42622.00
394.2150, 42183.21
395.4130, 41644.00
396.6110, 41440.00
397.8090, 41165.00
399.0060, 40940.00
400.2040, 40812.00
401.4010, 40641.00
402.5980, 40503.00
403.7950, 40556.85
404.9920, 40649.00
406.1890, 40840.00
407.3860, 41046.00
408.5820, 41461.00
409.7780, 42125.00
410.9740, 42628.00
412.1700, 43086.00
413.3650, 43517.00
414.5610, 43925.00
415.7560, 44155.00
416.9510, 44429.00
418.1460, 44467.30
419.3410, 44489.47
420.5360, 44342.00
421.7300, 44275.00
422.9240, 44065.00
424.1180, 43840.00
425.3120, 43472.97
426.5060, 42928.00
427.7000, 42524.00
428.8930, 41866.09
430.0860, 41226.00
431.2790, 40689.00
432.4720, 39826.00
433.6650, 39466.00
434.8580, 39239.00
436.0500, 38514.00
437.2420, 38306.00
438.4340, 37631.00
439.6260, 37289.00
440.8180, 36862.00
442.0090, 37018.00
443.2010, 37689.00
444.3920, 36562.00
445.5830, 36162.00
446.7740, 36693.00
447.9640, 35948.00
449.1550, 35701.00
450.3450, 35560.00
451.5350, 35505.00
452.7250, 35402.00
453.9150, 35703.00
455.1050, 35625.00
456.2940, 35575.00
457.4830, 36090.00
458.6720, 35831.91
459.8610, 35729.00
461.0500, 35797.00
462.2390, 35975.00
463.4270, 36186.00
464.6150, 36164.00
465.8040, 36275.37
466.9910, 36328.00
468.1790, 36261.00
469.3670, 36188.00
470.5540, 36041.00
471.7410, 36055.00
472.9280, 35857.00
474.1150, 35907.00
475.3020, 35780.00
476.4890, 35736.99
477.6750, 35437.00
478.8610, 35552.00
480.0470, 35462.00
481.2330, 35130.00
482.4190, 35121.00
483.6040, 35465.00
484.7900, 35344.00
485.9750, 35526.00
487.1600, 35534.00
488.3450, 35623.79
489.5290, 35778.89
490.7140, 35851.00
491.8980, 36099.00
493.0820, 36219.00
494.2660, 36437.00
495.4500, 36634.03
496.6340, 36811.00
497.8170, 37067.00
499.0010, 37215.00
500.1840, 37496.00
501.3670, 37857.00
502.5500, 38105.00
503.7320, 38226.00
504.9150, 38295.00
506.0970, 38301.00
507.2790, 38616.00
508.4610, 38719.00
509.6430, 38844.00
510.8250, 38841.00
512.0060, 39481.00
513.1870, 39623.00
514.3680, 39923.00
515.5490, 39931.00
516.7300, 40544.00
517.9110, 41004.00
519.0910, 41181.00
520.2710, 42097.00
521.4510, 42558.47
522.6310, 42866.00
523.8110, 44016.00
524.9910, 44763.00
526.1700, 45721.00
527.3490, 46546.00
528.5280, 47479.00
529.7070, 48425.00
530.8860, 49364.00
532.0650, 50389.00
533.2430, 51190.00
534.4210, 51633.00
535.5990, 52345.00
536.7770, 52336.00
537.9550, 52383.00
539.1320, 52319.00
540.3100, 52224.00
541.4870, 51596.00
542.6640, 51089.00
543.8410, 50516.00
545.0170, 49946.00
546.1940, 49172.00
547.3700, 48494.00
548.5470, 47936.00
549.7230, 47340.00
550.8980, 46804.00
552.0740, 46308.70
553.2500, 45890.00
554.4250, 45511.00
555.6000, 45089.00
556.7750, 45012.00
557.9500, 44801.00
559.1250, 44504.70
560.2990, 44213.00
561.4730, 44016.00
562.6480, 43890.00
563.8220, 43718.00
564.9950, 43716.00
566.1690, 43472.00
567.3430, 43320.14
568.5160, 43157.68
569.6890, 42954.00
570.8620, 42795.00
572.0350, 42704.00
573.2070, 42606.00
574.3800, 42285.00
575.5520, 41589.00
576.7240, 41151.00
577.8960, 40845.00
579.0680, 40121.00
580.2400, 39619.00
581.4110, 38913.00
582.5830, 38444.00
583.7540, 37621.00
584.9250, 37091.00
586.0950, 36630.00
587.2660, 36403.00
588.4370, 35935.00
589.6070, 35688.00
590.7770, 35619.00
591.9470, 35851.00
593.1170, 35348.00
594.2860, 35359.31
595.4560, 35683.00
596.6250, 35084.00
597.7940, 34812.00
598.9630, 34884.00
600.1320, 34792.00
601.3000, 35042.00
602.4690, 35208.00
603.6370, 35299.00
604.8050, 35656.00
605.9730, 34963.00
607.1410, 34835.00
608.3090, 34936.00
609.4760, 34975.00
610.6430, 35063.00
611.8100, 35181.00
612.9770, 35155.00
614.1440, 35241.72
615.3110, 35317.00
616.4770, 35257.00
617.6430, 35377.00
618.8090, 35255.00
619.9750, 35321.00
621.1410, 35465.00
622.3070, 35659.00
623.4720, 35408.00
624.6370, 35509.00
625.8020, 35669.00
626.9670, 35946.19
628.1320, 36217.06
629.2970, 36577.00
630.4610, 36856.00
631.6250, 36988.88
632.7890, 36779.00
633.9530, 37139.00
635.1170, 37034.00
636.2810, 36968.00
637.4440, 37721.00
638.6070, 37057.00
639.7700, 37816.00
640.9330, 36999.00
642.0960, 37220.00
643.2590, 37409.00
644.4210, 37451.00
645.5830, 37663.00
646.7450, 37833.85
647.9070, 38056.00
649.0690, 38210.00
650.2310, 38573.00
651.3920, 38719.00
652.5530, 39124.00
653.7140, 39561.00
654.8750, 39995.00
656.0360, 40728.00
657.1970, 41023.00
658.3570, 41971.00
659.5170, 42773.00
660.6770, 43807.00
661.8370, 45054.00
662.9970, 46381.00
664.1570, 48023.50
665.3160, 50011.00
666.4750, 51871.00
667.6340, 53831.00
668.7930, 56328.00
669.9520, 58539.00
671.1110, 60689.00
672.2690, 62270.00
673.4270, 63746.00
674.5850, 64760.00
675.7430, 64730.00
676.9010, 64346.00
678.0590, 63175.00
679.2160, 61629.00
680.3730, 58581.00
681.5300, 55218.00
682.6870, 52763.00
683.8440, 50300.00
685.0010, 47904.00
686.1570, 46112.00
687.3130, 44915.00
688.4690, 43569.00
689.6250, 43027.00
690.7810, 41995.00
691.9370, 41907.00
693.0920, 41350.00
694.2470, 40975.00
695.4020, 40747.00
696.5570, 40609.00
697.7120, 40573.00
698.8670, 40389.05
700.0210, 40238.24
701.1750, 40164.00
702.3290, 39946.00
703.4830, 39866.00
704.6370, 39900.00
705.7910, 39628.00
706.9440, 39851.00
708.0970, 39590.00
709.2510, 39408.00
710.4030, 39339.00
711.5560, 39629.00
712.7090, 39785.00
713.8610, 39450.00
715.0140, 39137.00
716.1660, 38943.00
717.3180, 39120.00
718.4690, 38858.00
719.6210, 39029.00
720.7730, 38888.00
721.9240, 38974.00
723.0750, 39233.00
724.2260, 38544.00
725.3770, 38605.00
726.5270, 38522.00
727.6780, 38607.00
728.8280, 38569.89
729.9780, 38447.84
731.1280, 38503.00
732.2780, 38182.00
733.4280, 38053.00
734.5770, 37940.00
735.7260, 37681.00
736.8760, 37866.00
738.0250, 37788.00
739.1730, 37908.00
740.3220, 37520.00
741.4700, 37256.00
742.6190, 37124.00
743.7670, 37003.00
744.9150, 36823.00
746.0630, 36624.00
747.2100, 36945.00
748.3580, 36635.00
749.5050, 36869.00
750.6520, 36734.00
751.7990, 36630.00
752.9460, 36756.00
754.0930, 36518.00
755.2390, 36457.68
756.3860, 36374.00
757.5320, 36165.00
758.6780, 36323.00
759.8240, 36183.00
760.9690, 36381.00
762.1150, 36552.00
763.2600, 36225.00
764.4060, 36043.00
765.5510, 36172.00
766.6950, 36089.00
767.8400, 36117.00
768.9850, 36266.00
770.1290, 36106.00
771.2730, 35931.00
772.4170, 35829.00
773.5610, 35954.00
774.7050, 36317.00
775.8480, 36270.00
776.9920, 36039.00
778.1350, 35600.00
779.2780, 35923.00
780.4210, 35712.95
781.5640, 35988.00
782.7060, 35862.00
783.8490, 35489.36
784.9910, 35803.32
786.1330, 35985.38
787.2750, 36042.64
788.4170, 35601.27
789.5580, 35803.76
790.7000, 35748.23
791.8410, 35682.11
792.9820, 35975.21
794.1230, 35606.36
795.2640, 35893.78
796.4040, 35919.21
797.5450, 36064.55
798.6850, 35950.26
799.8250, 35916.15
800.9650, 35629.00
802.1050, 35725.00
803.2450, 35621.00
804.3840, 35469.00
805.5230, 35444.00
806.6630, 35416.00
807.8020, 35543.00
808.9400, 35397.00
810.0790, 35491.00
811.2170, 35221.00
812.3560, 34975.00
813.4940, 35146.00
814.6320, 35177.00
815.7700, 34910.00
816.9070, 34980.89
818.0450, 34941.38
819.1820, 35006.00
820.3190, 34911.00
821.4560, 35021.94
822.5930, 35212.00
823.7300, 35155.00
824.8670, 35205.00
826.0030, 35156.89
827.1390, 35147.00
828.2750, 35175.00
829.4110, 35182.00
830.5470, 35184.00
831.6820, 35404.00
832.8180, 35359.00
833.9530, 35493.00
835.0880, 35375.00
836.2230, 35769.00
837.3580, 35503.64
838.4920, 35881.23
839.6270, 36126.98
840.7610, 36247.86
841.8950, 35870.12
843.0290, 36136.25
844.1630, 36144.34
845.2960, 36141.79
846.4300, 36498.53
847.5630, 36193.25
848.6960, 36544.23
849.8290, 36633.25
850.9620, 36842.15
852.0940, 36746.00
853.2270, 36658.00
854.3590, 36768.00
855.4910, 37232.00
856.6230, 36961.51
857.7550, 37567.59
858.8870, 38041.78
860.0180, 38390.88
861.1500, 38241.63
862.2810, 38735.97
863.4120, 38972.28
864.5430, 39198.02
865.6730, 39782.70
866.8040, 39705.71
867.9340, 40284.71
869.0640, 40989.00
870.1940, 41460.00
871.3240, 41780.00
872.4540, 42489.00
873.5830, 43161.00
874.7130, 43532.00
875.8420, 44277.00
876.9710, 44815.00
878.1000, 45276.00
879.2290, 45649.00
880.3570, 45984.36
881.4860, 46627.00
882.6140, 46562.00
883.7420, 46931.00
884.8700, 47347.00
885.9980, 47344.00
887.1250, 47443.00
888.2530, 47567.00
889.3800, 47778.00
890.5070, 47744.00
891.6340, 47932.00
892.7610, 47540.00
893.8880, 47406.00
895.0140, 47569.00
896.1400, 47491.00
897.2670, 47293.00
898.3930, 47355.00
899.5180, 47345.00
900.6440, 47094.00
901.7700, 47320.00
902.8950, 47061.00
904.0200, 46990.00
905.1450, 46888.00
906.2700, 46886.00
907.3950, 46626.00
908.5190, 46869.00
909.6440, 46323.00
910.7680, 46263.00
911.8920, 45419.00
913.0160, 45661.00
914.1400, 44976.00
915.2630, 44713.00
916.3870, 44491.00
917.5100, 44407.00
918.6330, 44244.00
919.7560, 43863.00
920.8790, 43561.00
922.0010, 43372.75
923.1240, 43059.00
924.2460, 42966.00
925.3680, 42794.61
926.4900, 42648.95
927.6120, 42558.00
928.7340, 42360.00
929.8550, 42214.00
930.9760, 42128.82
932.0980, 42079.00
933.2190, 42033.00
934.3390, 41972.00
935.4600, 42095.00
936.5810, 42441.00
937.7010, 42219.00
938.8210, 42584.00
939.9410, 42598.00
941.0610, 42785.00
942.1810, 43157.00
943.3010, 43458.00
944.4200, 43612.00
945.5390, 43780.00
946.6580, 44115.00
947.7770, 44519.00
948.8960, 44779.00
950.0150, 44878.00
951.1330, 45140.00
952.2510, 45303.00
953.3690, 45639.00
954.4870, 45821.00
955.6050, 45778.00
956.7230, 45632.00
957.8400, 45648.00
958.9580, 45831.00
960.0750, 45708.00
961.1920, 45583.00
962.3090, 45394.00
963.4250, 45454.00
964.5420, 45540.51
965.6580, 46118.00
966.7740, 46075.00
967.8900, 46260.00
969.0060, 46848.00
970.1220, 46958.77
971.2380, 47299.76
972.3530, 47704.00
973.4680, 47722.00
974.5830, 48266.00
975.6980, 48259.00
976.8130, 48779.00
977.9280, 48926.00
979.0420, 48799.00
980.1560, 49429.00
981.2710, 49322.20
982.3850, 49339.00
983.4980, 49363.00
984.6120, 49346.00
985.7260, 49083.00
986.8390, 48984.00
987.9520, 48610.00
989.0650, 48562.00
990.1780, 48416.00
991.2910, 48211.00
992.4030, 47831.00
993.5160, 47511.00
994.6280, 47075.00
995.7400, 46987.00
996.8520, 47091.00
997.9640, 46778.05
999.0750, 46714.00
1000.187, 46612.00
1001.298, 46441.00
1002.409, 46662.00
1003.520, 46508.00
1004.631, 46881.00
1005.741, 46709.00
1006.852, 47180.00
1007.962, 47077.00
1009.072, 47234.00
1010.182, 47154.00
1011.292, 47661.00
1012.402, 47553.00
1013.511, 47742.00
1014.621, 47951.00
1015.730, 47891.00
1016.839, 47880.00
1017.948, 47818.86
1019.056, 47728.82
1020.165, 47477.00
1021.273, 47466.00
1022.382, 47142.00
1023.490, 46867.00
1024.598, 46761.00
1025.706, 46411.00
1026.813, 46219.00
1027.921, 46333.00
1029.028, 47034.00
1030.135, 45744.00
1031.242, 46671.00
1032.349, 45860.00
1033.456, 45399.00
1034.562, 45216.00
1035.668, 45189.00
1036.775, 45518.00
1037.881, 45320.00
1038.987, 45323.00
1040.092, 45144.00
1041.198, 45325.00
1042.303, 45405.00
1043.408, 45593.00
1044.514, 45424.00
1045.618, 45668.00
1046.723, 45291.00
1047.828, 45485.00
1048.932, 45158.00
1050.037, 45644.00
1051.141, 45427.00
1052.245, 45657.00
1053.349, 45776.00
1054.452, 45681.00
1055.556, 45946.00
1056.659, 46030.00
1057.762, 46176.00
1058.865, 46518.00
1059.968, 46421.00
1061.071, 46843.00
1062.174, 47034.00
1063.276, 47038.00
1064.378, 47055.00
1065.480, 47482.00
1066.582, 47514.00
1067.684, 47213.00
1068.786, 47565.00
1069.887, 47174.00
1070.988, 47132.00
1072.090, 46826.00
1073.191, 46884.00
1074.291, 46471.82
1075.392, 46294.00
1076.493, 46087.00
1077.593, 45812.00
1078.693, 45647.00
1079.793, 45399.00
1080.893, 45272.00
1081.993, 45295.00
1083.092, 45156.00
1084.192, 45115.00
1085.291, 45033.00
1086.390, 45353.00
1087.489, 45268.00
1088.588, 45305.00
1089.686, 45655.00
1090.785, 45643.00
1091.883, 45871.00
1092.981, 46034.00
1094.079, 46575.00
1095.177, 46787.00
1096.275, 46848.00
1097.373, 46922.00
1098.470, 47117.00
1099.567, 47235.00
1100.664, 47356.08
1101.761, 47453.00
1102.858, 47585.00
1103.954, 47680.12
1105.051, 47753.12
1106.147, 47781.29
1107.243, 47779.00
1108.339, 47785.00
1109.435, 47783.00
1110.531, 47796.00
1111.626, 47807.00
1112.722, 47746.77
1113.817, 47460.00
1114.912, 47554.00
1116.007, 47416.00
1117.101, 47180.00
1118.196, 47170.00
1119.290, 47362.00
1120.385, 46856.00
1121.479, 47060.00
1122.573, 47160.00
1123.666, 46856.00
1124.760, 46615.00
1125.853, 46383.00
1126.947, 46093.00
1128.040, 45864.00
1129.133, 45715.91
1130.226, 45566.00
1131.318, 45393.00
1132.411, 45230.35
1133.503, 44917.77
1134.596, 44815.00
1135.688, 44555.00
1136.780, 44422.00
1137.871, 44213.94
1138.963, 44185.00
1140.054, 43853.00
1141.146, 43639.00
1142.237, 43571.00
1143.328, 43112.00
1144.419, 43339.00
1145.509, 42921.00
1146.600, 42636.00
1147.690, 42246.00
1148.780, 42127.00
1149.870, 41903.00
1150.960, 41474.00
1152.050, 41158.00
1153.139, 40652.00
1154.229, 40321.36
1155.318, 39881.00
1156.407, 39568.38
1157.496, 39157.16
1158.585, 38728.00
1159.674, 38325.00
1160.762, 38079.00
1161.850, 37826.00
1162.939, 37552.00
1164.027, 37234.00
1165.114, 36914.00
1166.202, 36793.00
1167.290, 36747.00
1168.377, 36836.00
1169.464, 36850.00
1170.551, 36726.00
1171.638, 36680.44
1172.725, 36182.00
1173.812, 36465.00
1174.898, 36169.00
1175.984, 36139.00
1177.071, 36261.00
1178.157, 36367.00
1179.242, 36407.00
1180.328, 36419.21
1181.414, 36430.15
1182.499, 36385.00
1183.584, 36337.00
1184.669, 36371.00
1185.754, 36027.11
1186.839, 36309.49
1187.924, 36459.98
1189.008, 36485.68
1190.092, 36012.75
1191.177, 36183.68
1192.260, 36096.61
1193.344, 35998.94
1194.428, 36260.50
1195.512, 35860.10
1196.595, 36115.99
1197.678, 36109.90
1198.761, 36223.71
1199.844, 36077.90
1200.927, 36012.27
1202.009, 36206.38
1203.092, 36256.66
1204.174, 36080.98
1205.256, 36202.43
1206.338, 35792.99
1207.420, 35849.42
1208.502, 36106.84
1209.583, 35944.23
1210.665, 36070.43
1211.746, 36047.00
1212.827, 35820.00
1213.908, 36048.00
1214.988, 36018.00
1216.069, 36055.00
1217.149, 35815.00
1218.230, 35936.67
1219.310, 35939.28
1220.390, 36021.00
1221.470, 36037.00
1222.549, 36033.00
1223.629, 35964.00
1224.708, 35987.57
1225.787, 35894.00
1226.866, 35987.00
1227.945, 35923.00
1229.024, 35932.00
1230.103, 36003.00
1231.181, 35973.32
1232.259, 36060.83
1233.337, 36027.00
1234.415, 36095.00
1235.493, 36187.00
1236.571, 35724.64
1237.648, 36030.69
1238.726, 36204.86
1239.803, 36254.21
1240.880, 35804.95
1241.957, 35999.55
1243.034, 35936.12
1244.110, 35862.10
1245.187, 36147.32
1246.263, 35770.57
1247.339, 36050.09
1248.415, 36067.64
1249.491, 36205.09
1250.566, 36082.91
1251.642, 36040.92
1252.717, 36258.64
1253.793, 36332.55
1254.868, 36180.48
1255.943, 36325.55
1257.017, 35939.72
1258.092, 36019.76
1259.166, 36188.00
1260.241, 36017.00
1261.315, 36230.00
1262.389, 35984.00
1263.462, 35845.00
1264.536, 36110.00
1265.610, 35947.00
1266.683, 36090.00
1267.756, 36108.64
1268.829, 36060.00
1269.902, 36089.00
1270.975, 36103.00
1272.048, 35999.00
1273.120, 36202.00
1274.192, 35993.00
1275.264, 36358.00
1276.336, 36186.00
1277.408, 36032.00
1278.480, 36118.00
1279.551, 35992.00
1280.623, 35998.00
1281.694, 36196.00
1282.765, 36252.00
1283.836, 36066.00
1284.907, 36059.00
1285.977, 36047.00
1287.048, 36050.00
1288.118, 36061.17
1289.188, 36069.70
1290.258, 36053.00
1291.328, 36150.00
1292.398, 36058.00
1293.467, 36187.00
1294.537, 36019.00
1295.606, 35875.00
1296.675, 36039.00
1297.744, 36027.00
1298.813, 36118.00
1299.882, 35929.00
1300.950, 36022.00
1302.018, 36536.00
1303.086, 36274.00
1304.155, 36073.00
1305.222, 36594.00
1306.290, 36156.00
1307.358, 36195.00
1308.425, 36102.00
1309.492, 36195.00
1310.559, 36307.00
1311.626, 36026.00
1312.693, 36325.00
1313.760, 36486.00
1314.826, 36096.00
1315.893, 35961.12
1316.959, 36262.88
1318.025, 36432.75
1319.091, 36477.80
1320.157, 36024.24
1321.222, 36214.54
1322.288, 36146.81
1323.353, 36068.50
1324.418, 36349.41
1325.483, 35968.38
1326.548, 36243.60
1327.612, 36256.85
1328.677, 36390.00
1329.741, 36263.53
1330.806, 36217.25
1331.870, 36430.67
1332.934, 36500.29
1333.997, 36343.93
1335.061, 36484.70
1336.124, 36094.59
1337.188, 36170.34
1338.251, 36447.08
1339.314, 36303.77
1340.377, 36449.29
1341.439, 36484.81
1342.502, 36020.42
1343.564, 36425.42
1344.627, 36454.44
1345.689, 36097.40
1346.751, 36472.61
1347.813, 36168.80
1348.874, 36107.36
1349.936, 36228.31
1350.997, 36159.12
1352.058, 36389.71
1353.119, 36331.51
1354.180, 36247.50
1355.241, 36276.09
1356.301, 35985.59
1357.362, 36287.07
1358.422, 36184.18
1359.482, 36282.30
1360.542, 36425.97
1361.602, 36220.79
1362.662, 36384.94
1363.721, 35976.34
1364.781, 36046.98
1365.840, 36066.02
1366.899, 36391.37
1367.958, 35985.57
1369.017, 36042.89
1370.075, 36297.40
1371.134, 36452.00
1372.192, 36206.00
1373.250, 36535.00
1374.308, 36284.00
1375.366, 36576.00
1376.424, 36485.45
1377.481, 36529.00
1378.539, 36553.00
1379.596, 36234.00
1380.653, 36659.00
1381.710, 37058.00
1382.767, 36509.00
1383.824, 36307.00
1384.880, 36719.00
1385.937, 36498.00
1386.993, 36274.00
1388.049, 36480.00
1389.105, 36604.00
1390.161, 36272.00
1391.216, 36517.00
1392.272, 36439.00
1393.327, 36343.00
1394.382, 36806.00
1395.437, 36898.00
1396.492, 36494.00
1397.547, 36646.00
1398.601, 36775.00
1399.656, 36596.00
1400.710, 36356.94
1401.764, 36671.68
1402.818, 36854.52
1403.872, 36912.55
1404.925, 36471.96
1405.979, 36675.23
1407.032, 36620.47
1408.085, 36555.12
1409.139, 36849.02
1410.191, 36480.94
1411.244, 36769.12
1412.297, 36795.34
1413.349, 36941.45
1414.402, 36827.94
1415.454, 36794.61
1416.506, 37020.99
1417.558, 37103.56
1418.609, 36960.14
1419.661, 37113.87
1420.712, 36736.70
1421.764, 36825.39
1422.815, 37115.08
1423.866, 36984.71
1424.916, 37143.16
1425.967, 37191.61
1427.018, 36740.16
1428.068, 36831.64
1429.118, 36794.68
1430.168, 36788.00
1431.218, 36698.00
1432.268, 36698.00
1433.318, 36847.00
1434.367, 37037.00
1435.416, 36934.00
1436.465, 36869.00
1437.514, 36707.00
1438.563, 36732.00
1439.612, 36731.00
1440.661, 37016.00
1441.709, 36983.00
1442.757, 36956.00
1443.805, 37137.00
1444.853, 36986.00
1445.901, 36712.00
1446.949, 36967.00
1447.996, 36664.00
1449.044, 36834.00
1450.091, 36892.00
1451.138, 36616.00
1452.185, 37041.00
1453.232, 36846.00
1454.278, 36851.00
1455.325, 36959.00
1456.371, 36857.00
1457.417, 37115.00
1458.463, 36890.00
1459.509, 37015.00
1460.555, 36759.00
1461.601, 37089.00
1462.646, 37104.00
1463.691, 36830.00
1464.737, 36758.00
1465.782, 36982.00
1466.826, 37270.00
1467.871, 37069.00
1468.916, 36754.00
1469.960, 37105.00
1471.004, 36974.00
1472.048, 36950.00
1473.092, 36885.00
1474.136, 36849.00
1475.180, 36954.00
1476.223, 36930.00
1477.267, 37063.00
1478.310, 36841.00
1479.353, 36930.00
1480.396, 36878.00
1481.439, 36852.99
1482.481, 36962.00
1483.524, 36851.00
1484.566, 36791.00
1485.608, 36728.00
1486.650, 36901.00
1487.692, 36697.00
1488.734, 36911.00
1489.775, 36881.00
1490.817, 37017.00
1491.858, 37039.00
1492.899, 37278.59
1493.940, 37149.47
1494.981, 37067.42
1496.022, 36973.00
1497.062, 36812.00
1498.103, 36794.00
1499.143, 36933.00
1500.183, 36750.00
1501.223, 36917.00
1502.263, 36850.79
1503.302, 36883.19
1504.342, 36821.00
1505.381, 36952.00
1506.420, 37012.00
1507.459, 36999.00
1508.498, 36808.00
1509.537, 36953.00
1510.576, 36907.00
1511.614, 36870.00
1512.652, 36981.00
1513.691, 37050.00
1514.729, 36973.86
1515.767, 37104.00
1516.804, 36890.00
1517.842, 37011.00
1518.879, 37088.00
1519.917, 36789.00
1520.954, 37043.00
1521.991, 36823.00
1523.028, 36941.00
1524.064, 36711.00
1525.101, 36848.00
1526.137, 36666.00
1527.173, 36820.00
1528.210, 37005.00
1529.245, 36869.00
1530.281, 36879.00
1531.317, 36811.00
1532.352, 36910.00
1533.388, 36954.00
1534.423, 36844.00
##END=



