##NAMES=Arfvedsonite
##RRUFFID=R040127
##IDEAL CHEMISTRY=NaNa_2_(Fe^2+^_4_Fe^3+^)Si_8_O_22_(OH)_2_
##LOCALITY=Mont Saint-Hilaire, Rouville County, Quebec, Canada
##OWNER=RRUFF
##SOURCE=Bob Downs
##DESCRIPTION=Black prismatic crystal associated with white analcime, R040128
##STATUS=The identification of this mineral has been confirmed by X-ray diffraction and chemical analysis
##URL=rruff.info/R040127
##MEASURED CHEMISTRY=(Na_0.61_K_0.39_)Na_2.00_(Fe^2+^_2.40_Mg_0.80_Mn_0.75_Ca_0.05_)_&#931;=4_(Fe^3+^_0.60_Al_0.25_Mn_0.15_)(Si_0.99_Ti_0.01_)_8_O_22_((OH)_0.67_F_0.33_)_2_
##PIN_ID=M00441
##ORIENTATION=Laser parallel to a* (1 0 0). Fiducial mark perpendicular to laser is parallel to -b [0 -1 0]
176.9250, 28127.00
178.1550, 28089.45
179.3840, 28289.00
180.6130, 28269.00
181.8420, 28531.00
183.0710, 28978.00
184.3000, 29133.00
185.5280, 29757.07
186.7570, 30514.00
187.9850, 30965.00
189.2130, 31192.00
190.4400, 31781.00
191.6680, 32071.00
192.8960, 33149.00
194.1230, 33515.00
195.3500, 33680.00
196.5770, 34341.00
197.8030, 34334.00
199.0300, 34424.00
200.2560, 35237.00
201.4830, 35697.00
202.7090, 35713.00
203.9340, 34377.00
205.1600, 31855.00
206.3860, 30389.00
207.6110, 29500.00
208.8360, 28895.00
210.0610, 28721.00
211.2860, 28206.87
212.5100, 28389.00
213.7350, 27872.00
214.9590, 27830.00
216.1830, 28027.00
217.4070, 27446.09
218.6310, 27308.82
219.8540, 26716.00
221.0780, 26685.00
222.3010, 26511.00
223.5240, 26542.00
224.7470, 26318.00
225.9690, 26228.00
227.1920, 26239.00
228.4140, 26270.00
229.6360, 26233.00
230.8580, 26339.00
232.0800, 26284.00
233.3020, 26380.00
234.5230, 26448.00
235.7440, 26521.00
236.9650, 26670.00
238.1860, 26574.00
239.4070, 26439.00
240.6280, 26540.00
241.8480, 26698.00
243.0680, 26688.00
244.2880, 26390.00
245.5080, 26600.00
246.7280, 26599.00
247.9470, 26376.00
249.1660, 26457.00
250.3860, 26326.00
251.6040, 26165.71
252.8230, 26164.73
254.0420, 26101.47
255.2600, 25979.41
256.4790, 25621.79
257.6970, 25568.30
258.9150, 25392.98
260.1320, 25212.78
261.3500, 25202.07
262.5670, 24878.94
263.7840, 24865.66
265.0010, 24738.00
266.2180, 24369.00
267.4350, 24291.00
268.6510, 24055.00
269.8680, 23931.00
271.0840, 23715.00
272.3000, 23511.00
273.5160, 23153.00
274.7310, 22975.00
275.9470, 23213.00
277.1620, 22873.00
278.3770, 22799.00
279.5920, 22429.00
280.8070, 22159.00
282.0210, 22385.00
283.2360, 22162.00
284.4500, 22137.00
285.6640, 22171.00
286.8780, 22056.00
288.0920, 22043.00
289.3050, 22038.00
290.5180, 22048.64
291.7320, 22087.00
292.9450, 22162.00
294.1570, 22259.00
295.3700, 22345.64
296.5830, 22472.28
297.7950, 22655.00
299.0070, 22745.00
300.2190, 22963.00
301.4310, 23117.00
302.6420, 23240.00
303.8540, 23439.00
305.0650, 23763.00
306.2760, 24131.00
307.4870, 24223.00
308.6980, 24317.00
309.9080, 24688.00
311.1190, 24827.00
312.3290, 24736.00
313.5390, 24816.00
314.7490, 24887.00
315.9580, 24943.00
317.1680, 24916.68
318.3770, 24847.41
319.5860, 24775.00
320.7950, 24505.00
322.0040, 24314.00
323.2130, 24147.94
324.4210, 23972.00
325.6290, 23800.00
326.8380, 23674.00
328.0460, 23572.00
329.2530, 23564.00
330.4610, 23658.00
331.6680, 23553.00
332.8760, 23511.00
334.0830, 23680.00
335.2890, 23834.00
336.4960, 23775.00
337.7030, 24147.00
338.9090, 24862.00
340.1150, 24916.05
341.3210, 25893.00
342.5270, 25573.00
343.7330, 25784.00
344.9380, 26295.00
346.1440, 27073.00
347.3490, 27169.00
348.5540, 27125.00
349.7590, 27601.00
350.9630, 27576.00
352.1680, 27903.00
353.3720, 27937.00
354.5760, 27943.00
355.7800, 27844.00
356.9840, 27532.00
358.1870, 27786.00
359.3910, 27251.00
360.5940, 26887.00
361.7970, 26820.00
363.0000, 26435.00
364.2030, 25949.00
365.4050, 26081.00
366.6080, 25697.00
367.8100, 25561.00
369.0120, 25127.00
370.2140, 25022.00
371.4150, 24929.00
372.6170, 24817.00
373.8180, 24526.00
375.0190, 24247.00
376.2200, 24362.00
377.4210, 24145.00
378.6220, 24305.00
379.8220, 24452.00
381.0230, 24160.00
382.2230, 23837.00
383.4230, 23617.00
384.6220, 23655.00
385.8220, 23471.36
387.0220, 23359.33
388.2210, 23404.00
389.4200, 23119.00
390.6190, 23132.00
391.8180, 23053.00
393.0160, 22859.00
394.2150, 22764.00
395.4130, 22348.00
396.6110, 22359.00
397.8090, 22070.00
399.0060, 21884.00
400.2040, 21787.00
401.4010, 21729.00
402.5980, 21686.00
403.7950, 21652.90
404.9920, 21445.00
406.1890, 21631.00
407.3860, 21475.25
408.5820, 21454.00
409.7780, 21581.00
410.9740, 21445.00
412.1700, 21511.19
413.3650, 21538.00
414.5610, 21577.00
415.7560, 21476.00
416.9510, 21595.00
418.1460, 21637.00
419.3410, 21479.00
420.5360, 21426.00
421.7300, 21373.00
422.9240, 21197.00
424.1180, 21241.00
425.3120, 21167.00
426.5060, 21199.00
427.7000, 20923.00
428.8930, 21002.00
430.0860, 20694.00
431.2790, 20629.00
432.4720, 20538.00
433.6650, 20482.00
434.8580, 20401.02
436.0500, 20230.00
437.2420, 20262.00
438.4340, 19964.00
439.6260, 19901.00
440.8180, 19739.00
442.0090, 19559.00
443.2010, 19358.00
444.3920, 19413.00
445.5830, 19292.00
446.7740, 19196.00
447.9640, 18888.00
449.1550, 18823.00
450.3450, 18655.00
451.5350, 18736.00
452.7250, 18726.02
453.9150, 18685.00
455.1050, 18829.00
456.2940, 18678.00
457.4830, 18641.00
458.6720, 18685.00
459.8610, 18754.00
461.0500, 18798.00
462.2390, 18867.87
463.4270, 18953.00
464.6150, 18995.00
465.8040, 19135.00
466.9910, 19181.00
468.1790, 19140.00
469.3670, 19343.00
470.5540, 19130.00
471.7410, 19075.00
472.9280, 19116.00
474.1150, 19280.00
475.3020, 19244.00
476.4890, 19442.00
477.6750, 19472.13
478.8610, 19315.00
480.0470, 19521.00
481.2330, 19522.00
482.4190, 19396.00
483.6040, 19649.00
484.7900, 19804.00
485.9750, 19799.00
487.1600, 20121.00
488.3450, 20211.00
489.5290, 20213.00
490.7140, 20501.00
491.8980, 20691.00
493.0820, 20968.00
494.2660, 21158.00
495.4500, 21501.00
496.6340, 21633.00
497.8170, 21754.00
499.0010, 22225.00
500.1840, 22485.00
501.3670, 22615.00
502.5500, 22827.00
503.7320, 23153.00
504.9150, 23428.00
506.0970, 23587.00
507.2790, 23746.00
508.4610, 23903.00
509.6430, 24135.00
510.8250, 24339.00
512.0060, 24422.00
513.1870, 24688.00
514.3680, 24914.00
515.5490, 25038.00
516.7300, 25593.00
517.9110, 25862.00
519.0910, 26340.00
520.2710, 26634.00
521.4510, 27090.00
522.6310, 27644.00
523.8110, 28384.00
524.9910, 28936.00
526.1700, 29740.00
527.3490, 30456.00
528.5280, 31170.00
529.7070, 32012.00
530.8860, 32280.00
532.0650, 33077.00
533.2430, 33560.00
534.4210, 33390.00
535.5990, 33801.00
536.7770, 33883.00
537.9550, 33797.00
539.1320, 33703.00
540.3100, 33332.00
541.4870, 33127.00
542.6640, 32700.00
543.8410, 32383.00
545.0170, 31687.00
546.1940, 31221.00
547.3700, 30935.00
548.5470, 30801.00
549.7230, 30252.00
550.8980, 30028.00
552.0740, 29728.54
553.2500, 29393.00
554.4250, 29178.00
555.6000, 28935.00
556.7750, 28709.00
557.9500, 28407.00
559.1250, 28202.00
560.2990, 28207.00
561.4730, 28028.00
562.6480, 27994.00
563.8220, 27925.79
564.9950, 27758.00
566.1690, 27778.00
567.3430, 27686.00
568.5160, 27557.99
569.6890, 27396.00
570.8620, 27110.00
572.0350, 26748.00
573.2070, 26452.00
574.3800, 26059.00
575.5520, 25740.00
576.7240, 25362.00
577.8960, 25097.00
579.0680, 24837.00
580.2400, 24335.83
581.4110, 23766.00
582.5830, 23459.00
583.7540, 23097.00
584.9250, 22897.00
586.0950, 22589.00
587.2660, 22557.00
588.4370, 22109.00
589.6070, 21807.00
590.7770, 21800.00
591.9470, 21660.00
593.1170, 21461.00
594.2860, 21386.00
595.4560, 21392.00
596.6250, 21277.77
597.7940, 21317.00
598.9630, 21183.00
600.1320, 21039.00
601.3000, 20985.61
602.4690, 20835.00
603.6370, 20959.00
604.8050, 20744.00
605.9730, 20690.00
607.1410, 20539.00
608.3090, 20663.00
609.4760, 20607.00
610.6430, 20601.00
611.8100, 20339.00
612.9770, 20390.00
614.1440, 20284.00
615.3110, 20272.00
616.4770, 20279.00
617.6430, 20227.00
618.8090, 20076.00
619.9750, 20075.78
621.1410, 20042.00
622.3070, 19985.00
623.4720, 19992.00
624.6370, 19971.00
625.8020, 20015.00
626.9670, 19930.00
628.1320, 20068.00
629.2970, 20019.00
630.4610, 19987.00
631.6250, 19949.00
632.7890, 20263.00
633.9530, 20200.00
635.1170, 20285.00
636.2810, 20731.00
637.4440, 20750.80
638.6070, 20694.00
639.7700, 21132.00
640.9330, 20604.00
642.0960, 20717.00
643.2590, 20871.00
644.4210, 20993.00
645.5830, 20892.00
646.7450, 21088.00
647.9070, 21124.00
649.0690, 21567.00
650.2310, 21560.70
651.3920, 22078.00
652.5530, 21797.00
653.7140, 21901.00
654.8750, 22160.00
656.0360, 22468.00
657.1970, 22475.00
658.3570, 23016.00
659.5170, 23401.00
660.6770, 24026.00
661.8370, 24654.00
662.9970, 25337.00
664.1570, 26221.00
665.3160, 27397.00
666.4750, 28545.00
667.6340, 29619.00
668.7930, 30801.00
669.9520, 31885.99
671.1110, 33175.00
672.2690, 33778.00
673.4270, 34036.00
674.5850, 34244.00
675.7430, 33944.00
676.9010, 33408.00
678.0590, 32751.00
679.2160, 31479.00
680.3730, 29985.00
681.5300, 28629.00
682.6870, 27433.00
683.8440, 26367.25
685.0010, 25414.30
686.1570, 24673.00
687.3130, 23972.00
688.4690, 23472.00
689.6250, 23204.00
690.7810, 23030.00
691.9370, 22805.00
693.0920, 22501.00
694.2470, 22708.00
695.4020, 22718.00
696.5570, 22519.00
697.7120, 22550.00
698.8670, 22685.00
700.0210, 22559.00
701.1750, 22712.00
702.3290, 22710.44
703.4830, 22664.00
704.6370, 22757.00
705.7910, 22784.39
706.9440, 22874.51
708.0970, 22938.00
709.2510, 23006.00
710.4030, 23097.00
711.5560, 22963.00
712.7090, 23071.00
713.8610, 23116.00
715.0140, 23203.00
716.1660, 23239.34
717.3180, 23278.00
718.4690, 23264.00
719.6210, 23230.29
720.7730, 23083.00
721.9240, 23076.00
723.0750, 22988.00
724.2260, 22842.00
725.3770, 23094.00
726.5270, 22823.00
727.6780, 22761.00
728.8280, 22872.00
729.9780, 22777.00
731.1280, 22836.00
732.2780, 22800.00
733.4280, 22493.00
734.5770, 22917.00
735.7260, 22706.00
736.8760, 22321.00
738.0250, 21886.00
739.1730, 21896.00
740.3220, 21728.00
741.4700, 21548.00
742.6190, 21366.00
743.7670, 21206.00
744.9150, 21081.11
746.0630, 21047.00
747.2100, 20807.00
748.3580, 20758.00
749.5050, 20511.00
750.6520, 20552.00
751.7990, 20493.00
752.9460, 20394.48
754.0930, 20201.00
755.2390, 20308.00
756.3860, 20139.00
757.5320, 20146.00
758.6780, 20107.00
759.8240, 19876.00
760.9690, 19673.00
762.1150, 19756.00
763.2600, 19540.00
764.4060, 19647.00
765.5510, 19677.00
766.6950, 19486.00
767.8400, 19478.00
768.9850, 19458.00
770.1290, 19356.00
771.2730, 19298.00
772.4170, 19457.00
773.5610, 19310.00
774.7050, 19124.00
775.8480, 19627.00
776.9920, 19489.00
778.1350, 19042.00
779.2780, 18928.00
780.4210, 19185.00
781.5640, 19048.00
782.7060, 18989.00
783.8490, 18839.00
784.9910, 18869.00
786.1330, 18884.00
787.2750, 18831.00
788.4170, 18746.86
789.5580, 18898.00
790.7000, 18591.00
791.8410, 18422.00
792.9820, 18550.00
794.1230, 18419.43
795.2640, 18375.86
796.4040, 18424.00
797.5450, 18292.00
798.6850, 18161.00
799.8250, 18199.00
800.9650, 18087.00
802.1050, 17981.00
803.2450, 17926.00
804.3840, 17912.00
805.5230, 17919.00
806.6630, 17655.00
807.8020, 17538.00
808.9400, 17545.00
810.0790, 17459.74
811.2170, 17580.00
812.3560, 17474.00
813.4940, 17509.00
814.6320, 17490.00
815.7700, 17474.26
816.9070, 17569.00
818.0450, 17549.00
819.1820, 17298.00
820.3190, 17453.00
821.4560, 17403.24
822.5930, 17705.00
823.7300, 17506.00
824.8670, 17463.00
826.0030, 17517.00
827.1390, 17546.00
828.2750, 17637.00
829.4110, 17688.00
830.5470, 17765.00
831.6820, 17702.00
832.8180, 17705.00
833.9530, 17811.00
835.0880, 17856.92
836.2230, 17918.24
837.3580, 18065.00
838.4920, 18008.00
839.6270, 18066.00
840.7610, 18012.00
841.8950, 18226.00
843.0290, 18251.00
844.1630, 18347.00
845.2960, 18547.00
846.4300, 18608.00
847.5630, 18794.00
848.6960, 18769.00
849.8290, 18848.00
850.9620, 19150.00
852.0940, 19251.00
853.2270, 19253.00
854.3590, 19335.00
855.4910, 19732.00
856.6230, 19908.00
857.7550, 19845.00
858.8870, 20599.00
860.0180, 20501.42
861.1500, 20746.20
862.2810, 20766.00
863.4120, 21042.00
864.5430, 21237.00
865.6730, 21434.00
866.8040, 21804.00
867.9340, 22260.00
869.0640, 22425.00
870.1940, 22801.00
871.3240, 23245.00
872.4540, 23259.00
873.5830, 23686.00
874.7130, 23878.00
875.8420, 24121.63
876.9710, 24365.31
878.1000, 24671.00
879.2290, 24790.00
880.3570, 25067.00
881.4860, 25378.00
882.6140, 25313.00
883.7420, 25619.00
884.8700, 25470.00
885.9980, 25500.00
887.1250, 25543.00
888.2530, 25508.17
889.3800, 25534.00
890.5070, 25484.00
891.6340, 25348.00
892.7610, 25179.00
893.8880, 25256.00
895.0140, 25103.00
896.1400, 24705.00
897.2670, 24772.00
898.3930, 24698.00
899.5180, 24460.00
900.6440, 24582.00
901.7700, 24222.00
902.8950, 24071.00
904.0200, 24124.00
905.1450, 24158.00
906.2700, 24053.00
907.3950, 24016.00
908.5190, 23527.00
909.6440, 23728.00
910.7680, 23501.08
911.8920, 23396.89
913.0160, 23396.00
914.1400, 23296.00
915.2630, 23399.00
916.3870, 23452.00
917.5100, 23340.81
918.6330, 23147.00
919.7560, 23147.00
920.8790, 23108.00
922.0010, 22982.00
923.1240, 22972.00
924.2460, 22873.00
925.3680, 22783.00
926.4900, 22733.05
927.6120, 22657.77
928.7340, 22613.00
929.8550, 22626.00
930.9760, 22616.00
932.0980, 22774.00
933.2190, 22386.00
934.3390, 22340.00
935.4600, 22504.00
936.5810, 22501.00
937.7010, 22618.00
938.8210, 22720.00
939.9410, 22659.00
941.0610, 22775.00
942.1810, 22836.26
943.3010, 23096.00
944.4200, 23021.00
945.5390, 23352.00
946.6580, 23484.00
947.7770, 23612.00
948.8960, 23784.75
950.0150, 23901.75
951.1330, 24018.00
952.2510, 24169.00
953.3690, 24317.00
954.4870, 24506.77
955.6050, 24718.00
956.7230, 24929.00
957.8400, 25162.00
958.9580, 25401.00
960.0750, 25468.00
961.1920, 25792.00
962.3090, 26051.86
963.4250, 26319.00
964.5420, 26679.00
965.6580, 26891.00
966.7740, 27159.00
967.8900, 27542.00
969.0060, 27874.00
970.1220, 28146.00
971.2380, 28378.00
972.3530, 28699.00
973.4680, 28585.00
974.5830, 29079.00
975.6980, 29012.00
976.8130, 29148.00
977.9280, 29363.00
979.0420, 29479.00
980.1560, 29400.00
981.2710, 29400.74
982.3850, 29319.88
983.4980, 29164.00
984.6120, 29062.00
985.7260, 28947.75
986.8390, 28766.00
987.9520, 28589.00
989.0650, 28430.00
990.1780, 28285.00
991.2910, 28071.00
992.4030, 27845.00
993.5160, 27676.00
994.6280, 27347.00
995.7400, 27372.00
996.8520, 27207.00
997.9640, 27255.00
999.0750, 26864.00
1000.187, 26773.00
1001.298, 26486.00
1002.409, 26700.00
1003.520, 26595.00
1004.631, 26390.00
1005.741, 26330.00
1006.852, 26118.00
1007.962, 26242.00
1009.072, 26277.00
1010.182, 26167.00
1011.292, 26107.00
1012.402, 26408.00
1013.511, 26307.00
1014.621, 26390.00
1015.730, 26384.00
1016.839, 26162.00
1017.948, 26220.00
1019.056, 26218.00
1020.165, 26278.00
1021.273, 26288.00
1022.382, 26369.00
1023.490, 26064.00
1024.598, 26191.00
1025.706, 26088.00
1026.813, 25729.00
1027.921, 25881.00
1029.028, 25718.00
1030.135, 25711.00
1031.242, 25567.00
1032.349, 25783.00
1033.456, 25831.00
1034.562, 25847.00
1035.668, 26013.00
1036.775, 25908.00
1037.881, 26081.00
1038.987, 26117.00
1040.092, 26407.00
1041.198, 26052.00
1042.303, 26511.00
1043.408, 26249.00
1044.514, 26368.00
1045.618, 26455.00
1046.723, 26605.00
1047.828, 26593.00
1048.932, 26694.52
1050.037, 26617.31
1051.141, 26783.00
1052.245, 26698.00
1053.349, 26678.00
1054.452, 26792.13
1055.556, 26753.00
1056.659, 26889.00
1057.762, 26709.00
1058.865, 26601.00
1059.968, 26702.00
1061.071, 26603.00
1062.174, 26747.00
1063.276, 26967.00
1064.378, 27233.00
1065.480, 27137.93
1066.582, 27144.21
1067.684, 26894.00
1068.786, 26918.00
1069.887, 26680.00
1070.988, 26695.00
1072.090, 26516.00
1073.191, 26694.00
1074.291, 26574.00
1075.392, 26724.00
1076.493, 26607.82
1077.593, 26660.00
1078.693, 26409.00
1079.793, 26296.00
1080.893, 26264.00
1081.993, 26509.00
1083.092, 26212.00
1084.192, 26562.00
1085.291, 27096.00
1086.390, 27369.00
1087.489, 26157.00
1088.588, 26529.00
1089.686, 26541.00
1090.785, 26125.00
1091.883, 26420.00
1092.981, 26417.00
1094.079, 26175.00
1095.177, 26277.00
1096.275, 26115.00
1097.373, 26025.00
1098.470, 26095.00
1099.567, 26104.00
1100.664, 26043.00
1101.761, 26123.00
1102.858, 25957.81
1103.954, 25988.00
1105.051, 25618.00
1106.147, 25459.00
1107.243, 25098.86
1108.339, 25106.06
1109.435, 25050.98
1110.531, 24936.98
1111.626, 24587.68
1112.722, 24542.24
1113.817, 24375.11
1114.912, 24202.98
1116.007, 24200.47
1117.101, 23885.53
1118.196, 23880.31
1119.290, 23751.54
1120.385, 23679.26
1121.479, 23484.51
1122.573, 23327.62
1123.666, 23293.48
1124.760, 23191.33
1125.853, 22982.59
1126.947, 22914.03
1128.040, 22594.92
1129.133, 22495.78
1130.226, 22491.55
1131.318, 22289.09
1132.411, 22222.89
1133.503, 22104.87
1134.596, 21750.71
1135.688, 21807.14
1136.780, 21674.00
1137.871, 21394.00
1138.963, 21580.00
1140.054, 21381.00
1141.146, 21280.00
1142.237, 21207.00
1143.328, 21055.00
1144.419, 20941.65
1145.509, 20783.00
1146.600, 20662.00
1147.690, 20483.55
1148.780, 20334.00
1149.870, 20197.00
1150.960, 20190.00
1152.050, 20162.00
1153.139, 19965.00
1154.229, 19637.00
1155.318, 19588.00
1156.407, 19404.00
1157.496, 19385.00
1158.585, 19302.00
1159.674, 19055.00
1160.762, 19090.00
1161.850, 18905.00
1162.939, 18751.00
1164.027, 18858.00
1165.114, 18729.00
1166.202, 18654.57
1167.290, 18898.00
1168.377, 18575.00
1169.464, 18667.30
1170.551, 18666.02
1171.638, 18590.00
1172.725, 18499.82
1173.812, 18622.29
1174.898, 18682.52
1175.984, 18683.81
1177.071, 18449.66
1178.157, 18519.53
1179.242, 18467.59
1180.328, 18410.63
1181.414, 18523.29
1182.499, 18323.41
1183.584, 18433.39
1184.669, 18419.69
1185.754, 18556.00
1186.839, 18414.00
1187.924, 18442.00
1189.008, 18430.00
1190.092, 18319.00
1191.177, 18304.00
1192.260, 18491.00
1193.344, 18274.00
1194.428, 18444.00
1195.512, 18414.00
1196.595, 18498.00
1197.678, 18421.00
1198.761, 18357.00
1199.844, 18362.00
1200.927, 18354.00
1202.009, 18374.00
1203.092, 18313.00
1204.174, 18425.00
1205.256, 18575.00
1206.338, 18553.00
1207.420, 18373.00
1208.502, 18703.00
1209.583, 18486.00
1210.665, 18571.00
1211.746, 18542.00
1212.827, 18573.00
1213.908, 18591.36
1214.988, 18491.00
1216.069, 18620.00
1217.149, 18451.00
1218.230, 18475.00
1219.310, 18405.00
1220.390, 18441.00
1221.470, 18385.00
1222.549, 18537.00
1223.629, 18576.00
1224.708, 18406.00
1225.787, 18577.00
1226.866, 18621.00
1227.945, 18371.00
1229.024, 18531.00
1230.103, 18517.00
1231.181, 18488.00
1232.259, 18291.00
1233.337, 18497.00
1234.415, 18477.00
1235.493, 18197.00
1236.571, 18570.00
1237.648, 18423.00
1238.726, 18431.00
1239.803, 18459.00
1240.880, 18428.00
1241.957, 18340.00
1243.034, 18379.00
1244.110, 18357.00
1245.187, 18462.00
1246.263, 18247.00
1247.339, 18698.00
1248.415, 18492.80
1249.491, 18501.00
1250.566, 18282.00
1251.642, 18443.00
1252.717, 18180.00
1253.793, 18153.00
1254.868, 18414.00
1255.943, 17999.00
1257.017, 18096.00
1258.092, 18081.00
1259.166, 17998.00
1260.241, 18005.80
1261.315, 18148.14
1262.389, 18228.21
1263.462, 18249.34
1264.536, 18035.05
1265.610, 18124.76
1266.683, 18092.64
1267.756, 18055.53
1268.829, 18188.03
1269.902, 18007.98
1270.975, 18137.79
1272.048, 18143.91
1273.120, 18206.63
1274.192, 18146.78
1275.264, 18124.79
1276.336, 18225.42
1277.408, 18258.15
1278.480, 18184.19
1279.551, 18250.51
1280.623, 18066.18
1281.694, 18101.81
1282.765, 18232.33
1283.836, 18164.53
1284.907, 18233.10
1285.977, 18095.00
1287.048, 18041.00
1288.118, 18008.00
1289.188, 18107.00
1290.258, 17933.00
1291.328, 17833.00
1292.398, 17897.00
1293.467, 17695.00
1294.537, 17924.00
1295.606, 17951.00
1296.675, 17849.00
1297.744, 17898.00
1298.813, 17819.00
1299.882, 17896.00
1300.950, 17876.00
1302.018, 17756.00
1303.086, 17970.00
1304.155, 18041.00
1305.222, 17897.00
1306.290, 18101.00
1307.358, 18002.00
1308.425, 18054.00
1309.492, 17910.00
1310.559, 18066.00
1311.626, 17787.00
1312.693, 17902.00
1313.760, 17969.00
1314.826, 17918.00
1315.893, 17896.00
1316.959, 18007.00
1318.025, 17995.00
1319.091, 17893.00
1320.157, 17869.00
1321.222, 17836.07
1322.288, 17821.28
1323.353, 17820.00
1324.418, 17842.00
1325.483, 17912.00
1326.548, 17933.00
1327.612, 17912.00
1328.677, 17895.00
1329.741, 17857.00
1330.806, 18161.00
1331.870, 17933.00
1332.934, 18031.00
1333.997, 17901.00
1335.061, 17718.00
1336.124, 17790.00
1337.188, 17991.00
1338.251, 17770.00
1339.314, 17919.00
1340.377, 17761.00
1341.439, 17900.00
1342.502, 17808.00
1343.564, 17684.00
1344.627, 17766.00
1345.689, 17712.00
1346.751, 17890.00
1347.813, 17855.00
1348.874, 17845.00
1349.936, 17812.00
1350.997, 17799.93
1352.058, 17815.36
1353.119, 17804.00
1354.180, 17835.00
1355.241, 17903.00
1356.301, 17866.00
1357.362, 17844.00
1358.422, 17848.00
1359.482, 18045.00
1360.542, 17980.00
1361.602, 17786.00
1362.662, 18072.00
1363.721, 17900.00
1364.781, 17588.00
1365.840, 17611.00
1366.899, 17676.00
1367.958, 17910.00
1369.017, 17876.00
1370.075, 17969.00
1371.134, 17879.00
1372.192, 17835.00
1373.250, 17990.00
1374.308, 17766.00
1375.366, 17654.00
1376.424, 17865.00
1377.481, 17745.00
1378.539, 17898.00
1379.596, 17766.00
1380.653, 17808.00
1381.710, 17769.00
1382.767, 17856.00
1383.824, 17880.00
1384.880, 17792.00
1385.937, 17808.00
1386.993, 17785.00
1388.049, 17782.00
1389.105, 17875.00
1390.161, 17709.00
1391.216, 17753.00
1392.272, 17839.00
1393.327, 17922.00
1394.382, 17666.00
1395.437, 17654.00
1396.492, 17916.00
1397.547, 17713.00
1398.601, 17816.00
1399.656, 17909.00
1400.710, 17842.00
1401.764, 17965.00
1402.818, 17738.00
1403.872, 17917.00
1404.925, 17798.00
1405.979, 17748.00
1407.032, 17863.00
1408.085, 17850.00
1409.139, 17714.00
1410.191, 17853.00
1411.244, 18050.00
1412.297, 17853.00
1413.349, 18002.00
1414.402, 17796.00
1415.454, 17890.00
1416.506, 17794.00
1417.558, 17884.00
1418.609, 18002.00
1419.661, 18103.00
1420.712, 17930.00
1421.764, 17892.00
1422.815, 17968.00
1423.866, 17905.00
1424.916, 17933.47
1425.967, 17949.00
1427.018, 17923.00
1428.068, 18007.00
1429.118, 17947.00
1430.168, 17971.00
1431.218, 17990.87
1432.268, 17926.00
1433.318, 18018.00
1434.367, 17999.00
1435.416, 18012.00
1436.465, 18011.00
1437.514, 17930.00
1438.563, 18214.00
1439.612, 18194.00
1440.661, 18090.00
1441.709, 18016.00
1442.757, 17951.00
1443.805, 17963.00
1444.853, 17947.32
1445.901, 17883.00
1446.949, 17974.00
1447.996, 18032.00
1449.044, 18011.00
1450.091, 18108.00
1451.138, 18081.79
1452.185, 18073.84
1453.232, 18041.00
1454.278, 18137.00
1455.325, 18079.00
1456.371, 18361.00
1457.417, 18183.20
1458.463, 18160.00
1459.509, 17930.00
1460.555, 18219.00
1461.601, 18092.00
1462.646, 18162.00
1463.691, 17952.00
1464.737, 18224.00
1465.782, 18159.00
1466.826, 18149.00
1467.871, 18199.00
1468.916, 18228.00
1469.960, 18187.00
1471.004, 18060.00
1472.048, 18173.00
1473.092, 18113.00
1474.136, 17947.00
1475.180, 18097.00
1476.223, 18093.00
1477.267, 18142.00
1478.310, 18075.00
1479.353, 18193.00
1480.396, 17980.00
1481.439, 18000.00
1482.481, 18162.00
1483.524, 18056.20
1484.566, 18085.00
1485.608, 18040.00
1486.650, 18134.00
1487.692, 18062.00
1488.734, 18107.00
1489.775, 18130.00
1490.817, 18195.00
1491.858, 18058.00
1492.899, 18280.00
1493.940, 18258.00
1494.981, 18448.00
1496.022, 18140.00
1497.062, 18008.00
1498.103, 18117.00
1499.143, 18109.00
1500.183, 18039.00
1501.223, 17991.00
1502.263, 17846.00
1503.302, 17921.49
1504.342, 17933.00
1505.381, 17966.00
1506.420, 18341.00
1507.459, 18217.00
1508.498, 18079.00
1509.537, 18548.00
1510.576, 18183.00
1511.614, 17952.00
1512.652, 18018.00
1513.691, 17930.00
1514.729, 18081.00
1515.767, 18103.89
1516.804, 18269.00
1517.842, 18278.00
1518.879, 18141.00
1519.917, 18266.00
1520.954, 18200.00
1521.991, 18256.00
1523.028, 18175.00
1524.064, 18098.00
1525.101, 17943.00
1526.137, 18044.00
1527.173, 18116.00
1528.210, 18305.00
1529.245, 18302.95
1530.281, 18213.00
1531.317, 18326.00
1532.352, 18256.00
1533.388, 18214.00
1534.423, 18129.00
1535.458, 18112.04
1536.493, 18098.53
1537.528, 18133.00
1538.562, 18094.00
1539.597, 18235.00
1540.631, 18207.00
1541.665, 18276.00
##END=



