##NAMES=Arfvedsonite
##RRUFFID=R040127
##IDEAL CHEMISTRY=NaNa_2_(Fe^2+^_4_Fe^3+^)Si_8_O_22_(OH)_2_
##LOCALITY=Mont Saint-Hilaire, Rouville County, Quebec, Canada
##OWNER=RRUFF
##SOURCE=Bob Downs
##DESCRIPTION=Black prismatic crystal associated with white analcime, R040128
##STATUS=The identification of this mineral has been confirmed by X-ray diffraction and chemical analysis
##URL=rruff.info/R040127
##MEASURED CHEMISTRY=(Na_0.61_K_0.39_)Na_2.00_(Fe^2+^_2.40_Mg_0.80_Mn_0.75_Ca_0.05_)_&#931;=4_(Fe^3+^_0.60_Al_0.25_Mn_0.15_)(Si_0.99_Ti_0.01_)_8_O_22_((OH)_0.67_F_0.33_)_2_
##PIN_ID=L01975
##ORIENTATION=Laser parallel to b* (0 1 0). Fiducial mark perpendicular to laser is parallel to c [0 0 1]
159.6920, 17166.00
160.9250, 17350.00
162.1560, 18415.00
163.3880, 20391.00
164.6200, 21132.00
165.8510, 20712.00
167.0820, 20707.00
168.3130, 20629.00
169.5440, 21100.00
170.7750, 21612.00
172.0050, 21296.00
173.2350, 20458.00
174.4650, 20699.00
175.6950, 20223.00
176.9250, 20266.00
178.1550, 20242.00
179.3840, 20668.00
180.6130, 20682.00
181.8420, 21756.00
183.0710, 21894.00
184.3000, 21217.00
185.5280, 22428.00
186.7570, 23625.00
187.9850, 24950.00
189.2130, 26176.00
190.4400, 27514.00
191.6680, 28610.00
192.8960, 30397.00
194.1230, 30842.00
195.3500, 31493.00
196.5770, 32043.00
197.8030, 32118.00
199.0300, 32437.00
200.2560, 33986.00
201.4830, 34713.00
202.7090, 34658.00
203.9340, 31969.00
205.1600, 27286.00
206.3860, 23171.00
207.6110, 20635.00
208.8360, 19960.00
210.0610, 19456.00
211.2860, 19060.00
212.5100, 18650.00
213.7350, 18468.00
214.9590, 18322.00
216.1830, 17840.00
217.4070, 17611.86
218.6310, 17247.00
219.8540, 17100.00
221.0780, 16893.24
222.3010, 17056.00
223.5240, 16304.00
224.7470, 16204.00
225.9690, 16077.00
227.1920, 16667.00
228.4140, 15901.00
229.6360, 15932.54
230.8580, 15540.00
232.0800, 15568.00
233.3020, 15821.00
234.5230, 16198.00
235.7440, 15389.00
236.9650, 15270.00
238.1860, 15232.00
239.4070, 15231.00
240.6280, 15172.95
241.8480, 15175.76
243.0680, 15095.00
244.2880, 15202.00
245.5080, 15092.00
246.7280, 15176.00
247.9470, 15057.00
249.1660, 14875.50
250.3860, 15039.85
251.6040, 15121.95
252.8230, 15126.16
254.0420, 14819.28
255.2600, 14914.13
256.4790, 14847.97
257.6970, 14775.23
258.9150, 14926.62
260.1320, 14665.02
261.3500, 14812.86
262.5670, 14797.26
263.7840, 14856.48
265.0010, 14753.71
266.2180, 14700.97
267.4350, 14810.27
268.6510, 14829.87
269.8680, 14708.45
271.0840, 14772.44
272.3000, 14505.20
273.5160, 14528.62
274.7310, 14677.46
275.9470, 14564.21
277.1620, 14497.00
278.3770, 14400.00
279.5920, 14286.00
280.8070, 14328.00
282.0210, 14187.00
283.2360, 14195.94
284.4500, 14300.00
285.6640, 14186.00
286.8780, 14167.00
288.0920, 14187.00
289.3050, 14254.00
290.5180, 14063.00
291.7320, 14090.00
292.9450, 14154.00
294.1570, 14096.00
295.3700, 14159.00
296.5830, 14079.00
297.7950, 14200.00
299.0070, 14145.00
300.2190, 14214.00
301.4310, 14357.00
302.6420, 14226.00
303.8540, 14452.00
305.0650, 14450.00
306.2760, 14474.00
307.4870, 14509.00
308.6980, 14673.00
309.9080, 14758.00
311.1190, 14888.00
312.3290, 14659.00
313.5390, 14701.00
314.7490, 14640.00
315.9580, 14651.69
317.1680, 14586.84
318.3770, 14754.00
319.5860, 14495.00
320.7950, 14481.00
322.0040, 14555.00
323.2130, 14366.00
324.4210, 14360.00
325.6290, 14359.00
326.8380, 14257.00
328.0460, 14249.00
329.2530, 14296.00
330.4610, 14277.00
331.6680, 14401.00
332.8760, 14545.00
334.0830, 14302.00
335.2890, 14331.00
336.4960, 14576.00
337.7030, 14903.00
338.9090, 14988.46
340.1150, 15181.00
341.3210, 15426.00
342.5270, 15714.00
343.7330, 16162.00
344.9380, 16640.00
346.1440, 16911.00
347.3490, 17420.00
348.5540, 17786.00
349.7590, 18442.00
350.9630, 18863.00
352.1680, 19456.00
353.3720, 19631.00
354.5760, 21748.00
355.7800, 20174.00
356.9840, 21767.00
358.1870, 20293.00
359.3910, 20059.00
360.5940, 19824.00
361.7970, 19702.00
363.0000, 19267.00
364.2030, 19076.00
365.4050, 18823.00
366.6080, 18469.53
367.8100, 18020.00
369.0120, 17811.00
370.2140, 17538.00
371.4150, 17154.00
372.6170, 17159.00
373.8180, 16977.00
375.0190, 16863.00
376.2200, 16546.00
377.4210, 16455.00
378.6220, 16329.34
379.8220, 16336.00
381.0230, 16149.00
382.2230, 15984.00
383.4230, 15867.00
384.6220, 15849.00
385.8220, 15650.00
387.0220, 15620.00
388.2210, 15354.00
389.4200, 15518.00
390.6190, 15257.67
391.8180, 15196.00
393.0160, 14951.00
394.2150, 14911.00
395.4130, 14880.00
396.6110, 14680.00
397.8090, 14561.00
399.0060, 14526.00
400.2040, 14289.00
401.4010, 14273.00
402.5980, 14401.00
403.7950, 14373.00
404.9920, 14134.00
406.1890, 14181.00
407.3860, 14038.00
408.5820, 14093.00
409.7780, 14366.00
410.9740, 14345.89
412.1700, 14511.00
413.3650, 14538.00
414.5610, 14524.00
415.7560, 14519.00
416.9510, 14547.00
418.1460, 14601.85
419.3410, 14487.00
420.5360, 14616.88
421.7300, 14633.00
422.9240, 14335.00
424.1180, 14134.00
425.3120, 14073.00
426.5060, 14094.00
427.7000, 14085.00
428.8930, 14019.00
430.0860, 14083.00
431.2790, 13899.00
432.4720, 14318.00
433.6650, 13847.00
434.8580, 13818.00
436.0500, 14013.00
437.2420, 13738.00
438.4340, 13738.00
439.6260, 13580.00
440.8180, 13601.00
442.0090, 13577.00
443.2010, 13619.00
444.3920, 13325.00
445.5830, 13220.00
446.7740, 13190.53
447.9640, 13121.86
449.1550, 13067.00
450.3450, 13116.00
451.5350, 12960.00
452.7250, 12814.00
453.9150, 12855.00
455.1050, 12866.00
456.2940, 12880.00
457.4830, 12910.39
458.6720, 12900.00
459.8610, 12922.00
461.0500, 12912.72
462.2390, 12838.00
463.4270, 12880.00
464.6150, 12890.00
465.8040, 12782.00
466.9910, 12971.00
468.1790, 12936.00
469.3670, 13108.00
470.5540, 13076.00
471.7410, 13020.00
472.9280, 13066.00
474.1150, 13073.20
475.3020, 13170.00
476.4890, 13144.00
477.6750, 13171.05
478.8610, 13164.00
480.0470, 13205.00
481.2330, 13053.00
482.4190, 13231.00
483.6040, 13040.00
484.7900, 13222.00
485.9750, 13313.00
487.1600, 13349.00
488.3450, 13342.00
489.5290, 13425.00
490.7140, 13489.00
491.8980, 13778.00
493.0820, 13757.57
494.2660, 13785.62
495.4500, 13869.00
496.6340, 13748.00
497.8170, 13832.00
499.0010, 13934.00
500.1840, 14148.00
501.3670, 14178.00
502.5500, 14171.00
503.7320, 14308.00
504.9150, 14355.00
506.0970, 14479.00
507.2790, 14461.00
508.4610, 14730.00
509.6430, 14675.00
510.8250, 14825.00
512.0060, 14881.00
513.1870, 15108.00
514.3680, 15382.00
515.5490, 15443.00
516.7300, 15612.00
517.9110, 15563.00
519.0910, 15874.00
520.2710, 16107.00
521.4510, 16340.00
522.6310, 16649.00
523.8110, 17019.00
524.9910, 17353.78
526.1700, 17822.00
527.3490, 18223.00
528.5280, 18688.30
529.7070, 19338.00
530.8860, 19606.00
532.0650, 20016.00
533.2430, 20222.00
534.4210, 20620.36
535.5990, 21095.00
536.7770, 21266.00
537.9550, 21313.00
539.1320, 21412.00
540.3100, 21358.00
541.4870, 21379.00
542.6640, 21099.00
543.8410, 20760.00
545.0170, 20230.83
546.1940, 20256.46
547.3700, 20199.92
548.5470, 20065.38
549.7230, 19619.87
550.8980, 19576.23
552.0740, 19371.46
553.2500, 19160.08
554.4250, 19172.98
555.6000, 19081.00
556.7750, 18963.00
557.9500, 18857.00
559.1250, 18684.49
560.2990, 18777.18
561.4730, 18787.59
562.6480, 18720.04
563.8220, 18341.48
564.9950, 18364.72
566.1690, 18226.88
567.3430, 18082.45
568.5160, 18162.23
569.6890, 17828.99
570.8620, 17905.22
572.0350, 17817.99
573.2070, 17805.66
574.3800, 17631.25
575.5520, 17506.96
576.7240, 16456.00
577.8960, 16046.00
579.0680, 15669.00
580.2400, 15390.00
581.4110, 15154.00
582.5830, 14813.50
583.7540, 14467.00
584.9250, 14233.00
586.0950, 13954.00
587.2660, 13706.00
588.4370, 13533.00
589.6070, 13433.00
590.7770, 13310.00
591.9470, 13218.00
593.1170, 13113.00
594.2860, 13025.14
595.4560, 12827.00
596.6250, 12847.00
597.7940, 12815.00
598.9630, 12699.00
600.1320, 12786.00
601.3000, 12776.00
602.4690, 12859.00
603.6370, 12780.00
604.8050, 12862.00
605.9730, 12832.00
607.1410, 12676.00
608.3090, 12687.00
609.4760, 12620.00
610.6430, 12693.00
611.8100, 12775.00
612.9770, 12835.00
614.1440, 12728.00
615.3110, 12766.00
616.4770, 12639.00
617.6430, 12765.00
618.8090, 12752.00
619.9750, 12756.00
621.1410, 12876.00
622.3070, 12732.00
623.4720, 12827.00
624.6370, 12879.00
625.8020, 12814.00
626.9670, 12903.00
628.1320, 13002.00
629.2970, 12858.00
630.4610, 12926.00
631.6250, 13015.00
632.7890, 13025.00
633.9530, 13073.00
635.1170, 13001.00
636.2810, 13240.00
637.4440, 13191.00
638.6070, 13244.00
639.7700, 13422.00
640.9330, 13310.00
642.0960, 13236.00
643.2590, 13494.00
644.4210, 13467.61
645.5830, 13481.46
646.7450, 13641.00
647.9070, 13605.00
649.0690, 13557.00
650.2310, 13930.00
651.3920, 13726.00
652.5530, 13798.00
653.7140, 13956.00
654.8750, 13856.00
656.0360, 14341.00
657.1970, 14216.00
658.3570, 14585.00
659.5170, 14570.00
660.6770, 14936.00
661.8370, 15028.00
662.9970, 15387.00
664.1570, 15871.00
665.3160, 16358.00
666.4750, 16856.30
667.6340, 17273.00
668.7930, 18033.00
669.9520, 18730.00
671.1110, 19526.00
672.2690, 20463.07
673.4270, 21293.39
674.5850, 22129.00
675.7430, 22698.00
676.9010, 22853.00
678.0590, 22559.00
679.2160, 22362.00
680.3730, 21539.00
681.5300, 20548.00
682.6870, 19692.00
683.8440, 19115.00
685.0010, 18421.00
686.1570, 17889.00
687.3130, 17642.00
688.4690, 17327.00
689.6250, 17122.00
690.7810, 17139.00
691.9370, 17073.00
693.0920, 17082.48
694.2470, 17139.73
695.4020, 17162.00
696.5570, 17296.00
697.7120, 17291.00
698.8670, 17384.00
700.0210, 17563.00
701.1750, 17600.00
702.3290, 17801.00
703.4830, 17927.59
704.6370, 17919.00
705.7910, 18209.00
706.9440, 18119.00
708.0970, 18194.00
709.2510, 18053.00
710.4030, 18165.00
711.5560, 18349.00
712.7090, 18345.00
713.8610, 18344.00
715.0140, 18647.00
716.1660, 18497.00
717.3180, 18568.00
718.4690, 18507.00
719.6210, 18677.00
720.7730, 18583.00
721.9240, 18598.00
723.0750, 18703.00
724.2260, 18516.44
725.3770, 18477.00
726.5270, 18293.00
727.6780, 17959.42
728.8280, 18026.06
729.9780, 18010.41
731.1280, 17916.90
732.2780, 17512.28
733.4280, 17509.39
734.5770, 17345.61
735.7260, 17258.00
736.8760, 17172.00
738.0250, 17015.00
739.1730, 16784.00
740.3220, 16571.00
741.4700, 16442.54
742.6190, 16325.51
743.7670, 16203.00
744.9150, 16224.00
746.0630, 16176.00
747.2100, 16199.00
748.3580, 16379.00
749.5050, 15826.00
750.6520, 16059.00
751.7990, 15705.16
752.9460, 15512.00
754.0930, 15323.00
755.2390, 15305.00
756.3860, 15526.00
757.5320, 15177.00
758.6780, 15292.00
759.8240, 15122.00
760.9690, 15102.00
762.1150, 14837.00
763.2600, 14857.00
764.4060, 14812.00
765.5510, 14869.00
766.6950, 14675.00
767.8400, 14903.00
768.9850, 14681.00
770.1290, 14619.93
771.2730, 14829.00
772.4170, 14411.00
773.5610, 14393.00
774.7050, 14379.00
775.8480, 14361.00
776.9920, 14299.00
778.1350, 14195.00
779.2780, 14138.00
780.4210, 14081.77
781.5640, 14133.00
782.7060, 14012.00
783.8490, 14083.00
784.9910, 14109.00
786.1330, 13966.00
787.2750, 13938.00
788.4170, 13970.00
789.5580, 13822.00
790.7000, 13933.00
791.8410, 13967.00
792.9820, 13826.23
794.1230, 13652.00
795.2640, 13652.00
796.4040, 13568.00
797.5450, 13602.00
798.6850, 13481.00
799.8250, 13443.00
800.9650, 13584.00
802.1050, 13456.22
803.2450, 13193.00
804.3840, 13381.00
805.5230, 13229.00
806.6630, 13215.00
807.8020, 13036.00
808.9400, 13086.00
810.0790, 13118.00
811.2170, 13034.45
812.3560, 13261.00
813.4940, 12914.00
814.6320, 13041.00
815.7700, 12868.00
816.9070, 12912.00
818.0450, 13054.00
819.1820, 12834.00
820.3190, 12999.00
821.4560, 12896.27
822.5930, 13099.00
823.7300, 12837.00
824.8670, 12908.00
826.0030, 13046.00
827.1390, 13025.00
828.2750, 13016.00
829.4110, 13017.00
830.5470, 13013.00
831.6820, 12989.00
832.8180, 13025.55
833.9530, 13037.00
835.0880, 12964.68
836.2230, 13178.28
837.3580, 13309.59
838.4920, 13363.01
839.6270, 13105.35
840.7610, 13249.38
841.8950, 13232.43
843.0290, 13208.87
844.1630, 13409.45
845.2960, 13196.99
846.4300, 13371.00
847.5630, 13414.00
848.6960, 13318.00
849.8290, 13426.00
850.9620, 13518.00
852.0940, 13759.00
853.2270, 13646.00
854.3590, 13880.00
855.4910, 13820.77
856.6230, 13851.00
857.7550, 13801.00
858.8870, 13988.00
860.0180, 14135.00
861.1500, 14096.00
862.2810, 14185.00
863.4120, 14215.00
864.5430, 14411.00
865.6730, 14378.00
866.8040, 14613.00
867.9340, 14711.00
869.0640, 14695.00
870.1940, 15018.00
871.3240, 15092.00
872.4540, 15422.00
873.5830, 15463.00
874.7130, 15783.00
875.8420, 16158.00
876.9710, 16560.00
878.1000, 16117.00
879.2290, 16189.00
880.3570, 16325.00
881.4860, 16369.00
882.6140, 16482.00
883.7420, 16669.00
884.8700, 16841.00
885.9980, 16783.00
887.1250, 16774.00
888.2530, 16907.00
889.3800, 16871.00
890.5070, 16869.00
891.6340, 16918.00
892.7610, 16915.00
893.8880, 16844.00
895.0140, 16810.00
896.1400, 16771.00
897.2670, 16783.00
898.3930, 16661.16
899.5180, 16838.00
900.6440, 16470.00
901.7700, 16591.00
902.8950, 16599.00
904.0200, 16698.00
905.1450, 16641.00
906.2700, 16462.00
907.3950, 16424.00
908.5190, 16633.00
909.6440, 16428.81
910.7680, 16422.00
911.8920, 16294.00
913.0160, 16104.00
914.1400, 16111.00
915.2630, 15964.00
916.3870, 16012.00
917.5100, 15758.00
918.6330, 15663.00
919.7560, 15760.00
920.8790, 15772.00
922.0010, 15805.00
923.1240, 15661.00
924.2460, 15673.84
925.3680, 15463.00
926.4900, 15611.00
927.6120, 15463.00
928.7340, 15495.00
929.8550, 15427.00
930.9760, 15747.00
932.0980, 15301.00
933.2190, 15550.00
934.3390, 15406.00
935.4600, 15396.00
936.5810, 15467.00
937.7010, 15583.00
938.8210, 15520.00
939.9410, 15545.00
941.0610, 15724.00
942.1810, 15716.00
943.3010, 15804.00
944.4200, 15973.00
945.5390, 15856.00
946.6580, 15994.00
947.7770, 15998.00
948.8960, 16023.00
950.0150, 16023.00
951.1330, 16083.11
952.2510, 16104.19
953.3690, 16237.00
954.4870, 16256.00
955.6050, 16392.00
956.7230, 16428.48
957.8400, 16503.00
958.9580, 16523.00
960.0750, 16607.00
961.1920, 16671.34
962.3090, 16772.06
963.4250, 16874.00
964.5420, 16971.00
965.6580, 16877.00
966.7740, 16884.00
967.8900, 17176.00
969.0060, 17330.00
970.1220, 17521.00
971.2380, 17546.00
972.3530, 17658.00
973.4680, 17829.68
974.5830, 17943.23
975.6980, 18173.00
976.8130, 18315.00
977.9280, 18504.00
979.0420, 18782.00
980.1560, 18782.56
981.2710, 18679.00
982.3850, 18889.00
983.4980, 18930.00
984.6120, 19104.00
985.7260, 19226.00
986.8390, 19011.00
987.9520, 19632.00
989.0650, 19283.93
990.1780, 19038.00
991.2910, 19076.00
992.4030, 18650.00
993.5160, 18798.00
994.6280, 18642.00
995.7400, 18595.00
996.8520, 18400.00
997.9640, 18309.62
999.0750, 18172.00
1000.187, 18103.00
1001.298, 18015.00
1002.409, 17961.00
1003.520, 18021.00
1004.631, 17902.72
1005.741, 17921.00
1006.852, 17760.00
1007.962, 17815.00
1009.072, 17761.00
1010.182, 17811.00
1011.292, 17769.69
1012.402, 17770.95
1013.511, 17716.00
1014.621, 17714.00
1015.730, 17736.00
1016.839, 17605.00
1017.948, 17646.51
1019.056, 17579.00
1020.165, 17626.00
1021.273, 17448.00
1022.382, 17399.00
1023.490, 17241.00
1024.598, 17171.93
1025.706, 17187.22
1026.813, 17117.00
1027.921, 17117.00
1029.028, 17273.00
1030.135, 16953.00
1031.242, 16949.00
1032.349, 16861.00
1033.456, 17100.00
1034.562, 16906.00
1035.668, 16978.00
1036.775, 16942.00
1037.881, 17013.00
1038.987, 17060.00
1040.092, 17035.62
1041.198, 17126.00
1042.303, 16976.00
1043.408, 16979.00
1044.514, 16864.00
1045.618, 17107.00
1046.723, 16958.00
1047.828, 16990.00
1048.932, 17015.00
1050.037, 16997.00
1051.141, 17068.00
1052.245, 16978.00
1053.349, 17150.00
1054.452, 17096.00
1055.556, 17190.00
1056.659, 17072.00
1057.762, 17051.00
1058.865, 17282.00
1059.968, 17157.00
1061.071, 17285.00
1062.174, 17271.14
1063.276, 17407.00
1064.378, 17189.00
1065.480, 17385.00
1066.582, 17293.00
1067.684, 17368.00
1068.786, 17362.10
1069.887, 17262.00
1070.988, 17260.00
1072.090, 17307.00
1073.191, 17168.79
1074.291, 17437.00
1075.392, 17216.00
1076.493, 17219.00
1077.593, 17389.00
1078.693, 17244.00
1079.793, 17141.00
1080.893, 17349.00
1081.993, 17185.00
1083.092, 17212.00
1084.192, 17288.00
1085.291, 17272.00
1086.390, 17216.57
1087.489, 17358.00
1088.588, 17079.00
1089.686, 17225.00
1090.785, 17266.00
1091.883, 16980.00
1092.981, 17011.00
1094.079, 16991.00
1095.177, 16957.19
1096.275, 16793.82
1097.373, 16950.43
1098.470, 17024.78
1099.567, 17021.25
1100.664, 16706.63
1101.761, 16793.73
1102.858, 16719.83
1103.954, 16639.37
1105.051, 16783.00
1106.147, 16513.66
1107.243, 16653.77
1108.339, 16630.43
1109.435, 16681.90
1110.531, 16571.38
1111.626, 16510.93
1112.722, 16612.48
1113.817, 16624.35
1114.912, 16495.21
1116.007, 16551.47
1117.101, 16276.52
1118.196, 16292.20
1119.290, 16433.32
1120.385, 16224.00
1121.479, 16250.00
1122.573, 16142.00
1123.666, 16209.00
1124.760, 16097.00
1125.853, 16106.00
1126.947, 15884.00
1128.040, 15657.00
1129.133, 15646.00
1130.226, 15534.00
1131.318, 15424.00
1132.411, 15327.00
1133.503, 15272.13
1134.596, 15319.00
1135.688, 15236.00
1136.780, 15191.00
1137.871, 15277.00
1138.963, 14984.00
1140.054, 14938.00
1141.146, 15011.00
1142.237, 14886.00
1143.328, 14877.30
1144.419, 14697.00
1145.509, 14813.00
1146.600, 14674.68
1147.690, 14723.00
1148.780, 14630.00
1149.870, 14566.00
1150.960, 14607.00
1152.050, 14518.00
1153.139, 14508.00
1154.229, 14496.32
1155.318, 14347.00
1156.407, 14421.00
1157.496, 14292.00
1158.585, 14152.00
1159.674, 14108.00
1160.762, 14261.00
1161.850, 14147.00
1162.939, 14095.00
1164.027, 14029.00
1165.114, 13942.00
1166.202, 13980.00
1167.290, 14050.00
1168.377, 13922.00
1169.464, 13823.00
1170.551, 13935.00
1171.638, 13832.00
1172.725, 13738.37
1173.812, 13924.77
1174.898, 14028.87
1175.984, 14055.10
1177.071, 13770.24
1178.157, 13887.09
1179.242, 13842.96
1180.328, 13792.22
1181.414, 13965.62
1182.499, 13726.00
1183.584, 13895.84
1184.669, 13902.24
1185.754, 13983.44
1186.839, 13902.65
1187.924, 13871.90
1189.008, 14003.19
1190.092, 14044.75
1191.177, 13945.32
1192.260, 14031.28
1193.344, 13786.01
1194.428, 13831.39
1195.512, 14002.19
1196.595, 13910.90
1197.678, 13999.82
1198.761, 14020.11
1199.844, 13728.50
1200.927, 13979.31
1202.009, 13995.54
1203.092, 13770.91
1204.174, 14003.14
1205.256, 13811.72
1206.338, 13771.51
1207.420, 13845.11
1208.502, 13800.07
1209.583, 13942.07
1210.665, 13903.89
1211.746, 13849.60
1212.827, 13865.57
1213.908, 13682.46
1214.988, 13868.69
1216.069, 13802.63
1217.149, 13772.00
1218.230, 13834.00
1219.310, 13895.00
1220.390, 13849.43
1221.470, 13798.00
1222.549, 13807.00
1223.629, 13624.79
1224.708, 13813.65
1225.787, 13920.21
1226.866, 13948.91
1227.945, 13666.51
1229.024, 13785.83
1230.103, 13744.16
1231.181, 13695.88
1232.259, 13871.74
1233.337, 13634.59
1234.415, 13806.89
1235.493, 13815.75
1236.571, 13899.41
1237.648, 13821.09
1238.726, 13792.80
1239.803, 13926.54
1240.880, 13970.57
1241.957, 13873.60
1243.034, 13962.01
1244.110, 13719.20
1245.187, 13681.00
1246.263, 13766.00
1247.339, 13821.00
1248.415, 13727.00
1249.491, 13621.00
1250.566, 13750.00
1251.642, 13556.00
1252.717, 13653.65
1253.793, 13615.09
1254.868, 13695.00
1255.943, 13636.00
1257.017, 13511.00
1258.092, 13637.00
1259.166, 13869.00
1260.241, 13622.00
1261.315, 13830.00
1262.389, 13853.00
1263.462, 13851.00
1264.536, 13874.00
1265.610, 13555.68
1266.683, 13746.99
1267.756, 13856.00
1268.829, 13887.15
1269.902, 13607.19
1270.975, 13728.96
1272.048, 13689.73
1273.120, 13643.90
1274.192, 13822.20
1275.264, 13587.49
1276.336, 13762.24
1277.408, 13773.54
1278.480, 13859.64
1279.551, 13783.76
1280.623, 13757.91
1281.694, 13894.10
1282.765, 13940.57
1283.836, 13846.04
1284.907, 13936.89
1285.977, 13696.52
1287.048, 13746.81
1288.118, 13922.50
1289.188, 13836.11
1290.258, 13929.92
1291.328, 13955.11
1292.398, 13668.39
1293.467, 13924.10
1294.537, 13945.22
1295.606, 13725.48
1296.675, 13962.61
1297.744, 13776.07
1298.813, 13740.76
1299.882, 13819.25
1300.950, 13779.09
1302.018, 13953.00
1303.086, 13786.00
1304.155, 13824.00
1305.222, 13803.00
1306.290, 13910.00
1307.358, 13823.00
1308.425, 14040.00
1309.492, 13963.00
1310.559, 13867.00
1311.626, 13910.00
1312.693, 14136.00
1313.760, 13938.00
1314.826, 13864.00
1315.893, 13932.00
1316.959, 13763.00
1318.025, 13991.00
1319.091, 14038.00
1320.157, 13917.00
1321.222, 13966.00
1322.288, 14003.00
1323.353, 13944.00
1324.418, 13890.00
1325.483, 13937.00
1326.548, 13978.00
1327.612, 14065.00
1328.677, 13970.00
1329.741, 13893.00
1330.806, 14014.00
1331.870, 14082.00
1332.934, 13999.00
1333.997, 13956.00
1335.061, 13866.00
1336.124, 13877.71
1337.188, 13753.00
1338.251, 13907.00
1339.314, 13899.00
1340.377, 13912.00
1341.439, 13857.00
1342.502, 13832.00
1343.564, 13856.78
1344.627, 13863.22
1345.689, 13882.00
1346.751, 13956.00
1347.813, 13927.00
1348.874, 14000.00
1349.936, 14112.00
1350.997, 13916.00
1352.058, 14042.00
1353.119, 14099.00
1354.180, 14084.00
1355.241, 14228.00
1356.301, 14158.46
1357.362, 14084.00
1358.422, 14079.00
1359.482, 14010.00
1360.542, 13976.00
1361.602, 14037.00
1362.662, 14147.00
1363.721, 13985.00
1364.781, 13995.00
1365.840, 14263.00
1366.899, 13957.00
1367.958, 14132.00
1369.017, 14131.00
1370.075, 14186.00
1371.134, 14133.00
1372.192, 14126.00
1373.250, 13985.00
1374.308, 14132.00
1375.366, 14068.78
1376.424, 13997.00
1377.481, 13982.00
1378.539, 14275.00
1379.596, 14033.22
1380.653, 14411.00
1381.710, 14201.00
1382.767, 14106.00
1383.824, 14143.00
1384.880, 14055.00
1385.937, 14206.00
1386.993, 14207.00
1388.049, 14175.00
1389.105, 14304.00
1390.161, 14125.00
1391.216, 14201.36
1392.272, 14262.00
1393.327, 14177.00
1394.382, 14264.00
1395.437, 14166.00
1396.492, 14126.00
1397.547, 14246.00
1398.601, 14167.00
1399.656, 14386.00
1400.710, 14309.00
1401.764, 14388.00
1402.818, 14348.00
1403.872, 14297.00
1404.925, 14301.00
1405.979, 14267.00
1407.032, 14287.00
1408.085, 14366.00
1409.139, 14248.00
1410.191, 14345.00
1411.244, 14320.75
1412.297, 14304.07
1413.349, 14391.00
1414.402, 14261.00
1415.454, 14429.00
1416.506, 14348.00
1417.558, 14380.00
1418.609, 14458.00
1419.661, 14265.00
1420.712, 14397.00
1421.764, 14356.00
1422.815, 14482.00
1423.866, 14318.00
1424.916, 14465.00
1425.967, 14361.00
1427.018, 14421.00
1428.068, 14461.00
1429.118, 14407.00
1430.168, 14421.88
1431.218, 14424.08
1432.268, 14385.00
1433.318, 14444.24
1434.367, 14481.71
1435.416, 14523.00
1436.465, 14539.72
1437.514, 14549.00
1438.563, 14555.00
1439.612, 14558.42
1440.661, 14563.00
1441.709, 14557.00
1442.757, 14568.00
1443.805, 14474.00
1444.853, 14494.95
1445.901, 14500.00
1446.949, 14493.00
1447.996, 14509.15
1449.044, 14680.00
1450.091, 14539.00
1451.138, 14553.00
1452.185, 14599.00
1453.232, 14464.00
1454.278, 14534.00
1455.325, 14410.00
1456.371, 14594.00
1457.417, 14631.00
1458.463, 14555.00
1459.509, 14484.00
1460.555, 14559.75
1461.601, 14587.00
1462.646, 14650.00
1463.691, 14507.00
1464.737, 14475.00
1465.782, 14968.00
1466.826, 14664.00
1467.871, 14760.00
1468.916, 14429.00
1469.960, 14715.00
1471.004, 14673.00
1472.048, 14546.00
1473.092, 14601.00
1474.136, 14511.00
1475.180, 14529.15
1476.223, 14696.00
1477.267, 14611.00
1478.310, 14414.00
1479.353, 14524.00
1480.396, 14602.00
1481.439, 14583.00
1482.481, 14751.00
1483.524, 14595.00
1484.566, 14680.00
1485.608, 14691.00
1486.650, 14809.00
1487.692, 14736.47
1488.734, 14435.00
1489.775, 14530.00
1490.817, 14621.00
1491.858, 14381.00
1492.899, 14583.00
1493.940, 14522.00
1494.981, 14675.00
1496.022, 14723.31
1497.062, 14802.00
1498.103, 14735.00
1499.143, 14682.00
1500.183, 14474.00
1501.223, 14775.00
1502.263, 14594.00
1503.302, 14772.00
1504.342, 14592.00
1505.381, 14606.00
1506.420, 14670.00
1507.459, 14637.00
1508.498, 14686.00
1509.537, 14668.00
1510.576, 14658.89
1511.614, 14668.44
1512.652, 14635.00
1513.691, 14674.00
1514.729, 14675.00
1515.767, 14716.00
1516.804, 14645.00
1517.842, 14452.00
1518.879, 14764.00
1519.917, 14774.00
1520.954, 14567.00
1521.991, 14535.02
1523.028, 14816.15
1524.064, 14973.84
1525.101, 15014.73
1526.137, 14588.98
1527.173, 14765.80
1528.210, 14701.13
1529.245, 14626.57
1530.281, 14888.20
1531.317, 14530.31
1532.352, 14786.61
1533.388, 14797.74
1534.423, 14921.08
1535.458, 14801.44
1536.493, 14756.85
1537.528, 14955.31
1538.562, 15019.20
1539.597, 14871.59
1540.631, 15002.06
1541.665, 14635.69
1542.700, 14705.31
1543.733, 14963.03
1544.767, 14827.64
1545.801, 14962.55
1546.834, 14994.52
1547.868, 14558.63
1548.901, 14936.39
1549.934, 14962.27
1550.967, 14626.86
1551.999, 14976.74
1553.032, 14691.13
1554.064, 14632.36
1555.097, 14744.29
1556.129, 14678.26
1557.161, 14892.80
1558.193, 14837.05
1559.224, 14757.16
1560.256, 14782.65
1561.287, 14509.50
1562.318, 14790.39
1563.350, 14896.00
##END=



