##NAMES=Arsenopyrite
##RRUFFID=R050071
##IDEAL CHEMISTRY=Fe^3+^(AsS)^3-^
##LOCALITY=Yaogangxian mine, Yizhang County, Hunan Province, China
##OWNER=RRUFF
##SOURCE=Rock Currier
##DESCRIPTION=Steel-gray tabular
##STATUS=The identification of this mineral has been confirmed by X-ray diffraction and chemical analysis
##URL=rruff.info/R050071
##MEASURED CHEMISTRY=FeAsS
##PIN_ID=L00187
##ORIENTATION=Laser parallel to a* (1 0 0). Fiducial mark perpendicular to laser is parallel to b [0 1 0]
70.00400, 31903.00
71.24100, 34282.00
72.47700, 39827.00
73.71400, 46684.00
74.95100, 52387.00
76.18700, 56064.00
77.42300, 54601.00
78.65900, 52407.00
79.89500, 47219.00
81.13100, 39790.00
82.36700, 36591.00
83.60200, 36070.00
84.83700, 36052.00
86.07200, 35208.00
87.30800, 35774.00
88.54200, 36209.00
89.77700, 37452.00
91.01200, 37284.00
92.24600, 36832.00
93.48000, 35658.00
94.71400, 35614.00
95.94800, 35817.00
97.18200, 34851.00
98.41600, 34954.00
99.64900, 35182.00
100.8830, 35153.00
102.1160, 35671.00
103.3490, 36922.00
104.5820, 39217.00
105.8150, 42940.00
107.0470, 47255.00
108.2800, 53494.00
109.5120, 52903.00
110.7440, 48262.00
111.9760, 51359.00
113.2080, 55760.00
114.4400, 58356.00
115.6710, 59791.00
116.9030, 61766.00
118.1340, 65535.00
119.3650, 62401.00
120.5960, 49324.00
121.8270, 40678.00
123.0580, 37618.00
124.2880, 36081.00
125.5190, 34872.00
126.7490, 34433.00
127.9790, 34434.00
129.2090, 34304.00
130.4390, 34315.00
131.6680, 34175.00
132.8980, 34168.00
134.1270, 34249.00
135.3560, 34422.00
136.5850, 34370.00
137.8140, 34303.00
139.0430, 34387.00
140.2710, 33922.00
141.5000, 33790.00
142.7280, 33537.00
143.9560, 33549.00
145.1840, 33217.00
146.4120, 33257.00
147.6390, 33830.00
148.8670, 33401.00
150.0940, 34315.00
151.3210, 35054.00
152.5490, 34513.00
153.7750, 33768.00
155.0020, 33678.00
156.2290, 34079.00
157.4550, 33995.00
158.6810, 33963.00
159.9080, 34055.00
161.1340, 34211.00
162.3590, 34183.00
163.5850, 34395.00
164.8110, 34634.00
166.0360, 34170.00
167.2610, 33734.00
168.4860, 33542.00
169.7110, 33844.00
170.9360, 33874.00
172.1610, 33807.00
173.3850, 33653.00
174.6100, 33907.00
175.8340, 33629.00
177.0580, 33844.00
178.2820, 33302.00
179.5050, 33674.00
180.7290, 33478.00
181.9520, 33397.00
183.1760, 33502.00
184.3990, 33515.00
185.6220, 33498.00
186.8450, 34087.00
188.0670, 33796.00
189.2900, 33942.00
190.5120, 34410.00
191.7340, 34415.00
192.9560, 34560.00
194.1780, 34668.00
195.4000, 34808.00
196.6220, 34786.00
197.8430, 34738.00
199.0640, 34667.00
200.2860, 35114.00
201.5070, 34723.00
202.7270, 34906.00
203.9480, 34590.00
205.1690, 33860.00
206.3890, 33305.00
207.6090, 33217.00
208.8290, 33036.00
210.0490, 33414.00
211.2690, 33245.00
212.4890, 33306.00
213.7080, 33603.00
214.9280, 33369.00
216.1470, 33321.00
217.3660, 33259.00
218.5850, 33254.00
219.8030, 33330.00
221.0220, 33391.00
222.2400, 33362.00
223.4590, 33380.10
224.6770, 33377.78
225.8950, 33305.00
227.1120, 33358.00
228.3300, 33276.00
229.5480, 33267.00
230.7650, 33146.00
231.9820, 33205.00
233.1990, 33403.00
234.4160, 33117.00
235.6330, 33274.00
236.8490, 33482.00
238.0660, 33401.00
239.2820, 33501.00
240.4980, 33405.00
241.7140, 33302.00
242.9300, 33576.00
244.1460, 33504.68
245.3610, 33469.40
246.5770, 33597.00
247.7920, 33435.00
249.0070, 33360.00
250.2220, 33597.00
251.4370, 33536.00
252.6510, 33645.00
253.8660, 33775.00
255.0800, 34016.00
256.2940, 34198.00
257.5080, 34962.00
258.7220, 38230.00
259.9360, 36638.82
261.1490, 37820.00
262.3630, 35461.00
263.5760, 34931.00
264.7890, 35132.00
266.0020, 35420.00
267.2150, 34970.00
268.4270, 35005.00
269.6400, 34802.00
270.8520, 34358.00
272.0640, 34318.00
273.2760, 34202.00
274.4880, 34294.00
275.7000, 34636.00
276.9120, 34516.00
278.1230, 34551.00
279.3340, 34507.00
280.5450, 34396.00
281.7560, 34269.00
282.9670, 34368.00
284.1780, 34440.00
285.3880, 34448.00
286.5980, 34430.00
287.8090, 34335.00
289.0190, 34429.00
290.2290, 34350.00
291.4380, 34484.00
292.6480, 34451.00
293.8570, 34527.00
295.0670, 34418.00
296.2760, 34550.00
297.4850, 34523.00
298.6930, 34379.00
299.9020, 34473.00
301.1110, 34473.00
302.3190, 34683.00
303.5270, 34780.00
304.7350, 34729.00
305.9430, 34894.00
307.1510, 34938.00
308.3580, 34808.00
309.5660, 34828.00
310.7730, 35015.00
311.9800, 34769.00
313.1870, 34943.00
314.3940, 34797.00
315.6010, 34966.00
316.8070, 35165.00
318.0130, 35019.00
319.2200, 35211.00
320.4260, 34852.00
321.6310, 35252.00
322.8370, 35001.00
324.0430, 35318.00
325.2480, 35320.00
326.4540, 35469.00
327.6590, 35043.00
328.8640, 35694.00
330.0680, 35449.00
331.2730, 35508.00
332.4780, 35681.00
333.6820, 35754.00
334.8860, 35771.47
336.0900, 35646.00
337.2940, 35837.00
338.4980, 35620.00
339.7010, 35780.00
340.9050, 35410.00
342.1080, 35959.00
343.3110, 35813.00
344.5140, 35620.00
345.7170, 35725.00
346.9200, 35657.00
348.1220, 35855.00
349.3240, 35806.06
350.5270, 35662.00
351.7290, 35797.00
352.9310, 35974.00
354.1320, 35990.05
355.3340, 35982.43
356.5350, 35960.00
357.7370, 35856.00
358.9380, 35828.00
360.1390, 35826.00
361.3400, 35762.00
362.5400, 35868.00
363.7410, 35822.00
364.9410, 35829.00
366.1410, 35925.00
367.3410, 35902.95
368.5410, 35911.00
369.7410, 35965.00
370.9400, 35974.00
372.1400, 36030.00
373.3390, 36143.00
374.5380, 35959.00
375.7370, 35883.00
376.9360, 35679.00
378.1350, 35955.00
379.3330, 36161.00
380.5310, 36053.00
381.7300, 36166.00
382.9280, 35964.00
384.1260, 36229.00
385.3230, 36113.00
386.5210, 36294.00
387.7180, 36351.00
388.9160, 36097.00
390.1130, 36462.00
391.3100, 36384.00
392.5060, 36186.00
393.7030, 36258.00
394.9000, 36408.00
396.0960, 36297.00
397.2920, 36076.00
398.4880, 36591.00
399.6840, 36591.00
400.8800, 36367.00
402.0750, 36451.00
403.2710, 36578.00
404.4660, 36485.00
405.6610, 36622.00
406.8560, 36784.00
408.0510, 36792.00
409.2450, 36550.00
410.4400, 36718.00
411.6340, 36733.00
412.8280, 36912.00
414.0220, 36700.00
415.2160, 36797.00
416.4100, 37141.00
417.6030, 36862.00
418.7970, 36980.00
419.9900, 36874.00
421.1830, 37028.00
422.3760, 37085.00
423.5690, 37220.00
424.7610, 37337.00
425.9540, 37200.00
427.1460, 37088.00
428.3380, 37406.00
429.5300, 37222.00
430.7220, 37270.00
431.9140, 37254.00
433.1050, 37293.00
434.2970, 37406.00
435.4880, 37470.00
436.6790, 37406.00
437.8700, 37470.00
439.0610, 37292.00
440.2510, 37469.00
441.4420, 37373.00
442.6320, 37531.00
443.8220, 37543.00
445.0120, 37518.00
446.2020, 37586.65
447.3910, 37551.00
448.5810, 37610.00
449.7700, 37565.00
450.9600, 37564.00
452.1490, 37665.00
453.3370, 37586.00
454.5260, 37751.00
455.7150, 37501.00
456.9030, 37735.00
458.0910, 37523.00
459.2800, 37921.00
460.4670, 37840.00
461.6550, 38038.00
462.8430, 37849.00
464.0300, 37647.00
465.2180, 38050.00
466.4050, 38219.00
467.5920, 37947.00
468.7790, 37912.00
469.9650, 38080.00
471.1520, 37804.00
472.3380, 37726.00
473.5250, 37970.00
474.7110, 37948.00
475.8970, 38015.00
477.0820, 38261.00
478.2680, 38436.00
479.4540, 38406.00
480.6390, 38309.00
481.8240, 38247.00
483.0090, 38553.00
484.1940, 38276.00
485.3780, 38531.00
486.5630, 38401.00
487.7470, 38548.00
488.9320, 38802.00
490.1160, 38478.00
491.3000, 38658.00
492.4830, 38390.00
493.6670, 38680.00
494.8500, 38787.00
496.0340, 38595.00
497.2170, 38863.00
498.4000, 38623.00
499.5820, 38774.00
500.7650, 38957.00
501.9480, 38938.00
503.1300, 38924.00
504.3120, 38775.00
505.4940, 38931.00
506.6760, 38875.00
507.8580, 39193.00
509.0390, 39043.00
510.2210, 38935.00
511.4020, 39204.00
512.5830, 39271.00
513.7640, 39242.00
514.9450, 39345.00
516.1250, 39313.00
517.3060, 39256.00
518.4860, 39398.00
519.6660, 39510.00
520.8460, 39558.00
522.0260, 39568.00
523.2060, 39385.00
524.3850, 39444.73
525.5650, 39414.46
526.7440, 39339.00
527.9230, 39570.00
529.1020, 39389.00
530.2810, 39721.00
531.4590, 39404.00
532.6380, 39596.00
533.8160, 39617.00
534.9940, 39410.00
536.1720, 39644.00
537.3500, 39567.00
538.5270, 39588.00
539.7050, 39431.00
540.8820, 39484.00
542.0590, 39681.00
543.2360, 39808.00
544.4130, 39719.00
545.5900, 39606.00
546.7660, 39607.00
547.9430, 39581.57
549.1190, 39656.00
550.2950, 39720.00
551.4710, 39745.00
552.6470, 39824.99
553.8220, 39876.00
554.9980, 40002.00
556.1730, 39961.00
557.3480, 40145.00
558.5230, 40116.00
559.6980, 39978.00
560.8730, 40005.00
562.0470, 40174.00
563.2220, 40182.00
564.3960, 40112.00
565.5700, 40298.00
566.7440, 40124.00
567.9170, 40066.00
569.0910, 40343.00
570.2640, 40410.00
571.4380, 40045.00
572.6110, 40015.00
573.7840, 39936.00
574.9570, 39736.00
576.1290, 39859.00
577.3020, 39756.73
578.4740, 39973.00
579.6460, 39682.00
580.8180, 39655.00
581.9900, 39502.00
583.1620, 39594.00
584.3330, 39275.00
585.5040, 39296.00
586.6760, 39334.00
587.8470, 39117.00
589.0180, 39316.00
590.1880, 39400.00
591.3590, 39121.00
592.5290, 39207.00
593.7000, 39194.00
594.8700, 39297.00
596.0400, 39486.00
597.2090, 39337.00
598.3790, 39224.00
599.5490, 39354.00
600.7180, 39254.00
601.8870, 39255.00
603.0560, 39382.00
604.2250, 39378.00
605.3940, 39335.45
606.5620, 39284.00
607.7300, 39252.00
608.8990, 39224.00
610.0670, 39309.00
611.2350, 39784.00
612.4020, 39912.00
613.5700, 39522.00
614.7370, 39229.00
615.9050, 39402.00
617.0720, 39162.00
618.2390, 39531.00
619.4060, 39497.00
620.5720, 39465.00
621.7390, 39427.00
622.9050, 39504.00
624.0710, 39444.25
625.2370, 39596.00
626.4030, 39328.00
627.5690, 39568.00
628.7340, 39377.00
629.9000, 39620.00
631.0650, 39424.00
632.2300, 39494.00
633.3950, 39770.00
634.5600, 39607.00
635.7240, 39621.00
636.8890, 39462.00
638.0530, 39289.00
639.2170, 39400.00
640.3810, 39689.00
641.5450, 39448.00
642.7080, 39434.00
643.8720, 39328.00
645.0350, 39277.45
646.1980, 39648.00
647.3610, 39291.00
648.5240, 39446.00
649.6870, 39554.00
650.8490, 39270.00
652.0120, 39290.00
653.1740, 39342.00
654.3360, 39680.00
655.4980, 39311.00
656.6600, 39556.00
657.8210, 39598.00
658.9830, 39482.00
660.1440, 39530.00
661.3050, 39482.22
662.4660, 39477.27
663.6270, 39404.00
664.7870, 39496.00
665.9480, 39433.00
667.1080, 39444.00
668.2680, 39581.00
669.4280, 39689.00
670.5880, 39593.00
671.7480, 39629.00
672.9070, 39467.00
674.0670, 39538.00
675.2260, 39637.00
676.3850, 39627.00
677.5440, 39723.00
678.7030, 39608.00
679.8610, 39635.34
681.0200, 39587.00
682.1780, 39614.00
683.3360, 39616.00
684.4940, 39665.00
685.6520, 39689.00
686.8090, 39710.00
687.9670, 39597.00
689.1240, 39623.00
690.2810, 39610.43
691.4380, 39655.00
692.5950, 39612.00
693.7520, 39494.00
694.9080, 39457.93
696.0650, 39447.00
697.2210, 39471.00
698.3770, 39702.00
699.5330, 39827.00
700.6880, 39585.00
701.8440, 39669.00
702.9990, 39528.00
704.1550, 39887.00
705.3100, 40096.00
706.4650, 39616.00
707.6190, 39785.00
708.7740, 39730.00
709.9290, 39770.00
711.0830, 39608.00
712.2370, 39928.00
713.3910, 39657.00
714.5450, 39933.00
715.6980, 39731.00
716.8520, 39666.00
718.0050, 39980.00
719.1580, 39788.00
720.3110, 39783.05
721.4640, 39746.64
722.6170, 39702.00
723.7700, 39598.00
724.9220, 39839.00
726.0740, 39974.00
727.2260, 39737.00
728.3780, 39938.00
729.5300, 39956.00
730.6810, 40104.00
731.8330, 39959.00
732.9840, 40180.00
734.1350, 40215.00
735.2860, 39970.00
736.4370, 40014.00
737.5880, 40061.00
738.7380, 40215.00
739.8880, 40172.00
741.0390, 40213.00
742.1890, 40270.00
743.3380, 40044.00
744.4880, 40163.00
745.6380, 40362.00
746.7870, 40477.00
747.9360, 40721.00
749.0850, 40679.00
750.2340, 40244.00
751.3830, 40274.00
752.5310, 40463.00
753.6800, 40204.00
754.8280, 40293.00
755.9760, 40343.00
757.1240, 40321.00
758.2720, 40360.00
759.4190, 40316.00
760.5670, 40206.00
761.7140, 40380.00
762.8610, 40546.00
764.0080, 40522.00
765.1550, 40545.00
766.3020, 40478.00
767.4480, 40360.00
768.5950, 40506.00
769.7410, 40732.00
770.8870, 40298.00
772.0330, 40365.00
773.1780, 40393.00
774.3240, 40694.00
775.4690, 40380.00
776.6140, 40646.00
777.7590, 40484.00
778.9040, 40564.00
780.0490, 40500.00
781.1940, 40403.00
782.3380, 40502.00
783.4820, 40402.00
784.6260, 40472.00
785.7700, 40466.00
786.9140, 40499.00
788.0580, 40631.00
789.2010, 40597.59
790.3450, 40754.00
791.4880, 40664.00
792.6310, 40567.00
793.7730, 40700.00
794.9160, 40721.00
796.0590, 40926.00
797.2010, 40964.00
798.3430, 40837.64
799.4850, 40730.00
800.6270, 40598.00
801.7690, 40563.00
802.9100, 40664.00
804.0520, 40779.00
805.1930, 40921.00
806.3340, 40709.00
807.4750, 40753.00
808.6160, 40788.00
809.7560, 40893.00
810.8970, 40764.00
812.0370, 40674.00
813.1770, 40814.00
814.3170, 40863.00
815.4570, 40854.00
816.5960, 40917.00
817.7360, 40859.00
818.8750, 40886.00
820.0140, 40779.00
821.1530, 40889.00
822.2920, 41062.00
823.4310, 40761.00
824.5690, 40953.00
825.7070, 40943.00
826.8460, 40802.00
827.9840, 40637.00
829.1220, 40993.00
830.2590, 41018.00
831.3970, 40928.00
832.5340, 40849.00
833.6710, 40824.00
834.8080, 40773.00
835.9450, 40881.16
837.0820, 41327.00
838.2190, 41123.00
839.3550, 41038.00
840.4910, 41087.00
841.6270, 40824.00
842.7630, 40805.00
843.8990, 41129.00
845.0350, 40825.00
846.1700, 41018.00
847.3060, 41133.00
848.4410, 41056.00
849.5760, 40910.00
850.7100, 41004.00
851.8450, 41226.00
852.9800, 40941.00
854.1140, 41365.00
855.2480, 40950.00
856.3820, 41023.00
857.5160, 41083.00
858.6500, 41335.00
859.7830, 41198.00
860.9170, 40869.00
862.0500, 41251.00
863.1830, 41275.00
864.3160, 41228.00
865.4480, 41762.00
866.5810, 41660.92
867.7130, 41937.00
868.8460, 41847.00
869.9780, 41691.00
871.1100, 41805.00
872.2410, 41582.00
873.3730, 41468.00
874.5050, 41342.00
875.6360, 41563.00
876.7670, 41379.00
877.8980, 41390.00
879.0290, 41527.00
880.1590, 41362.00
881.2900, 41466.00
882.4200, 41551.00
883.5500, 41588.00
884.6800, 41671.00
885.8100, 41623.00
886.9400, 41251.00
888.0690, 41398.00
889.1990, 41519.00
890.3280, 41559.00
891.4570, 41833.00
892.5860, 41468.00
893.7140, 41738.00
894.8430, 41465.00
895.9710, 41790.00
897.1000, 41520.00
898.2280, 41855.00
899.3560, 41712.00
900.4830, 41815.00
901.6110, 41841.00
902.7380, 41846.22
903.8660, 41755.00
904.9930, 41926.00
906.1200, 41876.00
907.2460, 41880.00
908.3730, 42099.00
909.5000, 42380.00
910.6260, 41847.00
911.7520, 41909.00
912.8780, 42060.00
914.0040, 42292.00
915.1290, 41853.00
916.2550, 42257.00
917.3800, 41813.00
918.5050, 41953.00
919.6300, 42461.00
920.7550, 41942.00
921.8800, 42307.00
923.0040, 42119.00
924.1290, 42066.00
925.2530, 42120.00
926.3770, 42411.00
927.5010, 42314.00
928.6250, 42291.00
929.7480, 41978.00
930.8720, 42356.00
931.9950, 42385.00
933.1180, 42197.00
934.2410, 42531.00
935.3640, 42483.00
936.4860, 42555.00
937.6090, 42463.44
938.7310, 42284.00
939.8530, 42196.00
940.9750, 42343.00
942.0970, 42435.00
943.2180, 42620.00
944.3400, 42562.00
945.4610, 42487.00
946.5820, 42545.00
947.7030, 42606.00
948.8240, 42594.00
949.9450, 42615.31
951.0650, 42610.31
952.1860, 42575.48
953.3060, 42590.56
954.4260, 42529.00
955.5460, 42542.00
956.6650, 42711.00
957.7850, 42775.00
958.9040, 42746.00
960.0230, 42619.00
961.1420, 42768.00
962.2610, 42771.00
963.3800, 42848.00
964.4990, 42840.00
965.6170, 42637.00
966.7350, 42648.00
967.8530, 42715.00
968.9710, 42797.00
970.0890, 42800.00
971.2070, 42989.00
972.3240, 42938.00
973.4410, 43062.00
974.5580, 42785.00
975.6750, 42993.00
976.7920, 42935.00
977.9090, 42987.00
979.0250, 43013.00
980.1410, 43176.00
981.2580, 43049.00
982.3740, 42628.00
983.4890, 43038.00
984.6050, 42990.00
985.7200, 43072.00
986.8360, 43350.00
987.9510, 43306.00
989.0660, 43405.09
990.1810, 43443.44
991.2950, 43403.00
992.4100, 43431.00
993.5240, 43329.00
994.6390, 43312.00
995.7530, 43211.00
996.8660, 43194.01
997.9800, 43164.83
999.0940, 43174.00
1000.207, 43183.00
1001.320, 43217.00
1002.433, 43246.54
1003.546, 43361.00
1004.659, 43363.00
1005.772, 43435.00
1006.884, 43568.00
1007.996, 43345.00
1009.108, 43237.00
1010.220, 43479.00
1011.332, 43212.00
1012.444, 43743.00
1013.555, 43262.00
1014.666, 43507.00
1015.777, 43854.00
1016.888, 43605.00
1017.999, 43415.00
1019.110, 43415.00
1020.220, 43804.00
1021.331, 43250.00
1022.441, 43587.00
1023.551, 43441.00
1024.661, 43550.09
1025.770, 43601.71
1026.880, 43816.00
1027.989, 43646.00
1029.098, 43467.00
1030.207, 43525.00
1031.316, 43874.00
1032.425, 43927.00
1033.533, 43816.00
1034.642, 43613.00
1035.750, 43879.00
1036.858, 43890.00
1037.966, 43939.00
1039.073, 43787.00
1040.181, 43932.00
1041.288, 43761.00
1042.396, 44074.00
1043.503, 44106.00
1044.610, 44028.00
1045.716, 43982.00
1046.823, 44066.00
1047.929, 44009.00
1049.036, 44006.00
1050.142, 44166.00
1051.248, 44345.00
1052.353, 44182.00
1053.459, 44024.00
1054.564, 44339.00
1055.670, 44006.00
1056.775, 44611.00
1057.880, 44124.00
1058.985, 44908.00
1060.089, 44525.00
1061.194, 44042.00
1062.298, 44341.00
1063.402, 44383.00
1064.506, 44231.00
1065.610, 44027.00
1066.713, 44310.00
1067.817, 44128.00
1068.920, 44105.00
1070.023, 44273.00
1071.126, 44355.00
1072.229, 44239.00
1073.332, 44185.00
1074.435, 44088.00
1075.537, 44424.00
1076.639, 44275.39
1077.741, 44802.00
1078.843, 44270.00
1079.945, 44341.00
1081.046, 44373.00
1082.148, 44073.00
1083.249, 44082.00
1084.350, 44509.00
1085.451, 44426.00
1086.551, 44321.00
1087.652, 44539.00
1088.752, 44160.00
1089.853, 44541.00
1090.953, 44337.00
1092.053, 44365.00
1093.152, 44304.00
1094.252, 44200.00
1095.351, 44278.00
1096.451, 44422.00
1097.550, 44523.00
1098.649, 44418.00
1099.748, 44288.00
1100.846, 44323.00
1101.945, 44439.00
1103.043, 44738.00
1104.141, 44628.21
1105.239, 44125.00
1106.337, 44541.00
1107.434, 44361.00
1108.532, 44306.00
1109.629, 44340.00
1110.726, 44337.00
1111.823, 44238.00
1112.920, 44199.00
1114.017, 44129.00
1115.113, 44391.00
1116.210, 44383.00
1117.306, 44581.00
1118.402, 44489.00
1119.498, 44357.00
1120.593, 44497.00
1121.689, 44378.00
1122.784, 44478.00
1123.879, 44656.00
1124.974, 44695.00
1126.069, 44275.00
1127.164, 44341.00
1128.259, 44075.00
1129.353, 44383.00
1130.447, 44101.00
1131.541, 44101.00
1132.635, 44016.00
1133.729, 44047.00
1134.822, 43917.00
1135.916, 43887.43
1137.009, 43714.00
1138.102, 43746.00
1139.195, 43729.82
1140.288, 43892.00
1141.380, 43782.00
1142.473, 43736.00
1143.565, 43731.00
1144.657, 43711.62
1145.749, 43786.86
1146.841, 43776.00
1147.932, 43889.00
1149.024, 43979.00
1150.115, 43847.00
1151.206, 44043.00
1152.297, 43723.00
1153.388, 43691.00
1154.479, 43878.00
1155.569, 43834.00
1156.659, 43674.00
1157.750, 43834.00
1158.839, 43545.00
1159.929, 43923.00
1161.019, 43924.00
1162.108, 43578.00
1163.198, 43769.00
1164.287, 43838.00
1165.376, 43758.00
1166.465, 43779.02
1167.553, 43569.00
1168.642, 43825.00
1169.730, 43416.00
1170.818, 43856.00
1171.906, 43697.00
1172.994, 43816.00
1174.082, 43588.00
1175.170, 43692.00
1176.257, 43648.00
1177.344, 43600.00
1178.431, 43598.00
1179.518, 43823.00
1180.605, 43634.00
1181.691, 43753.00
1182.778, 43564.00
1183.864, 43673.00
1184.950, 43708.00
1186.036, 43741.00
1187.122, 43610.00
1188.207, 43628.00
1189.292, 43543.00
1190.378, 43567.00
1191.463, 43533.00
1192.548, 43401.00
1193.632, 43638.00
1194.717, 43658.00
1195.801, 43886.00
1196.886, 43461.00
1197.970, 43715.00
1199.054, 43346.00
1200.137, 43513.00
1201.221, 43283.00
1202.305, 43644.00
1203.388, 43802.00
1204.471, 43683.00
1205.554, 43541.00
1206.637, 43558.00
1207.719, 43502.02
1208.802, 43748.00
1209.884, 43557.00
1210.966, 43586.00
1212.048, 43707.00
1213.130, 43639.00
1214.212, 43568.00
1215.293, 43805.00
1216.374, 43536.00
1217.456, 43773.00
1218.536, 43496.00
1219.617, 43436.00
1220.698, 43604.00
1221.778, 43838.00
1222.859, 43876.00
1223.939, 43686.00
1225.019, 43620.00
1226.099, 43802.00
1227.178, 43448.00
1228.258, 43617.00
1229.337, 43686.00
1230.417, 43748.00
1231.496, 43844.45
1232.574, 43864.00
1233.653, 43891.00
1234.732, 43839.00
1235.810, 43678.00
1236.888, 43697.00
1237.966, 43664.00
1239.044, 43798.00
1240.122, 43640.00
1241.199, 43729.00
1242.277, 43459.00
1243.354, 43895.00
1244.431, 43750.00
1245.508, 43629.00
1246.585, 43714.00
1247.661, 43625.00
1248.738, 43611.00
1249.814, 43809.00
1250.890, 43615.00
1251.966, 43786.00
1253.042, 43813.00
1254.117, 43799.00
1255.193, 43850.75
1256.268, 43764.00
1257.343, 43848.00
1258.418, 43731.00
1259.493, 43750.00
1260.567, 43852.00
1261.642, 43454.00
1262.716, 43846.00
1263.790, 43840.00
1264.864, 44157.00
1265.938, 43591.00
1267.011, 43613.00
1268.085, 43926.00
1269.158, 43772.00
1270.231, 43951.00
1271.304, 43762.00
1272.377, 43877.00
1273.450, 43867.00
1274.522, 43860.00
1275.594, 43858.00
1276.666, 43680.00
1277.738, 43810.00
1278.810, 43967.00
1279.882, 44155.00
1280.953, 43894.00
1282.025, 43918.00
1283.096, 43735.00
1284.167, 43832.00
1285.238, 43966.00
1286.308, 43858.00
1287.379, 43871.00
1288.449, 43883.00
1289.519, 43751.00
1290.589, 43858.48
1291.659, 44031.00
1292.729, 43967.00
1293.798, 44055.00
1294.868, 44061.00
1295.937, 44100.00
1297.006, 43862.00
1298.075, 43906.00
1299.143, 44043.00
1300.212, 44246.00
1301.280, 44085.00
1302.348, 44021.00
1303.416, 43979.00
1304.484, 44004.00
1305.552, 43923.00
1306.620, 43936.00
1307.687, 43897.37
1308.754, 44023.00
1309.821, 43934.00
1310.888, 43764.00
1311.955, 43994.00
1313.021, 43924.00
1314.088, 44090.00
1315.154, 44043.00
1316.220, 44107.00
1317.286, 44198.00
1318.352, 44055.00
1319.417, 44190.00
1320.483, 44060.00
1321.548, 44057.00
1322.613, 44210.00
1323.678, 44248.00
1324.743, 44243.00
1325.807, 44286.00
1326.872, 44240.95
1327.936, 44240.14
1329.000, 44164.00
1330.064, 44181.00
1331.128, 44183.00
1332.191, 44127.00
1333.255, 44199.00
1334.318, 44140.00
1335.381, 44302.00
1336.444, 44256.00
1337.507, 44052.00
1338.569, 44179.00
1339.632, 44135.00
1340.694, 43982.00
1341.756, 44213.00
1342.818, 43775.00
1343.880, 44106.00
1344.941, 44223.00
1346.003, 44358.00
1347.064, 44259.00
1348.125, 44143.00
1349.186, 44279.00
1350.247, 44209.00
1351.308, 44337.00
1352.368, 44135.00
1353.428, 44033.00
1354.489, 44069.00
1355.549, 44292.00
1356.608, 44202.00
1357.668, 44274.00
1358.727, 44050.00
1359.787, 44464.00
1360.846, 44407.00
1361.905, 44233.00
1362.964, 44224.00
1364.022, 44196.00
1365.081, 44285.00
1366.139, 44085.00
1367.197, 44357.00
1368.255, 44207.00
1369.313, 44310.00
1370.371, 44321.00
1371.428, 44492.00
1372.486, 44280.00
1373.543, 44396.00
1374.600, 44416.00
1375.657, 44480.00
1376.713, 44470.69
1377.770, 44495.93
1378.826, 44452.00
1379.882, 44487.00
1380.938, 44437.11
1381.994, 44425.64
1383.050, 44345.00
1384.106, 44370.00
1385.161, 44323.00
1386.216, 44270.00
1387.271, 44286.13
1388.326, 44463.00
1389.381, 44299.00
1390.435, 44417.00
1391.490, 44470.00
1392.544, 44402.00
1393.598, 44592.00
1394.652, 44318.00
1395.705, 44213.00
1396.759, 44372.00
1397.812, 44468.00
1398.866, 44607.00
1399.919, 44624.14
1400.972, 44543.00
1402.024, 44544.00
1403.077, 44483.00
1404.129, 44257.00
1405.181, 44393.00
1406.233, 44487.00
1407.285, 44274.00
1408.337, 44451.00
1409.389, 44544.00
1410.440, 44443.00
1411.491, 44210.00
1412.542, 44549.00
1413.593, 44366.00
1414.644, 44190.00
1415.695, 44316.00
1416.745, 44431.00
1417.795, 44527.00
1418.845, 44368.00
1419.895, 44444.00
1420.945, 44506.00
1421.995, 44349.00
1423.044, 44574.00
1424.093, 44471.00
1425.142, 44519.87
1426.191, 44599.00
1427.240, 44560.00
1428.289, 44550.00
1429.337, 44513.00
1430.385, 44516.14
1431.433, 44505.00
1432.481, 44457.00
1433.529, 44775.00
1434.577, 44626.00
1435.624, 44695.00
1436.672, 44585.00
1437.719, 44653.00
1438.766, 44736.00
1439.812, 44545.00
1440.859, 44714.00
1441.905, 44676.00
1442.952, 44472.00
1443.998, 44813.00
1445.044, 44537.00
1446.090, 44758.00
1447.135, 44637.00
1448.181, 44811.00
1449.226, 44671.00
1450.271, 44527.00
1451.316, 44838.00
1452.361, 44807.00
1453.405, 44639.00
1454.450, 44680.00
1455.494, 44655.00
1456.538, 44685.65
1457.582, 44773.09
1458.626, 44734.00
1459.670, 44732.25
1460.713, 44743.00
1461.757, 44691.00
1462.800, 44647.00
1463.843, 44713.00
1464.886, 44728.00
1465.928, 44632.00
1466.971, 44799.00
1468.013, 44763.00
1469.055, 44936.00
1470.097, 44898.00
1471.139, 44547.00
1472.181, 44710.00
1473.222, 45018.00
1474.263, 44690.00
1475.305, 45303.00
1476.346, 44810.00
1477.386, 45224.00
1478.427, 44466.00
1479.468, 44860.00
1480.508, 44854.00
1481.548, 44759.00
1482.588, 45002.00
1483.628, 44616.00
1484.668, 44738.00
1485.707, 44863.00
1486.747, 44704.00
1487.786, 44958.00
1488.825, 44826.00
1489.864, 44859.00
1490.902, 44966.00
1491.941, 44916.00
1492.979, 45032.00
1494.017, 44967.43
1495.055, 44879.00
1496.093, 44888.00
1497.131, 44847.00
1498.168, 44884.00
1499.206, 44877.49
1500.243, 44887.01
1501.280, 44916.00
1502.317, 44925.00
1503.354, 44983.52
1504.390, 45019.11
1505.426, 45029.00
1506.463, 45034.00
1507.499, 45106.00
1508.535, 45035.00
1509.570, 44838.00
1510.606, 45026.00
1511.641, 45044.00
1512.676, 44833.00
1513.711, 44986.00
1514.746, 45137.00
1515.781, 44885.00
1516.816, 45219.00
1517.850, 45000.00
1518.884, 44823.00
1519.918, 45207.00
1520.952, 44975.00
1521.986, 45175.00
1523.019, 45294.00
1524.053, 45047.00
1525.086, 45029.00
1526.119, 44965.00
1527.152, 45264.00
1528.185, 44973.00
1529.217, 44915.00
1530.250, 45430.00
1531.282, 44914.00
1532.314, 45247.00
1533.346, 44931.00
1534.377, 44946.00
1535.409, 45121.00
1536.440, 45444.00
1537.472, 45239.00
1538.503, 44996.00
1539.534, 44961.00
1540.564, 45000.00
1541.595, 44926.00
1542.625, 45109.00
##END=



