##NAMES=Arsenopyrite
##RRUFFID=R050071
##IDEAL CHEMISTRY=Fe^3+^(AsS)^3-^
##LOCALITY=Yaogangxian mine, Yizhang County, Hunan Province, China
##OWNER=RRUFF
##SOURCE=Rock Currier
##DESCRIPTION=Steel-gray tabular
##STATUS=The identification of this mineral has been confirmed by X-ray diffraction and chemical analysis
##URL=rruff.info/R050071
##MEASURED CHEMISTRY=FeAsS
##PIN_ID=L00055
##ORIENTATION=Laser parallel to b* (0 1 0). Fiducial mark perpendicular to laser is parallel to c [0 0 1]
71.24100, 29849.24
72.47700, 31887.00
73.71400, 39530.00
74.95100, 46444.00
76.18700, 53012.00
77.42300, 52707.00
78.65900, 50873.00
79.89500, 44871.00
81.13100, 36164.00
82.36700, 32496.00
83.60200, 32011.00
84.83700, 31757.00
86.07200, 31157.00
87.30800, 31312.00
88.54200, 31301.00
89.77700, 31238.00
91.01200, 31696.00
92.24600, 32257.00
93.48000, 31747.00
94.71400, 31459.00
95.94800, 31633.00
97.18200, 31135.00
98.41600, 31004.00
99.64900, 31134.00
100.8830, 31243.00
102.1160, 31805.00
103.3490, 32530.00
104.5820, 34590.00
105.8150, 38267.00
107.0470, 42995.00
108.2800, 49005.00
109.5120, 49225.00
110.7440, 44658.00
111.9760, 46398.00
113.2080, 50395.00
114.4400, 55245.00
115.6710, 58178.00
116.9030, 61064.00
118.1340, 65535.00
119.3650, 60107.00
120.5960, 44128.00
121.8270, 35201.00
123.0580, 32579.00
124.2880, 32047.00
125.5190, 30965.00
126.7490, 30793.00
127.9790, 30526.00
129.2090, 30622.00
130.4390, 30711.00
131.6680, 30908.00
132.8980, 30785.00
134.1270, 30557.00
135.3560, 30631.00
136.5850, 30804.00
137.8140, 30431.00
139.0430, 30747.00
140.2710, 30753.00
141.5000, 30570.00
142.7280, 30425.00
143.9560, 30203.00
145.1840, 29980.00
146.4120, 29887.00
147.6390, 30143.00
148.8670, 30136.00
150.0940, 30645.00
151.3210, 30828.00
152.5490, 30959.00
153.7750, 30574.00
155.0020, 30577.00
156.2290, 30737.00
157.4550, 30822.00
158.6810, 31010.00
159.9080, 30876.00
161.1340, 31075.00
162.3590, 30898.00
163.5850, 30511.00
164.8110, 30511.00
166.0360, 30415.00
167.2610, 30409.00
168.4860, 30328.00
169.7110, 30434.05
170.9360, 30730.00
172.1610, 30651.00
173.3850, 30638.00
174.6100, 30675.00
175.8340, 30628.00
177.0580, 30586.38
178.2820, 30362.00
179.5050, 30457.00
180.7290, 30429.00
181.9520, 30373.00
183.1760, 30452.00
184.3990, 30465.00
185.6220, 30513.00
186.8450, 30492.00
188.0670, 30849.00
189.2900, 30857.00
190.5120, 31116.00
191.7340, 31183.00
192.9560, 31343.00
194.1780, 31499.00
195.4000, 31523.00
196.6220, 31674.00
197.8430, 31604.00
199.0640, 31459.00
200.2860, 31648.00
201.5070, 31870.00
202.7270, 31788.00
203.9480, 31425.00
205.1690, 30603.00
206.3890, 30313.00
207.6090, 30272.00
208.8290, 29945.00
210.0490, 30105.00
211.2690, 30204.00
212.4890, 30242.00
213.7080, 30253.75
214.9280, 30286.57
216.1470, 30160.00
217.3660, 30271.00
218.5850, 30217.00
219.8030, 30162.00
221.0220, 30285.00
222.2400, 30427.00
223.4590, 30312.00
224.6770, 30331.00
225.8950, 30351.00
227.1120, 30255.00
228.3300, 30329.00
229.5480, 30368.27
230.7650, 30276.00
231.9820, 30469.00
233.1990, 30494.00
234.4160, 30410.00
235.6330, 30402.00
236.8490, 30382.00
238.0660, 30533.00
239.2820, 30599.00
240.4980, 30534.00
241.7140, 30541.00
242.9300, 30604.00
244.1460, 30542.00
245.3610, 30701.00
246.5770, 30691.00
247.7920, 30900.00
249.0070, 30577.00
250.2220, 30675.00
251.4370, 30784.00
252.6510, 30605.00
253.8660, 30901.00
255.0800, 30873.00
256.2940, 31493.00
257.5080, 31908.00
258.7220, 33431.00
259.9360, 34853.00
261.1490, 33217.00
262.3630, 32255.00
263.5760, 32146.00
264.7890, 32370.00
266.0020, 32334.00
267.2150, 31928.00
268.4270, 32379.00
269.6400, 31570.00
270.8520, 31595.00
272.0640, 31398.00
273.2760, 31392.00
274.4880, 31114.00
275.7000, 31261.00
276.9120, 31421.00
278.1230, 31161.00
279.3340, 31386.00
280.5450, 31151.00
281.7560, 31212.00
282.9670, 31258.00
284.1780, 31488.00
285.3880, 31520.00
286.5980, 31583.00
287.8090, 31306.00
289.0190, 31432.00
290.2290, 31362.00
291.4380, 31520.00
292.6480, 31503.00
293.8570, 31591.00
295.0670, 31615.00
296.2760, 31601.00
297.4850, 31665.67
298.6930, 31642.42
299.9020, 31725.00
301.1110, 31650.00
302.3190, 31650.00
303.5270, 31704.80
304.7350, 31803.00
305.9430, 31835.00
307.1510, 31865.43
308.3580, 31944.00
309.5660, 31919.00
310.7730, 31981.00
311.9800, 32076.00
313.1870, 32009.00
314.3940, 31838.00
315.6010, 32113.00
316.8070, 31881.00
318.0130, 32123.00
319.2200, 32196.00
320.4260, 32083.00
321.6310, 32224.00
322.8370, 32173.00
324.0430, 32280.00
325.2480, 32316.95
326.4540, 32216.00
327.6590, 32395.00
328.8640, 32387.00
330.0680, 32406.64
331.2730, 32404.77
332.4780, 32453.00
333.6820, 32301.00
334.8860, 32353.15
336.0900, 32372.48
337.2940, 32382.00
338.4980, 32455.00
339.7010, 32468.91
340.9050, 32567.00
342.1080, 32563.00
343.3110, 32599.00
344.5140, 32699.00
345.7170, 32596.00
346.9200, 32729.00
348.1220, 32828.00
349.3240, 32883.00
350.5270, 32778.00
351.7290, 32951.00
352.9310, 32710.00
354.1320, 33009.00
355.3340, 33038.00
356.5350, 32747.00
357.7370, 32873.00
358.9380, 32818.00
360.1390, 32854.00
361.3400, 32973.00
362.5400, 32652.00
363.7410, 33062.00
364.9410, 32887.00
366.1410, 33100.00
367.3410, 32995.00
368.5410, 33187.00
369.7410, 33149.00
370.9400, 33237.00
372.1400, 33184.00
373.3390, 33110.00
374.5380, 33178.00
375.7370, 33157.00
376.9360, 33110.00
378.1350, 33029.00
379.3330, 33363.00
380.5310, 33307.00
381.7300, 33480.00
382.9280, 33462.00
384.1260, 33387.00
385.3230, 33310.00
386.5210, 33409.00
387.7180, 33303.00
388.9160, 33337.00
390.1130, 33478.00
391.3100, 33381.00
392.5060, 33387.00
393.7030, 33521.00
394.9000, 33285.00
396.0960, 33452.00
397.2920, 33516.00
398.4880, 33544.00
399.6840, 33582.00
400.8800, 33611.00
402.0750, 33677.33
403.2710, 33780.00
404.4660, 33769.00
405.6610, 33891.00
406.8560, 33838.00
408.0510, 33778.00
409.2450, 33979.00
410.4400, 34055.00
411.6340, 34078.00
412.8280, 34192.00
414.0220, 34041.00
415.2160, 34097.00
416.4100, 34074.00
417.6030, 34131.00
418.7970, 34109.00
419.9900, 34146.65
421.1830, 33976.00
422.3760, 34263.00
423.5690, 34100.00
424.7610, 34251.00
425.9540, 34235.00
427.1460, 34439.00
428.3380, 34209.00
429.5300, 34493.00
430.7220, 34357.00
431.9140, 34304.00
433.1050, 34362.00
434.2970, 34353.94
435.4880, 34521.00
436.6790, 34401.00
437.8700, 34752.00
439.0610, 34616.00
440.2510, 34580.00
441.4420, 34562.00
442.6320, 34429.00
443.8220, 34586.00
445.0120, 34566.00
446.2020, 34546.00
447.3910, 34806.00
448.5810, 34725.00
449.7700, 34522.00
450.9600, 34804.00
452.1490, 34828.00
453.3370, 34689.00
454.5260, 34620.00
455.7150, 34785.00
456.9030, 34743.00
458.0910, 35033.00
459.2800, 34792.00
460.4670, 34900.00
461.6550, 34951.00
462.8430, 34884.00
464.0300, 35036.00
465.2180, 35015.00
466.4050, 35153.00
467.5920, 34990.00
468.7790, 34850.00
469.9650, 35188.00
471.1520, 35161.00
472.3380, 34936.00
473.5250, 35050.00
474.7110, 35312.00
475.8970, 35129.00
477.0820, 35373.00
478.2680, 35172.00
479.4540, 35486.00
480.6390, 35349.00
481.8240, 35294.00
483.0090, 35421.00
484.1940, 35402.00
485.3780, 35297.00
486.5630, 35299.00
487.7470, 35474.00
488.9320, 35507.00
490.1160, 35672.00
491.3000, 35413.00
492.4830, 35313.00
493.6670, 35673.00
494.8500, 35779.00
496.0340, 35479.00
497.2170, 35701.00
498.4000, 35891.00
499.5820, 35629.00
500.7650, 35755.00
501.9480, 35900.00
503.1300, 36010.00
504.3120, 36010.00
505.4940, 35937.00
506.6760, 35944.00
507.8580, 36105.00
509.0390, 35886.00
510.2210, 35967.00
511.4020, 36163.00
512.5830, 36132.00
513.7640, 35785.00
514.9450, 36074.00
516.1250, 36089.00
517.3060, 36287.00
518.4860, 36355.00
519.6660, 36478.00
520.8460, 36363.00
522.0260, 36409.00
523.2060, 36612.00
524.3850, 36191.00
525.5650, 36421.00
526.7440, 36331.00
527.9230, 36253.00
529.1020, 36302.00
530.2810, 36311.00
531.4590, 36323.00
532.6380, 36200.00
533.8160, 36179.00
534.9940, 36229.00
536.1720, 36347.00
537.3500, 36473.00
538.5270, 36485.00
539.7050, 36410.00
540.8820, 36361.00
542.0590, 36404.00
543.2360, 36710.00
544.4130, 36895.00
545.5900, 36835.00
546.7660, 36478.00
547.9430, 36602.00
549.1190, 36652.00
550.2950, 36746.00
551.4710, 36844.00
552.6470, 36789.00
553.8220, 36778.00
554.9980, 36651.00
556.1730, 36725.00
557.3480, 36854.00
558.5230, 36636.00
559.6980, 36953.00
560.8730, 36681.00
562.0470, 37136.00
563.2220, 36938.00
564.3960, 37122.00
565.5700, 37038.00
566.7440, 36876.00
567.9170, 36810.00
569.0910, 37045.00
570.2640, 37038.00
571.4380, 37015.00
572.6110, 36968.00
573.7840, 36806.00
574.9570, 36820.00
576.1290, 36905.00
577.3020, 36670.00
578.4740, 36947.00
579.6460, 36490.00
580.8180, 36522.00
581.9900, 36473.00
583.1620, 36716.00
584.3330, 36459.00
585.5040, 36181.00
586.6760, 36473.00
587.8470, 36134.38
589.0180, 36308.00
590.1880, 35992.00
591.3590, 36056.00
592.5290, 36307.00
593.7000, 36216.00
594.8700, 36604.00
596.0400, 36377.00
597.2090, 36083.00
598.3790, 36431.00
599.5490, 36376.00
600.7180, 36369.00
601.8870, 36272.00
603.0560, 36355.00
604.2250, 36186.00
605.3940, 36237.93
606.5620, 36437.00
607.7300, 36265.00
608.8990, 36324.00
610.0670, 36336.00
611.2350, 36352.00
612.4020, 36392.00
613.5700, 36377.00
614.7370, 36399.00
615.9050, 36453.00
617.0720, 36424.00
618.2390, 36639.00
619.4060, 36382.00
620.5720, 36590.00
621.7390, 36522.00
622.9050, 36698.00
624.0710, 36647.00
625.2370, 36809.00
626.4030, 36788.50
627.5690, 36795.64
628.7340, 36651.00
629.9000, 36786.00
631.0650, 36493.00
632.2300, 36482.00
633.3950, 36819.00
634.5600, 36620.00
635.7240, 36735.00
636.8890, 36519.00
638.0530, 36612.00
639.2170, 36782.00
640.3810, 36602.00
641.5450, 36659.00
642.7080, 36596.00
643.8720, 36740.00
645.0350, 36506.00
646.1980, 36517.00
647.3610, 36610.00
648.5240, 36621.00
649.6870, 36519.00
650.8490, 36552.00
652.0120, 36338.00
653.1740, 36634.00
654.3360, 36578.00
655.4980, 36471.00
656.6600, 36590.00
657.8210, 36547.00
658.9830, 36814.00
660.1440, 36636.00
661.3050, 36601.00
662.4660, 36474.00
663.6270, 36622.00
664.7870, 36555.00
665.9480, 36609.00
667.1080, 36636.78
668.2680, 36691.00
669.4280, 36662.00
670.5880, 36659.00
671.7480, 36669.00
672.9070, 36964.00
674.0670, 36561.00
675.2260, 36570.00
676.3850, 36602.00
677.5440, 36965.00
678.7030, 36681.00
679.8610, 36605.00
681.0200, 36774.00
682.1780, 36676.00
683.3360, 36678.00
684.4940, 36564.00
685.6520, 36732.00
686.8090, 36510.00
687.9670, 36620.87
689.1240, 36818.00
690.2810, 36700.00
691.4380, 36723.00
692.5950, 36701.00
693.7520, 36740.00
694.9080, 36768.05
696.0650, 36565.00
697.2210, 36802.00
698.3770, 36798.00
699.5330, 36704.00
700.6880, 36912.00
701.8440, 36514.00
702.9990, 36753.00
704.1550, 36952.00
705.3100, 36762.00
706.4650, 36957.00
707.6190, 36900.00
708.7740, 36872.00
709.9290, 36912.00
711.0830, 36981.41
712.2370, 36988.00
713.3910, 37103.00
714.5450, 37115.00
715.6980, 36928.00
716.8520, 37024.00
718.0050, 36857.00
719.1580, 37106.00
720.3110, 37059.00
721.4640, 36876.00
722.6170, 37066.00
723.7700, 37123.00
724.9220, 36898.00
726.0740, 37075.00
727.2260, 37146.00
728.3780, 37236.00
729.5300, 37240.00
730.6810, 37134.00
731.8330, 37106.00
732.9840, 37130.00
734.1350, 37029.00
735.2860, 37062.00
736.4370, 37210.00
737.5880, 37096.00
738.7380, 37399.00
739.8880, 37416.00
741.0390, 37173.00
742.1890, 37225.00
743.3380, 37291.00
744.4880, 37391.00
745.6380, 37261.00
746.7870, 37290.00
747.9360, 37256.00
749.0850, 37442.00
750.2340, 37409.00
751.3830, 37522.00
752.5310, 37286.00
753.6800, 37414.00
754.8280, 37357.00
755.9760, 37427.00
757.1240, 37478.00
758.2720, 37614.00
759.4190, 37591.00
760.5670, 37357.00
761.7140, 37373.00
762.8610, 37459.00
764.0080, 37524.00
765.1550, 37600.00
766.3020, 37592.00
767.4480, 37453.00
768.5950, 37340.00
769.7410, 37379.96
770.8870, 37481.00
772.0330, 37478.00
773.1780, 37524.00
774.3240, 37662.00
775.4690, 37800.00
776.6140, 37657.00
777.7590, 37669.00
778.9040, 37364.00
780.0490, 37478.00
781.1940, 37700.00
782.3380, 37402.00
783.4820, 37633.00
784.6260, 37601.00
785.7700, 37553.00
786.9140, 37567.00
788.0580, 37568.00
789.2010, 37565.29
790.3450, 37477.00
791.4880, 37634.00
792.6310, 37631.00
793.7730, 37764.00
794.9160, 37740.00
796.0590, 37724.00
797.2010, 37698.00
798.3430, 37786.00
799.4850, 37875.00
800.6270, 37837.30
801.7690, 37657.00
802.9100, 37809.00
804.0520, 37800.00
805.1930, 37791.00
806.3340, 37935.00
807.4750, 37574.00
808.6160, 37692.00
809.7560, 37772.00
810.8970, 37771.00
812.0370, 37838.00
813.1770, 37912.00
814.3170, 37910.00
815.4570, 37804.00
816.5960, 38026.00
817.7360, 37890.00
818.8750, 37845.00
820.0140, 37924.00
821.1530, 37782.00
822.2920, 37861.00
823.4310, 37892.91
824.5690, 37858.00
825.7070, 37990.00
826.8460, 37842.00
827.9840, 37815.00
829.1220, 37681.00
830.2590, 37777.00
831.3970, 37933.00
832.5340, 38106.00
833.6710, 38146.58
834.8080, 37771.00
835.9450, 38191.00
837.0820, 37989.00
838.2190, 37861.00
839.3550, 37932.00
840.4910, 37970.00
841.6270, 37948.00
842.7630, 37931.00
843.8990, 37747.00
845.0350, 38071.00
846.1700, 38269.00
847.3060, 38145.00
848.4410, 37947.00
849.5760, 37970.00
850.7100, 38147.00
851.8450, 38408.00
852.9800, 38132.00
854.1140, 38223.00
855.2480, 38009.00
856.3820, 38006.00
857.5160, 38069.00
858.6500, 38039.00
859.7830, 38148.00
860.9170, 38268.00
862.0500, 38085.00
863.1830, 38109.00
864.3160, 37882.00
865.4480, 38044.00
866.5810, 38285.00
867.7130, 38314.00
868.8460, 38309.00
869.9780, 38309.00
871.1100, 38206.00
872.2410, 38208.00
873.3730, 38178.00
874.5050, 38238.00
875.6360, 38329.23
876.7670, 38232.00
877.8980, 38460.00
879.0290, 38590.00
880.1590, 38382.00
881.2900, 38396.00
882.4200, 38494.00
883.5500, 38490.00
884.6800, 38255.00
885.8100, 38608.00
886.9400, 38422.00
888.0690, 38174.00
889.1990, 38656.00
890.3280, 38672.00
891.4570, 38366.00
892.5860, 38549.00
893.7140, 38497.00
894.8430, 38495.00
895.9710, 38838.00
897.1000, 38622.00
898.2280, 38737.00
899.3560, 38545.00
900.4830, 38966.00
901.6110, 38837.00
902.7380, 38776.00
903.8660, 38627.00
904.9930, 38625.22
906.1200, 38814.00
907.2460, 38654.00
908.3730, 38782.00
909.5000, 38887.00
910.6260, 38906.00
911.7520, 38995.00
912.8780, 38860.00
914.0040, 38994.00
915.1290, 39014.00
916.2550, 38806.00
917.3800, 38894.00
918.5050, 38799.00
919.6300, 39146.00
920.7550, 38945.00
921.8800, 38891.00
923.0040, 39373.00
924.1290, 39107.00
925.2530, 38912.00
926.3770, 39005.00
927.5010, 39195.00
928.6250, 39279.00
929.7480, 39073.00
930.8720, 39029.00
931.9950, 38922.00
933.1180, 39135.00
934.2410, 39320.00
935.3640, 39362.00
936.4860, 38973.00
937.6090, 39187.00
938.7310, 39067.00
939.8530, 39224.00
940.9750, 39434.00
942.0970, 39166.00
943.2180, 39129.00
944.3400, 39371.00
945.4610, 39585.00
946.5820, 39230.00
947.7030, 39055.00
948.8240, 39166.00
949.9450, 39154.00
951.0650, 39179.00
952.1860, 39451.00
953.3060, 39380.00
954.4260, 39249.00
955.5460, 39690.00
956.6650, 39470.00
957.7850, 39335.00
958.9040, 39323.00
960.0230, 39533.00
961.1420, 39761.00
962.2610, 39522.00
963.3800, 39757.00
964.4990, 39369.00
965.6170, 39461.00
966.7350, 39214.00
967.8530, 39847.00
968.9710, 39821.00
970.0890, 40119.00
971.2070, 39830.00
972.3240, 39482.00
973.4410, 39666.00
974.5580, 39562.00
975.6750, 39750.00
976.7920, 39693.00
977.9090, 39693.00
979.0250, 39790.00
980.1410, 39707.00
981.2580, 39967.00
982.3740, 39727.00
983.4890, 39677.00
984.6050, 39950.00
985.7200, 39852.00
986.8360, 39956.00
987.9510, 39852.00
989.0660, 39868.00
990.1810, 39925.00
991.2950, 40079.00
992.4100, 39818.00
993.5240, 40068.00
994.6390, 39769.00
995.7530, 40030.00
996.8660, 39988.00
997.9800, 39969.00
999.0940, 40125.00
1000.207, 40076.00
1001.320, 40004.00
1002.433, 40103.00
1003.546, 39965.00
1004.659, 40333.00
1005.772, 40156.00
1006.884, 39904.00
1007.996, 39968.00
1009.108, 40267.00
1010.220, 40262.00
1011.332, 40080.00
1012.444, 40185.00
1013.555, 40133.00
1014.666, 40164.00
1015.777, 40069.00
1016.888, 40111.00
1017.999, 40197.00
1019.110, 40085.50
1020.220, 40166.21
1021.331, 40062.00
1022.441, 40120.00
1023.551, 40364.00
1024.661, 40168.00
1025.770, 40423.00
1026.880, 40336.00
1027.989, 40324.00
1029.098, 40377.00
1030.207, 40405.00
1031.316, 40567.00
1032.425, 40411.00
1033.533, 40562.00
1034.642, 41512.00
1035.750, 40983.38
1036.858, 41671.00
1037.966, 40586.00
1039.073, 40451.00
1040.181, 40336.00
1041.288, 41122.00
1042.396, 40787.00
1043.503, 40449.00
1044.610, 40545.00
1045.716, 40545.00
1046.823, 40499.46
1047.929, 40632.00
1049.036, 40626.00
1050.142, 40749.00
1051.248, 40894.00
1052.353, 40617.00
1053.459, 40392.00
1054.564, 40845.00
1055.670, 40904.00
1056.775, 40730.00
1057.880, 40835.00
1058.985, 40941.00
1060.089, 40940.00
1061.194, 40973.00
1062.298, 40861.00
1063.402, 40845.00
1064.506, 40708.00
1065.610, 40700.00
1066.713, 40740.96
1067.817, 41040.00
1068.920, 40831.00
1070.023, 40924.00
1071.126, 40860.00
1072.229, 40806.00
1073.332, 40876.00
1074.435, 40704.00
1075.537, 40755.00
1076.639, 40761.00
1077.741, 40950.00
1078.843, 41044.00
1079.945, 41129.00
1081.046, 41148.49
1082.148, 40983.00
1083.249, 41089.00
1084.350, 40915.00
1085.451, 40852.00
1086.551, 40712.00
1087.652, 40675.00
1088.752, 40848.00
1089.853, 40696.00
1090.953, 41045.00
1092.053, 41013.00
1093.152, 40880.00
1094.252, 40771.00
1095.351, 40818.00
1096.451, 40769.23
1097.550, 40753.05
1098.649, 40817.00
1099.748, 40785.00
1100.846, 40801.00
1101.945, 40920.00
1103.043, 40809.00
1104.141, 40940.00
1105.239, 40993.00
1106.337, 40906.00
1107.434, 40834.00
1108.532, 40841.00
1109.629, 41046.00
1110.726, 40775.00
1111.823, 41278.00
1112.920, 41042.00
1114.017, 40867.00
1115.113, 40819.00
1116.210, 40978.00
1117.306, 40787.00
1118.402, 40800.00
1119.498, 40759.00
1120.593, 40714.00
1121.689, 40767.45
1122.784, 40803.00
1123.879, 40849.00
1124.974, 40854.00
1126.069, 40869.16
1127.164, 40866.00
1128.259, 40891.00
1129.353, 40801.00
1130.447, 40625.00
1131.541, 40430.00
1132.635, 40619.00
1133.729, 40723.00
1134.822, 40547.00
1135.916, 40542.00
1137.009, 40705.00
1138.102, 40574.00
1139.195, 40574.00
1140.288, 40508.00
1141.380, 40517.00
1142.473, 40238.00
1143.565, 40728.00
1144.657, 40373.00
1145.749, 40520.00
1146.841, 40706.00
1147.932, 40522.00
1149.024, 40441.00
1150.115, 40348.00
1151.206, 40312.00
1152.297, 40658.00
1153.388, 40468.00
1154.479, 40479.00
1155.569, 40621.00
1156.659, 40270.00
1157.750, 40471.00
1158.839, 40330.00
1159.929, 40586.00
1161.019, 40349.00
1162.108, 40682.00
1163.198, 40418.00
1164.287, 40380.00
1165.376, 40473.00
1166.465, 40555.00
1167.553, 40296.00
1168.642, 40308.00
1169.730, 40548.00
1170.818, 40409.00
1171.906, 40623.00
1172.994, 40676.00
1174.082, 40663.00
1175.170, 40333.00
1176.257, 40480.00
1177.344, 40439.00
1178.431, 40459.00
1179.518, 40454.00
1180.605, 40411.00
1181.691, 40272.00
1182.778, 40596.00
1183.864, 40431.00
1184.950, 40685.00
1186.036, 40337.00
1187.122, 40252.00
1188.207, 40620.00
1189.292, 40479.00
1190.378, 40275.00
1191.463, 40468.00
1192.548, 40436.00
1193.632, 40281.00
1194.717, 40545.00
1195.801, 40555.00
1196.886, 40451.00
1197.970, 40165.00
1199.054, 40421.00
1200.137, 40317.00
1201.221, 40328.00
1202.305, 40490.00
1203.388, 40278.00
1204.471, 40580.00
1205.554, 40587.00
1206.637, 40610.27
1207.719, 40493.00
1208.802, 40713.00
1209.884, 40533.00
1210.966, 40570.00
1212.048, 40661.00
1213.130, 40763.00
1214.212, 40562.00
1215.293, 40323.00
1216.374, 40518.00
1217.456, 40356.00
1218.536, 40434.00
1219.617, 40611.00
1220.698, 40524.00
1221.778, 40374.00
1222.859, 40591.00
1223.939, 40612.00
1225.019, 40802.00
1226.099, 40579.00
1227.178, 40425.00
1228.258, 40580.00
1229.337, 40486.00
1230.417, 40361.00
1231.496, 40675.00
1232.574, 40497.00
1233.653, 40452.00
1234.732, 40381.00
1235.810, 40355.00
1236.888, 40763.00
1237.966, 40569.00
1239.044, 40605.00
1240.122, 40576.00
1241.199, 40502.00
1242.277, 40476.00
1243.354, 40401.00
1244.431, 40672.00
1245.508, 40477.00
1246.585, 40710.00
1247.661, 40220.00
1248.738, 40733.00
1249.814, 40314.00
1250.890, 40620.00
1251.966, 40690.00
1253.042, 40809.00
1254.117, 40704.00
1255.193, 40776.44
1256.268, 40617.00
1257.343, 40778.00
1258.418, 40623.00
1259.493, 40614.00
1260.567, 40512.00
1261.642, 40592.00
1262.716, 40684.00
1263.790, 40720.00
1264.864, 40583.00
1265.938, 40535.00
1267.011, 40603.00
1268.085, 40613.00
1269.158, 40503.00
1270.231, 40671.00
1271.304, 40681.00
1272.377, 41009.00
1273.450, 40615.00
1274.522, 40898.00
1275.594, 40844.00
1276.666, 40488.00
1277.738, 40875.00
1278.810, 40956.00
1279.882, 40688.00
1280.953, 40632.00
1282.025, 40717.00
1283.096, 41050.00
1284.167, 40907.00
1285.238, 40872.00
1286.308, 40858.00
1287.379, 40885.00
1288.449, 40703.00
1289.519, 40801.00
1290.589, 40698.00
1291.659, 40885.00
1292.729, 40847.00
1293.798, 40962.00
1294.868, 40502.00
1295.937, 40909.00
1297.006, 41050.00
1298.075, 40492.00
1299.143, 40645.00
1300.212, 40733.00
1301.280, 40860.00
1302.348, 40877.00
1303.416, 40736.00
1304.484, 40709.00
1305.552, 40870.00
1306.620, 40732.00
1307.687, 40940.00
1308.754, 40869.93
1309.821, 40916.00
1310.888, 40826.00
1311.955, 40844.00
1313.021, 40874.00
1314.088, 40922.00
1315.154, 41041.00
1316.220, 40946.00
1317.286, 41215.00
1318.352, 41441.00
1319.417, 41097.00
1320.483, 40965.00
1321.548, 40926.00
1322.613, 41172.00
1323.678, 41369.00
1324.743, 41022.00
1325.807, 41189.00
1326.872, 41166.00
1327.936, 41125.00
1329.000, 41191.00
1330.064, 40978.00
1331.128, 41138.00
1332.191, 40937.00
1333.255, 40958.00
1334.318, 41004.00
1335.381, 41323.00
1336.444, 41113.00
1337.507, 41141.00
1338.569, 40892.00
1339.632, 40933.00
1340.694, 40985.00
1341.756, 41112.00
1342.818, 41130.00
1343.880, 40912.00
1344.941, 41014.00
1346.003, 41279.00
1347.064, 40926.00
1348.125, 41124.00
1349.186, 41273.00
1350.247, 41040.00
1351.308, 41264.00
1352.368, 41232.00
1353.428, 41127.00
1354.489, 41340.00
1355.549, 41207.00
1356.608, 41179.00
1357.668, 41295.00
1358.727, 41335.00
1359.787, 41262.00
1360.846, 41503.00
1361.905, 41107.00
1362.964, 41850.00
1364.022, 41078.00
1365.081, 41335.00
1366.139, 41394.00
1367.197, 41363.00
1368.255, 41427.00
1369.313, 41334.00
1370.371, 41296.00
1371.428, 41336.00
1372.486, 41327.00
1373.543, 41243.00
1374.600, 41313.00
1375.657, 41332.79
1376.713, 41231.00
1377.770, 41304.00
1378.826, 41465.00
1379.882, 41119.00
1380.938, 41294.00
1381.994, 41533.00
1383.050, 41431.00
1384.106, 41329.00
1385.161, 41302.00
1386.216, 41296.15
1387.271, 41288.89
1388.326, 41320.04
1389.381, 41364.00
1390.435, 41425.00
1391.490, 41506.00
1392.544, 41605.00
1393.598, 41612.30
1394.652, 41443.00
1395.705, 41602.00
1396.759, 41384.00
1397.812, 41289.00
1398.866, 41267.00
1399.919, 41538.00
1400.972, 41262.00
1402.024, 41420.00
1403.077, 41527.00
1404.129, 41485.00
1405.181, 41530.00
1406.233, 41650.00
1407.285, 41364.00
1408.337, 41467.00
1409.389, 41455.00
1410.440, 41662.00
1411.491, 41398.00
1412.542, 41454.00
1413.593, 41555.00
1414.644, 41434.00
1415.695, 41365.00
1416.745, 41712.00
1417.795, 41454.00
1418.845, 41646.00
1419.895, 41670.00
1420.945, 41807.00
1421.995, 41501.00
1423.044, 41589.00
1424.093, 41499.00
1425.142, 41529.00
1426.191, 41523.00
1427.240, 41484.00
1428.289, 41533.41
1429.337, 41792.00
1430.385, 41618.00
1431.433, 41681.00
1432.481, 41769.00
1433.529, 41664.00
1434.577, 41551.00
1435.624, 41758.00
1436.672, 41661.00
1437.719, 41705.00
1438.766, 41764.00
1439.812, 41951.00
1440.859, 41546.00
1441.905, 41692.00
1442.952, 41890.00
1443.998, 41537.00
1445.044, 41555.00
1446.090, 41945.00
1447.135, 41610.00
1448.181, 41497.00
1449.226, 42109.00
1450.271, 41758.00
1451.316, 41920.57
1452.361, 41985.00
1453.405, 41918.00
1454.450, 41889.00
1455.494, 41919.00
1456.538, 41733.00
1457.582, 41910.00
1458.626, 41865.00
1459.670, 42050.00
1460.713, 41926.00
1461.757, 42079.00
1462.800, 41907.00
1463.843, 41851.00
1464.886, 41737.00
1465.928, 41802.00
1466.971, 42067.00
1468.013, 42202.00
1469.055, 41899.00
1470.097, 41884.00
1471.139, 41721.00
1472.181, 42076.00
1473.222, 41748.00
1474.263, 41898.00
1475.305, 42227.00
1476.346, 41794.00
1477.386, 41712.00
1478.427, 42042.00
1479.468, 42112.00
1480.508, 42288.00
1481.548, 41748.00
1482.588, 42117.00
1483.628, 42064.00
1484.668, 42093.00
1485.707, 42231.00
1486.747, 41901.00
1487.786, 42100.00
1488.825, 42128.00
1489.864, 42081.00
1490.902, 42205.00
1491.941, 41946.00
1492.979, 41854.00
1494.017, 42187.00
1495.055, 41893.00
1496.093, 42225.00
1497.131, 42060.00
1498.168, 41739.00
1499.206, 41985.00
1500.243, 42246.00
1501.280, 42171.00
1502.317, 41972.00
1503.354, 42137.00
1504.390, 42203.00
1505.426, 42162.00
1506.463, 42385.00
1507.499, 42299.00
1508.535, 42117.00
1509.570, 42424.00
1510.606, 42163.00
1511.641, 42153.00
1512.676, 42037.00
1513.711, 42317.00
1514.746, 42427.00
1515.781, 42438.00
1516.816, 42480.91
1517.850, 42460.00
1518.884, 42327.00
1519.918, 42285.00
1520.952, 42132.00
1521.986, 42137.00
1523.019, 42179.00
1524.053, 42281.00
1525.086, 42136.00
1526.119, 42226.00
1527.152, 42572.00
1528.185, 42643.00
1529.217, 42311.00
1530.250, 42610.00
1531.282, 42496.00
1532.314, 42756.00
1533.346, 42623.00
1534.377, 42419.00
1535.409, 42348.00
1536.440, 42512.00
1537.472, 42590.00
1538.503, 42409.00
1539.534, 42593.00
1540.564, 42468.00
1541.595, 42638.00
1542.625, 42605.00
##END=



