##NAMES=Arsenopyrite
##RRUFFID=R050071
##IDEAL CHEMISTRY=Fe^3+^(AsS)^3-^
##LOCALITY=Yaogangxian mine, Yizhang County, Hunan Province, China
##OWNER=RRUFF
##SOURCE=Rock Currier
##DESCRIPTION=Steel-gray tabular
##STATUS=The identification of this mineral has been confirmed by X-ray diffraction and chemical analysis
##URL=rruff.info/R050071
##MEASURED CHEMISTRY=FeAsS
##PIN_ID=L00187
##ORIENTATION=Laser parallel to a* (1 0 0). Fiducial mark perpendicular to laser is parallel to b [0 1 0]
71.24100, 32431.00
72.47700, 37537.00
73.71400, 44638.00
74.95100, 51053.00
76.18700, 55291.00
77.42300, 53490.00
78.65900, 51761.00
79.89500, 45867.00
81.13100, 39011.00
82.36700, 35891.00
83.60200, 35615.00
84.83700, 35321.00
86.07200, 34438.00
87.30800, 34878.00
88.54200, 35047.00
89.77700, 34918.00
91.01200, 35500.00
92.24600, 35956.00
93.48000, 35019.00
94.71400, 35046.00
95.94800, 34896.00
97.18200, 34589.00
98.41600, 34371.00
99.64900, 34392.00
100.8830, 34510.00
102.1160, 34932.00
103.3490, 36407.00
104.5820, 38176.00
105.8150, 42061.00
107.0470, 46864.00
108.2800, 52919.00
109.5120, 52840.00
110.7440, 47684.00
111.9760, 50137.00
113.2080, 53584.00
114.4400, 57243.00
115.6710, 59298.00
116.9030, 61396.00
118.1340, 65535.00
119.3650, 61883.00
120.5960, 49009.00
121.8270, 39543.00
123.0580, 36646.00
124.2880, 35439.00
125.5190, 33998.00
126.7490, 33664.00
127.9790, 33728.00
129.2090, 33716.00
130.4390, 33749.00
131.6680, 33677.00
132.8980, 33619.65
134.1270, 33549.00
135.3560, 33425.00
136.5850, 33622.00
137.8140, 33529.00
139.0430, 33484.76
140.2710, 33398.84
141.5000, 33294.49
142.7280, 33069.00
143.9560, 33053.00
145.1840, 32895.00
146.4120, 32729.00
147.6390, 33257.00
148.8670, 32848.00
150.0940, 33288.00
151.3210, 33873.00
152.5490, 33618.00
153.7750, 33238.00
155.0020, 33246.00
156.2290, 33466.00
157.4550, 33194.00
158.6810, 33232.00
159.9080, 33189.00
161.1340, 33499.00
162.3590, 33480.00
163.5850, 33357.76
164.8110, 33268.97
166.0360, 33060.00
167.2610, 32953.00
168.4860, 32948.00
169.7110, 33185.00
170.9360, 33193.00
172.1610, 33042.00
173.3850, 32858.00
174.6100, 32907.00
175.8340, 32933.00
177.0580, 32928.00
178.2820, 32911.00
179.5050, 32960.32
180.7290, 32858.00
181.9520, 33062.00
183.1760, 32924.00
184.3990, 33000.00
185.6220, 32836.00
186.8450, 32884.00
188.0670, 33372.00
189.2900, 33544.00
190.5120, 33909.00
191.7340, 33882.00
192.9560, 33996.00
194.1780, 34168.00
195.4000, 34125.00
196.6220, 34118.00
197.8430, 34118.00
199.0640, 34021.00
200.2860, 34266.00
201.5070, 34311.00
202.7270, 34360.00
203.9480, 33542.00
205.1690, 33348.00
206.3890, 33066.00
207.6090, 32481.00
208.8290, 32513.00
210.0490, 32355.00
211.2690, 32615.00
212.4890, 32462.00
213.7080, 32712.00
214.9280, 32670.00
216.1470, 32748.00
217.3660, 32546.00
218.5850, 32510.00
219.8030, 32711.00
221.0220, 32756.00
222.2400, 32727.00
223.4590, 32729.00
224.6770, 32597.00
225.8950, 32582.12
227.1120, 32768.00
228.3300, 32454.00
229.5480, 32546.00
230.7650, 32461.00
231.9820, 32736.00
233.1990, 32702.00
234.4160, 32724.00
235.6330, 32749.00
236.8490, 32704.00
238.0660, 32538.00
239.2820, 32771.00
240.4980, 32839.00
241.7140, 32615.00
242.9300, 32909.00
244.1460, 32548.00
245.3610, 32640.00
246.5770, 32878.00
247.7920, 32918.00
249.0070, 32830.00
250.2220, 33044.00
251.4370, 32941.00
252.6510, 33140.00
253.8660, 33087.00
255.0800, 33300.00
256.2940, 33586.00
257.5080, 34401.00
258.7220, 38102.00
259.9360, 36404.92
261.1490, 37710.00
262.3630, 34982.00
263.5760, 34610.00
264.7890, 34186.00
266.0020, 34630.00
267.2150, 34441.00
268.4270, 34129.00
269.6400, 34001.00
270.8520, 33668.00
272.0640, 33347.00
273.2760, 33602.00
274.4880, 34128.00
275.7000, 34117.00
276.9120, 34001.00
278.1230, 33764.00
279.3340, 33739.94
280.5450, 33777.00
281.7560, 33679.00
282.9670, 33577.00
284.1780, 33810.00
285.3880, 33454.00
286.5980, 33662.00
287.8090, 33601.00
289.0190, 33706.00
290.2290, 33819.00
291.4380, 33752.00
292.6480, 33725.00
293.8570, 33688.00
295.0670, 33743.00
296.2760, 33780.00
297.4850, 33834.00
298.6930, 33792.00
299.9020, 33793.83
301.1110, 34086.00
302.3190, 33743.00
303.5270, 33993.00
304.7350, 34031.00
305.9430, 33937.00
307.1510, 34345.00
308.3580, 34112.00
309.5660, 34121.00
310.7730, 34268.00
311.9800, 34490.00
313.1870, 34275.00
314.3940, 34320.00
315.6010, 34309.00
316.8070, 34483.00
318.0130, 34454.00
319.2200, 34559.00
320.4260, 34470.00
321.6310, 34294.00
322.8370, 34530.00
324.0430, 34435.00
325.2480, 34561.00
326.4540, 34617.00
327.6590, 34538.00
328.8640, 34931.00
330.0680, 34940.00
331.2730, 34803.00
332.4780, 34703.00
333.6820, 34586.00
334.8860, 34798.00
336.0900, 34927.00
337.2940, 34829.00
338.4980, 35073.00
339.7010, 34695.00
340.9050, 34823.00
342.1080, 34866.00
343.3110, 35058.00
344.5140, 35079.20
345.7170, 35035.62
346.9200, 35207.00
348.1220, 34900.00
349.3240, 35014.00
350.5270, 35045.00
351.7290, 34962.00
352.9310, 35178.00
354.1320, 34921.00
355.3340, 35052.00
356.5350, 35232.00
357.7370, 34901.00
358.9380, 35154.00
360.1390, 35111.00
361.3400, 35025.00
362.5400, 35206.00
363.7410, 35129.00
364.9410, 35345.00
366.1410, 35192.00
367.3410, 35259.00
368.5410, 35231.00
369.7410, 35199.00
370.9400, 35358.00
372.1400, 35339.00
373.3390, 35542.00
374.5380, 35318.00
375.7370, 35399.00
376.9360, 35339.00
378.1350, 35460.00
379.3330, 35282.00
380.5310, 35204.00
381.7300, 35477.00
382.9280, 35270.00
384.1260, 35659.00
385.3230, 35514.00
386.5210, 35469.00
387.7180, 35598.00
388.9160, 35444.00
390.1130, 35583.00
391.3100, 35671.00
392.5060, 35792.00
393.7030, 35737.00
394.9000, 35768.69
396.0960, 35707.00
397.2920, 35673.00
398.4880, 35773.00
399.6840, 35676.00
400.8800, 35597.00
402.0750, 35868.00
403.2710, 35951.00
404.4660, 36004.00
405.6610, 36152.84
406.8560, 36003.00
408.0510, 36249.00
409.2450, 36111.00
410.4400, 35989.00
411.6340, 36344.00
412.8280, 36066.00
414.0220, 36068.00
415.2160, 36441.00
416.4100, 36264.00
417.6030, 36228.00
418.7970, 36227.00
419.9900, 36010.00
421.1830, 36368.00
422.3760, 36211.00
423.5690, 36400.00
424.7610, 36407.00
425.9540, 36401.00
427.1460, 37077.00
428.3380, 36802.50
429.5300, 37055.00
430.7220, 36849.00
431.9140, 36390.00
433.1050, 36738.00
434.2970, 36836.00
435.4880, 36601.00
436.6790, 36756.00
437.8700, 36731.00
439.0610, 36704.00
440.2510, 36609.00
441.4420, 36750.00
442.6320, 36839.00
443.8220, 36931.00
445.0120, 36969.66
446.2020, 36842.00
447.3910, 36924.00
448.5810, 37029.00
449.7700, 36847.00
450.9600, 36979.00
452.1490, 36909.00
453.3370, 36841.00
454.5260, 36825.00
455.7150, 37003.00
456.9030, 36804.00
458.0910, 36931.00
459.2800, 37152.00
460.4670, 36902.00
461.6550, 37222.00
462.8430, 37246.00
464.0300, 37212.00
465.2180, 37347.00
466.4050, 37274.00
467.5920, 37044.00
468.7790, 37061.00
469.9650, 37209.00
471.1520, 37350.00
472.3380, 37366.00
473.5250, 37242.00
474.7110, 37293.00
475.8970, 37323.00
477.0820, 37300.00
478.2680, 37520.00
479.4540, 37322.00
480.6390, 37595.00
481.8240, 37569.00
483.0090, 37711.00
484.1940, 37616.00
485.3780, 37804.00
486.5630, 37830.00
487.7470, 37937.00
488.9320, 37723.00
490.1160, 37920.00
491.3000, 37843.00
492.4830, 37901.00
493.6670, 37883.00
494.8500, 37947.00
496.0340, 37940.36
497.2170, 37963.00
498.4000, 37909.00
499.5820, 38028.00
500.7650, 37956.00
501.9480, 38112.00
503.1300, 38063.00
504.3120, 38125.00
505.4940, 38113.00
506.6760, 38033.82
507.8580, 38130.00
509.0390, 37966.00
510.2210, 38148.00
511.4020, 38366.00
512.5830, 38455.00
513.7640, 38394.00
514.9450, 38447.00
516.1250, 38326.00
517.3060, 38903.00
518.4860, 38545.00
519.6660, 39022.00
520.8460, 38860.00
522.0260, 38594.00
523.2060, 38848.00
524.3850, 38657.00
525.5650, 38402.00
526.7440, 38619.00
527.9230, 38641.00
529.1020, 38573.00
530.2810, 38628.00
531.4590, 38496.00
532.6380, 38475.00
533.8160, 38814.00
534.9940, 38807.00
536.1720, 38827.00
537.3500, 38886.58
538.5270, 38890.07
539.7050, 38904.47
540.8820, 38920.00
542.0590, 38890.00
543.2360, 38857.00
544.4130, 38811.00
545.5900, 38955.04
546.7660, 39054.00
547.9430, 39219.00
549.1190, 39200.00
550.2950, 39194.00
551.4710, 39308.00
552.6470, 39257.00
553.8220, 39387.00
554.9980, 39351.05
556.1730, 39273.00
557.3480, 39266.00
558.5230, 39235.00
559.6980, 39104.00
560.8730, 39369.00
562.0470, 39183.00
563.2220, 39029.00
564.3960, 39406.00
565.5700, 39213.00
566.7440, 39558.00
567.9170, 39296.00
569.0910, 39544.00
570.2640, 39280.00
571.4380, 39386.00
572.6110, 39336.00
573.7840, 39406.00
574.9570, 39143.00
576.1290, 39124.00
577.3020, 39283.00
578.4740, 38995.00
579.6460, 38890.00
580.8180, 38831.00
581.9900, 38480.00
583.1620, 38670.00
584.3330, 38408.00
585.5040, 38637.00
586.6760, 38809.00
587.8470, 38344.00
589.0180, 38624.00
590.1880, 38431.00
591.3590, 38550.00
592.5290, 38491.00
593.7000, 38437.00
594.8700, 38333.00
596.0400, 38292.00
597.2090, 38186.00
598.3790, 38426.00
599.5490, 38265.00
600.7180, 38691.00
601.8870, 38499.00
603.0560, 38613.00
604.2250, 38668.00
605.3940, 38441.00
606.5620, 38387.00
607.7300, 38607.00
608.8990, 38597.00
610.0670, 38599.00
611.2350, 38333.00
612.4020, 38656.00
613.5700, 38417.00
614.7370, 38648.00
615.9050, 38555.00
617.0720, 38636.00
618.2390, 38736.00
619.4060, 38622.00
620.5720, 38735.00
621.7390, 38660.00
622.9050, 38851.00
624.0710, 38606.00
625.2370, 38815.00
626.4030, 38826.00
627.5690, 38869.00
628.7340, 38846.21
629.9000, 38847.51
631.0650, 38658.00
632.2300, 38830.00
633.3950, 38702.00
634.5600, 38722.00
635.7240, 38861.00
636.8890, 38621.00
638.0530, 38864.00
639.2170, 38800.00
640.3810, 38707.00
641.5450, 38793.00
642.7080, 38739.00
643.8720, 38776.00
645.0350, 38704.00
646.1980, 38581.00
647.3610, 38824.00
648.5240, 38687.00
649.6870, 38812.00
650.8490, 38667.00
652.0120, 38708.00
653.1740, 38812.00
654.3360, 38626.00
655.4980, 38692.00
656.6600, 38653.00
657.8210, 38730.00
658.9830, 38490.00
660.1440, 38659.00
661.3050, 38965.00
662.4660, 38720.00
663.6270, 38800.00
664.7870, 38861.00
665.9480, 38807.00
667.1080, 38880.35
668.2680, 38837.00
669.4280, 38858.00
670.5880, 38891.00
671.7480, 38721.00
672.9070, 38577.00
674.0670, 38711.00
675.2260, 38770.00
676.3850, 38880.00
677.5440, 38705.00
678.7030, 38743.00
679.8610, 38733.00
681.0200, 38944.00
682.1780, 38761.00
683.3360, 38816.00
684.4940, 39014.00
685.6520, 38740.00
686.8090, 38877.00
687.9670, 38953.00
689.1240, 38660.00
690.2810, 38599.00
691.4380, 38777.00
692.5950, 38940.00
693.7520, 38864.00
694.9080, 38803.00
696.0650, 38968.00
697.2210, 38902.00
698.3770, 38936.07
699.5330, 38899.00
700.6880, 38886.00
701.8440, 38844.00
702.9990, 38862.59
704.1550, 38944.00
705.3100, 38855.00
706.4650, 38914.00
707.6190, 38812.00
708.7740, 39011.00
709.9290, 39070.00
711.0830, 39207.00
712.2370, 39498.00
713.3910, 38944.00
714.5450, 38897.00
715.6980, 38874.00
716.8520, 39149.00
718.0050, 38991.00
719.1580, 39040.00
720.3110, 39287.00
721.4640, 38919.00
722.6170, 39047.00
723.7700, 38837.00
724.9220, 39136.00
726.0740, 39139.00
727.2260, 39127.00
728.3780, 39289.00
729.5300, 39173.00
730.6810, 39132.00
731.8330, 39333.00
732.9840, 39193.00
734.1350, 39200.00
735.2860, 39095.00
736.4370, 39202.00
737.5880, 39195.00
738.7380, 39223.00
739.8880, 39341.00
741.0390, 39536.00
742.1890, 39290.00
743.3380, 39075.00
744.4880, 39262.00
745.6380, 39403.00
746.7870, 39549.00
747.9360, 39607.51
749.0850, 39675.00
750.2340, 39605.00
751.3830, 39602.00
752.5310, 39444.00
753.6800, 39565.00
754.8280, 39273.00
755.9760, 39423.00
757.1240, 39529.00
758.2720, 39763.00
759.4190, 39514.00
760.5670, 39870.00
761.7140, 39446.00
762.8610, 39413.00
764.0080, 39409.00
765.1550, 39583.00
766.3020, 39457.00
767.4480, 39801.00
768.5950, 39776.00
769.7410, 39727.00
770.8870, 39667.00
772.0330, 39513.00
773.1780, 39570.00
774.3240, 39576.00
775.4690, 39692.00
776.6140, 39705.00
777.7590, 39758.83
778.9040, 39636.00
780.0490, 39799.00
781.1940, 39590.00
782.3380, 39484.00
783.4820, 39605.00
784.6260, 39387.00
785.7700, 39542.00
786.9140, 39602.00
788.0580, 39728.00
789.2010, 39563.00
790.3450, 39839.00
791.4880, 39893.00
792.6310, 39681.00
793.7730, 39773.00
794.9160, 39526.00
796.0590, 39735.00
797.2010, 39815.00
798.3430, 39809.00
799.4850, 39772.00
800.6270, 39881.00
801.7690, 39924.00
802.9100, 39913.00
804.0520, 39804.00
805.1930, 39823.00
806.3340, 39754.00
807.4750, 39740.00
808.6160, 39888.00
809.7560, 40086.00
810.8970, 39833.00
812.0370, 40017.00
813.1770, 39878.00
814.3170, 39961.00
815.4570, 40026.00
816.5960, 39871.00
817.7360, 39933.00
818.8750, 39900.00
820.0140, 40040.00
821.1530, 39887.00
822.2920, 40298.00
823.4310, 40165.00
824.5690, 39877.00
825.7070, 40110.00
826.8460, 40028.02
827.9840, 39849.00
829.1220, 40168.00
830.2590, 40056.00
831.3970, 40044.00
832.5340, 40238.00
833.6710, 40034.00
834.8080, 40113.00
835.9450, 40124.00
837.0820, 39867.00
838.2190, 40123.00
839.3550, 40155.00
840.4910, 40301.00
841.6270, 40106.00
842.7630, 40261.00
843.8990, 39978.00
845.0350, 40235.00
846.1700, 40350.00
847.3060, 40214.52
848.4410, 40195.00
849.5760, 40173.00
850.7100, 40158.65
851.8450, 40184.00
852.9800, 40212.00
854.1140, 40285.00
855.2480, 40327.00
856.3820, 40417.00
857.5160, 40480.00
858.6500, 40249.00
859.7830, 40455.00
860.9170, 40349.00
862.0500, 40216.00
863.1830, 40474.00
864.3160, 40297.00
865.4480, 40433.00
866.5810, 40442.00
867.7130, 40132.00
868.8460, 40381.00
869.9780, 40367.00
871.1100, 40385.00
872.2410, 40305.00
873.3730, 40409.00
874.5050, 40612.00
875.6360, 40519.00
876.7670, 40689.00
877.8980, 40644.58
879.0290, 40640.00
880.1590, 40570.00
881.2900, 40488.00
882.4200, 40457.00
883.5500, 40651.00
884.6800, 40753.00
885.8100, 40669.00
886.9400, 40933.00
888.0690, 40640.00
889.1990, 40950.00
890.3280, 40984.00
891.4570, 40543.00
892.5860, 40818.00
893.7140, 40721.00
894.8430, 40593.00
895.9710, 40842.00
897.1000, 40767.00
898.2280, 40903.00
899.3560, 40823.00
900.4830, 40807.00
901.6110, 40713.00
902.7380, 40677.00
903.8660, 41072.00
904.9930, 40818.00
906.1200, 40900.00
907.2460, 40706.00
908.3730, 40825.00
909.5000, 40962.00
910.6260, 40877.00
911.7520, 41001.35
912.8780, 41240.00
914.0040, 41127.00
915.1290, 41135.00
916.2550, 41264.00
917.3800, 41135.04
918.5050, 41198.00
919.6300, 41008.00
920.7550, 41298.00
921.8800, 41254.00
923.0040, 41242.00
924.1290, 41332.40
925.2530, 41205.00
926.3770, 41322.00
927.5010, 41300.00
928.6250, 41236.00
929.7480, 41412.00
930.8720, 41283.00
931.9950, 41449.00
933.1180, 41307.00
934.2410, 41524.00
935.3640, 41481.00
936.4860, 41529.00
937.6090, 41564.89
938.7310, 41334.00
939.8530, 41572.00
940.9750, 41492.00
942.0970, 41535.00
943.2180, 41638.00
944.3400, 41653.00
945.4610, 41438.00
946.5820, 41746.00
947.7030, 41429.00
948.8240, 41369.00
949.9450, 41760.00
951.0650, 41715.00
952.1860, 41536.00
953.3060, 41527.00
954.4260, 41654.00
955.5460, 41778.00
956.6650, 41659.00
957.7850, 41474.00
958.9040, 41738.00
960.0230, 41566.00
961.1420, 41829.00
962.2610, 41853.00
963.3800, 41839.00
964.4990, 41962.00
965.6170, 41433.00
966.7350, 41461.00
967.8530, 41683.00
968.9710, 41899.00
970.0890, 41931.00
971.2070, 41924.00
972.3240, 41971.00
973.4410, 41889.00
974.5580, 41964.91
975.6750, 41917.00
976.7920, 42050.00
977.9090, 42014.00
979.0250, 42018.00
980.1410, 41962.00
981.2580, 42237.00
982.3740, 42013.00
983.4890, 42150.00
984.6050, 42156.00
985.7200, 42049.00
986.8360, 42183.00
987.9510, 42434.00
989.0660, 42214.00
990.1810, 42363.00
991.2950, 42253.00
992.4100, 42336.00
993.5240, 42402.00
994.6390, 42413.27
995.7530, 42464.00
996.8660, 42534.00
997.9800, 42520.54
999.0940, 42566.96
1000.207, 42476.00
1001.320, 42619.00
1002.433, 42519.00
1003.546, 42565.00
1004.659, 42494.86
1005.772, 42425.30
1006.884, 42362.00
1007.996, 42343.00
1009.108, 42398.00
1010.220, 42528.00
1011.332, 42678.00
1012.444, 42545.00
1013.555, 42621.00
1014.666, 42655.07
1015.777, 42682.00
1016.888, 42711.00
1017.999, 42596.00
1019.110, 42567.00
1020.220, 42632.00
1021.331, 42666.00
1022.441, 42689.00
1023.551, 42573.00
1024.661, 42560.00
1025.770, 42562.93
1026.880, 42825.00
1027.989, 42617.00
1029.098, 42663.00
1030.207, 42767.00
1031.316, 42690.00
1032.425, 42969.00
1033.533, 42958.00
1034.642, 42710.00
1035.750, 42812.00
1036.858, 42571.00
1037.966, 42769.00
1039.073, 42861.00
1040.181, 43164.00
1041.288, 43259.00
1042.396, 43239.69
1043.503, 42971.00
1044.610, 43113.00
1045.716, 42879.00
1046.823, 42816.00
1047.929, 43047.00
1049.036, 42883.00
1050.142, 43029.00
1051.248, 43128.00
1052.353, 43043.00
1053.459, 42977.00
1054.564, 43259.00
1055.670, 43130.00
1056.775, 43306.00
1057.880, 42916.00
1058.985, 42978.00
1060.089, 43016.00
1061.194, 43059.00
1062.298, 43170.00
1063.402, 43195.00
1064.506, 43320.00
1065.610, 43092.00
1066.713, 43056.00
1067.817, 43262.00
1068.920, 43152.00
1070.023, 43272.00
1071.126, 43624.00
1072.229, 43187.00
1073.332, 43442.00
1074.435, 43196.00
1075.537, 43363.00
1076.639, 43189.00
1077.741, 43226.00
1078.843, 43440.00
1079.945, 43333.00
1081.046, 43339.00
1082.148, 43474.00
1083.249, 43342.00
1084.350, 43243.00
1085.451, 43315.00
1086.551, 43278.00
1087.652, 43425.00
1088.752, 43298.00
1089.853, 43108.00
1090.953, 43341.00
1092.053, 43278.00
1093.152, 43111.00
1094.252, 43461.00
1095.351, 43354.00
1096.451, 43205.00
1097.550, 43334.00
1098.649, 43009.00
1099.748, 43088.00
1100.846, 43393.00
1101.945, 43073.00
1103.043, 43190.00
1104.141, 43281.00
1105.239, 43122.00
1106.337, 43257.00
1107.434, 43056.00
1108.532, 43185.00
1109.629, 43233.00
1110.726, 43339.00
1111.823, 43444.00
1112.920, 43143.00
1114.017, 43111.00
1115.113, 43127.00
1116.210, 42958.00
1117.306, 43063.00
1118.402, 43220.00
1119.498, 43230.00
1120.593, 43173.00
1121.689, 43341.00
1122.784, 43217.00
1123.879, 43299.00
1124.974, 43177.00
1126.069, 43131.00
1127.164, 43114.00
1128.259, 43206.00
1129.353, 42867.00
1130.447, 42985.00
1131.541, 42875.00
1132.635, 42697.00
1133.729, 42643.00
1134.822, 42664.85
1135.916, 42725.00
1137.009, 42770.00
1138.102, 42955.00
1139.195, 42941.00
1140.288, 42915.12
1141.380, 42727.00
1142.473, 42768.00
1143.565, 42807.00
1144.657, 42769.00
1145.749, 42774.00
1146.841, 42762.87
1147.932, 42716.00
1149.024, 42756.00
1150.115, 42695.00
1151.206, 42748.00
1152.297, 42643.00
1153.388, 42847.00
1154.479, 42735.75
1155.569, 42873.00
1156.659, 42501.00
1157.750, 42646.00
1158.839, 42258.00
1159.929, 42657.00
1161.019, 42701.00
1162.108, 42546.00
1163.198, 42635.00
1164.287, 42934.00
1165.376, 42625.00
1166.465, 42324.00
1167.553, 42545.00
1168.642, 42644.00
1169.730, 42669.00
1170.818, 42617.00
1171.906, 42533.00
1172.994, 42638.00
1174.082, 42526.00
1175.170, 42597.00
1176.257, 42746.00
1177.344, 42873.00
1178.431, 42553.00
1179.518, 42747.00
1180.605, 42606.00
1181.691, 42545.00
1182.778, 42611.00
1183.864, 42601.00
1184.950, 42521.00
1186.036, 42636.00
1187.122, 42544.00
1188.207, 42544.27
1189.292, 42521.00
1190.378, 42515.00
1191.463, 42402.00
1192.548, 42428.00
1193.632, 42550.00
1194.717, 42754.00
1195.801, 42459.00
1196.886, 42707.00
1197.970, 42430.00
1199.054, 42597.00
1200.137, 42300.00
1201.221, 42642.00
1202.305, 42374.00
1203.388, 42516.00
1204.471, 42411.00
1205.554, 42553.00
1206.637, 42446.00
1207.719, 42482.87
1208.802, 42455.00
1209.884, 42534.00
1210.966, 42523.00
1212.048, 42597.00
1213.130, 42626.00
1214.212, 42728.21
1215.293, 42674.00
1216.374, 42893.00
1217.456, 42594.00
1218.536, 42491.00
1219.617, 42463.00
1220.698, 42595.00
1221.778, 42466.00
1222.859, 42605.00
1223.939, 42531.00
1225.019, 42655.00
1226.099, 42610.00
1227.178, 42475.00
1228.258, 42341.00
1229.337, 42366.67
1230.417, 42369.00
1231.496, 42440.00
1232.574, 42486.00
1233.653, 42612.00
1234.732, 42576.00
1235.810, 42300.00
1236.888, 42455.00
1237.966, 42792.00
1239.044, 43007.00
1240.122, 42614.00
1241.199, 42575.00
1242.277, 42699.00
1243.354, 42546.00
1244.431, 42459.00
1245.508, 42377.00
1246.585, 42576.00
1247.661, 42453.00
1248.738, 42551.00
1249.814, 42577.00
1250.890, 42499.00
1251.966, 42597.00
1253.042, 42309.00
1254.117, 42618.00
1255.193, 42502.00
1256.268, 42375.00
1257.343, 42514.00
1258.418, 42442.70
1259.493, 42671.00
1260.567, 42501.00
1261.642, 42470.00
1262.716, 42488.00
1263.790, 42372.00
1264.864, 42691.00
1265.938, 42453.00
1267.011, 42589.00
1268.085, 42441.00
1269.158, 42570.00
1270.231, 42717.00
1271.304, 42564.00
1272.377, 42666.00
1273.450, 42934.00
1274.522, 42758.00
1275.594, 42620.00
1276.666, 42668.00
1277.738, 42558.00
1278.810, 42705.00
1279.882, 42843.00
1280.953, 42818.00
1282.025, 42731.00
1283.096, 42640.00
1284.167, 42757.00
1285.238, 42725.00
1286.308, 42629.00
1287.379, 42696.00
1288.449, 42814.00
1289.519, 42816.00
1290.589, 42580.00
1291.659, 42973.00
1292.729, 42582.00
1293.798, 42724.00
1294.868, 42821.00
1295.937, 42738.00
1297.006, 42957.00
1298.075, 42732.00
1299.143, 42748.00
1300.212, 42744.00
1301.280, 42673.27
1302.348, 42789.00
1303.416, 42689.00
1304.484, 42775.00
1305.552, 42862.00
1306.620, 42985.00
1307.687, 43010.00
1308.754, 42911.00
1309.821, 42886.00
1310.888, 42719.00
1311.955, 42607.00
1313.021, 42469.00
1314.088, 42898.00
1315.154, 42821.00
1316.220, 42821.00
1317.286, 42928.00
1318.352, 42831.00
1319.417, 42884.00
1320.483, 42804.00
1321.548, 42676.00
1322.613, 42811.00
1323.678, 43122.00
1324.743, 42793.00
1325.807, 43074.00
1326.872, 42952.00
1327.936, 43059.00
1329.000, 42992.00
1330.064, 43020.95
1331.128, 42842.00
1332.191, 43024.00
1333.255, 43030.00
1334.318, 42903.00
1335.381, 42718.00
1336.444, 42785.00
1337.507, 42925.00
1338.569, 42892.00
1339.632, 42958.00
1340.694, 42826.00
1341.756, 42855.00
1342.818, 42789.00
1343.880, 42737.00
1344.941, 42889.00
1346.003, 42918.00
1347.064, 43258.00
1348.125, 42978.00
1349.186, 43398.12
1350.247, 43116.00
1351.308, 42946.97
1352.368, 42891.97
1353.428, 42902.86
1354.489, 43126.25
1355.549, 43446.20
1356.608, 42828.00
1357.668, 42923.00
1358.727, 42813.00
1359.787, 42954.00
1360.846, 43223.00
1361.905, 42943.00
1362.964, 43215.00
1364.022, 42970.00
1365.081, 43086.00
1366.139, 42947.00
1367.197, 43063.00
1368.255, 43224.00
1369.313, 43076.00
1370.371, 42974.00
1371.428, 43047.00
1372.486, 42975.12
1373.543, 42890.00
1374.600, 42987.00
1375.657, 43084.00
1376.713, 43071.00
1377.770, 43147.00
1378.826, 42819.00
1379.882, 43231.00
1380.938, 43043.00
1381.994, 43121.00
1383.050, 43283.79
1384.106, 43233.00
1385.161, 43207.00
1386.216, 43719.00
1387.271, 43098.00
1388.326, 42875.00
1389.381, 43184.00
1390.435, 42800.00
1391.490, 43270.00
1392.544, 43279.00
1393.598, 43003.00
1394.652, 42947.00
1395.705, 42956.00
1396.759, 42941.00
1397.812, 43081.00
1398.866, 43133.00
1399.919, 43057.00
1400.972, 43306.00
1402.024, 43122.00
1403.077, 43022.00
1404.129, 42918.00
1405.181, 42924.00
1406.233, 42807.00
1407.285, 42877.00
1408.337, 42879.00
1409.389, 42919.91
1410.440, 42989.89
1411.491, 43053.00
1412.542, 43129.00
1413.593, 43162.00
1414.644, 43225.00
1415.695, 43110.00
1416.745, 43033.00
1417.795, 43296.00
1418.845, 43070.00
1419.895, 43097.00
1420.945, 43235.00
1421.995, 43282.00
1423.044, 43430.00
1424.093, 43306.10
1425.142, 43450.00
1426.191, 43201.00
1427.240, 43034.00
1428.289, 43347.00
1429.337, 43148.00
1430.385, 43178.00
1431.433, 43256.00
1432.481, 43267.00
1433.529, 43273.99
1434.577, 43220.00
1435.624, 43274.00
1436.672, 43238.00
1437.719, 43282.00
1438.766, 43434.00
1439.812, 43145.00
1440.859, 43256.00
1441.905, 43040.00
1442.952, 43226.00
1443.998, 43607.00
1445.044, 43498.00
1446.090, 43608.00
1447.135, 43381.00
1448.181, 43386.00
1449.226, 43283.00
1450.271, 43361.00
1451.316, 43354.00
1452.361, 43384.00
1453.405, 43358.35
1454.450, 43380.06
1455.494, 43264.00
1456.538, 43454.00
1457.582, 43407.00
1458.626, 43544.00
1459.670, 43312.00
1460.713, 43508.00
1461.757, 43630.00
1462.800, 43517.52
1463.843, 43134.00
1464.886, 43382.00
1465.928, 43320.00
1466.971, 43115.00
1468.013, 43503.00
1469.055, 43221.00
1470.097, 43460.00
1471.139, 43252.00
1472.181, 43311.00
1473.222, 43343.00
1474.263, 43274.00
1475.305, 43364.00
1476.346, 43377.00
1477.386, 43513.00
1478.427, 43471.00
1479.468, 43419.00
1480.508, 43558.00
1481.548, 43243.00
1482.588, 43263.00
1483.628, 43463.00
1484.668, 43348.00
1485.707, 43435.00
1486.747, 43344.00
1487.786, 43417.00
1488.825, 43264.00
1489.864, 43317.00
1490.902, 43343.00
1491.941, 43176.00
1492.979, 43327.00
1494.017, 43182.00
1495.055, 43329.00
1496.093, 43471.00
1497.131, 43590.00
1498.168, 43500.00
1499.206, 43763.00
1500.243, 43444.00
1501.280, 43188.00
1502.317, 43468.00
1503.354, 43537.00
1504.390, 43593.00
1505.426, 43464.00
1506.463, 43397.00
1507.499, 43399.00
1508.535, 43682.00
1509.570, 43464.00
1510.606, 43561.00
1511.641, 43614.00
1512.676, 43432.00
1513.711, 43550.00
1514.746, 43397.00
1515.781, 43553.00
1516.816, 43785.00
1517.850, 43459.00
1518.884, 43584.00
1519.918, 43397.00
1520.952, 43275.00
1521.986, 43766.00
1523.019, 43490.00
1524.053, 43357.00
1525.086, 43641.00
1526.119, 43293.00
1527.152, 43611.00
1528.185, 43707.00
1529.217, 43609.00
1530.250, 43564.00
1531.282, 43571.00
1532.314, 43628.00
1533.346, 43686.00
##END=



