##NAMES=Arsenopyrite
##RRUFFID=R050071
##IDEAL CHEMISTRY=Fe^3+^(AsS)^3-^
##LOCALITY=Yaogangxian mine, Yizhang County, Hunan Province, China
##OWNER=RRUFF
##SOURCE=Rock Currier
##DESCRIPTION=Steel-gray tabular
##STATUS=The identification of this mineral has been confirmed by X-ray diffraction and chemical analysis
##URL=rruff.info/R050071
##MEASURED CHEMISTRY=FeAsS
##PIN_ID=L00187
##ORIENTATION=Laser parallel to a* (1 0 0). Fiducial mark perpendicular to laser is parallel to b [0 1 0]
71.24100, 31088.00
72.47700, 35560.00
73.71400, 42445.00
74.95100, 49462.00
76.18700, 53102.00
77.42300, 52991.00
78.65900, 49875.00
79.89500, 44517.00
81.13100, 38938.00
82.36700, 35868.00
83.60200, 35206.00
84.83700, 34510.00
86.07200, 33596.00
87.30800, 33778.00
88.54200, 34006.00
89.77700, 34486.00
91.01200, 34916.00
92.24600, 35241.00
93.48000, 34733.00
94.71400, 34365.00
95.94800, 34547.00
97.18200, 33954.00
98.41600, 33821.00
99.64900, 33872.00
100.8830, 33866.00
102.1160, 33921.00
103.3490, 35066.00
104.5820, 36751.00
105.8150, 39483.00
107.0470, 43632.00
108.2800, 43580.94
109.5120, 52015.00
110.7440, 45981.00
111.9760, 47420.00
113.2080, 51828.00
114.4400, 55834.00
115.6710, 59011.00
116.9030, 62921.00
118.1340, 64425.00
119.3650, 63304.00
120.5960, 53391.00
121.8270, 44653.00
123.0580, 39120.00
124.2880, 35351.00
125.5190, 34019.00
126.7490, 33325.00
127.9790, 33339.00
129.2090, 33318.00
130.4390, 33243.00
131.6680, 33321.00
132.8980, 33292.79
134.1270, 33338.21
135.3560, 33192.00
136.5850, 33436.00
137.8140, 33119.00
139.0430, 33119.00
140.2710, 33393.00
141.5000, 32823.00
142.7280, 32636.00
143.9560, 32628.00
145.1840, 32493.00
146.4120, 32529.00
147.6390, 32548.00
148.8670, 32359.00
150.0940, 32814.00
151.3210, 33035.00
152.5490, 33237.00
153.7750, 32936.00
155.0020, 32846.00
156.2290, 33139.00
157.4550, 32831.00
158.6810, 32806.00
159.9080, 32985.00
161.1340, 33050.00
162.3590, 33002.00
163.5850, 33005.00
164.8110, 33062.00
166.0360, 32961.00
167.2610, 32664.00
168.4860, 32635.00
169.7110, 32761.00
170.9360, 32753.00
172.1610, 32904.00
173.3850, 32696.00
174.6100, 32778.00
175.8340, 32917.00
177.0580, 32702.00
178.2820, 32603.00
179.5050, 32557.00
180.7290, 32603.00
181.9520, 32550.12
183.1760, 32219.00
184.3990, 32573.00
185.6220, 32629.00
186.8450, 32703.00
188.0670, 33193.00
189.2900, 32854.00
190.5120, 33148.00
191.7340, 33316.00
192.9560, 33488.00
194.1780, 33528.00
195.4000, 33742.00
196.6220, 33926.00
197.8430, 33656.00
199.0640, 33853.00
200.2860, 33735.00
201.5070, 34152.00
202.7270, 34110.00
203.9480, 33468.00
205.1690, 32770.00
206.3890, 32714.00
207.6090, 32072.00
208.8290, 32114.00
210.0490, 32047.00
211.2690, 32034.00
212.4890, 32596.00
213.7080, 32764.00
214.9280, 32748.00
216.1470, 32220.00
217.3660, 32379.00
218.5850, 32340.00
219.8030, 32184.00
221.0220, 32380.00
222.2400, 32248.00
223.4590, 32287.00
224.6770, 32217.00
225.8950, 32166.00
227.1120, 32346.00
228.3300, 32449.00
229.5480, 32405.00
230.7650, 32266.00
231.9820, 32355.00
233.1990, 32311.00
234.4160, 32404.00
235.6330, 32271.00
236.8490, 32327.00
238.0660, 32401.00
239.2820, 32446.00
240.4980, 32525.00
241.7140, 32435.00
242.9300, 32568.00
244.1460, 32516.00
245.3610, 32567.46
246.5770, 32634.00
247.7920, 32695.00
249.0070, 32689.00
250.2220, 32819.95
251.4370, 32810.51
252.6510, 32852.00
253.8660, 32927.00
255.0800, 32916.00
256.2940, 33142.00
257.5080, 34014.00
258.7220, 37399.00
259.9360, 35793.23
261.1490, 37516.00
262.3630, 34609.00
263.5760, 34057.00
264.7890, 34263.00
266.0020, 34493.00
267.2150, 34226.00
268.4270, 33971.00
269.6400, 33995.00
270.8520, 33423.00
272.0640, 33460.00
273.2760, 33159.00
274.4880, 33217.00
275.7000, 33597.00
276.9120, 33613.00
278.1230, 33625.00
279.3340, 33365.00
280.5450, 33408.00
281.7560, 33428.00
282.9670, 33410.00
284.1780, 33389.00
285.3880, 33416.74
286.5980, 33460.71
287.8090, 33451.00
289.0190, 33520.00
290.2290, 33530.00
291.4380, 33385.00
292.6480, 33440.00
293.8570, 33511.00
295.0670, 33422.00
296.2760, 33512.00
297.4850, 33663.00
298.6930, 33706.00
299.9020, 33487.00
301.1110, 33746.00
302.3190, 33516.00
303.5270, 33787.00
304.7350, 33574.00
305.9430, 33840.00
307.1510, 33636.00
308.3580, 33770.00
309.5660, 33939.00
310.7730, 34145.00
311.9800, 34188.00
313.1870, 34044.00
314.3940, 34170.00
315.6010, 34032.00
316.8070, 34024.00
318.0130, 34147.00
319.2200, 34143.00
320.4260, 34220.21
321.6310, 34154.00
322.8370, 34276.00
324.0430, 34407.00
325.2480, 34268.00
326.4540, 34436.00
327.6590, 34313.00
328.8640, 34531.00
330.0680, 34380.00
331.2730, 34591.00
332.4780, 34606.00
333.6820, 34438.00
334.8860, 34630.00
336.0900, 34393.00
337.2940, 34731.00
338.4980, 34820.00
339.7010, 34400.00
340.9050, 34649.00
342.1080, 34598.00
343.3110, 34785.00
344.5140, 34725.00
345.7170, 34639.00
346.9200, 34644.00
348.1220, 34703.00
349.3240, 34793.00
350.5270, 34697.00
351.7290, 34665.00
352.9310, 34714.00
354.1320, 34722.00
355.3340, 34841.00
356.5350, 34929.00
357.7370, 34671.00
358.9380, 35168.00
360.1390, 34801.00
361.3400, 34799.00
362.5400, 34984.00
363.7410, 34735.00
364.9410, 34962.00
366.1410, 34968.00
367.3410, 35059.00
368.5410, 34926.00
369.7410, 34782.00
370.9400, 35135.00
372.1400, 35071.00
373.3390, 35175.00
374.5380, 35154.00
375.7370, 34847.00
376.9360, 35030.00
378.1350, 35246.00
379.3330, 35134.00
380.5310, 35373.00
381.7300, 35169.00
382.9280, 35140.00
384.1260, 35134.00
385.3230, 35220.00
386.5210, 35253.00
387.7180, 35275.30
388.9160, 35091.00
390.1130, 35299.00
391.3100, 35290.40
392.5060, 35241.80
393.7030, 35358.00
394.9000, 35380.00
396.0960, 35327.00
397.2920, 35508.00
398.4880, 35530.00
399.6840, 35756.00
400.8800, 35538.00
402.0750, 35705.00
403.2710, 35721.00
404.4660, 35542.00
405.6610, 35706.00
406.8560, 35518.00
408.0510, 35708.00
409.2450, 35628.00
410.4400, 35750.00
411.6340, 36084.00
412.8280, 35893.00
414.0220, 36077.00
415.2160, 36115.00
416.4100, 35789.00
417.6030, 35774.00
418.7970, 35796.00
419.9900, 35732.96
421.1830, 36017.00
422.3760, 35885.00
423.5690, 36053.00
424.7610, 36258.00
425.9540, 36147.00
427.1460, 36145.00
428.3380, 36063.00
429.5300, 36133.00
430.7220, 36133.33
431.9140, 36202.00
433.1050, 36237.00
434.2970, 36301.00
435.4880, 36404.00
436.6790, 36352.00
437.8700, 36352.00
439.0610, 36426.00
440.2510, 36430.00
441.4420, 36285.00
442.6320, 36268.00
443.8220, 36614.00
445.0120, 36537.00
446.2020, 36420.00
447.3910, 36548.00
448.5810, 36256.00
449.7700, 36733.00
450.9600, 36635.00
452.1490, 36663.00
453.3370, 36384.00
454.5260, 36670.00
455.7150, 36591.00
456.9030, 36826.00
458.0910, 36903.00
459.2800, 36705.00
460.4670, 36892.00
461.6550, 36572.00
462.8430, 36683.00
464.0300, 37025.00
465.2180, 36735.00
466.4050, 36943.00
467.5920, 36751.00
468.7790, 36911.00
469.9650, 36984.00
471.1520, 37110.00
472.3380, 37254.00
473.5250, 37011.00
474.7110, 36856.00
475.8970, 37011.00
477.0820, 37062.00
478.2680, 37326.00
479.4540, 37254.00
480.6390, 37247.00
481.8240, 37106.00
483.0090, 37431.00
484.1940, 37434.00
485.3780, 37153.00
486.5630, 37485.00
487.7470, 37403.00
488.9320, 37488.00
490.1160, 37366.00
491.3000, 37534.00
492.4830, 37427.00
493.6670, 37459.00
494.8500, 37520.00
496.0340, 37938.00
497.2170, 37613.00
498.4000, 37508.00
499.5820, 37784.00
500.7650, 37510.00
501.9480, 37483.00
503.1300, 37659.00
504.3120, 37732.00
505.4940, 37864.00
506.6760, 37818.00
507.8580, 37633.00
509.0390, 37603.00
510.2210, 37817.00
511.4020, 37777.00
512.5830, 37968.00
513.7640, 37885.00
514.9450, 38003.95
516.1250, 38076.00
517.3060, 38221.00
518.4860, 38326.00
519.6660, 38276.73
520.8460, 38224.00
522.0260, 38168.00
523.2060, 38124.00
524.3850, 38114.00
525.5650, 38106.00
526.7440, 38063.59
527.9230, 38263.00
529.1020, 38028.00
530.2810, 38131.00
531.4590, 38196.00
532.6380, 38023.00
533.8160, 38272.00
534.9940, 38178.16
536.1720, 38414.00
537.3500, 38200.00
538.5270, 38340.00
539.7050, 38440.00
540.8820, 38435.00
542.0590, 38574.00
543.2360, 38456.00
544.4130, 38539.00
545.5900, 38715.00
546.7660, 38490.00
547.9430, 38543.00
549.1190, 38616.00
550.2950, 38611.00
551.4710, 38515.00
552.6470, 38607.00
553.8220, 38682.00
554.9980, 38552.00
556.1730, 38730.00
557.3480, 38851.00
558.5230, 38795.00
559.6980, 38752.00
560.8730, 38687.00
562.0470, 38679.00
563.2220, 38946.00
564.3960, 38669.00
565.5700, 38614.00
566.7440, 38937.00
567.9170, 38807.84
569.0910, 38875.46
570.2640, 38943.00
571.4380, 38849.00
572.6110, 38869.00
573.7840, 38827.00
574.9570, 38863.00
576.1290, 38461.00
577.3020, 38532.00
578.4740, 38527.00
579.6460, 38430.00
580.8180, 38513.00
581.9900, 38144.00
583.1620, 38217.00
584.3330, 37984.00
585.5040, 38149.00
586.6760, 38143.00
587.8470, 38076.00
589.0180, 38150.00
590.1880, 38305.00
591.3590, 38099.00
592.5290, 38050.00
593.7000, 38313.00
594.8700, 38230.00
596.0400, 37964.00
597.2090, 38251.00
598.3790, 38107.00
599.5490, 38071.00
600.7180, 38454.00
601.8870, 38100.00
603.0560, 38249.00
604.2250, 38327.00
605.3940, 38309.00
606.5620, 38362.40
607.7300, 38337.10
608.8990, 38237.00
610.0670, 38313.00
611.2350, 38027.00
612.4020, 38078.00
613.5700, 38100.00
614.7370, 38175.00
615.9050, 38250.00
617.0720, 38156.00
618.2390, 38221.22
619.4060, 38214.70
620.5720, 38273.00
621.7390, 38221.00
622.9050, 38347.00
624.0710, 38343.00
625.2370, 38332.00
626.4030, 38375.00
627.5690, 38365.00
628.7340, 38446.00
629.9000, 38697.00
631.0650, 38036.00
632.2300, 38449.00
633.3950, 38317.00
634.5600, 38541.00
635.7240, 38601.00
636.8890, 38399.00
638.0530, 38344.00
639.2170, 38412.00
640.3810, 38570.00
641.5450, 38406.00
642.7080, 38328.00
643.8720, 38271.00
645.0350, 38215.88
646.1980, 38166.00
647.3610, 38275.00
648.5240, 38251.00
649.6870, 38474.00
650.8490, 38533.00
652.0120, 38842.00
653.1740, 38569.75
654.3360, 38644.00
655.4980, 38105.00
656.6600, 38329.00
657.8210, 38327.00
658.9830, 38477.00
660.1440, 38525.00
661.3050, 38444.00
662.4660, 38365.00
663.6270, 38454.00
664.7870, 38567.00
665.9480, 38340.00
667.1080, 38572.00
668.2680, 38331.00
669.4280, 38287.00
670.5880, 38622.00
671.7480, 38386.79
672.9070, 38583.00
674.0670, 38403.00
675.2260, 38245.00
676.3850, 38508.00
677.5440, 38389.00
678.7030, 38293.00
679.8610, 38431.00
681.0200, 38323.00
682.1780, 38358.00
683.3360, 38508.00
684.4940, 38507.00
685.6520, 38433.00
686.8090, 38486.00
687.9670, 38516.00
689.1240, 38411.00
690.2810, 38418.00
691.4380, 38603.00
692.5950, 38446.00
693.7520, 38479.00
694.9080, 38474.00
696.0650, 38738.00
697.2210, 38220.00
698.3770, 38556.00
699.5330, 38363.00
700.6880, 38565.00
701.8440, 38397.00
702.9990, 38478.00
704.1550, 38330.00
705.3100, 38624.00
706.4650, 38510.00
707.6190, 38450.00
708.7740, 38350.00
709.9290, 38551.00
711.0830, 38552.00
712.2370, 38670.00
713.3910, 38774.00
714.5450, 38446.00
715.6980, 38790.00
716.8520, 38634.00
718.0050, 38824.00
719.1580, 38631.00
720.3110, 38567.00
721.4640, 38682.00
722.6170, 38903.00
723.7700, 38761.00
724.9220, 38812.00
726.0740, 38806.00
727.2260, 38784.00
728.3780, 38783.00
729.5300, 38897.00
730.6810, 39016.00
731.8330, 38781.00
732.9840, 38802.00
734.1350, 39107.00
735.2860, 38947.00
736.4370, 39052.00
737.5880, 38783.00
738.7380, 38834.00
739.8880, 38940.00
741.0390, 39036.00
742.1890, 38795.00
743.3380, 38884.00
744.4880, 38973.00
745.6380, 38716.00
746.7870, 38965.00
747.9360, 39166.00
749.0850, 39119.00
750.2340, 39002.00
751.3830, 39176.00
752.5310, 39046.00
753.6800, 39057.00
754.8280, 39088.00
755.9760, 39071.00
757.1240, 39112.00
758.2720, 39157.00
759.4190, 39060.00
760.5670, 39101.00
761.7140, 39180.00
762.8610, 39267.00
764.0080, 39161.00
765.1550, 39149.00
766.3020, 39358.00
767.4480, 39157.00
768.5950, 39282.00
769.7410, 39070.00
770.8870, 39291.00
772.0330, 39139.00
773.1780, 39351.00
774.3240, 39457.00
775.4690, 39178.00
776.6140, 39316.00
777.7590, 39161.00
778.9040, 39453.00
780.0490, 39163.00
781.1940, 39288.00
782.3380, 39339.00
783.4820, 39381.00
784.6260, 39309.00
785.7700, 39128.00
786.9140, 39380.00
788.0580, 39004.00
789.2010, 39098.00
790.3450, 39443.00
791.4880, 39198.00
792.6310, 39284.00
793.7730, 39149.00
794.9160, 39542.00
796.0590, 39445.00
797.2010, 39616.00
798.3430, 39453.00
799.4850, 39443.00
800.6270, 39529.00
801.7690, 39449.00
802.9100, 39371.00
804.0520, 39664.00
805.1930, 39552.00
806.3340, 39425.00
807.4750, 39346.00
808.6160, 39566.00
809.7560, 39504.00
810.8970, 39474.00
812.0370, 39537.00
813.1770, 39534.00
814.3170, 39739.00
815.4570, 39538.00
816.5960, 39494.00
817.7360, 39321.00
818.8750, 39881.00
820.0140, 39718.00
821.1530, 39812.00
822.2920, 39541.00
823.4310, 39481.00
824.5690, 39732.00
825.7070, 39681.00
826.8460, 39669.00
827.9840, 39850.00
829.1220, 39762.00
830.2590, 39592.00
831.3970, 39790.00
832.5340, 39621.00
833.6710, 39944.00
834.8080, 39592.00
835.9450, 39732.00
837.0820, 39516.00
838.2190, 39476.00
839.3550, 39705.00
840.4910, 39778.00
841.6270, 39836.00
842.7630, 39661.00
843.8990, 39494.00
845.0350, 39828.00
846.1700, 39789.00
847.3060, 39907.00
848.4410, 39828.00
849.5760, 39584.00
850.7100, 39812.00
851.8450, 39866.00
852.9800, 39930.00
854.1140, 40156.00
855.2480, 40122.00
856.3820, 40072.00
857.5160, 40018.00
858.6500, 40007.00
859.7830, 39918.47
860.9170, 39876.67
862.0500, 39804.00
863.1830, 39797.00
864.3160, 39836.00
865.4480, 39891.00
866.5810, 39977.00
867.7130, 39947.46
868.8460, 39909.00
869.9780, 39923.00
871.1100, 39773.00
872.2410, 39798.04
873.3730, 39865.86
874.5050, 40034.00
875.6360, 40043.00
876.7670, 40291.00
877.8980, 40319.00
879.0290, 40217.00
880.1590, 40109.00
881.2900, 40214.00
882.4200, 40277.00
883.5500, 40034.00
884.6800, 40211.00
885.8100, 40307.00
886.9400, 40102.00
888.0690, 40198.00
889.1990, 40317.00
890.3280, 40442.00
891.4570, 40167.00
892.5860, 40368.00
893.7140, 40079.00
894.8430, 40319.00
895.9710, 40569.00
897.1000, 40345.00
898.2280, 40289.00
899.3560, 40261.00
900.4830, 40221.98
901.6110, 40230.61
902.7380, 40344.00
903.8660, 40315.00
904.9930, 40506.00
906.1200, 40664.00
907.2460, 40541.00
908.3730, 40471.00
909.5000, 40556.00
910.6260, 40499.66
911.7520, 40642.00
912.8780, 40610.00
914.0040, 40643.00
915.1290, 40848.00
916.2550, 40578.00
917.3800, 40660.00
918.5050, 40769.00
919.6300, 40907.00
920.7550, 40912.90
921.8800, 40752.00
923.0040, 40901.00
924.1290, 40847.00
925.2530, 40756.00
926.3770, 40916.00
927.5010, 40764.00
928.6250, 40709.00
929.7480, 40902.00
930.8720, 40897.00
931.9950, 40908.00
933.1180, 41125.00
934.2410, 40952.00
935.3640, 41288.00
936.4860, 40998.00
937.6090, 40699.00
938.7310, 40913.91
939.8530, 40938.00
940.9750, 40963.00
942.0970, 41369.00
943.2180, 41241.00
944.3400, 40982.00
945.4610, 41210.00
946.5820, 40646.00
947.7030, 41485.00
948.8240, 40962.00
949.9450, 41217.00
951.0650, 41295.00
952.1860, 41094.00
953.3060, 41011.00
954.4260, 41090.00
955.5460, 41100.00
956.6650, 41166.20
957.7850, 41429.00
958.9040, 41330.00
960.0230, 41517.00
961.1420, 41559.00
962.2610, 41324.00
963.3800, 40883.83
964.4990, 41437.79
965.6170, 41756.84
966.7350, 41853.61
967.8530, 41062.38
968.9710, 41417.82
970.0890, 41313.72
971.2070, 41190.79
972.3240, 41707.61
973.4410, 41045.51
974.5580, 41552.18
975.6750, 41592.31
976.7920, 41845.96
977.9090, 41637.23
979.0250, 41571.31
980.1410, 41967.90
981.2580, 42108.41
982.3740, 41846.45
983.4890, 42113.64
984.6050, 41435.38
985.7200, 41586.77
986.8360, 42096.13
987.9510, 41610.00
989.0660, 41668.00
990.1810, 41910.00
991.2950, 41832.00
992.4100, 42010.00
993.5240, 42148.00
994.6390, 41837.00
995.7530, 42042.00
996.8660, 41947.00
997.9800, 41983.00
999.0940, 42142.00
1000.207, 41938.00
1001.320, 41880.00
1002.433, 42100.00
1003.546, 41893.00
1004.659, 42017.00
1005.772, 41975.00
1006.884, 42174.00
1007.996, 42155.00
1009.108, 42208.52
1010.220, 42222.00
1011.332, 42223.00
1012.444, 42065.00
1013.555, 41938.00
1014.666, 42276.00
1015.777, 42248.00
1016.888, 42402.00
1017.999, 42156.00
1019.110, 41997.00
1020.220, 42169.00
1021.331, 42206.00
1022.441, 42112.00
1023.551, 42291.00
1024.661, 42238.00
1025.770, 42053.00
1026.880, 42317.00
1027.989, 42312.00
1029.098, 42301.00
1030.207, 42482.00
1031.316, 42505.00
1032.425, 42448.00
1033.533, 42350.00
1034.642, 42239.00
1035.750, 42502.00
1036.858, 42275.00
1037.966, 42387.00
1039.073, 42501.00
1040.181, 42472.00
1041.288, 42235.00
1042.396, 42666.00
1043.503, 42216.00
1044.610, 42456.00
1045.716, 42836.00
1046.823, 42446.00
1047.929, 42724.00
1049.036, 42522.00
1050.142, 42936.00
1051.248, 42826.00
1052.353, 42655.00
1053.459, 42673.00
1054.564, 42744.00
1055.670, 42775.00
1056.775, 42616.00
1057.880, 42657.00
1058.985, 42536.00
1060.089, 42949.00
1061.194, 42727.00
1062.298, 43234.00
1063.402, 43509.00
1064.506, 42676.00
1065.610, 42858.00
1066.713, 42828.00
1067.817, 42866.00
1068.920, 42757.00
1070.023, 42958.00
1071.126, 42988.00
1072.229, 42907.00
1073.332, 42910.00
1074.435, 42866.00
1075.537, 42845.00
1076.639, 42913.00
1077.741, 42829.00
1078.843, 43160.00
1079.945, 43260.00
1081.046, 43248.00
1082.148, 42927.00
1083.249, 43004.00
1084.350, 42790.00
1085.451, 42974.00
1086.551, 42734.00
1087.652, 42960.00
1088.752, 42691.00
1089.853, 42902.00
1090.953, 42690.00
1092.053, 42449.00
1093.152, 42986.00
1094.252, 42738.00
1095.351, 42639.00
1096.451, 43349.00
1097.550, 43062.00
1098.649, 42619.00
1099.748, 42722.00
1100.846, 42883.00
1101.945, 43118.00
1103.043, 42890.00
1104.141, 42773.00
1105.239, 43003.00
1106.337, 42727.00
1107.434, 42845.00
1108.532, 42658.00
1109.629, 42633.00
1110.726, 42844.00
1111.823, 42647.00
1112.920, 42608.00
1114.017, 42765.00
1115.113, 42815.00
1116.210, 42887.00
1117.306, 42943.33
1118.402, 43003.58
1119.498, 43019.00
1120.593, 43101.00
1121.689, 43178.44
1122.784, 43178.89
1123.879, 43220.00
1124.974, 43073.00
1126.069, 42958.00
1127.164, 42751.00
1128.259, 42665.13
1129.353, 42476.00
1130.447, 42430.00
1131.541, 42479.00
1132.635, 42323.00
1133.729, 42317.00
1134.822, 42594.00
1135.916, 42176.00
1137.009, 42213.00
1138.102, 42354.00
1139.195, 42206.00
1140.288, 42452.00
1141.380, 42183.00
1142.473, 42248.00
1143.565, 42491.00
1144.657, 42466.00
1145.749, 42325.00
1146.841, 42325.00
1147.932, 42279.00
1149.024, 42378.00
1150.115, 42338.95
1151.206, 42228.00
1152.297, 42256.00
1153.388, 42171.00
1154.479, 41944.00
1155.569, 42250.00
1156.659, 42439.00
1157.750, 42259.00
1158.839, 42509.00
1159.929, 42022.00
1161.019, 42108.00
1162.108, 42287.00
1163.198, 42337.00
1164.287, 42241.00
1165.376, 42106.00
1166.465, 42054.00
1167.553, 41950.00
1168.642, 41970.00
1169.730, 42243.00
1170.818, 42302.00
1171.906, 42109.00
1172.994, 41994.00
1174.082, 41892.00
1175.170, 42151.00
1176.257, 42193.00
1177.344, 42259.28
1178.431, 42250.45
1179.518, 42506.00
1180.605, 42105.00
1181.691, 42365.00
1182.778, 42346.00
1183.864, 42123.00
1184.950, 42195.00
1186.036, 42266.00
1187.122, 42016.00
1188.207, 42043.00
1189.292, 42242.00
1190.378, 42120.00
1191.463, 41906.00
1192.548, 42187.00
1193.632, 42247.00
1194.717, 41981.00
1195.801, 41911.00
1196.886, 42112.00
1197.970, 42158.00
1199.054, 41902.00
1200.137, 42136.00
1201.221, 42059.00
1202.305, 42153.00
1203.388, 42284.00
1204.471, 41985.00
1205.554, 42204.00
1206.637, 42173.00
1207.719, 41971.00
1208.802, 41950.00
1209.884, 41767.00
1210.966, 41948.00
1212.048, 42125.00
1213.130, 42112.00
1214.212, 42072.00
1215.293, 42058.00
1216.374, 41992.00
1217.456, 42093.00
1218.536, 41969.00
1219.617, 42175.00
1220.698, 42122.00
1221.778, 41969.00
1222.859, 42134.00
1223.939, 42015.00
1225.019, 41941.00
1226.099, 42208.00
1227.178, 41968.00
1228.258, 41875.00
1229.337, 42075.00
1230.417, 42211.00
1231.496, 41827.00
1232.574, 42151.00
1233.653, 42002.00
1234.732, 42149.00
1235.810, 42036.00
1236.888, 42140.00
1237.966, 42044.00
1239.044, 41856.00
1240.122, 42025.00
1241.199, 41968.00
1242.277, 41998.00
1243.354, 42025.00
1244.431, 42128.00
1245.508, 42354.00
1246.585, 42085.00
1247.661, 42012.00
1248.738, 42186.00
1249.814, 42259.00
1250.890, 42260.00
1251.966, 42239.00
1253.042, 42153.00
1254.117, 42268.00
1255.193, 41957.00
1256.268, 42335.00
1257.343, 42100.00
1258.418, 42166.00
1259.493, 42291.00
1260.567, 42129.00
1261.642, 42025.00
1262.716, 42173.00
1263.790, 42211.00
1264.864, 42327.00
1265.938, 42396.14
1267.011, 42466.00
1268.085, 42414.00
1269.158, 42284.00
1270.231, 42312.30
1271.304, 42161.00
1272.377, 42241.00
1273.450, 42217.00
1274.522, 42162.00
1275.594, 42176.00
1276.666, 42346.00
1277.738, 41984.00
1278.810, 42460.00
1279.882, 42277.00
1280.953, 42198.00
1282.025, 42272.00
1283.096, 42315.00
1284.167, 42217.00
1285.238, 42259.00
1286.308, 42196.00
1287.379, 42237.00
1288.449, 42258.00
1289.519, 42272.00
1290.589, 42318.00
1291.659, 42330.52
1292.729, 42393.00
1293.798, 42349.00
1294.868, 42369.00
1295.937, 42324.00
1297.006, 42338.29
1298.075, 42315.69
1299.143, 42333.00
1300.212, 42326.00
1301.280, 42264.00
1302.348, 42371.00
1303.416, 42340.00
1304.484, 42300.00
1305.552, 42424.00
1306.620, 42293.00
1307.687, 42028.00
1308.754, 42396.00
1309.821, 42495.00
1310.888, 42278.00
1311.955, 42325.00
1313.021, 42266.00
1314.088, 42484.00
1315.154, 42556.00
1316.220, 42423.00
1317.286, 42329.00
1318.352, 42321.00
1319.417, 42480.00
1320.483, 42424.00
1321.548, 42414.00
1322.613, 42600.00
1323.678, 42536.00
1324.743, 42618.00
1325.807, 42421.00
1326.872, 42433.00
1327.936, 42320.00
1329.000, 42387.89
1330.064, 42450.00
1331.128, 42538.00
1332.191, 42457.00
1333.255, 42417.00
1334.318, 42490.72
1335.381, 42679.00
1336.444, 42526.00
1337.507, 42474.00
1338.569, 42335.00
1339.632, 42430.00
1340.694, 42409.00
1341.756, 42686.00
1342.818, 42336.00
1343.880, 42560.00
1344.941, 42477.00
1346.003, 42632.00
1347.064, 42518.00
1348.125, 42382.00
1349.186, 42411.00
1350.247, 42483.00
1351.308, 42464.00
1352.368, 42485.51
1353.428, 42408.00
1354.489, 42514.00
1355.549, 42436.00
1356.608, 42523.00
1357.668, 42735.00
1358.727, 42518.00
1359.787, 42413.00
1360.846, 42593.00
1361.905, 42677.00
1362.964, 42787.00
1364.022, 42822.02
1365.081, 42820.91
1366.139, 42767.00
1367.197, 42714.00
1368.255, 42536.00
1369.313, 42388.00
1370.371, 42453.07
1371.428, 42426.16
1372.486, 42581.00
1373.543, 42524.00
1374.600, 42572.00
1375.657, 42497.00
1376.713, 42666.00
1377.770, 42614.00
1378.826, 42515.00
1379.882, 42515.00
1380.938, 42725.00
1381.994, 42479.00
1383.050, 42665.00
1384.106, 42972.00
1385.161, 42510.00
1386.216, 42515.00
1387.271, 42602.00
1388.326, 42549.00
1389.381, 42788.00
1390.435, 42683.00
1391.490, 42605.00
1392.544, 42629.00
1393.598, 42467.00
1394.652, 42544.00
1395.705, 42396.00
1396.759, 42895.00
1397.812, 42702.00
1398.866, 42850.00
1399.919, 42768.00
1400.972, 42762.00
1402.024, 42749.00
1403.077, 42645.00
1404.129, 42560.00
1405.181, 42468.00
1406.233, 42689.00
1407.285, 42772.00
1408.337, 42448.00
1409.389, 42379.00
1410.440, 42848.00
1411.491, 42672.00
1412.542, 42661.00
1413.593, 42714.00
1414.644, 42675.00
1415.695, 42779.00
1416.745, 42712.00
1417.795, 42788.00
1418.845, 42810.00
1419.895, 42794.21
1420.945, 42599.00
1421.995, 42827.00
1423.044, 42847.00
1424.093, 42934.00
1425.142, 42646.00
1426.191, 42834.00
1427.240, 42693.00
1428.289, 43021.00
1429.337, 42648.00
1430.385, 42117.42
1431.433, 42652.65
1432.481, 42952.98
1433.529, 43031.04
1434.577, 42221.08
1435.624, 42557.80
1436.672, 42434.99
1437.719, 42293.34
1438.766, 42791.45
1439.812, 42769.00
1440.859, 42738.00
1441.905, 42956.00
1442.952, 42610.00
1443.998, 42709.00
1445.044, 42748.00
1446.090, 43059.00
1447.135, 42890.00
1448.181, 42787.00
1449.226, 42946.00
1450.271, 42878.00
1451.316, 42936.00
1452.361, 42978.75
1453.405, 43051.00
1454.450, 42952.00
1455.494, 43009.00
1456.538, 42822.00
1457.582, 43101.00
1458.626, 42721.00
1459.670, 43046.00
1460.713, 42949.00
1461.757, 43029.00
1462.800, 42927.00
1463.843, 42854.00
1464.886, 42840.00
1465.928, 42883.02
1466.971, 42911.00
1468.013, 43003.00
1469.055, 42881.00
1470.097, 42798.00
1471.139, 42660.00
1472.181, 42651.00
1473.222, 42987.00
1474.263, 42765.00
1475.305, 42842.00
1476.346, 43180.00
1477.386, 43013.00
1478.427, 42928.00
1479.468, 42805.00
1480.508, 43168.00
1481.548, 42912.00
1482.588, 43212.00
1483.628, 42815.00
1484.668, 43000.00
1485.707, 43063.00
1486.747, 42694.00
1487.786, 42921.00
1488.825, 42737.00
1489.864, 42880.00
1490.902, 43225.00
1491.941, 42921.00
1492.979, 43017.00
1494.017, 43033.00
1495.055, 42881.00
1496.093, 42978.00
1497.131, 43322.00
1498.168, 43291.00
1499.206, 43004.00
1500.243, 42751.00
1501.280, 43190.00
1502.317, 43206.00
1503.354, 43002.00
1504.390, 43152.00
1505.426, 43154.00
1506.463, 43216.00
1507.499, 43069.00
1508.535, 43313.00
1509.570, 43149.55
1510.606, 42933.00
1511.641, 43029.00
1512.676, 42949.00
1513.711, 43019.00
1514.746, 43158.00
1515.781, 43039.00
1516.816, 43357.00
1517.850, 43140.00
1518.884, 43095.00
1519.918, 43287.00
1520.952, 43148.00
1521.986, 43254.00
1523.019, 43138.00
1524.053, 43223.00
1525.086, 43348.00
1526.119, 43333.00
1527.152, 43358.00
1528.185, 43289.00
1529.217, 43281.00
1530.250, 43264.00
1531.282, 43172.00
1532.314, 43377.00
1533.346, 43324.00
1534.377, 43049.00
1535.409, 43275.00
1536.440, 43279.00
1537.472, 43330.00
1538.503, 43326.00
1539.534, 43569.00
1540.564, 43554.00
1541.595, 43531.91
1542.625, 43561.87
1543.656, 43434.00
1544.686, 43414.00
1545.716, 43454.00
1546.745, 43298.00
##END=



