##NAMES=Arsenopyrite
##RRUFFID=R050071
##IDEAL CHEMISTRY=Fe^3+^(AsS)^3-^
##LOCALITY=Yaogangxian mine, Yizhang County, Hunan Province, China
##OWNER=RRUFF
##SOURCE=Rock Currier
##DESCRIPTION=Steel-gray tabular
##STATUS=The identification of this mineral has been confirmed by X-ray diffraction and chemical analysis
##URL=rruff.info/R050071
##MEASURED CHEMISTRY=FeAsS
##PIN_ID=L00055
##ORIENTATION=Laser parallel to b* (0 1 0). Fiducial mark perpendicular to laser is parallel to c [0 0 1]
72.47700, 32661.00
73.71400, 39006.00
74.95100, 46430.00
76.18700, 52160.00
77.42300, 53064.00
78.65900, 52427.00
79.89500, 46129.00
81.13100, 38474.00
82.36700, 34852.00
83.60200, 34160.00
84.83700, 33758.00
86.07200, 32772.00
87.30800, 32753.00
88.54200, 32763.00
89.77700, 33446.00
91.01200, 33753.00
92.24600, 34097.00
93.48000, 33692.00
94.71400, 33274.00
95.94800, 33292.00
97.18200, 32810.00
98.41600, 32963.00
99.64900, 32866.00
100.8830, 32933.00
102.1160, 33193.00
103.3490, 34046.00
104.5820, 35442.00
105.8150, 38075.00
107.0470, 41630.00
108.2800, 41994.86
109.5120, 49584.00
110.7440, 44868.00
111.9760, 45857.00
113.2080, 49899.00
114.4400, 54426.00
115.6710, 58296.00
116.9030, 62226.00
118.1340, 60534.52
119.3650, 63157.00
120.5960, 53905.00
121.8270, 45629.00
123.0580, 38740.00
124.2880, 34926.00
125.5190, 32904.00
126.7490, 32539.00
127.9790, 32678.00
129.2090, 32620.00
130.4390, 32472.00
131.6680, 32534.00
132.8980, 32282.00
134.1270, 32068.00
135.3560, 32494.00
136.5850, 32589.00
137.8140, 32484.00
139.0430, 32693.00
140.2710, 32604.00
141.5000, 32267.00
142.7280, 32180.00
143.9560, 31945.00
145.1840, 31872.00
146.4120, 32002.00
147.6390, 32454.00
148.8670, 32516.00
150.0940, 32490.00
151.3210, 32515.34
152.5490, 32417.31
153.7750, 32372.00
155.0020, 32172.00
156.2290, 32396.00
157.4550, 32280.00
158.6810, 32255.00
159.9080, 32533.00
161.1340, 32780.00
162.3590, 32734.00
163.5850, 32685.00
164.8110, 32377.00
166.0360, 32257.00
167.2610, 31966.00
168.4860, 31919.00
169.7110, 32259.00
170.9360, 32390.00
172.1610, 32233.00
173.3850, 32001.00
174.6100, 32346.00
175.8340, 32274.00
177.0580, 32287.00
178.2820, 31966.00
179.5050, 31879.00
180.7290, 32071.00
181.9520, 32154.00
183.1760, 31957.00
184.3990, 31818.00
185.6220, 31968.00
186.8450, 32282.00
188.0670, 32601.00
189.2900, 32436.00
190.5120, 33062.00
191.7340, 32734.00
192.9560, 32937.00
194.1780, 33038.00
195.4000, 33103.00
196.6220, 33232.00
197.8430, 33100.00
199.0640, 32965.00
200.2860, 33119.00
201.5070, 33271.00
202.7270, 33089.00
203.9480, 32714.00
205.1690, 32251.00
206.3890, 32089.00
207.6090, 31874.61
208.8290, 31859.00
210.0490, 31729.00
211.2690, 31837.00
212.4890, 31902.00
213.7080, 32278.00
214.9280, 32035.00
216.1470, 32083.00
217.3660, 32509.00
218.5850, 31815.00
219.8030, 31922.00
221.0220, 32027.00
222.2400, 31981.00
223.4590, 32087.00
224.6770, 31961.00
225.8950, 32125.00
227.1120, 31813.00
228.3300, 32001.00
229.5480, 31861.00
230.7650, 32578.00
231.9820, 31910.00
233.1990, 31910.00
234.4160, 32325.00
235.6330, 31987.00
236.8490, 32068.00
238.0660, 32193.00
239.2820, 32061.00
240.4980, 32210.00
241.7140, 32105.00
242.9300, 32100.00
244.1460, 32094.00
245.3610, 32213.00
246.5770, 32263.00
247.7920, 32168.00
249.0070, 32175.00
250.2220, 32355.00
251.4370, 32500.00
252.6510, 32352.00
253.8660, 32505.00
255.0800, 32519.00
256.2940, 32783.00
257.5080, 33321.00
258.7220, 35709.00
259.9360, 34739.09
261.1490, 35646.00
262.3630, 34127.00
263.5760, 33690.00
264.7890, 33717.00
266.0020, 33812.00
267.2150, 34147.00
268.4270, 33927.00
269.6400, 33781.00
270.8520, 33290.00
272.0640, 33309.00
273.2760, 34029.00
274.4880, 35429.00
275.7000, 34406.13
276.9120, 34364.00
278.1230, 33072.00
279.3340, 32989.00
280.5450, 32769.00
281.7560, 33086.00
282.9670, 33031.00
284.1780, 33080.00
285.3880, 33226.00
286.5980, 33170.27
287.8090, 32903.00
289.0190, 33178.00
290.2290, 33078.00
291.4380, 33083.00
292.6480, 33246.00
293.8570, 32972.00
295.0670, 33101.00
296.2760, 33244.00
297.4850, 33414.00
298.6930, 33397.00
299.9020, 33351.00
301.1110, 33345.00
302.3190, 33453.00
303.5270, 33416.00
304.7350, 33457.90
305.9430, 33493.00
307.1510, 33488.00
308.3580, 33638.00
309.5660, 33652.00
310.7730, 33735.00
311.9800, 33690.00
313.1870, 33641.00
314.3940, 33608.00
315.6010, 33804.00
316.8070, 33955.00
318.0130, 33828.00
319.2200, 33671.00
320.4260, 33611.00
321.6310, 33933.00
322.8370, 33909.00
324.0430, 33999.00
325.2480, 34292.00
326.4540, 34076.00
327.6590, 33990.00
328.8640, 34009.00
330.0680, 34168.00
331.2730, 34193.00
332.4780, 33990.00
333.6820, 34230.00
334.8860, 34181.00
336.0900, 34197.00
337.2940, 34457.00
338.4980, 34387.00
339.7010, 34198.00
340.9050, 34355.00
342.1080, 34308.00
343.3110, 34218.00
344.5140, 34263.00
345.7170, 34200.00
346.9200, 34228.00
348.1220, 34658.00
349.3240, 34531.00
350.5270, 34711.00
351.7290, 34509.00
352.9310, 34576.00
354.1320, 34577.00
355.3340, 34641.00
356.5350, 34743.00
357.7370, 34713.00
358.9380, 34829.00
360.1390, 34844.07
361.3400, 34840.00
362.5400, 34807.00
363.7410, 34884.00
364.9410, 34658.00
366.1410, 34985.00
367.3410, 34814.00
368.5410, 34977.00
369.7410, 34970.00
370.9400, 34923.00
372.1400, 35091.00
373.3390, 35031.00
374.5380, 34956.00
375.7370, 34988.00
376.9360, 34830.00
378.1350, 35090.00
379.3330, 34976.00
380.5310, 35135.00
381.7300, 35055.00
382.9280, 34832.00
384.1260, 34910.00
385.3230, 35165.00
386.5210, 34753.00
387.7180, 34910.00
388.9160, 35246.00
390.1130, 35450.00
391.3100, 35196.00
392.5060, 35389.00
393.7030, 35394.00
394.9000, 35558.00
396.0960, 35404.00
397.2920, 35321.00
398.4880, 35276.00
399.6840, 35507.00
400.8800, 35649.00
402.0750, 35618.00
403.2710, 35600.00
404.4660, 35595.00
405.6610, 35728.00
406.8560, 35678.00
408.0510, 35519.00
409.2450, 36030.00
410.4400, 35801.00
411.6340, 35722.00
412.8280, 35904.00
414.0220, 35682.00
415.2160, 35790.00
416.4100, 35928.00
417.6030, 35771.00
418.7970, 36153.00
419.9900, 36154.00
421.1830, 36175.00
422.3760, 35825.00
423.5690, 36053.00
424.7610, 36154.00
425.9540, 36035.00
427.1460, 36123.00
428.3380, 36246.00
429.5300, 35992.00
430.7220, 36160.00
431.9140, 36113.00
433.1050, 36232.00
434.2970, 36097.00
435.4880, 36160.00
436.6790, 36138.00
437.8700, 36398.00
439.0610, 36107.00
440.2510, 36319.00
441.4420, 36234.00
442.6320, 36503.00
443.8220, 36453.00
445.0120, 36422.00
446.2020, 36566.00
447.3910, 36469.00
448.5810, 36369.00
449.7700, 36192.00
450.9600, 36636.00
452.1490, 36460.00
453.3370, 36660.00
454.5260, 36513.00
455.7150, 36516.00
456.9030, 36803.00
458.0910, 36501.00
459.2800, 36377.00
460.4670, 36791.00
461.6550, 36626.00
462.8430, 36720.00
464.0300, 36756.00
465.2180, 36500.00
466.4050, 36769.00
467.5920, 36580.00
468.7790, 36930.00
469.9650, 36929.00
471.1520, 36994.00
472.3380, 37069.00
473.5250, 36990.00
474.7110, 37001.00
475.8970, 36946.00
477.0820, 37043.00
478.2680, 36959.00
479.4540, 36996.01
480.6390, 36971.00
481.8240, 37061.00
483.0090, 37175.00
484.1940, 37299.00
485.3780, 37370.24
486.5630, 37383.00
487.7470, 37446.00
488.9320, 37429.00
490.1160, 37289.00
491.3000, 37436.00
492.4830, 37286.00
493.6670, 37290.00
494.8500, 37388.00
496.0340, 37346.00
497.2170, 37582.00
498.4000, 37533.00
499.5820, 37625.00
500.7650, 37603.00
501.9480, 37662.00
503.1300, 37572.00
504.3120, 37649.00
505.4940, 37654.00
506.6760, 37752.00
507.8580, 37714.00
509.0390, 37634.00
510.2210, 38129.00
511.4020, 37859.00
512.5830, 37555.00
513.7640, 37945.00
514.9450, 37942.00
516.1250, 37922.00
517.3060, 38136.00
518.4860, 38260.00
519.6660, 37946.00
520.8460, 38006.00
522.0260, 38167.00
523.2060, 38032.00
524.3850, 38110.00
525.5650, 38094.00
526.7440, 38099.00
527.9230, 38171.00
529.1020, 37958.00
530.2810, 38166.00
531.4590, 38101.00
532.6380, 38094.00
533.8160, 38230.00
534.9940, 38330.00
536.1720, 38269.00
537.3500, 38258.00
538.5270, 38122.00
539.7050, 38266.00
540.8820, 38382.00
542.0590, 38640.00
543.2360, 38413.00
544.4130, 38206.00
545.5900, 38476.00
546.7660, 38689.00
547.9430, 38523.00
549.1190, 38577.00
550.2950, 38638.00
551.4710, 38725.00
552.6470, 38490.00
553.8220, 38819.00
554.9980, 38441.00
556.1730, 38836.00
557.3480, 38599.00
558.5230, 38480.00
559.6980, 38858.00
560.8730, 38740.65
562.0470, 38830.00
563.2220, 38812.00
564.3960, 38705.00
565.5700, 38784.16
566.7440, 38860.00
567.9170, 38787.00
569.0910, 38881.00
570.2640, 38797.00
571.4380, 38674.00
572.6110, 38625.00
573.7840, 38562.00
574.9570, 38552.00
576.1290, 38618.00
577.3020, 38803.00
578.4740, 38700.00
579.6460, 38685.69
580.8180, 38531.00
581.9900, 38505.00
583.1620, 38345.00
584.3330, 38319.00
585.5040, 38216.00
586.6760, 38079.00
587.8470, 38142.00
589.0180, 38320.00
590.1880, 38442.00
591.3590, 38214.00
592.5290, 38427.00
593.7000, 38232.00
594.8700, 38268.00
596.0400, 38109.00
597.2090, 38111.00
598.3790, 38165.00
599.5490, 38184.00
600.7180, 38210.00
601.8870, 38321.00
603.0560, 38122.00
604.2250, 38227.00
605.3940, 38124.00
606.5620, 38048.00
607.7300, 38181.00
608.8990, 38283.00
610.0670, 38198.00
611.2350, 38287.00
612.4020, 38264.00
613.5700, 38473.00
614.7370, 38325.00
615.9050, 38674.00
617.0720, 38346.00
618.2390, 38493.00
619.4060, 38531.00
620.5720, 38497.00
621.7390, 38692.00
622.9050, 38496.00
624.0710, 38456.00
625.2370, 38446.00
626.4030, 38708.00
627.5690, 38388.00
628.7340, 38687.00
629.9000, 38238.00
631.0650, 38528.00
632.2300, 38593.00
633.3950, 38705.00
634.5600, 38488.00
635.7240, 38611.00
636.8890, 38479.00
638.0530, 38506.00
639.2170, 38572.00
640.3810, 38481.00
641.5450, 38680.00
642.7080, 38504.00
643.8720, 38657.00
645.0350, 38429.00
646.1980, 38632.00
647.3610, 38629.00
648.5240, 38925.00
649.6870, 38793.29
650.8490, 38668.00
652.0120, 38620.00
653.1740, 38475.00
654.3360, 38468.00
655.4980, 38354.00
656.6600, 38433.00
657.8210, 38447.00
658.9830, 38739.00
660.1440, 38634.00
661.3050, 38575.00
662.4660, 38578.00
663.6270, 38407.00
664.7870, 38672.00
665.9480, 38493.00
667.1080, 38707.00
668.2680, 38441.00
669.4280, 38288.00
670.5880, 38503.00
671.7480, 38451.00
672.9070, 38570.00
674.0670, 38545.00
675.2260, 38520.00
676.3850, 38593.98
677.5440, 38636.00
678.7030, 38706.00
679.8610, 38781.00
681.0200, 38915.00
682.1780, 38490.00
683.3360, 38620.00
684.4940, 38634.00
685.6520, 38880.00
686.8090, 38768.00
687.9670, 38754.00
689.1240, 38509.00
690.2810, 38724.00
691.4380, 38745.00
692.5950, 38579.00
693.7520, 38666.00
694.9080, 38806.00
696.0650, 38750.00
697.2210, 38694.00
698.3770, 38777.00
699.5330, 38641.00
700.6880, 38731.00
701.8440, 38628.00
702.9990, 38640.00
704.1550, 38870.00
705.3100, 38821.00
706.4650, 38732.00
707.6190, 38878.00
708.7740, 38815.00
709.9290, 39015.00
711.0830, 38722.00
712.2370, 38917.00
713.3910, 38741.00
714.5450, 38524.00
715.6980, 38912.00
716.8520, 38713.00
718.0050, 38835.00
719.1580, 38855.00
720.3110, 39049.00
721.4640, 38848.00
722.6170, 39035.00
723.7700, 39185.00
724.9220, 39018.00
726.0740, 38943.00
727.2260, 39041.00
728.3780, 39096.00
729.5300, 39056.00
730.6810, 39153.00
731.8330, 38996.00
732.9840, 39148.00
734.1350, 39137.00
735.2860, 39394.00
736.4370, 39331.00
737.5880, 39059.00
738.7380, 39416.00
739.8880, 39170.00
741.0390, 39130.00
742.1890, 39347.00
743.3380, 39241.00
744.4880, 39559.00
745.6380, 39238.00
746.7870, 39282.00
747.9360, 39353.00
749.0850, 39287.00
750.2340, 39315.00
751.3830, 39476.00
752.5310, 39584.00
753.6800, 39519.62
754.8280, 39320.00
755.9760, 39408.00
757.1240, 39445.00
758.2720, 39451.00
759.4190, 39430.00
760.5670, 39436.00
761.7140, 39599.00
762.8610, 39535.00
764.0080, 39327.00
765.1550, 39573.00
766.3020, 39425.00
767.4480, 39260.00
768.5950, 39566.00
769.7410, 39205.00
770.8870, 39507.00
772.0330, 39866.00
773.1780, 39346.00
774.3240, 39660.00
775.4690, 39599.00
776.6140, 39549.00
777.7590, 39521.00
778.9040, 39509.00
780.0490, 39554.00
781.1940, 39444.00
782.3380, 39579.00
783.4820, 39469.00
784.6260, 39411.00
785.7700, 39378.00
786.9140, 39529.00
788.0580, 39413.00
789.2010, 39515.00
790.3450, 39503.65
791.4880, 39524.64
792.6310, 39583.00
793.7730, 39552.00
794.9160, 39787.00
796.0590, 39698.00
797.2010, 39649.00
798.3430, 39866.00
799.4850, 39554.00
800.6270, 39891.00
801.7690, 39723.00
802.9100, 39598.00
804.0520, 39740.00
805.1930, 39733.00
806.3340, 39764.00
807.4750, 39622.00
808.6160, 39908.00
809.7560, 39719.00
810.8970, 39632.00
812.0370, 39995.00
813.1770, 39654.00
814.3170, 39819.00
815.4570, 39858.00
816.5960, 39978.00
817.7360, 39805.00
818.8750, 39922.00
820.0140, 39942.00
821.1530, 39979.00
822.2920, 39684.00
823.4310, 39725.00
824.5690, 39986.00
825.7070, 40234.00
826.8460, 39921.00
827.9840, 40064.00
829.1220, 39841.00
830.2590, 39989.00
831.3970, 39939.00
832.5340, 40022.00
833.6710, 39848.00
834.8080, 40142.00
835.9450, 39787.00
837.0820, 40081.00
838.2190, 39820.00
839.3550, 39997.00
840.4910, 39965.00
841.6270, 40138.00
842.7630, 39917.00
843.8990, 40151.00
845.0350, 40053.00
846.1700, 39882.00
847.3060, 40066.00
848.4410, 40022.00
849.5760, 40337.00
850.7100, 40258.00
851.8450, 40122.00
852.9800, 40429.00
854.1140, 39954.00
855.2480, 40173.00
856.3820, 40182.00
857.5160, 39920.00
858.6500, 40334.00
859.7830, 40007.00
860.9170, 40585.00
862.0500, 40385.00
863.1830, 40336.00
864.3160, 40227.00
865.4480, 40508.00
866.5810, 40477.00
867.7130, 40373.00
868.8460, 40301.00
869.9780, 40332.00
871.1100, 40418.00
872.2410, 40256.00
873.3730, 40449.00
874.5050, 40457.00
875.6360, 40382.00
876.7670, 40579.00
877.8980, 40288.00
879.0290, 40693.00
880.1590, 40580.00
881.2900, 40594.00
882.4200, 40320.00
883.5500, 40652.00
884.6800, 40817.00
885.8100, 41117.00
886.9400, 41159.00
888.0690, 40792.00
889.1990, 40585.00
890.3280, 40571.00
891.4570, 40723.00
892.5860, 40644.00
893.7140, 40831.00
894.8430, 40879.00
895.9710, 40935.00
897.1000, 40713.00
898.2280, 40889.00
899.3560, 40658.00
900.4830, 40950.00
901.6110, 40650.00
902.7380, 40974.00
903.8660, 40897.00
904.9930, 40798.00
906.1200, 40677.00
907.2460, 40833.00
908.3730, 40882.00
909.5000, 40874.00
910.6260, 40935.00
911.7520, 40853.00
912.8780, 41269.00
914.0040, 40830.00
915.1290, 41167.00
916.2550, 41107.00
917.3800, 41045.00
918.5050, 40966.00
919.6300, 41216.00
920.7550, 40907.00
921.8800, 41143.00
923.0040, 41344.00
924.1290, 41102.00
925.2530, 41061.00
926.3770, 41196.00
927.5010, 41192.00
928.6250, 41180.00
929.7480, 41181.00
930.8720, 41210.00
931.9950, 41265.00
933.1180, 41243.32
934.2410, 41258.54
935.3640, 41189.00
936.4860, 41280.00
937.6090, 41184.00
938.7310, 41274.00
939.8530, 41329.00
940.9750, 41568.00
942.0970, 41216.00
943.2180, 41142.00
944.3400, 41821.00
945.4610, 41762.00
946.5820, 41450.00
947.7030, 41550.00
948.8240, 41291.00
949.9450, 41588.00
951.0650, 41419.00
952.1860, 41669.00
953.3060, 41333.00
954.4260, 41481.00
955.5460, 41582.00
956.6650, 41628.00
957.7850, 41688.00
958.9040, 41689.00
960.0230, 42020.00
961.1420, 41629.00
962.2610, 41462.00
963.3800, 42003.00
964.4990, 41841.00
965.6170, 41848.00
966.7350, 41845.00
967.8530, 41634.00
968.9710, 41848.00
970.0890, 41836.00
971.2070, 41781.00
972.3240, 41837.00
973.4410, 41993.00
974.5580, 42096.00
975.6750, 42043.00
976.7920, 42007.00
977.9090, 41787.00
979.0250, 41817.00
980.1410, 41833.00
981.2580, 41935.00
982.3740, 42094.00
983.4890, 42074.89
984.6050, 42177.12
985.7200, 42163.00
986.8360, 42107.00
987.9510, 42268.00
989.0660, 41886.00
990.1810, 42035.00
991.2950, 42273.00
992.4100, 41946.00
993.5240, 42216.00
994.6390, 42229.00
995.7530, 42135.00
996.8660, 42527.00
997.9800, 42393.00
999.0940, 42293.00
1000.207, 42214.00
1001.320, 42187.00
1002.433, 42333.00
1003.546, 42533.00
1004.659, 42383.00
1005.772, 42220.00
1006.884, 42349.00
1007.996, 42176.00
1009.108, 42337.00
1010.220, 42470.00
1011.332, 42261.00
1012.444, 42439.00
1013.555, 42534.00
1014.666, 42373.00
1015.777, 42388.00
1016.888, 42503.00
1017.999, 42468.00
1019.110, 42639.00
1020.220, 42378.00
1021.331, 42472.00
1022.441, 42543.00
1023.551, 42569.00
1024.661, 42356.00
1025.770, 42718.00
1026.880, 42526.00
1027.989, 42430.00
1029.098, 42675.00
1030.207, 42446.00
1031.316, 42419.00
1032.425, 42640.00
1033.533, 42676.00
1034.642, 42680.00
1035.750, 42756.00
1036.858, 42543.00
1037.966, 42856.00
1039.073, 42683.00
1040.181, 43013.00
1041.288, 42971.00
1042.396, 42891.00
1043.503, 42840.00
1044.610, 42891.00
1045.716, 42907.00
1046.823, 42897.00
1047.929, 42765.00
1049.036, 43030.00
1050.142, 42769.00
1051.248, 42985.00
1052.353, 42863.00
1053.459, 43026.00
1054.564, 42789.00
1055.670, 43101.00
1056.775, 43099.00
1057.880, 43073.00
1058.985, 43206.00
1060.089, 42976.00
1061.194, 42989.00
1062.298, 43168.00
1063.402, 43068.00
1064.506, 42847.00
1065.610, 43099.00
1066.713, 43145.00
1067.817, 42966.00
1068.920, 43298.00
1070.023, 43102.00
1071.126, 43239.00
1072.229, 43181.00
1073.332, 43348.00
1074.435, 43314.07
1075.537, 43289.80
1076.639, 43257.00
1077.741, 43206.00
1078.843, 43106.00
1079.945, 43085.00
1081.046, 43070.00
1082.148, 43537.00
1083.249, 43221.00
1084.350, 43036.00
1085.451, 43343.00
1086.551, 43022.00
1087.652, 42998.00
1088.752, 43093.00
1089.853, 43274.00
1090.953, 43226.00
1092.053, 43211.00
1093.152, 43262.00
1094.252, 43279.00
1095.351, 43168.00
1096.451, 43177.86
1097.550, 43276.28
1098.649, 43074.00
1099.748, 43096.00
1100.846, 43040.70
1101.945, 43200.00
1103.043, 43014.00
1104.141, 43164.00
1105.239, 43027.00
1106.337, 43232.00
1107.434, 43220.00
1108.532, 43119.00
1109.629, 42965.00
1110.726, 43078.00
1111.823, 42940.30
1112.920, 43127.00
1114.017, 42891.00
1115.113, 43072.00
1116.210, 43195.00
1117.306, 43371.00
1118.402, 43188.00
1119.498, 44070.00
1120.593, 44040.00
1121.689, 43750.00
1122.784, 43467.00
1123.879, 43241.00
1124.974, 43176.00
1126.069, 43408.00
1127.164, 43628.00
1128.259, 43332.75
1129.353, 43332.00
1130.447, 42855.00
1131.541, 42880.00
1132.635, 42788.00
1133.729, 42972.00
1134.822, 42927.00
1135.916, 42963.89
1137.009, 42958.40
1138.102, 42955.00
1139.195, 42897.00
1140.288, 42757.00
1141.380, 42786.00
1142.473, 43050.00
1143.565, 42821.00
1144.657, 42782.00
1145.749, 42544.00
1146.841, 42697.00
1147.932, 42794.00
1149.024, 43072.00
1150.115, 42856.00
1151.206, 42904.00
1152.297, 42837.00
1153.388, 42786.00
1154.479, 42619.00
1155.569, 42542.00
1156.659, 42575.96
1157.750, 42864.00
1158.839, 42784.00
1159.929, 42720.00
1161.019, 43028.00
1162.108, 42833.00
1163.198, 42743.00
1164.287, 42807.00
1165.376, 42690.00
1166.465, 42753.00
1167.553, 42667.00
1168.642, 42800.00
1169.730, 42533.00
1170.818, 42728.00
1171.906, 42839.00
1172.994, 42553.00
1174.082, 42800.00
1175.170, 42717.00
1176.257, 42598.00
1177.344, 42846.00
1178.431, 42502.00
1179.518, 42592.00
1180.605, 42643.00
1181.691, 42641.00
1182.778, 42615.00
1183.864, 42544.00
1184.950, 42688.00
1186.036, 42917.00
1187.122, 42688.00
1188.207, 42774.00
1189.292, 42537.00
1190.378, 42916.00
1191.463, 42779.00
1192.548, 42828.00
1193.632, 42680.00
1194.717, 42742.00
1195.801, 42634.00
1196.886, 42725.00
1197.970, 42530.00
1199.054, 42692.00
1200.137, 42569.00
1201.221, 42705.00
1202.305, 42843.00
1203.388, 42438.00
1204.471, 42787.00
1205.554, 42564.00
1206.637, 42773.00
1207.719, 42635.00
1208.802, 42446.00
1209.884, 42940.00
1210.966, 42897.00
1212.048, 42817.00
1213.130, 42746.00
1214.212, 42591.00
1215.293, 42959.00
1216.374, 42689.00
1217.456, 42702.00
1218.536, 42912.00
1219.617, 42840.00
1220.698, 42530.00
1221.778, 42801.00
1222.859, 42662.00
1223.939, 42867.00
1225.019, 42773.00
1226.099, 42682.00
1227.178, 42667.00
1228.258, 42767.00
1229.337, 42924.00
1230.417, 42757.00
1231.496, 42865.00
1232.574, 42641.00
1233.653, 42813.00
1234.732, 42497.00
1235.810, 42384.00
1236.888, 42579.00
1237.966, 42769.00
1239.044, 42861.00
1240.122, 43036.00
1241.199, 42801.00
1242.277, 42801.00
1243.354, 42709.00
1244.431, 42799.00
1245.508, 42919.00
1246.585, 42930.00
1247.661, 42947.00
1248.738, 42633.00
1249.814, 42858.00
1250.890, 42588.00
1251.966, 42819.00
1253.042, 42921.00
1254.117, 42837.00
1255.193, 42928.00
1256.268, 42823.00
1257.343, 43049.00
1258.418, 42916.00
1259.493, 42758.00
1260.567, 43107.00
1261.642, 43060.00
1262.716, 43025.00
1263.790, 43100.69
1264.864, 43271.00
1265.938, 42952.00
1267.011, 42977.00
1268.085, 42745.00
1269.158, 43052.00
1270.231, 42886.00
1271.304, 43262.00
1272.377, 42908.00
1273.450, 43112.00
1274.522, 42719.00
1275.594, 42833.00
1276.666, 42964.00
1277.738, 42879.00
1278.810, 42830.00
1279.882, 43094.00
1280.953, 42713.00
1282.025, 43183.00
1283.096, 43095.00
1284.167, 42877.00
1285.238, 43418.00
1286.308, 42939.00
1287.379, 43184.00
1288.449, 42986.00
1289.519, 42846.00
1290.589, 43137.00
1291.659, 43081.00
1292.729, 43101.00
1293.798, 43054.00
1294.868, 43083.00
1295.937, 43304.00
1297.006, 42898.00
1298.075, 43481.00
1299.143, 43028.00
1300.212, 43068.00
1301.280, 43202.00
1302.348, 43152.00
1303.416, 43280.00
1304.484, 43062.00
1305.552, 43081.00
1306.620, 43043.00
1307.687, 43163.00
1308.754, 43187.00
1309.821, 43154.00
1310.888, 43157.93
1311.955, 43142.46
1313.021, 43073.00
1314.088, 43116.00
1315.154, 43121.00
1316.220, 43132.68
1317.286, 43299.00
1318.352, 43265.00
1319.417, 43360.00
1320.483, 43390.00
1321.548, 43331.00
1322.613, 43225.00
1323.678, 43116.00
1324.743, 43377.00
1325.807, 43477.00
1326.872, 43375.00
1327.936, 43312.00
1329.000, 43358.00
1330.064, 43293.00
1331.128, 43126.00
1332.191, 43559.00
1333.255, 43412.00
1334.318, 43629.00
1335.381, 43450.00
1336.444, 43497.93
1337.507, 43192.00
1338.569, 43478.00
1339.632, 43306.00
1340.694, 43233.00
1341.756, 43456.00
1342.818, 43374.15
1343.880, 43367.00
1344.941, 43474.00
1346.003, 43373.00
1347.064, 43368.00
1348.125, 43599.00
1349.186, 43421.38
1350.247, 43421.36
1351.308, 43257.00
1352.368, 43343.00
1353.428, 43266.00
1354.489, 43497.00
1355.549, 43261.00
1356.608, 43688.00
1357.668, 43358.00
1358.727, 43573.00
1359.787, 43615.86
1360.846, 43199.00
1361.905, 43679.00
1362.964, 43446.00
1364.022, 43421.00
1365.081, 43615.00
1366.139, 43214.00
1367.197, 43379.00
1368.255, 43416.00
1369.313, 43599.00
1370.371, 43612.00
1371.428, 43464.00
1372.486, 43582.25
1373.543, 43432.00
1374.600, 43533.00
1375.657, 43665.00
1376.713, 43479.00
1377.770, 43521.00
1378.826, 43546.00
1379.882, 43529.00
1380.938, 43541.00
1381.994, 43694.00
1383.050, 43572.00
1384.106, 43733.00
1385.161, 43507.00
1386.216, 43625.00
1387.271, 43407.00
1388.326, 43463.93
1389.381, 43533.00
1390.435, 43530.00
1391.490, 43556.00
1392.544, 43560.00
1393.598, 43802.00
1394.652, 43640.00
1395.705, 43877.00
1396.759, 43565.00
1397.812, 43497.00
1398.866, 43696.00
1399.919, 43937.00
1400.972, 43623.00
1402.024, 43764.00
1403.077, 43471.00
1404.129, 43733.00
1405.181, 43635.00
1406.233, 43607.00
1407.285, 43929.00
1408.337, 43500.00
1409.389, 44237.00
1410.440, 43977.49
1411.491, 43706.00
1412.542, 43924.00
1413.593, 43626.00
1414.644, 43708.00
1415.695, 43624.00
1416.745, 43733.00
1417.795, 43927.00
1418.845, 43412.00
1419.895, 43637.00
1420.945, 43555.00
1421.995, 43998.00
1423.044, 43742.00
1424.093, 43652.00
1425.142, 43629.00
1426.191, 43829.00
1427.240, 43874.00
1428.289, 43675.00
1429.337, 43707.00
1430.385, 43643.00
1431.433, 43728.00
1432.481, 44069.00
1433.529, 43860.00
1434.577, 43909.00
1435.624, 43710.00
1436.672, 43880.00
1437.719, 43887.00
1438.766, 43814.00
1439.812, 43847.00
1440.859, 43682.00
1441.905, 43887.00
1442.952, 44255.00
1443.998, 44158.00
1445.044, 43994.00
1446.090, 43888.00
1447.135, 44236.00
1448.181, 43764.00
1449.226, 44171.00
1450.271, 44102.00
1451.316, 44162.00
1452.361, 44056.00
1453.405, 43835.00
1454.450, 44047.00
1455.494, 43665.00
1456.538, 43821.00
1457.582, 43853.00
1458.626, 43927.00
1459.670, 43972.00
1460.713, 44256.00
1461.757, 44092.00
1462.800, 44008.00
1463.843, 44223.00
1464.886, 44036.00
1465.928, 44020.00
1466.971, 43885.00
1468.013, 43930.86
1469.055, 44022.00
1470.097, 44062.00
1471.139, 44107.00
1472.181, 44166.00
1473.222, 44096.00
1474.263, 44055.00
1475.305, 44119.00
1476.346, 44219.00
1477.386, 44018.00
1478.427, 44095.00
1479.468, 44223.00
1480.508, 44033.00
1481.548, 43891.00
1482.588, 44285.00
1483.628, 44135.00
1484.668, 43934.00
1485.707, 44039.00
1486.747, 44190.00
1487.786, 44190.00
1488.825, 44253.79
1489.864, 44284.00
1490.902, 44252.00
1491.941, 44230.00
1492.979, 44170.00
1494.017, 44204.00
1495.055, 44184.00
1496.093, 44325.00
1497.131, 43969.00
1498.168, 44242.00
1499.206, 44095.00
1500.243, 44446.00
1501.280, 44083.00
1502.317, 44141.00
1503.354, 44268.00
1504.390, 44469.00
1505.426, 44422.00
1506.463, 44051.00
1507.499, 44590.00
1508.535, 44151.00
1509.570, 44391.00
1510.606, 44399.00
1511.641, 44624.00
1512.676, 44319.00
1513.711, 44322.00
1514.746, 44436.00
1515.781, 44370.00
1516.816, 44520.00
1517.850, 44240.00
1518.884, 44336.00
1519.918, 44040.00
1520.952, 44427.00
1521.986, 44185.00
1523.019, 44361.00
1524.053, 44256.00
1525.086, 44378.00
1526.119, 44351.00
1527.152, 44513.00
1528.185, 44603.00
1529.217, 44343.00
1530.250, 44254.00
1531.282, 44594.00
1532.314, 44519.00
1533.346, 44638.00
1534.377, 44438.00
1535.409, 44165.00
1536.440, 44698.00
1537.472, 44429.00
1538.503, 44590.00
1539.534, 44703.00
1540.564, 44526.00
1541.595, 44539.00
1542.625, 44765.00
1543.656, 44681.00
1544.686, 44742.00
##END=



