##NAMES=Arsenopyrite
##RRUFFID=R050071
##IDEAL CHEMISTRY=Fe^3+^(AsS)^3-^
##LOCALITY=Yaogangxian mine, Yizhang County, Hunan Province, China
##OWNER=RRUFF
##SOURCE=Rock Currier
##DESCRIPTION=Steel-gray tabular
##STATUS=The identification of this mineral has been confirmed by X-ray diffraction and chemical analysis
##URL=rruff.info/R050071
##MEASURED CHEMISTRY=FeAsS
##PIN_ID=L00162
##ORIENTATION=Laser parallel to -c* (0 0 -1). Fiducial mark perpendicular to laser is parallel to -a [-1 0 0]
72.47700, 35481.00
73.71400, 40898.00
74.95100, 45776.00
76.18700, 48700.00
77.42300, 48952.00
78.65900, 47065.00
79.89500, 43969.00
81.13100, 41790.00
82.36700, 39811.00
83.60200, 39018.54
84.83700, 39979.00
86.07200, 39199.00
87.30800, 39805.00
88.54200, 41369.00
89.77700, 41517.00
91.01200, 41404.00
92.24600, 42277.00
93.48000, 41532.00
94.71400, 40970.00
95.94800, 40448.00
97.18200, 40329.00
98.41600, 39774.00
99.64900, 39673.00
100.8830, 39940.00
102.1160, 40840.39
103.3490, 41982.00
104.5820, 44097.00
105.8150, 46128.00
107.0470, 49160.00
108.2800, 49962.91
109.5120, 50555.64
110.7440, 52311.00
111.9760, 52627.14
113.2080, 52493.00
114.4400, 54048.00
115.6710, 55609.00
116.9030, 56693.00
118.1340, 58655.00
119.3650, 57392.00
120.5960, 49965.00
121.8270, 43324.00
123.0580, 40908.00
124.2880, 40069.00
125.5190, 39511.00
126.7490, 39308.00
127.9790, 39850.00
129.2090, 39540.00
130.4390, 39319.00
131.6680, 38869.00
132.8980, 38502.00
134.1270, 38589.00
135.3560, 39418.00
136.5850, 39915.00
137.8140, 39206.00
139.0430, 39322.00
140.2710, 38961.00
141.5000, 38969.00
142.7280, 38851.10
143.9560, 38815.00
145.1840, 38539.00
146.4120, 38585.00
147.6390, 38625.16
148.8670, 38478.00
150.0940, 38893.00
151.3210, 39354.00
152.5490, 39579.00
153.7750, 38900.00
155.0020, 38469.00
156.2290, 38830.00
157.4550, 38157.00
158.6810, 38746.00
159.9080, 38723.00
161.1340, 38739.00
162.3590, 38462.00
163.5850, 38766.00
164.8110, 38683.00
166.0360, 38805.00
167.2610, 38693.00
168.4860, 38592.00
169.7110, 38872.00
170.9360, 38859.00
172.1610, 38528.00
173.3850, 38522.00
174.6100, 38622.00
175.8340, 38643.00
177.0580, 38395.00
178.2820, 38397.00
179.5050, 38463.00
180.7290, 38595.00
181.9520, 38372.00
183.1760, 38417.00
184.3990, 38874.00
185.6220, 38665.00
186.8450, 39088.00
188.0670, 39099.00
189.2900, 39163.00
190.5120, 39463.00
191.7340, 39513.00
192.9560, 39442.00
194.1780, 39712.00
195.4000, 39623.00
196.6220, 39747.00
197.8430, 39867.98
199.0640, 40199.00
200.2860, 40061.00
201.5070, 40147.00
202.7270, 40198.00
203.9480, 39864.00
205.1690, 38877.00
206.3890, 38824.00
207.6090, 38106.00
208.8290, 38420.00
210.0490, 38230.00
211.2690, 38125.00
212.4890, 38705.00
213.7080, 38889.00
214.9280, 38805.00
216.1470, 38449.00
217.3660, 38554.00
218.5850, 38748.00
219.8030, 38236.00
221.0220, 38327.00
222.2400, 38357.00
223.4590, 38616.00
224.6770, 38714.00
225.8950, 38561.00
227.1120, 38826.00
228.3300, 38316.00
229.5480, 38457.00
230.7650, 38390.00
231.9820, 38715.00
233.1990, 38925.00
234.4160, 38304.00
235.6330, 38766.00
236.8490, 38492.00
238.0660, 38637.00
239.2820, 38655.00
240.4980, 38834.00
241.7140, 38834.41
242.9300, 38717.00
244.1460, 38859.00
245.3610, 38794.00
246.5770, 38786.00
247.7920, 38858.00
249.0070, 38980.00
250.2220, 38402.00
251.4370, 38986.00
252.6510, 39170.00
253.8660, 39299.00
255.0800, 40917.00
256.2940, 42028.00
257.5080, 39631.00
258.7220, 40814.00
259.9360, 43335.00
261.1490, 42260.00
262.3630, 40158.00
263.5760, 40307.00
264.7890, 39922.00
266.0020, 40068.00
267.2150, 40463.00
268.4270, 40154.00
269.6400, 40161.00
270.8520, 39708.00
272.0640, 39307.00
273.2760, 39380.00
274.4880, 39515.00
275.7000, 39391.29
276.9120, 39510.91
278.1230, 39493.00
279.3340, 39619.00
280.5450, 39757.00
281.7560, 39868.00
282.9670, 39831.00
284.1780, 40040.00
285.3880, 39797.00
286.5980, 40191.00
287.8090, 40168.00
289.0190, 39732.00
290.2290, 39823.00
291.4380, 39878.00
292.6480, 40201.00
293.8570, 39935.00
295.0670, 39884.00
296.2760, 39959.00
297.4850, 40011.00
298.6930, 39832.00
299.9020, 39886.00
301.1110, 40138.00
302.3190, 40177.00
303.5270, 40061.00
304.7350, 40197.00
305.9430, 40446.00
307.1510, 40260.00
308.3580, 40464.00
309.5660, 40441.00
310.7730, 40730.00
311.9800, 40515.00
313.1870, 40604.00
314.3940, 40626.00
315.6010, 40787.00
316.8070, 40837.00
318.0130, 40831.54
319.2200, 40574.00
320.4260, 40769.00
321.6310, 40880.00
322.8370, 40817.00
324.0430, 41053.00
325.2480, 40831.00
326.4540, 41069.00
327.6590, 41107.00
328.8640, 40864.00
330.0680, 40860.00
331.2730, 41096.00
332.4780, 41090.00
333.6820, 41305.00
334.8860, 41154.00
336.0900, 40901.00
337.2940, 41333.00
338.4980, 41157.00
339.7010, 41103.00
340.9050, 41160.00
342.1080, 41318.00
343.3110, 41348.00
344.5140, 41396.00
345.7170, 41091.00
346.9200, 41452.00
348.1220, 41366.00
349.3240, 41038.00
350.5270, 41039.00
351.7290, 41031.00
352.9310, 41355.00
354.1320, 41477.00
355.3340, 41548.00
356.5350, 41384.00
357.7370, 41395.00
358.9380, 41333.00
360.1390, 41370.00
361.3400, 41550.00
362.5400, 41349.00
363.7410, 41393.00
364.9410, 41448.49
366.1410, 41325.00
367.3410, 41621.00
368.5410, 41441.00
369.7410, 41656.00
370.9400, 41401.00
372.1400, 41631.00
373.3390, 41447.00
374.5380, 41549.00
375.7370, 41570.00
376.9360, 41517.00
378.1350, 41523.00
379.3330, 41762.00
380.5310, 41791.00
381.7300, 41716.00
382.9280, 41795.00
384.1260, 41733.00
385.3230, 41701.00
386.5210, 41896.00
387.7180, 41622.00
388.9160, 41805.00
390.1130, 41908.00
391.3100, 41866.00
392.5060, 42178.00
393.7030, 41810.00
394.9000, 41873.00
396.0960, 41956.00
397.2920, 42111.00
398.4880, 42159.00
399.6840, 42096.00
400.8800, 42266.00
402.0750, 42349.00
403.2710, 42089.00
404.4660, 42439.00
405.6610, 42250.00
406.8560, 42443.00
408.0510, 42119.00
409.2450, 42398.00
410.4400, 42235.00
411.6340, 42447.00
412.8280, 42659.00
414.0220, 42511.00
415.2160, 42553.00
416.4100, 42463.00
417.6030, 42651.00
418.7970, 42560.00
419.9900, 42630.00
421.1830, 42721.00
422.3760, 42540.00
423.5690, 43024.00
424.7610, 43079.00
425.9540, 42705.00
427.1460, 42641.00
428.3380, 42932.00
429.5300, 43177.00
430.7220, 43176.14
431.9140, 43026.00
433.1050, 43302.00
434.2970, 43136.00
435.4880, 43177.00
436.6790, 43166.00
437.8700, 43100.96
439.0610, 43026.00
440.2510, 43079.00
441.4420, 43123.00
442.6320, 43194.00
443.8220, 43333.00
445.0120, 42931.00
446.2020, 43064.00
447.3910, 43230.00
448.5810, 43217.00
449.7700, 43385.00
450.9600, 43359.00
452.1490, 43435.00
453.3370, 43412.00
454.5260, 43563.00
455.7150, 43393.00
456.9030, 43576.00
458.0910, 43496.00
459.2800, 43516.00
460.4670, 43580.00
461.6550, 43437.00
462.8430, 43480.00
464.0300, 43700.00
465.2180, 43889.00
466.4050, 43756.00
467.5920, 43680.00
468.7790, 43651.00
469.9650, 43845.00
471.1520, 43942.00
472.3380, 44138.00
473.5250, 44016.00
474.7110, 44119.00
475.8970, 43932.00
477.0820, 43967.00
478.2680, 44085.00
479.4540, 43926.00
480.6390, 44139.00
481.8240, 44109.00
483.0090, 44131.00
484.1940, 44301.00
485.3780, 43990.00
486.5630, 44242.00
487.7470, 44383.00
488.9320, 44547.00
490.1160, 44382.00
491.3000, 44269.00
492.4830, 44378.00
493.6670, 44631.00
494.8500, 44588.00
496.0340, 44505.00
497.2170, 44427.00
498.4000, 44760.00
499.5820, 44418.00
500.7650, 44846.00
501.9480, 44968.00
503.1300, 44614.00
504.3120, 44892.00
505.4940, 44831.00
506.6760, 44769.00
507.8580, 44932.00
509.0390, 45046.00
510.2210, 44919.00
511.4020, 44934.00
512.5830, 44896.00
513.7640, 45062.00
514.9450, 44993.00
516.1250, 45137.00
517.3060, 45308.00
518.4860, 45119.00
519.6660, 45088.00
520.8460, 45207.00
522.0260, 45161.00
523.2060, 45174.00
524.3850, 45051.00
525.5650, 45266.00
526.7440, 45192.00
527.9230, 45095.00
529.1020, 45477.00
530.2810, 45508.00
531.4590, 45253.00
532.6380, 45436.00
533.8160, 45184.00
534.9940, 44954.00
536.1720, 45060.00
537.3500, 45050.00
538.5270, 45127.00
539.7050, 45346.00
540.8820, 45431.00
542.0590, 45439.00
543.2360, 45698.00
544.4130, 45618.00
545.5900, 45629.00
546.7660, 45912.00
547.9430, 45662.00
549.1190, 45985.00
550.2950, 45935.00
551.4710, 45849.00
552.6470, 45748.00
553.8220, 45749.54
554.9980, 45780.00
556.1730, 45807.00
557.3480, 45757.00
558.5230, 45926.00
559.6980, 45825.00
560.8730, 45959.00
562.0470, 45985.00
563.2220, 46141.00
564.3960, 45837.00
565.5700, 46237.00
566.7440, 45908.00
567.9170, 46043.00
569.0910, 46046.00
570.2640, 46159.00
571.4380, 46255.00
572.6110, 45896.00
573.7840, 45963.00
574.9570, 45833.00
576.1290, 45868.00
577.3020, 45729.00
578.4740, 45826.00
579.6460, 45694.74
580.8180, 45399.00
581.9900, 45454.00
583.1620, 45254.00
584.3330, 45042.00
585.5040, 45388.00
586.6760, 45219.09
587.8470, 45317.00
589.0180, 45237.00
590.1880, 45181.00
591.3590, 45053.00
592.5290, 44819.00
593.7000, 45007.00
594.8700, 45338.00
596.0400, 44941.00
597.2090, 45214.00
598.3790, 45020.00
599.5490, 45396.00
600.7180, 45143.00
601.8870, 44991.00
603.0560, 44919.00
604.2250, 44933.25
605.3940, 44914.00
606.5620, 45179.00
607.7300, 45113.00
608.8990, 45326.00
610.0670, 45306.00
611.2350, 45156.00
612.4020, 45208.00
613.5700, 45106.00
614.7370, 45291.00
615.9050, 45228.71
617.0720, 45566.00
618.2390, 45247.00
619.4060, 45369.00
620.5720, 45438.00
621.7390, 45222.00
622.9050, 45239.00
624.0710, 45265.00
625.2370, 45412.00
626.4030, 45384.00
627.5690, 45425.00
628.7340, 45297.00
629.9000, 45281.00
631.0650, 45420.00
632.2300, 45312.00
633.3950, 45422.00
634.5600, 45456.00
635.7240, 45573.00
636.8890, 45634.00
638.0530, 45535.85
639.2170, 45183.00
640.3810, 45374.00
641.5450, 45343.00
642.7080, 45430.00
643.8720, 45452.00
645.0350, 45200.00
646.1980, 45407.00
647.3610, 45549.00
648.5240, 45218.00
649.6870, 45384.00
650.8490, 45397.00
652.0120, 45382.00
653.1740, 45362.00
654.3360, 45451.00
655.4980, 45420.55
656.6600, 45473.00
657.8210, 45427.00
658.9830, 45453.00
660.1440, 45442.00
661.3050, 45355.00
662.4660, 45182.00
663.6270, 45550.00
664.7870, 45686.00
665.9480, 45503.00
667.1080, 45394.00
668.2680, 45543.00
669.4280, 45480.00
670.5880, 45428.00
671.7480, 45620.00
672.9070, 45347.00
674.0670, 45388.00
675.2260, 45728.00
676.3850, 45310.00
677.5440, 45586.00
678.7030, 45325.00
679.8610, 45472.00
681.0200, 45534.00
682.1780, 45306.00
683.3360, 45436.00
684.4940, 45581.00
685.6520, 45535.00
686.8090, 45475.00
687.9670, 45452.00
689.1240, 45647.00
690.2810, 45452.00
691.4380, 45706.00
692.5950, 45611.00
693.7520, 45536.00
694.9080, 45471.00
696.0650, 45499.47
697.2210, 45548.00
698.3770, 45592.00
699.5330, 45515.00
700.6880, 45526.00
701.8440, 45317.00
702.9990, 45465.00
704.1550, 45365.00
705.3100, 45676.00
706.4650, 45655.00
707.6190, 45816.00
708.7740, 45696.00
709.9290, 45637.00
711.0830, 45490.00
712.2370, 45557.00
713.3910, 45531.00
714.5450, 45709.00
715.6980, 45756.00
716.8520, 45541.00
718.0050, 45616.00
719.1580, 45800.00
720.3110, 45563.00
721.4640, 45690.00
722.6170, 45878.00
723.7700, 45721.00
724.9220, 45978.00
726.0740, 45683.00
727.2260, 45773.00
728.3780, 45954.00
729.5300, 45824.00
730.6810, 45815.00
731.8330, 45885.00
732.9840, 45973.00
734.1350, 45739.00
735.2860, 45809.00
736.4370, 45878.00
737.5880, 45751.00
738.7380, 45982.00
739.8880, 45914.00
741.0390, 45979.89
742.1890, 46077.00
743.3380, 46088.00
744.4880, 45945.00
745.6380, 45984.00
746.7870, 45986.00
747.9360, 45979.00
749.0850, 45954.00
750.2340, 46025.44
751.3830, 46042.00
752.5310, 46181.00
753.6800, 46221.00
754.8280, 46322.00
755.9760, 46160.00
757.1240, 46082.00
758.2720, 46143.00
759.4190, 46163.00
760.5670, 46334.00
761.7140, 46245.00
762.8610, 46105.00
764.0080, 46300.00
765.1550, 46246.00
766.3020, 46275.00
767.4480, 46294.00
768.5950, 46326.00
769.7410, 46284.00
770.8870, 46487.00
772.0330, 46408.00
773.1780, 46269.00
774.3240, 46551.00
775.4690, 46549.00
776.6140, 46199.00
777.7590, 46572.00
778.9040, 46561.00
780.0490, 46390.00
781.1940, 46057.00
782.3380, 46168.00
783.4820, 46299.00
784.6260, 46182.00
785.7700, 46258.00
786.9140, 46435.00
788.0580, 46602.00
789.2010, 46298.00
790.3450, 46198.00
791.4880, 46421.00
792.6310, 46406.00
793.7730, 46500.00
794.9160, 46473.00
796.0590, 46629.00
797.2010, 46485.00
798.3430, 46716.00
799.4850, 46649.00
800.6270, 46358.00
801.7690, 46392.00
802.9100, 46737.00
804.0520, 46263.00
805.1930, 46468.00
806.3340, 46707.00
807.4750, 46584.00
808.6160, 46727.82
809.7560, 46789.00
810.8970, 46664.00
812.0370, 46707.00
813.1770, 46502.00
814.3170, 46456.00
815.4570, 46319.00
816.5960, 46492.00
817.7360, 46777.00
818.8750, 46527.00
820.0140, 46615.00
821.1530, 46533.00
822.2920, 46698.00
823.4310, 46545.00
824.5690, 46486.00
825.7070, 46723.00
826.8460, 46813.00
827.9840, 46764.00
829.1220, 46832.00
830.2590, 46811.07
831.3970, 46641.00
832.5340, 46765.00
833.6710, 46713.00
834.8080, 46676.00
835.9450, 46991.00
837.0820, 46728.00
838.2190, 46877.00
839.3550, 46854.00
840.4910, 46571.00
841.6270, 46767.00
842.7630, 46616.00
843.8990, 46944.00
845.0350, 46666.00
846.1700, 46959.00
847.3060, 46880.00
848.4410, 46740.00
849.5760, 46971.00
850.7100, 46750.00
851.8450, 46778.00
852.9800, 47065.00
854.1140, 46894.00
855.2480, 46873.00
856.3820, 46882.00
857.5160, 46966.00
858.6500, 46739.00
859.7830, 47021.00
860.9170, 46960.00
862.0500, 46781.00
863.1830, 46960.00
864.3160, 46582.00
865.4480, 46758.98
866.5810, 46703.00
867.7130, 47015.00
868.8460, 46809.00
869.9780, 47075.00
871.1100, 47177.00
872.2410, 46942.00
873.3730, 47185.00
874.5050, 47063.00
875.6360, 47255.00
876.7670, 47076.00
877.8980, 47330.00
879.0290, 47327.00
880.1590, 47039.00
881.2900, 47088.00
882.4200, 47164.00
883.5500, 47069.00
884.6800, 47392.00
885.8100, 47253.00
886.9400, 47207.00
888.0690, 47151.00
889.1990, 47396.00
890.3280, 47494.00
891.4570, 47379.00
892.5860, 47447.00
893.7140, 47337.00
894.8430, 47406.00
895.9710, 47338.00
897.1000, 47455.00
898.2280, 47354.00
899.3560, 47712.00
900.4830, 47302.00
901.6110, 47587.00
902.7380, 47429.00
903.8660, 47217.00
904.9930, 47782.00
906.1200, 47285.00
907.2460, 47431.00
908.3730, 47648.00
909.5000, 47561.00
910.6260, 47662.00
911.7520, 47597.00
912.8780, 47679.00
914.0040, 47748.00
915.1290, 47730.46
916.2550, 47760.67
917.3800, 47790.00
918.5050, 47686.00
919.6300, 47773.00
920.7550, 47631.35
921.8800, 47708.49
923.0040, 47660.00
924.1290, 47735.00
925.2530, 47890.00
926.3770, 47733.00
927.5010, 47836.00
928.6250, 47932.00
929.7480, 47844.00
930.8720, 47953.00
931.9950, 47736.00
933.1180, 47776.00
934.2410, 48199.00
935.3640, 47889.00
936.4860, 48009.00
937.6090, 47878.00
938.7310, 47817.00
939.8530, 48187.00
940.9750, 48135.00
942.0970, 48267.00
943.2180, 48021.00
944.3400, 48283.00
945.4610, 47992.00
946.5820, 48381.00
947.7030, 48173.00
948.8240, 47999.00
949.9450, 48295.00
951.0650, 48266.00
952.1860, 48062.00
953.3060, 48096.00
954.4260, 48064.00
955.5460, 48077.57
956.6650, 48135.00
957.7850, 48152.00
958.9040, 48309.00
960.0230, 48231.00
961.1420, 48276.00
962.2610, 48439.00
963.3800, 48630.00
964.4990, 48422.00
965.6170, 48533.00
966.7350, 48283.00
967.8530, 48491.00
968.9710, 48477.00
970.0890, 48378.00
971.2070, 48553.00
972.3240, 48358.00
973.4410, 48473.00
974.5580, 48318.00
975.6750, 49052.00
976.7920, 48537.00
977.9090, 48603.00
979.0250, 49089.00
980.1410, 48554.00
981.2580, 48938.00
982.3740, 48502.00
983.4890, 48782.00
984.6050, 48544.00
985.7200, 49157.00
986.8360, 48719.00
987.9510, 48996.00
989.0660, 48983.00
990.1810, 48952.00
991.2950, 48911.00
992.4100, 49072.00
993.5240, 48955.00
994.6390, 49400.00
995.7530, 48775.00
996.8660, 48992.00
997.9800, 48789.00
999.0940, 49053.00
1000.207, 49034.00
1001.320, 48708.00
1002.433, 49223.00
1003.546, 49108.00
1004.659, 49278.00
1005.772, 49261.00
1006.884, 48977.00
1007.996, 49180.00
1009.108, 48923.00
1010.220, 49221.00
1011.332, 49120.00
1012.444, 49114.00
1013.555, 49214.00
1014.666, 48972.00
1015.777, 49064.00
1016.888, 49110.00
1017.999, 49051.00
1019.110, 48990.00
1020.220, 48901.00
1021.331, 48974.62
1022.441, 49000.21
1023.551, 49156.00
1024.661, 49177.00
1025.770, 49310.00
1026.880, 49391.00
1027.989, 49378.00
1029.098, 49188.00
1030.207, 49240.00
1031.316, 49581.00
1032.425, 49277.00
1033.533, 49273.00
1034.642, 49685.00
1035.750, 49269.00
1036.858, 49643.00
1037.966, 49549.00
1039.073, 49607.00
1040.181, 49628.00
1041.288, 49562.00
1042.396, 49578.00
1043.503, 49594.00
1044.610, 49809.00
1045.716, 49452.00
1046.823, 49584.00
1047.929, 49900.00
1049.036, 49566.00
1050.142, 49618.00
1051.248, 49478.00
1052.353, 49604.00
1053.459, 49879.00
1054.564, 49664.00
1055.670, 49751.00
1056.775, 49664.00
1057.880, 49735.00
1058.985, 49734.00
1060.089, 49740.00
1061.194, 49952.00
1062.298, 49750.00
1063.402, 49708.00
1064.506, 49687.00
1065.610, 49907.00
1066.713, 49897.29
1067.817, 49980.00
1068.920, 49972.00
1070.023, 50098.00
1071.126, 49922.00
1072.229, 49878.00
1073.332, 49604.00
1074.435, 49712.00
1075.537, 49845.00
1076.639, 49438.00
1077.741, 49713.00
1078.843, 50096.00
1079.945, 49946.00
1081.046, 50153.00
1082.148, 49807.00
1083.249, 49935.00
1084.350, 49921.00
1085.451, 49984.00
1086.551, 49987.92
1087.652, 49966.46
1088.752, 49913.00
1089.853, 49886.00
1090.953, 49741.00
1092.053, 49640.00
1093.152, 49771.00
1094.252, 49810.00
1095.351, 49686.00
1096.451, 49772.00
1097.550, 49726.00
1098.649, 49736.75
1099.748, 49707.00
1100.846, 49722.00
1101.945, 49731.00
1103.043, 49595.00
1104.141, 49691.00
1105.239, 49942.00
1106.337, 49513.00
1107.434, 49843.00
1108.532, 49542.00
1109.629, 49756.00
1110.726, 49486.00
1111.823, 49732.00
1112.920, 49619.00
1114.017, 49776.00
1115.113, 49560.00
1116.210, 49713.34
1117.306, 50017.00
1118.402, 49988.00
1119.498, 50255.00
1120.593, 50545.00
1121.689, 49855.00
1122.784, 50395.00
1123.879, 50491.00
1124.974, 50151.00
1126.069, 50271.00
1127.164, 49836.00
1128.259, 49894.00
1129.353, 49717.00
1130.447, 49127.00
1131.541, 49455.00
1132.635, 49392.00
1133.729, 49464.00
1134.822, 49254.00
1135.916, 49208.00
1137.009, 49329.00
1138.102, 49284.00
1139.195, 49322.00
1140.288, 49277.00
1141.380, 49205.00
1142.473, 48932.00
1143.565, 48993.00
1144.657, 49215.00
1145.749, 48921.00
1146.841, 49174.00
1147.932, 49198.00
1149.024, 49103.00
1150.115, 49061.00
1151.206, 49095.00
1152.297, 49035.40
1153.388, 49066.98
1154.479, 49008.00
1155.569, 49096.00
1156.659, 49101.00
1157.750, 49082.00
1158.839, 49047.00
1159.929, 49046.00
1161.019, 49282.00
1162.108, 49156.00
1163.198, 49303.00
1164.287, 48910.00
1165.376, 48888.00
1166.465, 48879.00
1167.553, 48895.00
1168.642, 49326.00
1169.730, 49016.00
1170.818, 49100.00
1171.906, 48954.00
1172.994, 48816.00
1174.082, 49064.00
1175.170, 49216.00
1176.257, 49077.00
1177.344, 49147.00
1178.431, 49198.00
1179.518, 49170.00
1180.605, 48772.00
1181.691, 48887.00
1182.778, 49155.00
1183.864, 49413.00
1184.950, 49103.00
1186.036, 49289.00
1187.122, 48994.00
1188.207, 48763.00
1189.292, 49105.00
1190.378, 48982.00
1191.463, 48961.00
1192.548, 49015.00
1193.632, 49205.00
1194.717, 48962.00
1195.801, 48976.00
1196.886, 49078.00
1197.970, 48838.00
1199.054, 48822.00
1200.137, 48815.00
1201.221, 48870.00
1202.305, 48835.00
1203.388, 49137.00
1204.471, 48747.00
1205.554, 48988.00
1206.637, 48699.00
1207.719, 48908.00
1208.802, 48639.00
1209.884, 49040.00
1210.966, 48742.00
1212.048, 48786.00
1213.130, 48686.00
1214.212, 48539.00
1215.293, 48766.00
1216.374, 48931.00
1217.456, 48753.00
1218.536, 49014.00
1219.617, 48845.00
1220.698, 48919.00
1221.778, 49094.00
1222.859, 48794.00
1223.939, 48857.00
1225.019, 48963.00
1226.099, 48919.00
1227.178, 48930.00
1228.258, 48857.00
1229.337, 49001.00
1230.417, 48922.00
1231.496, 48859.00
1232.574, 48776.00
1233.653, 48854.00
1234.732, 48809.45
1235.810, 48953.00
1236.888, 48868.00
1237.966, 49060.00
1239.044, 49173.00
1240.122, 49074.00
1241.199, 49076.00
1242.277, 48814.00
1243.354, 48858.00
1244.431, 48983.00
1245.508, 48830.00
1246.585, 48985.00
1247.661, 48843.00
1248.738, 48939.00
1249.814, 48817.00
1250.890, 49043.00
1251.966, 49088.00
1253.042, 49082.00
1254.117, 49001.57
1255.193, 48735.00
1256.268, 48801.00
1257.343, 48758.00
1258.418, 48991.00
1259.493, 48783.00
1260.567, 48787.00
1261.642, 49062.00
1262.716, 48973.00
1263.790, 49007.00
1264.864, 48982.00
1265.938, 48961.28
1267.011, 48936.00
1268.085, 48941.00
1269.158, 48972.00
1270.231, 48958.00
1271.304, 49069.00
1272.377, 48814.00
1273.450, 49243.00
1274.522, 48875.00
1275.594, 48962.00
1276.666, 49186.00
1277.738, 49023.00
1278.810, 48948.00
1279.882, 49047.00
1280.953, 49043.00
1282.025, 48972.00
1283.096, 49154.00
1284.167, 48989.00
1285.238, 48975.00
1286.308, 48972.00
1287.379, 48846.00
1288.449, 49049.00
1289.519, 49096.00
1290.589, 48843.00
1291.659, 49226.00
1292.729, 48863.00
1293.798, 49061.00
1294.868, 49126.00
1295.937, 49271.00
1297.006, 49117.00
1298.075, 49168.00
1299.143, 49160.25
1300.212, 49311.00
1301.280, 49204.00
1302.348, 49152.00
1303.416, 49320.00
1304.484, 49087.00
1305.552, 49269.00
1306.620, 48953.00
1307.687, 49565.00
1308.754, 49204.00
1309.821, 49142.00
1310.888, 49215.00
1311.955, 48983.66
1313.021, 49079.00
1314.088, 48747.00
1315.154, 49479.00
1316.220, 49366.00
1317.286, 49160.00
1318.352, 49255.00
1319.417, 48905.00
1320.483, 49053.00
1321.548, 49122.00
1322.613, 49066.00
1323.678, 49186.00
1324.743, 49065.00
1325.807, 49113.00
1326.872, 49181.00
1327.936, 49170.00
1329.000, 49264.00
1330.064, 49225.22
1331.128, 49289.00
1332.191, 49207.00
1333.255, 49233.00
1334.318, 49317.00
1335.381, 49271.00
1336.444, 49143.00
1337.507, 49138.00
1338.569, 49235.66
1339.632, 49113.29
1340.694, 49476.00
1341.756, 49108.00
1342.818, 49081.00
1343.880, 49319.00
1344.941, 49335.00
1346.003, 49067.00
1347.064, 49293.00
1348.125, 49150.00
1349.186, 49033.00
1350.247, 49359.00
1351.308, 49145.00
1352.368, 49121.00
1353.428, 49008.00
1354.489, 49049.00
1355.549, 49030.24
1356.608, 48904.00
1357.668, 49097.00
1358.727, 49242.00
1359.787, 49341.00
1360.846, 49223.00
1361.905, 49300.00
1362.964, 49350.00
1364.022, 49140.00
1365.081, 49215.00
1366.139, 48964.00
1367.197, 49290.00
1368.255, 49132.00
1369.313, 49293.00
1370.371, 49381.00
1371.428, 49305.00
1372.486, 49123.00
1373.543, 49464.00
1374.600, 49202.00
1375.657, 49457.00
1376.713, 49219.00
1377.770, 49294.00
1378.826, 49096.00
1379.882, 48959.00
1380.938, 49257.00
1381.994, 49365.00
1383.050, 49179.00
1384.106, 49315.00
1385.161, 49150.00
1386.216, 49385.00
1387.271, 49218.00
1388.326, 49300.00
1389.381, 49178.00
1390.435, 49166.00
1391.490, 49323.00
1392.544, 49370.00
1393.598, 49541.00
1394.652, 49262.00
1395.705, 48950.00
1396.759, 49616.00
1397.812, 49164.00
1398.866, 49019.00
1399.919, 49538.00
1400.972, 49355.00
1402.024, 49193.00
1403.077, 49309.00
1404.129, 49566.00
1405.181, 49440.00
1406.233, 49475.00
1407.285, 49393.00
1408.337, 49480.00
1409.389, 49403.00
1410.440, 49295.00
1411.491, 49555.00
1412.542, 49571.00
1413.593, 49424.00
1414.644, 49472.00
1415.695, 49150.00
1416.745, 49428.00
1417.795, 49752.00
1418.845, 49342.00
1419.895, 49264.00
1420.945, 49458.00
1421.995, 49149.00
1423.044, 49330.00
1424.093, 49277.00
1425.142, 49368.00
1426.191, 49415.00
1427.240, 49536.00
1428.289, 49286.00
1429.337, 49578.00
1430.385, 49280.00
1431.433, 49391.00
1432.481, 49169.00
1433.529, 49019.00
1434.577, 49314.00
1435.624, 49233.00
1436.672, 49676.00
1437.719, 49468.00
1438.766, 49266.00
1439.812, 49485.00
1440.859, 49435.00
1441.905, 49593.00
1442.952, 49615.00
1443.998, 49445.00
1445.044, 49693.00
1446.090, 49468.00
1447.135, 49591.00
1448.181, 49177.00
1449.226, 49770.00
1450.271, 49439.00
1451.316, 49639.00
1452.361, 49327.00
1453.405, 49482.00
1454.450, 49591.00
1455.494, 49244.00
1456.538, 49650.00
1457.582, 49470.00
1458.626, 49456.00
1459.670, 49527.00
1460.713, 49473.00
1461.757, 49539.00
1462.800, 49497.00
1463.843, 49239.00
1464.886, 49694.00
1465.928, 49251.00
1466.971, 49354.00
1468.013, 49738.00
1469.055, 49652.00
1470.097, 49768.00
1471.139, 49414.00
1472.181, 49728.00
1473.222, 49479.00
1474.263, 49530.00
1475.305, 49853.00
1476.346, 49406.00
1477.386, 49679.00
1478.427, 49699.00
1479.468, 49413.00
1480.508, 49473.00
1481.548, 49343.00
1482.588, 49240.00
1483.628, 49556.00
1484.668, 49525.00
1485.707, 49647.00
1486.747, 49507.00
1487.786, 49346.00
1488.825, 49483.00
1489.864, 49504.00
1490.902, 49641.00
1491.941, 49516.00
1492.979, 49556.00
1494.017, 49747.00
1495.055, 49427.00
1496.093, 49327.00
1497.131, 49403.00
1498.168, 49487.00
1499.206, 49753.00
1500.243, 49539.00
1501.280, 49682.00
1502.317, 49585.00
1503.354, 49875.00
1504.390, 49776.00
1505.426, 49757.00
1506.463, 49577.00
1507.499, 49905.00
1508.535, 49390.00
1509.570, 49833.00
1510.606, 49722.00
1511.641, 49787.00
1512.676, 49614.00
1513.711, 49452.00
1514.746, 49761.00
1515.781, 49702.00
1516.816, 49656.00
1517.850, 49861.00
1518.884, 49830.00
1519.918, 49853.00
1520.952, 49509.00
1521.986, 49998.00
1523.019, 49678.00
1524.053, 49450.00
1525.086, 50156.00
1526.119, 49563.00
1527.152, 49616.00
1528.185, 49911.00
1529.217, 49646.00
1530.250, 49923.00
1531.282, 49886.00
1532.314, 50099.00
1533.346, 50042.95
1534.377, 49830.00
1535.409, 49921.00
1536.440, 49753.00
1537.472, 49725.00
1538.503, 49950.00
1539.534, 49710.00
1540.564, 50138.00
1541.595, 50007.00
1542.625, 49817.00
1543.656, 49947.00
1544.686, 50114.00
##END=



