##NAMES=Arsenopyrite
##RRUFFID=R050071
##IDEAL CHEMISTRY=Fe^3+^(AsS)^3-^
##LOCALITY=Yaogangxian mine, Yizhang County, Hunan Province, China
##OWNER=RRUFF
##SOURCE=Rock Currier
##DESCRIPTION=Steel-gray tabular
##STATUS=The identification of this mineral has been confirmed by X-ray diffraction and chemical analysis
##URL=rruff.info/R050071
##MEASURED CHEMISTRY=FeAsS
##PIN_ID=L00167
##ORIENTATION=Laser parallel to (1 0 1). Fiducial mark perpendicular to laser is parallel to b [0 1 0]
73.71400, 27619.00
74.95100, 32485.00
76.18700, 37097.00
77.42300, 39532.00
78.65900, 40001.00
79.89500, 37699.00
81.13100, 34273.00
82.36700, 32161.00
83.60200, 31646.00
84.83700, 31715.00
86.07200, 30657.00
87.30800, 30697.00
88.54200, 30737.00
89.77700, 31587.00
91.01200, 31822.00
92.24600, 32303.00
93.48000, 32340.00
94.71400, 31910.00
95.94800, 31681.00
97.18200, 31386.00
98.41600, 31272.00
99.64900, 31276.00
100.8830, 31287.00
102.1160, 31210.00
103.3490, 31790.00
104.5820, 32694.00
105.8150, 34016.00
107.0470, 35632.00
108.2800, 40017.00
109.5120, 43330.00
110.7440, 41049.00
111.9760, 39102.00
113.2080, 40872.00
114.4400, 44031.00
115.6710, 47031.00
116.9030, 51399.00
118.1340, 58029.00
119.3650, 60123.00
120.5960, 59991.00
121.8270, 49184.00
123.0580, 36840.00
124.2880, 33257.00
125.5190, 31519.00
126.7490, 30959.00
127.9790, 30981.00
129.2090, 31262.00
130.4390, 30932.00
131.6680, 30786.00
132.8980, 30791.00
134.1270, 30785.00
135.3560, 30598.00
136.5850, 30823.00
137.8140, 31496.00
139.0430, 31160.00
140.2710, 31216.00
141.5000, 31012.00
142.7280, 30718.00
143.9560, 30459.00
145.1840, 30798.00
146.4120, 30570.00
147.6390, 30278.00
148.8670, 30161.00
150.0940, 30613.00
151.3210, 30893.00
152.5490, 31338.00
153.7750, 30964.00
155.0020, 30837.00
156.2290, 30659.00
157.4550, 30444.00
158.6810, 30451.00
159.9080, 30766.00
161.1340, 31257.00
162.3590, 31350.00
163.5850, 31426.00
164.8110, 31310.00
166.0360, 30997.00
167.2610, 30766.00
168.4860, 30801.00
169.7110, 30832.00
170.9360, 30792.00
172.1610, 30851.00
173.3850, 30673.00
174.6100, 30867.00
175.8340, 30738.00
177.0580, 31018.00
178.2820, 30725.00
179.5050, 30637.00
180.7290, 30648.00
181.9520, 30817.00
183.1760, 30775.00
184.3990, 30810.00
185.6220, 30798.00
186.8450, 30982.00
188.0670, 31026.00
189.2900, 31216.00
190.5120, 31437.00
191.7340, 31727.00
192.9560, 31860.00
194.1780, 31735.00
195.4000, 32004.00
196.6220, 31918.00
197.8430, 31989.00
199.0640, 32086.00
200.2860, 32062.00
201.5070, 32046.79
202.7270, 31820.04
203.9480, 31855.00
205.1690, 31209.00
206.3890, 30934.00
207.6090, 30561.00
208.8290, 30573.00
210.0490, 30560.00
211.2690, 30775.00
212.4890, 30835.00
213.7080, 30822.00
214.9280, 30848.12
216.1470, 30706.00
217.3660, 30690.00
218.5850, 30755.00
219.8030, 30591.00
221.0220, 30730.00
222.2400, 30859.00
223.4590, 30828.00
224.6770, 30896.00
225.8950, 30814.00
227.1120, 31013.00
228.3300, 30588.00
229.5480, 30694.00
230.7650, 30851.00
231.9820, 30891.00
233.1990, 31045.00
234.4160, 30665.00
235.6330, 31067.00
236.8490, 30896.00
238.0660, 31005.00
239.2820, 31156.00
240.4980, 31039.00
241.7140, 31092.00
242.9300, 31263.00
244.1460, 31121.29
245.3610, 31107.00
246.5770, 31110.00
247.7920, 30951.00
249.0070, 31196.00
250.2220, 31146.00
251.4370, 31352.00
252.6510, 31446.00
253.8660, 31446.00
255.0800, 31501.00
256.2940, 31587.00
257.5080, 32137.00
258.7220, 34765.00
259.9360, 33647.89
261.1490, 37175.00
262.3630, 32890.00
263.5760, 32374.00
264.7890, 32095.00
266.0020, 32248.00
267.2150, 32423.00
268.4270, 32284.00
269.6400, 32418.00
270.8520, 32190.00
272.0640, 31865.00
273.2760, 31730.00
274.4880, 31858.00
275.7000, 32017.00
276.9120, 32203.00
278.1230, 31998.00
279.3340, 32011.00
280.5450, 32094.00
281.7560, 32026.00
282.9670, 32215.00
284.1780, 31937.00
285.3880, 32189.00
286.5980, 31969.00
287.8090, 31896.00
289.0190, 32097.00
290.2290, 32104.00
291.4380, 32261.00
292.6480, 32243.00
293.8570, 32251.00
295.0670, 32336.48
296.2760, 32110.00
297.4850, 32375.00
298.6930, 32269.00
299.9020, 32144.00
301.1110, 32281.00
302.3190, 32162.00
303.5270, 32290.00
304.7350, 32410.00
305.9430, 32399.01
307.1510, 32629.00
308.3580, 32497.00
309.5660, 32557.00
310.7730, 32599.00
311.9800, 32747.00
313.1870, 32770.56
314.3940, 32819.62
315.6010, 32839.00
316.8070, 32852.00
318.0130, 32796.00
319.2200, 32764.00
320.4260, 32712.00
321.6310, 32783.00
322.8370, 32931.00
324.0430, 32817.00
325.2480, 32906.00
326.4540, 32818.00
327.6590, 33003.00
328.8640, 32941.00
330.0680, 33196.00
331.2730, 33066.00
332.4780, 32986.00
333.6820, 33161.00
334.8860, 33226.00
336.0900, 33193.00
337.2940, 32903.00
338.4980, 33171.00
339.7010, 33067.00
340.9050, 33239.00
342.1080, 33207.00
343.3110, 33344.00
344.5140, 33261.00
345.7170, 33334.00
346.9200, 33560.00
348.1220, 33372.00
349.3240, 33394.00
350.5270, 33606.00
351.7290, 33519.00
352.9310, 33552.00
354.1320, 33610.00
355.3340, 33576.45
356.5350, 33675.00
357.7370, 33564.00
358.9380, 33561.00
360.1390, 33496.00
361.3400, 33633.00
362.5400, 33704.00
363.7410, 33711.45
364.9410, 33766.25
366.1410, 33727.00
367.3410, 33814.00
368.5410, 33714.00
369.7410, 33800.00
370.9400, 33550.00
372.1400, 33691.00
373.3390, 33718.00
374.5380, 33824.00
375.7370, 33913.00
376.9360, 33757.00
378.1350, 33895.00
379.3330, 33668.00
380.5310, 33916.00
381.7300, 33835.00
382.9280, 33925.00
384.1260, 34051.00
385.3230, 34052.00
386.5210, 34118.00
387.7180, 33984.00
388.9160, 33995.00
390.1130, 34081.00
391.3100, 34074.00
392.5060, 34152.00
393.7030, 34139.03
394.9000, 34163.00
396.0960, 34120.00
397.2920, 34255.00
398.4880, 34274.00
399.6840, 34097.00
400.8800, 34434.00
402.0750, 34055.00
403.2710, 34169.00
404.4660, 34189.00
405.6610, 34494.00
406.8560, 34551.00
408.0510, 34738.00
409.2450, 34577.00
410.4400, 34531.00
411.6340, 34414.00
412.8280, 34582.00
414.0220, 34609.00
415.2160, 34674.00
416.4100, 34608.00
417.6030, 34529.00
418.7970, 34583.00
419.9900, 34561.00
421.1830, 34682.00
422.3760, 34839.00
423.5690, 34838.00
424.7610, 34861.02
425.9540, 34931.00
427.1460, 34784.00
428.3380, 34856.00
429.5300, 34835.00
430.7220, 35017.00
431.9140, 34963.00
433.1050, 34892.00
434.2970, 35165.00
435.4880, 35100.00
436.6790, 35389.00
437.8700, 35098.00
439.0610, 35164.00
440.2510, 35236.00
441.4420, 35027.00
442.6320, 35205.00
443.8220, 34970.00
445.0120, 35138.00
446.2020, 35121.00
447.3910, 35395.00
448.5810, 35470.00
449.7700, 35262.00
450.9600, 35138.00
452.1490, 35257.00
453.3370, 35193.00
454.5260, 35294.00
455.7150, 35063.00
456.9030, 35283.00
458.0910, 35648.00
459.2800, 35592.00
460.4670, 35493.00
461.6550, 35543.00
462.8430, 35502.57
464.0300, 35575.00
465.2180, 35488.00
466.4050, 35625.00
467.5920, 35564.00
468.7790, 35648.00
469.9650, 35651.00
471.1520, 35763.00
472.3380, 35732.00
473.5250, 35832.00
474.7110, 35950.00
475.8970, 35783.00
477.0820, 35907.00
478.2680, 35901.00
479.4540, 35657.00
480.6390, 35897.00
481.8240, 36218.00
483.0090, 35996.00
484.1940, 36239.00
485.3780, 36264.00
486.5630, 36348.00
487.7470, 36371.68
488.9320, 36315.00
490.1160, 36311.00
491.3000, 36311.00
492.4830, 36270.00
493.6670, 36287.81
494.8500, 36188.00
496.0340, 36260.00
497.2170, 36254.15
498.4000, 36153.00
499.5820, 36304.00
500.7650, 36488.00
501.9480, 36599.00
503.1300, 36580.00
504.3120, 36542.00
505.4940, 36687.00
506.6760, 36628.00
507.8580, 36464.00
509.0390, 36549.00
510.2210, 36509.00
511.4020, 36756.00
512.5830, 36588.00
513.7640, 36854.00
514.9450, 36883.00
516.1250, 36612.00
517.3060, 36797.00
518.4860, 36992.00
519.6660, 36769.00
520.8460, 36993.00
522.0260, 36982.00
523.2060, 36893.00
524.3850, 36980.00
525.5650, 36914.00
526.7440, 37145.00
527.9230, 36808.00
529.1020, 36610.00
530.2810, 36856.00
531.4590, 36831.00
532.6380, 36958.00
533.8160, 36936.00
534.9940, 36990.00
536.1720, 36866.00
537.3500, 36977.00
538.5270, 36839.00
539.7050, 37056.00
540.8820, 36742.00
542.0590, 37091.00
543.2360, 37262.00
544.4130, 37151.00
545.5900, 37337.00
546.7660, 37294.00
547.9430, 37112.00
549.1190, 37312.00
550.2950, 37154.00
551.4710, 37203.00
552.6470, 37278.00
553.8220, 37273.00
554.9980, 37398.00
556.1730, 37566.00
557.3480, 37688.00
558.5230, 37481.00
559.6980, 37386.00
560.8730, 37484.00
562.0470, 37210.00
563.2220, 37383.00
564.3960, 37483.00
565.5700, 37460.00
566.7440, 37290.00
567.9170, 37804.00
569.0910, 37435.00
570.2640, 37590.00
571.4380, 37612.00
572.6110, 37498.00
573.7840, 37540.00
574.9570, 37374.00
576.1290, 37441.00
577.3020, 37581.00
578.4740, 37531.00
579.6460, 37445.00
580.8180, 37109.00
581.9900, 36899.00
583.1620, 37071.00
584.3330, 37027.00
585.5040, 37020.00
586.6760, 37138.00
587.8470, 36845.00
589.0180, 36849.00
590.1880, 37054.00
591.3590, 36770.00
592.5290, 36974.00
593.7000, 36974.00
594.8700, 36905.00
596.0400, 36678.00
597.2090, 36833.00
598.3790, 36826.00
599.5490, 36995.00
600.7180, 37048.00
601.8870, 36681.00
603.0560, 36723.00
604.2250, 36865.00
605.3940, 36900.00
606.5620, 36916.00
607.7300, 36885.00
608.8990, 36831.00
610.0670, 37129.00
611.2350, 37122.00
612.4020, 37032.00
613.5700, 36839.00
614.7370, 36938.00
615.9050, 37023.00
617.0720, 37157.00
618.2390, 37195.00
619.4060, 37006.00
620.5720, 36810.00
621.7390, 37154.00
622.9050, 37108.00
624.0710, 37379.00
625.2370, 37406.58
626.4030, 37407.00
627.5690, 37371.00
628.7340, 37380.00
629.9000, 37329.38
631.0650, 37212.00
632.2300, 37246.00
633.3950, 37209.00
634.5600, 37195.00
635.7240, 37197.00
636.8890, 37226.30
638.0530, 37124.00
639.2170, 37301.00
640.3810, 37230.00
641.5450, 37210.00
642.7080, 37073.00
643.8720, 37244.00
645.0350, 37394.00
646.1980, 37317.00
647.3610, 37141.00
648.5240, 37118.00
649.6870, 37109.00
650.8490, 37064.84
652.0120, 37124.86
653.1740, 37089.00
654.3360, 37161.00
655.4980, 37190.00
656.6600, 37024.00
657.8210, 37175.00
658.9830, 37148.00
660.1440, 37021.00
661.3050, 37300.00
662.4660, 37147.00
663.6270, 37230.00
664.7870, 37269.00
665.9480, 37224.00
667.1080, 37170.00
668.2680, 37382.00
669.4280, 37181.00
670.5880, 37061.00
671.7480, 37334.00
672.9070, 37055.00
674.0670, 37001.00
675.2260, 37270.00
676.3850, 37225.00
677.5440, 37160.00
678.7030, 37091.00
679.8610, 37159.00
681.0200, 37212.00
682.1780, 36999.00
683.3360, 37111.48
684.4940, 37308.00
685.6520, 37172.00
686.8090, 37215.00
687.9670, 37306.00
689.1240, 37192.00
690.2810, 37346.00
691.4380, 37416.00
692.5950, 37328.00
693.7520, 37221.00
694.9080, 37213.00
696.0650, 37444.00
697.2210, 37363.00
698.3770, 37273.00
699.5330, 37530.00
700.6880, 37382.00
701.8440, 37557.00
702.9990, 37366.00
704.1550, 37393.00
705.3100, 37223.00
706.4650, 37242.90
707.6190, 37364.00
708.7740, 37398.00
709.9290, 37355.00
711.0830, 37679.00
712.2370, 37025.00
713.3910, 37376.00
714.5450, 37131.00
715.6980, 37232.00
716.8520, 37379.00
718.0050, 37596.00
719.1580, 37460.00
720.3110, 37624.00
721.4640, 37616.88
722.6170, 37263.00
723.7700, 37608.00
724.9220, 37485.00
726.0740, 37440.00
727.2260, 37488.00
728.3780, 37619.00
729.5300, 37596.00
730.6810, 37649.66
731.8330, 37694.00
732.9840, 37683.00
734.1350, 37618.00
735.2860, 37637.00
736.4370, 37745.00
737.5880, 37543.00
738.7380, 37711.00
739.8880, 37702.00
741.0390, 37501.00
742.1890, 37521.00
743.3380, 37528.00
744.4880, 37503.93
745.6380, 37645.00
746.7870, 37598.00
747.9360, 37714.00
749.0850, 37801.00
750.2340, 37716.00
751.3830, 37659.00
752.5310, 37802.00
753.6800, 37855.00
754.8280, 37871.00
755.9760, 38059.00
757.1240, 37803.00
758.2720, 38150.00
759.4190, 37947.00
760.5670, 37908.00
761.7140, 38087.00
762.8610, 37657.00
764.0080, 37880.00
765.1550, 37938.00
766.3020, 37967.00
767.4480, 38084.00
768.5950, 38109.00
769.7410, 37949.00
770.8870, 38134.00
772.0330, 38028.00
773.1780, 37845.00
774.3240, 38019.00
775.4690, 38138.00
776.6140, 37946.00
777.7590, 37983.00
778.9040, 37969.00
780.0490, 38122.00
781.1940, 38241.00
782.3380, 38048.00
783.4820, 38009.00
784.6260, 38003.00
785.7700, 38016.00
786.9140, 38003.00
788.0580, 38118.00
789.2010, 37942.00
790.3450, 37866.00
791.4880, 38122.00
792.6310, 38292.00
793.7730, 38017.00
794.9160, 38107.00
796.0590, 38291.00
797.2010, 38126.00
798.3430, 38186.00
799.4850, 38195.00
800.6270, 38191.00
801.7690, 38030.00
802.9100, 38020.00
804.0520, 38141.00
805.1930, 38384.00
806.3340, 38322.00
807.4750, 38250.00
808.6160, 38236.00
809.7560, 38197.00
810.8970, 38220.00
812.0370, 38150.00
813.1770, 38347.00
814.3170, 38104.00
815.4570, 38203.00
816.5960, 38292.00
817.7360, 38173.00
818.8750, 38380.00
820.0140, 38310.00
821.1530, 38099.00
822.2920, 38333.00
823.4310, 38151.00
824.5690, 38291.00
825.7070, 38292.00
826.8460, 38423.00
827.9840, 38509.00
829.1220, 38584.00
830.2590, 38207.00
831.3970, 38262.00
832.5340, 38324.00
833.6710, 38235.00
834.8080, 38344.00
835.9450, 38592.00
837.0820, 38270.00
838.2190, 38393.00
839.3550, 38536.00
840.4910, 38344.00
841.6270, 38356.00
842.7630, 38422.00
843.8990, 38358.00
845.0350, 38416.00
846.1700, 38709.00
847.3060, 38595.73
848.4410, 38247.00
849.5760, 38634.00
850.7100, 38563.00
851.8450, 38690.00
852.9800, 38768.00
854.1140, 38635.00
855.2480, 38596.00
856.3820, 38539.00
857.5160, 38626.00
858.6500, 38597.00
859.7830, 38526.00
860.9170, 38551.00
862.0500, 38255.00
863.1830, 38595.00
864.3160, 38618.00
865.4480, 38567.00
866.5810, 38913.00
867.7130, 38432.00
868.8460, 38532.00
869.9780, 38726.00
871.1100, 38558.00
872.2410, 38703.00
873.3730, 38811.00
874.5050, 38851.00
875.6360, 38749.00
876.7670, 38581.00
877.8980, 38675.00
879.0290, 38726.00
880.1590, 38922.00
881.2900, 38663.00
882.4200, 38855.00
883.5500, 38616.00
884.6800, 38804.00
885.8100, 38862.00
886.9400, 38833.00
888.0690, 39117.00
889.1990, 38942.00
890.3280, 38782.00
891.4570, 38511.00
892.5860, 38980.00
893.7140, 38970.00
894.8430, 39074.00
895.9710, 38981.00
897.1000, 38856.00
898.2280, 38901.00
899.3560, 39015.00
900.4830, 39058.00
901.6110, 39129.00
902.7380, 39192.00
903.8660, 39052.00
904.9930, 38859.00
906.1200, 38948.00
907.2460, 39121.00
908.3730, 38827.00
909.5000, 38972.00
910.6260, 39182.00
911.7520, 39201.00
912.8780, 39156.00
914.0040, 39331.00
915.1290, 39003.00
916.2550, 39289.00
917.3800, 39419.00
918.5050, 39335.00
919.6300, 39165.00
920.7550, 39363.00
921.8800, 39326.00
923.0040, 39078.00
924.1290, 39248.00
925.2530, 39156.00
926.3770, 39277.00
927.5010, 39493.00
928.6250, 39221.00
929.7480, 39448.00
930.8720, 39032.00
931.9950, 39489.00
933.1180, 39338.00
934.2410, 39314.00
935.3640, 39453.00
936.4860, 39450.00
937.6090, 39453.00
938.7310, 39638.00
939.8530, 39656.00
940.9750, 39918.00
942.0970, 39660.00
943.2180, 39791.00
944.3400, 39506.00
945.4610, 39778.00
946.5820, 39605.00
947.7030, 39468.00
948.8240, 39779.00
949.9450, 39431.00
951.0650, 39782.00
952.1860, 39435.00
953.3060, 39537.00
954.4260, 39648.00
955.5460, 39590.00
956.6650, 39747.00
957.7850, 39759.00
958.9040, 39581.00
960.0230, 39646.00
961.1420, 40063.00
962.2610, 39882.00
963.3800, 39890.00
964.4990, 39702.00
965.6170, 39895.00
966.7350, 39820.00
967.8530, 39854.00
968.9710, 39904.35
970.0890, 39906.95
971.2070, 39894.00
972.3240, 39925.00
973.4410, 39825.00
974.5580, 39685.00
975.6750, 39839.00
976.7920, 39903.00
977.9090, 39872.00
979.0250, 40059.00
980.1410, 39916.00
981.2580, 39827.00
982.3740, 40177.00
983.4890, 40294.00
984.6050, 39785.00
985.7200, 40092.00
986.8360, 40136.00
987.9510, 40109.00
989.0660, 40040.00
990.1810, 39965.00
991.2950, 40223.00
992.4100, 39996.00
993.5240, 40147.00
994.6390, 40035.00
995.7530, 40111.00
996.8660, 40133.00
997.9800, 40419.00
999.0940, 40133.00
1000.207, 40166.00
1001.320, 40531.00
1002.433, 40403.00
1003.546, 40271.00
1004.659, 40222.00
1005.772, 40213.00
1006.884, 40234.00
1007.996, 40431.00
1009.108, 40369.00
1010.220, 40407.21
1011.332, 40531.00
1012.444, 40304.00
1013.555, 40309.00
1014.666, 40120.00
1015.777, 40437.00
1016.888, 40471.00
1017.999, 40471.00
1019.110, 40448.00
1020.220, 40265.00
1021.331, 40330.54
1022.441, 40324.00
1023.551, 40344.00
1024.661, 40399.00
1025.770, 40396.00
1026.880, 40499.00
1027.989, 40350.00
1029.098, 40433.00
1030.207, 40492.43
1031.316, 40571.00
1032.425, 40665.00
1033.533, 40630.00
1034.642, 40700.00
1035.750, 40636.00
1036.858, 40589.00
1037.966, 40492.00
1039.073, 40687.00
1040.181, 40615.00
1041.288, 40783.00
1042.396, 40637.00
1043.503, 40623.00
1044.610, 40959.00
1045.716, 40379.00
1046.823, 40779.00
1047.929, 40899.00
1049.036, 40727.00
1050.142, 40905.00
1051.248, 40910.00
1052.353, 41027.00
1053.459, 41066.19
1054.564, 40707.00
1055.670, 41079.00
1056.775, 40859.00
1057.880, 40755.00
1058.985, 40878.00
1060.089, 40778.00
1061.194, 41049.00
1062.298, 40835.00
1063.402, 40928.00
1064.506, 40748.00
1065.610, 40987.00
1066.713, 40963.00
1067.817, 40910.00
1068.920, 41133.00
1070.023, 41215.00
1071.126, 41253.00
1072.229, 41060.00
1073.332, 40904.00
1074.435, 41115.00
1075.537, 40768.00
1076.639, 41033.00
1077.741, 41018.00
1078.843, 40963.00
1079.945, 41234.00
1081.046, 40920.00
1082.148, 40945.00
1083.249, 40735.00
1084.350, 40967.00
1085.451, 40750.00
1086.551, 41028.00
1087.652, 40977.00
1088.752, 40965.00
1089.853, 40716.00
1090.953, 41097.00
1092.053, 40595.00
1093.152, 41010.00
1094.252, 40973.00
1095.351, 40776.00
1096.451, 41012.00
1097.550, 40802.00
1098.649, 40979.00
1099.748, 41039.00
1100.846, 40883.00
1101.945, 41169.00
1103.043, 41003.84
1104.141, 41041.41
1105.239, 40910.00
1106.337, 40999.00
1107.434, 41085.00
1108.532, 41039.00
1109.629, 40878.00
1110.726, 40993.00
1111.823, 41149.00
1112.920, 40699.00
1114.017, 40791.00
1115.113, 41022.00
1116.210, 40867.00
1117.306, 40938.00
1118.402, 40841.00
1119.498, 40926.00
1120.593, 40787.00
1121.689, 40867.00
1122.784, 40778.00
1123.879, 40855.00
1124.974, 40797.00
1126.069, 40881.00
1127.164, 40756.00
1128.259, 40571.00
1129.353, 40707.00
1130.447, 40831.00
1131.541, 40712.00
1132.635, 40584.00
1133.729, 40782.00
1134.822, 40585.00
1135.916, 40514.00
1137.009, 40616.00
1138.102, 40601.00
1139.195, 40664.00
1140.288, 40417.00
1141.380, 40443.00
1142.473, 40501.00
1143.565, 40186.00
1144.657, 40425.00
1145.749, 40569.00
1146.841, 40541.00
1147.932, 40550.00
1149.024, 40516.00
1150.115, 40434.00
1151.206, 40609.00
1152.297, 40322.00
1153.388, 40495.00
1154.479, 40477.00
1155.569, 40274.00
1156.659, 40807.00
1157.750, 40177.00
1158.839, 40503.00
1159.929, 40488.00
1161.019, 40489.00
1162.108, 40280.00
1163.198, 40384.00
1164.287, 40376.00
1165.376, 40101.00
1166.465, 40382.00
1167.553, 40631.00
1168.642, 40190.00
1169.730, 40449.00
1170.818, 40247.00
1171.906, 40575.00
1172.994, 40254.00
1174.082, 40417.00
1175.170, 40241.00
1176.257, 40534.00
1177.344, 40336.00
1178.431, 40242.00
1179.518, 40568.00
1180.605, 40486.00
1181.691, 40331.00
1182.778, 40353.00
1183.864, 40279.00
1184.950, 40374.00
1186.036, 40133.00
1187.122, 40475.00
1188.207, 40044.00
1189.292, 40484.00
1190.378, 40291.00
1191.463, 40135.00
1192.548, 40218.00
1193.632, 40340.00
1194.717, 40407.00
1195.801, 40252.00
1196.886, 40358.36
1197.970, 40205.00
1199.054, 40344.00
1200.137, 40290.00
1201.221, 40200.00
1202.305, 40307.00
1203.388, 40455.00
1204.471, 40276.00
1205.554, 40182.00
1206.637, 40376.00
1207.719, 40384.00
1208.802, 40437.00
1209.884, 40104.00
1210.966, 40245.00
1212.048, 40167.00
1213.130, 40248.00
1214.212, 40072.00
1215.293, 40027.00
1216.374, 40243.00
1217.456, 40427.00
1218.536, 40139.00
1219.617, 40206.00
1220.698, 40257.00
1221.778, 40325.00
1222.859, 40211.00
1223.939, 40336.57
1225.019, 40490.00
1226.099, 40402.00
1227.178, 40284.00
1228.258, 40136.00
1229.337, 40118.00
1230.417, 40082.88
1231.496, 40080.96
1232.574, 40088.00
1233.653, 40171.00
1234.732, 40116.00
1235.810, 40187.00
1236.888, 40212.00
1237.966, 40030.00
1239.044, 40272.00
1240.122, 40467.00
1241.199, 40336.00
1242.277, 40299.00
1243.354, 40367.00
1244.431, 40351.00
1245.508, 40273.00
1246.585, 40407.00
1247.661, 40602.00
1248.738, 40217.00
1249.814, 40446.00
1250.890, 40599.00
1251.966, 40425.00
1253.042, 40484.00
1254.117, 40111.00
1255.193, 40409.00
1256.268, 40386.00
1257.343, 40459.00
1258.418, 40175.00
1259.493, 39993.00
1260.567, 40306.00
1261.642, 40293.00
1262.716, 40367.00
1263.790, 40494.00
1264.864, 40401.00
1265.938, 40324.00
1267.011, 40511.00
1268.085, 40246.00
1269.158, 40599.00
1270.231, 40320.00
1271.304, 40375.00
1272.377, 40250.00
1273.450, 40207.00
1274.522, 40351.00
1275.594, 40513.00
1276.666, 40351.00
1277.738, 40429.00
1278.810, 40352.00
1279.882, 40366.00
1280.953, 40352.00
1282.025, 40242.00
1283.096, 40509.00
1284.167, 40270.00
1285.238, 40443.00
1286.308, 40574.00
1287.379, 40352.00
1288.449, 40390.00
1289.519, 40209.00
1290.589, 40332.00
1291.659, 40306.88
1292.729, 40540.00
1293.798, 40429.05
1294.868, 40441.26
1295.937, 40616.00
1297.006, 40366.00
1298.075, 40517.00
1299.143, 40372.00
1300.212, 40525.00
1301.280, 40577.00
1302.348, 40391.00
1303.416, 40454.00
1304.484, 40546.00
1305.552, 40469.00
1306.620, 40517.00
1307.687, 40473.00
1308.754, 40490.00
1309.821, 40465.00
1310.888, 40365.00
1311.955, 40406.00
1313.021, 40362.20
1314.088, 40374.00
1315.154, 40421.00
1316.220, 40341.00
1317.286, 40531.00
1318.352, 40515.00
1319.417, 40521.00
1320.483, 40435.00
1321.548, 40503.00
1322.613, 40388.00
1323.678, 40621.00
1324.743, 40582.00
1325.807, 40485.00
1326.872, 40295.00
1327.936, 40481.00
1329.000, 40306.00
1330.064, 40445.00
1331.128, 40360.00
1332.191, 40779.00
1333.255, 40311.00
1334.318, 40610.00
1335.381, 40704.00
1336.444, 40461.00
1337.507, 40535.00
1338.569, 40373.00
1339.632, 40564.00
1340.694, 40515.00
1341.756, 40563.00
1342.818, 40531.00
1343.880, 40694.00
1344.941, 40659.07
1346.003, 40607.00
1347.064, 40629.00
1348.125, 40558.00
1349.186, 40428.00
1350.247, 40717.00
1351.308, 40705.00
1352.368, 40692.00
1353.428, 40906.00
1354.489, 40506.00
1355.549, 40617.00
1356.608, 40436.00
1357.668, 40660.00
1358.727, 40761.00
1359.787, 40603.00
1360.846, 40495.00
1361.905, 40622.00
1362.964, 40512.00
1364.022, 40673.00
1365.081, 40489.00
1366.139, 40680.00
1367.197, 40427.00
1368.255, 40712.00
1369.313, 40450.00
1370.371, 40386.00
1371.428, 40661.00
1372.486, 40595.00
1373.543, 40707.00
1374.600, 40674.00
1375.657, 40575.00
1376.713, 40649.00
1377.770, 40609.00
1378.826, 40602.00
1379.882, 40601.00
1380.938, 40712.00
1381.994, 40508.00
1383.050, 40811.00
1384.106, 40615.00
1385.161, 40703.00
1386.216, 40525.00
1387.271, 40758.00
1388.326, 40552.00
1389.381, 40727.00
1390.435, 40688.00
1391.490, 40593.00
1392.544, 40793.00
1393.598, 40813.00
1394.652, 40763.00
1395.705, 40537.00
1396.759, 40678.00
1397.812, 40508.00
1398.866, 40555.00
1399.919, 40638.00
1400.972, 40820.00
1402.024, 40829.00
1403.077, 40930.00
1404.129, 40787.00
1405.181, 40839.00
1406.233, 40789.00
1407.285, 40643.00
1408.337, 40876.00
1409.389, 40878.00
1410.440, 40741.00
1411.491, 40770.00
1412.542, 40537.00
1413.593, 40730.00
1414.644, 40406.00
1415.695, 40726.00
1416.745, 40438.00
1417.795, 40823.00
1418.845, 40724.00
1419.895, 40687.00
1420.945, 40772.00
1421.995, 40655.00
1423.044, 40778.00
1424.093, 40739.00
1425.142, 40408.00
1426.191, 40521.00
1427.240, 40746.00
1428.289, 40614.00
1429.337, 40891.00
1430.385, 40871.00
1431.433, 40820.00
1432.481, 40770.00
1433.529, 40984.00
1434.577, 40707.00
1435.624, 40768.00
1436.672, 40478.00
1437.719, 41065.00
1438.766, 40713.00
1439.812, 40804.00
1440.859, 40565.00
1441.905, 40676.00
1442.952, 40684.00
1443.998, 41046.00
1445.044, 41090.00
1446.090, 40830.00
1447.135, 40877.00
1448.181, 40815.00
1449.226, 40853.00
1450.271, 40898.00
1451.316, 40897.00
1452.361, 40976.00
1453.405, 40937.00
1454.450, 40800.00
1455.494, 40792.00
1456.538, 40778.00
1457.582, 40650.00
1458.626, 40848.00
1459.670, 40760.00
1460.713, 40902.00
1461.757, 40992.00
1462.800, 40756.00
1463.843, 40917.00
1464.886, 40868.00
1465.928, 40875.00
1466.971, 40862.00
1468.013, 40799.00
1469.055, 40879.00
1470.097, 40990.00
1471.139, 40942.00
1472.181, 40871.00
1473.222, 40868.00
1474.263, 41038.00
1475.305, 40745.00
1476.346, 40936.00
1477.386, 40904.00
1478.427, 40795.00
1479.468, 40901.00
1480.508, 40885.00
1481.548, 40915.00
1482.588, 41143.00
1483.628, 40942.00
1484.668, 40825.00
1485.707, 41170.00
1486.747, 40819.00
1487.786, 40869.00
1488.825, 40926.00
1489.864, 41117.00
1490.902, 40984.00
1491.941, 41082.00
1492.979, 40933.00
1494.017, 40727.00
1495.055, 40951.00
1496.093, 40836.00
1497.131, 40995.00
1498.168, 40968.00
1499.206, 40950.00
1500.243, 41171.00
1501.280, 41057.00
1502.317, 41113.00
1503.354, 41097.00
1504.390, 40994.00
1505.426, 41016.00
1506.463, 41048.00
1507.499, 40966.00
1508.535, 41024.00
1509.570, 40976.00
1510.606, 40928.98
1511.641, 41016.00
1512.676, 40846.00
1513.711, 40759.00
1514.746, 40763.30
1515.781, 41066.00
1516.816, 40952.00
1517.850, 40984.00
1518.884, 41326.00
1519.918, 41194.00
1520.952, 41190.00
1521.986, 41041.00
1523.019, 41410.00
1524.053, 41204.00
1525.086, 41222.00
1526.119, 41361.00
1527.152, 41099.00
1528.185, 41151.00
1529.217, 41293.00
1530.250, 41038.00
1531.282, 40983.00
1532.314, 41390.00
1533.346, 41074.00
1534.377, 41073.00
1535.409, 41140.00
1536.440, 41454.00
1537.472, 41271.00
1538.503, 41158.00
1539.534, 41312.00
1540.564, 41132.00
1541.595, 41477.00
1542.625, 41152.00
1543.656, 41266.00
1544.686, 41342.00
1545.716, 41454.00
##END=



