##NAMES=Arsenopyrite
##RRUFFID=R050071
##IDEAL CHEMISTRY=Fe^3+^(AsS)^3-^
##LOCALITY=Yaogangxian mine, Yizhang County, Hunan Province, China
##OWNER=RRUFF
##SOURCE=Rock Currier
##DESCRIPTION=Steel-gray tabular
##STATUS=The identification of this mineral has been confirmed by X-ray diffraction and chemical analysis
##URL=rruff.info/R050071
##MEASURED CHEMISTRY=FeAsS
##PIN_ID=L00055
##ORIENTATION=Laser parallel to b* (0 1 0). Fiducial mark perpendicular to laser is parallel to c [0 0 1]
71.24100, 29757.00
72.47700, 33540.00
73.71400, 39447.00
74.95100, 47175.00
76.18700, 53230.00
77.42300, 53889.00
78.65900, 54852.00
79.89500, 48583.00
81.13100, 38241.00
82.36700, 33444.00
83.60200, 33440.00
84.83700, 33608.00
86.07200, 32818.00
87.30800, 32674.00
88.54200, 32424.00
89.77700, 32864.00
91.01200, 33111.00
92.24600, 33511.00
93.48000, 33130.00
94.71400, 32881.00
95.94800, 32990.00
97.18200, 32338.00
98.41600, 32297.00
99.64900, 32414.00
100.8830, 32656.00
102.1160, 32738.00
103.3490, 33550.00
104.5820, 35061.00
105.8150, 38207.00
107.0470, 42632.00
108.2800, 47702.00
109.5120, 49179.00
110.7440, 45181.00
111.9760, 46656.00
113.2080, 50792.00
114.4400, 55226.00
115.6710, 57399.00
116.9030, 60439.00
118.1340, 65100.00
119.3650, 56262.00
120.5960, 41616.00
121.8270, 34900.00
123.0580, 33516.00
124.2880, 32897.00
125.5190, 32380.00
126.7490, 31868.00
127.9790, 31756.00
129.2090, 32151.00
130.4390, 32159.00
131.6680, 31903.00
132.8980, 32011.00
134.1270, 31915.00
135.3560, 31878.00
136.5850, 31721.00
137.8140, 31867.00
139.0430, 32105.00
140.2710, 32224.00
141.5000, 31816.00
142.7280, 31755.00
143.9560, 31683.00
145.1840, 31538.00
146.4120, 31557.00
147.6390, 31585.00
148.8670, 31442.00
150.0940, 31661.00
151.3210, 32116.00
152.5490, 32142.00
153.7750, 32041.00
155.0020, 32143.46
156.2290, 32002.68
157.4550, 32044.00
158.6810, 31852.00
159.9080, 31913.00
161.1340, 32013.00
162.3590, 31804.00
163.5850, 31820.00
164.8110, 31954.00
166.0360, 31600.00
167.2610, 31508.00
168.4860, 31447.00
169.7110, 31661.00
170.9360, 31886.00
172.1610, 31703.00
173.3850, 31694.00
174.6100, 31737.00
175.8340, 31707.00
177.0580, 31371.00
178.2820, 31581.00
179.5050, 31419.00
180.7290, 31545.00
181.9520, 31595.00
183.1760, 31587.00
184.3990, 31606.00
185.6220, 31685.00
186.8450, 31805.00
188.0670, 32021.00
189.2900, 32306.00
190.5120, 32468.00
191.7340, 32550.81
192.9560, 32582.00
194.1780, 32581.00
195.4000, 32734.00
196.6220, 32675.00
197.8430, 32903.00
199.0640, 32735.00
200.2860, 33023.00
201.5070, 32821.00
202.7270, 32935.00
203.9480, 32414.00
205.1690, 31743.00
206.3890, 31635.00
207.6090, 31233.00
208.8290, 31529.00
210.0490, 31704.00
211.2690, 31568.00
212.4890, 31678.00
213.7080, 31982.00
214.9280, 31941.00
216.1470, 31646.00
217.3660, 31680.00
218.5850, 31863.00
219.8030, 31574.00
221.0220, 31598.00
222.2400, 31770.00
223.4590, 31854.00
224.6770, 31791.00
225.8950, 31565.00
227.1120, 31537.00
228.3300, 31572.33
229.5480, 31680.00
230.7650, 31744.00
231.9820, 31851.00
233.1990, 31932.00
234.4160, 31909.00
235.6330, 31965.09
236.8490, 31901.00
238.0660, 31971.00
239.2820, 32014.00
240.4980, 32007.88
241.7140, 32038.00
242.9300, 31927.00
244.1460, 31967.00
245.3610, 31955.00
246.5770, 32211.00
247.7920, 32127.00
249.0070, 32170.00
250.2220, 32116.00
251.4370, 32199.00
252.6510, 32330.00
253.8660, 32300.00
255.0800, 32299.00
256.2940, 32817.00
257.5080, 33136.00
258.7220, 34563.00
259.9360, 34038.08
261.1490, 34736.00
262.3630, 33685.00
263.5760, 33551.00
264.7890, 33865.00
266.0020, 33581.00
267.2150, 33447.00
268.4270, 33816.00
269.6400, 33076.00
270.8520, 32637.00
272.0640, 32904.00
273.2760, 32672.00
274.4880, 32990.00
275.7000, 32964.00
276.9120, 32987.00
278.1230, 33055.00
279.3340, 33123.00
280.5450, 33046.00
281.7560, 32897.00
282.9670, 32959.00
284.1780, 33052.00
285.3880, 33263.00
286.5980, 33026.00
287.8090, 32878.00
289.0190, 33220.00
290.2290, 33263.00
291.4380, 33175.00
292.6480, 33030.00
293.8570, 33135.00
295.0670, 33895.00
296.2760, 33703.00
297.4850, 33444.00
298.6930, 33384.00
299.9020, 33129.00
301.1110, 33556.00
302.3190, 33135.00
303.5270, 33459.00
304.7350, 33514.00
305.9430, 33559.00
307.1510, 33457.00
308.3580, 33376.00
309.5660, 33523.00
310.7730, 33611.00
311.9800, 33689.00
313.1870, 33740.00
314.3940, 33670.00
315.6010, 33820.00
316.8070, 33596.00
318.0130, 33846.00
319.2200, 33855.00
320.4260, 33994.00
321.6310, 34053.00
322.8370, 33962.00
324.0430, 34121.00
325.2480, 34175.00
326.4540, 34186.00
327.6590, 34301.00
328.8640, 34324.35
330.0680, 34348.58
331.2730, 34345.00
332.4780, 34402.00
333.6820, 34247.00
334.8860, 34316.00
336.0900, 34519.00
337.2940, 34307.00
338.4980, 34427.00
339.7010, 34386.00
340.9050, 34512.00
342.1080, 34413.00
343.3110, 34656.00
344.5140, 34786.00
345.7170, 34651.00
346.9200, 34429.00
348.1220, 34299.00
349.3240, 34831.00
350.5270, 34361.00
351.7290, 34515.00
352.9310, 34510.57
354.1320, 35281.00
355.3340, 34626.00
356.5350, 34614.00
357.7370, 35130.00
358.9380, 34863.00
360.1390, 34808.00
361.3400, 34807.00
362.5400, 34794.00
363.7410, 35062.00
364.9410, 34943.00
366.1410, 35052.00
367.3410, 35216.00
368.5410, 34955.00
369.7410, 35228.00
370.9400, 34898.00
372.1400, 35138.00
373.3390, 34972.00
374.5380, 35020.00
375.7370, 35281.00
376.9360, 35108.00
378.1350, 34850.00
379.3330, 35448.00
380.5310, 35082.00
381.7300, 35212.00
382.9280, 35485.00
384.1260, 35391.00
385.3230, 35360.00
386.5210, 35287.00
387.7180, 35279.11
388.9160, 35490.00
390.1130, 35342.00
391.3100, 35391.00
392.5060, 35559.00
393.7030, 35412.00
394.9000, 35444.00
396.0960, 35792.00
397.2920, 35505.00
398.4880, 35664.00
399.6840, 35921.00
400.8800, 35981.00
402.0750, 35892.00
403.2710, 35936.00
404.4660, 35824.00
405.6610, 35906.00
406.8560, 35917.20
408.0510, 36075.00
409.2450, 35975.00
410.4400, 36068.00
411.6340, 36025.00
412.8280, 36087.00
414.0220, 36229.00
415.2160, 36075.00
416.4100, 36358.00
417.6030, 36447.00
418.7970, 36176.00
419.9900, 36476.00
421.1830, 36117.00
422.3760, 36508.00
423.5690, 36348.00
424.7610, 36402.00
425.9540, 36524.00
427.1460, 36506.00
428.3380, 36666.00
429.5300, 36504.00
430.7220, 36320.00
431.9140, 36485.00
433.1050, 36855.00
434.2970, 36648.00
435.4880, 36821.00
436.6790, 36633.00
437.8700, 36417.00
439.0610, 36862.00
440.2510, 37115.00
441.4420, 37034.00
442.6320, 36877.00
443.8220, 36816.00
445.0120, 36965.00
446.2020, 37166.00
447.3910, 36930.00
448.5810, 37187.00
449.7700, 37261.00
450.9600, 36952.00
452.1490, 37128.00
453.3370, 37088.00
454.5260, 36924.00
455.7150, 37084.00
456.9030, 37045.00
458.0910, 37210.00
459.2800, 37268.00
460.4670, 37202.00
461.6550, 37473.00
462.8430, 37264.00
464.0300, 37675.00
465.2180, 37680.00
466.4050, 37545.00
467.5920, 37567.00
468.7790, 37207.00
469.9650, 37738.00
471.1520, 37620.00
472.3380, 37474.00
473.5250, 37836.00
474.7110, 37709.00
475.8970, 37627.00
477.0820, 37605.00
478.2680, 37814.00
479.4540, 37948.00
480.6390, 37817.00
481.8240, 37993.00
483.0090, 37679.00
484.1940, 38176.00
485.3780, 37989.00
486.5630, 38100.00
487.7470, 38227.00
488.9320, 38170.00
490.1160, 38319.00
491.3000, 38081.00
492.4830, 38324.00
493.6670, 38276.00
494.8500, 38188.00
496.0340, 38404.00
497.2170, 38224.00
498.4000, 38350.00
499.5820, 38237.00
500.7650, 38412.00
501.9480, 38483.00
503.1300, 38691.00
504.3120, 38495.00
505.4940, 38516.00
506.6760, 38425.00
507.8580, 38800.00
509.0390, 38676.78
510.2210, 38809.00
511.4020, 38655.00
512.5830, 38948.00
513.7640, 38881.00
514.9450, 38926.00
516.1250, 39039.00
517.3060, 38981.00
518.4860, 39167.00
519.6660, 39342.00
520.8460, 39033.00
522.0260, 39150.00
523.2060, 39090.00
524.3850, 39063.00
525.5650, 39382.00
526.7440, 39285.00
527.9230, 39135.00
529.1020, 39355.00
530.2810, 39331.00
531.4590, 39166.00
532.6380, 39093.00
533.8160, 39205.00
534.9940, 39223.00
536.1720, 39388.00
537.3500, 39433.00
538.5270, 39229.00
539.7050, 39276.00
540.8820, 39371.00
542.0590, 39470.00
543.2360, 39653.00
544.4130, 39461.00
545.5900, 39246.00
546.7660, 39641.00
547.9430, 39518.00
549.1190, 39489.00
550.2950, 39424.00
551.4710, 39617.00
552.6470, 39691.00
553.8220, 39743.00
554.9980, 39745.00
556.1730, 39746.00
557.3480, 40140.00
558.5230, 39836.00
559.6980, 40101.00
560.8730, 39856.00
562.0470, 40188.00
563.2220, 40152.00
564.3960, 39956.00
565.5700, 40062.00
566.7440, 39937.00
567.9170, 40082.00
569.0910, 40045.00
570.2640, 39885.00
571.4380, 39966.00
572.6110, 40194.00
573.7840, 39702.00
574.9570, 40085.00
576.1290, 39917.00
577.3020, 39955.00
578.4740, 39543.00
579.6460, 39856.00
580.8180, 39539.00
581.9900, 39845.00
583.1620, 39468.00
584.3330, 39607.00
585.5040, 39478.00
586.6760, 39411.00
587.8470, 39647.00
589.0180, 39084.00
590.1880, 39609.00
591.3590, 39369.00
592.5290, 39314.00
593.7000, 39426.00
594.8700, 39544.00
596.0400, 39658.00
597.2090, 39638.00
598.3790, 39429.00
599.5490, 39511.00
600.7180, 39421.00
601.8870, 39521.00
603.0560, 39532.73
604.2250, 39530.00
605.3940, 39638.00
606.5620, 39533.00
607.7300, 39638.00
608.8990, 39705.00
610.0670, 39443.00
611.2350, 39799.00
612.4020, 39490.00
613.5700, 39931.00
614.7370, 39714.00
615.9050, 39707.00
617.0720, 39428.00
618.2390, 39489.57
619.4060, 39489.26
620.5720, 39572.00
621.7390, 39706.00
622.9050, 39762.00
624.0710, 39831.14
625.2370, 39640.00
626.4030, 39889.00
627.5690, 39877.00
628.7340, 39814.00
629.9000, 40057.00
631.0650, 39834.00
632.2300, 40095.00
633.3950, 39884.00
634.5600, 39766.00
635.7240, 39904.00
636.8890, 40073.00
638.0530, 40079.00
639.2170, 40397.00
640.3810, 40140.00
641.5450, 40214.00
642.7080, 39775.00
643.8720, 40072.00
645.0350, 39894.00
646.1980, 40077.00
647.3610, 40029.00
648.5240, 39968.00
649.6870, 40178.00
650.8490, 40180.00
652.0120, 40079.00
653.1740, 39981.00
654.3360, 39966.00
655.4980, 39999.48
656.6600, 40114.00
657.8210, 40187.00
658.9830, 40130.00
660.1440, 40263.00
661.3050, 40158.00
662.4660, 40351.00
663.6270, 40333.00
664.7870, 40267.00
665.9480, 40263.00
667.1080, 40321.00
668.2680, 40259.38
669.4280, 40311.00
670.5880, 40231.00
671.7480, 40380.00
672.9070, 40428.00
674.0670, 40376.00
675.2260, 40182.00
676.3850, 40458.00
677.5440, 40374.00
678.7030, 40329.25
679.8610, 40421.00
681.0200, 40230.00
682.1780, 40490.00
683.3360, 40520.00
684.4940, 40637.00
685.6520, 40409.00
686.8090, 40519.00
687.9670, 40341.00
689.1240, 40722.00
690.2810, 40325.00
691.4380, 40474.00
692.5950, 40307.00
693.7520, 40682.00
694.9080, 40330.00
696.0650, 40691.00
697.2210, 40738.00
698.3770, 40624.00
699.5330, 40815.00
700.6880, 40504.00
701.8440, 40625.00
702.9990, 40751.00
704.1550, 40506.00
705.3100, 40676.00
706.4650, 40636.00
707.6190, 40737.00
708.7740, 40885.00
709.9290, 40651.00
711.0830, 40871.00
712.2370, 40756.00
713.3910, 40693.00
714.5450, 40785.00
715.6980, 40894.00
716.8520, 40773.00
718.0050, 41133.00
719.1580, 40994.00
720.3110, 40917.00
721.4640, 41067.00
722.6170, 40734.00
723.7700, 41137.00
724.9220, 40774.00
726.0740, 41119.00
727.2260, 41260.00
728.3780, 41170.00
729.5300, 41254.00
730.6810, 41340.00
731.8330, 41255.00
732.9840, 41254.00
734.1350, 41244.00
735.2860, 41244.04
736.4370, 41298.00
737.5880, 41316.00
738.7380, 41369.00
739.8880, 41455.00
741.0390, 41455.00
742.1890, 41424.00
743.3380, 41494.14
744.4880, 41442.00
745.6380, 41517.00
746.7870, 41618.00
747.9360, 41517.00
749.0850, 41739.00
750.2340, 41478.00
751.3830, 41398.00
752.5310, 41516.00
753.6800, 41387.62
754.8280, 41746.00
755.9760, 41497.00
757.1240, 41595.00
758.2720, 41896.00
759.4190, 41625.00
760.5670, 41838.00
761.7140, 41762.00
762.8610, 41819.00
764.0080, 41667.00
765.1550, 41927.00
766.3020, 41749.00
767.4480, 41764.00
768.5950, 41581.00
769.7410, 42156.00
770.8870, 41870.00
772.0330, 42294.00
773.1780, 43040.00
774.3240, 41943.00
775.4690, 41974.00
776.6140, 41789.00
777.7590, 42066.00
778.9040, 42006.00
780.0490, 41793.00
781.1940, 42158.00
782.3380, 42112.00
783.4820, 41897.00
784.6260, 42059.00
785.7700, 41965.00
786.9140, 41835.00
788.0580, 42178.00
789.2010, 42180.00
790.3450, 42212.00
791.4880, 42338.00
792.6310, 42276.00
793.7730, 42151.00
794.9160, 42290.00
796.0590, 42078.00
797.2010, 42417.00
798.3430, 42346.00
799.4850, 42308.00
800.6270, 42381.00
801.7690, 42471.00
802.9100, 42397.00
804.0520, 42517.00
805.1930, 42593.00
806.3340, 42544.00
807.4750, 42482.00
808.6160, 42465.00
809.7560, 42530.00
810.8970, 42474.00
812.0370, 42462.00
813.1770, 42640.00
814.3170, 42757.00
815.4570, 42475.00
816.5960, 42336.00
817.7360, 42627.00
818.8750, 42705.00
820.0140, 42673.00
821.1530, 42527.00
822.2920, 42583.00
823.4310, 42757.00
824.5690, 42680.00
825.7070, 42649.00
826.8460, 42734.00
827.9840, 42607.00
829.1220, 42829.00
830.2590, 43013.00
831.3970, 42815.00
832.5340, 42660.00
833.6710, 42688.00
834.8080, 42613.16
835.9450, 42638.78
837.0820, 42682.00
838.2190, 42754.00
839.3550, 42866.00
840.4910, 42969.00
841.6270, 42677.00
842.7630, 42998.00
843.8990, 42912.00
845.0350, 42746.00
846.1700, 42885.00
847.3060, 43252.00
848.4410, 43098.00
849.5760, 43035.00
850.7100, 43376.00
851.8450, 43090.00
852.9800, 43120.00
854.1140, 43013.00
855.2480, 42986.00
856.3820, 42956.00
857.5160, 43135.00
858.6500, 43296.00
859.7830, 43409.00
860.9170, 42941.00
862.0500, 43198.00
863.1830, 43501.00
864.3160, 43168.00
865.4480, 43398.00
866.5810, 43136.00
867.7130, 43444.00
868.8460, 43479.00
869.9780, 43481.00
871.1100, 43625.00
872.2410, 43648.91
873.3730, 43698.47
874.5050, 43726.00
875.6360, 43731.00
876.7670, 43637.00
877.8980, 43538.00
879.0290, 43685.00
880.1590, 43738.00
881.2900, 43471.00
882.4200, 43587.00
883.5500, 43771.00
884.6800, 43558.00
885.8100, 43666.00
886.9400, 43628.00
888.0690, 43792.00
889.1990, 44023.00
890.3280, 43722.00
891.4570, 43894.00
892.5860, 44060.00
893.7140, 43881.00
894.8430, 43992.00
895.9710, 43860.00
897.1000, 43891.78
898.2280, 44057.00
899.3560, 43999.00
900.4830, 44050.00
901.6110, 44213.00
902.7380, 44264.00
903.8660, 44141.00
904.9930, 44163.00
906.1200, 44430.00
907.2460, 44184.00
908.3730, 44283.00
909.5000, 44050.00
910.6260, 44294.00
911.7520, 44464.00
912.8780, 44559.00
914.0040, 44352.00
915.1290, 44500.02
916.2550, 44438.00
917.3800, 44560.00
918.5050, 44514.00
919.6300, 44590.00
920.7550, 44557.00
921.8800, 44463.00
923.0040, 44209.00
924.1290, 44427.00
925.2530, 44828.00
926.3770, 44344.00
927.5010, 44489.00
928.6250, 44873.00
929.7480, 44566.00
930.8720, 45092.00
931.9950, 44801.00
933.1180, 44967.00
934.2410, 44728.00
935.3640, 44736.00
936.4860, 44738.00
937.6090, 44949.00
938.7310, 44740.00
939.8530, 44925.00
940.9750, 44772.00
942.0970, 44883.00
943.2180, 45058.00
944.3400, 45003.00
945.4610, 45011.00
946.5820, 45141.00
947.7030, 45396.00
948.8240, 45217.00
949.9450, 45136.00
951.0650, 44847.00
952.1860, 45326.00
953.3060, 45244.00
954.4260, 45157.00
955.5460, 45246.00
956.6650, 45293.00
957.7850, 45291.00
958.9040, 45290.00
960.0230, 45246.00
961.1420, 45222.00
962.2610, 45545.00
963.3800, 45211.00
964.4990, 45605.00
965.6170, 45439.00
966.7350, 45642.00
967.8530, 45317.00
968.9710, 45446.00
970.0890, 46061.00
971.2070, 45709.00
972.3240, 45601.00
973.4410, 45756.00
974.5580, 45548.00
975.6750, 45540.00
976.7920, 45949.00
977.9090, 45475.00
979.0250, 45871.00
980.1410, 45702.00
981.2580, 45605.00
982.3740, 45859.00
983.4890, 45898.00
984.6050, 45881.00
985.7200, 45992.00
986.8360, 46040.00
987.9510, 45894.00
989.0660, 46135.00
990.1810, 45848.00
991.2950, 46236.00
992.4100, 45993.00
993.5240, 46081.00
994.6390, 46024.00
995.7530, 46226.00
996.8660, 46189.00
997.9800, 46239.23
999.0940, 46054.00
1000.207, 46296.00
1001.320, 46218.00
1002.433, 46235.00
1003.546, 46224.00
1004.659, 46029.00
1005.772, 46108.42
1006.884, 46393.00
1007.996, 46165.00
1009.108, 46477.00
1010.220, 46594.00
1011.332, 46365.00
1012.444, 46416.00
1013.555, 46398.00
1014.666, 46315.00
1015.777, 46454.00
1016.888, 46607.00
1017.999, 46649.15
1019.110, 46676.00
1020.220, 46789.00
1021.331, 46766.00
1022.441, 46808.60
1023.551, 46750.00
1024.661, 46835.00
1025.770, 46898.00
1026.880, 46920.11
1027.989, 46919.01
1029.098, 46815.00
1030.207, 46866.00
1031.316, 46840.50
1032.425, 46867.78
1033.533, 46831.00
1034.642, 46913.00
1035.750, 46862.00
1036.858, 46769.00
1037.966, 46899.48
1039.073, 47002.00
1040.181, 47062.00
1041.288, 47032.00
1042.396, 47050.00
1043.503, 47092.00
1044.610, 47282.00
1045.716, 47085.00
1046.823, 47333.00
1047.929, 47472.00
1049.036, 47111.00
1050.142, 47338.00
1051.248, 47161.00
1052.353, 47530.00
1053.459, 47225.00
1054.564, 47494.00
1055.670, 47189.00
1056.775, 47339.00
1057.880, 47286.00
1058.985, 47352.00
1060.089, 47292.00
1061.194, 47267.34
1062.298, 47553.00
1063.402, 47306.00
1064.506, 47386.00
1065.610, 47683.00
1066.713, 47451.00
1067.817, 47942.00
1068.920, 47736.00
1070.023, 47741.00
1071.126, 47389.00
1072.229, 47650.00
1073.332, 47590.00
1074.435, 47636.00
1075.537, 47404.00
1076.639, 47618.00
1077.741, 47664.00
1078.843, 47599.00
1079.945, 47626.00
1081.046, 47767.00
1082.148, 47877.00
1083.249, 47768.00
1084.350, 47775.00
1085.451, 47669.00
1086.551, 47697.00
1087.652, 47830.00
1088.752, 47717.00
1089.853, 47803.20
1090.953, 47916.00
1092.053, 47831.00
1093.152, 47731.00
1094.252, 47690.00
1095.351, 47783.00
1096.451, 47556.00
1097.550, 47611.00
1098.649, 47905.00
1099.748, 47726.00
1100.846, 47728.00
1101.945, 47719.00
1103.043, 47695.00
1104.141, 47922.00
1105.239, 47732.00
1106.337, 48023.00
1107.434, 47989.00
1108.532, 47739.00
1109.629, 47806.00
1110.726, 47729.35
1111.823, 47961.00
1112.920, 47710.00
1114.017, 47735.00
1115.113, 47727.00
1116.210, 47973.00
1117.306, 47892.00
1118.402, 48260.00
1119.498, 47973.00
1120.593, 47964.00
1121.689, 48308.00
1122.784, 48212.00
1123.879, 47961.00
1124.974, 47853.00
1126.069, 47797.00
1127.164, 47884.00
1128.259, 47854.11
1129.353, 47901.00
1130.447, 47895.00
1131.541, 47833.00
1132.635, 47745.00
1133.729, 47844.00
1134.822, 47923.00
1135.916, 47947.00
1137.009, 47707.00
1138.102, 47710.00
1139.195, 47579.00
1140.288, 47600.00
1141.380, 47757.00
1142.473, 47979.00
1143.565, 47951.00
1144.657, 48055.00
1145.749, 47797.00
1146.841, 48205.00
1147.932, 48653.00
1149.024, 47896.00
1150.115, 47553.00
1151.206, 47970.00
1152.297, 47716.00
1153.388, 48073.00
1154.479, 47894.00
1155.569, 47477.00
1156.659, 47811.00
1157.750, 47500.00
1158.839, 47643.00
1159.929, 48035.00
1161.019, 47945.00
1162.108, 47768.00
1163.198, 47730.00
1164.287, 47845.00
1165.376, 47895.00
1166.465, 47868.00
1167.553, 47902.23
1168.642, 48037.00
1169.730, 47846.00
1170.818, 47945.00
1171.906, 47883.00
1172.994, 47614.00
1174.082, 47893.00
1175.170, 48206.00
1176.257, 48137.00
1177.344, 47729.00
1178.431, 48044.00
1179.518, 47973.00
1180.605, 47948.00
1181.691, 47987.00
1182.778, 48099.00
1183.864, 48303.00
1184.950, 48228.00
1186.036, 48094.00
1187.122, 48091.00
1188.207, 47953.00
1189.292, 48146.00
1190.378, 47923.00
1191.463, 47944.00
1192.548, 48212.00
1193.632, 48013.00
1194.717, 47804.00
1195.801, 47967.00
1196.886, 47953.00
1197.970, 47986.33
1199.054, 47923.00
1200.137, 48056.00
1201.221, 48144.00
1202.305, 48006.00
1203.388, 47941.00
1204.471, 48000.00
1205.554, 48176.00
1206.637, 47995.00
1207.719, 48067.00
1208.802, 48144.00
1209.884, 47851.00
1210.966, 48150.00
1212.048, 48360.00
1213.130, 48226.00
1214.212, 47985.00
1215.293, 48189.00
1216.374, 48152.00
1217.456, 48472.00
1218.536, 48428.69
1219.617, 47952.00
1220.698, 48395.00
1221.778, 48307.00
1222.859, 48177.00
1223.939, 48388.00
1225.019, 48253.00
1226.099, 48269.00
1227.178, 48375.00
1228.258, 48404.00
1229.337, 48425.70
1230.417, 48384.00
1231.496, 48491.00
1232.574, 48495.00
1233.653, 48613.00
1234.732, 48300.00
1235.810, 48436.00
1236.888, 48361.00
1237.966, 48251.00
1239.044, 48574.00
1240.122, 48575.00
1241.199, 48432.00
1242.277, 48357.00
1243.354, 48339.12
1244.431, 48425.00
1245.508, 48351.00
1246.585, 48541.00
1247.661, 48697.00
1248.738, 48685.00
1249.814, 48333.00
1250.890, 48643.00
1251.966, 48531.00
1253.042, 48635.00
1254.117, 48690.00
1255.193, 48482.00
1256.268, 48769.00
1257.343, 48723.00
1258.418, 48371.00
1259.493, 48860.00
1260.567, 48846.00
1261.642, 48890.00
1262.716, 48793.00
1263.790, 48575.00
1264.864, 48646.00
1265.938, 48530.00
1267.011, 48589.00
1268.085, 48759.00
1269.158, 48804.00
1270.231, 48799.16
1271.304, 48842.64
1272.377, 48741.00
1273.450, 48759.00
1274.522, 48765.00
1275.594, 48618.00
1276.666, 48805.00
1277.738, 49133.00
1278.810, 48783.00
1279.882, 48928.00
1280.953, 48936.00
1282.025, 48855.00
1283.096, 48736.00
1284.167, 49041.00
1285.238, 48942.00
1286.308, 48918.00
1287.379, 49058.00
1288.449, 48974.00
1289.519, 48853.00
1290.589, 48785.00
1291.659, 49020.00
1292.729, 49120.00
1293.798, 49117.00
1294.868, 49078.00
1295.937, 48984.00
1297.006, 48955.00
1298.075, 48922.21
1299.143, 48989.00
1300.212, 48891.00
1301.280, 49177.00
1302.348, 49203.00
1303.416, 49112.00
1304.484, 49017.00
1305.552, 49222.00
1306.620, 49282.00
1307.687, 49053.00
1308.754, 49129.00
1309.821, 49117.00
1310.888, 49166.00
1311.955, 49175.00
1313.021, 49236.00
1314.088, 49207.00
1315.154, 49197.41
1316.220, 49251.00
1317.286, 49238.00
1318.352, 49217.00
1319.417, 49473.00
1320.483, 49375.00
1321.548, 49466.00
1322.613, 49241.00
1323.678, 49316.00
1324.743, 49470.00
1325.807, 49563.00
1326.872, 49505.00
1327.936, 49488.00
1329.000, 49635.00
1330.064, 49230.00
1331.128, 49489.00
1332.191, 49666.00
1333.255, 49385.00
1334.318, 49456.00
1335.381, 49661.00
1336.444, 49853.00
1337.507, 49580.00
1338.569, 49439.00
1339.632, 49866.00
1340.694, 49524.00
1341.756, 49391.00
1342.818, 49789.00
1343.880, 49473.00
1344.941, 49413.00
1346.003, 49550.00
1347.064, 49527.00
1348.125, 49596.00
1349.186, 49597.00
1350.247, 49647.00
1351.308, 49561.00
1352.368, 49586.00
1353.428, 49570.00
1354.489, 49536.00
1355.549, 49636.00
1356.608, 49664.00
1357.668, 49629.00
1358.727, 49920.00
1359.787, 50021.00
1360.846, 50071.00
1361.905, 50046.42
1362.964, 49738.00
1364.022, 49876.00
1365.081, 49597.00
1366.139, 49659.00
1367.197, 49944.00
1368.255, 50024.00
1369.313, 49925.90
1370.371, 49965.00
1371.428, 49700.00
1372.486, 49759.00
1373.543, 49814.00
1374.600, 49976.00
1375.657, 49936.00
1376.713, 49721.00
1377.770, 50092.00
1378.826, 49776.00
1379.882, 50004.00
1380.938, 49713.00
1381.994, 49956.00
1383.050, 49878.00
1384.106, 49907.00
1385.161, 50206.00
1386.216, 49750.00
1387.271, 49935.00
1388.326, 50237.00
1389.381, 50256.00
1390.435, 50328.47
1391.490, 49933.00
1392.544, 50323.00
1393.598, 49969.00
1394.652, 50022.00
1395.705, 50121.00
1396.759, 50054.00
1397.812, 50114.86
1398.866, 50190.00
1399.919, 50153.00
1400.972, 49949.00
1402.024, 49989.00
1403.077, 50199.00
1404.129, 50040.00
1405.181, 50653.00
1406.233, 50661.00
1407.285, 50160.00
1408.337, 50057.00
1409.389, 50448.00
1410.440, 50286.00
1411.491, 50014.00
1412.542, 50201.00
1413.593, 50401.00
1414.644, 50204.00
1415.695, 50216.00
1416.745, 50542.00
1417.795, 50341.00
1418.845, 50057.00
1419.895, 50471.00
1420.945, 50264.00
1421.995, 50369.00
1423.044, 50117.00
1424.093, 50082.00
1425.142, 50418.00
1426.191, 50546.00
1427.240, 49984.00
1428.289, 50423.00
1429.337, 50482.00
1430.385, 50258.00
1431.433, 50610.00
1432.481, 50742.00
1433.529, 50480.00
1434.577, 50636.00
1435.624, 50302.00
1436.672, 50336.00
1437.719, 50634.00
1438.766, 50302.00
1439.812, 50310.00
1440.859, 50525.00
1441.905, 50422.00
1442.952, 50623.13
1443.998, 50988.00
1445.044, 50782.00
1446.090, 50860.00
1447.135, 50628.00
1448.181, 50602.00
1449.226, 50966.00
1450.271, 50755.00
1451.316, 50712.00
1452.361, 50347.00
1453.405, 50595.00
1454.450, 50859.00
1455.494, 50521.00
1456.538, 50593.00
1457.582, 50590.00
1458.626, 50600.00
1459.670, 51138.00
1460.713, 50722.00
1461.757, 51004.00
1462.800, 50827.00
1463.843, 50444.00
1464.886, 50781.00
1465.928, 50829.00
1466.971, 50774.00
1468.013, 50798.00
1469.055, 50856.00
1470.097, 50911.00
1471.139, 50878.00
1472.181, 50781.00
1473.222, 50769.00
1474.263, 50873.00
1475.305, 50780.00
1476.346, 50585.00
1477.386, 50722.48
1478.427, 50754.00
1479.468, 50922.00
1480.508, 50795.00
1481.548, 51035.00
1482.588, 50657.00
1483.628, 50875.00
1484.668, 50849.00
1485.707, 51286.00
1486.747, 50905.00
1487.786, 51012.00
1488.825, 51146.00
1489.864, 50983.00
1490.902, 51152.00
1491.941, 51123.00
1492.979, 50941.00
1494.017, 51238.00
1495.055, 51366.00
1496.093, 51309.00
1497.131, 50764.00
1498.168, 51180.00
1499.206, 50698.00
1500.243, 50890.00
1501.280, 51202.00
1502.317, 51201.00
1503.354, 51298.00
1504.390, 51120.00
1505.426, 51456.00
1506.463, 51144.00
1507.499, 51278.01
1508.535, 51347.00
1509.570, 51305.00
1510.606, 51156.00
1511.641, 51040.00
1512.676, 51066.00
1513.711, 51266.00
1514.746, 51346.00
1515.781, 51190.00
1516.816, 51360.00
1517.850, 51150.00
1518.884, 51220.00
1519.918, 51532.00
1520.952, 51394.00
1521.986, 51288.00
1523.019, 51244.00
1524.053, 51463.00
1525.086, 51365.00
1526.119, 51124.00
1527.152, 51377.00
1528.185, 51225.00
1529.217, 51209.00
1530.250, 51576.00
1531.282, 51619.00
1532.314, 51201.00
1533.346, 51282.00
1534.377, 51113.00
1535.409, 51673.00
1536.440, 51520.00
1537.472, 51488.00
1538.503, 51157.00
1539.534, 51619.00
1540.564, 51658.00
1541.595, 51356.00
1542.625, 51800.00
##END=



