##NAMES=Arsenopyrite
##RRUFFID=R050071
##IDEAL CHEMISTRY=Fe^3+^(AsS)^3-^
##LOCALITY=Yaogangxian mine, Yizhang County, Hunan Province, China
##OWNER=RRUFF
##SOURCE=Rock Currier
##DESCRIPTION=Steel-gray tabular
##STATUS=The identification of this mineral has been confirmed by X-ray diffraction and chemical analysis
##URL=rruff.info/R050071
##MEASURED CHEMISTRY=FeAsS
##PIN_ID=L00187
##ORIENTATION=Laser parallel to a* (1 0 0). Fiducial mark perpendicular to laser is parallel to b [0 1 0]
71.24100, 29311.00
72.47700, 33850.00
73.71400, 41676.00
74.95100, 47927.00
76.18700, 52438.00
77.42300, 51514.00
78.65900, 48418.00
79.89500, 43108.00
81.13100, 37369.00
82.36700, 33949.00
83.60200, 33858.00
84.83700, 33346.00
86.07200, 32630.00
87.30800, 32551.00
88.54200, 33197.00
89.77700, 33328.00
91.01200, 33758.00
92.24600, 34450.00
93.48000, 33426.00
94.71400, 33117.00
95.94800, 33202.00
97.18200, 32985.00
98.41600, 32667.00
99.64900, 32723.00
100.8830, 32687.00
102.1160, 33019.00
103.3490, 34200.00
104.5820, 36241.00
105.8150, 38925.00
107.0470, 43445.00
108.2800, 49183.00
109.5120, 49842.00
110.7440, 45072.00
111.9760, 48031.00
113.2080, 53154.00
114.4400, 54717.00
115.6710, 57546.00
116.9030, 59207.00
118.1340, 56201.98
119.3650, 62057.00
120.5960, 48949.00
121.8270, 38950.00
123.0580, 35341.00
124.2880, 33598.00
125.5190, 32572.00
126.7490, 32580.00
127.9790, 32163.00
129.2090, 32152.00
130.4390, 32188.00
131.6680, 32251.00
132.8980, 32059.00
134.1270, 31868.00
135.3560, 32436.00
136.5850, 32662.00
137.8140, 32550.00
139.0430, 32294.00
140.2710, 32191.00
141.5000, 31821.00
142.7280, 31743.00
143.9560, 31832.00
145.1840, 31447.00
146.4120, 31278.00
147.6390, 31397.00
148.8670, 31366.00
150.0940, 31477.00
151.3210, 31562.53
152.5490, 31581.42
153.7750, 31677.00
155.0020, 31816.00
156.2290, 31681.00
157.4550, 32092.00
158.6810, 31724.00
159.9080, 31847.00
161.1340, 32143.00
162.3590, 32090.00
163.5850, 31854.00
164.8110, 31848.00
166.0360, 31722.00
167.2610, 31636.00
168.4860, 31638.00
169.7110, 31827.00
170.9360, 31802.00
172.1610, 31879.00
173.3850, 31748.00
174.6100, 31927.00
175.8340, 31811.00
177.0580, 31552.00
178.2820, 31896.00
179.5050, 31786.00
180.7290, 31537.00
181.9520, 31348.00
183.1760, 31229.00
184.3990, 31417.00
185.6220, 31499.00
186.8450, 31706.00
188.0670, 31935.00
189.2900, 32110.00
190.5120, 32334.00
191.7340, 32513.00
192.9560, 32390.00
194.1780, 32910.00
195.4000, 32742.00
196.6220, 32654.00
197.8430, 32801.00
199.0640, 33046.00
200.2860, 32977.00
201.5070, 32892.35
202.7270, 32975.00
203.9480, 32396.00
205.1690, 31868.00
206.3890, 31429.00
207.6090, 31043.00
208.8290, 31201.00
210.0490, 31059.00
211.2690, 31339.00
212.4890, 31548.00
213.7080, 31741.00
214.9280, 31502.00
216.1470, 32224.00
217.3660, 31774.00
218.5850, 31153.00
219.8030, 31310.00
221.0220, 31583.00
222.2400, 31486.00
223.4590, 31331.00
224.6770, 31331.00
225.8950, 31273.80
227.1120, 31171.00
228.3300, 31260.00
229.5480, 31187.00
230.7650, 31174.00
231.9820, 31322.00
233.1990, 31447.00
234.4160, 31285.00
235.6330, 31461.00
236.8490, 31332.00
238.0660, 31260.00
239.2820, 31344.00
240.4980, 31650.00
241.7140, 31398.00
242.9300, 31531.31
244.1460, 31672.00
245.3610, 31533.00
246.5770, 31506.00
247.7920, 31600.00
249.0070, 31540.00
250.2220, 31618.51
251.4370, 31657.64
252.6510, 31747.00
253.8660, 31833.00
255.0800, 31918.00
256.2940, 32163.00
257.5080, 33172.00
258.7220, 37161.00
259.9360, 35207.08
261.1490, 36648.00
262.3630, 33596.00
263.5760, 33202.00
264.7890, 33156.00
266.0020, 33525.00
267.2150, 33370.00
268.4270, 33274.00
269.6400, 32817.00
270.8520, 32615.00
272.0640, 32135.00
273.2760, 32158.00
274.4880, 32178.00
275.7000, 32294.00
276.9120, 32320.36
278.1230, 32305.24
279.3340, 32346.77
280.5450, 32322.87
281.7560, 32332.00
282.9670, 32265.00
284.1780, 32228.00
285.3880, 32150.00
286.5980, 32335.00
287.8090, 32311.00
289.0190, 32218.00
290.2290, 32424.00
291.4380, 32408.00
292.6480, 32130.00
293.8570, 32357.00
295.0670, 32447.00
296.2760, 32518.00
297.4850, 32583.80
298.6930, 32573.00
299.9020, 32629.00
301.1110, 32608.00
302.3190, 32681.72
303.5270, 32818.00
304.7350, 32895.00
305.9430, 32843.00
307.1510, 32787.00
308.3580, 32864.00
309.5660, 32912.00
310.7730, 33013.00
311.9800, 33010.00
313.1870, 33055.85
314.3940, 33259.00
315.6010, 33070.00
316.8070, 32993.00
318.0130, 32945.00
319.2200, 33166.00
320.4260, 33110.68
321.6310, 33143.00
322.8370, 33223.00
324.0430, 33219.00
325.2480, 33284.00
326.4540, 33127.00
327.6590, 33413.00
328.8640, 33093.00
330.0680, 33421.00
331.2730, 33370.00
332.4780, 33582.00
333.6820, 33543.00
334.8860, 33437.00
336.0900, 33410.00
337.2940, 33687.00
338.4980, 33585.00
339.7010, 33466.00
340.9050, 33707.00
342.1080, 33532.00
343.3110, 33530.00
344.5140, 33669.00
345.7170, 33768.00
346.9200, 33637.00
348.1220, 33711.00
349.3240, 33800.00
350.5270, 33753.00
351.7290, 33637.00
352.9310, 33769.00
354.1320, 33875.00
355.3340, 33661.00
356.5350, 33734.00
357.7370, 33786.00
358.9380, 33976.00
360.1390, 34018.00
361.3400, 33753.00
362.5400, 33867.00
363.7410, 33662.00
364.9410, 33777.00
366.1410, 33879.00
367.3410, 34173.00
368.5410, 33883.00
369.7410, 34000.54
370.9400, 34026.00
372.1400, 33999.00
373.3390, 33734.00
374.5380, 33956.00
375.7370, 34085.00
376.9360, 33969.00
378.1350, 34187.00
379.3330, 34178.00
380.5310, 34140.00
381.7300, 34226.00
382.9280, 34035.00
384.1260, 34280.00
385.3230, 34087.00
386.5210, 34116.00
387.7180, 34103.00
388.9160, 34324.00
390.1130, 34331.00
391.3100, 34325.00
392.5060, 34415.28
393.7030, 34054.00
394.9000, 34418.00
396.0960, 34378.00
397.2920, 34274.00
398.4880, 34522.00
399.6840, 34619.00
400.8800, 34595.00
402.0750, 34388.00
403.2710, 34854.00
404.4660, 34723.00
405.6610, 35009.00
406.8560, 34603.00
408.0510, 34641.00
409.2450, 34939.00
410.4400, 34801.00
411.6340, 34832.00
412.8280, 34994.00
414.0220, 34756.00
415.2160, 34804.00
416.4100, 34907.00
417.6030, 35022.00
418.7970, 34747.00
419.9900, 35022.00
421.1830, 34860.00
422.3760, 34848.00
423.5690, 34945.00
424.7610, 35139.00
425.9540, 35028.00
427.1460, 35042.00
428.3380, 34952.00
429.5300, 35135.00
430.7220, 35287.00
431.9140, 35194.00
433.1050, 35126.00
434.2970, 35378.00
435.4880, 35311.00
436.6790, 35260.00
437.8700, 35164.00
439.0610, 35092.00
440.2510, 35035.00
441.4420, 35239.00
442.6320, 35324.00
443.8220, 35354.00
445.0120, 35457.61
446.2020, 35454.74
447.3910, 35511.00
448.5810, 35472.00
449.7700, 35409.00
450.9600, 35441.00
452.1490, 35452.00
453.3370, 35497.00
454.5260, 35471.00
455.7150, 35562.00
456.9030, 35489.00
458.0910, 35655.00
459.2800, 35612.00
460.4670, 35578.00
461.6550, 35418.00
462.8430, 35436.00
464.0300, 35721.00
465.2180, 35771.00
466.4050, 35594.00
467.5920, 35724.00
468.7790, 35710.00
469.9650, 35867.00
471.1520, 36056.00
472.3380, 36050.00
473.5250, 35993.00
474.7110, 35827.00
475.8970, 35924.00
477.0820, 35947.00
478.2680, 36138.00
479.4540, 36104.00
480.6390, 36065.00
481.8240, 36075.00
483.0090, 36057.00
484.1940, 36171.00
485.3780, 36292.00
486.5630, 36354.00
487.7470, 36367.00
488.9320, 36370.00
490.1160, 36272.00
491.3000, 36197.00
492.4830, 36174.01
493.6670, 36378.00
494.8500, 36206.00
496.0340, 36405.00
497.2170, 36675.00
498.4000, 36432.00
499.5820, 36533.00
500.7650, 36695.00
501.9480, 36716.00
503.1300, 36727.36
504.3120, 36672.00
505.4940, 36583.00
506.6760, 36614.00
507.8580, 36408.00
509.0390, 36826.00
510.2210, 36658.00
511.4020, 36898.00
512.5830, 37002.00
513.7640, 36949.00
514.9450, 36950.00
516.1250, 36951.00
517.3060, 37033.00
518.4860, 37154.00
519.6660, 36959.00
520.8460, 37193.00
522.0260, 37004.00
523.2060, 37155.00
524.3850, 37226.00
525.5650, 37086.00
526.7440, 37038.00
527.9230, 36949.00
529.1020, 37140.00
530.2810, 37117.00
531.4590, 37025.00
532.6380, 36886.00
533.8160, 36925.14
534.9940, 37040.00
536.1720, 37060.00
537.3500, 37011.00
538.5270, 37296.00
539.7050, 37029.00
540.8820, 37118.00
542.0590, 37348.00
543.2360, 37377.00
544.4130, 37368.00
545.5900, 37558.00
546.7660, 37209.00
547.9430, 37377.00
549.1190, 37324.00
550.2950, 37454.00
551.4710, 37385.00
552.6470, 37402.93
553.8220, 37521.00
554.9980, 37398.00
556.1730, 37555.00
557.3480, 37594.00
558.5230, 37349.00
559.6980, 37492.00
560.8730, 37726.00
562.0470, 37604.00
563.2220, 37685.00
564.3960, 37877.00
565.5700, 37689.00
566.7440, 37591.00
567.9170, 37810.00
569.0910, 37608.00
570.2640, 37717.00
571.4380, 37733.00
572.6110, 37798.00
573.7840, 37557.00
574.9570, 37577.00
576.1290, 37616.00
577.3020, 37295.00
578.4740, 37316.00
579.6460, 37577.00
580.8180, 36978.00
581.9900, 37372.00
583.1620, 37165.00
584.3330, 37114.00
585.5040, 37102.00
586.6760, 36715.00
587.8470, 37016.00
589.0180, 37237.00
590.1880, 36822.00
591.3590, 37146.00
592.5290, 36810.00
593.7000, 37048.00
594.8700, 37016.00
596.0400, 37005.00
597.2090, 37031.00
598.3790, 37085.00
599.5490, 36803.00
600.7180, 36879.00
601.8870, 36846.00
603.0560, 36901.00
604.2250, 36976.00
605.3940, 36812.00
606.5620, 36934.00
607.7300, 36850.00
608.8990, 37036.00
610.0670, 36928.00
611.2350, 36986.00
612.4020, 36998.24
613.5700, 36987.76
614.7370, 37041.00
615.9050, 37045.00
617.0720, 37198.00
618.2390, 37278.00
619.4060, 37062.00
620.5720, 37183.00
621.7390, 36977.00
622.9050, 37148.00
624.0710, 37220.00
625.2370, 37024.00
626.4030, 37165.00
627.5690, 37251.00
628.7340, 37170.00
629.9000, 37326.00
631.0650, 37174.00
632.2300, 37422.00
633.3950, 37144.00
634.5600, 37141.00
635.7240, 37005.00
636.8890, 36961.35
638.0530, 37311.00
639.2170, 36992.00
640.3810, 37210.00
641.5450, 37337.00
642.7080, 37191.00
643.8720, 36947.00
645.0350, 37371.00
646.1980, 36974.00
647.3610, 37073.00
648.5240, 37107.00
649.6870, 37088.00
650.8490, 37131.44
652.0120, 37131.30
653.1740, 37128.00
654.3360, 37161.00
655.4980, 37140.00
656.6600, 37183.00
657.8210, 37216.00
658.9830, 37204.00
660.1440, 37193.83
661.3050, 37249.00
662.4660, 37126.00
663.6270, 37051.00
664.7870, 37021.00
665.9480, 37224.00
667.1080, 37299.00
668.2680, 37026.00
669.4280, 37427.00
670.5880, 37392.00
671.7480, 37253.00
672.9070, 37506.00
674.0670, 37147.00
675.2260, 37042.00
676.3850, 37164.00
677.5440, 37220.00
678.7030, 37306.00
679.8610, 37275.00
681.0200, 37141.00
682.1780, 37218.00
683.3360, 37289.00
684.4940, 37387.00
685.6520, 37408.00
686.8090, 37493.00
687.9670, 37446.45
689.1240, 37276.00
690.2810, 37377.00
691.4380, 37309.00
692.5950, 37369.00
693.7520, 37354.65
694.9080, 37395.00
696.0650, 37292.00
697.2210, 37320.00
698.3770, 37229.00
699.5330, 37435.00
700.6880, 37445.00
701.8440, 37386.00
702.9990, 37610.00
704.1550, 37132.00
705.3100, 37333.00
706.4650, 37346.00
707.6190, 37119.00
708.7740, 37144.00
709.9290, 37018.00
711.0830, 37287.00
712.2370, 37372.00
713.3910, 37335.00
714.5450, 37389.00
715.6980, 37367.00
716.8520, 37367.00
718.0050, 37433.00
719.1580, 37404.00
720.3110, 37493.00
721.4640, 37334.00
722.6170, 37430.00
723.7700, 37408.00
724.9220, 37341.00
726.0740, 37321.00
727.2260, 37525.00
728.3780, 37682.00
729.5300, 37355.00
730.6810, 37698.00
731.8330, 37784.00
732.9840, 37379.00
734.1350, 37336.00
735.2860, 37529.00
736.4370, 37693.00
737.5880, 37418.00
738.7380, 37813.00
739.8880, 37569.00
741.0390, 37666.00
742.1890, 37688.00
743.3380, 37741.00
744.4880, 37684.00
745.6380, 37726.28
746.7870, 37899.00
747.9360, 37709.00
749.0850, 37884.00
750.2340, 37807.00
751.3830, 37577.00
752.5310, 37780.00
753.6800, 37712.00
754.8280, 37710.00
755.9760, 38158.00
757.1240, 37638.00
758.2720, 37674.00
759.4190, 37862.00
760.5670, 38111.00
761.7140, 38014.00
762.8610, 38077.25
764.0080, 37942.00
765.1550, 37923.00
766.3020, 37919.00
767.4480, 37808.00
768.5950, 38044.00
769.7410, 37894.00
770.8870, 38393.00
772.0330, 37904.00
773.1780, 37759.00
774.3240, 38014.00
775.4690, 38094.00
776.6140, 38144.00
777.7590, 38109.00
778.9040, 38005.00
780.0490, 38065.00
781.1940, 37883.00
782.3380, 37931.00
783.4820, 38033.00
784.6260, 37995.00
785.7700, 37900.00
786.9140, 38057.00
788.0580, 37969.00
789.2010, 38092.00
790.3450, 38216.00
791.4880, 38047.00
792.6310, 38114.00
793.7730, 38130.00
794.9160, 37938.00
796.0590, 38203.00
797.2010, 38252.00
798.3430, 38006.00
799.4850, 38318.00
800.6270, 38014.00
801.7690, 38460.00
802.9100, 38299.00
804.0520, 38371.00
805.1930, 38895.00
806.3340, 38001.00
807.4750, 38246.00
808.6160, 38022.00
809.7560, 38163.00
810.8970, 38076.00
812.0370, 38293.00
813.1770, 38453.00
814.3170, 38364.00
815.4570, 38365.00
816.5960, 38410.00
817.7360, 38349.92
818.8750, 38599.00
820.0140, 38335.00
821.1530, 38435.00
822.2920, 38498.00
823.4310, 38369.00
824.5690, 38378.00
825.7070, 38244.00
826.8460, 38369.00
827.9840, 38179.00
829.1220, 38364.00
830.2590, 38580.00
831.3970, 38433.00
832.5340, 38450.00
833.6710, 38596.00
834.8080, 38346.00
835.9450, 38076.00
837.0820, 38518.00
838.2190, 38218.00
839.3550, 38284.00
840.4910, 38628.00
841.6270, 38358.00
842.7630, 38393.00
843.8990, 38449.00
845.0350, 38516.00
846.1700, 38453.00
847.3060, 38565.00
848.4410, 38536.44
849.5760, 38485.00
850.7100, 38559.00
851.8450, 38532.00
852.9800, 38601.38
854.1140, 38597.10
855.2480, 38610.00
856.3820, 38560.00
857.5160, 38533.00
858.6500, 38539.15
859.7830, 38518.01
860.9170, 38550.00
862.0500, 38549.00
863.1830, 38574.00
864.3160, 38660.00
865.4480, 38550.00
866.5810, 38739.00
867.7130, 38714.00
868.8460, 38694.00
869.9780, 38636.00
871.1100, 38576.00
872.2410, 38605.34
873.3730, 38776.00
874.5050, 38674.00
875.6360, 38811.00
876.7670, 38886.00
877.8980, 38856.00
879.0290, 38830.00
880.1590, 38831.44
881.2900, 38810.44
882.4200, 38788.00
883.5500, 38789.00
884.6800, 38797.00
885.8100, 38779.71
886.9400, 38933.00
888.0690, 38832.00
889.1990, 38820.00
890.3280, 38877.00
891.4570, 39068.00
892.5860, 39094.00
893.7140, 38953.00
894.8430, 39031.00
895.9710, 38981.00
897.1000, 39052.00
898.2280, 38963.00
899.3560, 39054.00
900.4830, 38932.00
901.6110, 39294.00
902.7380, 39009.00
903.8660, 39140.00
904.9930, 39362.00
906.1200, 39296.00
907.2460, 39372.00
908.3730, 39385.00
909.5000, 39074.00
910.6260, 39288.00
911.7520, 39209.45
912.8780, 39211.77
914.0040, 39323.00
915.1290, 39268.00
916.2550, 39401.00
917.3800, 39376.00
918.5050, 39267.00
919.6300, 39499.00
920.7550, 39423.70
921.8800, 39589.00
923.0040, 39530.00
924.1290, 39386.00
925.2530, 39536.00
926.3770, 39300.00
927.5010, 39634.00
928.6250, 39290.00
929.7480, 39633.00
930.8720, 39285.00
931.9950, 39686.00
933.1180, 39596.00
934.2410, 39487.00
935.3640, 39516.00
936.4860, 39652.00
937.6090, 39616.00
938.7310, 39654.61
939.8530, 39692.36
940.9750, 39648.00
942.0970, 39768.00
943.2180, 39768.00
944.3400, 39892.00
945.4610, 39684.00
946.5820, 39577.00
947.7030, 39645.00
948.8240, 39918.00
949.9450, 39989.00
951.0650, 39600.00
952.1860, 39748.00
953.3060, 39519.00
954.4260, 39889.00
955.5460, 40036.00
956.6650, 39863.00
957.7850, 39973.00
958.9040, 39910.00
960.0230, 39729.00
961.1420, 39713.00
962.2610, 39858.00
963.3800, 39773.00
964.4990, 39815.56
965.6170, 39901.00
966.7350, 39869.00
967.8530, 39832.00
968.9710, 39978.00
970.0890, 40254.00
971.2070, 40061.00
972.3240, 39842.00
973.4410, 40083.00
974.5580, 39932.00
975.6750, 40014.00
976.7920, 40146.00
977.9090, 39877.00
979.0250, 40242.00
980.1410, 40825.00
981.2580, 40453.00
982.3740, 40302.00
983.4890, 40496.00
984.6050, 40272.00
985.7200, 40385.00
986.8360, 40425.00
987.9510, 40398.00
989.0660, 40254.00
990.1810, 40417.00
991.2950, 40329.00
992.4100, 40489.00
993.5240, 40432.00
994.6390, 40494.00
995.7530, 40509.00
996.8660, 40295.00
997.9800, 40424.00
999.0940, 40262.00
1000.207, 40199.00
1001.320, 40528.00
1002.433, 40332.00
1003.546, 40121.00
1004.659, 40217.00
1005.772, 40435.00
1006.884, 40536.00
1007.996, 40255.00
1009.108, 40604.00
1010.220, 40343.00
1011.332, 40637.00
1012.444, 40544.00
1013.555, 40538.00
1014.666, 40659.00
1015.777, 40507.00
1016.888, 40581.00
1017.999, 40863.00
1019.110, 40755.00
1020.220, 40373.00
1021.331, 40732.00
1022.441, 40526.00
1023.551, 40608.00
1024.661, 40406.00
1025.770, 40719.00
1026.880, 40654.00
1027.989, 40653.00
1029.098, 40919.00
1030.207, 40766.00
1031.316, 40788.00
1032.425, 40646.00
1033.533, 40663.00
1034.642, 40710.65
1035.750, 40724.00
1036.858, 40882.00
1037.966, 40901.00
1039.073, 41024.00
1040.181, 41048.00
1041.288, 40870.00
1042.396, 40844.00
1043.503, 40794.00
1044.610, 40806.82
1045.716, 40800.00
1046.823, 40991.00
1047.929, 40938.00
1049.036, 41160.00
1050.142, 41151.81
1051.248, 41062.00
1052.353, 41121.00
1053.459, 41236.00
1054.564, 41086.00
1055.670, 41361.00
1056.775, 40946.00
1057.880, 41263.00
1058.985, 41040.00
1060.089, 41126.00
1061.194, 41276.00
1062.298, 41344.00
1063.402, 41088.00
1064.506, 41201.00
1065.610, 41160.00
1066.713, 41134.39
1067.817, 41169.00
1068.920, 41086.00
1070.023, 41155.42
1071.126, 41356.00
1072.229, 41261.00
1073.332, 41347.00
1074.435, 41413.00
1075.537, 41233.00
1076.639, 41366.00
1077.741, 41298.00
1078.843, 41381.00
1079.945, 41381.51
1081.046, 41427.00
1082.148, 41328.00
1083.249, 41410.00
1084.350, 41284.00
1085.451, 41295.00
1086.551, 41341.00
1087.652, 41485.00
1088.752, 41336.00
1089.853, 41463.00
1090.953, 41283.00
1092.053, 41197.00
1093.152, 41176.00
1094.252, 41197.00
1095.351, 41355.00
1096.451, 41263.00
1097.550, 41555.00
1098.649, 41020.00
1099.748, 41794.00
1100.846, 41405.00
1101.945, 41288.00
1103.043, 41533.00
1104.141, 41313.00
1105.239, 41164.00
1106.337, 41104.00
1107.434, 41248.00
1108.532, 41308.00
1109.629, 41241.00
1110.726, 41174.00
1111.823, 41111.00
1112.920, 41106.00
1114.017, 41018.00
1115.113, 41011.00
1116.210, 41164.00
1117.306, 41131.00
1118.402, 41212.00
1119.498, 41079.00
1120.593, 41441.00
1121.689, 41187.00
1122.784, 41220.00
1123.879, 41331.00
1124.974, 41037.00
1126.069, 41028.00
1127.164, 40972.00
1128.259, 41067.00
1129.353, 41014.50
1130.447, 41012.09
1131.541, 40966.00
1132.635, 40948.00
1133.729, 40870.00
1134.822, 40777.00
1135.916, 40825.00
1137.009, 40696.00
1138.102, 40787.00
1139.195, 40838.00
1140.288, 40824.00
1141.380, 40818.00
1142.473, 40687.00
1143.565, 41083.00
1144.657, 40861.00
1145.749, 40945.00
1146.841, 40588.00
1147.932, 40742.00
1149.024, 40788.00
1150.115, 40900.00
1151.206, 40457.00
1152.297, 40842.00
1153.388, 40648.00
1154.479, 40617.00
1155.569, 40719.00
1156.659, 40543.00
1157.750, 40645.00
1158.839, 40494.00
1159.929, 40499.00
1161.019, 40625.00
1162.108, 40587.00
1163.198, 40763.00
1164.287, 40673.00
1165.376, 40740.00
1166.465, 40748.00
1167.553, 40555.00
1168.642, 40863.00
1169.730, 40680.91
1170.818, 40734.70
1171.906, 40606.00
1172.994, 40616.00
1174.082, 40691.00
1175.170, 40352.00
1176.257, 40814.00
1177.344, 40440.00
1178.431, 40478.00
1179.518, 40631.00
1180.605, 40663.00
1181.691, 40656.47
1182.778, 40555.00
1183.864, 40557.00
1184.950, 40486.00
1186.036, 40362.00
1187.122, 40270.00
1188.207, 40597.00
1189.292, 40625.00
1190.378, 40371.00
1191.463, 40488.00
1192.548, 40282.00
1193.632, 40421.00
1194.717, 40348.00
1195.801, 40576.00
1196.886, 40691.00
1197.970, 40559.00
1199.054, 40256.00
1200.137, 40348.00
1201.221, 40210.00
1202.305, 40304.00
1203.388, 40521.00
1204.471, 40307.00
1205.554, 40488.00
1206.637, 40252.00
1207.719, 40531.00
1208.802, 40355.00
1209.884, 40396.00
1210.966, 40171.00
1212.048, 40396.00
1213.130, 40781.00
1214.212, 40490.00
1215.293, 40311.00
1216.374, 40488.00
1217.456, 40332.00
1218.536, 40329.00
1219.617, 40674.00
1220.698, 40646.00
1221.778, 40430.00
1222.859, 40488.00
1223.939, 40675.00
1225.019, 40288.00
1226.099, 40496.00
1227.178, 40335.00
1228.258, 40805.00
1229.337, 40708.00
1230.417, 40575.00
1231.496, 40559.00
1232.574, 40370.00
1233.653, 40326.95
1234.732, 40467.00
1235.810, 40159.00
1236.888, 40378.00
1237.966, 40265.00
1239.044, 40360.00
1240.122, 40436.00
1241.199, 40375.07
1242.277, 40660.00
1243.354, 40385.00
1244.431, 40511.00
1245.508, 40628.00
1246.585, 40470.00
1247.661, 40462.00
1248.738, 40546.00
1249.814, 40531.00
1250.890, 40408.00
1251.966, 40468.00
1253.042, 40830.00
1254.117, 40460.00
1255.193, 40812.00
1256.268, 40530.00
1257.343, 40653.00
1258.418, 40409.00
1259.493, 40526.00
1260.567, 40386.00
1261.642, 40502.00
1262.716, 40316.00
1263.790, 40527.00
1264.864, 40632.00
1265.938, 40536.00
1267.011, 40495.00
1268.085, 40549.00
1269.158, 40646.00
1270.231, 40605.00
1271.304, 40941.00
1272.377, 40525.00
1273.450, 40386.00
1274.522, 40567.00
1275.594, 40502.00
1276.666, 40544.00
1277.738, 40448.00
1278.810, 40620.00
1279.882, 40850.00
1280.953, 40577.00
1282.025, 40781.00
1283.096, 40578.00
1284.167, 40694.00
1285.238, 40509.00
1286.308, 40621.00
1287.379, 40591.00
1288.449, 40895.00
1289.519, 40539.00
1290.589, 40767.00
1291.659, 40769.00
1292.729, 40685.48
1293.798, 40727.75
1294.868, 40718.00
1295.937, 40613.00
1297.006, 40742.00
1298.075, 40710.00
1299.143, 40748.00
1300.212, 40696.00
1301.280, 40512.00
1302.348, 40860.00
1303.416, 40822.00
1304.484, 40781.00
1305.552, 40475.00
1306.620, 40680.00
1307.687, 40811.00
1308.754, 40608.00
1309.821, 41034.00
1310.888, 40419.00
1311.955, 40511.00
1313.021, 40504.00
1314.088, 40790.00
1315.154, 40796.00
1316.220, 40724.00
1317.286, 40917.00
1318.352, 40894.00
1319.417, 40836.00
1320.483, 40582.00
1321.548, 40466.00
1322.613, 40703.00
1323.678, 40737.00
1324.743, 40621.00
1325.807, 40595.00
1326.872, 40558.00
1327.936, 40828.00
1329.000, 40846.00
1330.064, 40811.00
1331.128, 40774.00
1332.191, 40775.00
1333.255, 40861.00
1334.318, 40625.00
1335.381, 40578.00
1336.444, 40619.00
1337.507, 40705.00
1338.569, 40681.00
1339.632, 40833.00
1340.694, 40536.00
1341.756, 40878.00
1342.818, 40890.00
1343.880, 40455.00
1344.941, 40693.00
1346.003, 40717.00
1347.064, 40785.00
1348.125, 40877.13
1349.186, 40852.98
1350.247, 40918.00
1351.308, 40808.00
1352.368, 40707.00
1353.428, 40633.00
1354.489, 40699.00
1355.549, 40913.00
1356.608, 40566.00
1357.668, 40819.00
1358.727, 40803.00
1359.787, 40640.00
1360.846, 40876.00
1361.905, 40728.00
1362.964, 40746.00
1364.022, 40698.00
1365.081, 40886.00
1366.139, 40925.00
1367.197, 40948.00
1368.255, 41101.00
1369.313, 41003.17
1370.371, 40843.00
1371.428, 40839.00
1372.486, 40845.00
1373.543, 40719.00
1374.600, 40592.00
1375.657, 40655.00
1376.713, 40625.24
1377.770, 40993.00
1378.826, 40785.00
1379.882, 40850.00
1380.938, 41048.00
1381.994, 40788.00
1383.050, 40789.00
1384.106, 40926.00
1385.161, 40896.00
1386.216, 40743.00
1387.271, 40837.00
1388.326, 40814.00
1389.381, 40712.00
1390.435, 40914.00
1391.490, 40873.00
1392.544, 40816.00
1393.598, 40754.00
1394.652, 40932.00
1395.705, 40862.00
1396.759, 40967.00
1397.812, 40923.00
1398.866, 40889.00
1399.919, 40915.00
1400.972, 40976.00
1402.024, 40951.97
1403.077, 40919.00
1404.129, 40950.00
1405.181, 40910.00
1406.233, 40890.00
1407.285, 40923.00
1408.337, 40903.57
1409.389, 40818.00
1410.440, 40907.00
1411.491, 40957.00
1412.542, 40940.00
1413.593, 40761.00
1414.644, 41087.00
1415.695, 40690.00
1416.745, 40879.00
1417.795, 40949.00
1418.845, 40881.00
1419.895, 40973.00
1420.945, 41123.00
1421.995, 41148.00
1423.044, 41182.09
1424.093, 40964.00
1425.142, 41155.00
1426.191, 41070.00
1427.240, 41024.00
1428.289, 41043.00
1429.337, 41093.00
1430.385, 41147.00
1431.433, 41238.00
1432.481, 40971.00
1433.529, 41002.00
1434.577, 41012.00
1435.624, 40842.00
1436.672, 41202.00
1437.719, 40970.00
1438.766, 41102.00
1439.812, 41354.00
1440.859, 40947.00
1441.905, 41207.00
1442.952, 40917.00
1443.998, 41217.00
1445.044, 41075.00
1446.090, 41260.00
1447.135, 41094.00
1448.181, 40844.00
1449.226, 40888.00
1450.271, 41130.00
1451.316, 41308.00
1452.361, 40971.00
1453.405, 41097.00
1454.450, 40953.00
1455.494, 41063.00
1456.538, 41077.00
1457.582, 41060.00
1458.626, 40998.00
1459.670, 41096.00
1460.713, 41302.00
1461.757, 40921.00
1462.800, 41156.00
1463.843, 41265.00
1464.886, 41129.00
1465.928, 41017.00
1466.971, 41124.00
1468.013, 40978.00
1469.055, 40906.00
1470.097, 41264.00
1471.139, 41025.00
1472.181, 41205.00
1473.222, 41159.00
1474.263, 40963.00
1475.305, 41132.00
1476.346, 40952.00
1477.386, 41192.00
1478.427, 41183.00
1479.468, 41189.16
1480.508, 41099.00
1481.548, 41198.00
1482.588, 41297.00
1483.628, 41222.00
1484.668, 41106.00
1485.707, 41133.00
1486.747, 41017.00
1487.786, 41032.01
1488.825, 41027.53
1489.864, 41040.00
1490.902, 41111.00
1491.941, 41102.00
1492.979, 41276.00
1494.017, 41374.00
1495.055, 41105.00
1496.093, 41294.00
1497.131, 41146.00
1498.168, 41008.00
1499.206, 41186.00
1500.243, 41092.00
1501.280, 41020.00
1502.317, 41409.00
1503.354, 41156.00
1504.390, 41466.00
1505.426, 41213.00
1506.463, 41527.00
1507.499, 41349.00
1508.535, 41410.00
1509.570, 41470.00
1510.606, 41271.00
1511.641, 41189.00
1512.676, 41437.00
1513.711, 41237.00
1514.746, 41201.00
1515.781, 41181.00
1516.816, 41517.00
1517.850, 41313.00
1518.884, 41274.00
1519.918, 41575.00
1520.952, 41274.00
1521.986, 41408.00
1523.019, 41177.00
1524.053, 41288.00
1525.086, 41368.00
1526.119, 41201.00
1527.152, 41408.00
1528.185, 41748.00
1529.217, 41411.00
1530.250, 41443.00
1531.282, 41437.00
1532.314, 41222.00
1533.346, 41317.00
1534.377, 41220.00
1535.409, 41555.00
1536.440, 41629.00
1537.472, 41514.00
1538.503, 41403.00
1539.534, 41329.00
1540.564, 41682.00
1541.595, 41264.00
1542.625, 41579.00
1543.656, 41323.00
1544.686, 41681.00
1545.716, 41616.00
1546.745, 41465.00
##END=



