##NAMES=Arsenopyrite
##RRUFFID=R050071
##IDEAL CHEMISTRY=Fe^3+^(AsS)^3-^
##LOCALITY=Yaogangxian mine, Yizhang County, Hunan Province, China
##OWNER=RRUFF
##SOURCE=Rock Currier
##DESCRIPTION=Steel-gray tabular
##STATUS=The identification of this mineral has been confirmed by X-ray diffraction and chemical analysis
##URL=rruff.info/R050071
##MEASURED CHEMISTRY=FeAsS
##PIN_ID=L00162
##ORIENTATION=Laser parallel to -c* (0 0 -1). Fiducial mark perpendicular to laser is parallel to -a [-1 0 0]
71.24100, 38263.00
72.47700, 41146.00
73.71400, 46993.00
74.95100, 53519.00
76.18700, 56897.00
77.42300, 56438.00
78.65900, 54126.00
79.89500, 49788.00
81.13100, 45126.00
82.36700, 43787.00
83.60200, 43712.00
84.83700, 43261.00
86.07200, 41938.00
87.30800, 41641.00
88.54200, 41721.00
89.77700, 42334.00
91.01200, 43141.00
92.24600, 43567.00
93.48000, 42943.00
94.71400, 42392.00
95.94800, 42552.00
97.18200, 41670.00
98.41600, 41102.00
99.64900, 41407.00
100.8830, 41603.00
102.1160, 41500.00
103.3490, 42522.00
104.5820, 43972.00
105.8150, 46773.00
107.0470, 49627.00
108.2800, 50996.30
109.5120, 52142.05
110.7440, 54501.00
111.9760, 55313.50
113.2080, 55486.00
114.4400, 57631.00
115.6710, 59657.00
116.9030, 60950.00
118.1340, 63230.00
119.3650, 59980.00
120.5960, 52865.00
121.8270, 47725.00
123.0580, 44948.00
124.2880, 42671.00
125.5190, 41087.00
126.7490, 40457.00
127.9790, 40172.00
129.2090, 40533.00
130.4390, 40208.00
131.6680, 40225.00
132.8980, 39772.00
134.1270, 40022.00
135.3560, 40227.00
136.5850, 39875.00
137.8140, 40225.00
139.0430, 40377.00
140.2710, 40311.00
141.5000, 40038.00
142.7280, 39860.05
143.9560, 39261.00
145.1840, 39232.00
146.4120, 38890.00
147.6390, 38693.00
148.8670, 39011.00
150.0940, 39050.00
151.3210, 39541.00
152.5490, 39924.00
153.7750, 39592.00
155.0020, 39157.00
156.2290, 39269.00
157.4550, 39262.00
158.6810, 39243.00
159.9080, 38880.00
161.1340, 39129.00
162.3590, 39099.00
163.5850, 39314.00
164.8110, 38951.00
166.0360, 39231.00
167.2610, 38881.00
168.4860, 39007.00
169.7110, 39099.00
170.9360, 39411.00
172.1610, 39252.00
173.3850, 39239.91
174.6100, 38848.00
175.8340, 38925.00
177.0580, 38760.00
178.2820, 38587.00
179.5050, 38761.00
180.7290, 38600.00
181.9520, 38564.00
183.1760, 38649.00
184.3990, 39019.00
185.6220, 39093.00
186.8450, 39278.00
188.0670, 39222.00
189.2900, 39330.00
190.5120, 39688.00
191.7340, 39435.00
192.9560, 39687.00
194.1780, 39908.00
195.4000, 39895.00
196.6220, 40068.00
197.8430, 40129.02
199.0640, 39994.00
200.2860, 40212.00
201.5070, 40310.00
202.7270, 40270.00
203.9480, 39807.00
205.1690, 39107.00
206.3890, 39369.00
207.6090, 38027.00
208.8290, 38060.00
210.0490, 37929.00
211.2690, 37891.00
212.4890, 38402.00
213.7080, 38580.00
214.9280, 39002.00
216.1470, 38663.00
217.3660, 38069.00
218.5850, 37975.00
219.8030, 38141.00
221.0220, 38276.00
222.2400, 38132.00
223.4590, 38391.00
224.6770, 38243.00
225.8950, 38146.00
227.1120, 38070.00
228.3300, 38183.00
229.5480, 37942.00
230.7650, 38174.00
231.9820, 38099.00
233.1990, 38063.00
234.4160, 38053.00
235.6330, 38283.00
236.8490, 38179.00
238.0660, 38383.00
239.2820, 38383.00
240.4980, 38284.00
241.7140, 38400.00
242.9300, 38073.00
244.1460, 38322.00
245.3610, 38035.00
246.5770, 37912.00
247.7920, 38021.00
249.0070, 38324.00
250.2220, 38353.00
251.4370, 38554.00
252.6510, 38655.00
253.8660, 38739.00
255.0800, 38347.00
256.2940, 38774.00
257.5080, 39276.00
258.7220, 40566.00
259.9360, 40301.60
261.1490, 40325.54
262.3630, 40237.00
263.5760, 39538.00
264.7890, 39504.00
266.0020, 39381.00
267.2150, 39440.00
268.4270, 39266.00
269.6400, 39365.00
270.8520, 39172.00
272.0640, 39148.00
273.2760, 38866.00
274.4880, 38941.00
275.7000, 38964.00
276.9120, 38940.52
278.1230, 39213.00
279.3340, 39059.00
280.5450, 39033.00
281.7560, 39065.00
282.9670, 38915.00
284.1780, 38657.00
285.3880, 39013.00
286.5980, 39012.00
287.8090, 38832.00
289.0190, 39087.00
290.2290, 39176.00
291.4380, 39183.00
292.6480, 39066.00
293.8570, 39105.00
295.0670, 38939.00
296.2760, 39027.52
297.4850, 39088.00
298.6930, 39160.00
299.9020, 39123.00
301.1110, 39160.00
302.3190, 39197.00
303.5270, 39355.00
304.7350, 39239.00
305.9430, 39309.00
307.1510, 39385.00
308.3580, 39306.00
309.5660, 39317.00
310.7730, 39633.00
311.9800, 39811.00
313.1870, 39572.00
314.3940, 39498.00
315.6010, 39478.00
316.8070, 39519.00
318.0130, 39510.00
319.2200, 39621.00
320.4260, 39617.67
321.6310, 39662.84
322.8370, 39663.00
324.0430, 39747.00
325.2480, 39764.00
326.4540, 39837.00
327.6590, 39609.00
328.8640, 40122.00
330.0680, 39820.00
331.2730, 40058.00
332.4780, 40028.00
333.6820, 39695.00
334.8860, 39989.00
336.0900, 40123.00
337.2940, 40123.00
338.4980, 39919.00
339.7010, 39855.00
340.9050, 40062.00
342.1080, 40031.00
343.3110, 39994.00
344.5140, 40155.00
345.7170, 39904.00
346.9200, 40204.00
348.1220, 40781.00
349.3240, 40151.00
350.5270, 40482.00
351.7290, 40115.00
352.9310, 39890.00
354.1320, 39944.00
355.3340, 40085.00
356.5350, 40001.00
357.7370, 39945.00
358.9380, 40290.00
360.1390, 39866.00
361.3400, 40116.00
362.5400, 40231.00
363.7410, 40022.00
364.9410, 40259.00
366.1410, 40384.00
367.3410, 40183.00
368.5410, 40049.00
369.7410, 40284.00
370.9400, 40164.02
372.1400, 40168.35
373.3390, 40167.00
374.5380, 40153.00
375.7370, 40207.52
376.9360, 40220.62
378.1350, 40303.00
379.3330, 40269.00
380.5310, 40278.00
381.7300, 40242.00
382.9280, 40268.00
384.1260, 40417.00
385.3230, 40543.00
386.5210, 40460.00
387.7180, 40562.00
388.9160, 40414.00
390.1130, 40650.00
391.3100, 40512.00
392.5060, 40594.00
393.7030, 40967.00
394.9000, 40636.00
396.0960, 40459.00
397.2920, 40944.00
398.4880, 40744.00
399.6840, 40696.00
400.8800, 40482.00
402.0750, 40723.00
403.2710, 40979.00
404.4660, 40811.00
405.6610, 40812.00
406.8560, 40760.00
408.0510, 40702.00
409.2450, 41197.00
410.4400, 41399.00
411.6340, 41952.00
412.8280, 41293.00
414.0220, 41032.00
415.2160, 41204.00
416.4100, 40948.00
417.6030, 41087.00
418.7970, 41306.00
419.9900, 41155.00
421.1830, 41242.00
422.3760, 41358.00
423.5690, 41131.00
424.7610, 41257.00
425.9540, 41209.00
427.1460, 41455.00
428.3380, 41230.00
429.5300, 41381.00
430.7220, 41165.00
431.9140, 41424.00
433.1050, 41359.00
434.2970, 41405.00
435.4880, 41581.00
436.6790, 41395.00
437.8700, 41332.00
439.0610, 41888.00
440.2510, 41400.00
441.4420, 41434.00
442.6320, 42478.00
443.8220, 41706.00
445.0120, 41735.00
446.2020, 41662.00
447.3910, 41648.00
448.5810, 41762.00
449.7700, 41781.00
450.9600, 41959.00
452.1490, 41746.00
453.3370, 41955.00
454.5260, 41653.00
455.7150, 42052.00
456.9030, 41850.00
458.0910, 41883.00
459.2800, 41931.00
460.4670, 41993.00
461.6550, 42031.30
462.8430, 42222.00
464.0300, 42092.00
465.2180, 42117.00
466.4050, 42073.00
467.5920, 41927.00
468.7790, 42037.00
469.9650, 42197.00
471.1520, 42018.00
472.3380, 42139.00
473.5250, 42177.00
474.7110, 42488.00
475.8970, 41953.00
477.0820, 42282.00
478.2680, 42444.00
479.4540, 42180.00
480.6390, 42571.00
481.8240, 42461.00
483.0090, 42613.00
484.1940, 42739.00
485.3780, 42618.00
486.5630, 42555.00
487.7470, 42687.00
488.9320, 42640.00
490.1160, 42786.00
491.3000, 42793.00
492.4830, 42724.00
493.6670, 42729.00
494.8500, 42823.00
496.0340, 42837.00
497.2170, 42994.00
498.4000, 42925.00
499.5820, 42961.00
500.7650, 43187.00
501.9480, 42786.00
503.1300, 43222.00
504.3120, 42917.00
505.4940, 43273.00
506.6760, 43234.00
507.8580, 43281.00
509.0390, 42955.00
510.2210, 43021.00
511.4020, 42998.00
512.5830, 43062.00
513.7640, 43207.00
514.9450, 43210.00
516.1250, 43299.00
517.3060, 43597.00
518.4860, 43429.00
519.6660, 43715.00
520.8460, 43652.00
522.0260, 43669.00
523.2060, 43557.00
524.3850, 43836.00
525.5650, 43487.00
526.7440, 43449.00
527.9230, 43858.00
529.1020, 43661.00
530.2810, 43493.00
531.4590, 43865.00
532.6380, 43566.00
533.8160, 43561.00
534.9940, 43485.00
536.1720, 43321.00
537.3500, 43699.00
538.5270, 43632.00
539.7050, 43777.00
540.8820, 43789.00
542.0590, 43882.00
543.2360, 44110.00
544.4130, 43742.00
545.5900, 44052.00
546.7660, 43644.00
547.9430, 43894.00
549.1190, 44223.00
550.2950, 44109.00
551.4710, 44089.00
552.6470, 44268.00
553.8220, 44057.00
554.9980, 44229.00
556.1730, 44324.00
557.3480, 44055.00
558.5230, 44388.00
559.6980, 44352.00
560.8730, 44235.00
562.0470, 44353.00
563.2220, 44426.00
564.3960, 44560.00
565.5700, 44524.12
566.7440, 44337.00
567.9170, 44390.00
569.0910, 44432.00
570.2640, 44265.00
571.4380, 44513.00
572.6110, 44340.00
573.7840, 44086.00
574.9570, 44338.00
576.1290, 43869.00
577.3020, 43887.00
578.4740, 43765.00
579.6460, 43530.00
580.8180, 43584.00
581.9900, 43644.00
583.1620, 43745.00
584.3330, 43516.00
585.5040, 43567.00
586.6760, 43314.00
587.8470, 43119.00
589.0180, 43424.00
590.1880, 43154.00
591.3590, 43245.00
592.5290, 43196.00
593.7000, 43188.00
594.8700, 43197.00
596.0400, 43183.00
597.2090, 43388.00
598.3790, 43352.00
599.5490, 43236.00
600.7180, 43356.00
601.8870, 43196.00
603.0560, 43288.00
604.2250, 43435.00
605.3940, 43658.00
606.5620, 43034.00
607.7300, 43323.00
608.8990, 43297.00
610.0670, 43205.00
611.2350, 43355.00
612.4020, 43437.00
613.5700, 43194.00
614.7370, 43358.00
615.9050, 43165.00
617.0720, 43516.00
618.2390, 43456.00
619.4060, 43349.00
620.5720, 43696.00
621.7390, 43364.00
622.9050, 43508.00
624.0710, 43643.00
625.2370, 43621.00
626.4030, 43622.54
627.5690, 43174.00
628.7340, 43447.00
629.9000, 43481.00
631.0650, 43354.00
632.2300, 43843.00
633.3950, 43325.00
634.5600, 43498.00
635.7240, 43795.00
636.8890, 43474.00
638.0530, 43433.00
639.2170, 43577.00
640.3810, 43766.00
641.5450, 43553.00
642.7080, 43509.00
643.8720, 43842.00
645.0350, 43639.00
646.1980, 43489.00
647.3610, 43681.00
648.5240, 43551.00
649.6870, 43490.00
650.8490, 43752.00
652.0120, 43413.00
653.1740, 43322.00
654.3360, 43471.00
655.4980, 43619.00
656.6600, 43578.00
657.8210, 43618.61
658.9830, 43318.00
660.1440, 43471.00
661.3050, 43425.00
662.4660, 43220.00
663.6270, 43411.00
664.7870, 43419.00
665.9480, 43311.00
667.1080, 43369.00
668.2680, 43366.25
669.4280, 43368.42
670.5880, 43457.00
671.7480, 43516.00
672.9070, 43615.00
674.0670, 43594.12
675.2260, 43780.00
676.3850, 43587.00
677.5440, 43529.00
678.7030, 43619.00
679.8610, 43404.00
681.0200, 43441.00
682.1780, 43494.00
683.3360, 43476.00
684.4940, 43338.00
685.6520, 43696.00
686.8090, 43858.00
687.9670, 43511.00
689.1240, 43243.00
690.2810, 43747.00
691.4380, 43790.00
692.5950, 43553.00
693.7520, 43631.00
694.9080, 43594.00
696.0650, 43546.94
697.2210, 43489.00
698.3770, 43531.00
699.5330, 43593.00
700.6880, 43558.00
701.8440, 43599.00
702.9990, 43646.00
704.1550, 43523.00
705.3100, 43671.00
706.4650, 43456.00
707.6190, 43540.00
708.7740, 43677.00
709.9290, 43628.00
711.0830, 43789.00
712.2370, 43568.00
713.3910, 43791.00
714.5450, 43796.00
715.6980, 43660.00
716.8520, 43609.00
718.0050, 43626.24
719.1580, 43619.00
720.3110, 43620.00
721.4640, 43678.06
722.6170, 43841.00
723.7700, 43837.00
724.9220, 43748.00
726.0740, 43893.00
727.2260, 43703.00
728.3780, 43608.00
729.5300, 44160.00
730.6810, 44118.00
731.8330, 44099.00
732.9840, 44055.00
734.1350, 43707.00
735.2860, 44240.00
736.4370, 44098.00
737.5880, 43822.00
738.7380, 44149.00
739.8880, 43968.00
741.0390, 44003.00
742.1890, 44115.00
743.3380, 44058.00
744.4880, 44074.00
745.6380, 43930.00
746.7870, 44211.00
747.9360, 43919.00
749.0850, 44126.00
750.2340, 44425.00
751.3830, 43973.00
752.5310, 44257.00
753.6800, 44225.00
754.8280, 44206.00
755.9760, 44303.00
757.1240, 44240.00
758.2720, 44117.00
759.4190, 44249.00
760.5670, 43962.00
761.7140, 44185.00
762.8610, 44628.00
764.0080, 44354.00
765.1550, 44267.00
766.3020, 44145.00
767.4480, 44462.00
768.5950, 44265.00
769.7410, 44232.00
770.8870, 44494.00
772.0330, 44209.00
773.1780, 44227.00
774.3240, 44573.00
775.4690, 44503.00
776.6140, 44498.00
777.7590, 44589.00
778.9040, 44335.00
780.0490, 44127.00
781.1940, 44663.00
782.3380, 44352.00
783.4820, 44582.00
784.6260, 44455.00
785.7700, 44426.00
786.9140, 44330.00
788.0580, 44383.08
789.2010, 44414.00
790.3450, 44493.00
791.4880, 44497.00
792.6310, 44476.00
793.7730, 44649.00
794.9160, 44751.00
796.0590, 44529.00
797.2010, 44512.00
798.3430, 44866.00
799.4850, 44680.00
800.6270, 44890.00
801.7690, 44755.00
802.9100, 44580.00
804.0520, 44717.00
805.1930, 44740.00
806.3340, 44646.00
807.4750, 44647.00
808.6160, 44616.00
809.7560, 44742.00
810.8970, 44436.00
812.0370, 44534.00
813.1770, 44741.00
814.3170, 44934.00
815.4570, 44788.00
816.5960, 44436.00
817.7360, 44690.00
818.8750, 44696.00
820.0140, 44551.00
821.1530, 44631.00
822.2920, 44785.00
823.4310, 44792.00
824.5690, 44610.00
825.7070, 44574.00
826.8460, 44839.00
827.9840, 44801.00
829.1220, 44912.00
830.2590, 44886.95
831.3970, 44775.00
832.5340, 44745.00
833.6710, 44703.00
834.8080, 44627.00
835.9450, 44755.00
837.0820, 44704.00
838.2190, 44868.00
839.3550, 44835.00
840.4910, 44758.00
841.6270, 44771.00
842.7630, 44918.00
843.8990, 44789.00
845.0350, 44765.00
846.1700, 45064.00
847.3060, 44977.00
848.4410, 45054.00
849.5760, 44934.00
850.7100, 44899.00
851.8450, 45002.00
852.9800, 44988.00
854.1140, 45207.00
855.2480, 45026.00
856.3820, 45283.00
857.5160, 45151.00
858.6500, 44905.00
859.7830, 45174.00
860.9170, 44924.00
862.0500, 45020.00
863.1830, 44972.00
864.3160, 45036.00
865.4480, 45081.00
866.5810, 45024.00
867.7130, 45072.00
868.8460, 45173.00
869.9780, 45162.00
871.1100, 45207.00
872.2410, 45221.00
873.3730, 44942.00
874.5050, 45265.00
875.6360, 44980.00
876.7670, 45259.00
877.8980, 45413.00
879.0290, 45275.00
880.1590, 45223.00
881.2900, 45051.00
882.4200, 45396.00
883.5500, 45281.00
884.6800, 45407.00
885.8100, 45667.00
886.9400, 45346.00
888.0690, 45596.00
889.1990, 45530.00
890.3280, 45789.00
891.4570, 45544.00
892.5860, 45410.00
893.7140, 45477.00
894.8430, 45494.00
895.9710, 45820.00
897.1000, 45715.00
898.2280, 45694.00
899.3560, 45780.00
900.4830, 45638.00
901.6110, 45923.00
902.7380, 45536.00
903.8660, 45529.00
904.9930, 45384.00
906.1200, 45503.00
907.2460, 45377.00
908.3730, 45664.00
909.5000, 45558.00
910.6260, 46002.00
911.7520, 45933.00
912.8780, 45722.00
914.0040, 45786.00
915.1290, 45658.00
916.2550, 45891.00
917.3800, 45989.00
918.5050, 45990.00
919.6300, 45892.00
920.7550, 45946.00
921.8800, 45636.00
923.0040, 45843.00
924.1290, 45738.00
925.2530, 46045.00
926.3770, 45969.00
927.5010, 46016.00
928.6250, 45995.00
929.7480, 45613.00
930.8720, 46224.00
931.9950, 46159.00
933.1180, 46418.00
934.2410, 45851.00
935.3640, 46157.00
936.4860, 45741.00
937.6090, 46347.00
938.7310, 45957.00
939.8530, 45938.00
940.9750, 46137.00
942.0970, 46071.00
943.2180, 46186.00
944.3400, 46107.00
945.4610, 46256.00
946.5820, 46531.00
947.7030, 46359.00
948.8240, 46545.00
949.9450, 46385.00
951.0650, 46411.00
952.1860, 46384.00
953.3060, 46241.00
954.4260, 46449.00
955.5460, 46274.00
956.6650, 46510.00
957.7850, 46404.00
958.9040, 46695.00
960.0230, 46410.00
961.1420, 46572.00
962.2610, 46430.00
963.3800, 46586.00
964.4990, 46311.00
965.6170, 46450.00
966.7350, 46588.00
967.8530, 46602.00
968.9710, 46835.00
970.0890, 46488.00
971.2070, 46610.00
972.3240, 46708.00
973.4410, 46616.00
974.5580, 46853.00
975.6750, 46794.00
976.7920, 46614.00
977.9090, 46808.00
979.0250, 46537.00
980.1410, 46863.00
981.2580, 46942.00
982.3740, 46869.00
983.4890, 47107.00
984.6050, 46830.00
985.7200, 46845.00
986.8360, 47094.00
987.9510, 47185.00
989.0660, 46859.00
990.1810, 46998.00
991.2950, 47037.00
992.4100, 47128.00
993.5240, 47017.00
994.6390, 47178.00
995.7530, 47244.00
996.8660, 46922.00
997.9800, 47513.00
999.0940, 46867.00
1000.207, 47068.00
1001.320, 47249.00
1002.433, 47407.00
1003.546, 47427.28
1004.659, 46964.00
1005.772, 47461.00
1006.884, 47182.00
1007.996, 47314.00
1009.108, 47365.00
1010.220, 47513.00
1011.332, 47210.00
1012.444, 47427.00
1013.555, 47399.00
1014.666, 47078.00
1015.777, 47054.00
1016.888, 47317.00
1017.999, 47514.00
1019.110, 47309.00
1020.220, 47248.00
1021.331, 47380.00
1022.441, 47512.00
1023.551, 47452.00
1024.661, 47436.00
1025.770, 47393.00
1026.880, 47253.00
1027.989, 47455.00
1029.098, 47699.00
1030.207, 47804.00
1031.316, 47281.00
1032.425, 48101.00
1033.533, 47698.00
1034.642, 47497.00
1035.750, 47735.00
1036.858, 47352.00
1037.966, 47717.00
1039.073, 47354.00
1040.181, 47839.00
1041.288, 47488.00
1042.396, 47832.00
1043.503, 47639.00
1044.610, 47772.00
1045.716, 47750.00
1046.823, 47692.00
1047.929, 47748.00
1049.036, 47571.00
1050.142, 47870.00
1051.248, 48008.00
1052.353, 47896.00
1053.459, 47838.00
1054.564, 47745.00
1055.670, 47794.00
1056.775, 47779.64
1057.880, 47737.00
1058.985, 47900.06
1060.089, 47853.21
1061.194, 48008.00
1062.298, 47815.00
1063.402, 47948.00
1064.506, 47945.00
1065.610, 48009.00
1066.713, 47930.00
1067.817, 48124.00
1068.920, 48116.00
1070.023, 47862.00
1071.126, 47979.00
1072.229, 48168.00
1073.332, 48106.00
1074.435, 47830.00
1075.537, 48004.00
1076.639, 48446.00
1077.741, 48115.00
1078.843, 48162.00
1079.945, 48128.00
1081.046, 48067.00
1082.148, 48256.00
1083.249, 48165.00
1084.350, 48080.00
1085.451, 48003.00
1086.551, 47782.00
1087.652, 47933.00
1088.752, 48343.00
1089.853, 47857.00
1090.953, 48245.00
1092.053, 48053.00
1093.152, 48007.00
1094.252, 47662.00
1095.351, 47753.79
1096.451, 47807.00
1097.550, 47809.00
1098.649, 47923.00
1099.748, 47872.00
1100.846, 48021.00
1101.945, 47843.00
1103.043, 48102.00
1104.141, 48038.00
1105.239, 47855.00
1106.337, 47741.00
1107.434, 47777.00
1108.532, 47877.00
1109.629, 47838.51
1110.726, 47978.00
1111.823, 47941.00
1112.920, 47969.00
1114.017, 48129.39
1115.113, 48276.00
1116.210, 48216.00
1117.306, 48244.00
1118.402, 48166.00
1119.498, 48390.00
1120.593, 48474.00
1121.689, 48618.00
1122.784, 48465.00
1123.879, 48578.00
1124.974, 48464.00
1126.069, 48232.00
1127.164, 48331.00
1128.259, 48120.00
1129.353, 47954.00
1130.447, 47642.00
1131.541, 47724.00
1132.635, 47404.00
1133.729, 47561.00
1134.822, 47639.00
1135.916, 47535.00
1137.009, 47306.00
1138.102, 47695.00
1139.195, 47406.00
1140.288, 47313.00
1141.380, 47527.00
1142.473, 47352.00
1143.565, 47617.00
1144.657, 47678.00
1145.749, 47412.00
1146.841, 47348.00
1147.932, 47442.00
1149.024, 47342.00
1150.115, 47512.00
1151.206, 47521.00
1152.297, 47495.00
1153.388, 47479.00
1154.479, 47265.00
1155.569, 47666.00
1156.659, 47317.00
1157.750, 46997.00
1158.839, 47273.00
1159.929, 47155.00
1161.019, 47212.00
1162.108, 47365.00
1163.198, 46960.00
1164.287, 47268.00
1165.376, 47282.00
1166.465, 47337.00
1167.553, 46971.00
1168.642, 47159.00
1169.730, 47200.00
1170.818, 47025.00
1171.906, 47270.00
1172.994, 47087.00
1174.082, 47327.00
1175.170, 47375.00
1176.257, 47088.00
1177.344, 47235.00
1178.431, 47284.00
1179.518, 47304.00
1180.605, 47197.00
1181.691, 47129.00
1182.778, 47488.00
1183.864, 47602.00
1184.950, 47398.00
1186.036, 47513.44
1187.122, 47444.91
1188.207, 47245.00
1189.292, 47441.00
1190.378, 47114.00
1191.463, 47247.00
1192.548, 47260.00
1193.632, 47129.00
1194.717, 47154.00
1195.801, 47148.00
1196.886, 47008.00
1197.970, 47071.00
1199.054, 47206.00
1200.137, 47318.00
1201.221, 46974.00
1202.305, 47248.00
1203.388, 46899.00
1204.471, 47333.00
1205.554, 47378.00
1206.637, 47408.00
1207.719, 47212.00
1208.802, 47340.17
1209.884, 47106.00
1210.966, 47306.00
1212.048, 47440.00
1213.130, 47134.00
1214.212, 47320.00
1215.293, 47272.00
1216.374, 47156.00
1217.456, 47264.00
1218.536, 47340.00
1219.617, 47364.00
1220.698, 47263.00
1221.778, 47185.00
1222.859, 47384.00
1223.939, 47424.00
1225.019, 47124.00
1226.099, 47110.00
1227.178, 47267.00
1228.258, 47192.00
1229.337, 47011.00
1230.417, 47313.00
1231.496, 47175.00
1232.574, 47416.00
1233.653, 47308.00
1234.732, 47198.00
1235.810, 47122.00
1236.888, 47351.00
1237.966, 47352.00
1239.044, 47378.00
1240.122, 47411.00
1241.199, 47335.00
1242.277, 47381.55
1243.354, 47321.25
1244.431, 47366.00
1245.508, 47247.00
1246.585, 47151.00
1247.661, 47162.00
1248.738, 47141.00
1249.814, 47234.00
1250.890, 47165.00
1251.966, 46903.00
1253.042, 47266.00
1254.117, 47255.00
1255.193, 47083.00
1256.268, 47409.00
1257.343, 47050.00
1258.418, 47216.00
1259.493, 47085.00
1260.567, 47336.00
1261.642, 47419.00
1262.716, 47345.00
1263.790, 47167.00
1264.864, 47190.00
1265.938, 47299.00
1267.011, 47330.00
1268.085, 47190.00
1269.158, 47317.00
1270.231, 47395.00
1271.304, 47516.00
1272.377, 47421.00
1273.450, 47414.00
1274.522, 47381.00
1275.594, 47239.00
1276.666, 47608.00
1277.738, 47333.00
1278.810, 47263.00
1279.882, 47566.00
1280.953, 47294.00
1282.025, 47140.00
1283.096, 47313.00
1284.167, 47302.00
1285.238, 47215.00
1286.308, 47653.00
1287.379, 47255.00
1288.449, 47513.00
1289.519, 47494.00
1290.589, 47510.00
1291.659, 47322.00
1292.729, 47369.00
1293.798, 47564.00
1294.868, 47294.00
1295.937, 47207.00
1297.006, 47379.00
1298.075, 47505.00
1299.143, 47504.00
1300.212, 47468.00
1301.280, 47458.00
1302.348, 47537.00
1303.416, 47557.00
1304.484, 47524.00
1305.552, 47467.00
1306.620, 47371.00
1307.687, 47502.00
1308.754, 47444.00
1309.821, 47599.00
1310.888, 47300.00
1311.955, 47473.00
1313.021, 47672.00
1314.088, 47418.00
1315.154, 47558.00
1316.220, 47491.00
1317.286, 47436.00
1318.352, 47452.00
1319.417, 47696.00
1320.483, 47150.00
1321.548, 47488.00
1322.613, 47303.00
1323.678, 47571.00
1324.743, 47709.00
1325.807, 47464.00
1326.872, 47553.00
1327.936, 47679.00
1329.000, 47347.00
1330.064, 47529.00
1331.128, 47531.00
1332.191, 47443.00
1333.255, 47528.00
1334.318, 47561.00
1335.381, 47523.00
1336.444, 47472.00
1337.507, 47512.00
1338.569, 47565.00
1339.632, 47483.00
1340.694, 47691.00
1341.756, 47585.00
1342.818, 47844.00
1343.880, 47495.00
1344.941, 47526.00
1346.003, 47612.00
1347.064, 47515.00
1348.125, 47489.00
1349.186, 47690.00
1350.247, 47567.00
1351.308, 47686.00
1352.368, 47521.00
1353.428, 47461.00
1354.489, 47643.00
1355.549, 47360.00
1356.608, 47870.00
1357.668, 47660.00
1358.727, 47583.00
1359.787, 47724.00
1360.846, 47384.00
1361.905, 47694.00
1362.964, 47452.00
1364.022, 47449.00
1365.081, 47387.00
1366.139, 47661.00
1367.197, 47582.00
1368.255, 47605.00
1369.313, 47497.00
1370.371, 47667.00
1371.428, 47815.00
1372.486, 47620.00
1373.543, 47817.00
1374.600, 47782.00
1375.657, 47640.00
1376.713, 47754.00
1377.770, 47681.00
1378.826, 47660.00
1379.882, 47649.00
1380.938, 47571.00
1381.994, 47705.00
1383.050, 47545.00
1384.106, 47705.00
1385.161, 47729.00
1386.216, 47979.00
1387.271, 47834.00
1388.326, 47812.00
1389.381, 47491.00
1390.435, 47719.00
1391.490, 47530.00
1392.544, 47566.15
1393.598, 47601.00
1394.652, 47732.00
1395.705, 47663.00
1396.759, 47706.72
1397.812, 47614.00
1398.866, 47650.00
1399.919, 47671.60
1400.972, 47564.00
1402.024, 47662.00
1403.077, 47537.00
1404.129, 47491.00
1405.181, 47646.00
1406.233, 47624.00
1407.285, 47794.00
1408.337, 47806.00
1409.389, 47738.00
1410.440, 47926.00
1411.491, 47869.00
1412.542, 47820.00
1413.593, 47554.00
1414.644, 47859.00
1415.695, 47802.00
1416.745, 47905.00
1417.795, 47977.10
1418.845, 47871.00
1419.895, 47910.00
1420.945, 47924.00
1421.995, 47630.00
1423.044, 47807.00
1424.093, 47744.00
1425.142, 47811.00
1426.191, 47641.00
1427.240, 47620.00
1428.289, 47750.00
1429.337, 48012.00
1430.385, 48082.00
1431.433, 47755.00
1432.481, 47946.00
1433.529, 47916.00
1434.577, 47573.00
1435.624, 47877.00
1436.672, 47852.00
1437.719, 47961.00
1438.766, 47995.00
1439.812, 47912.00
1440.859, 48035.00
1441.905, 47945.00
1442.952, 48115.00
1443.998, 48175.00
1445.044, 48101.00
1446.090, 47935.00
1447.135, 48108.00
1448.181, 47828.00
1449.226, 47951.00
1450.271, 47991.00
1451.316, 47805.00
1452.361, 47886.00
1453.405, 48042.00
1454.450, 47927.00
1455.494, 47906.00
1456.538, 47838.00
1457.582, 48029.00
1458.626, 48125.00
1459.670, 47872.00
1460.713, 48193.00
1461.757, 48113.00
1462.800, 47898.00
1463.843, 47941.00
1464.886, 48137.00
1465.928, 47932.00
1466.971, 47881.00
1468.013, 48201.00
1469.055, 47991.00
1470.097, 48255.00
1471.139, 48011.00
1472.181, 48177.00
1473.222, 47834.00
1474.263, 47871.00
1475.305, 48077.00
1476.346, 47983.00
1477.386, 47997.00
1478.427, 48146.00
1479.468, 47908.00
1480.508, 48098.00
1481.548, 48235.00
1482.588, 47909.00
1483.628, 47997.00
1484.668, 47799.00
1485.707, 48059.00
1486.747, 48088.00
1487.786, 47994.00
1488.825, 47920.00
1489.864, 48000.36
1490.902, 48111.00
1491.941, 48127.00
1492.979, 48236.00
1494.017, 48279.00
1495.055, 48264.48
1496.093, 47760.00
1497.131, 48165.00
1498.168, 48057.00
1499.206, 47888.00
1500.243, 48172.00
1501.280, 48055.00
1502.317, 48047.00
1503.354, 48218.00
1504.390, 48369.00
1505.426, 48270.00
1506.463, 48350.00
1507.499, 48381.00
1508.535, 48019.00
1509.570, 47830.00
1510.606, 48242.00
1511.641, 48211.00
1512.676, 48333.00
1513.711, 47982.00
1514.746, 48279.00
1515.781, 48201.00
1516.816, 48213.00
1517.850, 48161.00
1518.884, 48443.00
1519.918, 48084.00
1520.952, 48436.00
1521.986, 48227.00
1523.019, 48204.00
1524.053, 48389.00
1525.086, 48375.00
1526.119, 48530.00
1527.152, 48571.00
1528.185, 48522.00
1529.217, 48448.23
1530.250, 48412.00
1531.282, 48419.69
1532.314, 48278.00
1533.346, 48446.00
1534.377, 48408.00
1535.409, 48371.00
1536.440, 48544.00
1537.472, 48361.00
1538.503, 48551.00
1539.534, 48378.00
1540.564, 48578.00
1541.595, 48834.00
1542.625, 48303.00
1543.656, 48525.00
1544.686, 48535.00
##END=



