##NAMES=Astrophyllite
##RRUFFID=R060103
##IDEAL CHEMISTRY=K_2_NaFe^2+^_7_Ti^4+^_2_(Si_4_O_12_)_2_O_2_(OH)_4_F
##LOCALITY=Brivik, Norway
##OWNER=RRUFF
##SOURCE=University of Arizona Mineral Museum
##DESCRIPTION=Brown fragment embedded in matrix
##STATUS=The identification of this mineral is confirmed by single-crystal X-ray diffraction and chemical analysis.
##URL=rruff.info/R060103
##MEASURED CHEMISTRY=K_2.00_Na_1.00_(Fe^2+^_0.55_Mn_0.32_Fe^3+^_0.04_Mg_0.04_Ca_0.04_)_7_(Ti_0.66_Zr_0.18_Al_0.16_)_2_Si_8.00_O_26_(OH)_4_F_1.00_
##PIN_ID=M01031
##ORIENTATION=Laser parallel to c* (0 0 1). Fiducial mark perpendicular to laser is parallel to a [1 0 0]
146.4650, 12203.00
147.6990, 12245.00
148.9320, 12190.00
150.1650, 12059.00
151.3980, 12180.00
152.6310, 12125.00
153.8640, 12257.00
155.0960, 12175.00
156.3280, 12160.00
157.5600, 12221.00
158.7920, 12330.00
160.0240, 12253.00
161.2560, 12334.00
162.4870, 12503.00
163.7180, 12496.00
164.9490, 12666.00
166.1800, 12649.00
167.4110, 12611.00
168.6410, 12649.00
169.8720, 12560.00
171.1020, 12698.00
172.3320, 12725.00
173.5620, 12637.00
174.7910, 12642.00
176.0210, 12603.90
177.2500, 12507.00
178.4790, 12477.00
179.7080, 12291.00
180.9370, 12096.00
182.1650, 11962.00
183.3940, 11899.00
184.6220, 11965.00
185.8500, 11806.00
187.0780, 11855.00
188.3050, 11786.00
189.5330, 11763.00
190.7600, 11769.00
191.9870, 11703.00
193.2140, 11664.00
194.4410, 11637.00
195.6680, 11567.00
196.8940, 11738.00
198.1200, 11565.00
199.3470, 11776.00
200.5720, 11677.00
201.7980, 11961.00
203.0240, 11921.00
204.2490, 11850.00
205.4740, 11936.00
206.6990, 12008.00
207.9240, 11963.00
209.1490, 12011.00
210.3740, 12077.34
211.5980, 12064.00
212.8220, 12232.00
214.0460, 12371.00
215.2700, 12460.00
216.4930, 12566.00
217.7170, 12702.00
218.9400, 12797.00
220.1630, 12968.00
221.3860, 12997.00
222.6090, 13113.00
223.8320, 13144.00
225.0540, 13295.00
226.2760, 13540.00
227.4980, 13680.00
228.7200, 13755.00
229.9420, 14176.00
231.1630, 14187.00
232.3850, 14246.00
233.6060, 14458.00
234.8270, 14505.00
236.0480, 14613.00
237.2690, 14775.00
238.4890, 14890.00
239.7090, 15074.00
240.9290, 15221.00
242.1490, 15293.00
243.3690, 15312.00
244.5890, 15355.00
245.8080, 15508.00
247.0270, 15557.00
248.2470, 15618.00
249.4650, 15629.00
250.6840, 15759.00
251.9030, 15875.97
253.1210, 16093.00
254.3390, 16199.00
255.5570, 16243.00
256.7750, 16411.00
257.9930, 16359.00
259.2100, 16314.00
260.4280, 16197.67
261.6450, 16025.00
262.8620, 15730.00
264.0790, 15431.00
265.2950, 15023.00
266.5120, 14843.00
267.7280, 14398.00
268.9440, 14287.00
270.1600, 13764.00
271.3760, 13543.00
272.5920, 13312.00
273.8070, 13073.00
275.0220, 12934.00
276.2370, 12831.00
277.4520, 12630.00
278.6670, 12441.00
279.8820, 12353.00
281.0960, 12031.00
282.3100, 12099.00
283.5240, 12034.00
284.7380, 11911.00
285.9520, 11989.00
287.1650, 11739.00
288.3780, 11711.00
289.5920, 11890.00
290.8050, 11786.00
292.0170, 11777.00
293.2300, 11803.00
294.4430, 11768.00
295.6550, 11754.00
296.8670, 11728.00
298.0790, 11751.48
299.2910, 11816.00
300.5020, 11830.00
301.7140, 11736.00
302.9250, 11801.00
304.1360, 11736.00
305.3470, 11801.00
306.5580, 11807.00
307.7680, 11871.00
308.9780, 11739.00
310.1890, 11698.00
311.3990, 11819.00
312.6090, 11845.00
313.8180, 11917.00
315.0280, 11896.00
316.2370, 11835.00
317.4460, 11714.00
318.6550, 11872.00
319.8640, 11849.00
321.0730, 11851.00
322.2810, 11931.00
323.4890, 11868.32
324.6980, 11866.00
325.9060, 11830.00
327.1130, 11880.00
328.3210, 11930.00
329.5280, 11885.00
330.7360, 11954.00
331.9430, 12012.00
333.1500, 12003.00
334.3560, 11975.00
335.5630, 12119.00
336.7690, 12144.00
337.9760, 12091.00
339.1820, 12138.00
340.3870, 12329.00
341.5930, 12406.00
342.7990, 12530.00
344.0040, 12491.00
345.2090, 12699.00
346.4140, 12755.00
347.6190, 12915.00
348.8240, 13029.00
350.0280, 12965.00
351.2330, 13202.00
352.4370, 13211.00
353.6410, 13277.00
354.8440, 13356.00
356.0480, 13357.00
357.2520, 13453.00
358.4550, 13403.00
359.6580, 13301.00
360.8610, 13453.00
362.0640, 13264.00
363.2660, 13410.00
364.4690, 13428.00
365.6710, 13289.00
366.8730, 13355.00
368.0750, 13125.00
369.2770, 13081.00
370.4780, 13052.00
371.6800, 12972.00
372.8810, 12923.00
374.0820, 12800.00
375.2830, 12740.00
376.4830, 12629.00
377.6840, 12643.00
378.8840, 12542.00
380.0840, 12649.00
381.2840, 12697.00
382.4840, 12714.00
383.6840, 12649.00
384.8830, 12666.00
386.0830, 12634.00
387.2820, 12807.00
388.4810, 12795.00
389.6800, 12836.00
390.8780, 12805.00
392.0770, 12789.76
393.2750, 12794.00
394.4730, 12730.00
395.6710, 12707.00
396.8690, 12684.00
398.0660, 12653.00
399.2640, 12676.00
400.4610, 12708.00
401.6580, 12780.00
402.8550, 12909.00
404.0520, 12832.00
405.2490, 12609.00
406.4450, 12814.00
407.6410, 12747.00
408.8370, 12841.00
410.0330, 12928.00
411.2290, 12773.00
412.4240, 13070.00
413.6200, 13040.00
414.8150, 13145.00
416.0100, 12964.00
417.2050, 13268.00
418.4000, 13167.14
419.5940, 13338.09
420.7880, 13427.95
421.9830, 13437.50
423.1770, 13324.05
424.3700, 13218.25
425.5640, 13016.86
426.7580, 13141.00
427.9510, 13057.00
429.1440, 13071.00
430.3370, 12996.00
431.5300, 12823.00
432.7220, 12786.00
433.9150, 12684.00
435.1070, 12415.00
436.2990, 12273.00
437.4910, 12339.00
438.6830, 12384.00
439.8750, 12248.00
441.0660, 12147.00
442.2570, 12149.00
443.4480, 12013.00
444.6390, 11938.00
445.8300, 12125.00
447.0210, 11904.00
448.2110, 12022.00
449.4010, 11844.00
450.5910, 11921.00
451.7810, 11968.00
452.9710, 12014.00
454.1610, 12052.00
455.3500, 12108.00
456.5390, 12138.50
457.7280, 12205.00
458.9170, 12184.00
460.1060, 12235.00
461.2940, 12213.00
462.4830, 12310.00
463.6710, 12429.00
464.8590, 12466.00
466.0470, 12576.00
467.2350, 12627.49
468.4220, 12573.00
469.6090, 12720.00
470.7970, 12722.00
471.9840, 12735.00
473.1700, 12661.00
474.3570, 12536.00
475.5440, 12645.00
476.7300, 12585.00
477.9160, 12765.00
479.1020, 12579.00
480.2880, 12632.00
481.4740, 12693.00
482.6590, 12637.00
483.8440, 12758.00
485.0300, 12808.00
486.2140, 12868.00
487.3990, 12852.00
488.5840, 12870.00
489.7680, 12944.00
490.9530, 12915.00
492.1370, 13021.00
493.3210, 12945.00
494.5040, 13157.00
495.6880, 13204.00
496.8720, 13164.00
498.0550, 13039.00
499.2380, 13247.00
500.4210, 13123.00
501.6040, 13135.00
502.7860, 13138.00
503.9690, 13266.00
505.1510, 13150.00
506.3330, 13337.00
507.5150, 13101.00
508.6970, 13056.00
509.8780, 12974.00
511.0600, 12775.00
512.2410, 12847.00
513.4220, 12714.00
514.6030, 12741.00
515.7840, 12866.00
516.9640, 12581.00
518.1440, 12563.00
519.3250, 12575.00
520.5050, 12556.00
521.6850, 12470.00
522.8640, 12363.00
524.0440, 12461.00
525.2230, 12484.00
526.4020, 12570.00
527.5820, 12438.00
528.7600, 12561.00
529.9390, 12430.00
531.1180, 12512.00
532.2960, 12456.00
533.4740, 12561.00
534.6520, 12600.00
535.8300, 12592.00
537.0080, 12597.00
538.1850, 12559.00
539.3630, 12655.00
540.5400, 12719.00
541.7170, 12826.00
542.8940, 12990.00
544.0700, 12891.00
545.2470, 12924.00
546.4230, 13037.00
547.5990, 13195.00
548.7750, 13485.00
549.9510, 13556.00
551.1270, 13735.00
552.3020, 14030.00
553.4780, 14146.00
554.6530, 14388.00
555.8280, 14471.00
557.0030, 14766.00
558.1770, 14884.00
559.3520, 15096.00
560.5260, 15091.00
561.7000, 15152.32
562.8740, 15127.35
564.0480, 15071.00
565.2220, 14958.00
566.3950, 14763.00
567.5680, 14628.00
568.7420, 14639.00
569.9150, 14451.00
571.0870, 14358.00
572.2600, 14199.00
573.4320, 14137.00
574.6050, 13942.00
575.7770, 14018.00
576.9490, 13875.00
578.1210, 13931.00
579.2920, 13974.00
580.4640, 13793.00
581.6350, 13671.00
582.8060, 13885.00
583.9770, 14008.00
585.1480, 14060.00
586.3190, 14149.00
587.4890, 14239.00
588.6590, 14188.00
589.8290, 14501.00
590.9990, 14338.00
592.1690, 14511.00
593.3390, 14528.00
594.5080, 14582.00
595.6770, 14635.00
596.8470, 14732.00
598.0160, 14872.00
599.1840, 14967.00
600.3530, 14951.00
601.5210, 14957.00
602.6900, 14999.00
603.8580, 14959.00
605.0260, 15076.00
606.1930, 14986.00
607.3610, 15038.00
608.5280, 14737.00
609.6960, 14898.00
610.8630, 14816.00
612.0300, 15045.00
613.1970, 14939.00
614.3630, 15167.00
615.5300, 15088.00
616.6960, 15157.00
617.8620, 15539.00
619.0280, 15497.00
620.1940, 15761.00
621.3590, 16052.00
622.5250, 16236.00
623.6900, 16204.00
624.8550, 16440.00
626.0200, 16164.00
627.1850, 16428.00
628.3490, 16344.00
629.5140, 16280.00
630.6780, 16032.00
631.8420, 15739.00
633.0060, 15774.00
634.1700, 15842.00
635.3330, 15928.00
636.4970, 16047.00
637.6600, 16139.00
638.8230, 16392.00
639.9860, 16549.00
641.1490, 16985.00
642.3110, 16989.00
643.4740, 17534.00
644.6360, 17893.00
645.7980, 18261.00
646.9600, 18746.00
648.1220, 18982.00
649.2840, 19530.00
650.4450, 19996.00
651.6060, 20111.00
652.7670, 20438.00
653.9280, 20737.00
655.0890, 20769.00
656.2500, 20717.00
657.4100, 20320.00
658.5700, 19776.00
659.7300, 19306.00
660.8900, 18863.00
662.0500, 18497.00
663.2100, 18111.00
664.3690, 17783.17
665.5280, 17302.00
666.6880, 17209.00
667.8460, 17041.00
669.0050, 16841.00
670.1640, 16950.00
671.3220, 16642.00
672.4810, 16850.00
673.6390, 16824.00
674.7970, 16965.00
675.9540, 16952.00
677.1120, 17059.00
678.2690, 17236.00
679.4270, 17179.00
680.5840, 17345.00
681.7410, 17551.00
682.8980, 17784.00
684.0540, 17719.00
685.2110, 17943.00
686.3670, 18193.00
687.5230, 18155.00
688.6790, 18408.00
689.8350, 18722.00
690.9900, 18645.00
692.1460, 18769.00
693.3010, 19002.00
694.4560, 18842.00
695.6110, 19115.00
696.7660, 19410.00
697.9210, 19462.00
699.0750, 19620.95
700.2290, 19505.00
701.3840, 19769.00
702.5370, 19665.00
703.6910, 19789.00
704.8450, 19823.00
705.9980, 19885.00
707.1520, 19946.29
708.3050, 20097.00
709.4580, 20044.00
710.6110, 20114.00
711.7630, 20181.00
712.9160, 20050.00
714.0680, 20088.00
715.2200, 20384.00
716.3720, 20231.00
717.5240, 20065.00
718.6760, 19955.00
719.8270, 19748.00
720.9780, 19713.80
722.1300, 19620.00
723.2810, 19608.00
724.4310, 19535.00
725.5820, 19432.00
726.7330, 19416.00
727.8830, 19167.00
729.0330, 19085.00
730.1830, 18933.00
731.3330, 18824.00
732.4830, 18547.00
733.6320, 18384.00
734.7810, 18232.00
735.9310, 17926.00
737.0800, 17951.00
738.2290, 17865.00
739.3770, 17627.00
740.5260, 17458.00
741.6740, 17378.00
742.8220, 17327.00
743.9700, 17257.00
745.1180, 17139.00
746.2660, 17155.00
747.4130, 17191.00
748.5610, 17069.00
749.7080, 17120.00
750.8550, 17065.00
752.0020, 16888.00
753.1490, 16926.00
754.2950, 17025.00
755.4420, 16906.00
756.5880, 16891.00
757.7340, 16948.00
758.8800, 16926.00
760.0250, 16907.00
761.1710, 16930.00
762.3160, 16911.00
763.4620, 16812.00
764.6070, 16829.00
765.7520, 16855.00
766.8960, 16651.00
768.0410, 16574.00
769.1850, 16661.00
770.3300, 16591.00
771.4740, 16400.00
772.6180, 16397.00
773.7610, 16724.00
774.9050, 16405.00
776.0480, 16634.00
777.1920, 16379.00
778.3350, 16428.00
779.4780, 16496.00
780.6200, 16415.00
781.7630, 16442.00
782.9060, 16370.00
784.0480, 16433.00
785.1900, 16416.44
786.3320, 16409.00
787.4740, 16429.00
788.6150, 16491.00
789.7570, 16497.00
790.8980, 16456.00
792.0390, 16695.00
793.1800, 16530.34
794.3210, 16578.00
795.4620, 16428.00
796.6020, 16357.00
797.7420, 16484.00
798.8830, 16441.00
800.0230, 16392.00
801.1620, 16294.00
802.3020, 16427.00
803.4420, 16488.00
804.5810, 16582.00
805.7200, 16707.61
806.8590, 16711.00
807.9980, 16916.00
809.1370, 17015.00
810.2750, 17041.00
811.4140, 17284.00
812.5520, 16915.00
813.6900, 17238.00
814.8280, 17165.00
815.9650, 16888.00
817.1030, 16739.00
818.2400, 16607.00
819.3780, 16553.00
820.5150, 16420.00
821.6520, 16337.00
822.7880, 16520.00
823.9250, 16465.00
825.0610, 16369.00
826.1980, 16526.00
827.3340, 16297.00
828.4700, 16658.00
829.6050, 16659.00
830.7410, 16624.00
831.8760, 16675.00
833.0120, 16640.34
834.1470, 16737.00
835.2820, 16643.00
836.4160, 16648.00
837.5510, 16720.00
838.6860, 16713.00
839.8200, 16972.00
840.9540, 17089.00
842.0880, 17250.00
843.2220, 17296.00
844.3550, 17189.00
845.4890, 17422.00
846.6220, 17687.00
847.7550, 17767.00
848.8880, 18064.00
850.0210, 18255.00
851.1540, 18599.00
852.2860, 18698.00
853.4190, 19225.00
854.5510, 19443.00
855.6830, 19879.00
856.8150, 19975.00
857.9460, 20245.00
859.0780, 20269.00
860.2090, 20334.00
861.3410, 20510.00
862.4720, 20002.00
863.6020, 19854.00
864.7330, 19740.00
865.8640, 19389.00
866.9940, 19264.00
868.1240, 18971.00
869.2540, 18859.00
870.3840, 18919.00
871.5140, 18918.00
872.6440, 18863.00
873.7730, 19018.00
874.9020, 19017.00
876.0320, 19251.00
877.1600, 19192.00
878.2890, 19649.00
879.4180, 19590.00
880.5460, 19619.00
881.6750, 20031.00
882.8030, 19981.00
883.9310, 20258.00
885.0590, 20652.00
886.1860, 20771.00
887.3140, 20892.00
888.4410, 21133.00
889.5680, 21320.00
890.6950, 21587.00
891.8220, 21817.00
892.9490, 22097.00
894.0750, 22208.00
895.2020, 22591.00
896.3280, 22943.00
897.4540, 22893.00
898.5800, 23311.00
899.7050, 23529.00
900.8310, 23812.00
901.9560, 23808.00
903.0820, 24275.00
904.2070, 24303.00
905.3320, 24743.00
906.4560, 24922.00
907.5810, 25192.00
908.7050, 25431.00
909.8300, 25834.00
910.9540, 25927.00
912.0780, 26294.00
913.2010, 26404.00
914.3250, 26504.00
915.4480, 26611.00
916.5720, 26636.34
917.6950, 26572.00
918.8180, 26591.00
919.9410, 26602.00
921.0630, 26417.00
922.1860, 26637.00
923.3080, 26309.00
924.4300, 26120.00
925.5520, 26236.00
926.6740, 26073.00
927.7960, 25888.00
928.9170, 25751.00
930.0390, 25439.00
931.1600, 25408.00
932.2810, 24887.00
933.4020, 24755.00
934.5230, 24655.00
935.6430, 24261.00
936.7640, 24094.00
937.8840, 23856.00
939.0040, 23496.00
940.1240, 23214.00
941.2440, 22773.00
942.3630, 22829.00
943.4830, 22302.00
944.6020, 22151.00
945.7210, 21808.00
946.8400, 21712.00
947.9590, 21518.00
949.0770, 21300.00
950.1960, 21228.00
951.3140, 20997.00
952.4320, 20898.00
953.5500, 20916.00
954.6680, 20825.00
955.7860, 20593.00
956.9030, 20007.00
958.0210, 19781.00
959.1380, 19860.00
960.2550, 19795.00
961.3720, 19612.00
962.4890, 19516.00
963.6050, 19474.00
964.7220, 19180.00
965.8380, 19160.00
966.9540, 18871.00
968.0700, 18905.00
969.1860, 18617.00
970.3010, 18542.00
971.4170, 18502.00
972.5320, 18426.00
973.6470, 18145.00
974.7620, 18169.00
975.8770, 18193.00
976.9910, 17960.00
978.1060, 18131.00
979.2200, 18111.00
980.3340, 17962.00
981.4480, 18086.00
982.5620, 18074.00
983.6760, 18147.00
984.7890, 18243.00
985.9030, 18218.00
987.0160, 18127.00
988.1290, 18195.00
989.2420, 18131.00
990.3550, 18367.00
991.4670, 18417.00
992.5800, 18327.00
993.6920, 18307.00
994.8040, 18646.00
995.9160, 18866.00
997.0280, 19037.00
998.1390, 19268.00
999.2510, 19625.00
1000.362, 19911.00
1001.473, 20216.00
1002.584, 20174.00
1003.695, 19961.00
1004.805, 19774.00
1005.916, 19397.00
1007.026, 19165.00
1008.136, 19108.00
1009.246, 19129.00
1010.356, 18996.00
1011.466, 19280.00
1012.576, 19221.00
1013.685, 19392.00
1014.794, 19506.00
1015.903, 19692.00
1017.012, 19770.00
1018.121, 19924.27
1019.229, 20087.00
1020.338, 20157.00
1021.446, 20273.00
1022.554, 20311.00
1023.662, 20644.00
1024.770, 20720.00
1025.878, 20612.00
1026.985, 20504.00
1028.092, 20391.00
1029.200, 20387.00
1030.307, 20217.00
1031.413, 20384.00
1032.520, 20295.00
1033.627, 20163.00
1034.733, 20353.00
1035.839, 20090.00
1036.945, 20024.00
1038.051, 20012.00
1039.157, 19879.00
1040.262, 19782.00
1041.368, 19689.00
1042.473, 19830.00
1043.578, 19396.00
1044.683, 19608.00
1045.788, 19354.00
1046.893, 19377.00
1047.997, 19289.00
1049.101, 19059.00
1050.205, 19259.00
1051.309, 19134.00
1052.413, 18992.00
1053.517, 19061.00
1054.621, 18933.00
1055.724, 18975.00
1056.827, 18810.00
1057.930, 18946.00
1059.033, 18950.00
1060.136, 18802.00
1061.238, 18868.00
1062.341, 18741.00
1063.443, 18631.00
1064.545, 18734.00
1065.647, 18740.00
1066.749, 18813.00
1067.850, 18925.00
1068.952, 18893.00
1070.053, 19052.00
1071.154, 19002.00
1072.255, 19129.00
1073.356, 19091.00
1074.457, 19144.00
1075.557, 19257.00
1076.658, 18999.00
1077.758, 19400.00
1078.858, 19599.00
1079.958, 19437.10
1081.057, 19490.11
1082.157, 19528.07
1083.256, 19551.77
1084.356, 19518.53
1085.455, 19558.81
1086.554, 19569.63
1087.653, 19579.23
1088.751, 19587.00
1089.850, 19477.00
1090.948, 19479.00
1092.046, 19539.00
1093.144, 19486.00
1094.242, 19573.00
1095.340, 19289.06
1096.437, 19418.99
1097.534, 19503.72
1098.632, 19545.72
1099.729, 19416.85
1100.826, 19508.59
1101.922, 19511.89
1103.019, 19511.60
1104.115, 19634.36
1105.212, 19530.34
1106.308, 19651.14
1107.404, 19944.00
1108.499, 19964.00
1109.595, 20002.00
1110.691, 20068.00
1111.786, 20017.00
1112.881, 20044.64
1113.976, 20140.00
1115.071, 20029.00
1116.166, 19941.00
1117.260, 19941.00
1118.355, 19571.00
1119.449, 19776.00
1120.543, 19540.00
1121.637, 19534.00
1122.731, 19611.00
1123.824, 19394.00
1124.918, 19404.00
1126.011, 19714.23
1127.104, 19488.06
1128.197, 19391.12
1129.290, 19424.23
1130.382, 19544.44
1131.475, 19211.00
1132.567, 19424.00
1133.659, 19266.00
1134.751, 19408.00
1135.843, 19198.00
1136.935, 19152.00
1138.027, 19153.00
1139.118, 19097.00
1140.209, 19150.83
1141.300, 19142.00
1142.391, 19286.00
1143.482, 19317.00
1144.573, 19436.00
1145.663, 19340.00
1146.754, 19190.00
1147.844, 19352.00
1148.934, 19351.00
1150.024, 19360.00
1151.113, 19407.00
1152.203, 19464.00
1153.292, 19488.17
1154.381, 19525.89
1155.470, 19553.00
1156.559, 19603.00
1157.648, 19614.00
1158.737, 19703.00
1159.825, 19645.00
1160.913, 19666.88
1162.001, 19731.00
1163.089, 19625.00
1164.177, 19697.00
1165.265, 19658.00
1166.352, 19699.42
1167.440, 19654.00
1168.527, 19788.00
1169.614, 19774.00
1170.701, 19763.00
1171.788, 19727.00
1172.874, 19747.68
1173.961, 19777.00
1175.047, 19738.00
1176.133, 19766.00
1177.219, 19671.00
1178.305, 19687.23
1179.390, 19693.22
1180.476, 19723.00
1181.561, 19743.00
1182.646, 19876.00
1183.731, 19936.00
1184.816, 19907.39
1185.901, 19943.04
1186.985, 19783.00
1188.070, 19774.82
1189.154, 19944.87
1190.238, 20031.30
1191.322, 20038.97
1192.406, 19711.72
1193.489, 19832.44
1194.573, 19783.09
1195.656, 19733.24
1196.739, 19936.30
1197.822, 19692.50
1198.905, 19905.14
1199.988, 19945.02
1201.070, 19608.00
1202.153, 19680.00
1203.235, 19650.00
1204.317, 19786.00
1205.399, 19686.00
1206.481, 19635.00
1207.562, 19508.00
1208.644, 19801.00
1209.725, 19638.00
1210.806, 19823.00
1211.887, 20001.00
1212.968, 19857.00
1214.049, 20170.00
1215.129, 19904.00
1216.209, 20033.00
1217.290, 20216.00
1218.370, 20070.00
1219.450, 20128.00
1220.529, 20078.00
1221.609, 20095.00
1222.688, 20137.00
1223.768, 20104.00
1224.847, 20137.00
1225.926, 20175.31
1227.005, 20228.58
1228.083, 20300.62
1229.162, 20395.00
1230.240, 20477.00
1231.318, 20575.00
1232.396, 20684.00
1233.474, 20630.00
1234.552, 20652.00
1235.629, 20754.00
1236.707, 20730.00
1237.784, 20786.00
1238.861, 20694.00
1239.938, 20979.00
1241.015, 20764.00
1242.092, 21016.00
1243.168, 20934.00
1244.244, 20933.00
1245.321, 20935.00
1246.397, 21122.00
1247.473, 20988.00
1248.548, 21102.00
1249.624, 21000.00
1250.699, 20987.00
1251.775, 21139.00
1252.850, 21214.00
1253.925, 21074.00
1254.999, 21116.00
1256.074, 21214.00
1257.148, 21058.00
1258.223, 21140.00
1259.297, 21321.00
1260.371, 21256.00
1261.445, 21324.00
1262.519, 21254.00
1263.592, 21412.00
1264.666, 21435.00
1265.739, 21589.00
1266.812, 21633.00
1267.885, 21662.00
1268.958, 21814.00
1270.030, 21852.00
1271.103, 21882.82
1272.175, 22019.00
1273.247, 21909.00
1274.319, 21925.00
1275.391, 21933.00
1276.463, 21959.00
1277.535, 21637.00
1278.606, 21759.00
1279.677, 21515.00
1280.748, 21438.00
1281.819, 21661.00
1282.890, 21384.00
1283.961, 21483.00
1285.031, 21387.00
1286.102, 21516.00
1287.172, 21425.00
1288.242, 21453.00
1289.312, 21476.00
1290.381, 21584.00
1291.451, 21752.00
1292.520, 21786.00
1293.590, 21932.00
1294.659, 21766.00
1295.728, 21833.00
1296.797, 21821.00
1297.865, 21800.00
1298.934, 21670.00
1300.002, 21607.00
1301.070, 21664.00
1302.138, 21636.47
1303.206, 21814.00
1304.274, 21760.00
1305.341, 21838.00
1306.409, 21980.00
1307.476, 21922.00
1308.543, 22004.00
1309.610, 22126.00
1310.677, 22042.00
1311.744, 22005.00
1312.810, 22038.00
1313.877, 22059.00
1314.943, 21986.00
1316.009, 22148.00
1317.075, 22077.00
1318.140, 22180.00
1319.206, 21985.00
1320.272, 22062.00
1321.337, 21981.00
1322.402, 21818.00
1323.467, 21819.00
1324.532, 21783.00
1325.596, 21711.00
1326.661, 21602.00
1327.725, 21597.00
1328.790, 21570.00
1329.854, 21434.00
1330.918, 21306.00
1331.981, 21460.00
1333.045, 21369.00
1334.108, 21310.00
1335.172, 21233.00
1336.235, 21282.00
1337.298, 21226.00
1338.361, 21265.00
1339.423, 21343.00
1340.486, 21396.00
1341.548, 21466.00
1342.611, 21441.00
1343.673, 21483.78
1344.735, 21480.80
1345.796, 21483.00
1346.858, 21496.00
1347.919, 21452.00
1348.981, 21518.00
1350.042, 21492.00
1351.103, 21390.00
1352.164, 21434.00
1353.225, 21368.10
1354.285, 21291.00
1355.346, 21315.00
1356.406, 21265.00
1357.466, 21263.00
1358.526, 21334.00
1359.586, 21467.00
1360.645, 21471.00
1361.705, 21480.00
1362.764, 21569.53
1363.823, 21527.00
1364.882, 21632.00
1365.941, 21698.00
1367.000, 21610.00
1368.059, 21687.00
1369.117, 21622.00
1370.175, 21599.00
1371.233, 21547.00
1372.291, 21855.00
1373.349, 22045.00
1374.407, 21776.00
1375.464, 21998.00
1376.522, 22008.00
1377.579, 21710.00
1378.636, 22122.00
1379.693, 21884.00
1380.750, 21870.00
1381.806, 21955.00
1382.863, 21863.00
1383.919, 21882.00
1384.975, 21951.00
1386.031, 22192.00
1387.087, 22105.00
1388.143, 22147.00
1389.199, 22041.00
1390.254, 21961.00
1391.309, 22100.00
1392.364, 22114.00
1393.419, 22087.00
1394.474, 21935.00
1395.529, 22113.00
1396.583, 22081.00
1397.638, 21873.00
1398.692, 22163.00
1399.746, 22121.00
1400.800, 22076.00
1401.853, 21940.00
1402.907, 21935.00
1403.960, 21960.00
1405.014, 22249.00
1406.067, 22138.00
1407.120, 22072.00
1408.173, 22138.00
1409.225, 21928.00
1410.278, 22157.00
1411.330, 22055.00
1412.383, 22065.00
1413.435, 22048.00
1414.487, 22203.00
1415.538, 22208.00
1416.590, 22194.00
1417.641, 22293.00
1418.693, 22064.00
1419.744, 22278.00
1420.795, 22340.00
1421.846, 22220.00
1422.897, 22311.00
1423.947, 22498.00
1424.998, 22550.00
1426.048, 22648.83
1427.098, 22593.00
1428.148, 22831.00
1429.198, 22918.00
1430.247, 23102.00
1431.297, 23303.51
1432.346, 23548.00
1433.396, 23689.00
1434.445, 23998.00
1435.494, 24162.00
1436.542, 24548.00
1437.591, 24870.00
1438.639, 25052.00
1439.688, 25471.00
1440.736, 25772.00
1441.784, 26017.00
1442.832, 26300.00
1443.880, 26402.00
1444.927, 26560.00
1445.975, 26686.00
1447.022, 26745.00
1448.069, 26892.00
1449.116, 27137.00
1450.163, 27096.00
1451.209, 27188.00
1452.256, 27261.00
1453.302, 27247.00
1454.348, 27299.00
1455.394, 27071.00
1456.440, 27275.00
1457.486, 27011.00
1458.532, 26554.00
1459.577, 26621.00
1460.623, 26156.00
1461.668, 25793.00
1462.713, 25864.00
1463.758, 25552.00
1464.802, 25074.00
1465.847, 24977.00
1466.891, 24894.00
1467.936, 24732.00
1468.980, 24524.00
1470.024, 24510.00
1471.067, 24140.07
1472.111, 24118.07
1473.155, 24081.00
1474.198, 24029.74
1475.241, 23921.53
1476.284, 23886.85
1477.327, 23822.71
1478.370, 23757.35
1479.413, 23733.03
1480.455, 23633.15
1481.497, 23608.23
1482.540, 23553.33
1483.582, 23512.18
1484.624, 23441.38
1485.665, 23379.79
1486.707, 23347.81
1487.748, 23299.46
1488.790, 23225.24
1489.831, 23185.02
1490.872, 23084.17
1491.912, 23036.57
1492.953, 23011.87
1493.994, 22899.00
1495.034, 22803.00
1496.074, 22604.00
1497.114, 22833.00
1498.154, 22660.00
1499.194, 22767.00
1500.234, 22943.00
1501.273, 22703.00
1502.313, 22745.00
1503.352, 22604.00
1504.391, 22811.00
1505.430, 22756.00
1506.468, 22534.00
1507.507, 22778.00
1508.545, 22697.00
1509.584, 22702.00
1510.622, 22862.00
1511.660, 22718.00
1512.698, 22690.00
1513.735, 22883.00
1514.773, 22865.00
1515.810, 22648.00
1516.848, 22789.00
1517.885, 22834.00
1518.922, 22880.00
1519.958, 22852.00
1520.995, 22885.91
1522.032, 22869.00
1523.068, 22919.00
1524.104, 23084.00
1525.140, 23162.00
1526.176, 22995.00
1527.212, 22946.00
1528.248, 23132.00
1529.283, 22999.00
1530.318, 23000.00
1531.353, 23241.00
1532.389, 23306.00
1533.423, 23213.00
1534.458, 23224.00
1535.493, 23275.00
1536.527, 23273.00
1537.561, 23304.28
1538.596, 23124.00
1539.630, 23261.00
1540.663, 23292.00
1541.697, 23082.00
1542.731, 23377.00
1543.764, 23279.00
1544.797, 23075.00
1545.830, 23052.00
1546.863, 23272.00
1547.896, 23106.00
1548.929, 23151.00
1549.961, 23046.00
1550.994, 23152.00
1552.026, 23438.00
1553.058, 23413.00
1554.090, 23393.00
1555.121, 23171.00
1556.153, 23214.00
1557.185, 23232.00
1558.216, 23298.00
1559.247, 23343.00
1560.278, 23513.00
1561.309, 23198.00
1562.340, 23336.00
##END=



