##NAMES=Astrophyllite
##RRUFFID=R060202
##IDEAL CHEMISTRY=K_2_NaFe^2+^_7_Ti^4+^_2_(Si_4_O_12_)_2_O_2_(OH)_4_F
##LOCALITY=Demix Quarry, Mont Saint-Hilaire, Rouville County, Quebec, Canada
##OWNER=RRUFF
##SOURCE=Royal Ontario Museum
##DESCRIPTION=Aggregate of brown splintered wafers
##STATUS=The identification of this mineral has been confirmed by X-ray diffraction and chemical analysis
##URL=rruff.info/R060202
##MEASURED CHEMISTRY=(K_0.56_Na_0.38_Ca_0.06_)_3_(Fe^2+^_0.52_Mn_0.44_Mg_0.04_)_7_(Ti_0.75_Zr_0.15_Al_0.15_)_2_Si_8_O_24_(O_0.27_OH_0.73_)_7_
##PIN_ID=M00495
##ORIENTATION=Laser parallel to c* (0 0 1). Fiducial mark perpendicular to laser is parallel to a [1 0 0]
140.2710, 33048.00
141.5000, 32918.00
142.7280, 32325.00
143.9560, 32271.00
145.1840, 32369.00
146.4120, 32396.00
147.6390, 32757.00
148.8670, 32777.00
150.0940, 32770.00
151.3210, 33270.00
152.5490, 33843.00
153.7750, 34051.00
155.0020, 34263.00
156.2290, 34570.00
157.4550, 34784.00
158.6810, 35083.00
159.9080, 35329.93
161.1340, 35603.26
162.3590, 35873.00
163.5850, 36148.00
164.8110, 36507.00
166.0360, 36757.00
167.2610, 36545.00
168.4860, 36660.00
169.7110, 36322.00
170.9360, 36699.00
172.1610, 36508.00
173.3850, 35910.00
174.6100, 36004.00
175.8340, 35580.00
177.0580, 35429.00
178.2820, 35187.00
179.5050, 34861.00
180.7290, 34799.00
181.9520, 34614.00
183.1760, 34679.00
184.3990, 34531.00
185.6220, 34781.00
186.8450, 34819.00
188.0670, 34956.00
189.2900, 35290.00
190.5120, 35323.00
191.7340, 35401.00
192.9560, 35725.00
194.1780, 35807.00
195.4000, 36418.00
196.6220, 36487.00
197.8430, 36565.00
199.0640, 36558.00
200.2860, 37080.00
201.5070, 37134.00
202.7270, 37607.00
203.9480, 37305.00
205.1690, 36721.00
206.3890, 36095.00
207.6090, 36044.00
208.8290, 35867.00
210.0490, 35934.00
211.2690, 36351.00
212.4890, 36406.00
213.7080, 36646.00
214.9280, 37090.00
216.1470, 36969.00
217.3660, 37122.00
218.5850, 37331.00
219.8030, 37478.00
221.0220, 37610.00
222.2400, 37928.82
223.4590, 38098.51
224.6770, 38554.00
225.8950, 38655.00
227.1120, 38942.00
228.3300, 39394.00
229.5480, 39611.00
230.7650, 39900.00
231.9820, 39846.00
233.1990, 39857.00
234.4160, 40037.00
235.6330, 40052.00
236.8490, 40035.00
238.0660, 39915.00
239.2820, 39843.00
240.4980, 39553.00
241.7140, 39171.00
242.9300, 38734.00
244.1460, 38500.00
245.3610, 38501.00
246.5770, 38053.00
247.7920, 37445.00
249.0070, 37321.00
250.2220, 36728.00
251.4370, 36326.00
252.6510, 36054.00
253.8660, 35631.00
255.0800, 35669.00
256.2940, 35177.00
257.5080, 34930.00
258.7220, 35582.00
259.9360, 35029.14
261.1490, 36201.00
262.3630, 34694.00
263.5760, 33999.00
264.7890, 33829.00
266.0020, 34093.00
267.2150, 33770.00
268.4270, 33497.00
269.6400, 33330.00
270.8520, 33288.00
272.0640, 33167.00
273.2760, 33137.00
274.4880, 32909.00
275.7000, 32969.00
276.9120, 33312.00
278.1230, 33045.00
279.3340, 32986.00
280.5450, 33000.00
281.7560, 32707.00
282.9670, 32687.00
284.1780, 32407.00
285.3880, 32399.57
286.5980, 32648.00
287.8090, 32393.00
289.0190, 32478.00
290.2290, 32516.00
291.4380, 32324.00
292.6480, 32579.00
293.8570, 32469.00
295.0670, 32403.00
296.2760, 32418.00
297.4850, 32554.00
298.6930, 32643.00
299.9020, 32685.00
301.1110, 32750.00
302.3190, 32687.00
303.5270, 32602.00
304.7350, 32831.00
305.9430, 32768.93
307.1510, 32864.00
308.3580, 32940.00
309.5660, 32777.00
310.7730, 32998.00
311.9800, 32825.00
313.1870, 33067.00
314.3940, 32998.00
315.6010, 33223.00
316.8070, 33273.00
318.0130, 33196.00
319.2200, 33212.00
320.4260, 33310.00
321.6310, 33461.00
322.8370, 33548.00
324.0430, 33525.00
325.2480, 33754.00
326.4540, 33724.00
327.6590, 33830.00
328.8640, 34038.00
330.0680, 33877.00
331.2730, 34333.00
332.4780, 34459.00
333.6820, 34260.00
334.8860, 34471.00
336.0900, 34515.00
337.2940, 34496.00
338.4980, 34836.00
339.7010, 35053.00
340.9050, 35275.00
342.1080, 35159.00
343.3110, 35351.00
344.5140, 35420.00
345.7170, 35498.00
346.9200, 35689.00
348.1220, 35432.00
349.3240, 35593.00
350.5270, 35856.00
351.7290, 35734.00
352.9310, 35589.00
354.1320, 35897.00
355.3340, 35974.00
356.5350, 35814.00
357.7370, 35844.00
358.9380, 35826.00
360.1390, 35737.00
361.3400, 35705.00
362.5400, 35608.00
363.7410, 35666.00
364.9410, 35546.00
366.1410, 35396.00
367.3410, 35244.00
368.5410, 35253.00
369.7410, 35199.12
370.9400, 35358.00
372.1400, 35228.00
373.3390, 35311.00
374.5380, 35318.00
375.7370, 35352.00
376.9360, 34920.00
378.1350, 35097.00
379.3330, 35261.00
380.5310, 34940.00
381.7300, 35368.00
382.9280, 35491.00
384.1260, 34932.00
385.3230, 34947.00
386.5210, 34850.00
387.7180, 34839.00
388.9160, 34651.00
390.1130, 34741.00
391.3100, 34472.00
392.5060, 34434.00
393.7030, 34215.00
394.9000, 34402.00
396.0960, 34528.00
397.2920, 34164.00
398.4880, 34114.00
399.6840, 34025.00
400.8800, 34114.00
402.0750, 34190.00
403.2710, 33838.00
404.4660, 33964.00
405.6610, 33974.00
406.8560, 33673.00
408.0510, 34164.00
409.2450, 33805.00
410.4400, 33698.00
411.6340, 33730.00
412.8280, 33482.00
414.0220, 33554.00
415.2160, 33731.00
416.4100, 33588.00
417.6030, 33503.00
418.7970, 33756.00
419.9900, 33689.00
421.1830, 33537.00
422.3760, 33541.00
423.5690, 33333.00
424.7610, 33609.00
425.9540, 33461.00
427.1460, 33276.00
428.3380, 33351.00
429.5300, 33235.00
430.7220, 33387.00
431.9140, 33201.00
433.1050, 33078.00
434.2970, 33120.00
435.4880, 33422.00
436.6790, 33154.00
437.8700, 33407.00
439.0610, 33358.00
440.2510, 33160.00
441.4420, 33191.00
442.6320, 33211.82
443.8220, 33155.00
445.0120, 33365.00
446.2020, 33442.00
447.3910, 33488.00
448.5810, 33545.00
449.7700, 33580.80
450.9600, 33670.57
452.1490, 33590.00
453.3370, 33911.00
454.5260, 33839.00
455.7150, 34076.00
456.9030, 34252.00
458.0910, 34357.00
459.2800, 34211.00
460.4670, 34774.00
461.6550, 34992.00
462.8430, 34953.00
464.0300, 34682.00
465.2180, 35203.00
466.4050, 35227.00
467.5920, 35482.00
468.7790, 35403.00
469.9650, 35270.00
471.1520, 35332.00
472.3380, 35385.00
473.5250, 35416.00
474.7110, 35330.00
475.8970, 35242.00
477.0820, 35254.27
478.2680, 35229.00
479.4540, 35213.00
480.6390, 35111.00
481.8240, 35059.00
483.0090, 35206.00
484.1940, 35041.00
485.3780, 34952.00
486.5630, 35143.00
487.7470, 34991.00
488.9320, 35127.00
490.1160, 34839.00
491.3000, 34909.00
492.4830, 34936.00
493.6670, 34648.00
494.8500, 34562.00
496.0340, 34821.00
497.2170, 34431.00
498.4000, 34547.00
499.5820, 34513.00
500.7650, 34422.00
501.9480, 34403.00
503.1300, 34637.00
504.3120, 34751.00
505.4940, 34641.00
506.6760, 34374.00
507.8580, 34514.00
509.0390, 34404.00
510.2210, 34486.00
511.4020, 34453.00
512.5830, 34390.00
513.7640, 34394.00
514.9450, 34463.00
516.1250, 34560.00
517.3060, 34673.00
518.4860, 34734.38
519.6660, 34451.00
520.8460, 34840.00
522.0260, 34817.00
523.2060, 34779.00
524.3850, 35015.00
525.5650, 34849.00
526.7440, 35122.00
527.9230, 35133.00
529.1020, 35223.00
530.2810, 35269.00
531.4590, 35419.69
532.6380, 35607.00
533.8160, 35771.00
534.9940, 35968.00
536.1720, 36177.00
537.3500, 36346.64
538.5270, 36690.00
539.7050, 36775.00
540.8820, 37140.00
542.0590, 37509.00
543.2360, 37803.00
544.4130, 38407.00
545.5900, 38900.00
546.7660, 39337.00
547.9430, 39815.00
549.1190, 40385.00
550.2950, 40787.00
551.4710, 41332.00
552.6470, 41932.00
553.8220, 42208.00
554.9980, 42364.00
556.1730, 42781.00
557.3480, 42701.00
558.5230, 42636.00
559.6980, 42692.00
560.8730, 42132.00
562.0470, 42524.00
563.2220, 42063.00
564.3960, 41969.00
565.5700, 41885.00
566.7440, 41434.00
567.9170, 41176.00
569.0910, 40709.00
570.2640, 40639.00
571.4380, 40443.00
572.6110, 40275.00
573.7840, 39728.00
574.9570, 39561.00
576.1290, 39394.00
577.3020, 39355.00
578.4740, 39112.00
579.6460, 38928.00
580.8180, 39036.00
581.9900, 38853.00
583.1620, 38716.00
584.3330, 38952.00
585.5040, 39000.00
586.6760, 38673.00
587.8470, 39101.00
589.0180, 38720.00
590.1880, 39020.00
591.3590, 38866.00
592.5290, 38821.00
593.7000, 39139.00
594.8700, 39226.00
596.0400, 39157.00
597.2090, 39086.00
598.3790, 39288.00
599.5490, 39144.00
600.7180, 38974.00
601.8870, 39065.00
603.0560, 39055.00
604.2250, 39045.05
605.3940, 39095.00
606.5620, 39125.00
607.7300, 39260.00
608.8990, 39365.00
610.0670, 39122.00
611.2350, 39058.00
612.4020, 39193.00
613.5700, 39437.00
614.7370, 39572.00
615.9050, 39521.00
617.0720, 39773.00
618.2390, 39776.00
619.4060, 39709.00
620.5720, 40077.00
621.7390, 40383.00
622.9050, 40384.00
624.0710, 40605.00
625.2370, 40779.60
626.4030, 40814.00
627.5690, 41124.00
628.7340, 41093.00
629.9000, 41230.00
631.0650, 41676.00
632.2300, 41956.00
633.3950, 42459.00
634.5600, 42769.08
635.7240, 43141.00
636.8890, 43573.00
638.0530, 43859.00
639.2170, 44517.00
640.3810, 45245.00
641.5450, 46207.00
642.7080, 46929.00
643.8720, 47652.00
645.0350, 48487.00
646.1980, 49860.00
647.3610, 50416.00
648.5240, 51496.00
649.6870, 52285.00
650.8490, 52595.00
652.0120, 53238.00
653.1740, 53391.00
654.3360, 53343.00
655.4980, 52704.00
656.6600, 52284.00
657.8210, 52058.00
658.9830, 51423.00
660.1440, 51132.00
661.3050, 50475.00
662.4660, 49769.00
663.6270, 49362.00
664.7870, 49107.00
665.9480, 48916.00
667.1080, 48718.00
668.2680, 48574.00
669.4280, 48613.00
670.5880, 48948.00
671.7480, 48950.00
672.9070, 49257.00
674.0670, 49444.00
675.2260, 49736.00
676.3850, 50202.00
677.5440, 50539.00
678.7030, 50920.00
679.8610, 51225.00
681.0200, 51427.00
682.1780, 51690.00
683.3360, 52053.22
684.4940, 52726.00
685.6520, 52844.00
686.8090, 53204.00
687.9670, 53699.00
689.1240, 53924.00
690.2810, 54288.67
691.4380, 54483.00
692.5950, 54832.00
693.7520, 55018.00
694.9080, 55188.00
696.0650, 55254.00
697.2210, 55511.00
698.3770, 55419.00
699.5330, 55881.00
700.6880, 55719.00
701.8440, 55933.00
702.9990, 55956.00
704.1550, 56287.00
705.3100, 56198.10
706.4650, 55970.00
707.6190, 56044.00
708.7740, 55958.00
709.9290, 55774.00
711.0830, 55890.00
712.2370, 55909.00
713.3910, 55123.00
714.5450, 55171.00
715.6980, 54955.00
716.8520, 54476.00
718.0050, 54442.00
719.1580, 53846.00
720.3110, 53436.00
721.4640, 53136.00
722.6170, 52809.00
723.7700, 51942.00
724.9220, 51540.00
726.0740, 50981.00
727.2260, 50520.00
728.3780, 50133.65
729.5300, 49720.03
730.6810, 49376.00
731.8330, 48942.00
732.9840, 48566.00
734.1350, 47996.00
735.2860, 47449.00
736.4370, 47461.00
737.5880, 46920.00
738.7380, 46478.00
739.8880, 46332.00
741.0390, 46306.00
742.1890, 45923.00
743.3380, 45730.00
744.4880, 45523.00
745.6380, 45316.00
746.7870, 45049.00
747.9360, 45073.00
749.0850, 44834.00
750.2340, 44848.00
751.3830, 44444.00
752.5310, 44202.00
753.6800, 43951.00
754.8280, 43839.00
755.9760, 43873.00
757.1240, 43790.00
758.2720, 43630.39
759.4190, 43463.68
760.5670, 43250.00
761.7140, 42897.00
762.8610, 42643.00
764.0080, 42193.00
765.1550, 42134.00
766.3020, 41755.00
767.4480, 41549.00
768.5950, 41509.00
769.7410, 41659.00
770.8870, 41242.00
772.0330, 41131.00
773.1780, 40882.00
774.3240, 40632.00
775.4690, 40412.00
776.6140, 40411.00
777.7590, 40132.00
778.9040, 40034.00
780.0490, 40105.00
781.1940, 39798.00
782.3380, 39798.00
783.4820, 39855.00
784.6260, 39719.00
785.7700, 39343.00
786.9140, 39373.00
788.0580, 39201.00
789.2010, 39116.00
790.3450, 39024.00
791.4880, 38888.00
792.6310, 38629.00
793.7730, 38679.00
794.9160, 38550.57
796.0590, 38419.00
797.2010, 38428.00
798.3430, 38338.00
799.4850, 38175.00
800.6270, 37943.00
801.7690, 38011.00
802.9100, 38067.00
804.0520, 37752.00
805.1930, 37646.00
806.3340, 37756.00
807.4750, 37521.05
808.6160, 37394.00
809.7560, 37345.00
810.8970, 37287.00
812.0370, 37261.00
813.1770, 37094.00
814.3170, 37304.00
815.4570, 37343.00
816.5960, 37140.00
817.7360, 37021.00
818.8750, 37117.00
820.0140, 36833.00
821.1530, 37040.00
822.2920, 36876.61
823.4310, 36801.00
824.5690, 36692.00
825.7070, 36836.00
826.8460, 36767.00
827.9840, 36648.00
829.1220, 36617.00
830.2590, 36418.00
831.3970, 36472.00
832.5340, 36677.00
833.6710, 36453.00
834.8080, 36643.00
835.9450, 36637.00
837.0820, 36432.00
838.2190, 36610.00
839.3550, 36663.00
840.4910, 36666.00
841.6270, 36500.00
842.7630, 36469.00
843.8990, 36569.00
845.0350, 36516.00
846.1700, 36524.00
847.3060, 36491.00
848.4410, 36386.00
849.5760, 36689.00
850.7100, 36478.00
851.8450, 36511.00
852.9800, 36619.00
854.1140, 36985.00
855.2480, 36843.00
856.3820, 36372.00
857.5160, 36938.00
858.6500, 36763.00
859.7830, 36759.00
860.9170, 37054.00
862.0500, 36767.00
863.1830, 36802.00
864.3160, 37042.00
865.4480, 37048.00
866.5810, 37185.00
867.7130, 37081.00
868.8460, 37203.19
869.9780, 37147.00
871.1100, 37377.00
872.2410, 37408.00
873.3730, 37543.00
874.5050, 37681.00
875.6360, 37876.00
876.7670, 37968.86
877.8980, 38002.00
879.0290, 38183.00
880.1590, 38035.00
881.2900, 38111.00
882.4200, 38305.00
883.5500, 38314.00
884.6800, 38499.00
885.8100, 38546.00
886.9400, 38632.00
888.0690, 38542.00
889.1990, 38626.00
890.3280, 39072.00
891.4570, 38987.00
892.5860, 39108.00
893.7140, 39295.00
894.8430, 39033.00
895.9710, 39370.00
897.1000, 39550.00
898.2280, 39485.00
899.3560, 39773.00
900.4830, 39748.00
901.6110, 39838.00
902.7380, 40094.00
903.8660, 40104.00
904.9930, 40144.00
906.1200, 40491.00
907.2460, 40326.00
908.3730, 40619.00
909.5000, 40512.00
910.6260, 40811.00
911.7520, 40840.00
912.8780, 40995.00
914.0040, 41214.00
915.1290, 41328.12
916.2550, 41478.00
917.3800, 41574.00
918.5050, 41648.00
919.6300, 41541.00
920.7550, 41441.00
921.8800, 41258.00
923.0040, 41600.00
924.1290, 41191.00
925.2530, 41298.00
926.3770, 41045.00
927.5010, 41247.00
928.6250, 41345.00
929.7480, 41106.00
930.8720, 41168.00
931.9950, 41274.00
933.1180, 41229.00
934.2410, 41197.00
935.3640, 40918.00
936.4860, 41174.00
937.6090, 40836.00
938.7310, 41336.00
939.8530, 40864.00
940.9750, 40427.00
942.0970, 40530.00
943.2180, 40391.00
944.3400, 40147.00
945.4610, 40298.00
946.5820, 40015.00
947.7030, 40048.00
948.8240, 40015.00
949.9450, 39976.00
951.0650, 39868.00
952.1860, 39625.00
953.3060, 39525.00
954.4260, 39420.15
955.5460, 39579.00
956.6650, 39286.00
957.7850, 39386.00
958.9040, 39387.00
960.0230, 39144.00
961.1420, 39114.00
962.2610, 39093.00
963.3800, 38874.00
964.4990, 38957.00
965.6170, 39023.00
966.7350, 38741.00
967.8530, 38938.00
968.9710, 39084.00
970.0890, 38939.00
971.2070, 38797.00
972.3240, 38790.00
973.4410, 38760.23
974.5580, 38862.00
975.6750, 38821.00
976.7920, 38775.00
977.9090, 38777.00
979.0250, 38791.00
980.1410, 38778.00
981.2580, 38962.00
982.3740, 38928.00
983.4890, 39129.00
984.6050, 38824.00
985.7200, 38937.00
986.8360, 38917.00
987.9510, 38993.64
989.0660, 39038.71
990.1810, 39054.83
991.2950, 39131.00
992.4100, 39187.00
993.5240, 39240.00
994.6390, 39467.00
995.7530, 39542.00
996.8660, 39919.00
997.9800, 39738.00
999.0940, 39543.00
1000.207, 39540.00
1001.320, 40186.00
1002.433, 40106.00
1003.546, 40144.00
1004.659, 40249.28
1005.772, 40361.00
1006.884, 40258.00
1007.996, 40555.00
1009.108, 40907.00
1010.220, 41182.00
1011.332, 41213.00
1012.444, 41491.73
1013.555, 41558.00
1014.666, 41772.00
1015.777, 41899.00
1016.888, 41937.00
1017.999, 42125.00
1019.110, 42299.00
1020.220, 42442.00
1021.331, 42785.00
1022.441, 42841.00
1023.551, 43119.79
1024.661, 43119.00
1025.770, 43346.00
1026.880, 43227.00
1027.989, 42805.00
1029.098, 43365.00
1030.207, 42943.00
1031.316, 43231.00
1032.425, 42888.00
1033.533, 42905.00
1034.642, 42977.00
1035.750, 42927.00
1036.858, 42554.00
1037.966, 42725.00
1039.073, 42386.00
1040.181, 42396.00
1041.288, 42367.00
1042.396, 42149.00
1043.503, 42293.00
1044.610, 41687.00
1045.716, 41734.00
1046.823, 41549.00
1047.929, 41765.00
1049.036, 41715.00
1050.142, 41303.00
1051.248, 41224.00
1052.353, 41251.00
1053.459, 41218.00
1054.564, 41059.00
1055.670, 40898.00
1056.775, 40978.00
1057.880, 41264.00
1058.985, 40875.00
1060.089, 40486.00
1061.194, 40836.00
1062.298, 40871.00
1063.402, 40740.00
1064.506, 40832.00
1065.610, 40776.00
1066.713, 41070.00
1067.817, 40941.00
1068.920, 40826.00
1070.023, 40810.00
1071.126, 40659.00
1072.229, 40784.00
1073.332, 40779.00
1074.435, 41031.00
1075.537, 40869.00
1076.639, 40553.00
1077.741, 40956.00
1078.843, 40755.00
1079.945, 40801.00
1081.046, 41011.00
1082.148, 40587.00
1083.249, 40835.00
1084.350, 40848.00
1085.451, 40865.00
1086.551, 40747.00
1087.652, 40693.00
1088.752, 40508.00
1089.853, 40525.00
1090.953, 40408.00
1092.053, 40268.00
1093.152, 40409.00
1094.252, 40497.00
1095.351, 40228.00
1096.451, 40275.00
1097.550, 39909.00
1098.649, 40215.00
1099.748, 40360.00
1100.846, 39918.00
1101.945, 39916.00
1103.043, 40168.00
1104.141, 40058.00
1105.239, 39758.00
1106.337, 40036.00
1107.434, 39748.00
1108.532, 39530.88
1109.629, 39834.54
1110.726, 40005.53
1111.823, 40051.00
1112.920, 39594.95
1114.017, 39786.50
1115.113, 39718.52
1116.210, 39639.90
1117.306, 39922.60
1118.402, 39539.49
1119.498, 39816.46
1120.593, 39829.93
1121.689, 39964.00
1122.784, 39836.94
1123.879, 39790.53
1124.974, 40005.34
1126.069, 40075.51
1127.164, 39918.39
1128.259, 40060.12
1129.353, 39667.89
1130.447, 39744.22
1131.541, 40022.71
1132.635, 39734.73
1133.729, 39816.00
1134.822, 39781.00
1135.916, 39782.00
1137.009, 39837.00
1138.102, 39684.00
1139.195, 39814.00
1140.288, 39937.00
1141.380, 39859.00
1142.473, 39974.00
1143.565, 39657.00
1144.657, 39831.00
1145.749, 39646.00
1146.841, 39995.00
1147.932, 40094.00
1149.024, 39763.00
1150.115, 39817.00
1151.206, 40070.00
1152.297, 39600.00
1153.388, 39833.00
1154.479, 40057.00
1155.569, 39933.00
1156.659, 39971.00
1157.750, 40053.00
1158.839, 39835.00
1159.929, 40122.00
1161.019, 40039.00
1162.108, 40181.00
1163.198, 40035.00
1164.287, 40025.00
1165.376, 40161.00
1166.465, 40142.00
1167.553, 40386.00
1168.642, 40152.00
1169.730, 40046.00
1170.818, 40275.00
1171.906, 40234.00
1172.994, 40130.00
1174.082, 40174.00
1175.170, 40198.00
1176.257, 40271.00
1177.344, 40253.00
1178.431, 40313.00
1179.518, 40299.00
1180.605, 40387.75
1181.691, 40199.00
1182.778, 40510.00
1183.864, 40553.00
1184.950, 40482.00
1186.036, 40660.00
1187.122, 40531.00
1188.207, 40595.00
1189.292, 40297.00
1190.378, 40501.00
1191.463, 40531.00
1192.548, 40307.00
1193.632, 40614.00
1194.717, 40517.00
1195.801, 40396.00
1196.886, 40688.00
1197.970, 40543.00
1199.054, 40725.00
1200.137, 40462.00
1201.221, 40953.00
1202.305, 40599.00
1203.388, 40713.00
1204.471, 40571.00
1205.554, 40756.00
1206.637, 40634.26
1207.719, 40840.00
1208.802, 40702.00
1209.884, 40530.00
1210.966, 41059.00
1212.048, 40901.00
1213.130, 41056.00
1214.212, 40904.00
1215.293, 40842.00
1216.374, 41024.00
1217.456, 40877.00
1218.536, 41058.00
1219.617, 40770.00
1220.698, 40986.00
1221.778, 40937.00
1222.859, 41046.00
1223.939, 41080.00
1225.019, 41309.00
1226.099, 41157.00
1227.178, 41029.00
1228.258, 41206.00
1229.337, 41013.00
1230.417, 41211.00
1231.496, 41043.00
1232.574, 41288.00
1233.653, 41268.00
1234.732, 41305.00
1235.810, 41258.00
1236.888, 41388.00
1237.966, 41081.00
1239.044, 41453.00
1240.122, 41256.00
1241.199, 41376.00
1242.277, 41310.00
1243.354, 41450.00
1244.431, 41584.00
1245.508, 41515.42
1246.585, 41393.00
1247.661, 41454.00
1248.738, 41510.00
1249.814, 41477.00
1250.890, 41639.00
1251.966, 41414.00
1253.042, 41348.00
1254.117, 41141.00
1255.193, 41282.00
1256.268, 41081.00
1257.343, 41306.00
1258.418, 41300.00
1259.493, 41235.00
1260.567, 41332.00
1261.642, 41604.00
1262.716, 41410.00
1263.790, 41945.00
1264.864, 41445.00
1265.938, 41772.00
1267.011, 41907.00
1268.085, 41903.00
1269.158, 41624.00
1270.231, 41738.00
1271.304, 41747.00
1272.377, 41518.00
1273.450, 41658.00
1274.522, 41658.00
1275.594, 41710.00
1276.666, 41971.00
1277.738, 42077.00
1278.810, 42232.00
1279.882, 41977.00
1280.953, 41919.00
1282.025, 42068.00
1283.096, 41933.00
1284.167, 42148.00
1285.238, 42076.00
1286.308, 42065.00
1287.379, 42057.95
1288.449, 42013.67
1289.519, 41986.00
1290.589, 41903.00
1291.659, 42020.00
1292.729, 41854.00
1293.798, 42205.00
1294.868, 42309.00
1295.937, 42260.00
1297.006, 42214.00
1298.075, 42487.00
1299.143, 42464.00
1300.212, 42032.00
1301.280, 42549.00
1302.348, 42416.00
1303.416, 42419.00
1304.484, 42588.00
1305.552, 42308.00
1306.620, 42380.00
1307.687, 42416.00
1308.754, 42788.00
1309.821, 42380.00
1310.888, 42657.00
1311.955, 42831.00
1313.021, 42182.00
1314.088, 42777.00
1315.154, 42860.00
1316.220, 42435.00
1317.286, 42535.00
1318.352, 42658.00
1319.417, 42745.00
1320.483, 42968.00
1321.548, 42877.00
1322.613, 42887.00
1323.678, 42924.00
1324.743, 43113.00
1325.807, 42986.00
1326.872, 43180.00
1327.936, 43085.32
1329.000, 43414.00
1330.064, 43046.00
1331.128, 43118.00
1332.191, 43357.00
1333.255, 43017.00
1334.318, 43489.00
1335.381, 43444.00
1336.444, 42986.00
1337.507, 43570.00
1338.569, 43490.00
1339.632, 43399.00
1340.694, 43396.00
1341.756, 43448.00
1342.818, 43504.00
1343.880, 43810.00
1344.941, 43592.00
1346.003, 43687.00
1347.064, 43475.00
1348.125, 43558.00
1349.186, 43496.00
1350.247, 43594.00
1351.308, 43658.00
1352.368, 43702.00
1353.428, 43830.00
1354.489, 43871.00
1355.549, 43865.00
1356.608, 44017.00
1357.668, 44181.00
1358.727, 43941.00
1359.787, 44090.00
1360.846, 43931.00
1361.905, 44072.00
1362.964, 44094.00
1364.022, 44271.00
1365.081, 44279.00
1366.139, 44250.00
1367.197, 44087.00
1368.255, 44291.00
1369.313, 44210.00
1370.371, 44366.00
1371.428, 44181.00
1372.486, 44308.00
1373.543, 44373.00
1374.600, 44500.00
1375.657, 44509.00
1376.713, 44493.00
1377.770, 44636.00
1378.826, 44362.00
1379.882, 44684.00
1380.938, 44446.00
1381.994, 44518.00
1383.050, 44560.00
1384.106, 44683.00
1385.161, 44852.00
1386.216, 44913.00
1387.271, 44846.00
1388.326, 44922.30
1389.381, 44755.00
1390.435, 44911.00
1391.490, 44811.00
1392.544, 44795.00
1393.598, 44888.00
1394.652, 44679.00
1395.705, 44973.00
1396.759, 45031.00
1397.812, 45264.00
1398.866, 45172.00
1399.919, 45401.00
1400.972, 45096.00
1402.024, 45427.00
1403.077, 44958.00
1404.129, 45203.00
1405.181, 44974.00
1406.233, 45305.00
1407.285, 45334.00
1408.337, 45186.00
1409.389, 45332.00
1410.440, 45452.00
1411.491, 45340.00
1412.542, 45400.00
1413.593, 45437.00
1414.644, 45461.00
1415.695, 45553.00
1416.745, 45540.23
1417.795, 45689.00
1418.845, 45471.00
1419.895, 45718.00
1420.945, 45541.00
1421.995, 45985.00
1423.044, 45720.00
1424.093, 45755.00
1425.142, 46000.00
1426.191, 45844.00
1427.240, 45769.00
1428.289, 45648.00
1429.337, 45820.00
1430.385, 45811.00
1431.433, 45840.00
1432.481, 46170.00
1433.529, 46011.00
1434.577, 46230.00
1435.624, 46377.00
1436.672, 45934.00
1437.719, 46207.00
1438.766, 46404.00
1439.812, 46173.00
1440.859, 46612.00
1441.905, 46360.00
1442.952, 46281.00
1443.998, 46413.00
1445.044, 46411.00
1446.090, 46370.00
1447.135, 46441.89
1448.181, 46493.00
1449.226, 46438.00
1450.271, 46629.00
1451.316, 46538.00
1452.361, 46732.00
1453.405, 46683.00
1454.450, 46586.00
1455.494, 46627.00
1456.538, 46763.00
1457.582, 46672.00
1458.626, 46917.00
1459.670, 46758.00
1460.713, 46807.31
1461.757, 46874.00
1462.800, 46814.00
1463.843, 46800.00
1464.886, 46873.00
1465.928, 46927.47
1466.971, 47013.99
1468.013, 47048.00
1469.055, 47238.00
1470.097, 47089.00
1471.139, 47186.00
1472.181, 47402.00
1473.222, 47304.00
1474.263, 47122.00
1475.305, 47392.00
1476.346, 47155.00
1477.386, 47447.00
1478.427, 47390.00
1479.468, 47255.00
1480.508, 47647.00
1481.548, 47540.00
1482.588, 47766.00
1483.628, 47407.00
1484.668, 47324.00
1485.707, 47951.00
1486.747, 47715.00
1487.786, 47625.00
1488.825, 47607.00
1489.864, 47557.00
1490.902, 47689.00
1491.941, 47884.00
1492.979, 47906.00
1494.017, 48000.00
1495.055, 47810.00
1496.093, 48085.00
1497.131, 48036.00
1498.168, 47987.00
1499.206, 47654.00
1500.243, 48113.00
1501.280, 47929.00
1502.317, 48062.51
1503.354, 48419.00
1504.390, 48183.00
1505.426, 48299.00
1506.463, 48110.00
1507.499, 48304.00
1508.535, 48299.00
1509.570, 47998.00
1510.606, 48415.00
1511.641, 48308.00
1512.676, 48222.00
1513.711, 48372.00
1514.746, 48306.51
1515.781, 48341.00
1516.816, 48457.00
1517.850, 48598.00
1518.884, 48870.00
1519.918, 48719.00
1520.952, 48824.00
1521.986, 48969.00
1523.019, 48832.00
1524.053, 48885.00
1525.086, 48634.00
1526.119, 49175.00
1527.152, 48768.00
1528.185, 48942.00
1529.217, 49257.00
1530.250, 48806.00
1531.282, 49196.00
1532.314, 48885.50
1533.346, 49227.15
1534.377, 49436.11
1535.409, 49519.57
1536.440, 49101.48
1537.472, 49331.03
1538.503, 49301.01
1539.534, 49260.35
1540.564, 49580.97
1541.595, 49235.82
1542.625, 49550.71
1543.656, 49602.15
1544.686, 49774.15
1545.716, 49685.01
1546.745, 49676.49
1547.775, 49929.22
1548.804, 50037.28
1549.834, 49918.08
1550.863, 50097.71
1551.892, 49743.36
1552.920, 49857.54
1553.949, 50173.93
1554.977, 50067.78
1556.006, 50252.18
1557.034, 50325.90
1558.062, 49896.80
1559.089, 50342.12
1560.117, 50409.30
1561.144, 50088.15
1562.172, 50180.00
1563.199, 50124.00
1564.226, 50087.00
1565.252, 50629.00
1566.279, 50353.00
1567.305, 50312.00
1568.332, 50571.00
1569.358, 50190.00
1570.384, 50574.00
1571.409, 50673.00
##END=



