##NAMES=Astrophyllite
##RRUFFID=R060103
##IDEAL CHEMISTRY=K_2_NaFe^2+^_7_Ti^4+^_2_(Si_4_O_12_)_2_O_2_(OH)_4_F
##LOCALITY=Brivik, Norway
##OWNER=RRUFF
##SOURCE=University of Arizona Mineral Museum
##DESCRIPTION=Brown fragment embedded in matrix
##STATUS=The identification of this mineral is confirmed by single-crystal X-ray diffraction and chemical analysis.
##URL=rruff.info/R060103
##MEASURED CHEMISTRY=K_2.00_Na_1.00_(Fe^2+^_0.55_Mn_0.32_Fe^3+^_0.04_Mg_0.04_Ca_0.04_)_7_(Ti_0.66_Zr_0.18_Al_0.16_)_2_Si_8.00_O_26_(OH)_4_F_1.00_
##PIN_ID=M01031
##ORIENTATION=Laser parallel to c* (0 0 1). Fiducial mark perpendicular to laser is parallel to a [1 0 0]
150.1650, 9142.000
151.3980, 9058.000
152.6310, 9231.000
153.8640, 9200.000
155.0960, 9212.000
156.3280, 9086.000
157.5600, 9047.000
158.7920, 9152.000
160.0240, 9242.000
161.2560, 9361.000
162.4870, 9372.000
163.7180, 9492.000
164.9490, 9466.000
166.1800, 9478.000
167.4110, 9531.000
168.6410, 9606.000
169.8720, 9626.000
171.1020, 9448.000
172.3320, 9573.000
173.5620, 9374.000
174.7910, 9530.000
176.0210, 9330.000
177.2500, 9193.000
178.4790, 9022.000
179.7080, 8995.000
180.9370, 8892.000
182.1650, 8837.000
183.3940, 8732.000
184.6220, 8608.000
185.8500, 8589.000
187.0780, 8527.000
188.3050, 8445.000
189.5330, 8416.869
190.7600, 8420.000
191.9870, 8349.000
193.2140, 8340.000
194.4410, 8359.000
195.6680, 8325.000
196.8940, 8370.000
198.1200, 8384.000
199.3470, 8461.000
200.5720, 8652.000
201.7980, 8627.000
203.0240, 8661.000
204.2490, 8563.000
205.4740, 8630.000
206.6990, 8717.000
207.9240, 8805.035
209.1490, 8982.000
210.3740, 9155.000
211.5980, 9300.000
212.8220, 9568.000
214.0460, 9612.000
215.2700, 9810.000
216.4930, 10084.00
217.7170, 10414.00
218.9400, 10408.00
220.1630, 10729.00
221.3860, 10888.00
222.6090, 10953.00
223.8320, 11281.00
225.0540, 11367.00
226.2760, 11635.00
227.4980, 11755.00
228.7200, 11775.00
229.9420, 11861.00
231.1630, 11873.00
232.3850, 11853.07
233.6060, 11796.00
234.8270, 11741.00
236.0480, 11717.00
237.2690, 11588.00
238.4890, 11360.00
239.7090, 11377.00
240.9290, 11042.00
242.1490, 10628.00
243.3690, 10603.00
244.5890, 10199.00
245.8080, 9990.000
247.0270, 9905.000
248.2470, 9684.000
249.4650, 9419.000
250.6840, 9282.000
251.9030, 9125.000
253.1210, 8886.000
254.3390, 8782.000
255.5570, 8607.000
256.7750, 8594.000
257.9930, 8668.000
259.2100, 8780.000
260.4280, 8479.000
261.6450, 8429.000
262.8620, 8203.000
264.0790, 8240.000
265.2950, 8016.000
266.5120, 7913.000
267.7280, 7979.000
268.9440, 7797.000
270.1600, 7827.000
271.3760, 7703.000
272.5920, 7714.000
273.8070, 7856.000
275.0220, 7616.000
276.2370, 7675.000
277.4520, 7547.000
278.6670, 7651.000
279.8820, 7446.000
281.0960, 7633.000
282.3100, 7559.000
283.5240, 7578.000
284.7380, 7612.000
285.9520, 7478.000
287.1650, 7450.000
288.3780, 7592.000
289.5920, 7567.000
290.8050, 7632.000
292.0170, 7589.000
293.2300, 7615.000
294.4430, 7614.000
295.6550, 7605.000
296.8670, 7754.000
298.0790, 7667.000
299.2910, 7695.000
300.5020, 7630.000
301.7140, 7621.079
302.9250, 7751.000
304.1360, 7614.000
305.3470, 7655.000
306.5580, 7682.000
307.7680, 7910.000
308.9780, 7853.000
310.1890, 7793.000
311.3990, 7906.000
312.6090, 7787.000
313.8180, 7880.000
315.0280, 7870.000
316.2370, 8025.000
317.4460, 7838.000
318.6550, 8087.000
319.8640, 8078.000
321.0730, 8210.000
322.2810, 8232.000
323.4890, 8309.000
324.6980, 8294.000
325.9060, 8312.000
327.1130, 8323.343
328.3210, 8333.000
329.5280, 8310.000
330.7360, 8402.000
331.9430, 8391.000
333.1500, 8440.634
334.3560, 8510.000
335.5630, 8529.000
336.7690, 8670.000
337.9760, 8721.000
339.1820, 8760.000
340.3870, 8964.000
341.5930, 9011.000
342.7990, 9157.000
344.0040, 9126.000
345.2090, 9216.000
346.4140, 9307.000
347.6190, 9471.000
348.8240, 9406.000
350.0280, 9540.000
351.2330, 9637.000
352.4370, 9628.000
353.6410, 9808.000
354.8440, 9673.000
356.0480, 9802.000
357.2520, 9807.000
358.4550, 9732.000
359.6580, 9783.000
360.8610, 9655.000
362.0640, 9711.000
363.2660, 9499.000
364.4690, 9629.000
365.6710, 9611.000
366.8730, 9437.000
368.0750, 9287.000
369.2770, 9279.000
370.4780, 9261.000
371.6800, 9189.282
372.8810, 9153.000
374.0820, 9097.000
375.2830, 9001.000
376.4830, 8907.000
377.6840, 8879.000
378.8840, 8838.000
380.0840, 8768.000
381.2840, 8763.000
382.4840, 8690.000
383.6840, 8736.000
384.8830, 8612.000
386.0830, 8604.000
387.2820, 8551.000
388.4810, 8594.000
389.6800, 8410.000
390.8780, 8367.000
392.0770, 8370.000
393.2750, 8280.000
394.4730, 8201.682
395.6710, 8099.000
396.8690, 7969.000
398.0660, 7866.000
399.2640, 7713.000
400.4610, 7792.000
401.6580, 7717.000
402.8550, 7623.000
404.0520, 7551.000
405.2490, 7473.000
406.4450, 7429.000
407.6410, 7379.000
408.8370, 7320.419
410.0330, 7325.500
411.2290, 7244.000
412.4240, 7348.000
413.6200, 7379.000
414.8150, 7411.000
416.0100, 7216.000
417.2050, 7254.000
418.4000, 7256.000
419.5940, 7385.000
420.7880, 7278.000
421.9830, 7386.000
423.1770, 7374.000
424.3700, 7347.000
425.5640, 7214.000
426.7580, 7364.000
427.9510, 7268.000
429.1440, 7231.000
430.3370, 7314.000
431.5300, 7270.000
432.7220, 7281.000
433.9150, 7310.000
435.1070, 7203.000
436.2990, 7316.000
437.4910, 7238.000
438.6830, 7345.000
439.8750, 7196.000
441.0660, 7324.000
442.2570, 7177.000
443.4480, 7305.000
444.6390, 7247.000
445.8300, 7295.000
447.0210, 7331.000
448.2110, 7263.000
449.4010, 7256.000
450.5910, 7371.000
451.7810, 7394.000
452.9710, 7351.000
454.1610, 7431.000
455.3500, 7414.436
456.5390, 7328.000
457.7280, 7446.000
458.9170, 7477.000
460.1060, 7518.000
461.2940, 7404.000
462.4830, 7523.000
463.6710, 7505.000
464.8590, 7584.000
466.0470, 7687.000
467.2350, 7657.000
468.4220, 7659.000
469.6090, 7673.000
470.7970, 7658.000
471.9840, 7682.000
473.1700, 7756.000
474.3570, 7758.000
475.5440, 7644.000
476.7300, 7787.000
477.9160, 7636.000
479.1020, 7812.000
480.2880, 7885.000
481.4740, 7817.000
482.6590, 8028.000
483.8440, 7972.000
485.0300, 8015.000
486.2140, 8079.000
487.3990, 8084.000
488.5840, 8256.000
489.7680, 8214.000
490.9530, 8413.000
492.1370, 8478.000
493.3210, 8355.000
494.5040, 8543.000
495.6880, 8658.000
496.8720, 8754.000
498.0550, 8873.000
499.2380, 8830.000
500.4210, 8842.000
501.6040, 8873.000
502.7860, 8836.000
503.9690, 8839.000
505.1510, 8860.000
506.3330, 8766.000
507.5150, 8698.000
508.6970, 8506.000
509.8780, 8425.000
511.0600, 8391.000
512.2410, 8324.000
513.4220, 8323.000
514.6030, 8169.000
515.7840, 8053.000
516.9640, 8031.000
518.1440, 7989.000
519.3250, 7886.000
520.5050, 7931.000
521.6850, 7782.000
522.8640, 7865.000
524.0440, 7855.000
525.2230, 7903.000
526.4020, 7858.000
527.5820, 7858.000
528.7600, 7917.000
529.9390, 7837.000
531.1180, 7811.000
532.2960, 7938.000
533.4740, 7916.000
534.6520, 7974.000
535.8300, 7998.000
537.0080, 8026.000
538.1850, 7975.000
539.3630, 8083.000
540.5400, 8086.040
541.7170, 8285.000
542.8940, 8204.000
544.0700, 8400.000
545.2470, 8543.000
546.4230, 8640.000
547.5990, 8846.000
548.7750, 9053.000
549.9510, 8972.000
551.1270, 9227.000
552.3020, 9403.000
553.4780, 9709.000
554.6530, 9893.000
555.8280, 10048.00
557.0030, 10105.00
558.1770, 10348.00
559.3520, 10468.00
560.5260, 10417.00
561.7000, 10393.00
562.8740, 10303.00
564.0480, 10273.00
565.2220, 10241.00
566.3950, 10107.00
567.5680, 10006.00
568.7420, 9759.000
569.9150, 9731.000
571.0870, 9541.000
572.2600, 9575.000
573.4320, 9361.000
574.6050, 9357.000
575.7770, 9339.000
576.9490, 9299.000
578.1210, 9185.000
579.2920, 9274.000
580.4640, 9125.000
581.6350, 9173.000
582.8060, 9255.000
583.9770, 9171.000
585.1480, 9279.000
586.3190, 9322.000
587.4890, 9429.000
588.6590, 9619.000
589.8290, 9641.000
590.9990, 9736.000
592.1690, 9745.000
593.3390, 9947.000
594.5080, 9777.000
595.6770, 9958.000
596.8470, 10020.00
598.0160, 10018.00
599.1840, 10100.00
600.3530, 10105.00
601.5210, 9994.000
602.6900, 10040.00
603.8580, 9958.000
605.0260, 10076.00
606.1930, 10122.00
607.3610, 9929.000
608.5280, 9973.000
609.6960, 10074.00
610.8630, 10005.00
612.0300, 10095.00
613.1970, 9905.000
614.3630, 10097.00
615.5300, 9967.000
616.6960, 10216.00
617.8620, 10320.00
619.0280, 10485.00
620.1940, 10544.00
621.3590, 10435.00
622.5250, 10613.00
623.6900, 10598.00
624.8550, 10775.00
626.0200, 10861.00
627.1850, 10833.00
628.3490, 10851.00
629.5140, 10849.00
630.6780, 10844.00
631.8420, 10900.25
633.0060, 10973.13
634.1700, 11070.00
635.3330, 11207.00
636.4970, 11423.00
637.6600, 11603.00
638.8230, 11916.00
639.9860, 12208.00
641.1490, 12567.00
642.3110, 13009.00
643.4740, 13563.00
644.6360, 14076.47
645.7980, 14657.00
646.9600, 15307.00
648.1220, 15964.00
649.2840, 16686.00
650.4450, 17258.00
651.6060, 17682.00
652.7670, 18251.00
653.9280, 18350.00
655.0890, 18263.00
656.2500, 17980.00
657.4100, 17449.00
658.5700, 17003.00
659.7300, 16155.00
660.8900, 15445.00
662.0500, 14767.00
663.2100, 14132.00
664.3690, 13656.00
665.5280, 13140.00
666.6880, 12653.00
667.8460, 12401.00
669.0050, 12484.00
670.1640, 12252.00
671.3220, 12167.00
672.4810, 12056.00
673.6390, 12089.00
674.7970, 12063.00
675.9540, 12112.00
677.1120, 12003.00
678.2690, 12157.00
679.4270, 12289.00
680.5840, 12204.00
681.7410, 12366.00
682.8980, 12401.00
684.0540, 12706.00
685.2110, 12786.00
686.3670, 12831.00
687.5230, 13062.00
688.6790, 13224.00
689.8350, 13228.00
690.9900, 13339.00
692.1460, 13556.00
693.3010, 13744.00
694.4560, 13728.00
695.6110, 13770.00
696.7660, 13929.00
697.9210, 13935.00
699.0750, 14006.29
700.2290, 14058.00
701.3840, 14065.00
702.5370, 14052.00
703.6910, 14020.00
704.8450, 14121.00
705.9980, 14121.15
707.1520, 14197.00
708.3050, 14214.00
709.4580, 14362.00
710.6110, 14414.00
711.7630, 14338.00
712.9160, 14558.00
714.0680, 14380.00
715.2200, 14518.00
716.3720, 14540.00
717.5240, 14385.00
718.6760, 14339.00
719.8270, 14096.00
720.9780, 13857.00
722.1300, 13855.00
723.2810, 13726.00
724.4310, 13615.00
725.5820, 13435.00
726.7330, 13244.00
727.8830, 12999.00
729.0330, 13032.00
730.1830, 12859.00
731.3330, 12634.00
732.4830, 12417.00
733.6320, 12166.00
734.7810, 12317.00
735.9310, 12015.00
737.0800, 11960.00
738.2290, 11809.00
739.3770, 11696.00
740.5260, 11622.34
741.6740, 11478.00
742.8220, 11481.00
743.9700, 11387.00
745.1180, 11363.00
746.2660, 11346.00
747.4130, 11308.00
748.5610, 11236.00
749.7080, 11199.00
750.8550, 11262.00
752.0020, 11124.00
753.1490, 11024.00
754.2950, 11114.00
755.4420, 10987.00
756.5880, 11046.00
757.7340, 11142.00
758.8800, 10993.00
760.0250, 11135.00
761.1710, 11038.00
762.3160, 10884.00
763.4620, 10886.00
764.6070, 10823.00
765.7520, 10867.00
766.8960, 10967.00
768.0410, 10909.00
769.1850, 10982.00
770.3300, 10828.00
771.4740, 10790.00
772.6180, 10814.00
773.7610, 10694.00
774.9050, 10709.00
776.0480, 10636.00
777.1920, 10758.00
778.3350, 10707.00
779.4780, 10854.00
780.6200, 10700.00
781.7630, 10733.00
782.9060, 10640.00
784.0480, 10711.00
785.1900, 10687.00
786.3320, 10688.00
787.4740, 10729.00
788.6150, 10679.00
789.7570, 10704.00
790.8980, 10737.00
792.0390, 10642.00
793.1800, 10781.00
794.3210, 10682.00
795.4620, 10625.00
796.6020, 10462.00
797.7420, 10556.00
798.8830, 10553.00
800.0230, 10651.00
801.1620, 10587.00
802.3020, 10594.00
803.4420, 10673.00
804.5810, 10740.00
805.7200, 10693.00
806.8590, 10747.00
807.9980, 10870.00
809.1370, 10989.00
810.2750, 11144.00
811.4140, 11051.00
812.5520, 11025.00
813.6900, 10924.00
814.8280, 10820.00
815.9650, 10716.00
817.1030, 10570.00
818.2400, 10531.00
819.3780, 10409.00
820.5150, 10358.93
821.6520, 10401.00
822.7880, 10312.00
823.9250, 10310.00
825.0610, 10389.00
826.1980, 10348.00
827.3340, 10203.00
828.4700, 10366.00
829.6050, 10229.00
830.7410, 10258.00
831.8760, 10363.00
833.0120, 10222.00
834.1470, 10273.00
835.2820, 10372.00
836.4160, 10327.00
837.5510, 10450.00
838.6860, 10367.00
839.8200, 10469.00
840.9540, 10655.00
842.0880, 10686.00
843.2220, 10860.00
844.3550, 11013.00
845.4890, 11069.00
846.6220, 11284.00
847.7550, 11452.00
848.8880, 11740.00
850.0210, 11908.00
851.1540, 12131.00
852.2860, 12286.00
853.4190, 12722.00
854.5510, 12914.00
855.6830, 13124.00
856.8150, 13316.00
857.9460, 13357.00
859.0780, 13393.00
860.2090, 13334.00
861.3410, 13222.00
862.4720, 13030.00
863.6020, 12707.00
864.7330, 12357.00
865.8640, 12171.00
866.9940, 11923.00
868.1240, 11762.00
869.2540, 11554.00
870.3840, 11528.00
871.5140, 11523.00
872.6440, 11401.00
873.7730, 11344.00
874.9020, 11305.00
876.0320, 11289.00
877.1600, 11182.00
878.2890, 11376.00
879.4180, 11258.00
880.5460, 11433.00
881.6750, 11450.00
882.8030, 11344.00
883.9310, 11415.00
885.0590, 11425.00
886.1860, 11509.00
887.3140, 11486.00
888.4410, 11626.00
889.5680, 11731.00
890.6950, 11732.00
891.8220, 11855.00
892.9490, 11943.00
894.0750, 11736.00
895.2020, 12015.00
896.3280, 11994.00
897.4540, 12158.00
898.5800, 12246.00
899.7050, 12171.00
900.8310, 12344.00
901.9560, 12359.00
903.0820, 12503.00
904.2070, 12387.00
905.3320, 12638.00
906.4560, 12534.00
907.5810, 12660.00
908.7050, 12966.00
909.8300, 12852.00
910.9540, 12905.00
912.0780, 13154.00
913.2010, 12925.00
914.3250, 13074.00
915.4480, 13027.00
916.5720, 13127.00
917.6950, 13138.00
918.8180, 13202.00
919.9410, 13198.00
921.0630, 12989.00
922.1860, 12914.00
923.3080, 12980.00
924.4300, 12920.00
925.5520, 12946.00
926.6740, 12931.00
927.7960, 12903.00
928.9170, 12974.00
930.0390, 12790.00
931.1600, 12832.00
932.2810, 12665.00
933.4020, 12695.00
934.5230, 12710.00
935.6430, 12570.00
936.7640, 12510.00
937.8840, 12507.00
939.0040, 12392.00
940.1240, 12391.00
941.2440, 12239.00
942.3630, 12185.00
943.4830, 12278.00
944.6020, 11947.00
945.7210, 11957.00
946.8400, 11886.00
947.9590, 12005.00
949.0770, 11958.00
950.1960, 11977.00
951.3140, 11854.00
952.4320, 11790.00
953.5500, 11964.00
954.6680, 11874.00
955.7860, 11704.00
956.9030, 11849.00
958.0210, 11564.00
959.1380, 11669.00
960.2550, 11672.00
961.3720, 11488.00
962.4890, 11563.00
963.6050, 11441.00
964.7220, 11544.00
965.8380, 11535.00
966.9540, 11400.00
968.0700, 11468.00
969.1860, 11453.00
970.3010, 11252.00
971.4170, 11295.00
972.5320, 11213.00
973.6470, 11352.00
974.7620, 11146.00
975.8770, 11246.00
976.9910, 11291.00
978.1060, 11195.00
979.2200, 11400.00
980.3340, 11387.00
981.4480, 11420.00
982.5620, 11524.00
983.6760, 11470.00
984.7890, 11520.00
985.9030, 11581.00
987.0160, 11683.00
988.1290, 11622.00
989.2420, 11617.00
990.3550, 11723.00
991.4670, 11639.00
992.5800, 11843.00
993.6920, 12006.00
994.8040, 12240.00
995.9160, 12340.00
997.0280, 12549.00
998.1390, 12718.00
999.2510, 12896.00
1000.362, 13072.00
1001.473, 13220.00
1002.584, 13374.00
1003.695, 13325.72
1004.805, 13124.00
1005.916, 13104.00
1007.026, 12894.00
1008.136, 12641.00
1009.246, 12707.00
1010.356, 12739.00
1011.466, 12925.00
1012.576, 13149.00
1013.685, 13211.00
1014.794, 13423.00
1015.903, 13556.00
1017.012, 13760.00
1018.121, 13835.00
1019.229, 14048.00
1020.338, 14194.00
1021.446, 14446.00
1022.554, 14526.00
1023.662, 14821.00
1024.770, 14873.00
1025.878, 14849.00
1026.985, 14881.00
1028.092, 14813.00
1029.200, 14972.00
1030.307, 14889.00
1031.413, 14930.00
1032.520, 14874.00
1033.627, 14920.00
1034.733, 14776.00
1035.839, 14547.00
1036.945, 14542.00
1038.051, 14478.00
1039.157, 14379.00
1040.262, 14037.00
1041.368, 14102.00
1042.473, 13981.00
1043.578, 13787.00
1044.683, 13782.00
1045.788, 13428.00
1046.893, 13282.00
1047.997, 13258.00
1049.101, 12940.00
1050.205, 13026.00
1051.309, 12900.00
1052.413, 12787.00
1053.517, 12494.00
1054.621, 12568.00
1055.724, 12403.00
1056.827, 12377.00
1057.930, 12342.00
1059.033, 12238.00
1060.136, 12235.00
1061.238, 12255.00
1062.341, 11997.00
1063.443, 12218.00
1064.545, 12255.00
1065.647, 12048.00
1066.749, 12006.00
1067.850, 11970.00
1068.952, 12026.00
1070.053, 12133.00
1071.154, 12117.00
1072.255, 12233.00
1073.356, 12219.00
1074.457, 12227.00
1075.557, 12094.00
1076.658, 12248.00
1077.758, 12311.00
1078.858, 12356.00
1079.958, 12476.00
1081.057, 12439.00
1082.157, 12436.00
1083.256, 12476.00
1084.356, 12479.00
1085.455, 12498.00
1086.554, 12559.00
1087.653, 12554.00
1088.751, 12556.41
1089.850, 12600.00
1090.948, 12519.00
1092.046, 12572.00
1093.144, 12545.00
1094.242, 12573.77
1095.340, 12780.00
1096.437, 12715.00
1097.534, 12786.00
1098.632, 12987.00
1099.729, 12934.00
1100.826, 12967.00
1101.922, 12970.00
1103.019, 12919.00
1104.115, 13087.00
1105.212, 13028.00
1106.308, 13140.00
1107.404, 13212.00
1108.499, 13226.00
1109.595, 13268.00
1110.691, 13306.00
1111.786, 13313.00
1112.881, 13308.00
1113.976, 13344.00
1115.071, 13107.00
1116.166, 13137.00
1117.260, 12988.00
1118.355, 12976.00
1119.449, 12705.00
1120.543, 12755.00
1121.637, 12591.00
1122.731, 12499.00
1123.824, 12551.00
1124.918, 12478.00
1126.011, 12418.00
1127.104, 12180.00
1128.197, 12305.00
1129.290, 12202.00
1130.382, 12267.00
1131.475, 12278.00
1132.567, 12143.00
1133.659, 12171.00
1134.751, 12206.00
1135.843, 12214.00
1136.935, 12233.00
1138.027, 12222.13
1139.118, 12227.10
1140.209, 12199.00
1141.300, 12195.00
1142.391, 12213.00
1143.482, 12148.00
1144.573, 12209.00
1145.663, 12209.00
1146.754, 12269.00
1147.844, 12310.40
1148.934, 12312.00
1150.024, 12395.00
1151.113, 12471.00
1152.203, 12489.00
1153.292, 12565.00
1154.381, 12587.53
1155.470, 12578.05
1156.559, 12604.00
1157.648, 12577.00
1158.737, 12508.00
1159.825, 12590.00
1160.913, 12573.00
1162.001, 12718.00
1163.089, 12591.00
1164.177, 12356.00
1165.265, 12478.00
1166.352, 12451.00
1167.440, 12500.00
1168.527, 12499.00
1169.614, 12392.00
1170.701, 12448.00
1171.788, 12437.00
1172.874, 12508.00
1173.961, 12487.00
1175.047, 12327.00
1176.133, 12425.00
1177.219, 12435.00
1178.305, 12365.00
1179.390, 12492.00
1180.476, 12359.00
1181.561, 12392.00
1182.646, 12274.00
1183.731, 12409.00
1184.816, 12296.00
1185.901, 12250.00
1186.985, 12194.00
1188.070, 12307.00
1189.154, 12316.00
1190.238, 12235.00
1191.322, 12207.00
1192.406, 12202.00
1193.489, 12191.00
1194.573, 12311.00
1195.656, 12299.00
1196.739, 12284.00
1197.822, 12197.00
1198.905, 12214.00
1199.988, 12173.34
1201.070, 12178.45
1202.153, 12173.00
1203.235, 12176.00
1204.317, 12264.00
1205.399, 12191.00
1206.481, 12307.00
1207.562, 12376.00
1208.644, 12297.00
1209.725, 12332.00
1210.806, 12369.00
1211.887, 12363.00
1212.968, 12337.00
1214.049, 12452.00
1215.129, 12569.00
1216.209, 12456.00
1217.290, 12511.00
1218.370, 12485.00
1219.450, 12399.00
1220.529, 12441.00
1221.609, 12415.00
1222.688, 12679.00
1223.768, 12561.00
1224.847, 12610.00
1225.926, 12751.00
1227.005, 12722.00
1228.083, 12787.52
1229.162, 12791.00
1230.240, 12846.00
1231.318, 12931.00
1232.396, 12989.00
1233.474, 12905.00
1234.552, 12912.00
1235.629, 13049.00
1236.707, 13004.00
1237.784, 13060.00
1238.861, 13043.00
1239.938, 13117.00
1241.015, 13051.00
1242.092, 13237.00
1243.168, 13083.00
1244.244, 13118.00
1245.321, 13210.00
1246.397, 13152.00
1247.473, 13120.00
1248.548, 13216.00
1249.624, 13116.00
1250.699, 13160.00
1251.775, 13200.00
1252.850, 13321.00
1253.925, 13211.00
1254.999, 13277.00
1256.074, 13172.00
1257.148, 13302.00
1258.223, 13223.00
1259.297, 13361.00
1260.371, 13348.00
1261.445, 13483.00
1262.519, 13486.00
1263.592, 13567.00
1264.666, 13474.00
1265.739, 13631.00
1266.812, 13649.00
1267.885, 13775.00
1268.958, 13667.00
1270.030, 13809.00
1271.103, 13677.00
1272.175, 13808.00
1273.247, 13800.00
1274.319, 13728.00
1275.391, 13735.00
1276.463, 13757.00
1277.535, 13708.48
1278.606, 13729.00
1279.677, 13665.00
1280.748, 13624.00
1281.819, 13609.00
1282.890, 13394.00
1283.961, 13469.00
1285.031, 13385.00
1286.102, 13398.00
1287.172, 13448.00
1288.242, 13517.00
1289.312, 13552.94
1290.381, 13524.00
1291.451, 13640.00
1292.520, 13697.00
1293.590, 13698.00
1294.659, 13801.00
1295.728, 13788.81
1296.797, 13671.00
1297.865, 13726.00
1298.934, 13699.00
1300.002, 13660.99
1301.070, 13683.00
1302.138, 13616.00
1303.206, 13634.00
1304.274, 13615.00
1305.341, 13651.00
1306.409, 13674.00
1307.476, 13714.00
1308.543, 13742.00
1309.610, 13768.00
1310.677, 13844.00
1311.744, 13766.00
1312.810, 13890.00
1313.877, 14005.00
1314.943, 14001.00
1316.009, 13954.00
1317.075, 13828.00
1318.140, 13931.00
1319.206, 13873.00
1320.272, 13823.00
1321.337, 13833.00
1322.402, 13771.00
1323.467, 13732.30
1324.532, 13666.00
1325.596, 13620.00
1326.661, 13557.00
1327.725, 13480.00
1328.790, 13509.00
1329.854, 13480.00
1330.918, 13484.00
1331.981, 13354.00
1333.045, 13251.00
1334.108, 13280.00
1335.172, 13380.00
1336.235, 13233.00
1337.298, 13321.00
1338.361, 13363.00
1339.423, 13382.00
1340.486, 13235.00
1341.548, 13387.00
1342.611, 13323.00
1343.673, 13407.00
1344.735, 13333.00
1345.796, 13248.00
1346.858, 13356.00
1347.919, 13420.00
1348.981, 13386.00
1350.042, 13412.00
1351.103, 13414.00
1352.164, 13272.00
1353.225, 13357.00
1354.285, 13304.00
1355.346, 13166.00
1356.406, 13350.00
1357.466, 13228.00
1358.526, 13298.00
1359.586, 13441.00
1360.645, 13511.00
1361.705, 13389.00
1362.764, 13429.00
1363.823, 13333.00
1364.882, 13623.00
1365.941, 13462.00
1367.000, 13528.00
1368.059, 13544.00
1369.117, 13560.00
1370.175, 13561.00
1371.233, 13569.00
1372.291, 13657.00
1373.349, 13698.00
1374.407, 13677.00
1375.464, 13746.00
1376.522, 13687.00
1377.579, 13738.00
1378.636, 13747.00
1379.693, 13743.00
1380.750, 13801.00
1381.806, 13677.00
1382.863, 13767.00
1383.919, 13747.00
1384.975, 13732.00
1386.031, 13902.00
1387.087, 13750.00
1388.143, 13864.00
1389.199, 13930.00
1390.254, 13926.00
1391.309, 13880.00
1392.364, 13821.00
1393.419, 13938.00
1394.474, 13702.00
1395.529, 13899.00
1396.583, 13877.00
1397.638, 13863.00
1398.692, 13783.00
1399.746, 13839.00
1400.800, 13831.00
1401.853, 13857.00
1402.907, 13683.00
1403.960, 13780.00
1405.014, 13699.00
1406.067, 13986.00
1407.120, 13896.00
1408.173, 13683.00
1409.225, 13895.00
1410.278, 13741.00
1411.330, 13751.00
1412.383, 13702.00
1413.435, 13840.00
1414.487, 13895.00
1415.538, 13802.00
1416.590, 13832.00
1417.641, 13816.00
1418.693, 13758.00
1419.744, 13936.00
1420.795, 13957.00
1421.846, 13969.00
1422.897, 14015.00
1423.947, 14026.00
1424.998, 14103.97
1426.048, 14182.08
1427.098, 14264.00
1428.148, 14423.00
1429.198, 14508.00
1430.247, 14716.00
1431.297, 14733.00
1432.346, 14896.00
1433.396, 15102.00
1434.445, 15199.00
1435.494, 15499.00
1436.542, 15671.00
1437.591, 15901.00
1438.639, 16179.00
1439.688, 16397.00
1440.736, 16524.00
1441.784, 16863.00
1442.832, 16985.00
1443.880, 17141.00
1444.927, 17007.00
1445.975, 17148.00
1447.022, 17245.00
1448.069, 17266.00
1449.116, 17335.00
1450.163, 17425.00
1451.209, 17301.00
1452.256, 17303.00
1453.302, 17367.00
1454.348, 17378.00
1455.394, 17380.00
1456.440, 17214.00
1457.486, 16978.00
1458.532, 16934.00
1459.577, 16597.00
1460.623, 16733.00
1461.668, 16415.00
1462.713, 16187.00
1463.758, 15865.00
1464.802, 15675.00
1465.847, 15706.00
1466.891, 15539.00
1467.936, 15375.00
1468.980, 15436.00
1470.024, 15404.00
1471.067, 15386.00
1472.111, 15269.00
1473.155, 15207.00
1474.198, 15134.00
1475.241, 15027.00
1476.284, 14906.00
1477.327, 14943.00
1478.370, 15061.00
1479.413, 14877.00
1480.455, 14886.00
1481.497, 14896.00
1482.540, 14816.11
1483.582, 14811.00
1484.624, 14734.00
1485.665, 14668.00
1486.707, 14561.00
1487.748, 14423.00
1488.790, 14427.00
1489.831, 14390.00
1490.872, 14411.00
1491.912, 14371.00
1492.953, 14277.00
1493.994, 14258.00
1495.034, 14233.00
1496.074, 14179.00
1497.114, 14171.00
1498.154, 14156.32
1499.194, 14122.00
1500.234, 14163.00
1501.273, 14082.00
1502.313, 14103.00
1503.352, 14158.00
1504.391, 14052.00
1505.430, 14070.00
1506.468, 14106.00
1507.507, 14075.00
1508.545, 14112.00
1509.584, 14068.00
1510.622, 14159.00
1511.660, 14137.00
1512.698, 14160.00
1513.735, 14093.00
1514.773, 14174.00
1515.810, 14166.00
1516.848, 14076.00
1517.885, 14230.00
1518.922, 14166.00
1519.958, 14266.00
1520.995, 14239.92
1522.032, 14299.84
1523.068, 14132.00
1524.104, 14355.00
1525.140, 14234.00
1526.176, 14095.00
1527.212, 14254.00
1528.248, 14302.00
1529.283, 14354.00
1530.318, 14178.00
1531.353, 14287.00
1532.389, 14340.00
1533.423, 14408.00
1534.458, 14558.00
1535.493, 14356.00
1536.527, 14449.00
1537.561, 14193.00
1538.596, 14366.00
1539.630, 14387.00
1540.663, 14352.00
1541.697, 14472.00
1542.731, 14382.00
1543.764, 14372.00
1544.797, 14454.00
1545.830, 14356.00
1546.863, 14326.00
1547.896, 14448.00
1548.929, 14403.00
1549.961, 14300.00
1550.994, 14494.00
1552.026, 14344.00
1553.058, 14500.00
1554.090, 14318.00
1555.121, 14355.00
1556.153, 14351.00
1557.185, 14341.00
1558.216, 14233.00
1559.247, 14260.00
1560.278, 14249.00
1561.309, 14447.00
1562.340, 14347.00
##END=



