##NAMES=Astrophyllite
##RRUFFID=R060103
##IDEAL CHEMISTRY=K_2_NaFe^2+^_7_Ti^4+^_2_(Si_4_O_12_)_2_O_2_(OH)_4_F
##LOCALITY=Brivik, Norway
##OWNER=RRUFF
##SOURCE=University of Arizona Mineral Museum
##DESCRIPTION=Brown fragment embedded in matrix
##STATUS=The identification of this mineral is confirmed by single-crystal X-ray diffraction and chemical analysis.
##URL=rruff.info/R060103
##MEASURED CHEMISTRY=K_2.00_Na_1.00_(Fe^2+^_0.55_Mn_0.32_Fe^3+^_0.04_Mg_0.04_Ca_0.04_)_7_(Ti_0.66_Zr_0.18_Al_0.16_)_2_Si_8.00_O_26_(OH)_4_F_1.00_
##PIN_ID=M01572
##ORIENTATION=Laser parallel to (1 1 0). Fiducial mark perpendicular to laser is parallel to c [0 0 1]
150.1650, 16729.00
151.3980, 16873.00
152.6310, 16850.00
153.8640, 16859.00
155.0960, 16853.00
156.3280, 16852.06
157.5600, 16813.00
158.7920, 16929.00
160.0240, 16888.00
161.2560, 17075.00
162.4870, 17123.99
163.7180, 17200.00
164.9490, 17298.00
166.1800, 17452.00
167.4110, 17521.00
168.6410, 17486.60
169.8720, 17524.00
171.1020, 17283.00
172.3320, 17313.00
173.5620, 17087.96
174.7910, 16907.00
176.0210, 16517.00
177.2500, 16257.00
178.4790, 16081.00
179.7080, 15859.00
180.9370, 15627.00
182.1650, 15445.00
183.3940, 15334.00
184.6220, 15227.00
185.8500, 15162.00
187.0780, 15050.54
188.3050, 14946.00
189.5330, 14863.00
190.7600, 14909.00
191.9870, 14833.00
193.2140, 14872.00
194.4410, 15049.00
195.6680, 14990.00
196.8940, 15171.00
198.1200, 15085.00
199.3470, 15011.00
200.5720, 15290.00
201.7980, 15097.00
203.0240, 15314.00
204.2490, 15295.00
205.4740, 15283.00
206.6990, 15332.00
207.9240, 15632.00
209.1490, 15750.00
210.3740, 15889.00
211.5980, 15910.00
212.8220, 16081.00
214.0460, 16176.00
215.2700, 16268.00
216.4930, 16256.00
217.7170, 16466.00
218.9400, 16577.00
220.1630, 16589.00
221.3860, 16723.00
222.6090, 16696.00
223.8320, 16891.00
225.0540, 16667.00
226.2760, 16725.00
227.4980, 16664.00
228.7200, 16404.00
229.9420, 16563.00
231.1630, 16535.00
232.3850, 16457.00
233.6060, 16267.00
234.8270, 16204.00
236.0480, 16260.00
237.2690, 16300.00
238.4890, 16180.00
239.7090, 15887.00
240.9290, 15793.00
242.1490, 15725.00
243.3690, 15700.00
244.5890, 15525.00
245.8080, 15430.00
247.0270, 15414.00
248.2470, 15312.17
249.4650, 15327.00
250.6840, 15301.00
251.9030, 15291.00
253.1210, 15465.00
254.3390, 15493.00
255.5570, 15459.00
256.7750, 15442.00
257.9930, 15516.00
259.2100, 15720.00
260.4280, 15810.00
261.6450, 15642.00
262.8620, 15544.00
264.0790, 15393.00
265.2950, 15267.00
266.5120, 15364.00
267.7280, 15347.00
268.9440, 15217.00
270.1600, 15319.00
271.3760, 15134.00
272.5920, 15036.00
273.8070, 14834.00
275.0220, 14922.00
276.2370, 14684.00
277.4520, 14653.00
278.6670, 14495.00
279.8820, 14408.00
281.0960, 14253.00
282.3100, 14093.00
283.5240, 13969.00
284.7380, 13938.00
285.9520, 13868.00
287.1650, 13914.00
288.3780, 13725.00
289.5920, 13658.00
290.8050, 13787.00
292.0170, 13880.00
293.2300, 13734.00
294.4430, 13893.00
295.6550, 13951.00
296.8670, 13971.00
298.0790, 13962.00
299.2910, 14055.00
300.5020, 14020.00
301.7140, 14096.00
302.9250, 14243.00
304.1360, 14254.00
305.3470, 14309.00
306.5580, 14480.00
307.7680, 14527.00
308.9780, 14444.00
310.1890, 14553.00
311.3990, 14561.00
312.6090, 14574.00
313.8180, 14485.00
315.0280, 14434.00
316.2370, 14361.00
317.4460, 14222.00
318.6550, 14288.00
319.8640, 14117.00
321.0730, 14017.00
322.2810, 13843.00
323.4890, 13875.00
324.6980, 13635.00
325.9060, 13659.00
327.1130, 13522.00
328.3210, 13595.00
329.5280, 13512.00
330.7360, 13362.00
331.9430, 13534.00
333.1500, 13453.00
334.3560, 13458.00
335.5630, 13577.00
336.7690, 13671.00
337.9760, 13716.00
339.1820, 13789.01
340.3870, 13842.00
341.5930, 13907.00
342.7990, 13943.00
344.0040, 14066.00
345.2090, 13895.00
346.4140, 13913.00
347.6190, 13967.00
348.8240, 13832.00
350.0280, 13779.00
351.2330, 13688.00
352.4370, 13586.00
353.6410, 13443.00
354.8440, 13344.00
356.0480, 13288.42
357.2520, 13196.00
358.4550, 13148.17
359.6580, 13074.00
360.8610, 13069.00
362.0640, 13024.00
363.2660, 13012.00
364.4690, 12966.00
365.6710, 12835.00
366.8730, 12917.00
368.0750, 12891.00
369.2770, 12745.00
370.4780, 12986.00
371.6800, 12820.00
372.8810, 12860.00
374.0820, 12940.00
375.2830, 12955.00
376.4830, 12958.00
377.6840, 12999.00
378.8840, 13059.00
380.0840, 13175.00
381.2840, 13189.00
382.4840, 13257.00
383.6840, 13306.00
384.8830, 13491.00
386.0830, 13526.00
387.2820, 13355.00
388.4810, 13703.00
389.6800, 13694.00
390.8780, 13637.00
392.0770, 13433.00
393.2750, 13454.00
394.4730, 13384.00
395.6710, 13097.00
396.8690, 13059.00
398.0660, 12982.00
399.2640, 12844.00
400.4610, 12546.00
401.6580, 12296.00
402.8550, 12330.00
404.0520, 12354.00
405.2490, 11945.00
406.4450, 11795.00
407.6410, 11841.00
408.8370, 11538.00
410.0330, 11449.00
411.2290, 11471.00
412.4240, 11350.00
413.6200, 11241.00
414.8150, 11188.00
416.0100, 11088.00
417.2050, 11090.00
418.4000, 11035.00
419.5940, 10961.00
420.7880, 11017.00
421.9830, 10915.00
423.1770, 10945.00
424.3700, 10926.00
425.5640, 10936.00
426.7580, 10964.00
427.9510, 10902.00
429.1440, 10931.00
430.3370, 10941.00
431.5300, 10895.50
432.7220, 10879.00
433.9150, 10861.00
435.1070, 10956.00
436.2990, 11011.00
437.4910, 10938.00
438.6830, 10904.00
439.8750, 10943.00
441.0660, 11005.00
442.2570, 10935.00
443.4480, 11030.00
444.6390, 11048.00
445.8300, 11056.00
447.0210, 11116.00
448.2110, 11253.00
449.4010, 11204.00
450.5910, 11183.00
451.7810, 11364.00
452.9710, 11355.00
454.1610, 11598.00
455.3500, 11377.00
456.5390, 11494.00
457.7280, 11621.00
458.9170, 11848.00
460.1060, 11769.00
461.2940, 11839.00
462.4830, 11887.00
463.6710, 11849.00
464.8590, 11950.00
466.0470, 12003.00
467.2350, 12032.00
468.4220, 12068.98
469.6090, 12063.00
470.7970, 12052.00
471.9840, 12027.00
473.1700, 11936.00
474.3570, 11928.79
475.5440, 11987.00
476.7300, 11845.00
477.9160, 11865.00
479.1020, 11794.00
480.2880, 11734.00
481.4740, 11770.00
482.6590, 11604.00
483.8440, 11647.00
485.0300, 11720.00
486.2140, 11681.00
487.3990, 11557.00
488.5840, 11703.00
489.7680, 11469.00
490.9530, 11447.00
492.1370, 11394.00
493.3210, 11590.00
494.5040, 11334.00
495.6880, 11415.00
496.8720, 11571.00
498.0550, 11345.00
499.2380, 11530.00
500.4210, 11604.00
501.6040, 11639.00
502.7860, 11596.00
503.9690, 11656.00
505.1510, 11674.00
506.3330, 11793.00
507.5150, 11722.00
508.6970, 11847.00
509.8780, 11877.00
511.0600, 12035.00
512.2410, 11999.00
513.4220, 12050.00
514.6030, 12033.00
515.7840, 12077.00
516.9640, 11991.00
518.1440, 12077.00
519.3250, 12043.00
520.5050, 12061.25
521.6850, 12180.00
522.8640, 12140.00
524.0440, 12089.00
525.2230, 12194.00
526.4020, 12217.00
527.5820, 12307.00
528.7600, 12122.00
529.9390, 12231.00
531.1180, 12175.00
532.2960, 12028.00
533.4740, 12144.00
534.6520, 12217.00
535.8300, 12016.00
537.0080, 12207.00
538.1850, 12095.00
539.3630, 12169.00
540.5400, 12213.00
541.7170, 12336.00
542.8940, 12364.09
544.0700, 12343.00
545.2470, 12443.00
546.4230, 12508.00
547.5990, 12524.00
548.7750, 12723.00
549.9510, 12675.00
551.1270, 12959.00
552.3020, 13092.00
553.4780, 13384.00
554.6530, 13341.00
555.8280, 13463.00
557.0030, 13591.00
558.1770, 13775.00
559.3520, 13893.00
560.5260, 13742.00
561.7000, 13910.00
562.8740, 13812.00
564.0480, 13735.00
565.2220, 13949.00
566.3950, 13878.00
567.5680, 13739.00
568.7420, 13678.00
569.9150, 13583.00
571.0870, 13621.00
572.2600, 13593.00
573.4320, 13506.00
574.6050, 13427.00
575.7770, 13382.00
576.9490, 13321.00
578.1210, 13430.00
579.2920, 13644.00
580.4640, 13602.00
581.6350, 14003.00
582.8060, 13879.00
583.9770, 14034.00
585.1480, 14092.00
586.3190, 14369.00
587.4890, 14386.00
588.6590, 14452.00
589.8290, 14580.00
590.9990, 14562.00
592.1690, 14542.00
593.3390, 14636.00
594.5080, 14866.00
595.6770, 14923.00
596.8470, 15169.00
598.0160, 15051.00
599.1840, 15082.00
600.3530, 15320.00
601.5210, 15249.00
602.6900, 15287.00
603.8580, 15205.00
605.0260, 15209.00
606.1930, 15276.00
607.3610, 15140.00
608.5280, 15137.00
609.6960, 15384.00
610.8630, 15483.00
612.0300, 15641.00
613.1970, 15850.00
614.3630, 16174.00
615.5300, 16861.00
616.6960, 17579.00
617.8620, 18203.00
619.0280, 18839.00
620.1940, 19716.00
621.3590, 20894.00
622.5250, 21719.00
623.6900, 22810.00
624.8550, 22962.00
626.0200, 22762.00
627.1850, 22269.00
628.3490, 21310.00
629.5140, 20559.00
630.6780, 19724.00
631.8420, 19068.00
633.0060, 18627.00
634.1700, 18360.00
635.3330, 18425.00
636.4970, 18365.00
637.6600, 18617.00
638.8230, 19170.00
639.9860, 19682.00
641.1490, 20354.00
642.3110, 21133.00
643.4740, 21940.00
644.6360, 22588.00
645.7980, 23062.00
646.9600, 23573.00
648.1220, 23864.20
649.2840, 24091.00
650.4450, 24218.00
651.6060, 24309.00
652.7670, 24029.53
653.9280, 23791.00
655.0890, 23141.00
656.2500, 22458.00
657.4100, 21702.00
658.5700, 20676.00
659.7300, 20023.00
660.8900, 19170.00
662.0500, 18444.00
663.2100, 18003.00
664.3690, 17712.00
665.5280, 17506.00
666.6880, 17088.00
667.8460, 16920.00
669.0050, 17176.00
670.1640, 17007.00
671.3220, 17034.00
672.4810, 17079.00
673.6390, 17159.00
674.7970, 17303.00
675.9540, 17675.00
677.1120, 17570.00
678.2690, 18000.00
679.4270, 18187.00
680.5840, 18401.00
681.7410, 18493.00
682.8980, 18700.00
684.0540, 18932.00
685.2110, 18950.00
686.3670, 19316.00
687.5230, 19464.00
688.6790, 19609.00
689.8350, 20086.00
690.9900, 19961.00
692.1460, 20427.00
693.3010, 20498.00
694.4560, 20555.00
695.6110, 20870.00
696.7660, 21077.00
697.9210, 21172.00
699.0750, 21292.00
700.2290, 21428.57
701.3840, 21485.00
702.5370, 21642.00
703.6910, 21690.00
704.8450, 21761.00
705.9980, 21900.00
707.1520, 21831.00
708.3050, 21666.00
709.4580, 21918.00
710.6110, 21996.00
711.7630, 21812.00
712.9160, 21878.00
714.0680, 21895.00
715.2200, 21708.00
716.3720, 21507.00
717.5240, 21550.00
718.6760, 21340.00
719.8270, 21281.00
720.9780, 21188.00
722.1300, 21090.00
723.2810, 21038.00
724.4310, 20853.43
725.5820, 20528.00
726.7330, 20514.00
727.8830, 20246.00
729.0330, 20113.59
730.1830, 20010.00
731.3330, 19754.00
732.4830, 19627.44
733.6320, 19317.00
734.7810, 19228.00
735.9310, 18900.00
737.0800, 18587.00
738.2290, 18382.00
739.3770, 18272.00
740.5260, 18112.00
741.6740, 17984.00
742.8220, 17910.00
743.9700, 17786.00
745.1180, 17878.00
746.2660, 17711.00
747.4130, 17675.00
748.5610, 17595.00
749.7080, 17453.00
750.8550, 17432.00
752.0020, 17391.00
753.1490, 17452.00
754.2950, 17394.00
755.4420, 17281.00
756.5880, 17357.00
757.7340, 17245.00
758.8800, 17572.00
760.0250, 17589.00
761.1710, 17489.00
762.3160, 17684.00
763.4620, 17660.00
764.6070, 17735.00
765.7520, 17718.00
766.8960, 17700.00
768.0410, 17741.74
769.1850, 17637.00
770.3300, 17754.00
771.4740, 17752.00
772.6180, 17705.00
773.7610, 17639.00
774.9050, 17753.00
776.0480, 17814.00
777.1920, 17855.00
778.3350, 17826.00
779.4780, 17922.00
780.6200, 17861.00
781.7630, 17819.00
782.9060, 17884.00
784.0480, 17854.73
785.1900, 17811.00
786.3320, 17936.00
787.4740, 18009.00
788.6150, 18150.00
789.7570, 18191.90
790.8980, 18197.00
792.0390, 18261.00
793.1800, 18184.00
794.3210, 18160.00
795.4620, 18186.00
796.6020, 18059.00
797.7420, 17966.00
798.8830, 17722.00
800.0230, 17761.00
801.1620, 17599.00
802.3020, 17674.00
803.4420, 17624.00
804.5810, 17511.00
805.7200, 17372.00
806.8590, 17338.00
807.9980, 17263.00
809.1370, 17293.00
810.2750, 17204.00
811.4140, 17207.00
812.5520, 16991.00
813.6900, 17158.00
814.8280, 17322.00
815.9650, 17182.00
817.1030, 17403.00
818.2400, 17191.00
819.3780, 17363.00
820.5150, 17440.00
821.6520, 17325.00
822.7880, 17394.00
823.9250, 17409.00
825.0610, 17443.00
826.1980, 17501.00
827.3340, 17493.58
828.4700, 17533.00
829.6050, 17516.00
830.7410, 17480.00
831.8760, 17525.00
833.0120, 17809.00
834.1470, 17818.00
835.2820, 17957.00
836.4160, 18119.00
837.5510, 18189.00
838.6860, 18394.00
839.8200, 18573.00
840.9540, 18944.00
842.0880, 19172.00
843.2220, 19392.00
844.3550, 19479.00
845.4890, 19587.00
846.6220, 19750.00
847.7550, 19838.00
848.8880, 19966.00
850.0210, 20274.00
851.1540, 20479.00
852.2860, 20845.00
853.4190, 21263.00
854.5510, 21775.00
855.6830, 22287.00
856.8150, 22983.00
857.9460, 23329.00
859.0780, 23925.00
860.2090, 23778.00
861.3410, 23797.00
862.4720, 23398.00
863.6020, 22725.00
864.7330, 21920.00
865.8640, 21547.00
866.9940, 21087.00
868.1240, 20695.00
869.2540, 20273.00
870.3840, 20147.00
871.5140, 19993.00
872.6440, 19752.00
873.7730, 19674.00
874.9020, 19608.00
876.0320, 19552.00
877.1600, 19451.96
878.2890, 19440.00
879.4180, 19282.00
880.5460, 19269.00
881.6750, 19241.00
882.8030, 19155.00
883.9310, 19190.00
885.0590, 19099.00
886.1860, 19073.47
887.3140, 19292.00
888.4410, 18998.00
889.5680, 19282.00
890.6950, 19279.00
891.8220, 19354.00
892.9490, 19387.00
894.0750, 19450.00
895.2020, 19577.00
896.3280, 19553.00
897.4540, 19729.00
898.5800, 19675.00
899.7050, 19551.00
900.8310, 19675.00
901.9560, 19452.00
903.0820, 19615.00
904.2070, 19579.00
905.3320, 19735.00
906.4560, 19718.59
907.5810, 19628.00
908.7050, 19692.00
909.8300, 19657.00
910.9540, 19624.00
912.0780, 19550.00
913.2010, 19452.00
914.3250, 19410.00
915.4480, 19161.00
916.5720, 18916.00
917.6950, 18905.00
918.8180, 18907.00
919.9410, 18653.00
921.0630, 18673.00
922.1860, 18401.00
923.3080, 18678.00
924.4300, 18715.00
925.5520, 18604.00
926.6740, 18707.00
927.7960, 18733.98
928.9170, 18762.10
930.0390, 18909.00
931.1600, 18805.00
932.2810, 18934.00
933.4020, 18788.00
934.5230, 18984.00
935.6430, 18797.13
936.7640, 18816.00
937.8840, 18570.00
939.0040, 18436.00
940.1240, 18511.00
941.2440, 18257.00
942.3630, 18320.00
943.4830, 18120.00
944.6020, 18340.00
945.7210, 18248.00
946.8400, 18399.00
947.9590, 18493.00
949.0770, 18527.00
950.1960, 18593.21
951.3140, 18565.00
952.4320, 18633.00
953.5500, 18725.00
954.6680, 18744.00
955.7860, 18576.00
956.9030, 18421.00
958.0210, 18138.00
959.1380, 18083.00
960.2550, 18072.00
961.3720, 17812.00
962.4890, 17895.00
963.6050, 17732.00
964.7220, 17631.00
965.8380, 17494.00
966.9540, 17420.00
968.0700, 17150.00
969.1860, 17179.00
970.3010, 17049.00
971.4170, 17001.00
972.5320, 16986.00
973.6470, 16650.00
974.7620, 16605.00
975.8770, 16464.00
976.9910, 16470.95
978.1060, 16495.00
979.2200, 16658.00
980.3340, 16759.00
981.4480, 16934.00
982.5620, 17131.00
983.6760, 17249.61
984.7890, 17426.00
985.9030, 17553.00
987.0160, 17586.00
988.1290, 17760.00
989.2420, 17794.00
990.3550, 17821.00
991.4670, 17888.00
992.5800, 18141.00
993.6920, 18438.00
994.8040, 18807.00
995.9160, 19448.00
997.0280, 20302.00
998.1390, 21571.00
999.2510, 22932.00
1000.362, 24283.00
1001.473, 24846.00
1002.584, 24488.00
1003.695, 23336.00
1004.805, 22158.00
1005.916, 21309.00
1007.026, 20738.00
1008.136, 20584.00
1009.246, 20933.00
1010.356, 21091.00
1011.466, 21303.00
1012.576, 21838.00
1013.685, 22391.00
1014.794, 22967.00
1015.903, 23711.00
1017.012, 24391.00
1018.121, 25038.00
1019.229, 25655.20
1020.338, 26374.00
1021.446, 26790.00
1022.554, 27238.00
1023.662, 27759.00
1024.770, 27947.00
1025.878, 28183.51
1026.985, 28235.00
1028.092, 28309.00
1029.200, 28384.00
1030.307, 28278.00
1031.413, 28169.00
1032.520, 28158.00
1033.627, 27767.00
1034.733, 27581.00
1035.839, 27267.00
1036.945, 27046.00
1038.051, 26655.23
1039.157, 26258.58
1040.262, 25815.00
1041.368, 25334.00
1042.473, 24859.00
1043.578, 24345.00
1044.683, 23932.00
1045.788, 23379.00
1046.893, 23010.00
1047.997, 22587.00
1049.101, 22029.00
1050.205, 21716.00
1051.309, 21241.67
1052.413, 20730.00
1053.517, 20403.00
1054.621, 19982.00
1055.724, 19557.00
1056.827, 19443.00
1057.930, 19005.00
1059.033, 19039.00
1060.136, 18703.00
1061.238, 18722.00
1062.341, 18905.00
1063.443, 18281.00
1064.545, 18238.00
1065.647, 18366.00
1066.749, 18245.00
1067.850, 18358.00
1068.952, 18281.00
1070.053, 18319.00
1071.154, 18431.00
1072.255, 18598.00
1073.356, 18833.00
1074.457, 19072.00
1075.557, 19263.00
1076.658, 19449.00
1077.758, 19756.00
1078.858, 19886.00
1079.958, 20326.00
1081.057, 20505.00
1082.157, 20596.00
1083.256, 20439.00
1084.356, 20362.00
1085.455, 20080.00
1086.554, 20030.00
1087.653, 19821.00
1088.751, 19509.00
1089.850, 19226.00
1090.948, 19106.00
1092.046, 19032.00
1093.144, 18906.00
1094.242, 18876.00
1095.340, 18558.00
1096.437, 18490.00
1097.534, 18490.00
1098.632, 18565.00
1099.729, 18380.00
1100.826, 18213.00
1101.922, 18328.00
1103.019, 18358.00
1104.115, 18572.00
1105.212, 18788.00
1106.308, 18925.00
1107.404, 19026.00
1108.499, 18815.00
1109.595, 18845.00
1110.691, 18703.00
1111.786, 18681.00
1112.881, 18517.00
1113.976, 18591.00
1115.071, 18190.00
1116.166, 18019.00
1117.260, 17871.00
1118.355, 17946.00
1119.449, 17943.00
1120.543, 17899.00
1121.637, 17931.70
1122.731, 17856.00
1123.824, 17922.00
1124.918, 17915.00
1126.011, 17906.00
1127.104, 17759.00
1128.197, 17749.00
1129.290, 17850.00
1130.382, 17954.00
1131.475, 17773.00
1132.567, 17804.00
1133.659, 17671.00
1134.751, 17704.00
1135.843, 17559.96
1136.935, 17351.93
1138.027, 17363.00
1139.118, 17258.21
1140.209, 17046.00
1141.300, 17186.00
1142.391, 17116.00
1143.482, 17059.00
1144.573, 17102.00
1145.663, 17101.00
1146.754, 17170.00
1147.844, 17326.00
1148.934, 17126.00
1150.024, 17228.00
1151.113, 17148.00
1152.203, 17019.00
1153.292, 17301.00
1154.381, 17404.00
1155.470, 17302.00
1156.559, 17270.00
1157.648, 17347.00
1158.737, 17557.00
1159.825, 17498.00
1160.913, 17606.00
1162.001, 17764.00
1163.089, 17627.00
1164.177, 17896.00
1165.265, 17658.00
1166.352, 17820.00
1167.440, 18003.00
1168.527, 18009.00
1169.614, 18126.00
1170.701, 18304.00
1171.788, 18249.00
1172.874, 18244.00
1173.961, 18388.00
1175.047, 18201.00
1176.133, 18135.00
1177.219, 18250.00
1178.305, 18225.00
1179.390, 18210.04
1180.476, 18260.00
1181.561, 18085.00
1182.646, 18161.00
1183.731, 17937.00
1184.816, 18019.00
1185.901, 18151.00
1186.985, 18064.00
1188.070, 18069.00
1189.154, 17988.00
1190.238, 17939.00
1191.322, 17818.00
1192.406, 17561.00
1193.489, 17608.00
1194.573, 17577.00
1195.656, 17807.00
1196.739, 17551.00
1197.822, 17866.00
1198.905, 17733.00
1199.988, 17775.00
1201.070, 17778.00
1202.153, 17810.00
1203.235, 17875.00
1204.317, 17868.00
1205.399, 17728.00
1206.481, 17797.00
1207.562, 17968.00
1208.644, 17815.00
1209.725, 17978.00
1210.806, 18125.00
1211.887, 18353.00
1212.968, 18407.00
1214.049, 18698.00
1215.129, 18703.00
1216.209, 18637.00
1217.290, 18661.00
1218.370, 18522.00
1219.450, 18559.00
1220.529, 18413.00
1221.609, 18426.00
1222.688, 18291.00
1223.768, 18492.00
1224.847, 18444.00
1225.926, 18505.00
1227.005, 18854.00
1228.083, 18682.00
1229.162, 18859.00
1230.240, 18875.00
1231.318, 19053.00
1232.396, 19234.00
1233.474, 19380.00
1234.552, 19501.96
1235.629, 19596.58
1236.707, 19689.00
1237.784, 19686.00
1238.861, 19732.00
1239.938, 19677.00
1241.015, 19515.00
1242.092, 19579.00
1243.168, 19589.00
1244.244, 19849.00
1245.321, 19881.00
1246.397, 19963.00
1247.473, 20082.00
1248.548, 20120.00
1249.624, 19911.00
1250.699, 20057.00
1251.775, 19872.00
1252.850, 20244.00
1253.925, 20148.00
1254.999, 20163.00
1256.074, 20431.00
1257.148, 20612.00
1258.223, 20506.00
1259.297, 20658.00
1260.371, 20878.00
1261.445, 21245.00
1262.519, 21514.00
1263.592, 21713.00
1264.666, 21818.00
1265.739, 22018.00
1266.812, 22229.00
1267.885, 22657.00
1268.958, 22549.00
1270.030, 22688.00
1271.103, 22907.00
1272.175, 22714.00
1273.247, 22712.00
1274.319, 22610.00
1275.391, 22444.00
1276.463, 22298.00
1277.535, 22029.00
1278.606, 22025.00
1279.677, 21723.00
1280.748, 21718.00
1281.819, 21701.00
1282.890, 21489.00
1283.961, 21413.00
1285.031, 21363.00
1286.102, 21222.00
1287.172, 21368.00
1288.242, 21355.00
1289.312, 21735.00
1290.381, 21928.00
1291.451, 22307.00
1292.520, 22473.00
1293.590, 22720.00
1294.659, 22624.00
1295.728, 22663.38
1296.797, 22447.00
1297.865, 22422.00
1298.934, 22285.00
1300.002, 22015.00
1301.070, 22247.00
1302.138, 22133.00
1303.206, 22578.00
1304.274, 22643.00
1305.341, 23065.00
1306.409, 23249.94
1307.476, 23132.00
1308.543, 23635.00
1309.610, 23560.00
1310.677, 23673.00
1311.744, 23745.00
1312.810, 23644.00
1313.877, 23624.00
1314.943, 23620.00
1316.009, 23542.00
1317.075, 23453.96
1318.140, 23435.00
1319.206, 23167.00
1320.272, 22998.00
1321.337, 22753.00
1322.402, 22301.00
1323.467, 21899.00
1324.532, 21371.00
1325.596, 21074.00
1326.661, 20668.00
1327.725, 20425.00
1328.790, 20119.00
1329.854, 19874.00
1330.918, 19718.00
1331.981, 19408.00
1333.045, 19363.00
1334.108, 19245.00
1335.172, 18917.00
1336.235, 18995.00
1337.298, 18989.00
1338.361, 19044.00
1339.423, 18864.00
1340.486, 18811.00
1341.548, 18829.00
1342.611, 18996.00
1343.673, 18978.00
1344.735, 19004.00
1345.796, 19040.00
1346.858, 18917.00
1347.919, 18812.00
1348.981, 18951.00
1350.042, 18781.00
1351.103, 18688.00
1352.164, 18732.00
1353.225, 18633.00
1354.285, 18543.00
1355.346, 18413.00
1356.406, 18441.00
1357.466, 18418.00
1358.526, 18391.00
1359.586, 18394.24
1360.645, 18387.86
1361.705, 18360.00
1362.764, 18424.00
1363.823, 18479.35
1364.882, 18457.00
1365.941, 18692.00
1367.000, 18884.00
1368.059, 19057.00
1369.117, 18969.00
1370.175, 18947.00
1371.233, 19026.00
1372.291, 19073.00
1373.349, 19195.00
1374.407, 19259.00
1375.464, 19418.00
1376.522, 19564.00
1377.579, 19705.00
1378.636, 19698.00
1379.693, 19764.00
1380.750, 19559.00
1381.806, 19588.00
1382.863, 19755.00
1383.919, 19458.00
1384.975, 19487.03
1386.031, 19506.00
1387.087, 19411.00
1388.143, 19404.97
1389.199, 19418.00
1390.254, 19278.00
1391.309, 19200.00
1392.364, 19097.00
1393.419, 18858.00
1394.474, 18749.00
1395.529, 18642.00
1396.583, 18532.00
1397.638, 18510.00
1398.692, 18365.00
1399.746, 18435.00
1400.800, 18370.00
1401.853, 18261.00
1402.907, 18388.00
1403.960, 18380.00
1405.014, 18321.00
1406.067, 18541.00
1407.120, 18383.00
1408.173, 18363.00
1409.225, 18599.00
1410.278, 18363.00
1411.330, 18534.00
1412.383, 18659.00
1413.435, 18636.00
1414.487, 18574.00
1415.538, 18510.00
1416.590, 18573.00
1417.641, 18579.00
1418.693, 18574.00
1419.744, 18554.00
1420.795, 18710.00
1421.846, 18800.00
1422.897, 18797.00
1423.947, 19000.00
1424.998, 19239.00
1426.048, 19299.00
1427.098, 19386.00
1428.148, 19635.00
1429.198, 19925.00
1430.247, 20324.00
1431.297, 20740.00
1432.346, 21153.00
1433.396, 21389.00
1434.445, 22061.00
1435.494, 22725.00
1436.542, 23368.00
1437.591, 24234.00
1438.639, 25024.00
1439.688, 25552.00
1440.736, 26153.00
1441.784, 26952.00
1442.832, 27549.00
1443.880, 27901.00
1444.927, 28242.00
1445.975, 28599.00
1447.022, 28894.00
1448.069, 29184.00
1449.116, 29358.00
1450.163, 29472.00
1451.209, 29792.00
1452.256, 29825.00
1453.302, 30020.00
1454.348, 29870.00
1455.394, 29932.00
1456.440, 29583.00
1457.486, 29315.00
1458.532, 28757.00
1459.577, 28275.00
1460.623, 27628.00
1461.668, 27043.00
1462.713, 26699.00
1463.758, 26026.00
1464.802, 25326.00
1465.847, 24909.00
1466.891, 24106.00
1467.936, 23853.00
1468.980, 23341.00
1470.024, 22808.00
1471.067, 22544.00
1472.111, 22389.00
1473.155, 22203.00
1474.198, 22011.54
1475.241, 21938.00
1476.284, 21754.00
1477.327, 21761.00
1478.370, 21829.00
1479.413, 21593.00
1480.455, 21480.00
1481.497, 21096.00
1482.540, 20921.00
1483.582, 20731.00
1484.624, 20288.00
1485.665, 20043.00
1486.707, 19600.00
1487.748, 19574.00
1488.790, 19138.00
1489.831, 18837.00
1490.872, 18791.00
1491.912, 18519.00
1492.953, 18249.00
1493.994, 18023.00
1495.034, 17895.38
1496.074, 17794.63
1497.114, 17786.00
1498.154, 17731.00
1499.194, 17842.00
1500.234, 17831.00
1501.273, 17770.19
1502.313, 17614.00
1503.352, 17649.00
1504.391, 17484.00
1505.430, 17466.00
1506.468, 17524.00
1507.507, 17444.00
1508.545, 17625.00
1509.584, 17504.00
1510.622, 17602.00
1511.660, 17491.00
1512.698, 17575.00
1513.735, 17787.00
1514.773, 17738.00
1515.810, 17861.00
1516.848, 17823.00
1517.885, 17844.00
1518.922, 17897.00
1519.958, 18025.00
1520.995, 18026.00
1522.032, 17858.00
1523.068, 18148.00
1524.104, 17934.00
1525.140, 18331.00
1526.176, 18172.00
1527.212, 18346.00
1528.248, 18226.00
1529.283, 18430.00
1530.318, 18384.00
1531.353, 18451.00
1532.389, 18432.00
1533.423, 18575.00
1534.458, 18640.00
1535.493, 18738.00
1536.527, 18534.00
1537.561, 18595.00
1538.596, 18413.00
1539.630, 18539.00
1540.663, 18398.00
1541.697, 18323.00
1542.731, 18538.00
1543.764, 18466.00
1544.797, 18353.00
1545.830, 18488.00
1546.863, 18158.00
1547.896, 18243.00
1548.929, 18182.00
1549.961, 18266.00
1550.994, 18181.00
1552.026, 18324.00
1553.058, 18222.00
1554.090, 18111.00
1555.121, 18103.00
1556.153, 17884.00
1557.185, 18092.00
1558.216, 17853.00
1559.247, 17916.00
1560.278, 17821.00
1561.309, 18038.00
1562.340, 18038.00
##END=



