##NAMES=Astrophyllite
##RRUFFID=R060202
##IDEAL CHEMISTRY=K_2_NaFe^2+^_7_Ti^4+^_2_(Si_4_O_12_)_2_O_2_(OH)_4_F
##LOCALITY=Demix Quarry, Mont Saint-Hilaire, Rouville County, Quebec, Canada
##OWNER=RRUFF
##SOURCE=Royal Ontario Museum
##DESCRIPTION=Aggregate of brown splintered wafers
##STATUS=The identification of this mineral has been confirmed by X-ray diffraction and chemical analysis
##URL=rruff.info/R060202
##MEASURED CHEMISTRY=(K_0.56_Na_0.38_Ca_0.06_)_3_(Fe^2+^_0.52_Mn_0.44_Mg_0.04_)_7_(Ti_0.75_Zr_0.15_Al_0.15_)_2_Si_8_O_24_(O_0.27_OH_0.73_)_7_
##PIN_ID=M00349
##ORIENTATION=Laser parallel to a* (1 0 0). Fiducial mark perpendicular to laser is parallel to b [0 1 0]
121.8270, 26899.00
123.0580, 27396.00
124.2880, 27490.00
125.5190, 27337.00
126.7490, 27488.00
127.9790, 27681.00
129.2090, 28145.00
130.4390, 28417.00
131.6680, 28942.00
132.8980, 28861.00
134.1270, 29070.00
135.3560, 28888.00
136.5850, 28966.00
137.8140, 28805.00
139.0430, 28610.00
140.2710, 28215.00
141.5000, 27448.00
142.7280, 27063.00
143.9560, 26923.00
145.1840, 26750.00
146.4120, 26795.00
147.6390, 26876.00
148.8670, 27122.00
150.0940, 27563.00
151.3210, 27682.00
152.5490, 28078.00
153.7750, 28170.00
155.0020, 28924.00
156.2290, 29075.00
157.4550, 29210.00
158.6810, 29898.00
159.9080, 30379.00
161.1340, 31021.00
162.3590, 31946.00
163.5850, 32178.00
164.8110, 32894.00
166.0360, 33095.00
167.2610, 33480.00
168.4860, 33695.00
169.7110, 33501.00
170.9360, 33363.00
172.1610, 32555.00
173.3850, 32210.00
174.6100, 31409.00
175.8340, 30967.00
177.0580, 30390.00
178.2820, 29763.00
179.5050, 29382.00
180.7290, 29039.00
181.9520, 28759.00
183.1760, 28548.00
184.3990, 28675.00
185.6220, 28369.00
186.8450, 28663.00
188.0670, 28434.00
189.2900, 28530.00
190.5120, 28713.00
191.7340, 28650.00
192.9560, 28766.00
194.1780, 28646.00
195.4000, 29060.00
196.6220, 28815.00
197.8430, 29001.00
199.0640, 29334.00
200.2860, 29454.00
201.5070, 29824.00
202.7270, 29908.00
203.9480, 29652.00
205.1690, 28961.00
206.3890, 28317.00
207.6090, 28518.00
208.8290, 28322.00
210.0490, 28530.00
211.2690, 28839.00
212.4890, 28778.00
213.7080, 29179.00
214.9280, 29249.00
216.1470, 29334.00
217.3660, 29417.00
218.5850, 29387.00
219.8030, 29363.00
221.0220, 29391.00
222.2400, 29526.00
223.4590, 29540.50
224.6770, 29670.00
225.8950, 29700.00
227.1120, 29845.00
228.3300, 29974.00
229.5480, 29831.00
230.7650, 30283.00
231.9820, 30147.00
233.1990, 30359.00
234.4160, 30174.00
235.6330, 30501.00
236.8490, 30296.00
238.0660, 30324.00
239.2820, 30509.00
240.4980, 30406.00
241.7140, 30529.00
242.9300, 30411.00
244.1460, 30523.00
245.3610, 30602.00
246.5770, 30556.00
247.7920, 30524.00
249.0070, 30381.00
250.2220, 30395.39
251.4370, 30609.00
252.6510, 30418.00
253.8660, 30309.00
255.0800, 30430.00
256.2940, 30132.00
257.5080, 30477.00
258.7220, 30346.16
259.9360, 30184.64
261.1490, 30196.00
262.3630, 29863.00
263.5760, 29488.00
264.7890, 29425.00
266.0020, 29350.00
267.2150, 29560.00
268.4270, 29342.00
269.6400, 29410.00
270.8520, 29191.00
272.0640, 29390.00
273.2760, 29190.00
274.4880, 29297.23
275.7000, 29260.80
276.9120, 29381.00
278.1230, 29287.00
279.3340, 29119.00
280.5450, 29327.00
281.7560, 29283.00
282.9670, 29199.00
284.1780, 29524.00
285.3880, 29403.00
286.5980, 29453.00
287.8090, 29457.00
289.0190, 29511.00
290.2290, 29522.00
291.4380, 29667.00
292.6480, 29646.00
293.8570, 29562.00
295.0670, 29503.00
296.2760, 29682.00
297.4850, 29485.00
298.6930, 29738.00
299.9020, 29815.00
301.1110, 29742.00
302.3190, 29564.00
303.5270, 29799.00
304.7350, 29742.00
305.9430, 29505.00
307.1510, 29823.00
308.3580, 29722.00
309.5660, 29859.00
310.7730, 29792.00
311.9800, 29958.00
313.1870, 29789.00
314.3940, 29799.00
315.6010, 29935.00
316.8070, 29744.00
318.0130, 29789.00
319.2200, 29679.00
320.4260, 29772.00
321.6310, 29727.00
322.8370, 29677.00
324.0430, 29489.00
325.2480, 29764.00
326.4540, 29927.00
327.6590, 30032.00
328.8640, 29896.00
330.0680, 30052.00
331.2730, 30001.00
332.4780, 30017.00
333.6820, 30330.00
334.8860, 30272.00
336.0900, 30398.00
337.2940, 30429.00
338.4980, 30644.00
339.7010, 30447.00
340.9050, 30466.00
342.1080, 30576.00
343.3110, 30783.00
344.5140, 30549.00
345.7170, 30727.00
346.9200, 30704.00
348.1220, 30500.00
349.3240, 30586.00
350.5270, 30603.00
351.7290, 30623.00
352.9310, 30591.95
354.1320, 30533.00
355.3340, 30437.00
356.5350, 30408.00
357.7370, 30254.00
358.9380, 30449.00
360.1390, 30511.00
361.3400, 30451.00
362.5400, 30241.00
363.7410, 30183.00
364.9410, 30095.00
366.1410, 30280.00
367.3410, 29980.00
368.5410, 30055.00
369.7410, 30047.00
370.9400, 29896.00
372.1400, 29817.00
373.3390, 29819.00
374.5380, 29590.00
375.7370, 29754.00
376.9360, 29795.00
378.1350, 29652.00
379.3330, 29705.00
380.5310, 29479.00
381.7300, 29494.00
382.9280, 29588.00
384.1260, 29261.00
385.3230, 29658.00
386.5210, 29571.00
387.7180, 29531.00
388.9160, 29577.00
390.1130, 29590.67
391.3100, 29690.00
392.5060, 29698.00
393.7030, 29785.00
394.9000, 29779.00
396.0960, 29758.00
397.2920, 29560.00
398.4880, 29589.00
399.6840, 29275.00
400.8800, 29041.00
402.0750, 28972.00
403.2710, 28937.00
404.4660, 28704.00
405.6610, 28684.00
406.8560, 28504.00
408.0510, 28474.00
409.2450, 28415.00
410.4400, 28492.00
411.6340, 28169.00
412.8280, 28439.00
414.0220, 28302.00
415.2160, 28410.00
416.4100, 28239.00
417.6030, 28174.00
418.7970, 28292.00
419.9900, 28290.00
421.1830, 28250.00
422.3760, 28057.00
423.5690, 27938.00
424.7610, 27829.00
425.9540, 28003.00
427.1460, 28015.00
428.3380, 27889.00
429.5300, 27753.00
430.7220, 27561.00
431.9140, 27570.00
433.1050, 27367.00
434.2970, 27563.00
435.4880, 27588.00
436.6790, 27396.00
437.8700, 27233.00
439.0610, 27333.00
440.2510, 27435.00
441.4420, 27399.00
442.6320, 27330.00
443.8220, 27553.00
445.0120, 27493.00
446.2020, 27507.00
447.3910, 27332.00
448.5810, 27735.00
449.7700, 27476.00
450.9600, 27685.00
452.1490, 27635.00
453.3370, 27680.00
454.5260, 27518.00
455.7150, 27669.00
456.9030, 28028.00
458.0910, 27708.00
459.2800, 27749.00
460.4670, 27845.00
461.6550, 27667.00
462.8430, 27918.00
464.0300, 27998.00
465.2180, 27697.00
466.4050, 28013.00
467.5920, 28056.00
468.7790, 28060.00
469.9650, 28115.00
471.1520, 28143.81
472.3380, 28143.00
473.5250, 28160.00
474.7110, 28083.00
475.8970, 27954.00
477.0820, 28181.00
478.2680, 27942.00
479.4540, 28170.00
480.6390, 28104.00
481.8240, 28013.00
483.0090, 28042.35
484.1940, 28033.26
485.3780, 27994.00
486.5630, 28068.00
487.7470, 28234.00
488.9320, 28176.00
490.1160, 28135.00
491.3000, 28256.00
492.4830, 28000.00
493.6670, 27853.00
494.8500, 28155.00
496.0340, 28090.00
497.2170, 28098.00
498.4000, 28225.00
499.5820, 28183.63
500.7650, 28084.00
501.9480, 28231.00
503.1300, 28226.00
504.3120, 28260.00
505.4940, 28272.00
506.6760, 28231.00
507.8580, 28229.00
509.0390, 28343.00
510.2210, 28371.00
511.4020, 28304.00
512.5830, 28372.00
513.7640, 28339.00
514.9450, 28434.00
516.1250, 28540.00
517.3060, 28467.00
518.4860, 28593.59
519.6660, 28748.00
520.8460, 28701.00
522.0260, 28693.00
523.2060, 28685.00
524.3850, 28782.00
525.5650, 28831.00
526.7440, 28796.00
527.9230, 28919.00
529.1020, 28841.00
530.2810, 28953.00
531.4590, 28953.00
532.6380, 29170.00
533.8160, 29189.00
534.9940, 29458.00
536.1720, 29435.00
537.3500, 29661.00
538.5270, 29644.00
539.7050, 29911.00
540.8820, 29828.00
542.0590, 30071.00
543.2360, 30351.00
544.4130, 30602.00
545.5900, 30833.43
546.7660, 30968.00
547.9430, 31248.00
549.1190, 31317.00
550.2950, 31427.00
551.4710, 31588.00
552.6470, 31855.00
553.8220, 31942.00
554.9980, 32041.00
556.1730, 31786.00
557.3480, 31948.00
558.5230, 31936.00
559.6980, 31528.00
560.8730, 31825.00
562.0470, 31956.00
563.2220, 31676.00
564.3960, 31813.00
565.5700, 31691.00
566.7440, 31747.00
567.9170, 31545.00
569.0910, 31619.00
570.2640, 31585.00
571.4380, 31651.00
572.6110, 31689.00
573.7840, 31634.00
574.9570, 31581.00
576.1290, 31697.00
577.3020, 31867.00
578.4740, 31779.00
579.6460, 31771.00
580.8180, 32102.00
581.9900, 32016.00
583.1620, 32004.00
584.3330, 32125.00
585.5040, 32384.00
586.6760, 32297.00
587.8470, 32481.00
589.0180, 32443.00
590.1880, 32667.00
591.3590, 32593.00
592.5290, 32821.00
593.7000, 33106.00
594.8700, 32907.00
596.0400, 33091.00
597.2090, 33040.00
598.3790, 33369.00
599.5490, 33391.00
600.7180, 33528.00
601.8870, 33692.00
603.0560, 33780.00
604.2250, 33673.00
605.3940, 33967.00
606.5620, 34010.00
607.7300, 33943.00
608.8990, 34097.00
610.0670, 34119.00
611.2350, 34283.00
612.4020, 34540.00
613.5700, 34463.00
614.7370, 34712.00
615.9050, 34907.00
617.0720, 34702.00
618.2390, 35062.00
619.4060, 35172.00
620.5720, 35517.00
621.7390, 35557.00
622.9050, 35514.00
624.0710, 35576.00
625.2370, 35933.00
626.4030, 36130.00
627.5690, 36142.00
628.7340, 36718.00
629.9000, 36693.00
631.0650, 36958.00
632.2300, 37387.00
633.3950, 37460.00
634.5600, 37739.24
635.7240, 37948.00
636.8890, 38169.00
638.0530, 38454.00
639.2170, 38813.00
640.3810, 39297.00
641.5450, 39729.00
642.7080, 40272.48
643.8720, 41116.00
645.0350, 41485.00
646.1980, 42203.00
647.3610, 42962.00
648.5240, 43411.00
649.6870, 43857.00
650.8490, 44103.00
652.0120, 44207.82
653.1740, 44117.00
654.3360, 44082.00
655.4980, 43596.00
656.6600, 43281.00
657.8210, 43099.00
658.9830, 42791.00
660.1440, 42409.00
661.3050, 42212.00
662.4660, 41974.00
663.6270, 41901.00
664.7870, 41692.00
665.9480, 42022.00
667.1080, 42034.00
668.2680, 42395.00
669.4280, 42191.00
670.5880, 42554.00
671.7480, 42828.00
672.9070, 43147.00
674.0670, 43387.07
675.2260, 43627.00
676.3850, 43830.00
677.5440, 44138.00
678.7030, 44361.00
679.8610, 44663.57
681.0200, 45010.00
682.1780, 45305.00
683.3360, 45515.00
684.4940, 45893.00
685.6520, 45894.00
686.8090, 46086.00
687.9670, 46325.00
689.1240, 46452.00
690.2810, 46584.46
691.4380, 46746.00
692.5950, 46886.00
693.7520, 46964.00
694.9080, 47360.00
696.0650, 47357.00
697.2210, 47714.00
698.3770, 47524.00
699.5330, 47397.00
700.6880, 47750.00
701.8440, 47673.00
702.9990, 47482.00
704.1550, 47733.00
705.3100, 47746.00
706.4650, 47599.00
707.6190, 47525.00
708.7740, 47341.00
709.9290, 47119.00
711.0830, 46990.74
712.2370, 46818.00
713.3910, 46593.00
714.5450, 46424.00
715.6980, 46109.90
716.8520, 46098.00
718.0050, 45532.00
719.1580, 45399.00
720.3110, 44985.00
721.4640, 45111.00
722.6170, 44772.00
723.7700, 44449.00
724.9220, 44150.00
726.0740, 43603.00
727.2260, 43496.00
728.3780, 43014.00
729.5300, 43267.00
730.6810, 42687.00
731.8330, 42640.00
732.9840, 42470.00
734.1350, 42141.00
735.2860, 42061.00
736.4370, 41543.00
737.5880, 41715.00
738.7380, 41180.00
739.8880, 41627.00
741.0390, 41203.00
742.1890, 41130.00
743.3380, 41473.00
744.4880, 41263.00
745.6380, 40852.00
746.7870, 40958.00
747.9360, 40865.00
749.0850, 41167.00
750.2340, 41026.00
751.3830, 40968.00
752.5310, 40630.00
753.6800, 40653.00
754.8280, 40836.00
755.9760, 40754.00
757.1240, 40711.00
758.2720, 40491.00
759.4190, 40553.00
760.5670, 40651.00
761.7140, 40420.00
762.8610, 40383.00
764.0080, 40318.00
765.1550, 40400.00
766.3020, 40133.00
767.4480, 40071.00
768.5950, 40244.00
769.7410, 40032.00
770.8870, 40169.00
772.0330, 40059.00
773.1780, 40035.00
774.3240, 40107.00
775.4690, 39886.00
776.6140, 40061.00
777.7590, 39913.00
778.9040, 39876.00
780.0490, 39901.00
781.1940, 39879.00
782.3380, 40018.00
783.4820, 40039.00
784.6260, 39946.00
785.7700, 39780.00
786.9140, 39703.00
788.0580, 39675.00
789.2010, 39554.00
790.3450, 39407.00
791.4880, 39425.00
792.6310, 39219.00
793.7730, 39125.00
794.9160, 38827.00
796.0590, 38662.00
797.2010, 38690.00
798.3430, 38173.00
799.4850, 38377.00
800.6270, 37949.00
801.7690, 37903.00
802.9100, 38033.00
804.0520, 37814.00
805.1930, 37418.00
806.3340, 37206.00
807.4750, 37178.00
808.6160, 37307.00
809.7560, 36869.00
810.8970, 37050.00
812.0370, 36716.00
813.1770, 36779.00
814.3170, 36662.00
815.4570, 36686.00
816.5960, 36706.00
817.7360, 36734.00
818.8750, 36730.00
820.0140, 36509.00
821.1530, 36455.00
822.2920, 36310.00
823.4310, 36288.00
824.5690, 36250.00
825.7070, 36240.00
826.8460, 36192.00
827.9840, 36226.00
829.1220, 36278.00
830.2590, 36175.00
831.3970, 36138.00
832.5340, 36201.00
833.6710, 36170.17
834.8080, 36105.00
835.9450, 36211.00
837.0820, 36243.00
838.2190, 36227.00
839.3550, 36104.00
840.4910, 36203.00
841.6270, 36150.00
842.7630, 36422.00
843.8990, 36343.00
845.0350, 36571.00
846.1700, 36254.00
847.3060, 36378.00
848.4410, 36427.00
849.5760, 36435.85
850.7100, 36552.80
851.8450, 36578.00
852.9800, 36689.00
854.1140, 36578.00
855.2480, 36554.00
856.3820, 36812.00
857.5160, 37072.00
858.6500, 36867.00
859.7830, 37161.00
860.9170, 36865.00
862.0500, 37083.00
863.1830, 36966.00
864.3160, 37225.00
865.4480, 37236.00
866.5810, 37437.68
867.7130, 37582.39
868.8460, 37779.00
869.9780, 37911.00
871.1100, 37828.00
872.2410, 38036.00
873.3730, 37956.00
874.5050, 38020.00
875.6360, 38266.00
876.7670, 38213.00
877.8980, 38292.00
879.0290, 38582.00
880.1590, 38639.00
881.2900, 39008.00
882.4200, 39060.00
883.5500, 39253.00
884.6800, 39398.00
885.8100, 39692.00
886.9400, 39608.00
888.0690, 39478.00
889.1990, 39700.00
890.3280, 40039.00
891.4570, 40122.00
892.5860, 40003.00
893.7140, 40469.00
894.8430, 40659.00
895.9710, 40663.00
897.1000, 41066.00
898.2280, 41175.00
899.3560, 41376.00
900.4830, 41379.00
901.6110, 41675.00
902.7380, 41803.00
903.8660, 42056.00
904.9930, 42259.00
906.1200, 42226.00
907.2460, 42555.00
908.3730, 42878.00
909.5000, 42694.00
910.6260, 43154.00
911.7520, 43127.00
912.8780, 43283.00
914.0040, 43437.00
915.1290, 43418.00
916.2550, 43571.00
917.3800, 43562.00
918.5050, 43814.00
919.6300, 44026.00
920.7550, 44073.00
921.8800, 44154.00
923.0040, 44070.00
924.1290, 44187.60
925.2530, 44191.57
926.3770, 44361.00
927.5010, 44204.00
928.6250, 44332.00
929.7480, 44224.00
930.8720, 44037.00
931.9950, 44403.00
933.1180, 44343.00
934.2410, 43925.00
935.3640, 44238.00
936.4860, 43916.00
937.6090, 44090.00
938.7310, 44016.00
939.8530, 44011.00
940.9750, 43820.00
942.0970, 43799.87
943.2180, 43628.00
944.3400, 43636.00
945.4610, 43583.00
946.5820, 43442.00
947.7030, 43398.00
948.8240, 43373.00
949.9450, 43092.00
951.0650, 43241.00
952.1860, 42692.00
953.3060, 42706.00
954.4260, 42672.00
955.5460, 42442.00
956.6650, 42115.00
957.7850, 42132.00
958.9040, 41964.00
960.0230, 41876.00
961.1420, 41692.00
962.2610, 41889.00
963.3800, 41848.00
964.4990, 41859.00
965.6170, 41448.00
966.7350, 41566.00
967.8530, 41358.00
968.9710, 41405.00
970.0890, 41039.00
971.2070, 41501.00
972.3240, 41423.00
973.4410, 41242.00
974.5580, 41551.00
975.6750, 41581.00
976.7920, 41488.00
977.9090, 41449.00
979.0250, 41570.00
980.1410, 41938.00
981.2580, 42212.00
982.3740, 42312.00
983.4890, 41858.00
984.6050, 42247.00
985.7200, 42190.00
986.8360, 42475.00
987.9510, 42712.00
989.0660, 42851.74
990.1810, 43197.00
991.2950, 43329.00
992.4100, 43634.00
993.5240, 43970.00
994.6390, 44345.00
995.7530, 44527.00
996.8660, 44634.00
997.9800, 45170.00
999.0940, 45415.00
1000.207, 46008.00
1001.320, 46176.00
1002.433, 46912.00
1003.546, 47194.00
1004.659, 47618.00
1005.772, 48180.00
1006.884, 48703.00
1007.996, 49313.00
1009.108, 49903.00
1010.220, 50906.00
1011.332, 51462.00
1012.444, 52271.00
1013.555, 53576.00
1014.666, 55077.00
1015.777, 56557.00
1016.888, 55796.00
1017.999, 56051.00
1019.110, 56784.00
1020.220, 57564.00
1021.331, 57886.00
1022.441, 58614.00
1023.551, 58886.00
1024.661, 59596.00
1025.770, 59581.00
1026.880, 60075.00
1027.989, 60156.00
1029.098, 60215.00
1030.207, 59749.00
1031.316, 59727.00
1032.425, 59177.00
1033.533, 58868.00
1034.642, 57939.00
1035.750, 57573.00
1036.858, 56346.00
1037.966, 55736.00
1039.073, 55035.00
1040.181, 54515.00
1041.288, 53656.00
1042.396, 52929.00
1043.503, 52498.00
1044.610, 51528.00
1045.716, 51061.00
1046.823, 50404.00
1047.929, 49844.00
1049.036, 49262.00
1050.142, 48882.00
1051.248, 48279.00
1052.353, 48218.00
1053.459, 47801.00
1054.564, 47373.00
1055.670, 47003.00
1056.775, 46849.00
1057.880, 46635.00
1058.985, 46560.00
1060.089, 46509.00
1061.194, 46511.00
1062.298, 45842.00
1063.402, 46129.00
1064.506, 45758.00
1065.610, 45519.00
1066.713, 45705.00
1067.817, 45614.00
1068.920, 45385.00
1070.023, 45541.00
1071.126, 45579.00
1072.229, 45398.00
1073.332, 45412.88
1074.435, 45354.63
1075.537, 45281.00
1076.639, 45209.00
1077.741, 45328.00
1078.843, 45142.00
1079.945, 45392.00
1081.046, 45216.00
1082.148, 44855.00
1083.249, 45062.00
1084.350, 45299.00
1085.451, 45484.00
1086.551, 45117.00
1087.652, 45038.00
1088.752, 44958.00
1089.853, 44801.59
1090.953, 44814.00
1092.053, 44683.00
1093.152, 44625.00
1094.252, 44615.00
1095.351, 44380.00
1096.451, 44692.00
1097.550, 44542.00
1098.649, 44511.00
1099.748, 44173.00
1100.846, 44270.00
1101.945, 44223.00
1103.043, 44062.00
1104.141, 43805.00
1105.239, 43916.00
1106.337, 43926.00
1107.434, 43486.00
1108.532, 43682.00
1109.629, 43747.00
1110.726, 43514.00
1111.823, 43853.00
1112.920, 43501.00
1114.017, 43876.00
1115.113, 43735.00
1116.210, 44051.00
1117.306, 43789.00
1118.402, 43481.00
1119.498, 44069.00
1120.593, 43892.00
1121.689, 43784.00
1122.784, 43948.00
1123.879, 44187.00
1124.974, 44153.00
1126.069, 44154.30
1127.164, 43968.00
1128.259, 43938.00
1129.353, 43875.00
1130.447, 43756.00
1131.541, 44052.00
1132.635, 43661.00
1133.729, 44071.00
1134.822, 43941.00
1135.916, 44218.00
1137.009, 44111.00
1138.102, 44267.00
1139.195, 44291.00
1140.288, 43885.00
1141.380, 44287.00
1142.473, 43952.00
1143.565, 43964.00
1144.657, 43992.00
1145.749, 44123.00
1146.841, 44214.00
1147.932, 44161.00
1149.024, 44183.00
1150.115, 44261.00
1151.206, 44152.00
1152.297, 44528.00
1153.388, 44624.00
1154.479, 44363.00
1155.569, 44284.00
1156.659, 44620.00
1157.750, 44288.00
1158.839, 44343.00
1159.929, 44573.00
1161.019, 44746.00
1162.108, 44774.72
1163.198, 44560.00
1164.287, 44820.00
1165.376, 44871.00
1166.465, 44818.00
1167.553, 45054.00
1168.642, 45073.00
1169.730, 45134.00
1170.818, 45125.00
1171.906, 44757.00
1172.994, 44782.00
1174.082, 44831.00
1175.170, 44950.00
1176.257, 44927.00
1177.344, 45370.00
1178.431, 45150.00
1179.518, 45143.00
1180.605, 45361.00
1181.691, 45041.00
1182.778, 45083.00
1183.864, 45156.00
1184.950, 45409.00
1186.036, 45417.58
1187.122, 45703.00
1188.207, 45545.00
1189.292, 45455.00
1190.378, 45446.00
1191.463, 45499.00
1192.548, 45509.45
1193.632, 45565.89
1194.717, 45645.00
1195.801, 45699.00
1196.886, 45787.00
1197.970, 45876.00
1199.054, 45693.00
1200.137, 46005.00
1201.221, 45658.00
1202.305, 45750.00
1203.388, 46020.00
1204.471, 46208.00
1205.554, 46065.00
1206.637, 46057.00
1207.719, 46169.00
1208.802, 46016.00
1209.884, 46389.00
1210.966, 46254.00
1212.048, 46262.00
1213.130, 45967.00
1214.212, 46171.00
1215.293, 46260.00
1216.374, 46604.00
1217.456, 46374.00
1218.536, 46377.00
1219.617, 46400.00
1220.698, 46420.07
1221.778, 46474.00
1222.859, 46566.00
1223.939, 46581.00
1225.019, 46499.00
1226.099, 46662.00
1227.178, 46876.00
1228.258, 46445.00
1229.337, 46848.00
1230.417, 47073.00
1231.496, 47194.00
1232.574, 46759.00
1233.653, 46867.00
1234.732, 46955.00
1235.810, 46805.00
1236.888, 46971.00
1237.966, 47116.00
1239.044, 47121.00
1240.122, 47007.00
1241.199, 47091.00
1242.277, 47491.00
1243.354, 47259.00
1244.431, 47471.00
1245.508, 47455.00
1246.585, 47224.00
1247.661, 47375.00
1248.738, 47456.00
1249.814, 47494.00
1250.890, 47286.00
1251.966, 47453.00
1253.042, 47360.00
1254.117, 47455.00
1255.193, 47504.86
1256.268, 47841.00
1257.343, 47557.00
1258.418, 47716.00
1259.493, 47645.00
1260.567, 47467.00
1261.642, 48073.00
1262.716, 48101.00
1263.790, 48163.00
1264.864, 47935.00
1265.938, 48131.00
1267.011, 48046.85
1268.085, 47831.00
1269.158, 48044.00
1270.231, 48123.00
1271.304, 48147.00
1272.377, 48138.00
1273.450, 48541.00
1274.522, 48070.00
1275.594, 48257.00
1276.666, 48132.00
1277.738, 47809.00
1278.810, 48350.00
1279.882, 48096.00
1280.953, 48157.00
1282.025, 48294.00
1283.096, 48414.00
1284.167, 48706.00
1285.238, 48731.00
1286.308, 48805.00
1287.379, 48921.00
1288.449, 48892.00
1289.519, 48723.00
1290.589, 48603.00
1291.659, 49039.00
1292.729, 49105.00
1293.798, 48901.00
1294.868, 48891.00
1295.937, 48734.00
1297.006, 49080.00
1298.075, 49223.00
1299.143, 49451.00
1300.212, 49559.00
1301.280, 49083.00
1302.348, 49182.00
1303.416, 49175.00
1304.484, 49040.00
1305.552, 49328.00
1306.620, 49428.00
1307.687, 49540.00
1308.754, 49357.00
1309.821, 49293.00
1310.888, 49411.43
1311.955, 49495.00
1313.021, 49505.00
1314.088, 49556.61
1315.154, 49802.00
1316.220, 49664.00
1317.286, 49824.00
1318.352, 50083.00
1319.417, 49863.00
1320.483, 50093.00
1321.548, 50001.00
1322.613, 49909.00
1323.678, 50298.00
1324.743, 50009.00
1325.807, 50155.00
1326.872, 50179.00
1327.936, 50620.00
1329.000, 50428.00
1330.064, 50619.00
1331.128, 50416.00
1332.191, 50237.00
1333.255, 50458.00
1334.318, 50675.00
1335.381, 50448.00
1336.444, 50690.00
1337.507, 50669.00
1338.569, 50597.00
1339.632, 50822.00
1340.694, 50779.25
1341.756, 51054.00
1342.818, 50872.00
1343.880, 50816.00
1344.941, 50821.00
1346.003, 50768.31
1347.064, 50827.02
1348.125, 50893.00
1349.186, 50958.00
1350.247, 51076.53
1351.308, 51327.00
1352.368, 51292.00
1353.428, 51359.00
1354.489, 51378.00
1355.549, 51223.00
1356.608, 51146.00
1357.668, 51430.00
1358.727, 51265.00
1359.787, 51486.00
1360.846, 51474.00
1361.905, 51468.00
1362.964, 51636.00
1364.022, 51715.00
1365.081, 51739.69
1366.139, 51857.00
1367.197, 51757.00
1368.255, 51644.00
1369.313, 51542.00
1370.371, 51835.00
1371.428, 51895.00
1372.486, 51925.00
1373.543, 52017.00
1374.600, 52050.00
1375.657, 52076.00
1376.713, 51993.00
1377.770, 51960.00
1378.826, 52729.00
1379.882, 52358.00
1380.938, 52423.41
1381.994, 52031.00
1383.050, 52153.00
1384.106, 52180.00
1385.161, 52246.00
1386.216, 52402.00
1387.271, 52196.00
1388.326, 52262.00
1389.381, 52386.00
1390.435, 52587.00
1391.490, 52583.00
1392.544, 52586.00
1393.598, 52570.00
1394.652, 52470.00
1395.705, 52454.95
1396.759, 52461.80
1397.812, 52457.00
1398.866, 52505.00
1399.919, 52743.00
1400.972, 52773.00
1402.024, 52881.00
1403.077, 52748.00
1404.129, 52882.00
1405.181, 52876.00
1406.233, 52782.00
1407.285, 52909.54
1408.337, 53099.00
1409.389, 53076.00
1410.440, 53090.00
1411.491, 53246.00
1412.542, 53077.00
1413.593, 53073.00
1414.644, 52955.00
1415.695, 53269.00
1416.745, 53162.00
1417.795, 53510.00
1418.845, 53550.00
1419.895, 53388.00
1420.945, 53741.00
1421.995, 53714.00
1423.044, 53720.00
1424.093, 53812.00
1425.142, 53679.00
1426.191, 53709.00
1427.240, 53804.00
1428.289, 53884.00
1429.337, 53802.00
1430.385, 53785.00
1431.433, 54010.00
1432.481, 53878.00
1433.529, 54096.00
1434.577, 54123.00
1435.624, 54133.00
1436.672, 54074.00
1437.719, 54217.00
1438.766, 54248.00
1439.812, 54247.47
1440.859, 54295.00
1441.905, 54363.00
1442.952, 54296.00
1443.998, 54564.00
1445.044, 54194.00
1446.090, 54370.00
1447.135, 54504.00
1448.181, 54631.00
1449.226, 54530.00
1450.271, 54624.00
1451.316, 54591.00
1452.361, 54507.00
1453.405, 54583.00
1454.450, 54654.00
1455.494, 54719.00
1456.538, 54804.00
1457.582, 54835.00
1458.626, 54901.00
1459.670, 55095.00
1460.713, 55110.00
1461.757, 55067.00
1462.800, 55258.00
1463.843, 55236.00
1464.886, 55069.00
1465.928, 55141.00
1466.971, 55217.00
1468.013, 55250.00
1469.055, 55510.00
1470.097, 55296.00
1471.139, 55452.00
1472.181, 55077.00
1473.222, 55426.00
1474.263, 55548.00
1475.305, 55730.00
1476.346, 55469.00
1477.386, 55856.00
1478.427, 55435.00
1479.468, 55378.00
1480.508, 55674.00
1481.548, 55842.00
1482.588, 55503.00
1483.628, 55874.00
1484.668, 55490.00
1485.707, 56034.00
1486.747, 56003.00
1487.786, 56281.00
1488.825, 55914.00
1489.864, 56113.00
1490.902, 56210.00
1491.941, 56424.00
1492.979, 56008.00
1494.017, 55889.00
1495.055, 56113.00
1496.093, 56043.00
1497.131, 56531.00
1498.168, 56259.00
1499.206, 56466.00
1500.243, 56560.00
1501.280, 56567.00
1502.317, 56442.00
1503.354, 56381.00
1504.390, 56635.00
1505.426, 56695.00
1506.463, 56716.00
1507.499, 56823.00
1508.535, 56715.00
1509.570, 56974.00
1510.606, 57022.00
1511.641, 57246.00
1512.676, 57124.00
1513.711, 57079.00
1514.746, 57141.00
1515.781, 57100.09
1516.816, 57305.00
1517.850, 57098.00
1518.884, 57101.00
1519.918, 56987.00
1520.952, 57301.00
1521.986, 57259.00
1523.019, 57413.00
1524.053, 57449.00
1525.086, 57581.00
1526.119, 57438.00
1527.152, 57291.00
1528.185, 57700.00
1529.217, 57403.00
1530.250, 57896.00
1531.282, 57606.00
1532.314, 57741.00
1533.346, 57634.00
1534.377, 57715.00
1535.409, 57761.00
1536.440, 57875.00
1537.472, 58153.00
1538.503, 58583.00
1539.534, 57942.00
1540.564, 58011.00
1541.595, 58337.00
1542.625, 58212.00
1543.656, 58222.00
1544.686, 58324.00
1545.716, 58287.14
1546.745, 58356.38
1547.775, 58459.00
1548.804, 58465.00
1549.834, 58761.00
1550.863, 58879.00
1551.892, 58852.00
1552.920, 58778.00
1553.949, 59284.00
1554.977, 59293.00
1556.006, 59181.00
1557.034, 58766.00
1558.062, 59090.00
1559.089, 59021.00
1560.117, 58607.00
1561.144, 59054.00
1562.172, 59117.00
1563.199, 59118.00
1564.226, 59229.00
1565.252, 59174.00
1566.279, 59428.00
1567.305, 59497.00
1568.332, 59594.00
1569.358, 59609.00
1570.384, 59601.00
1571.409, 60013.00
##END=



