##NAMES=Astrophyllite
##RRUFFID=R060202
##IDEAL CHEMISTRY=K_2_NaFe^2+^_7_Ti^4+^_2_(Si_4_O_12_)_2_O_2_(OH)_4_F
##LOCALITY=Demix Quarry, Mont Saint-Hilaire, Rouville County, Quebec, Canada
##OWNER=RRUFF
##SOURCE=Royal Ontario Museum
##DESCRIPTION=Aggregate of brown splintered wafers
##STATUS=The identification of this mineral has been confirmed by X-ray diffraction and chemical analysis
##URL=rruff.info/R060202
##MEASURED CHEMISTRY=(K_0.56_Na_0.38_Ca_0.06_)_3_(Fe^2+^_0.52_Mn_0.44_Mg_0.04_)_7_(Ti_0.75_Zr_0.15_Al_0.15_)_2_Si_8_O_24_(O_0.27_OH_0.73_)_7_
##PIN_ID=M00495
##ORIENTATION=Laser parallel to c* (0 0 1). Fiducial mark perpendicular to laser is parallel to a [1 0 0]
147.6390, 36731.00
148.8670, 36839.00
150.0940, 36557.00
151.3210, 37549.00
152.5490, 38180.00
153.7750, 37829.00
155.0020, 37804.00
156.2290, 38225.00
157.4550, 38085.00
158.6810, 38024.00
159.9080, 38080.00
161.1340, 38244.00
162.3590, 38858.00
163.5850, 39275.00
164.8110, 39626.00
166.0360, 39787.00
167.2610, 39548.00
168.4860, 39414.00
169.7110, 39853.00
170.9360, 40142.00
172.1610, 39771.00
173.3850, 39236.00
174.6100, 39191.00
175.8340, 38805.00
177.0580, 38586.00
178.2820, 38409.00
179.5050, 38325.00
180.7290, 38017.00
181.9520, 37932.00
183.1760, 37996.00
184.3990, 37689.00
185.6220, 38032.00
186.8450, 38253.00
188.0670, 38345.00
189.2900, 38686.00
190.5120, 39090.00
191.7340, 39281.00
192.9560, 39551.77
194.1780, 39814.00
195.4000, 39998.00
196.6220, 40256.00
197.8430, 40600.00
199.0640, 40911.00
200.2860, 41183.00
201.5070, 41631.00
202.7270, 41384.78
203.9480, 41588.00
205.1690, 40823.00
206.3890, 39826.00
207.6090, 39392.00
208.8290, 39705.00
210.0490, 39514.00
211.2690, 40021.00
212.4890, 40368.00
213.7080, 40644.00
214.9280, 40997.73
216.1470, 41007.00
217.3660, 41508.00
218.5850, 41687.00
219.8030, 41849.00
221.0220, 42409.00
222.2400, 42806.00
223.4590, 43050.00
224.6770, 43488.00
225.8950, 43680.00
227.1120, 44421.00
228.3300, 44826.00
229.5480, 44927.00
230.7650, 46001.00
231.9820, 46943.00
233.1990, 46412.00
234.4160, 46407.00
235.6330, 46748.00
236.8490, 47362.00
238.0660, 47548.00
239.2820, 47533.00
240.4980, 48616.00
241.7140, 48419.00
242.9300, 48243.00
244.1460, 48775.00
245.3610, 49029.00
246.5770, 49114.00
247.7920, 49069.00
249.0070, 49295.00
250.2220, 49380.00
251.4370, 49482.00
252.6510, 49269.00
253.8660, 49362.00
255.0800, 49455.00
256.2940, 49526.00
257.5080, 49206.05
258.7220, 48829.75
259.9360, 48299.72
261.1490, 47516.09
262.3630, 46717.00
263.5760, 45734.00
264.7890, 44950.47
266.0020, 44102.00
267.2150, 43195.00
268.4270, 42662.00
269.6400, 41713.00
270.8520, 41425.00
272.0640, 40608.00
273.2760, 40386.00
274.4880, 39969.00
275.7000, 39567.00
276.9120, 39411.00
278.1230, 38848.00
279.3340, 38704.00
280.5450, 38262.00
281.7560, 37951.00
282.9670, 37642.00
284.1780, 37425.00
285.3880, 37449.00
286.5980, 37387.00
287.8090, 37173.00
289.0190, 37052.00
290.2290, 37250.00
291.4380, 37063.00
292.6480, 37145.00
293.8570, 36981.00
295.0670, 37056.00
296.2760, 37027.00
297.4850, 37184.00
298.6930, 37279.00
299.9020, 37166.63
301.1110, 37211.53
302.3190, 36972.00
303.5270, 37063.00
304.7350, 37025.59
305.9430, 36887.00
307.1510, 36827.00
308.3580, 37061.00
309.5660, 36902.00
310.7730, 36975.00
311.9800, 36970.00
313.1870, 36787.00
314.3940, 36854.38
315.6010, 37054.00
316.8070, 37064.00
318.0130, 37176.00
319.2200, 37077.98
320.4260, 37453.00
321.6310, 36801.00
322.8370, 37106.00
324.0430, 36999.00
325.2480, 37806.00
326.4540, 37144.00
327.6590, 37021.00
328.8640, 37281.00
330.0680, 37121.00
331.2730, 37413.00
332.4780, 37423.00
333.6820, 37510.00
334.8860, 37544.00
336.0900, 37383.00
337.2940, 37671.00
338.4980, 37905.00
339.7010, 37760.00
340.9050, 38035.84
342.1080, 38065.46
343.3110, 38267.00
344.5140, 38222.00
345.7170, 38292.00
346.9200, 38357.00
348.1220, 38588.00
349.3240, 38362.00
350.5270, 38605.00
351.7290, 38798.00
352.9310, 38554.00
354.1320, 38657.00
355.3340, 38660.00
356.5350, 38797.00
357.7370, 38850.00
358.9380, 38989.00
360.1390, 38953.00
361.3400, 38913.00
362.5400, 39043.00
363.7410, 38932.00
364.9410, 38896.00
366.1410, 38577.00
367.3410, 39015.00
368.5410, 38736.00
369.7410, 38750.00
370.9400, 38811.00
372.1400, 38722.00
373.3390, 38828.00
374.5380, 38958.00
375.7370, 38603.00
376.9360, 38881.00
378.1350, 38597.00
379.3330, 38807.00
380.5310, 38947.00
381.7300, 38756.00
382.9280, 38933.00
384.1260, 39073.00
385.3230, 38962.00
386.5210, 39165.00
387.7180, 39220.00
388.9160, 39389.00
390.1130, 39424.00
391.3100, 39363.00
392.5060, 39463.00
393.7030, 39454.00
394.9000, 39541.00
396.0960, 39701.00
397.2920, 39793.00
398.4880, 39884.00
399.6840, 39860.00
400.8800, 39991.00
402.0750, 39684.00
403.2710, 39779.00
404.4660, 39937.00
405.6610, 40326.00
406.8560, 39804.00
408.0510, 40123.00
409.2450, 40247.00
410.4400, 40337.00
411.6340, 40392.00
412.8280, 40272.00
414.0220, 40316.00
415.2160, 40501.00
416.4100, 40737.00
417.6030, 40580.00
418.7970, 40298.00
419.9900, 40448.00
421.1830, 40107.00
422.3760, 40249.00
423.5690, 40317.00
424.7610, 39899.00
425.9540, 39907.00
427.1460, 39784.00
428.3380, 39503.76
429.5300, 39377.00
430.7220, 39167.00
431.9140, 38964.00
433.1050, 39032.00
434.2970, 38599.00
435.4880, 38339.00
436.6790, 38349.00
437.8700, 38119.00
439.0610, 37673.00
440.2510, 37795.00
441.4420, 37761.00
442.6320, 37811.00
443.8220, 37333.00
445.0120, 37271.00
446.2020, 37385.00
447.3910, 37475.00
448.5810, 37552.00
449.7700, 37430.00
450.9600, 37515.00
452.1490, 37777.00
453.3370, 37534.00
454.5260, 37604.00
455.7150, 37887.00
456.9030, 37905.00
458.0910, 38055.84
459.2800, 37904.00
460.4670, 38321.00
461.6550, 38193.00
462.8430, 38415.00
464.0300, 38381.00
465.2180, 38288.00
466.4050, 38431.00
467.5920, 38386.00
468.7790, 38360.00
469.9650, 38653.00
471.1520, 38516.00
472.3380, 38364.00
473.5250, 38506.00
474.7110, 38413.00
475.8970, 38204.00
477.0820, 38442.00
478.2680, 38525.00
479.4540, 38251.00
480.6390, 38205.00
481.8240, 37990.00
483.0090, 37985.65
484.1940, 38321.00
485.3780, 38031.00
486.5630, 38293.00
487.7470, 38372.00
488.9320, 38400.00
490.1160, 38106.00
491.3000, 38192.00
492.4830, 38004.00
493.6670, 37829.00
494.8500, 37923.00
496.0340, 37950.00
497.2170, 37895.00
498.4000, 37853.00
499.5820, 38139.00
500.7650, 38085.00
501.9480, 38080.00
503.1300, 37953.00
504.3120, 37875.00
505.4940, 37936.00
506.6760, 37854.00
507.8580, 38165.00
509.0390, 37706.00
510.2210, 38083.00
511.4020, 37847.10
512.5830, 38136.00
513.7640, 37567.00
514.9450, 37865.00
516.1250, 37827.00
517.3060, 37683.00
518.4860, 37873.00
519.6660, 37804.00
520.8460, 37919.00
522.0260, 37953.00
523.2060, 37698.00
524.3850, 37703.00
525.5650, 38174.00
526.7440, 37664.00
527.9230, 38005.00
529.1020, 38106.00
530.2810, 38038.00
531.4590, 38114.00
532.6380, 38203.98
533.8160, 38402.00
534.9940, 38440.00
536.1720, 38649.00
537.3500, 38823.00
538.5270, 38827.00
539.7050, 39086.00
540.8820, 39430.00
542.0590, 39648.00
543.2360, 39805.00
544.4130, 40306.00
545.5900, 40369.00
546.7660, 41105.00
547.9430, 41357.00
549.1190, 41670.00
550.2950, 41820.00
551.4710, 42539.00
552.6470, 42888.00
553.8220, 43143.00
554.9980, 43010.00
556.1730, 43594.00
557.3480, 43561.00
558.5230, 43715.92
559.6980, 43715.79
560.8730, 43810.00
562.0470, 43462.00
563.2220, 43195.00
564.3960, 43079.00
565.5700, 42848.52
566.7440, 42652.60
567.9170, 42515.00
569.0910, 42250.00
570.2640, 41971.00
571.4380, 41749.00
572.6110, 41560.69
573.7840, 41342.00
574.9570, 41295.00
576.1290, 41086.00
577.3020, 41067.00
578.4740, 40818.00
579.6460, 40922.00
580.8180, 40805.00
581.9900, 40744.00
583.1620, 40725.43
584.3330, 40675.50
585.5040, 40638.00
586.6760, 40663.00
587.8470, 40692.00
589.0180, 40723.23
590.1880, 40493.00
591.3590, 40765.00
592.5290, 40585.00
593.7000, 40623.00
594.8700, 40825.00
596.0400, 40992.00
597.2090, 40730.00
598.3790, 40767.00
599.5490, 40688.00
600.7180, 40872.00
601.8870, 40777.00
603.0560, 40727.00
604.2250, 40668.00
605.3940, 40703.57
606.5620, 40753.00
607.7300, 40868.00
608.8990, 40908.00
610.0670, 41092.03
611.2350, 41115.10
612.4020, 41326.00
613.5700, 41226.00
614.7370, 41192.00
615.9050, 41267.00
617.0720, 41298.00
618.2390, 41935.00
619.4060, 42195.00
620.5720, 41546.00
621.7390, 42025.00
622.9050, 41843.00
624.0710, 42126.00
625.2370, 42233.00
626.4030, 42374.00
627.5690, 42521.00
628.7340, 42625.00
629.9000, 42808.00
631.0650, 43155.00
632.2300, 43480.00
633.3950, 44040.00
634.5600, 44367.83
635.7240, 44348.00
636.8890, 45098.00
638.0530, 45565.00
639.2170, 45752.00
640.3810, 46518.00
641.5450, 47091.00
642.7080, 47723.00
643.8720, 48557.00
645.0350, 49364.00
646.1980, 50692.00
647.3610, 51375.00
648.5240, 52047.00
649.6870, 52650.00
650.8490, 53190.00
652.0120, 53461.00
653.1740, 53468.00
654.3360, 53590.00
655.4980, 53489.00
656.6600, 53817.00
657.8210, 54014.00
658.9830, 52807.00
660.1440, 52315.00
661.3050, 50731.00
662.4660, 50025.00
663.6270, 49447.00
664.7870, 48945.00
665.9480, 49105.00
667.1080, 48682.00
668.2680, 48629.00
669.4280, 48553.00
670.5880, 48552.00
671.7480, 48458.00
672.9070, 48730.00
674.0670, 48876.00
675.2260, 49246.00
676.3850, 49377.00
677.5440, 49935.00
678.7030, 49691.00
679.8610, 49863.00
681.0200, 50203.00
682.1780, 50580.00
683.3360, 50864.00
684.4940, 50980.00
685.6520, 51498.00
686.8090, 51762.00
687.9670, 52081.00
689.1240, 52533.00
690.2810, 52484.00
691.4380, 52922.00
692.5950, 53022.00
693.7520, 52973.00
694.9080, 52981.00
696.0650, 53133.00
697.2210, 53271.68
698.3770, 53377.40
699.5330, 53748.00
700.6880, 53600.00
701.8440, 53852.00
702.9990, 53837.00
704.1550, 53880.00
705.3100, 53809.00
706.4650, 53821.00
707.6190, 53983.00
708.7740, 53925.00
709.9290, 53854.12
711.0830, 53890.00
712.2370, 53580.00
713.3910, 53162.00
714.5450, 52978.00
715.6980, 52970.00
716.8520, 52652.00
718.0050, 52449.00
719.1580, 52233.00
720.3110, 52116.00
721.4640, 51679.00
722.6170, 51009.00
723.7700, 50746.00
724.9220, 50532.00
726.0740, 49893.00
727.2260, 49935.00
728.3780, 49654.00
729.5300, 49030.00
730.6810, 48758.00
731.8330, 48519.00
732.9840, 48009.00
734.1350, 47487.00
735.2860, 47083.00
736.4370, 47052.00
737.5880, 46639.00
738.7380, 46526.00
739.8880, 46207.00
741.0390, 45980.18
742.1890, 46022.00
743.3380, 45625.00
744.4880, 45478.00
745.6380, 45477.00
746.7870, 45229.01
747.9360, 45103.00
749.0850, 45034.00
750.2340, 44954.00
751.3830, 44971.00
752.5310, 44915.00
753.6800, 44749.00
754.8280, 44732.00
755.9760, 44471.00
757.1240, 44389.00
758.2720, 44184.00
759.4190, 44305.00
760.5670, 44002.00
761.7140, 43714.00
762.8610, 43848.00
764.0080, 43405.00
765.1550, 43434.00
766.3020, 43311.00
767.4480, 43069.00
768.5950, 42835.00
769.7410, 42864.00
770.8870, 42462.00
772.0330, 42528.00
773.1780, 42225.00
774.3240, 42534.00
775.4690, 42131.00
776.6140, 42185.00
777.7590, 41971.00
778.9040, 41730.00
780.0490, 41847.00
781.1940, 41777.00
782.3380, 41492.00
783.4820, 41699.00
784.6260, 41757.00
785.7700, 41718.00
786.9140, 41677.46
788.0580, 41249.00
789.2010, 41395.00
790.3450, 41217.00
791.4880, 41061.00
792.6310, 41079.00
793.7730, 41028.00
794.9160, 40839.00
796.0590, 40939.00
797.2010, 40672.00
798.3430, 40734.00
799.4850, 40499.00
800.6270, 40365.00
801.7690, 40800.00
802.9100, 40274.00
804.0520, 40277.00
805.1930, 40057.00
806.3340, 40477.00
807.4750, 39906.00
808.6160, 40052.00
809.7560, 40267.00
810.8970, 40040.00
812.0370, 39947.00
813.1770, 39973.00
814.3170, 39985.00
815.4570, 40029.00
816.5960, 39780.00
817.7360, 39994.00
818.8750, 40063.00
820.0140, 39666.00
821.1530, 39641.00
822.2920, 39764.00
823.4310, 39871.00
824.5690, 39820.00
825.7070, 39871.00
826.8460, 39908.00
827.9840, 39963.00
829.1220, 40026.00
830.2590, 40003.36
831.3970, 39879.00
832.5340, 39985.00
833.6710, 39937.00
834.8080, 39987.00
835.9450, 40119.00
837.0820, 39947.00
838.2190, 40187.00
839.3550, 40075.00
840.4910, 40512.00
841.6270, 40378.00
842.7630, 40322.00
843.8990, 40399.00
845.0350, 40271.00
846.1700, 40348.00
847.3060, 40518.00
848.4410, 40785.00
849.5760, 40817.00
850.7100, 40780.00
851.8450, 40998.00
852.9800, 40917.00
854.1140, 41121.00
855.2480, 41310.00
856.3820, 41388.00
857.5160, 41796.00
858.6500, 41759.00
859.7830, 41981.00
860.9170, 42428.00
862.0500, 42394.00
863.1830, 42618.00
864.3160, 42872.00
865.4480, 42995.00
866.5810, 43204.00
867.7130, 43591.00
868.8460, 43776.00
869.9780, 44149.00
871.1100, 44612.00
872.2410, 44606.00
873.3730, 45553.00
874.5050, 45554.00
875.6360, 45985.00
876.7670, 46489.00
877.8980, 46414.00
879.0290, 47199.00
880.1590, 47373.00
881.2900, 47777.00
882.4200, 48162.00
883.5500, 48720.00
884.6800, 48980.00
885.8100, 49712.00
886.9400, 49923.00
888.0690, 50249.00
889.1990, 51181.00
890.3280, 51475.00
891.4570, 51969.00
892.5860, 52497.00
893.7140, 52814.00
894.8430, 53454.00
895.9710, 53585.00
897.1000, 54415.00
898.2280, 54624.00
899.3560, 55240.00
900.4830, 55731.00
901.6110, 56552.00
902.7380, 56900.00
903.8660, 57441.00
904.9930, 58224.00
906.1200, 58542.00
907.2460, 59141.00
908.3730, 59451.00
909.5000, 60030.00
910.6260, 60339.00
911.7520, 60872.00
912.8780, 61057.00
914.0040, 61472.54
915.1290, 61731.84
916.2550, 62000.00
917.3800, 62147.00
918.5050, 62039.00
919.6300, 62087.00
920.7550, 62514.00
921.8800, 62141.00
923.0040, 62213.00
924.1290, 61873.00
925.2530, 61588.00
926.3770, 61479.00
927.5010, 61536.00
928.6250, 61183.00
929.7480, 60812.00
930.8720, 60586.00
931.9950, 59821.00
933.1180, 59676.00
934.2410, 59132.00
935.3640, 58831.00
936.4860, 58472.30
937.6090, 57844.44
938.7310, 57537.00
939.8530, 56689.00
940.9750, 55799.00
942.0970, 55334.00
943.2180, 54749.00
944.3400, 54395.00
945.4610, 53952.00
946.5820, 53049.00
947.7030, 52915.00
948.8240, 52137.00
949.9450, 51894.00
951.0650, 50938.00
952.1860, 50791.00
953.3060, 49855.00
954.4260, 49556.00
955.5460, 48929.00
956.6650, 48533.00
957.7850, 47879.00
958.9040, 47566.00
960.0230, 47252.00
961.1420, 46515.00
962.2610, 46605.00
963.3800, 45873.78
964.4990, 45539.00
965.6170, 44989.00
966.7350, 44464.00
967.8530, 44552.00
968.9710, 44140.00
970.0890, 43880.00
971.2070, 43438.00
972.3240, 43670.00
973.4410, 43418.00
974.5580, 43167.00
975.6750, 43106.00
976.7920, 43020.00
977.9090, 42940.00
979.0250, 42811.00
980.1410, 42651.00
981.2580, 42597.00
982.3740, 42548.68
983.4890, 42652.00
984.6050, 42605.00
985.7200, 42489.00
986.8360, 42651.00
987.9510, 42548.00
989.0660, 42666.00
990.1810, 42684.00
991.2950, 42547.00
992.4100, 42698.00
993.5240, 42692.00
994.6390, 42871.00
995.7530, 42901.00
996.8660, 42866.00
997.9800, 42901.00
999.0940, 43054.00
1000.207, 43231.00
1001.320, 43228.95
1002.433, 43445.00
1003.546, 43391.00
1004.659, 43591.82
1005.772, 43587.00
1006.884, 43889.00
1007.996, 44077.00
1009.108, 44128.00
1010.220, 44263.00
1011.332, 44406.80
1012.444, 44580.23
1013.555, 44843.00
1014.666, 44909.00
1015.777, 45451.00
1016.888, 45450.00
1017.999, 45545.30
1019.110, 45679.00
1020.220, 45681.00
1021.331, 46076.00
1022.441, 46483.00
1023.551, 46115.00
1024.661, 46582.00
1025.770, 46779.00
1026.880, 46353.00
1027.989, 47075.00
1029.098, 46563.00
1030.207, 46597.00
1031.316, 46739.00
1032.425, 46269.00
1033.533, 46496.00
1034.642, 46059.00
1035.750, 46411.00
1036.858, 46041.00
1037.966, 45919.00
1039.073, 45749.00
1040.181, 45619.00
1041.288, 45843.00
1042.396, 45419.00
1043.503, 44972.00
1044.610, 45179.00
1045.716, 44911.00
1046.823, 44930.00
1047.929, 44550.00
1049.036, 44416.00
1050.142, 44329.00
1051.248, 44143.00
1052.353, 44045.00
1053.459, 43949.00
1054.564, 43823.00
1055.670, 43710.00
1056.775, 43786.00
1057.880, 43634.02
1058.985, 43756.00
1060.089, 43516.00
1061.194, 43491.00
1062.298, 43538.00
1063.402, 43738.00
1064.506, 43412.00
1065.610, 43599.00
1066.713, 43446.00
1067.817, 43590.00
1068.920, 43240.00
1070.023, 43613.00
1071.126, 43687.00
1072.229, 43401.00
1073.332, 43410.00
1074.435, 43685.00
1075.537, 43542.00
1076.639, 43667.00
1077.741, 43508.00
1078.843, 43611.00
1079.945, 43491.00
1081.046, 43635.00
1082.148, 43198.00
1083.249, 43189.00
1084.350, 43549.00
1085.451, 43176.00
1086.551, 43189.00
1087.652, 43135.00
1088.752, 43148.00
1089.853, 42918.00
1090.953, 42956.61
1092.053, 42876.48
1093.152, 42935.00
1094.252, 42861.00
1095.351, 42910.00
1096.451, 42880.86
1097.550, 42930.00
1098.649, 42830.00
1099.748, 42744.00
1100.846, 42699.00
1101.945, 42632.00
1103.043, 42667.00
1104.141, 42371.00
1105.239, 42694.00
1106.337, 42358.00
1107.434, 42451.94
1108.532, 42378.07
1109.629, 42474.00
1110.726, 42196.00
1111.823, 42111.00
1112.920, 42065.00
1114.017, 41634.52
1115.113, 41911.77
1116.210, 42057.93
1117.306, 42080.10
1118.402, 41606.80
1119.498, 41773.30
1120.593, 41683.41
1121.689, 41583.00
1122.784, 41839.55
1123.879, 41438.34
1124.974, 41689.25
1126.069, 41679.84
1127.164, 41789.56
1128.259, 41641.30
1129.353, 41572.75
1130.447, 41762.27
1131.541, 41808.89
1132.635, 41658.00
1133.729, 41472.00
1134.822, 41619.00
1135.916, 41643.00
1137.009, 41421.00
1138.102, 41244.00
1139.195, 41521.00
1140.288, 41309.00
1141.380, 41192.00
1142.473, 41586.00
1143.565, 41338.00
1144.657, 41394.00
1145.749, 41398.00
1146.841, 41395.00
1147.932, 41474.00
1149.024, 41308.00
1150.115, 41667.00
1151.206, 41355.00
1152.297, 41375.00
1153.388, 41228.00
1154.479, 41462.00
1155.569, 41190.00
1156.659, 41588.00
1157.750, 41201.00
1158.839, 41414.00
1159.929, 41372.00
1161.019, 41221.00
1162.108, 41378.00
1163.198, 41325.00
1164.287, 41244.00
1165.376, 41508.00
1166.465, 41329.00
1167.553, 41270.00
1168.642, 41533.00
1169.730, 41506.00
1170.818, 41448.00
1171.906, 41282.00
1172.994, 41479.00
1174.082, 41107.00
1175.170, 41426.00
1176.257, 41163.02
1177.344, 41444.95
1178.431, 41595.81
1179.518, 41622.66
1180.605, 41154.05
1181.691, 41325.24
1182.778, 41240.02
1183.864, 41144.29
1184.950, 41405.53
1186.036, 41009.00
1187.122, 41264.58
1188.207, 41427.00
1189.292, 41233.00
1190.378, 41279.00
1191.463, 41293.00
1192.548, 41191.00
1193.632, 41338.00
1194.717, 41146.00
1195.801, 41377.00
1196.886, 41352.00
1197.970, 41177.00
1199.054, 41179.00
1200.137, 41204.00
1201.221, 41158.00
1202.305, 40991.00
1203.388, 41249.00
1204.471, 41401.00
1205.554, 41531.00
1206.637, 41244.00
1207.719, 41442.00
1208.802, 41100.00
1209.884, 41523.00
1210.966, 41371.00
1212.048, 41350.00
1213.130, 41365.00
1214.212, 41205.00
1215.293, 41217.00
1216.374, 41372.00
1217.456, 41585.00
1218.536, 41460.00
1219.617, 41267.00
1220.698, 41145.00
1221.778, 41376.00
1222.859, 41189.00
1223.939, 41541.00
1225.019, 41352.00
1226.099, 41376.00
1227.178, 41320.00
1228.258, 41338.00
1229.337, 41580.00
1230.417, 41414.00
1231.496, 41524.00
1232.574, 41239.00
1233.653, 41420.00
1234.732, 41424.00
1235.810, 41363.00
1236.888, 41530.00
1237.966, 41458.79
1239.044, 41347.00
1240.122, 41224.43
1241.199, 41522.26
1242.277, 41689.04
1243.354, 41731.80
1244.431, 41279.09
1245.508, 41466.18
1246.585, 41396.87
1247.661, 41317.04
1248.738, 41594.17
1249.814, 41213.54
1250.890, 41485.01
1251.966, 41496.17
1253.042, 41626.47
1254.117, 41498.79
1255.193, 41450.79
1256.268, 41660.86
1257.343, 41728.03
1258.418, 41592.00
1259.493, 41447.00
1260.567, 41390.00
1261.642, 41394.00
1262.716, 41520.00
1263.790, 41345.00
1264.864, 41560.00
1265.938, 41388.00
1267.011, 41748.00
1268.085, 41663.00
1269.158, 41512.00
1270.231, 41589.00
1271.304, 41732.00
1272.377, 41611.00
1273.450, 41754.00
1274.522, 41765.51
1275.594, 41601.00
1276.666, 41784.00
1277.738, 41678.00
1278.810, 41552.00
1279.882, 41478.00
1280.953, 41740.00
1282.025, 41609.00
1283.096, 41564.00
1284.167, 41663.00
1285.238, 41488.00
1286.308, 41802.00
1287.379, 41591.00
1288.449, 41905.00
1289.519, 41505.00
1290.589, 41618.00
1291.659, 41765.00
1292.729, 41781.00
1293.798, 41678.57
1294.868, 41702.63
1295.937, 41360.00
1297.006, 41717.00
1298.075, 41653.00
1299.143, 41958.00
1300.212, 41897.00
1301.280, 41716.00
1302.348, 41918.00
1303.416, 41705.00
1304.484, 41904.00
1305.552, 41831.00
1306.620, 41966.00
1307.687, 42046.00
1308.754, 41884.00
1309.821, 41857.00
1310.888, 41834.00
1311.955, 41809.00
1313.021, 41788.97
1314.088, 41708.00
1315.154, 41785.00
1316.220, 41706.00
1317.286, 41772.00
1318.352, 42094.00
1319.417, 41944.00
1320.483, 42172.00
1321.548, 41943.00
1322.613, 42216.00
1323.678, 41902.00
1324.743, 41939.00
1325.807, 41854.00
1326.872, 41914.00
1327.936, 41833.92
1329.000, 41821.20
1330.064, 41734.00
1331.128, 41802.00
1332.191, 41834.00
1333.255, 41897.00
1334.318, 42145.00
1335.381, 42009.00
1336.444, 42158.00
1337.507, 42154.61
1338.569, 42097.00
1339.632, 42163.00
1340.694, 41819.00
1341.756, 41852.00
1342.818, 42095.00
1343.880, 41835.00
1344.941, 42210.00
1346.003, 42025.00
1347.064, 42134.00
1348.125, 42027.00
1349.186, 42063.92
1350.247, 42095.00
1351.308, 42091.00
1352.368, 42255.00
1353.428, 42140.00
1354.489, 41992.00
1355.549, 41928.00
1356.608, 42188.00
1357.668, 42107.00
1358.727, 42333.00
1359.787, 42077.00
1360.846, 42099.00
1361.905, 42052.00
1362.964, 42409.00
1364.022, 42410.00
1365.081, 42454.00
1366.139, 42241.00
1367.197, 42188.00
1368.255, 41968.00
1369.313, 42261.00
1370.371, 42139.00
1371.428, 42319.00
1372.486, 42148.00
1373.543, 42240.00
1374.600, 42118.00
1375.657, 42151.00
1376.713, 42202.00
1377.770, 42234.00
1378.826, 42132.00
1379.882, 42403.00
1380.938, 42058.00
1381.994, 42355.00
1383.050, 42262.33
1384.106, 42382.00
1385.161, 42207.00
1386.216, 42418.00
1387.271, 42414.00
1388.326, 42236.00
1389.381, 42492.00
1390.435, 42407.00
1391.490, 42611.00
1392.544, 42103.00
1393.598, 42307.00
1394.652, 42128.00
1395.705, 42495.00
1396.759, 42330.00
1397.812, 42473.00
1398.866, 42675.00
1399.919, 42560.29
1400.972, 42771.00
1402.024, 42477.00
1403.077, 42446.00
1404.129, 42323.00
1405.181, 42245.00
1406.233, 42427.00
1407.285, 42488.00
1408.337, 42343.00
1409.389, 42541.00
1410.440, 42451.00
1411.491, 42766.00
1412.542, 42862.00
1413.593, 42540.00
1414.644, 42473.00
1415.695, 42447.00
1416.745, 42629.00
1417.795, 42297.00
1418.845, 42437.00
1419.895, 42752.00
1420.945, 42473.00
1421.995, 42590.00
1423.044, 42721.00
1424.093, 42731.00
1425.142, 42887.00
1426.191, 42331.00
1427.240, 42641.00
1428.289, 42454.00
1429.337, 42682.00
1430.385, 42647.00
1431.433, 42586.00
1432.481, 42733.00
1433.529, 42735.00
1434.577, 42816.00
1435.624, 42837.00
1436.672, 42561.00
1437.719, 42902.00
1438.766, 42646.00
1439.812, 42935.00
1440.859, 42945.00
1441.905, 42845.00
1442.952, 43039.00
1443.998, 42927.00
1445.044, 42778.00
1446.090, 42614.00
1447.135, 42821.00
1448.181, 42845.00
1449.226, 42855.00
1450.271, 42962.00
1451.316, 43114.00
1452.361, 42720.00
1453.405, 42936.00
1454.450, 42724.00
1455.494, 42989.00
1456.538, 42951.00
1457.582, 43003.00
1458.626, 42950.00
1459.670, 43067.00
1460.713, 42911.00
1461.757, 42955.00
1462.800, 42841.00
1463.843, 42894.00
1464.886, 42947.92
1465.928, 43002.00
1466.971, 43150.00
1468.013, 43049.00
1469.055, 43206.00
1470.097, 42902.00
1471.139, 43179.00
1472.181, 42973.00
1473.222, 43148.00
1474.263, 42984.00
1475.305, 42758.00
1476.346, 43056.00
1477.386, 43154.00
1478.427, 43132.00
1479.468, 43173.00
1480.508, 42943.00
1481.548, 43088.00
1482.588, 43296.00
1483.628, 43100.00
1484.668, 42776.00
1485.707, 42977.00
1486.747, 43104.00
1487.786, 43253.00
1488.825, 43183.00
1489.864, 42971.00
1490.902, 43215.00
1491.941, 43053.00
1492.979, 43349.00
1494.017, 43013.00
1495.055, 43295.00
1496.093, 43101.00
1497.131, 43240.00
1498.168, 43402.00
1499.206, 43147.00
1500.243, 42992.00
1501.280, 43371.00
1502.317, 43116.00
1503.354, 43381.00
1504.390, 43150.00
1505.426, 43429.00
1506.463, 43262.00
1507.499, 43046.00
1508.535, 43200.00
1509.570, 43316.00
1510.606, 43419.00
1511.641, 43355.00
1512.676, 43331.00
1513.711, 43335.00
1514.746, 43163.00
1515.781, 43241.83
1516.816, 43257.00
1517.850, 43362.00
1518.884, 43334.00
1519.918, 43507.00
1520.952, 43271.00
1521.986, 43553.00
1523.019, 43352.00
1524.053, 43495.00
1525.086, 43497.00
1526.119, 43394.00
1527.152, 43469.64
1528.185, 43593.00
1529.217, 43383.00
1530.250, 43751.00
##END=



