##NAMES=Astrophyllite
##RRUFFID=R060103
##IDEAL CHEMISTRY=K_2_NaFe^2+^_7_Ti^4+^_2_(Si_4_O_12_)_2_O_2_(OH)_4_F
##LOCALITY=Brivik, Norway
##OWNER=RRUFF
##SOURCE=University of Arizona Mineral Museum
##DESCRIPTION=Brown fragment embedded in matrix
##STATUS=The identification of this mineral is confirmed by single-crystal X-ray diffraction and chemical analysis.
##URL=rruff.info/R060103
##MEASURED CHEMISTRY=K_2.00_Na_1.00_(Fe^2+^_0.55_Mn_0.32_Fe^3+^_0.04_Mg_0.04_Ca_0.04_)_7_(Ti_0.66_Zr_0.18_Al_0.16_)_2_Si_8.00_O_26_(OH)_4_F_1.00_
##PIN_ID=M01690
##ORIENTATION=Laser parallel to (0 1 1). Fiducial mark perpendicular to laser is parallel to a [1 0 0]
146.4650, 7254.000
147.6990, 7171.000
148.9320, 7308.000
150.1650, 7509.000
151.3980, 7546.000
152.6310, 7671.000
153.8640, 7928.000
155.0960, 8025.000
156.3280, 8069.000
157.5600, 8211.000
158.7920, 8325.000
160.0240, 8624.000
161.2560, 8680.000
162.4870, 9004.000
163.7180, 9261.000
164.9490, 9326.000
166.1800, 9431.000
167.4110, 9550.000
168.6410, 9419.000
169.8720, 9495.000
171.1020, 9442.000
172.3320, 9380.000
173.5620, 9234.000
174.7910, 9209.000
176.0210, 8927.000
177.2500, 8785.000
178.4790, 8532.000
179.7080, 8529.000
180.9370, 8289.000
182.1650, 8099.000
183.3940, 7885.000
184.6220, 7842.000
185.8500, 7914.000
187.0780, 7909.000
188.3050, 7672.000
189.5330, 7813.000
190.7600, 7805.000
191.9870, 7857.000
193.2140, 7916.000
194.4410, 7998.000
195.6680, 8088.000
196.8940, 8111.000
198.1200, 8314.000
199.3470, 8276.000
200.5720, 8603.000
201.7980, 8702.000
203.0240, 8757.000
204.2490, 8857.000
205.4740, 8726.000
206.6990, 9062.000
207.9240, 8946.000
209.1490, 8960.000
210.3740, 9210.000
211.5980, 9146.000
212.8220, 9142.000
214.0460, 9236.000
215.2700, 9412.000
216.4930, 9526.000
217.7170, 9630.000
218.9400, 9762.000
220.1630, 9879.450
221.3860, 10039.17
222.6090, 10189.04
223.8320, 10374.00
225.0540, 10536.00
226.2760, 10704.00
227.4980, 10915.00
228.7200, 11035.57
229.9420, 11180.00
231.1630, 11296.00
232.3850, 11375.00
233.6060, 11491.00
234.8270, 11616.00
236.0480, 11657.00
237.2690, 11603.00
238.4890, 11746.00
239.7090, 11738.00
240.9290, 11608.00
242.1490, 11415.00
243.3690, 11244.00
244.5890, 11005.00
245.8080, 10724.00
247.0270, 10458.57
248.2470, 10153.00
249.4650, 9861.000
250.6840, 9592.624
251.9030, 9312.201
253.1210, 9063.000
254.3390, 8802.000
255.5570, 8569.000
256.7750, 8362.000
257.9930, 8402.000
259.2100, 8371.000
260.4280, 8240.000
261.6450, 7934.000
262.8620, 7810.000
264.0790, 7707.000
265.2950, 7664.000
266.5120, 7597.142
267.7280, 7602.000
268.9440, 7547.000
270.1600, 7543.000
271.3760, 7554.668
272.5920, 7412.000
273.8070, 7505.000
275.0220, 7445.000
276.2370, 7303.000
277.4520, 7177.000
278.6670, 7187.000
279.8820, 7261.000
281.0960, 7148.000
282.3100, 7149.000
283.5240, 7022.000
284.7380, 7027.000
285.9520, 6803.000
287.1650, 6861.000
288.3780, 6785.000
289.5920, 6904.000
290.8050, 6862.000
292.0170, 6824.000
293.2300, 6893.000
294.4430, 6905.000
295.6550, 6894.000
296.8670, 6773.000
298.0790, 6711.000
299.2910, 6789.000
300.5020, 6772.000
301.7140, 6800.000
302.9250, 6777.000
304.1360, 6753.000
305.3470, 6791.000
306.5580, 6714.000
307.7680, 6648.000
308.9780, 6661.000
310.1890, 6686.000
311.3990, 6639.000
312.6090, 6636.000
313.8180, 6677.000
315.0280, 6659.000
316.2370, 6672.000
317.4460, 6562.000
318.6550, 6750.000
319.8640, 6653.000
321.0730, 6688.000
322.2810, 6736.000
323.4890, 6703.000
324.6980, 6826.000
325.9060, 6747.000
327.1130, 6780.000
328.3210, 6934.000
329.5280, 6885.000
330.7360, 6993.000
331.9430, 7083.000
333.1500, 7074.000
334.3560, 7212.000
335.5630, 7394.000
336.7690, 7307.000
337.9760, 7544.000
339.1820, 7568.000
340.3870, 7705.000
341.5930, 7840.000
342.7990, 7913.000
344.0040, 8029.452
345.2090, 8154.000
346.4140, 8197.000
347.6190, 8276.000
348.8240, 8330.014
350.0280, 8480.000
351.2330, 8450.000
352.4370, 8550.000
353.6410, 8549.000
354.8440, 8631.000
356.0480, 8625.000
357.2520, 8573.000
358.4550, 8682.000
359.6580, 8735.000
360.8610, 8606.000
362.0640, 8612.000
363.2660, 8437.000
364.4690, 8379.000
365.6710, 8240.000
366.8730, 8214.000
368.0750, 8085.000
369.2770, 8094.000
370.4780, 8085.000
371.6800, 7948.000
372.8810, 7937.000
374.0820, 7910.000
375.2830, 7859.000
376.4830, 7763.000
377.6840, 7982.000
378.8840, 7794.000
380.0840, 7935.000
381.2840, 7979.000
382.4840, 7909.000
383.6840, 8075.000
384.8830, 8061.000
386.0830, 7910.000
387.2820, 7905.000
388.4810, 7928.000
389.6800, 7749.000
390.8780, 7807.000
392.0770, 7717.000
393.2750, 7621.000
394.4730, 7468.000
395.6710, 7501.000
396.8690, 7378.000
398.0660, 7304.000
399.2640, 7236.000
400.4610, 7224.000
401.6580, 7115.000
402.8550, 7086.000
404.0520, 7027.000
405.2490, 7040.000
406.4450, 7015.000
407.6410, 6958.000
408.8370, 6915.000
410.0330, 6831.000
411.2290, 6850.000
412.4240, 6925.000
413.6200, 6841.000
414.8150, 6904.000
416.0100, 6872.000
417.2050, 6984.000
418.4000, 6885.000
419.5940, 6941.000
420.7880, 6921.641
421.9830, 6902.000
423.1770, 6892.000
424.3700, 6846.000
425.5640, 6861.000
426.7580, 6743.000
427.9510, 6726.000
429.1440, 6615.000
430.3370, 6652.000
431.5300, 6585.000
432.7220, 6554.000
433.9150, 6501.000
435.1070, 6441.000
436.2990, 6464.000
437.4910, 6451.000
438.6830, 6442.000
439.8750, 6384.000
441.0660, 6401.000
442.2570, 6446.000
443.4480, 6292.000
444.6390, 6362.000
445.8300, 6457.000
447.0210, 6535.000
448.2110, 6391.000
449.4010, 6494.000
450.5910, 6521.000
451.7810, 6426.000
452.9710, 6498.000
454.1610, 6572.000
455.3500, 6624.000
456.5390, 6689.000
457.7280, 6746.000
458.9170, 6826.000
460.1060, 6992.000
461.2940, 6961.000
462.4830, 7119.000
463.6710, 7306.000
464.8590, 7201.000
466.0470, 7301.000
467.2350, 7547.000
468.4220, 7492.446
469.6090, 7532.000
470.7970, 7582.000
471.9840, 7572.000
473.1700, 7597.000
474.3570, 7648.000
475.5440, 7617.000
476.7300, 7555.000
477.9160, 7658.000
479.1020, 7530.000
480.2880, 7579.000
481.4740, 7609.000
482.6590, 7534.088
483.8440, 7626.000
485.0300, 7495.000
486.2140, 7490.000
487.3990, 7555.000
488.5840, 7534.000
489.7680, 7484.000
490.9530, 7370.000
492.1370, 7429.000
493.3210, 7296.000
494.5040, 7188.000
495.6880, 7129.000
496.8720, 7192.000
498.0550, 7136.000
499.2380, 7066.000
500.4210, 7014.000
501.6040, 6903.000
502.7860, 6905.000
503.9690, 6795.000
505.1510, 6778.000
506.3330, 6857.000
507.5150, 6873.000
508.6970, 6821.000
509.8780, 6743.000
511.0600, 6725.000
512.2410, 6712.000
513.4220, 6658.000
514.6030, 6694.000
515.7840, 6656.000
516.9640, 6623.000
518.1440, 6754.000
519.3250, 6637.000
520.5050, 6708.000
521.6850, 6606.000
522.8640, 6586.000
524.0440, 6593.000
525.2230, 6686.000
526.4020, 6766.000
527.5820, 6647.000
528.7600, 6747.000
529.9390, 6755.000
531.1180, 6763.000
532.2960, 6874.000
533.4740, 6955.000
534.6520, 6974.000
535.8300, 7074.000
537.0080, 7130.000
538.1850, 7131.000
539.3630, 7286.000
540.5400, 7419.000
541.7170, 7630.000
542.8940, 7712.000
544.0700, 7958.000
545.2470, 8233.000
546.4230, 8488.000
547.5990, 8894.000
548.7750, 9310.000
549.9510, 9612.000
551.1270, 9950.000
552.3020, 10387.00
553.4780, 10893.00
554.6530, 11312.00
555.8280, 11753.00
557.0030, 12012.00
558.1770, 12366.00
559.3520, 12478.00
560.5260, 12645.00
561.7000, 12638.00
562.8740, 12365.00
564.0480, 12356.00
565.2220, 11995.00
566.3950, 11670.00
567.5680, 11356.00
568.7420, 11040.00
569.9150, 10721.00
571.0870, 10361.00
572.2600, 10073.00
573.4320, 9886.000
574.6050, 9637.000
575.7770, 9451.000
576.9490, 9333.000
578.1210, 9193.000
579.2920, 9100.000
580.4640, 8943.000
581.6350, 8842.000
582.8060, 8762.000
583.9770, 8753.000
585.1480, 8812.000
586.3190, 8756.000
587.4890, 8798.000
588.6590, 8902.000
589.8290, 8905.000
590.9990, 8837.000
592.1690, 8880.000
593.3390, 8892.000
594.5080, 8974.000
595.6770, 9009.000
596.8470, 8971.000
598.0160, 8982.766
599.1840, 8928.000
600.3530, 8926.000
601.5210, 8868.000
602.6900, 8861.000
603.8580, 8822.000
605.0260, 8945.000
606.1930, 8821.000
607.3610, 8906.000
608.5280, 8859.000
609.6960, 8926.000
610.8630, 8969.000
612.0300, 8997.000
613.1970, 9149.000
614.3630, 9168.000
615.5300, 9251.000
616.6960, 9303.000
617.8620, 9450.000
619.0280, 9430.000
620.1940, 9526.000
621.3590, 9529.000
622.5250, 9732.000
623.6900, 9805.000
624.8550, 9845.000
626.0200, 9932.000
627.1850, 10093.00
628.3490, 10220.00
629.5140, 10382.00
630.6780, 10506.00
631.8420, 10581.00
633.0060, 11003.00
634.1700, 11074.00
635.3330, 11426.00
636.4970, 11609.00
637.6600, 11963.00
638.8230, 12240.00
639.9860, 12764.00
641.1490, 13218.00
642.3110, 13539.00
643.4740, 14032.00
644.6360, 14836.00
645.7980, 15483.00
646.9600, 16243.00
648.1220, 16992.00
649.2840, 17853.00
650.4450, 18636.00
651.6060, 19344.00
652.7670, 19919.00
653.9280, 20189.00
655.0890, 20379.00
656.2500, 20429.00
657.4100, 20074.00
658.5700, 19498.00
659.7300, 19093.00
660.8900, 18167.00
662.0500, 17556.00
663.2100, 16808.00
664.3690, 16464.00
665.5280, 15878.00
666.6880, 15797.00
667.8460, 15489.00
669.0050, 15648.00
670.1640, 15543.00
671.3220, 15480.00
672.4810, 15523.00
673.6390, 15817.00
674.7970, 16012.00
675.9540, 16338.00
677.1120, 16689.00
678.2690, 17114.00
679.4270, 17412.00
680.5840, 17614.00
681.7410, 17846.00
682.8980, 18247.00
684.0540, 18775.00
685.2110, 19006.00
686.3670, 19415.00
687.5230, 19648.00
688.6790, 19995.00
689.8350, 20381.00
690.9900, 20744.00
692.1460, 20974.00
693.3010, 21181.00
694.4560, 21459.00
695.6110, 21893.00
696.7660, 22024.00
697.9210, 22220.00
699.0750, 22605.00
700.2290, 22682.00
701.3840, 22745.00
702.5370, 22848.00
703.6910, 22960.00
704.8450, 23179.00
705.9980, 23468.00
707.1520, 23288.00
708.3050, 23606.00
709.4580, 23463.00
710.6110, 23353.00
711.7630, 23397.00
712.9160, 23201.00
714.0680, 22989.00
715.2200, 23040.00
716.3720, 22630.00
717.5240, 22459.00
718.6760, 22289.00
719.8270, 21853.00
720.9780, 21536.00
722.1300, 21234.00
723.2810, 20929.00
724.4310, 20496.48
725.5820, 19903.00
726.7330, 19616.00
727.8830, 19162.00
729.0330, 18742.00
730.1830, 18378.00
731.3330, 17887.00
732.4830, 17433.00
733.6320, 17030.00
734.7810, 16523.00
735.9310, 16215.00
737.0800, 15916.00
738.2290, 15674.00
739.3770, 15270.00
740.5260, 15015.00
741.6740, 14629.00
742.8220, 14389.00
743.9700, 14241.00
745.1180, 14018.00
746.2660, 13906.00
747.4130, 13828.00
748.5610, 13668.00
749.7080, 13450.00
750.8550, 13418.00
752.0020, 13306.00
753.1490, 13040.00
754.2950, 13119.00
755.4420, 13030.00
756.5880, 12911.00
757.7340, 12809.00
758.8800, 12678.00
760.0250, 12590.00
761.1710, 12410.00
762.3160, 12280.00
763.4620, 12149.00
764.6070, 12144.00
765.7520, 12017.00
766.8960, 12003.00
768.0410, 11910.00
769.1850, 11692.00
770.3300, 11669.00
771.4740, 11510.00
772.6180, 11441.00
773.7610, 11333.00
774.9050, 11227.00
776.0480, 11289.00
777.1920, 11077.00
778.3350, 11303.00
779.4780, 11077.00
780.6200, 11054.00
781.7630, 11082.00
782.9060, 10874.00
784.0480, 10962.00
785.1900, 10856.00
786.3320, 10817.00
787.4740, 10726.00
788.6150, 10632.00
789.7570, 10597.00
790.8980, 10557.18
792.0390, 10515.00
793.1800, 10535.00
794.3210, 10507.00
795.4620, 10499.00
796.6020, 10383.00
797.7420, 10292.00
798.8830, 10209.00
800.0230, 10015.00
801.1620, 10041.00
802.3020, 9935.000
803.4420, 9962.000
804.5810, 9872.000
805.7200, 9811.000
806.8590, 9780.000
807.9980, 9668.000
809.1370, 9556.000
810.2750, 9559.000
811.4140, 9517.000
812.5520, 9369.000
813.6900, 9195.000
814.8280, 9294.000
815.9650, 9249.000
817.1030, 9200.000
818.2400, 9201.000
819.3780, 9234.000
820.5150, 9188.000
821.6520, 9142.000
822.7880, 9084.000
823.9250, 9132.000
825.0610, 9015.000
826.1980, 9014.000
827.3340, 8926.000
828.4700, 8933.448
829.6050, 8992.000
830.7410, 8923.000
831.8760, 8997.770
833.0120, 8911.000
834.1470, 8989.000
835.2820, 8942.000
836.4160, 8863.000
837.5510, 8876.000
838.6860, 8919.000
839.8200, 8886.000
840.9540, 8741.000
842.0880, 8796.000
843.2220, 8781.000
844.3550, 8724.000
845.4890, 8751.000
846.6220, 8708.577
847.7550, 8597.000
848.8880, 8671.000
850.0210, 8679.000
851.1540, 8683.000
852.2860, 8564.000
853.4190, 8644.000
854.5510, 8817.000
855.6830, 8726.000
856.8150, 8632.000
857.9460, 8796.000
859.0780, 8659.000
860.2090, 8644.000
861.3410, 8714.000
862.4720, 8648.000
863.6020, 8596.000
864.7330, 8580.000
865.8640, 8536.000
866.9940, 8464.000
868.1240, 8543.000
869.2540, 8437.000
870.3840, 8525.000
871.5140, 8374.000
872.6440, 8402.000
873.7730, 8486.000
874.9020, 8413.000
876.0320, 8499.000
877.1600, 8575.000
878.2890, 8630.000
879.4180, 8645.000
880.5460, 8621.000
881.6750, 8718.000
882.8030, 8712.000
883.9310, 8763.000
885.0590, 8825.000
886.1860, 8834.000
887.3140, 8890.000
888.4410, 8995.000
889.5680, 8914.000
890.6950, 9281.000
891.8220, 9161.000
892.9490, 9214.000
894.0750, 9420.000
895.2020, 9477.000
896.3280, 9575.918
897.4540, 9518.000
898.5800, 9698.000
899.7050, 9654.000
900.8310, 9618.000
901.9560, 9902.000
903.0820, 9853.000
904.2070, 10113.00
905.3320, 10079.00
906.4560, 10213.00
907.5810, 10315.00
908.7050, 10532.00
909.8300, 10416.00
910.9540, 10572.00
912.0780, 10594.00
913.2010, 10740.00
914.3250, 10674.00
915.4480, 10754.00
916.5720, 10813.00
917.6950, 10820.00
918.8180, 10889.00
919.9410, 10795.00
921.0630, 10792.00
922.1860, 10750.00
923.3080, 10777.00
924.4300, 10667.00
925.5520, 10691.00
926.6740, 10596.00
927.7960, 10592.00
928.9170, 10631.00
930.0390, 10574.00
931.1600, 10540.00
932.2810, 10476.00
933.4020, 10427.00
934.5230, 10372.00
935.6430, 10298.00
936.7640, 10225.44
937.8840, 10156.00
939.0040, 10058.00
940.1240, 9990.000
941.2440, 9908.000
942.3630, 9720.000
943.4830, 9629.000
944.6020, 9745.000
945.7210, 9674.000
946.8400, 9366.000
947.9590, 9535.000
949.0770, 9370.993
950.1960, 9229.000
951.3140, 9320.000
952.4320, 9082.000
953.5500, 9138.000
954.6680, 9195.000
955.7860, 9057.000
956.9030, 8834.000
958.0210, 8825.000
959.1380, 8753.000
960.2550, 8803.000
961.3720, 8855.000
962.4890, 8791.000
963.6050, 8687.000
964.7220, 8704.000
965.8380, 8707.000
966.9540, 8747.000
968.0700, 8669.000
969.1860, 8630.000
970.3010, 8631.000
971.4170, 8648.000
972.5320, 8582.000
973.6470, 8554.000
974.7620, 8514.000
975.8770, 8478.554
976.9910, 8553.000
978.1060, 8478.000
979.2200, 8472.000
980.3340, 8593.000
981.4480, 8544.000
982.5620, 8696.000
983.6760, 8730.000
984.7890, 8620.000
985.9030, 8553.000
987.0160, 8699.000
988.1290, 8658.000
989.2420, 8778.000
990.3550, 8801.000
991.4670, 8897.000
992.5800, 8962.000
993.6920, 9058.000
994.8040, 9130.000
995.9160, 9400.000
997.0280, 9579.000
998.1390, 9714.000
999.2510, 9831.000
1000.362, 9956.000
1001.473, 10131.00
1002.584, 10122.00
1003.695, 10077.00
1004.805, 9806.000
1005.916, 9593.000
1007.026, 9604.000
1008.136, 9678.000
1009.246, 9582.000
1010.356, 9503.000
1011.466, 9688.000
1012.576, 9707.000
1013.685, 9857.000
1014.794, 9966.000
1015.903, 10015.00
1017.012, 10095.00
1018.121, 10245.00
1019.229, 10181.00
1020.338, 10399.00
1021.446, 10646.00
1022.554, 10598.00
1023.662, 10577.00
1024.770, 10670.00
1025.878, 10646.55
1026.985, 10819.00
1028.092, 10730.00
1029.200, 10853.00
1030.307, 10964.00
1031.413, 10984.00
1032.520, 10832.00
1033.627, 10932.00
1034.733, 10965.00
1035.839, 10997.00
1036.945, 10727.00
1038.051, 10790.00
1039.157, 10637.00
1040.262, 10627.00
1041.368, 10677.00
1042.473, 10448.00
1043.578, 10429.00
1044.683, 10179.00
1045.788, 10190.00
1046.893, 10223.00
1047.997, 10030.00
1049.101, 9948.000
1050.205, 9842.000
1051.309, 9814.000
1052.413, 9801.000
1053.517, 9741.119
1054.621, 9701.943
1055.724, 9672.000
1056.827, 9592.000
1057.930, 9544.000
1059.033, 9489.000
1060.136, 9558.000
1061.238, 9460.000
1062.341, 9468.000
1063.443, 9363.000
1064.545, 9423.000
1065.647, 9475.000
1066.749, 9367.000
1067.850, 9386.000
1068.952, 9382.000
1070.053, 9453.000
1071.154, 9489.000
1072.255, 9375.000
1073.356, 9390.000
1074.457, 9422.000
1075.557, 9463.000
1076.658, 9436.000
1077.758, 9439.000
1078.858, 9533.000
1079.958, 9462.000
1081.057, 9533.000
1082.157, 9587.000
1083.256, 9661.000
1084.356, 9623.159
1085.455, 9491.000
1086.554, 9532.000
1087.653, 9394.000
1088.751, 9350.000
1089.850, 9455.000
1090.948, 9325.000
1092.046, 9322.000
1093.144, 9373.000
1094.242, 9308.000
1095.340, 9142.000
1096.437, 9440.000
1097.534, 9389.000
1098.632, 9363.000
1099.729, 9193.000
1100.826, 9299.000
1101.922, 9451.000
1103.019, 9601.000
1104.115, 9636.060
1105.212, 9624.000
1106.308, 9726.000
1107.404, 9793.000
1108.499, 9884.000
1109.595, 9969.000
1110.691, 10006.00
1111.786, 10020.00
1112.881, 9979.000
1113.976, 9900.000
1115.071, 9799.000
1116.166, 9691.481
1117.260, 9589.934
1118.355, 9437.000
1119.449, 9378.000
1120.543, 9277.000
1121.637, 9195.000
1122.731, 9192.000
1123.824, 9189.000
1124.918, 9157.771
1126.011, 9101.000
1127.104, 9142.000
1128.197, 9162.000
1129.290, 9159.000
1130.382, 9038.000
1131.475, 9118.000
1132.567, 9037.000
1133.659, 9094.000
1134.751, 9037.000
1135.843, 9051.000
1136.935, 9014.000
1138.027, 8922.000
1139.118, 9017.000
1140.209, 9002.000
1141.300, 8897.000
1142.391, 9023.000
1143.482, 8933.000
1144.573, 9110.000
1145.663, 9158.000
1146.754, 8939.000
1147.844, 9037.000
1148.934, 8974.000
1150.024, 9099.000
1151.113, 9033.000
1152.203, 9026.000
1153.292, 9188.000
1154.381, 9162.000
1155.470, 9256.000
1156.559, 9072.000
1157.648, 9078.000
1158.737, 9110.000
1159.825, 9112.000
1160.913, 9198.000
1162.001, 9164.000
1163.089, 9162.000
1164.177, 9040.000
1165.265, 8971.000
1166.352, 8999.000
1167.440, 9023.000
1168.527, 8972.000
1169.614, 9029.000
1170.701, 9115.000
1171.788, 9076.000
1172.874, 9117.000
1173.961, 9253.000
1175.047, 9207.000
1176.133, 9235.000
1177.219, 9217.000
1178.305, 9279.515
1179.390, 9441.000
1180.476, 9411.000
1181.561, 9591.000
1182.646, 9628.000
1183.731, 9769.000
1184.816, 9810.000
1185.901, 9787.000
1186.985, 9715.000
1188.070, 9668.000
1189.154, 9532.000
1190.238, 9555.000
1191.322, 9276.000
1192.406, 9389.000
1193.489, 9251.000
1194.573, 9286.000
1195.656, 9360.000
1196.739, 9218.000
1197.822, 9128.000
1198.905, 9215.000
1199.988, 9120.000
1201.070, 9220.000
1202.153, 9096.000
1203.235, 9113.000
1204.317, 9148.000
1205.399, 9195.000
1206.481, 9209.000
1207.562, 9303.000
1208.644, 9355.000
1209.725, 9325.000
1210.806, 9358.000
1211.887, 9489.000
1212.968, 9546.000
1214.049, 9517.000
1215.129, 9583.000
1216.209, 9624.000
1217.290, 9696.000
1218.370, 9722.000
1219.450, 9783.545
1220.529, 9834.354
1221.609, 9890.000
1222.688, 9921.000
1223.768, 9971.000
1224.847, 9978.000
1225.926, 9956.905
1227.005, 9992.325
1228.083, 9913.000
1229.162, 9981.000
1230.240, 10044.00
1231.318, 9957.000
1232.396, 9947.000
1233.474, 9995.000
1234.552, 9982.000
1235.629, 9956.000
1236.707, 9811.000
1237.784, 9865.000
1238.861, 9850.000
1239.938, 9963.000
1241.015, 9934.000
1242.092, 9885.000
1243.168, 10005.00
1244.244, 9981.000
1245.321, 10027.00
1246.397, 10131.00
1247.473, 9976.000
1248.548, 9978.000
1249.624, 9983.000
1250.699, 10139.00
1251.775, 10016.00
1252.850, 10116.00
1253.925, 10118.00
1254.999, 10028.00
1256.074, 10145.00
1257.148, 9977.000
1258.223, 10163.00
1259.297, 9897.000
1260.371, 10186.00
1261.445, 9982.000
1262.519, 9889.000
1263.592, 9944.000
1264.666, 9858.000
1265.739, 9849.000
1266.812, 9871.000
1267.885, 9922.000
1268.958, 9932.000
1270.030, 9891.000
1271.103, 9912.938
1272.175, 9978.000
1273.247, 9933.000
1274.319, 9854.000
1275.391, 9940.000
1276.463, 9773.000
1277.535, 9980.000
1278.606, 10086.00
1279.677, 9979.000
1280.748, 10109.00
1281.819, 10171.00
1282.890, 10106.00
1283.961, 10190.00
1285.031, 10126.00
1286.102, 10215.00
1287.172, 10236.00
1288.242, 10178.00
1289.312, 10282.00
1290.381, 10297.00
1291.451, 10221.00
1292.520, 10247.00
1293.590, 10289.00
1294.659, 10248.00
1295.728, 10184.00
1296.797, 10165.00
1297.865, 10076.00
1298.934, 10114.00
1300.002, 10043.00
1301.070, 10083.00
1302.138, 10147.00
1303.206, 10170.00
1304.274, 9971.000
1305.341, 10070.00
1306.409, 9967.000
1307.476, 10153.00
1308.543, 10070.00
1309.610, 9936.000
1310.677, 10143.00
1311.744, 10104.00
1312.810, 9983.000
1313.877, 10000.00
1314.943, 9909.000
1316.009, 9901.000
1317.075, 9898.000
1318.140, 9863.000
1319.206, 9897.000
1320.272, 9852.000
1321.337, 9718.000
1322.402, 9788.000
1323.467, 9717.000
1324.532, 9604.000
1325.596, 9765.000
1326.661, 9642.000
1327.725, 9662.000
1328.790, 9644.000
1329.854, 9696.000
1330.918, 9651.000
1331.981, 9639.000
1333.045, 9697.000
1334.108, 9642.000
1335.172, 9616.000
1336.235, 9613.000
1337.298, 9596.000
1338.361, 9658.000
1339.423, 9702.842
1340.486, 9658.000
1341.548, 9804.000
1342.611, 9841.000
1343.673, 9774.000
1344.735, 9775.000
1345.796, 9744.000
1346.858, 9685.000
1347.919, 9762.000
1348.981, 9667.000
1350.042, 9733.000
1351.103, 9683.000
1352.164, 9701.000
1353.225, 9603.000
1354.285, 9592.000
1355.346, 9688.000
1356.406, 9634.000
1357.466, 9651.000
1358.526, 9701.000
1359.586, 9544.000
1360.645, 9602.000
1361.705, 9598.000
1362.764, 9645.000
1363.823, 9635.000
1364.882, 9659.000
1365.941, 9733.000
1367.000, 9719.000
1368.059, 9803.000
1369.117, 9677.000
1370.175, 9721.000
1371.233, 9587.000
1372.291, 9773.000
1373.349, 9662.000
1374.407, 9650.000
1375.464, 9690.000
1376.522, 9706.000
1377.579, 9703.000
1378.636, 9705.000
1379.693, 9696.000
1380.750, 9727.000
1381.806, 9644.000
1382.863, 9839.000
1383.919, 9863.000
1384.975, 9770.000
1386.031, 9730.000
1387.087, 9848.000
1388.143, 9697.000
1389.199, 9808.000
1390.254, 9860.000
1391.309, 9689.000
1392.364, 9765.000
1393.419, 9829.000
1394.474, 9699.000
1395.529, 9732.000
1396.583, 9840.000
1397.638, 9778.000
1398.692, 9677.000
1399.746, 9900.000
1400.800, 9786.000
1401.853, 9803.000
1402.907, 9787.000
1403.960, 9877.000
1405.014, 9855.000
1406.067, 9953.000
1407.120, 9957.000
1408.173, 9928.000
1409.225, 9847.000
1410.278, 9873.000
1411.330, 9921.000
1412.383, 9911.623
1413.435, 10014.00
1414.487, 9983.000
1415.538, 9951.000
1416.590, 10006.00
1417.641, 9990.000
1418.693, 9983.000
1419.744, 10056.00
1420.795, 9926.000
1421.846, 10030.00
1422.897, 10091.00
1423.947, 10208.00
1424.998, 10219.65
1426.048, 10294.00
1427.098, 10245.00
1428.148, 10216.00
1429.198, 10229.00
1430.247, 10245.00
1431.297, 10241.42
1432.346, 10224.00
1433.396, 10290.00
1434.445, 10339.54
1435.494, 10430.80
1436.542, 10516.00
1437.591, 10631.00
1438.639, 10682.00
1439.688, 10761.76
1440.736, 10809.00
1441.784, 10863.00
1442.832, 10880.00
1443.880, 10880.00
1444.927, 10910.00
1445.975, 10938.00
1447.022, 10823.00
1448.069, 10997.00
1449.116, 11148.00
1450.163, 10904.00
1451.209, 11164.00
1452.256, 10907.00
1453.302, 11185.00
1454.348, 11148.00
1455.394, 11015.00
1456.440, 11042.00
1457.486, 10911.00
1458.532, 10911.00
1459.577, 10993.00
1460.623, 10784.00
1461.668, 10808.00
1462.713, 10813.00
1463.758, 10805.00
1464.802, 10704.00
1465.847, 10674.00
1466.891, 10607.00
1467.936, 10741.00
1468.980, 10626.00
1470.024, 10601.00
1471.067, 10536.00
1472.111, 10387.00
1473.155, 10480.00
1474.198, 10420.00
1475.241, 10534.00
1476.284, 10590.00
1477.327, 10547.00
1478.370, 10364.00
1479.413, 10526.00
1480.455, 10319.00
1481.497, 10407.00
1482.540, 10325.00
1483.582, 10356.00
1484.624, 10421.00
1485.665, 10342.00
1486.707, 10411.00
1487.748, 10413.00
1488.790, 10340.00
1489.831, 10240.00
1490.872, 10203.00
1491.912, 10167.15
1492.953, 10113.00
1493.994, 10173.00
1495.034, 10256.00
1496.074, 10337.00
1497.114, 10152.00
1498.154, 10328.00
1499.194, 10196.00
1500.234, 10254.00
1501.273, 10182.00
1502.313, 10260.00
1503.352, 10299.00
1504.391, 10245.00
1505.430, 10215.00
1506.468, 10197.00
1507.507, 10171.35
1508.545, 10235.00
1509.584, 10174.00
1510.622, 10183.00
1511.660, 10246.00
1512.698, 10224.00
1513.735, 10185.00
1514.773, 10285.00
1515.810, 10239.00
1516.848, 10350.00
1517.885, 10282.00
1518.922, 10239.00
1519.958, 10182.00
1520.995, 10269.00
1522.032, 10205.28
1523.068, 10239.00
1524.104, 10201.00
1525.140, 10185.00
1526.176, 10242.00
1527.212, 10193.00
1528.248, 10242.00
1529.283, 10379.00
1530.318, 10222.00
1531.353, 10337.00
1532.389, 10191.00
1533.423, 10304.00
1534.458, 10458.00
1535.493, 10369.00
1536.527, 10465.00
1537.561, 10280.00
1538.596, 10278.00
1539.630, 10259.00
1540.663, 10260.00
1541.697, 10336.00
1542.731, 10272.00
1543.764, 10378.00
1544.797, 10465.00
1545.830, 10338.00
1546.863, 10256.00
1547.896, 10339.00
1548.929, 10576.00
1549.961, 10462.51
1550.994, 10475.00
1552.026, 10442.00
1553.058, 10383.00
1554.090, 10439.00
1555.121, 10456.00
1556.153, 10535.00
1557.185, 10413.00
1558.216, 10488.00
1559.247, 10444.00
1560.278, 10426.00
1561.309, 10371.00
1562.340, 10493.00
##END=



