##NAMES=Astrophyllite
##RRUFFID=R060103
##IDEAL CHEMISTRY=K_2_NaFe^2+^_7_Ti^4+^_2_(Si_4_O_12_)_2_O_2_(OH)_4_F
##LOCALITY=Brivik, Norway
##OWNER=RRUFF
##SOURCE=University of Arizona Mineral Museum
##DESCRIPTION=Brown fragment embedded in matrix
##STATUS=The identification of this mineral is confirmed by single-crystal X-ray diffraction and chemical analysis.
##URL=rruff.info/R060103
##MEASURED CHEMISTRY=K_2.00_Na_1.00_(Fe^2+^_0.55_Mn_0.32_Fe^3+^_0.04_Mg_0.04_Ca_0.04_)_7_(Ti_0.66_Zr_0.18_Al_0.16_)_2_Si_8.00_O_26_(OH)_4_F_1.00_
##PIN_ID=M01572
##ORIENTATION=Laser parallel to (1 1 0). Fiducial mark perpendicular to laser is parallel to c [0 0 1]
150.1650, 8006.000
151.3980, 8242.000
152.6310, 8375.000
153.8640, 8574.000
155.0960, 8932.000
156.3280, 9042.000
157.5600, 9259.000
158.7920, 9662.000
160.0240, 10104.00
161.2560, 10382.00
162.4870, 10822.00
163.7180, 11350.00
164.9490, 11648.00
166.1800, 11977.00
167.4110, 12068.00
168.6410, 12419.00
169.8720, 12415.00
171.1020, 12585.00
172.3320, 12345.00
173.5620, 11905.00
174.7910, 11737.00
176.0210, 11193.00
177.2500, 10961.00
178.4790, 10505.00
179.7080, 10100.00
180.9370, 9751.000
182.1650, 9349.000
183.3940, 9255.000
184.6220, 8920.000
185.8500, 8665.000
187.0780, 8643.000
188.3050, 8545.000
189.5330, 8291.000
190.7600, 8251.000
191.9870, 8155.000
193.2140, 8116.000
194.4410, 8081.000
195.6680, 8173.000
196.8940, 7984.000
198.1200, 8189.000
199.3470, 8046.000
200.5720, 8270.000
201.7980, 8276.000
203.0240, 8219.000
204.2490, 8314.000
205.4740, 8253.000
206.6990, 8192.000
207.9240, 8395.000
209.1490, 8347.000
210.3740, 8432.000
211.5980, 8519.000
212.8220, 8712.000
214.0460, 8603.000
215.2700, 8753.000
216.4930, 8840.000
217.7170, 9062.000
218.9400, 9001.000
220.1630, 8972.000
221.3860, 9067.000
222.6090, 8959.000
223.8320, 9223.000
225.0540, 9037.000
226.2760, 9045.000
227.4980, 9276.000
228.7200, 9212.000
229.9420, 9084.000
231.1630, 8991.000
232.3850, 9206.000
233.6060, 9130.000
234.8270, 9163.000
236.0480, 9190.000
237.2690, 9162.573
238.4890, 9173.263
239.7090, 9168.000
240.9290, 9150.000
242.1490, 9167.000
243.3690, 9166.000
244.5890, 9150.000
245.8080, 9002.000
247.0270, 9012.000
248.2470, 8947.000
249.4650, 8952.000
250.6840, 8841.000
251.9030, 8860.000
253.1210, 8852.000
254.3390, 8925.000
255.5570, 8851.000
256.7750, 8905.000
257.9930, 9024.000
259.2100, 8992.686
260.4280, 9007.307
261.6450, 8985.000
262.8620, 8935.000
264.0790, 8803.000
265.2950, 8743.000
266.5120, 8745.000
267.7280, 8790.000
268.9440, 8710.000
270.1600, 8820.000
271.3760, 8829.000
272.5920, 8709.000
273.8070, 8898.000
275.0220, 8744.000
276.2370, 8801.000
277.4520, 8846.000
278.6670, 8717.000
279.8820, 8731.000
281.0960, 8756.000
282.3100, 8782.000
283.5240, 8754.000
284.7380, 8925.000
285.9520, 8775.000
287.1650, 8835.000
288.3780, 9000.000
289.5920, 8904.000
290.8050, 8947.000
292.0170, 9130.000
293.2300, 9084.000
294.4430, 9090.000
295.6550, 9175.000
296.8670, 9364.000
298.0790, 9302.000
299.2910, 9328.000
300.5020, 9315.000
301.7140, 9297.000
302.9250, 9226.000
304.1360, 9240.000
305.3470, 9233.000
306.5580, 9170.000
307.7680, 9325.000
308.9780, 9214.000
310.1890, 9155.000
311.3990, 8858.000
312.6090, 9116.000
313.8180, 8995.000
315.0280, 8894.000
316.2370, 8964.000
317.4460, 8925.000
318.6550, 8831.000
319.8640, 8861.000
321.0730, 8585.000
322.2810, 8644.000
323.4890, 8567.000
324.6980, 8660.000
325.9060, 8487.000
327.1130, 8586.000
328.3210, 8460.000
329.5280, 8486.000
330.7360, 8537.000
331.9430, 8487.000
333.1500, 8687.000
334.3560, 8646.000
335.5630, 8708.000
336.7690, 8761.000
337.9760, 8889.000
339.1820, 9014.000
340.3870, 8982.000
341.5930, 8937.000
342.7990, 9077.000
344.0040, 9181.000
345.2090, 9225.000
346.4140, 9232.000
347.6190, 9135.000
348.8240, 9195.000
350.0280, 9044.000
351.2330, 9093.000
352.4370, 9042.000
353.6410, 8839.000
354.8440, 8856.000
356.0480, 8691.000
357.2520, 8710.000
358.4550, 8525.000
359.6580, 8603.000
360.8610, 8582.000
362.0640, 8403.000
363.2660, 8441.000
364.4690, 8333.000
365.6710, 8281.673
366.8730, 8420.000
368.0750, 8244.000
369.2770, 8267.000
370.4780, 8363.000
371.6800, 8249.000
372.8810, 8339.000
374.0820, 8251.000
375.2830, 8210.000
376.4830, 8104.000
377.6840, 8261.000
378.8840, 8193.000
380.0840, 8119.000
381.2840, 8064.000
382.4840, 7997.000
383.6840, 8034.000
384.8830, 7826.000
386.0830, 7808.000
387.2820, 7809.000
388.4810, 7905.000
389.6800, 7766.000
390.8780, 7847.000
392.0770, 7665.000
393.2750, 7692.000
394.4730, 7741.000
395.6710, 7749.000
396.8690, 7759.000
398.0660, 7673.000
399.2640, 7596.000
400.4610, 7551.000
401.6580, 7542.000
402.8550, 7597.000
404.0520, 7559.000
405.2490, 7581.000
406.4450, 7416.000
407.6410, 7360.000
408.8370, 7248.000
410.0330, 7305.000
411.2290, 7188.000
412.4240, 7241.000
413.6200, 7261.000
414.8150, 7228.000
416.0100, 7161.000
417.2050, 7104.000
418.4000, 7204.000
419.5940, 7202.000
420.7880, 7280.000
421.9830, 7369.000
423.1770, 7302.000
424.3700, 7382.000
425.5640, 7262.000
426.7580, 7292.000
427.9510, 7154.000
429.1440, 7070.000
430.3370, 7008.000
431.5300, 6940.000
432.7220, 6858.080
433.9150, 6928.000
435.1070, 6677.110
436.2990, 6762.705
437.4910, 6805.780
438.6830, 6808.637
439.8750, 6649.766
441.0660, 6700.551
442.2570, 6667.814
443.4480, 6631.989
444.6390, 6713.290
445.8300, 6579.765
447.0210, 6659.919
448.2110, 6655.276
449.4010, 6689.959
450.5910, 6640.601
451.7810, 6617.660
452.9710, 6679.493
454.1610, 6694.933
455.3500, 6637.272
456.5390, 6676.549
457.7280, 6543.607
458.9170, 6562.449
460.1060, 6646.979
461.2940, 6595.322
462.4830, 6637.898
463.6710, 6619.000
464.8590, 6650.000
466.0470, 6602.000
467.2350, 6635.000
468.4220, 6754.000
469.6090, 6730.990
470.7970, 6684.000
471.9840, 6765.000
473.1700, 6725.000
474.3570, 6686.000
475.5440, 6608.000
476.7300, 6635.000
477.9160, 6581.000
479.1020, 6603.000
480.2880, 6505.000
481.4740, 6472.000
482.6590, 6434.000
483.8440, 6513.000
485.0300, 6515.000
486.2140, 6577.000
487.3990, 6614.000
488.5840, 6547.000
489.7680, 6540.000
490.9530, 6477.000
492.1370, 6459.000
493.3210, 6479.000
494.5040, 6589.000
495.6880, 6475.000
496.8720, 6524.000
498.0550, 6610.000
499.2380, 6536.000
500.4210, 6532.000
501.6040, 6467.000
502.7860, 6412.000
503.9690, 6402.000
505.1510, 6462.000
506.3330, 6461.000
507.5150, 6432.000
508.6970, 6405.000
509.8780, 6469.000
511.0600, 6406.000
512.2410, 6448.000
513.4220, 6482.000
514.6030, 6452.000
515.7840, 6464.802
516.9640, 6417.000
518.1440, 6416.000
519.3250, 6452.000
520.5050, 6397.000
521.6850, 6386.000
522.8640, 6425.674
524.0440, 6523.000
525.2230, 6519.000
526.4020, 6504.000
527.5820, 6585.000
528.7600, 6563.000
529.9390, 6624.000
531.1180, 6633.089
532.2960, 6588.000
533.4740, 6647.000
534.6520, 6651.000
535.8300, 6647.000
537.0080, 6830.000
538.1850, 6761.000
539.3630, 6849.000
540.5400, 6842.000
541.7170, 6849.000
542.8940, 6989.000
544.0700, 7020.000
545.2470, 7107.000
546.4230, 7178.000
547.5990, 7283.000
548.7750, 7508.000
549.9510, 7574.000
551.1270, 7860.000
552.3020, 8007.000
553.4780, 8015.000
554.6530, 8161.000
555.8280, 8440.000
557.0030, 8486.000
558.1770, 8394.000
559.3520, 8625.000
560.5260, 8529.000
561.7000, 8533.000
562.8740, 8421.000
564.0480, 8355.000
565.2220, 8184.000
566.3950, 8117.459
567.5680, 8032.000
568.7420, 7914.000
569.9150, 7817.000
571.0870, 7665.000
572.2600, 7698.000
573.4320, 7497.000
574.6050, 7533.000
575.7770, 7409.000
576.9490, 7414.000
578.1210, 7259.000
579.2920, 7305.000
580.4640, 7143.000
581.6350, 7231.000
582.8060, 7217.000
583.9770, 7189.000
585.1480, 7202.000
586.3190, 7219.000
587.4890, 7234.000
588.6590, 7308.000
589.8290, 7319.000
590.9990, 7362.000
592.1690, 7389.000
593.3390, 7398.000
594.5080, 7500.000
595.6770, 7612.000
596.8470, 7450.000
598.0160, 7487.000
599.1840, 7555.000
600.3530, 7661.000
601.5210, 7588.000
602.6900, 7629.000
603.8580, 7713.000
605.0260, 7796.000
606.1930, 7634.000
607.3610, 7766.000
608.5280, 7749.000
609.6960, 7883.000
610.8630, 7899.000
612.0300, 7965.000
613.1970, 7945.000
614.3630, 7989.000
615.5300, 8099.000
616.6960, 8045.000
617.8620, 8132.000
619.0280, 8152.000
620.1940, 8264.000
621.3590, 8266.000
622.5250, 8391.000
623.6900, 8362.000
624.8550, 8414.000
626.0200, 8572.000
627.1850, 8723.000
628.3490, 8862.000
629.5140, 8883.000
630.6780, 8968.000
631.8420, 8968.000
633.0060, 9087.652
634.1700, 9193.000
635.3330, 9366.000
636.4970, 9488.000
637.6600, 9736.000
638.8230, 9980.000
639.9860, 10021.00
641.1490, 10297.00
642.3110, 10542.00
643.4740, 10849.00
644.6360, 11354.00
645.7980, 11850.00
646.9600, 12186.00
648.1220, 12718.00
649.2840, 13022.00
650.4450, 13579.00
651.6060, 13985.00
652.7670, 14296.00
653.9280, 14346.00
655.0890, 14603.00
656.2500, 14665.00
657.4100, 14554.00
658.5700, 14169.00
659.7300, 14040.00
660.8900, 13612.00
662.0500, 13301.00
663.2100, 13182.00
664.3690, 12942.00
665.5280, 12839.00
666.6880, 12771.00
667.8460, 12706.00
669.0050, 12973.00
670.1640, 13040.00
671.3220, 13201.00
672.4810, 13334.00
673.6390, 13561.11
674.7970, 13981.00
675.9540, 14139.00
677.1120, 14383.00
678.2690, 14810.00
679.4270, 14987.00
680.5840, 15509.00
681.7410, 15873.00
682.8980, 16338.00
684.0540, 16424.00
685.2110, 16710.00
686.3670, 17094.00
687.5230, 17352.00
688.6790, 17617.00
689.8350, 18123.00
690.9900, 18298.00
692.1460, 18657.00
693.3010, 18748.00
694.4560, 18894.00
695.6110, 19080.00
696.7660, 19266.00
697.9210, 19685.00
699.0750, 19936.00
700.2290, 20158.00
701.3840, 19893.00
702.5370, 20187.00
703.6910, 20248.00
704.8450, 20300.00
705.9980, 20532.00
707.1520, 20673.00
708.3050, 20464.00
709.4580, 20576.00
710.6110, 20435.00
711.7630, 20209.00
712.9160, 20293.00
714.0680, 20256.00
715.2200, 20006.00
716.3720, 19894.00
717.5240, 19589.00
718.6760, 19503.00
719.8270, 19241.00
720.9780, 18895.00
722.1300, 18565.00
723.2810, 18269.00
724.4310, 17882.00
725.5820, 17502.00
726.7330, 17238.00
727.8830, 17025.00
729.0330, 16599.00
730.1830, 16316.00
731.3330, 16039.00
732.4830, 15664.00
733.6320, 15313.00
734.7810, 15105.00
735.9310, 14849.00
737.0800, 14607.00
738.2290, 14300.00
739.3770, 14105.26
740.5260, 13803.00
741.6740, 13685.00
742.8220, 13485.00
743.9700, 13267.00
745.1180, 13167.81
746.2660, 12960.00
747.4130, 12971.00
748.5610, 12805.00
749.7080, 12797.00
750.8550, 12589.00
752.0020, 12573.00
753.1490, 12530.00
754.2950, 12464.00
755.4420, 12489.00
756.5880, 12353.00
757.7340, 12253.00
758.8800, 12275.00
760.0250, 12220.00
761.1710, 12277.00
762.3160, 12081.00
763.4620, 12080.00
764.6070, 11987.00
765.7520, 12007.00
766.8960, 11973.39
768.0410, 11946.06
769.1850, 11951.00
770.3300, 11926.00
771.4740, 11930.00
772.6180, 11945.00
773.7610, 11999.00
774.9050, 12006.85
776.0480, 12006.50
777.1920, 12037.00
778.3350, 11987.00
779.4780, 11953.00
780.6200, 11948.00
781.7630, 11926.00
782.9060, 11967.00
784.0480, 11816.00
785.1900, 11793.00
786.3320, 11926.00
787.4740, 11796.00
788.6150, 11599.00
789.7570, 11407.00
790.8980, 11293.74
792.0390, 11222.00
793.1800, 11049.00
794.3210, 10962.00
795.4620, 10846.00
796.6020, 10728.00
797.7420, 10486.00
798.8830, 10490.00
800.0230, 10204.00
801.1620, 10031.00
802.3020, 9878.000
803.4420, 9681.000
804.5810, 9444.000
805.7200, 9444.000
806.8590, 9183.000
807.9980, 9061.000
809.1370, 8953.000
810.2750, 8749.000
811.4140, 8828.000
812.5520, 8637.000
813.6900, 8523.000
814.8280, 8384.000
815.9650, 8355.000
817.1030, 8299.000
818.2400, 8274.000
819.3780, 8206.000
820.5150, 8149.000
821.6520, 8071.973
822.7880, 8020.094
823.9250, 7974.447
825.0610, 7923.000
826.1980, 7885.000
827.3340, 7865.408
828.4700, 7798.000
829.6050, 7807.000
830.7410, 7762.252
831.8760, 7607.000
833.0120, 7680.000
834.1470, 7612.000
835.2820, 7518.000
836.4160, 7598.000
837.5510, 7553.000
838.6860, 7563.797
839.8200, 7600.000
840.9540, 7563.000
842.0880, 7460.000
843.2220, 7389.000
844.3550, 7478.000
845.4890, 7368.000
846.6220, 7445.000
847.7550, 7410.000
848.8880, 7390.000
850.0210, 7322.000
851.1540, 7286.000
852.2860, 7355.000
853.4190, 7340.000
854.5510, 7359.000
855.6830, 7373.000
856.8150, 7398.000
857.9460, 7372.000
859.0780, 7364.000
860.2090, 7469.000
861.3410, 7545.000
862.4720, 7380.000
863.6020, 7570.000
864.7330, 7395.000
865.8640, 7466.000
866.9940, 7496.000
868.1240, 7411.000
869.2540, 7487.000
870.3840, 7650.000
871.5140, 7712.000
872.6440, 7654.000
873.7730, 7717.000
874.9020, 7796.000
876.0320, 7711.000
877.1600, 7845.000
878.2890, 7862.000
879.4180, 7996.000
880.5460, 8018.000
881.6750, 7992.000
882.8030, 8256.000
883.9310, 8264.000
885.0590, 8278.000
886.1860, 8352.000
887.3140, 8411.000
888.4410, 8456.000
889.5680, 8528.000
890.6950, 8715.000
891.8220, 8697.000
892.9490, 8681.000
894.0750, 8941.000
895.2020, 8971.000
896.3280, 8918.000
897.4540, 9100.000
898.5800, 9284.000
899.7050, 9217.000
900.8310, 9303.000
901.9560, 9440.000
903.0820, 9613.000
904.2070, 9773.000
905.3320, 9747.000
906.4560, 9883.000
907.5810, 10047.00
908.7050, 10247.00
909.8300, 10244.00
910.9540, 10460.00
912.0780, 10638.00
913.2010, 10788.00
914.3250, 10810.00
915.4480, 10894.00
916.5720, 10833.00
917.6950, 10984.00
918.8180, 11024.00
919.9410, 10955.00
921.0630, 11101.00
922.1860, 11048.00
923.3080, 11180.00
924.4300, 11073.00
925.5520, 11114.00
926.6740, 11103.00
927.7960, 11047.00
928.9170, 11136.00
930.0390, 10922.00
931.1600, 10932.00
932.2810, 10772.00
933.4020, 10798.00
934.5230, 10781.00
935.6430, 10833.00
936.7640, 10685.00
937.8840, 10605.00
939.0040, 10468.00
940.1240, 10474.00
941.2440, 10349.00
942.3630, 10388.00
943.4830, 10201.00
944.6020, 10182.00
945.7210, 10205.00
946.8400, 10117.00
947.9590, 10131.00
949.0770, 9899.000
950.1960, 9774.000
951.3140, 9754.000
952.4320, 9743.000
953.5500, 9640.000
954.6680, 9653.000
955.7860, 9437.000
956.9030, 9416.000
958.0210, 9187.000
959.1380, 9013.000
960.2550, 9211.000
961.3720, 8964.000
962.4890, 8943.000
963.6050, 8905.000
964.7220, 8916.000
965.8380, 8849.000
966.9540, 8720.000
968.0700, 8679.000
969.1860, 8627.000
970.3010, 8621.000
971.4170, 8530.000
972.5320, 8606.000
973.6470, 8491.000
974.7620, 8634.000
975.8770, 8631.000
976.9910, 8653.000
978.1060, 8620.000
979.2200, 8741.000
980.3340, 8692.000
981.4480, 8784.000
982.5620, 8830.000
983.6760, 8835.000
984.7890, 8721.000
985.9030, 9056.000
987.0160, 9137.000
988.1290, 9001.000
989.2420, 9003.000
990.3550, 9342.000
991.4670, 9317.000
992.5800, 9483.000
993.6920, 9666.000
994.8040, 9719.000
995.9160, 9910.000
997.0280, 10055.00
998.1390, 10255.00
999.2510, 10538.00
1000.362, 10655.00
1001.473, 10833.00
1002.584, 11153.00
1003.695, 11473.00
1004.805, 11743.00
1005.916, 12015.00
1007.026, 12312.00
1008.136, 12645.00
1009.246, 13166.00
1010.356, 13593.00
1011.466, 14016.00
1012.576, 14446.00
1013.685, 14953.00
1014.794, 15624.00
1015.903, 16339.00
1017.012, 16868.00
1018.121, 17718.00
1019.229, 18215.00
1020.338, 18928.00
1021.446, 19746.00
1022.554, 20087.00
1023.662, 20801.00
1024.770, 21240.00
1025.878, 21936.00
1026.985, 22121.00
1028.092, 22543.00
1029.200, 22890.00
1030.307, 23140.00
1031.413, 23202.00
1032.520, 23177.00
1033.627, 23260.00
1034.733, 23144.00
1035.839, 22955.00
1036.945, 22607.67
1038.051, 22052.00
1039.157, 21620.00
1040.262, 20950.00
1041.368, 20337.00
1042.473, 19634.00
1043.578, 19019.76
1044.683, 18371.84
1045.788, 17707.00
1046.893, 17137.00
1047.997, 16367.00
1049.101, 15827.00
1050.205, 14945.00
1051.309, 14317.00
1052.413, 13784.00
1053.517, 13217.00
1054.621, 12715.30
1055.724, 12236.00
1056.827, 11796.00
1057.930, 11439.00
1059.033, 11071.00
1060.136, 10790.00
1061.238, 10668.00
1062.341, 10446.00
1063.443, 10054.00
1064.545, 10082.00
1065.647, 9817.000
1066.749, 9752.000
1067.850, 9553.000
1068.952, 9454.000
1070.053, 9406.000
1071.154, 9265.000
1072.255, 9106.000
1073.356, 9034.000
1074.457, 9078.000
1075.557, 8908.000
1076.658, 9034.000
1077.758, 8868.000
1078.858, 8839.000
1079.958, 8798.000
1081.057, 8827.000
1082.157, 8732.000
1083.256, 8794.000
1084.356, 8757.000
1085.455, 8639.000
1086.554, 8626.000
1087.653, 8676.000
1088.751, 8616.000
1089.850, 8697.000
1090.948, 8570.000
1092.046, 8642.928
1093.144, 8690.312
1094.242, 8706.906
1095.340, 8693.476
1096.437, 8609.554
1097.534, 8578.924
1098.632, 8503.805
1099.729, 8411.113
1100.826, 8436.000
1101.922, 8314.000
1103.019, 8201.000
1104.115, 8156.000
1105.212, 7994.000
1106.308, 8030.000
1107.404, 7957.000
1108.499, 7920.000
1109.595, 7837.000
1110.691, 7734.000
1111.786, 7700.000
1112.881, 7729.000
1113.976, 7643.000
1115.071, 7660.000
1116.166, 7566.000
1117.260, 7613.000
1118.355, 7628.000
1119.449, 7348.000
1120.543, 7501.000
1121.637, 7530.000
1122.731, 7322.000
1123.824, 7515.000
1124.918, 7329.000
1126.011, 7376.000
1127.104, 7464.000
1128.197, 7369.000
1129.290, 7220.037
1130.382, 7314.264
1131.475, 7365.613
1132.567, 7376.396
1133.659, 7225.096
1134.751, 7283.092
1135.843, 7257.211
1136.935, 7227.892
1138.027, 7315.346
1139.118, 7187.624
1140.209, 7273.229
1141.300, 7273.678
1142.391, 7313.101
1143.482, 7268.130
1144.573, 7249.226
1145.663, 7314.746
1146.754, 7333.518
1147.844, 7278.834
1148.934, 7320.739
1150.024, 7190.072
1151.113, 7210.842
1152.203, 7296.945
1153.292, 7177.000
1154.381, 7224.000
1155.470, 7220.000
1156.559, 7243.000
1157.648, 7234.000
1158.737, 7242.249
1159.825, 7199.000
1160.913, 7256.000
1162.001, 7246.000
1163.089, 7266.000
1164.177, 7383.000
1165.265, 7185.000
1166.352, 7184.000
1167.440, 7329.000
1168.527, 7235.000
1169.614, 7284.000
1170.701, 7239.000
1171.788, 7306.000
1172.874, 7233.000
1173.961, 7257.000
1175.047, 7335.000
1176.133, 7261.000
1177.219, 7248.000
1178.305, 7139.000
1179.390, 7335.000
1180.476, 7239.000
1181.561, 7309.000
1182.646, 7267.000
1183.731, 7273.000
1184.816, 7263.134
1185.901, 7260.000
1186.985, 7216.000
1188.070, 7186.000
1189.154, 7169.749
1190.238, 7173.192
1191.322, 7192.000
1192.406, 7226.000
1193.489, 7210.000
1194.573, 7272.000
1195.656, 7189.000
1196.739, 7417.000
1197.822, 7188.000
1198.905, 7300.000
1199.988, 7320.000
1201.070, 7274.000
1202.153, 7257.000
1203.235, 7302.000
1204.317, 7246.000
1205.399, 7259.000
1206.481, 7206.000
1207.562, 7219.290
1208.644, 7230.000
1209.725, 7241.000
1210.806, 7308.000
1211.887, 7319.000
1212.968, 7331.000
1214.049, 7272.000
1215.129, 7367.000
1216.209, 7290.000
1217.290, 7262.000
1218.370, 7471.000
1219.450, 7365.000
1220.529, 7343.000
1221.609, 7338.000
1222.688, 7308.000
1223.768, 7377.000
1224.847, 7255.000
1225.926, 7259.000
1227.005, 7281.000
1228.083, 7405.000
1229.162, 7376.000
1230.240, 7304.000
1231.318, 7355.000
1232.396, 7264.000
1233.474, 7336.000
1234.552, 7392.000
1235.629, 7285.000
1236.707, 7290.000
1237.784, 7314.000
1238.861, 7284.000
1239.938, 7309.000
1241.015, 7344.000
1242.092, 7366.000
1243.168, 7366.000
1244.244, 7295.000
1245.321, 7291.000
1246.397, 7309.000
1247.473, 7320.000
1248.548, 7291.000
1249.624, 7248.000
1250.699, 7382.000
1251.775, 7258.000
1252.850, 7337.000
1253.925, 7368.000
1254.999, 7364.000
1256.074, 7320.000
1257.148, 7369.000
1258.223, 7250.000
1259.297, 7399.000
1260.371, 7404.000
1261.445, 7288.000
1262.519, 7317.000
1263.592, 7370.000
1264.666, 7219.000
1265.739, 7371.000
1266.812, 7280.000
1267.885, 7398.000
1268.958, 7320.000
1270.030, 7300.000
1271.103, 7375.000
1272.175, 7353.032
1273.247, 7575.000
1274.319, 7349.000
1275.391, 7439.000
1276.463, 7295.000
1277.535, 7355.000
1278.606, 7381.000
1279.677, 7435.000
1280.748, 7419.000
1281.819, 7398.000
1282.890, 7421.000
1283.961, 7367.000
1285.031, 7457.000
1286.102, 7474.000
1287.172, 7401.000
1288.242, 7434.000
1289.312, 7411.000
1290.381, 7397.000
1291.451, 7517.000
1292.520, 7407.000
1293.590, 7393.000
1294.659, 7399.000
1295.728, 7501.000
1296.797, 7490.000
1297.865, 7425.000
1298.934, 7361.000
1300.002, 7384.000
1301.070, 7379.000
1302.138, 7428.000
1303.206, 7395.000
1304.274, 7431.000
1305.341, 7469.000
1306.409, 7484.000
1307.476, 7479.965
1308.543, 7502.000
1309.610, 7426.000
1310.677, 7372.000
1311.744, 7300.000
1312.810, 7497.000
1313.877, 7456.000
1314.943, 7461.000
1316.009, 7546.000
1317.075, 7402.000
1318.140, 7519.000
1319.206, 7499.179
1320.272, 7464.000
1321.337, 7513.000
1322.402, 7454.000
1323.467, 7415.000
1324.532, 7506.000
1325.596, 7480.000
1326.661, 7518.000
1327.725, 7505.000
1328.790, 7442.000
1329.854, 7462.000
1330.918, 7508.000
1331.981, 7486.000
1333.045, 7567.000
1334.108, 7466.000
1335.172, 7511.000
1336.235, 7466.000
1337.298, 7526.000
1338.361, 7522.257
1339.423, 7469.000
1340.486, 7537.000
1341.548, 7492.000
1342.611, 7482.000
1343.673, 7501.000
1344.735, 7459.000
1345.796, 7514.000
1346.858, 7423.000
1347.919, 7486.000
1348.981, 7548.000
1350.042, 7477.000
1351.103, 7514.356
1352.164, 7634.000
1353.225, 7487.000
1354.285, 7551.000
1355.346, 7551.000
1356.406, 7534.000
1357.466, 7498.000
1358.526, 7517.000
1359.586, 7503.831
1360.645, 7531.000
1361.705, 7509.000
1362.764, 7502.000
1363.823, 7498.715
1364.882, 7560.000
1365.941, 7534.000
1367.000, 7605.000
1368.059, 7649.000
1369.117, 7519.000
1370.175, 7513.000
1371.233, 7610.000
1372.291, 7513.000
1373.349, 7654.000
1374.407, 7597.000
1375.464, 7562.000
1376.522, 7489.000
1377.579, 7508.000
1378.636, 7519.000
1379.693, 7587.000
1380.750, 7526.000
1381.806, 7584.000
1382.863, 7573.627
1383.919, 7594.000
1384.975, 7578.000
1386.031, 7586.000
1387.087, 7611.000
1388.143, 7610.011
1389.199, 7612.000
1390.254, 7622.000
1391.309, 7675.000
1392.364, 7658.000
1393.419, 7651.000
1394.474, 7658.000
1395.529, 7576.000
1396.583, 7591.000
1397.638, 7615.000
1398.692, 7704.000
1399.746, 7533.000
1400.800, 7608.000
1401.853, 7622.000
1402.907, 7480.000
1403.960, 7581.000
1405.014, 7658.000
1406.067, 7641.000
1407.120, 7728.000
1408.173, 7655.000
1409.225, 7603.000
1410.278, 7664.000
1411.330, 7643.000
1412.383, 7742.000
1413.435, 7656.000
1414.487, 7823.000
1415.538, 7700.000
1416.590, 7726.000
1417.641, 7777.000
1418.693, 7677.000
1419.744, 7713.000
1420.795, 7801.000
1421.846, 7817.000
1422.897, 7735.000
1423.947, 7761.000
1424.998, 7791.000
1426.048, 7858.000
1427.098, 7832.238
1428.148, 7783.000
1429.198, 7801.000
1430.247, 7787.000
1431.297, 7781.000
1432.346, 7796.112
1433.396, 7805.633
1434.445, 7808.000
1435.494, 7856.000
1436.542, 7843.000
1437.591, 7879.000
1438.639, 7934.000
1439.688, 7908.000
1440.736, 7961.000
1441.784, 7953.000
1442.832, 7866.533
1443.880, 7963.314
1444.927, 8017.223
1445.975, 8030.560
1447.022, 7881.816
1448.069, 7942.368
1449.116, 7919.043
1450.163, 7892.279
1451.209, 7982.290
1452.256, 7857.120
1453.302, 7945.279
1454.348, 7948.281
1455.394, 7990.257
1456.440, 7947.840
1457.486, 7931.489
1458.532, 7999.559
1459.577, 8020.885
1460.623, 7968.752
1461.668, 8013.208
1462.713, 7885.093
1463.758, 7959.000
1464.802, 8014.000
1465.847, 7883.000
1466.891, 8019.000
1467.936, 7893.000
1468.980, 7818.000
1470.024, 7901.000
1471.067, 7857.000
1472.111, 7821.000
1473.155, 7850.000
1474.198, 7833.000
1475.241, 7898.000
1476.284, 7876.000
1477.327, 7984.000
1478.370, 7909.000
1479.413, 7930.000
1480.455, 7926.258
1481.497, 7825.000
1482.540, 7904.000
1483.582, 7840.000
1484.624, 7864.000
1485.665, 7781.000
1486.707, 7867.000
1487.748, 7940.000
1488.790, 7859.000
1489.831, 7913.000
1490.872, 7898.000
1491.912, 7840.000
1492.953, 7920.000
1493.994, 7884.000
1495.034, 7870.000
1496.074, 7900.000
1497.114, 7876.000
1498.154, 7924.000
1499.194, 7889.000
1500.234, 7933.000
1501.273, 7917.000
1502.313, 7881.969
1503.352, 7780.000
1504.391, 7844.000
1505.430, 7852.000
1506.468, 7931.000
1507.507, 7901.000
1508.545, 7861.000
1509.584, 7886.334
1510.622, 7948.000
1511.660, 7942.000
1512.698, 7959.402
1513.735, 7909.000
1514.773, 7936.000
1515.810, 7911.000
1516.848, 7852.000
1517.885, 7885.381
1518.922, 7873.372
1519.958, 7921.000
1520.995, 7925.000
1522.032, 7972.000
1523.068, 8039.000
1524.104, 7903.000
1525.140, 7966.000
1526.176, 7885.000
1527.212, 7980.000
1528.248, 7903.000
1529.283, 7891.000
1530.318, 8018.000
1531.353, 8032.000
1532.389, 8031.227
1533.423, 7929.000
1534.458, 7985.000
1535.493, 7995.000
1536.527, 7928.000
1537.561, 7959.000
1538.596, 7951.032
1539.630, 7906.000
1540.663, 7973.000
1541.697, 7998.000
1542.731, 8014.000
1543.764, 7961.000
1544.797, 7916.000
1545.830, 7833.000
1546.863, 7851.000
1547.896, 7863.285
1548.929, 7913.103
1549.961, 7969.000
1550.994, 8052.000
1552.026, 8124.000
1553.058, 8124.000
1554.090, 8101.000
1555.121, 8102.769
1556.153, 8066.672
1557.185, 8043.000
1558.216, 7991.000
1559.247, 7962.000
1560.278, 7918.000
1561.309, 8043.000
1562.340, 8092.000
##END=



