##NAMES=Astrophyllite
##RRUFFID=R060202
##IDEAL CHEMISTRY=K_2_NaFe^2+^_7_Ti^4+^_2_(Si_4_O_12_)_2_O_2_(OH)_4_F
##LOCALITY=Demix Quarry, Mont Saint-Hilaire, Rouville County, Quebec, Canada
##OWNER=RRUFF
##SOURCE=Royal Ontario Museum
##DESCRIPTION=Aggregate of brown splintered wafers
##STATUS=The identification of this mineral has been confirmed by X-ray diffraction and chemical analysis
##URL=rruff.info/R060202
##MEASURED CHEMISTRY=(K_0.56_Na_0.38_Ca_0.06_)_3_(Fe^2+^_0.52_Mn_0.44_Mg_0.04_)_7_(Ti_0.75_Zr_0.15_Al_0.15_)_2_Si_8_O_24_(O_0.27_OH_0.73_)_7_
##PIN_ID=M00349
##ORIENTATION=Laser parallel to a* (1 0 0). Fiducial mark perpendicular to laser is parallel to b [0 1 0]
121.8270, 38517.98
123.0580, 38828.29
124.2880, 39009.67
125.5190, 39069.07
126.7490, 38641.11
127.9790, 38842.46
129.2090, 38791.61
130.4390, 38730.42
131.6680, 39020.34
132.8980, 38663.25
134.1270, 38947.60
135.3560, 38975.90
136.5850, 39121.38
137.8140, 39013.10
139.0430, 38983.20
140.2710, 39207.13
141.5000, 39290.52
142.7280, 39153.02
143.9560, 39305.94
145.1840, 38939.96
146.4120, 39029.32
147.6390, 39315.13
148.8670, 39062.00
150.0940, 39235.00
151.3210, 39658.93
152.5490, 40781.00
153.7750, 40404.00
155.0020, 41016.00
156.2290, 41071.00
157.4550, 41070.00
158.6810, 41259.00
159.9080, 41995.00
161.1340, 42364.00
162.3590, 43750.00
163.5850, 45047.00
164.8110, 46051.00
166.0360, 47053.00
167.2610, 46527.00
168.4860, 46873.00
169.7110, 47190.00
170.9360, 47346.00
172.1610, 46358.00
173.3850, 45372.00
174.6100, 44752.00
175.8340, 44151.00
177.0580, 43555.13
178.2820, 43135.00
179.5050, 42655.00
180.7290, 41947.00
181.9520, 41535.00
183.1760, 41359.00
184.3990, 41487.00
185.6220, 41742.00
186.8450, 41980.00
188.0670, 42159.00
189.2900, 42530.65
190.5120, 42710.00
191.7340, 43219.00
192.9560, 43441.00
194.1780, 43701.00
195.4000, 43588.00
196.6220, 43654.00
197.8430, 43578.00
199.0640, 43562.00
200.2860, 44147.00
201.5070, 44840.00
202.7270, 44808.00
203.9480, 42827.00
205.1690, 39612.00
206.3890, 37724.00
207.6090, 36669.00
208.8290, 36612.00
210.0490, 36706.00
211.2690, 36523.00
212.4890, 36602.00
213.7080, 36524.00
214.9280, 36439.00
216.1470, 36431.00
217.3660, 36337.84
218.5850, 36304.26
219.8030, 36203.00
221.0220, 36157.00
222.2400, 36094.00
223.4590, 35886.00
224.6770, 35869.00
225.8950, 35631.00
227.1120, 35574.00
228.3300, 35659.00
229.5480, 35306.00
230.7650, 35673.00
231.9820, 36094.00
233.1990, 35586.00
234.4160, 35071.00
235.6330, 35380.00
236.8490, 35472.00
238.0660, 35110.00
239.2820, 35332.00
240.4980, 35306.00
241.7140, 35505.00
242.9300, 35499.00
244.1460, 34869.00
245.3610, 34953.00
246.5770, 34784.91
247.7920, 35046.23
249.0070, 35178.62
250.2220, 35189.04
251.4370, 34712.09
252.6510, 34864.50
253.8660, 34764.67
255.0800, 34654.53
256.2940, 34895.51
257.5080, 34489.47
258.7220, 34724.88
259.9360, 34704.24
261.1490, 34800.82
262.3630, 34643.60
263.5760, 34564.79
264.7890, 34739.82
266.0020, 34774.30
267.2150, 34587.90
268.4270, 34691.95
269.6400, 34277.08
270.8520, 34317.57
272.0640, 34554.52
273.2760, 34380.91
274.4880, 34252.00
275.7000, 34287.00
276.9120, 34181.98
278.1230, 34134.00
279.3340, 34060.00
280.5450, 33894.00
281.7560, 33837.95
282.9670, 33828.00
284.1780, 33759.00
285.3880, 33878.00
286.5980, 33817.00
287.8090, 33623.00
289.0190, 34108.00
290.2290, 33751.63
291.4380, 33879.00
292.6480, 33671.00
293.8570, 33786.00
295.0670, 33703.80
296.2760, 33592.77
297.4850, 33546.00
298.6930, 33478.00
299.9020, 33311.00
301.1110, 33452.00
302.3190, 33402.00
303.5270, 33241.00
304.7350, 33524.00
305.9430, 33188.00
307.1510, 33414.00
308.3580, 33309.00
309.5660, 33082.00
310.7730, 33263.00
311.9800, 33118.00
313.1870, 33147.82
314.3940, 33334.00
315.6010, 33235.00
316.8070, 33360.00
318.0130, 33487.00
319.2200, 33375.00
320.4260, 33168.00
321.6310, 33300.00
322.8370, 33347.00
324.0430, 33515.00
325.2480, 33552.55
326.4540, 33486.00
327.6590, 33616.00
328.8640, 33605.00
330.0680, 33541.00
331.2730, 33414.00
332.4780, 33719.00
333.6820, 33609.00
334.8860, 33877.00
336.0900, 33732.00
337.2940, 33554.00
338.4980, 33756.00
339.7010, 33792.00
340.9050, 33942.00
342.1080, 33867.00
343.3110, 33940.00
344.5140, 34073.00
345.7170, 33806.00
346.9200, 33816.00
348.1220, 33872.00
349.3240, 33889.00
350.5270, 33923.00
351.7290, 33643.00
352.9310, 33692.00
354.1320, 33410.00
355.3340, 33579.00
356.5350, 33646.00
357.7370, 33309.00
358.9380, 33471.00
360.1390, 33281.00
361.3400, 33495.00
362.5400, 33323.00
363.7410, 33313.00
364.9410, 33236.00
366.1410, 33144.00
367.3410, 33122.00
368.5410, 33069.00
369.7410, 32970.00
370.9400, 32975.78
372.1400, 32832.00
373.3390, 33017.00
374.5380, 32904.00
375.7370, 33065.00
376.9360, 32917.00
378.1350, 32633.00
379.3330, 32685.00
380.5310, 32777.00
381.7300, 32796.00
382.9280, 32408.00
384.1260, 32528.00
385.3230, 32484.00
386.5210, 32280.00
387.7180, 32707.00
388.9160, 32650.00
390.1130, 32386.00
391.3100, 32398.00
392.5060, 32397.00
393.7030, 32418.00
394.9000, 32386.00
396.0960, 32377.23
397.2920, 32376.84
398.4880, 32339.00
399.6840, 32359.00
400.8800, 32368.00
402.0750, 32345.39
403.2710, 32155.00
404.4660, 32172.00
405.6610, 32147.00
406.8560, 31939.00
408.0510, 32003.00
409.2450, 32075.00
410.4400, 31988.00
411.6340, 32130.00
412.8280, 32171.00
414.0220, 31959.00
415.2160, 31990.00
416.4100, 32144.00
417.6030, 32083.00
418.7970, 32106.00
419.9900, 32301.00
421.1830, 32053.00
422.3760, 32045.00
423.5690, 31986.00
424.7610, 32022.00
425.9540, 32099.00
427.1460, 32141.00
428.3380, 32017.00
429.5300, 31914.00
430.7220, 32044.00
431.9140, 32032.00
433.1050, 31895.10
434.2970, 32222.83
435.4880, 32421.62
436.6790, 32498.42
437.8700, 32087.87
439.0610, 32306.63
440.2510, 32273.16
441.4420, 32229.38
442.6320, 32536.70
443.8220, 32196.99
445.0120, 32498.74
446.2020, 32544.43
447.3910, 32707.28
448.5810, 32616.40
449.7700, 32498.00
450.9600, 32614.00
452.1490, 32601.00
453.3370, 32681.00
454.5260, 32908.00
455.7150, 32899.00
456.9030, 32875.00
458.0910, 32646.00
459.2800, 33204.00
460.4670, 33075.00
461.6550, 33168.00
462.8430, 32926.00
464.0300, 33331.00
465.2180, 32970.00
466.4050, 33233.00
467.5920, 33320.00
468.7790, 33027.00
469.9650, 33067.00
471.1520, 33324.00
472.3380, 33344.00
473.5250, 33360.00
474.7110, 33402.70
475.8970, 33381.87
477.0820, 33351.00
478.2680, 33353.00
479.4540, 33369.00
480.6390, 33368.00
481.8240, 33443.00
483.0090, 33678.00
484.1940, 33477.00
485.3780, 33743.00
486.5630, 33775.00
487.7470, 33582.00
488.9320, 33654.00
490.1160, 33507.00
491.3000, 33466.00
492.4830, 33613.00
493.6670, 33613.00
494.8500, 33513.00
496.0340, 33767.00
497.2170, 33670.00
498.4000, 33664.00
499.5820, 33666.00
500.7650, 33610.00
501.9480, 33778.00
503.1300, 33597.00
504.3120, 33707.00
505.4940, 33458.00
506.6760, 33700.00
507.8580, 33494.00
509.0390, 33681.00
510.2210, 33561.00
511.4020, 33483.00
512.5830, 33529.00
513.7640, 33493.12
514.9450, 33592.91
516.1250, 33584.00
517.3060, 33775.00
518.4860, 33903.00
519.6660, 33881.00
520.8460, 33962.00
522.0260, 34135.00
523.2060, 34113.00
524.3850, 34116.00
525.5650, 34032.00
526.7440, 34208.00
527.9230, 34193.00
529.1020, 34104.00
530.2810, 34305.00
531.4590, 34151.00
532.6380, 34560.00
533.8160, 34879.00
534.9940, 34547.00
536.1720, 34737.00
537.3500, 34639.00
538.5270, 34738.00
539.7050, 34783.00
540.8820, 35265.00
542.0590, 35206.00
543.2360, 35290.00
544.4130, 35431.00
545.5900, 35478.00
546.7660, 35729.00
547.9430, 36146.00
549.1190, 36051.00
550.2950, 36491.00
551.4710, 36217.00
552.6470, 36497.00
553.8220, 36715.00
554.9980, 36998.00
556.1730, 36973.00
557.3480, 36757.00
558.5230, 37250.00
559.6980, 36853.00
560.8730, 36861.00
562.0470, 36798.00
563.2220, 37140.00
564.3960, 36801.00
565.5700, 36923.00
566.7440, 36968.00
567.9170, 37052.00
569.0910, 37103.00
570.2640, 37065.13
571.4380, 37080.80
572.6110, 36946.00
573.7840, 36987.00
574.9570, 36905.00
576.1290, 36793.00
577.3020, 36988.00
578.4740, 36772.00
579.6460, 36919.00
580.8180, 37017.00
581.9900, 36738.00
583.1620, 36901.00
584.3330, 36834.00
585.5040, 37129.00
586.6760, 36930.00
587.8470, 37265.00
589.0180, 37186.00
590.1880, 37154.00
591.3590, 37311.00
592.5290, 37286.00
593.7000, 37422.00
594.8700, 37336.00
596.0400, 37546.00
597.2090, 37594.98
598.3790, 37873.00
599.5490, 37823.00
600.7180, 37793.00
601.8870, 37949.00
603.0560, 38129.00
604.2250, 38150.00
605.3940, 38241.00
606.5620, 38451.00
607.7300, 38063.09
608.8990, 38443.53
610.0670, 38694.99
611.2350, 38824.45
612.4020, 38466.48
613.5700, 38737.91
614.7370, 38757.06
615.9050, 38765.95
617.0720, 39125.88
618.2390, 38838.79
619.4060, 39193.15
620.5720, 39291.39
621.7390, 39506.89
622.9050, 38971.00
624.0710, 39504.00
625.2370, 39587.00
626.4030, 39495.96
627.5690, 39868.00
628.7340, 39517.00
629.9000, 39819.00
631.0650, 40077.00
632.2300, 40175.00
633.3950, 40303.00
634.5600, 40359.00
635.7240, 40655.00
636.8890, 40642.00
638.0530, 41098.00
639.2170, 40878.00
640.3810, 41405.00
641.5450, 41563.00
642.7080, 42034.00
643.8720, 42545.00
645.0350, 42835.00
646.1980, 43108.00
647.3610, 43493.00
648.5240, 43826.00
649.6870, 44166.00
650.8490, 44171.00
652.0120, 44444.00
653.1740, 44476.00
654.3360, 44409.00
655.4980, 44161.00
656.6600, 44179.00
657.8210, 44107.00
658.9830, 43628.00
660.1440, 43213.00
661.3050, 43448.00
662.4660, 43191.00
663.6270, 43390.00
664.7870, 43338.00
665.9480, 43270.00
667.1080, 43369.00
668.2680, 43515.00
669.4280, 43758.00
670.5880, 43910.00
671.7480, 43806.00
672.9070, 44126.00
674.0670, 44351.00
675.2260, 44659.00
676.3850, 44981.00
677.5440, 45292.00
678.7030, 45539.00
679.8610, 45532.00
681.0200, 45790.00
682.1780, 46278.00
683.3360, 47093.00
684.4940, 46848.45
685.6520, 46901.00
686.8090, 46581.00
687.9670, 47184.00
689.1240, 47138.00
690.2810, 47493.00
691.4380, 47391.00
692.5950, 47559.00
693.7520, 47559.00
694.9080, 47814.00
696.0650, 48063.00
697.2210, 48036.00
698.3770, 48055.00
699.5330, 48026.00
700.6880, 47805.00
701.8440, 48313.00
702.9990, 47814.00
704.1550, 48096.00
705.3100, 47947.00
706.4650, 47856.00
707.6190, 47757.00
708.7740, 47613.48
709.9290, 47585.00
711.0830, 47365.00
712.2370, 47313.42
713.3910, 47237.00
714.5450, 46989.00
715.6980, 46707.00
716.8520, 46370.00
718.0050, 46071.00
719.1580, 45718.00
720.3110, 45495.42
721.4640, 45256.54
722.6170, 45115.00
723.7700, 44880.00
724.9220, 44817.00
726.0740, 44665.00
727.2260, 44134.00
728.3780, 44373.00
729.5300, 43995.00
730.6810, 43652.00
731.8330, 43596.00
732.9840, 43412.00
734.1350, 43224.00
735.2860, 43086.00
736.4370, 43151.00
737.5880, 42877.00
738.7380, 42614.00
739.8880, 42612.00
741.0390, 42212.00
742.1890, 42023.00
743.3380, 42133.00
744.4880, 42147.00
745.6380, 42093.66
746.7870, 42158.91
747.9360, 42035.00
749.0850, 42153.00
750.2340, 42051.00
751.3830, 41962.00
752.5310, 41692.00
753.6800, 41935.00
754.8280, 41829.00
755.9760, 41919.00
757.1240, 41922.00
758.2720, 41623.00
759.4190, 41612.00
760.5670, 41900.00
761.7140, 41551.00
762.8610, 41703.00
764.0080, 41721.00
765.1550, 41831.00
766.3020, 41770.00
767.4480, 41686.00
768.5950, 41690.00
769.7410, 41719.00
770.8870, 41628.00
772.0330, 41910.00
773.1780, 41867.00
774.3240, 41502.00
775.4690, 41593.00
776.6140, 41753.64
777.7590, 41643.50
778.9040, 42022.00
780.0490, 41874.00
781.1940, 41864.44
782.3380, 41687.00
783.4820, 41708.00
784.6260, 41644.00
785.7700, 41621.00
786.9140, 41394.00
788.0580, 41123.00
789.2010, 41164.00
790.3450, 41086.00
791.4880, 40726.00
792.6310, 40616.00
793.7730, 40670.00
794.9160, 40166.00
796.0590, 40292.00
797.2010, 39801.00
798.3430, 39822.00
799.4850, 39492.00
800.6270, 39414.00
801.7690, 38992.00
802.9100, 39005.00
804.0520, 38515.00
805.1930, 38315.00
806.3340, 38260.00
807.4750, 37881.00
808.6160, 37883.00
809.7560, 37866.00
810.8970, 37508.00
812.0370, 37371.00
813.1770, 36847.05
814.3170, 37046.40
815.4570, 37116.84
816.5960, 37065.36
817.7360, 36526.45
818.8750, 36616.94
820.0140, 36455.23
821.1530, 36283.17
822.2920, 36643.00
823.4310, 36155.00
824.5690, 36125.00
825.7070, 36277.00
826.8460, 36288.00
827.9840, 36045.00
829.1220, 35893.00
830.2590, 35793.00
831.3970, 35794.00
832.5340, 35519.00
833.6710, 35595.97
834.8080, 35831.00
835.9450, 35600.00
837.0820, 35583.00
838.2190, 35513.00
839.3550, 35328.00
840.4910, 35338.00
841.6270, 35376.00
842.7630, 35307.00
843.8990, 35360.71
845.0350, 35325.00
846.1700, 35403.00
847.3060, 35373.00
848.4410, 35371.00
849.5760, 35375.00
850.7100, 35466.00
851.8450, 35253.00
852.9800, 35129.00
854.1140, 35304.00
855.2480, 35729.00
856.3820, 35440.92
857.5160, 35896.00
858.6500, 35323.00
859.7830, 35095.00
860.9170, 35439.00
862.0500, 34986.00
863.1830, 35534.00
864.3160, 35408.00
865.4480, 35632.00
866.5810, 35413.00
867.7130, 35412.00
868.8460, 36233.00
869.9780, 35703.00
871.1100, 35401.00
872.2410, 35432.00
873.3730, 36240.00
874.5050, 36780.00
875.6360, 35669.00
876.7670, 36491.00
877.8980, 36461.00
879.0290, 35627.00
880.1590, 35665.00
881.2900, 35832.00
882.4200, 36050.00
883.5500, 35972.00
884.6800, 35998.00
885.8100, 36207.00
886.9400, 36064.00
888.0690, 36355.00
889.1990, 36176.00
890.3280, 36628.00
891.4570, 36772.19
892.5860, 36752.83
893.7140, 37192.00
894.8430, 36802.00
895.9710, 36734.00
897.1000, 36782.00
898.2280, 37217.00
899.3560, 36943.00
900.4830, 37003.00
901.6110, 37181.00
902.7380, 37077.00
903.8660, 37180.47
904.9930, 37166.22
906.1200, 37282.00
907.2460, 37218.00
908.3730, 37354.00
909.5000, 37590.00
910.6260, 37730.00
911.7520, 37968.00
912.8780, 37829.00
914.0040, 37910.00
915.1290, 37770.00
916.2550, 37731.00
917.3800, 38260.00
918.5050, 37947.00
919.6300, 38023.00
920.7550, 38315.00
921.8800, 38205.00
923.0040, 38111.00
924.1290, 38242.00
925.2530, 38177.00
926.3770, 38548.00
927.5010, 38465.00
928.6250, 38417.00
929.7480, 39154.00
930.8720, 38299.00
931.9950, 38598.00
933.1180, 38513.00
934.2410, 38143.00
935.3640, 38500.00
936.4860, 38298.00
937.6090, 38152.00
938.7310, 38363.00
939.8530, 38586.00
940.9750, 38452.00
942.0970, 38246.00
943.2180, 38562.00
944.3400, 38427.00
945.4610, 38340.00
946.5820, 38450.00
947.7030, 38301.00
948.8240, 38373.00
949.9450, 38313.00
951.0650, 38706.00
952.1860, 38529.61
953.3060, 38530.00
954.4260, 38432.00
955.5460, 38292.00
956.6650, 38317.00
957.7850, 38157.00
958.9040, 38068.00
960.0230, 37996.00
961.1420, 38324.00
962.2610, 38272.00
963.3800, 38303.00
964.4990, 38116.00
965.6170, 38274.00
966.7350, 38336.00
967.8530, 38196.00
968.9710, 38398.00
970.0890, 38329.00
971.2070, 38207.00
972.3240, 38547.00
973.4410, 38463.00
974.5580, 38524.00
975.6750, 38580.00
976.7920, 38732.00
977.9090, 38840.73
979.0250, 38986.76
980.1410, 39139.00
981.2580, 39318.00
982.3740, 39469.00
983.4890, 39652.36
984.6050, 39872.00
985.7200, 39935.00
986.8360, 40031.00
987.9510, 40214.00
989.0660, 40656.00
990.1810, 40530.00
991.2950, 41018.00
992.4100, 40936.00
993.5240, 41739.00
994.6390, 41393.00
995.7530, 41777.00
996.8660, 42061.00
997.9800, 42234.17
999.0940, 42693.00
1000.207, 42950.00
1001.320, 43224.00
1002.433, 43597.00
1003.546, 44109.00
1004.659, 44583.00
1005.772, 44984.00
1006.884, 45560.49
1007.996, 46071.00
1009.108, 46717.00
1010.220, 47230.00
1011.332, 47927.00
1012.444, 48399.00
1013.555, 49147.00
1014.666, 50100.00
1015.777, 50762.00
1016.888, 51345.00
1017.999, 52135.00
1019.110, 52785.00
1020.220, 53327.00
1021.331, 53968.88
1022.441, 54637.00
1023.551, 55176.00
1024.661, 55354.00
1025.770, 56137.00
1026.880, 56461.00
1027.989, 56778.00
1029.098, 56436.00
1030.207, 56561.00
1031.316, 56556.00
1032.425, 55930.00
1033.533, 55846.00
1034.642, 55321.00
1035.750, 54788.00
1036.858, 54173.00
1037.966, 53585.00
1039.073, 52985.00
1040.181, 52213.00
1041.288, 51459.00
1042.396, 51016.00
1043.503, 50091.00
1044.610, 49403.00
1045.716, 48482.00
1046.823, 47965.00
1047.929, 47555.00
1049.036, 47248.00
1050.142, 46582.00
1051.248, 46050.00
1052.353, 45413.00
1053.459, 44973.00
1054.564, 44641.00
1055.670, 44476.00
1056.775, 44139.00
1057.880, 44017.00
1058.985, 43550.00
1060.089, 43599.00
1061.194, 43473.00
1062.298, 42874.00
1063.402, 42744.00
1064.506, 42935.00
1065.610, 42745.00
1066.713, 42818.00
1067.817, 42511.00
1068.920, 42312.00
1070.023, 42313.00
1071.126, 41975.00
1072.229, 42353.00
1073.332, 42147.00
1074.435, 42014.00
1075.537, 41906.00
1076.639, 41865.89
1077.741, 41795.75
1078.843, 41864.98
1079.945, 41714.00
1081.046, 41676.00
1082.148, 41596.00
1083.249, 41828.00
1084.350, 41661.00
1085.451, 41996.00
1086.551, 41873.88
1087.652, 41833.25
1088.752, 41654.00
1089.853, 41557.00
1090.953, 41246.00
1092.053, 40883.00
1093.152, 41159.00
1094.252, 40725.00
1095.351, 41132.00
1096.451, 41173.00
1097.550, 40627.00
1098.649, 40643.00
1099.748, 40800.00
1100.846, 40404.00
1101.945, 40293.00
1103.043, 40269.23
1104.141, 40521.96
1105.239, 40645.76
1106.337, 40647.58
1107.434, 40162.07
1108.532, 40305.86
1109.629, 40197.47
1110.726, 40078.74
1111.823, 40311.13
1112.920, 39896.51
1114.017, 40123.34
1115.113, 40094.15
1116.210, 40182.11
1117.306, 40016.35
1118.402, 39928.97
1119.498, 40095.43
1120.593, 40121.37
1121.689, 39926.40
1122.784, 40021.88
1123.879, 39598.48
1124.974, 39630.41
1126.069, 39858.79
1127.164, 39676.62
1128.259, 39776.74
1129.353, 39769.39
1130.447, 39273.42
1131.541, 39627.21
1132.635, 39613.50
1133.729, 39222.46
1134.822, 39547.17
1135.916, 39208.15
1137.009, 39106.07
1138.102, 39252.00
1139.195, 39273.00
1140.288, 39023.00
1141.380, 39289.00
1142.473, 39115.00
1143.565, 39224.00
1144.657, 39120.00
1145.749, 39174.00
1146.841, 39055.00
1147.932, 38823.00
1149.024, 39343.00
1150.115, 39397.00
1151.206, 39367.00
1152.297, 39041.00
1153.388, 39350.00
1154.479, 39254.00
1155.569, 39642.00
1156.659, 39630.00
1157.750, 39390.00
1158.839, 39381.00
1159.929, 39310.00
1161.019, 39363.00
1162.108, 39321.45
1163.198, 39258.00
1164.287, 39336.00
1165.376, 39319.00
1166.465, 39411.00
1167.553, 39573.00
1168.642, 39473.00
1169.730, 39440.00
1170.818, 39639.00
1171.906, 39452.00
1172.994, 39599.00
1174.082, 39512.00
1175.170, 39519.00
1176.257, 39484.00
1177.344, 39894.00
1178.431, 39609.00
1179.518, 39776.00
1180.605, 39371.00
1181.691, 39535.00
1182.778, 39770.00
1183.864, 39617.00
1184.950, 39602.00
1186.036, 39785.00
1187.122, 39511.00
1188.207, 39740.00
1189.292, 39594.00
1190.378, 39938.00
1191.463, 39427.00
1192.548, 39750.00
1193.632, 39901.00
1194.717, 39907.00
1195.801, 40162.00
1196.886, 40118.00
1197.970, 40139.78
1199.054, 39883.00
1200.137, 40120.00
1201.221, 40070.00
1202.305, 40168.00
1203.388, 39995.00
1204.471, 39979.00
1205.554, 39951.00
1206.637, 40225.00
1207.719, 40113.04
1208.802, 40444.00
1209.884, 40198.00
1210.966, 39865.00
1212.048, 40126.00
1213.130, 40130.00
1214.212, 40321.00
1215.293, 40174.00
1216.374, 40269.00
1217.456, 40318.34
1218.536, 40355.00
1219.617, 40434.00
1220.698, 40489.00
1221.778, 40576.00
1222.859, 40624.00
1223.939, 40614.64
1225.019, 40687.31
1226.099, 40567.00
1227.178, 40713.00
1228.258, 40710.00
1229.337, 40596.00
1230.417, 40673.00
1231.496, 40513.00
1232.574, 40512.00
1233.653, 40508.00
1234.732, 40696.00
1235.810, 40767.00
1236.888, 40811.00
1237.966, 40583.00
1239.044, 40619.00
1240.122, 40685.21
1241.199, 40773.91
1242.277, 40876.00
1243.354, 41049.00
1244.431, 41085.00
1245.508, 40965.00
1246.585, 40823.00
1247.661, 41026.00
1248.738, 41065.00
1249.814, 40867.00
1250.890, 41118.00
1251.966, 41063.00
1253.042, 40823.46
1254.117, 41135.25
1255.193, 41318.14
1256.268, 41379.02
1257.343, 40952.55
1258.418, 41155.39
1259.493, 41106.04
1260.567, 41046.33
1261.642, 41337.75
1262.716, 40982.14
1263.790, 41267.98
1264.864, 41297.77
1265.938, 41444.75
1267.011, 41337.95
1268.085, 41309.54
1269.158, 41534.96
1270.231, 41619.82
1271.304, 41483.80
1272.377, 41638.21
1273.450, 41273.73
1274.522, 41364.56
1275.594, 41651.86
1276.666, 41528.59
1277.738, 41687.62
1278.810, 41739.13
1279.882, 41302.03
1280.953, 41714.66
1282.025, 41627.00
1283.096, 41549.00
1284.167, 41778.00
1285.238, 41605.00
1286.308, 41724.00
1287.379, 41865.00
1288.449, 42166.00
1289.519, 41880.00
1290.589, 41743.00
1291.659, 42110.00
1292.729, 41891.00
1293.798, 42103.00
1294.868, 42036.00
1295.937, 42105.00
1297.006, 42348.00
1298.075, 42196.00
1299.143, 42307.27
1300.212, 42274.00
1301.280, 42351.00
1302.348, 42326.72
1303.416, 42412.00
1304.484, 42439.00
1305.552, 42457.00
1306.620, 42617.00
1307.687, 42154.00
1308.754, 42524.00
1309.821, 42387.00
1310.888, 42686.00
1311.955, 42653.00
1313.021, 42715.00
1314.088, 42825.00
1315.154, 42807.52
1316.220, 42872.26
1317.286, 42771.00
1318.352, 42986.00
1319.417, 42812.00
1320.483, 42976.00
1321.548, 42969.00
1322.613, 42628.00
1323.678, 42735.00
1324.743, 42784.00
1325.807, 43147.00
1326.872, 43156.00
1327.936, 43165.00
1329.000, 42978.00
1330.064, 43354.00
1331.128, 43188.00
1332.191, 43696.00
1333.255, 43745.00
1334.318, 43972.00
1335.381, 43870.04
1336.444, 43799.15
1337.507, 43544.00
1338.569, 43438.00
1339.632, 43477.00
1340.694, 43273.00
1341.756, 43399.00
1342.818, 43605.00
1343.880, 43294.00
1344.941, 43313.00
1346.003, 43451.00
1347.064, 43613.00
1348.125, 43494.00
1349.186, 43684.00
1350.247, 43749.00
1351.308, 43999.00
1352.368, 44044.00
1353.428, 43546.00
1354.489, 43948.00
1355.549, 43865.00
1356.608, 43681.00
1357.668, 44004.00
1358.727, 43896.00
1359.787, 43965.00
1360.846, 43708.00
1361.905, 44036.00
1362.964, 44046.00
1364.022, 44235.00
1365.081, 44177.00
1366.139, 44161.00
1367.197, 44252.00
1368.255, 43937.00
1369.313, 43994.00
1370.371, 43879.00
1371.428, 44010.00
1372.486, 44198.00
1373.543, 44223.00
1374.600, 44219.00
1375.657, 44113.00
1376.713, 44165.00
1377.770, 44059.00
1378.826, 44183.00
1379.882, 44606.00
1380.938, 44243.00
1381.994, 44431.00
1383.050, 44315.00
1384.106, 44196.00
1385.161, 44337.00
1386.216, 44391.00
1387.271, 44345.00
1388.326, 44530.00
1389.381, 44802.00
1390.435, 44644.00
1391.490, 44565.00
1392.544, 44507.00
1393.598, 44810.00
1394.652, 44651.00
1395.705, 44524.00
1396.759, 44918.00
1397.812, 44716.00
1398.866, 44603.00
1399.919, 45008.00
1400.972, 44569.00
1402.024, 44930.00
1403.077, 44860.00
1404.129, 44909.00
1405.181, 44956.00
1406.233, 44821.00
1407.285, 44706.00
1408.337, 45056.00
1409.389, 44915.00
1410.440, 44929.00
1411.491, 45347.00
1412.542, 45010.00
1413.593, 44987.00
1414.644, 44906.00
1415.695, 44833.84
1416.745, 45159.81
1417.795, 45356.87
1418.845, 45431.94
1419.895, 45019.65
1420.945, 45236.68
1421.995, 45201.52
1423.044, 45155.97
1424.093, 45461.55
1425.142, 45120.12
1426.191, 45420.13
1427.240, 45464.09
1428.289, 45625.23
1429.337, 45532.59
1430.385, 45518.32
1431.433, 45757.90
1432.481, 45856.92
1433.529, 45735.07
1434.577, 45903.63
1435.624, 45553.27
1436.672, 45658.28
1437.719, 45959.71
1438.766, 45850.59
1439.812, 46023.73
1440.859, 45494.00
1441.905, 45651.00
1442.952, 45479.00
1443.998, 45663.00
1445.044, 45887.00
1446.090, 45806.18
1447.135, 46205.00
1448.181, 45732.00
1449.226, 45999.00
1450.271, 45742.00
1451.316, 46065.00
1452.361, 45930.00
1453.405, 45929.14
1454.450, 46109.00
1455.494, 45875.00
1456.538, 45999.00
1457.582, 45945.00
1458.626, 46387.00
1459.670, 46218.00
1460.713, 46277.00
1461.757, 46442.00
1462.800, 46407.00
1463.843, 46375.00
1464.886, 46498.00
1465.928, 46569.00
1466.971, 46306.00
1468.013, 46349.00
1469.055, 46483.00
1470.097, 46494.00
1471.139, 46541.00
1472.181, 46607.00
1473.222, 46544.00
1474.263, 46666.00
1475.305, 46517.94
1476.346, 46824.31
1477.386, 47001.75
1478.427, 47057.21
1479.468, 46625.32
1480.508, 46822.73
1481.548, 46767.95
1482.588, 46702.82
1483.628, 46988.81
1484.668, 46627.79
1485.707, 46908.20
1486.747, 46932.57
1487.786, 47074.12
1488.825, 46961.90
1489.864, 46928.07
1490.902, 47148.06
1491.941, 47227.52
1492.979, 47086.08
1494.017, 47235.07
1495.055, 46865.16
1496.093, 47299.00
1497.131, 47120.00
1498.168, 47468.00
1499.206, 47415.00
1500.243, 47424.00
1501.280, 47476.00
1502.317, 47350.00
1503.354, 47421.00
1504.390, 47552.00
1505.426, 47764.00
1506.463, 47706.16
1507.499, 47835.00
1508.535, 47686.83
1509.570, 47698.42
1510.606, 47787.00
1511.641, 47748.00
1512.676, 47849.00
1513.711, 47876.00
1514.746, 48052.00
1515.781, 48041.79
1516.816, 48038.26
1517.850, 48008.00
1518.884, 48106.00
1519.918, 47957.00
1520.952, 48022.67
1521.986, 48188.00
1523.019, 48097.00
1524.053, 48302.00
1525.086, 48459.00
1526.119, 48273.00
1527.152, 48537.00
1528.185, 48586.00
1529.217, 48295.00
1530.250, 48387.00
1531.282, 48564.00
1532.314, 48613.00
1533.346, 48671.65
1534.377, 48415.00
1535.409, 48715.00
1536.440, 48587.00
1537.472, 48583.00
1538.503, 48919.00
1539.534, 48594.00
1540.564, 48840.00
1541.595, 48587.96
1542.625, 48920.67
1543.656, 49124.50
1544.686, 49206.31
1545.716, 48800.75
1546.745, 49024.48
1547.775, 48996.05
1548.804, 48957.23
1549.834, 49269.58
1550.863, 48934.88
1551.892, 49241.61
1552.920, 49292.27
1553.949, 49460.14
1554.977, 49374.21
1556.006, 49366.70
1557.034, 49613.00
1558.062, 49718.74
1559.089, 49603.57
1560.117, 49778.85
1561.144, 49435.21
1562.172, 49546.94
1563.199, 49648.00
1564.226, 49617.00
1565.252, 49659.00
1566.279, 49798.00
1567.305, 49814.00
1568.332, 49697.00
1569.358, 49691.00
1570.384, 50111.00
1571.409, 50137.00
##END=



