##NAMES=Astrophyllite
##RRUFFID=R060202
##IDEAL CHEMISTRY=K_2_NaFe^2+^_7_Ti^4+^_2_(Si_4_O_12_)_2_O_2_(OH)_4_F
##LOCALITY=Demix Quarry, Mont Saint-Hilaire, Rouville County, Quebec, Canada
##OWNER=RRUFF
##SOURCE=Royal Ontario Museum
##DESCRIPTION=Aggregate of brown splintered wafers
##STATUS=The identification of this mineral has been confirmed by X-ray diffraction and chemical analysis
##URL=rruff.info/R060202
##MEASURED CHEMISTRY=(K_0.56_Na_0.38_Ca_0.06_)_3_(Fe^2+^_0.52_Mn_0.44_Mg_0.04_)_7_(Ti_0.75_Zr_0.15_Al_0.15_)_2_Si_8_O_24_(O_0.27_OH_0.73_)_7_
##PIN_ID=M00260
##ORIENTATION=Laser parallel to -b* (0 -1 0). Fiducial mark perpendicular to laser is parallel to c [0 0 1]
143.9560, 23340.00
145.1840, 23343.00
146.4120, 23593.00
147.6390, 23641.00
148.8670, 24217.00
150.0940, 24746.00
151.3210, 24700.00
152.5490, 24971.00
153.7750, 24889.00
155.0020, 25194.00
156.2290, 25393.00
157.4550, 25611.00
158.6810, 25753.00
159.9080, 26051.00
161.1340, 26282.00
162.3590, 26498.00
163.5850, 26526.00
164.8110, 26207.00
166.0360, 26142.00
167.2610, 26059.00
168.4860, 25575.00
169.7110, 25588.00
170.9360, 24922.00
172.1610, 24964.00
173.3850, 24793.00
174.6100, 24367.00
175.8340, 24117.00
177.0580, 24036.00
178.2820, 24085.00
179.5050, 23862.00
180.7290, 23666.00
181.9520, 23852.00
183.1760, 23808.00
184.3990, 24227.00
185.6220, 24198.00
186.8450, 24163.00
188.0670, 24499.00
189.2900, 24956.00
190.5120, 24983.00
191.7340, 25496.00
192.9560, 25801.00
194.1780, 25956.00
195.4000, 26111.00
196.6220, 26464.00
197.8430, 26543.00
199.0640, 26917.00
200.2860, 26733.27
201.5070, 26724.00
202.7270, 26348.00
203.9480, 26111.00
205.1690, 25943.00
206.3890, 26152.00
207.6090, 26432.00
208.8290, 26499.00
210.0490, 26750.00
211.2690, 27117.00
212.4890, 27293.00
213.7080, 27622.00
214.9280, 27834.00
216.1470, 28189.00
217.3660, 28613.00
218.5850, 28886.00
219.8030, 29227.00
221.0220, 29797.00
222.2400, 30128.00
223.4590, 30541.00
224.6770, 31117.00
225.8950, 31561.00
227.1120, 32034.06
228.3300, 32541.00
229.5480, 32961.00
230.7650, 33324.00
231.9820, 33770.00
233.1990, 33981.00
234.4160, 34104.00
235.6330, 34432.00
236.8490, 34400.00
238.0660, 34730.00
239.2820, 34793.00
240.4980, 34421.00
241.7140, 34479.00
242.9300, 34732.00
244.1460, 34869.00
245.3610, 35154.00
246.5770, 35148.10
247.7920, 35314.00
249.0070, 35095.00
250.2220, 34987.00
251.4370, 34872.00
252.6510, 34225.00
253.8660, 33735.00
255.0800, 33168.00
256.2940, 33870.00
257.5080, 32418.18
258.7220, 32299.00
259.9360, 30325.00
261.1490, 29190.00
262.3630, 28456.00
263.5760, 28103.00
264.7890, 27410.00
266.0020, 26924.00
267.2150, 26187.00
268.4270, 25711.00
269.6400, 25335.00
270.8520, 24857.00
272.0640, 24565.00
273.2760, 24233.00
274.4880, 24128.00
275.7000, 23779.00
276.9120, 23618.00
278.1230, 23212.00
279.3340, 23146.00
280.5450, 22831.00
281.7560, 22659.00
282.9670, 22772.00
284.1780, 22590.00
285.3880, 22591.00
286.5980, 22579.00
287.8090, 22671.00
289.0190, 22561.00
290.2290, 22480.00
291.4380, 22625.00
292.6480, 22440.00
293.8570, 22487.00
295.0670, 22429.00
296.2760, 22489.00
297.4850, 22423.00
298.6930, 22442.51
299.9020, 22420.44
301.1110, 22439.00
302.3190, 22419.00
303.5270, 22377.00
304.7350, 22487.00
305.9430, 22283.00
307.1510, 22458.00
308.3580, 22480.00
309.5660, 22441.00
310.7730, 22271.00
311.9800, 22390.00
313.1870, 22178.00
314.3940, 22240.66
315.6010, 22207.84
316.8070, 22351.00
318.0130, 22172.00
319.2200, 22320.00
320.4260, 22320.00
321.6310, 22375.00
322.8370, 22354.00
324.0430, 22505.00
325.2480, 22490.00
326.4540, 22591.63
327.6590, 22705.00
328.8640, 22792.00
330.0680, 23011.00
331.2730, 23160.00
332.4780, 23169.00
333.6820, 23359.00
334.8860, 23447.00
336.0900, 23609.00
337.2940, 23879.00
338.4980, 23903.15
339.7010, 23816.00
340.9050, 24077.00
342.1080, 24129.00
343.3110, 24281.00
344.5140, 24488.00
345.7170, 24419.00
346.9200, 24502.00
348.1220, 24628.00
349.3240, 24745.00
350.5270, 24679.00
351.7290, 24924.00
352.9310, 24825.00
354.1320, 24850.00
355.3340, 24764.00
356.5350, 24935.00
357.7370, 24881.00
358.9380, 24543.00
360.1390, 24540.00
361.3400, 24701.00
362.5400, 24358.00
363.7410, 24378.00
364.9410, 24304.00
366.1410, 24316.00
367.3410, 24100.00
368.5410, 24090.00
369.7410, 23996.00
370.9400, 24063.00
372.1400, 24272.00
373.3390, 24330.00
374.5380, 24465.00
375.7370, 24600.00
376.9360, 24567.00
378.1350, 24482.00
379.3330, 24720.00
380.5310, 24593.00
381.7300, 24684.00
382.9280, 24632.00
384.1260, 24629.00
385.3230, 24631.00
386.5210, 24683.00
387.7180, 24811.00
388.9160, 24751.00
390.1130, 24936.00
391.3100, 24786.00
392.5060, 24879.00
393.7030, 24930.00
394.9000, 25182.00
396.0960, 24925.00
397.2920, 24778.00
398.4880, 25031.00
399.6840, 25043.00
400.8800, 25161.00
402.0750, 25245.00
403.2710, 25192.00
404.4660, 25312.00
405.6610, 25345.00
406.8560, 25443.00
408.0510, 25557.16
409.2450, 25739.00
410.4400, 25676.00
411.6340, 25936.00
412.8280, 25750.00
414.0220, 25807.00
415.2160, 25751.00
416.4100, 25831.00
417.6030, 25672.99
418.7970, 25578.00
419.9900, 25322.00
421.1830, 25144.00
422.3760, 24893.00
423.5690, 24683.00
424.7610, 24445.46
425.9540, 24195.51
427.1460, 23983.00
428.3380, 23671.00
429.5300, 23493.00
430.7220, 23191.00
431.9140, 23167.00
433.1050, 22871.00
434.2970, 22830.00
435.4880, 22653.00
436.6790, 22466.00
437.8700, 22507.00
439.0610, 22285.00
440.2510, 22391.00
441.4420, 22319.23
442.6320, 22058.00
443.8220, 22309.00
445.0120, 22189.00
446.2020, 22235.00
447.3910, 22370.00
448.5810, 22351.00
449.7700, 22157.00
450.9600, 22750.00
452.1490, 23047.00
453.3370, 22778.00
454.5260, 22894.00
455.7150, 23064.00
456.9030, 23227.00
458.0910, 23301.00
459.2800, 23485.00
460.4670, 23676.00
461.6550, 23610.00
462.8430, 23595.00
464.0300, 23818.00
465.2180, 23749.00
466.4050, 23711.00
467.5920, 23695.00
468.7790, 23574.00
469.9650, 23660.00
471.1520, 23714.00
472.3380, 23683.00
473.5250, 23438.00
474.7110, 23510.00
475.8970, 23695.00
477.0820, 23345.00
478.2680, 23677.00
479.4540, 23509.00
480.6390, 23696.00
481.8240, 23480.00
483.0090, 23319.00
484.1940, 23300.00
485.3780, 23062.00
486.5630, 23063.00
487.7470, 22908.00
488.9320, 22972.00
490.1160, 23011.00
491.3000, 22790.00
492.4830, 22730.00
493.6670, 22800.00
494.8500, 22692.00
496.0340, 22660.00
497.2170, 22768.00
498.4000, 22720.00
499.5820, 22559.00
500.7650, 22519.00
501.9480, 22473.00
503.1300, 22662.00
504.3120, 22469.00
505.4940, 22472.00
506.6760, 22471.00
507.8580, 22378.00
509.0390, 22433.00
510.2210, 22340.00
511.4020, 22420.00
512.5830, 22252.00
513.7640, 22443.00
514.9450, 22378.00
516.1250, 22498.00
517.3060, 22457.00
518.4860, 22178.00
519.6660, 22617.00
520.8460, 22518.00
522.0260, 22400.00
523.2060, 22695.00
524.3850, 22746.00
525.5650, 22748.00
526.7440, 22941.00
527.9230, 22930.00
529.1020, 23102.00
530.2810, 23186.00
531.4590, 23314.00
532.6380, 23519.00
533.8160, 23800.00
534.9940, 24021.00
536.1720, 24237.00
537.3500, 24669.00
538.5270, 25119.00
539.7050, 25590.00
540.8820, 26205.00
542.0590, 26851.00
543.2360, 27353.00
544.4130, 27882.00
545.5900, 28745.00
546.7660, 28802.00
547.9430, 29887.00
549.1190, 30503.00
550.2950, 30583.00
551.4710, 30883.00
552.6470, 31376.00
553.8220, 31129.00
554.9980, 31043.00
556.1730, 30857.00
557.3480, 30448.00
558.5230, 30137.00
559.6980, 29717.00
560.8730, 29235.00
562.0470, 29079.00
563.2220, 28507.00
564.3960, 28267.00
565.5700, 27854.00
566.7440, 27705.00
567.9170, 27283.00
569.0910, 27095.00
570.2640, 26790.00
571.4380, 26529.00
572.6110, 26600.00
573.7840, 26237.00
574.9570, 26169.00
576.1290, 26130.00
577.3020, 25975.00
578.4740, 25960.00
579.6460, 25906.00
580.8180, 26095.00
581.9900, 25774.00
583.1620, 25898.00
584.3330, 25807.00
585.5040, 26100.00
586.6760, 25978.00
587.8470, 25806.00
589.0180, 25898.00
590.1880, 25999.00
591.3590, 26027.00
592.5290, 26081.87
593.7000, 26139.29
594.8700, 26144.00
596.0400, 26229.00
597.2090, 26291.00
598.3790, 26329.00
599.5490, 26365.79
600.7180, 26547.00
601.8870, 26356.00
603.0560, 26313.00
604.2250, 26209.00
605.3940, 26480.00
606.5620, 26429.00
607.7300, 26584.00
608.8990, 26746.00
610.0670, 26857.00
611.2350, 26991.93
612.4020, 27107.00
613.5700, 27191.00
614.7370, 27301.00
615.9050, 27450.02
617.0720, 27637.00
618.2390, 27800.00
619.4060, 27967.00
620.5720, 28145.30
621.7390, 28288.00
622.9050, 28483.00
624.0710, 28693.00
625.2370, 28844.00
626.4030, 29567.00
627.5690, 29496.00
628.7340, 30205.00
629.9000, 30271.00
631.0650, 30657.00
632.2300, 31303.00
633.3950, 31920.00
634.5600, 32567.00
635.7240, 33189.00
636.8890, 34023.00
638.0530, 34690.00
639.2170, 35985.00
640.3810, 37112.00
641.5450, 38520.00
642.7080, 40016.00
643.8720, 41601.00
645.0350, 42565.00
646.1980, 44059.00
647.3610, 44865.00
648.5240, 45044.00
649.6870, 44955.00
650.8490, 44418.00
652.0120, 43323.00
653.1740, 42652.00
654.3360, 41673.00
655.4980, 40695.00
656.6600, 39930.00
657.8210, 39277.00
658.9830, 38681.91
660.1440, 38457.00
661.3050, 37950.00
662.4660, 37671.00
663.6270, 37728.00
664.7870, 37569.00
665.9480, 37911.00
667.1080, 38074.00
668.2680, 38360.00
669.4280, 38566.00
670.5880, 39214.00
671.7480, 39696.00
672.9070, 40450.00
674.0670, 40744.00
675.2260, 41371.00
676.3850, 41752.00
677.5440, 42513.00
678.7030, 43106.00
679.8610, 43617.00
681.0200, 44001.00
682.1780, 44546.00
683.3360, 44731.00
684.4940, 45171.00
685.6520, 45694.00
686.8090, 45869.00
687.9670, 46261.00
689.1240, 46867.00
690.2810, 47170.00
691.4380, 46776.00
692.5950, 46874.00
693.7520, 47360.00
694.9080, 47589.00
696.0650, 47757.00
697.2210, 47857.00
698.3770, 47750.00
699.5330, 47615.00
700.6880, 47873.00
701.8440, 47652.00
702.9990, 47764.00
704.1550, 47511.00
705.3100, 47308.00
706.4650, 47026.00
707.6190, 46855.00
708.7740, 46739.00
709.9290, 46096.00
711.0830, 46021.00
712.2370, 45248.00
713.3910, 44578.00
714.5450, 44427.00
715.6980, 44164.00
716.8520, 43288.00
718.0050, 42780.00
719.1580, 41990.00
720.3110, 41417.00
721.4640, 40881.00
722.6170, 40403.00
723.7700, 39667.00
724.9220, 38930.00
726.0740, 38511.00
727.2260, 37869.00
728.3780, 37387.00
729.5300, 36949.00
730.6810, 36174.00
731.8330, 35844.00
732.9840, 35235.00
734.1350, 34809.34
735.2860, 34500.00
736.4370, 34087.00
737.5880, 33864.00
738.7380, 33652.00
739.8880, 33430.00
741.0390, 32985.00
742.1890, 33052.00
743.3380, 32859.00
744.4880, 32819.00
745.6380, 32377.00
746.7870, 32215.00
747.9360, 32027.00
749.0850, 31886.00
750.2340, 32009.00
751.3830, 31520.00
752.5310, 31679.00
753.6800, 31168.00
754.8280, 31256.00
755.9760, 30934.00
757.1240, 30683.00
758.2720, 30379.00
759.4190, 30178.18
760.5670, 30072.00
761.7140, 29767.00
762.8610, 29726.00
764.0080, 29468.00
765.1550, 29039.00
766.3020, 29183.00
767.4480, 28782.00
768.5950, 28822.00
769.7410, 28546.00
770.8870, 28709.00
772.0330, 28601.00
773.1780, 28466.00
774.3240, 28477.48
775.4690, 28093.00
776.6140, 28289.00
777.7590, 28016.00
778.9040, 27817.00
780.0490, 28021.00
781.1940, 27864.00
782.3380, 27825.00
783.4820, 27929.00
784.6260, 27536.00
785.7700, 27579.00
786.9140, 27281.00
788.0580, 27324.00
789.2010, 27229.00
790.3450, 27094.00
791.4880, 27025.00
792.6310, 26867.00
793.7730, 26867.00
794.9160, 26561.00
796.0590, 26590.00
797.2010, 26306.00
798.3430, 26205.00
799.4850, 26090.00
800.6270, 26126.00
801.7690, 25977.15
802.9100, 25747.00
804.0520, 25792.00
805.1930, 25555.00
806.3340, 25491.00
807.4750, 25375.00
808.6160, 25238.00
809.7560, 25286.00
810.8970, 25205.44
812.0370, 25086.14
813.1770, 25217.00
814.3170, 24948.00
815.4570, 25008.00
816.5960, 25200.00
817.7360, 24985.00
818.8750, 24987.00
820.0140, 24947.00
821.1530, 25115.00
822.2920, 24965.00
823.4310, 24988.00
824.5690, 24823.00
825.7070, 24937.00
826.8460, 24956.00
827.9840, 24885.00
829.1220, 25077.00
830.2590, 24943.00
831.3970, 25026.00
832.5340, 24995.00
833.6710, 24782.00
834.8080, 24988.00
835.9450, 24980.00
837.0820, 25175.00
838.2190, 25176.00
839.3550, 25262.00
840.4910, 25345.71
841.6270, 25383.00
842.7630, 25416.00
843.8990, 25542.00
845.0350, 25472.00
846.1700, 25679.00
847.3060, 25728.00
848.4410, 25779.00
849.5760, 25904.00
850.7100, 25999.00
851.8450, 26096.24
852.9800, 26221.28
854.1140, 26346.00
855.2480, 26475.00
856.3820, 26676.96
857.5160, 26841.47
858.6500, 27106.00
859.7830, 27377.00
860.9170, 27563.00
862.0500, 27897.00
863.1830, 27813.00
864.3160, 28298.00
865.4480, 28573.00
866.5810, 28516.00
867.7130, 28840.00
868.8460, 29336.00
869.9780, 29402.00
871.1100, 29777.00
872.2410, 30025.00
873.3730, 30382.68
874.5050, 31044.00
875.6360, 31252.00
876.7670, 31725.00
877.8980, 32264.00
879.0290, 32432.00
880.1590, 32644.00
881.2900, 33481.00
882.4200, 33590.00
883.5500, 34129.00
884.6800, 34540.00
885.8100, 34894.00
886.9400, 35218.00
888.0690, 35846.00
889.1990, 36625.00
890.3280, 36589.00
891.4570, 37775.00
892.5860, 38183.00
893.7140, 38604.00
894.8430, 39131.00
895.9710, 39660.00
897.1000, 40298.00
898.2280, 40872.00
899.3560, 41447.97
900.4830, 42185.00
901.6110, 42545.00
902.7380, 43205.00
903.8660, 43622.00
904.9930, 44267.00
906.1200, 44839.00
907.2460, 45353.72
908.3730, 45833.00
909.5000, 46424.00
910.6260, 46920.00
911.7520, 47399.00
912.8780, 47615.00
914.0040, 48133.00
915.1290, 47934.00
916.2550, 48425.00
917.3800, 48428.00
918.5050, 48597.00
919.6300, 48504.00
920.7550, 48663.00
921.8800, 48517.00
923.0040, 48707.00
924.1290, 48185.00
925.2530, 48203.00
926.3770, 48243.00
927.5010, 47767.00
928.6250, 47723.00
929.7480, 47107.00
930.8720, 46394.00
931.9950, 45928.00
933.1180, 45189.00
934.2410, 44511.00
935.3640, 43681.00
936.4860, 42923.00
937.6090, 42076.00
938.7310, 41323.90
939.8530, 40513.00
940.9750, 39842.00
942.0970, 39037.00
943.2180, 38375.00
944.3400, 37547.00
945.4610, 37051.00
946.5820, 36373.00
947.7030, 35694.00
948.8240, 35367.00
949.9450, 34755.00
951.0650, 34241.00
952.1860, 33795.70
953.3060, 33090.00
954.4260, 32704.00
955.5460, 32166.00
956.6650, 31346.00
957.7850, 30922.00
958.9040, 30543.00
960.0230, 30339.00
961.1420, 29780.00
962.2610, 29418.00
963.3800, 29222.00
964.4990, 29038.00
965.6170, 28980.00
966.7350, 28415.00
967.8530, 28315.00
968.9710, 28028.00
970.0890, 28076.00
971.2070, 27618.00
972.3240, 27757.00
973.4410, 27342.00
974.5580, 27373.00
975.6750, 27552.00
976.7920, 27269.00
977.9090, 27350.00
979.0250, 27349.00
980.1410, 27315.00
981.2580, 27085.00
982.3740, 27456.00
983.4890, 27324.00
984.6050, 27171.00
985.7200, 27288.00
986.8360, 27117.00
987.9510, 27257.00
989.0660, 27489.00
990.1810, 27499.00
991.2950, 27516.00
992.4100, 27669.00
993.5240, 27696.00
994.6390, 27646.00
995.7530, 28034.00
996.8660, 27909.00
997.9800, 27916.00
999.0940, 28245.00
1000.207, 28341.00
1001.320, 28359.00
1002.433, 28782.00
1003.546, 28864.00
1004.659, 28866.00
1005.772, 29134.00
1006.884, 29318.45
1007.996, 30002.00
1009.108, 29780.00
1010.220, 30179.00
1011.332, 30212.00
1012.444, 30360.00
1013.555, 30665.00
1014.666, 31089.00
1015.777, 31252.00
1016.888, 31362.00
1017.999, 31531.00
1019.110, 31902.00
1020.220, 31916.00
1021.331, 32094.00
1022.441, 32292.00
1023.551, 32304.00
1024.661, 32464.00
1025.770, 32276.00
1026.880, 32172.00
1027.989, 32184.95
1029.098, 32327.00
1030.207, 32148.00
1031.316, 31916.00
1032.425, 32002.00
1033.533, 31593.00
1034.642, 31597.00
1035.750, 31717.00
1036.858, 31803.00
1037.966, 31063.00
1039.073, 30560.00
1040.181, 30556.00
1041.288, 30429.00
1042.396, 30295.00
1043.503, 29928.00
1044.610, 29839.00
1045.716, 29605.00
1046.823, 29555.00
1047.929, 29159.00
1049.036, 29166.00
1050.142, 29041.00
1051.248, 28835.00
1052.353, 28961.00
1053.459, 28779.00
1054.564, 28598.00
1055.670, 28763.00
1056.775, 28556.00
1057.880, 28598.00
1058.985, 28463.00
1060.089, 28359.00
1061.194, 28492.00
1062.298, 28499.56
1063.402, 28496.00
1064.506, 28709.00
1065.610, 28575.00
1066.713, 28594.00
1067.817, 28354.00
1068.920, 28508.00
1070.023, 28529.00
1071.126, 28510.00
1072.229, 28514.00
1073.332, 28438.42
1074.435, 28465.00
1075.537, 28392.00
1076.639, 28502.00
1077.741, 28470.41
1078.843, 28633.00
1079.945, 28486.00
1081.046, 28493.00
1082.148, 28499.00
1083.249, 28462.00
1084.350, 28523.00
1085.451, 28198.00
1086.551, 28143.00
1087.652, 28541.00
1088.752, 27985.00
1089.853, 28173.00
1090.953, 28166.00
1092.053, 27970.00
1093.152, 27954.00
1094.252, 27959.00
1095.351, 27754.00
1096.451, 27924.00
1097.550, 27825.00
1098.649, 27879.00
1099.748, 27605.00
1100.846, 27749.00
1101.945, 27677.00
1103.043, 27527.00
1104.141, 27566.00
1105.239, 27465.00
1106.337, 27546.00
1107.434, 27394.00
1108.532, 27380.00
1109.629, 27428.00
1110.726, 27471.00
1111.823, 27446.16
1112.920, 27270.00
1114.017, 27394.00
1115.113, 27338.00
1116.210, 27262.00
1117.306, 27365.00
1118.402, 27458.00
1119.498, 27293.00
1120.593, 27312.00
1121.689, 27408.00
1122.784, 27218.00
1123.879, 27543.00
1124.974, 27264.00
1126.069, 27291.00
1127.164, 27492.00
1128.259, 27491.05
1129.353, 27399.21
1130.447, 27717.00
1131.541, 27282.00
1132.635, 27135.00
1133.729, 27449.00
1134.822, 27434.00
1135.916, 27166.00
1137.009, 27267.00
1138.102, 27262.00
1139.195, 27337.00
1140.288, 27154.00
1141.380, 27243.00
1142.473, 27139.00
1143.565, 27182.00
1144.657, 27132.00
1145.749, 27401.00
1146.841, 27316.00
1147.932, 27378.00
1149.024, 27401.00
1150.115, 27402.97
1151.206, 27291.00
1152.297, 27459.00
1153.388, 27334.00
1154.479, 27345.00
1155.569, 27462.00
1156.659, 27394.00
1157.750, 27389.00
1158.839, 27327.00
1159.929, 27296.00
1161.019, 27315.00
1162.108, 27340.00
1163.198, 27326.00
1164.287, 27316.00
1165.376, 27327.00
1166.465, 27259.00
1167.553, 27493.00
1168.642, 27369.00
1169.730, 27475.00
1170.818, 27336.00
1171.906, 27272.00
1172.994, 27401.00
1174.082, 27648.00
1175.170, 27437.00
1176.257, 27468.00
1177.344, 27380.00
1178.431, 27367.00
1179.518, 27518.00
1180.605, 27440.00
1181.691, 27551.00
1182.778, 27620.00
1183.864, 27365.00
1184.950, 27617.00
1186.036, 27615.00
1187.122, 27468.00
1188.207, 27430.00
1189.292, 27624.00
1190.378, 27543.00
1191.463, 27684.00
1192.548, 27642.00
1193.632, 27641.00
1194.717, 27868.00
1195.801, 27748.00
1196.886, 27701.00
1197.970, 28012.00
1199.054, 27974.00
1200.137, 27798.00
1201.221, 27810.00
1202.305, 27665.00
1203.388, 27682.34
1204.471, 27745.00
1205.554, 27784.00
1206.637, 27774.00
1207.719, 27943.00
1208.802, 27773.00
1209.884, 27978.00
1210.966, 27978.00
1212.048, 27929.00
1213.130, 27867.00
1214.212, 27906.00
1215.293, 27931.00
1216.374, 28175.00
1217.456, 28130.00
1218.536, 27979.00
1219.617, 28029.00
1220.698, 28327.00
1221.778, 28090.00
1222.859, 28364.00
1223.939, 28151.00
1225.019, 28137.00
1226.099, 28086.00
1227.178, 28098.13
1228.258, 28166.57
1229.337, 28329.00
1230.417, 28253.00
1231.496, 28559.00
1232.574, 28400.00
1233.653, 28340.00
1234.732, 28443.00
1235.810, 28544.00
1236.888, 28569.00
1237.966, 28611.25
1239.044, 28625.40
1240.122, 28591.00
1241.199, 28589.00
1242.277, 28509.00
1243.354, 28433.00
1244.431, 28770.00
1245.508, 28691.00
1246.585, 28862.00
1247.661, 28700.00
1248.738, 28828.00
1249.814, 28680.00
1250.890, 28687.00
1251.966, 28651.00
1253.042, 28530.00
1254.117, 28406.00
1255.193, 28593.00
1256.268, 28704.00
1257.343, 28657.00
1258.418, 28740.00
1259.493, 28807.00
1260.567, 28732.00
1261.642, 28835.00
1262.716, 29031.00
1263.790, 28765.00
1264.864, 28891.00
1265.938, 29041.00
1267.011, 28990.00
1268.085, 28892.00
1269.158, 28969.00
1270.231, 28804.00
1271.304, 28819.00
1272.377, 28919.00
1273.450, 28785.00
1274.522, 28865.83
1275.594, 28961.00
1276.666, 28969.00
1277.738, 28963.00
1278.810, 29147.00
1279.882, 28983.00
1280.953, 28800.00
1282.025, 29021.00
1283.096, 28942.00
1284.167, 28956.41
1285.238, 29094.00
1286.308, 29063.00
1287.379, 29058.00
1288.449, 29287.00
1289.519, 29244.00
1290.589, 29077.00
1291.659, 29028.00
1292.729, 29285.00
1293.798, 29066.00
1294.868, 29396.00
1295.937, 29147.00
1297.006, 29235.00
1298.075, 29231.00
1299.143, 29361.00
1300.212, 29431.00
1301.280, 29365.00
1302.348, 29588.00
1303.416, 29289.00
1304.484, 29429.00
1305.552, 29254.00
1306.620, 29323.00
1307.687, 29557.00
1308.754, 29508.00
1309.821, 29514.00
1310.888, 29432.00
1311.955, 29403.00
1313.021, 29116.00
1314.088, 29458.00
1315.154, 29390.00
1316.220, 29412.00
1317.286, 29681.00
1318.352, 29686.00
1319.417, 29414.00
1320.483, 29729.00
1321.548, 29500.00
1322.613, 29580.00
1323.678, 29648.00
1324.743, 29606.00
1325.807, 29756.00
1326.872, 29727.00
1327.936, 29503.00
1329.000, 29691.00
1330.064, 29525.00
1331.128, 29921.00
1332.191, 29966.00
1333.255, 29706.00
1334.318, 29922.00
1335.381, 29744.00
1336.444, 29872.00
1337.507, 29940.00
1338.569, 29835.00
1339.632, 29858.00
1340.694, 29952.00
1341.756, 29865.76
1342.818, 29889.00
1343.880, 29831.00
1344.941, 29836.00
1346.003, 29880.45
1347.064, 30188.00
1348.125, 30119.00
1349.186, 30156.00
1350.247, 30211.00
1351.308, 30211.00
1352.368, 30241.00
1353.428, 30016.00
1354.489, 30134.00
1355.549, 30119.00
1356.608, 30278.00
1357.668, 30139.00
1358.727, 30139.00
1359.787, 30143.00
1360.846, 30195.00
1361.905, 30291.00
1362.964, 30292.49
1364.022, 30470.00
1365.081, 30377.00
1366.139, 30441.00
1367.197, 30550.00
1368.255, 30489.00
1369.313, 30611.00
1370.371, 30531.00
1371.428, 30595.00
1372.486, 30669.60
1373.543, 30509.00
1374.600, 30639.66
1375.657, 30822.95
1376.713, 30929.85
1377.770, 30964.49
1378.826, 30710.37
1379.882, 30829.11
1380.938, 30798.42
1381.994, 30761.61
1383.050, 30932.83
1384.106, 30720.71
1385.161, 30888.61
1386.216, 30904.82
1387.271, 30990.45
1388.326, 30925.74
1389.381, 30907.47
1390.435, 31039.58
1391.490, 31088.43
1392.544, 31006.40
1393.598, 31096.44
1394.652, 30879.05
1395.705, 30931.43
1396.759, 31100.21
1397.812, 31025.73
1398.866, 31118.52
1399.919, 31147.60
1400.972, 30887.19
1402.024, 31130.23
1403.077, 31155.54
1404.129, 30957.29
1405.181, 31183.08
1406.233, 31015.64
1407.285, 30988.57
1408.337, 31067.12
1409.389, 31035.55
1410.440, 31179.00
1411.491, 31217.97
1412.542, 31244.69
1413.593, 31265.00
1414.644, 31267.00
1415.695, 31281.00
1416.745, 31336.00
1417.795, 31310.00
1418.845, 31373.00
1419.895, 31411.66
1420.945, 31509.00
1421.995, 31505.00
1423.044, 31434.00
1424.093, 31444.00
1425.142, 31505.00
1426.191, 31663.00
1427.240, 31621.00
1428.289, 31432.00
1429.337, 31671.00
1430.385, 31895.00
1431.433, 31685.00
1432.481, 31726.00
1433.529, 31961.00
1434.577, 31923.00
1435.624, 31947.00
1436.672, 31953.00
1437.719, 31924.00
1438.766, 32045.00
1439.812, 32141.00
1440.859, 32151.00
1441.905, 32489.00
1442.952, 32232.00
1443.998, 32450.00
1445.044, 32208.00
1446.090, 32321.00
1447.135, 32483.00
1448.181, 32453.00
1449.226, 32636.00
1450.271, 32605.00
1451.316, 32577.00
1452.361, 32696.00
1453.405, 32566.00
1454.450, 32522.00
1455.494, 32715.00
1456.538, 32668.00
1457.582, 32533.00
1458.626, 32818.00
1459.670, 32612.00
1460.713, 32789.00
1461.757, 32671.00
1462.800, 32868.00
1463.843, 32840.00
1464.886, 33069.00
1465.928, 32773.00
1466.971, 32938.00
1468.013, 32910.00
1469.055, 32916.00
1470.097, 32501.00
1471.139, 32903.00
1472.181, 33027.00
1473.222, 32571.00
1474.263, 32675.00
1475.305, 32844.00
1476.346, 32929.00
1477.386, 32698.00
1478.427, 32904.00
1479.468, 32912.00
1480.508, 32866.00
1481.548, 33137.00
1482.588, 33114.00
1483.628, 33149.00
1484.668, 33095.00
1485.707, 33321.00
1486.747, 33129.00
1487.786, 33084.00
1488.825, 33184.00
1489.864, 33042.00
1490.902, 33142.00
1491.941, 33246.00
1492.979, 33031.00
1494.017, 33186.00
1495.055, 33308.00
1496.093, 33062.00
1497.131, 33228.00
1498.168, 32986.00
1499.206, 33389.00
1500.243, 33125.00
1501.280, 33428.00
1502.317, 33306.00
1503.354, 33450.00
1504.390, 33208.00
1505.426, 33073.00
1506.463, 33565.00
1507.499, 33414.00
1508.535, 33425.00
1509.570, 33345.00
1510.606, 33338.00
1511.641, 33382.00
1512.676, 33312.00
1513.711, 33365.87
1514.746, 33199.00
1515.781, 33440.00
1516.816, 33499.00
1517.850, 33569.00
1518.884, 33300.00
1519.918, 33761.00
1520.952, 33431.00
1521.986, 33537.00
1523.019, 33620.00
1524.053, 33689.00
1525.086, 33688.00
1526.119, 33680.00
1527.152, 33762.00
1528.185, 33748.88
1529.217, 33781.55
1530.250, 33771.00
1531.282, 33839.00
1532.314, 33828.00
1533.346, 33886.00
1534.377, 33777.39
1535.409, 33981.63
1536.440, 34109.46
1537.472, 34165.05
1538.503, 33931.86
1539.534, 34071.53
1540.564, 34061.75
1541.595, 34045.86
1542.625, 34237.98
1543.656, 34046.79
1544.686, 34235.61
1545.716, 34272.72
1546.745, 34379.24
1547.775, 34335.44
1548.804, 34338.05
1549.834, 34491.08
1550.863, 34560.81
1551.892, 34499.67
1552.920, 34610.57
1553.949, 34414.07
1554.977, 34487.32
1556.006, 34676.99
1557.034, 34623.39
1558.062, 34737.04
1559.089, 34786.96
1560.117, 34547.41
1561.144, 34811.30
1562.172, 34857.48
1563.199, 34680.08
1564.226, 34926.71
1565.252, 34560.00
1566.279, 34596.00
1567.305, 34847.00
1568.332, 34833.00
1569.358, 34928.00
1570.384, 35095.00
##END=



