##NAMES=Astrophyllite
##RRUFFID=R060202
##IDEAL CHEMISTRY=K_2_NaFe^2+^_7_Ti^4+^_2_(Si_4_O_12_)_2_O_2_(OH)_4_F
##LOCALITY=Demix Quarry, Mont Saint-Hilaire, Rouville County, Quebec, Canada
##OWNER=RRUFF
##SOURCE=Royal Ontario Museum
##DESCRIPTION=Aggregate of brown splintered wafers
##STATUS=The identification of this mineral has been confirmed by X-ray diffraction and chemical analysis
##URL=rruff.info/R060202
##MEASURED CHEMISTRY=(K_0.56_Na_0.38_Ca_0.06_)_3_(Fe^2+^_0.52_Mn_0.44_Mg_0.04_)_7_(Ti_0.75_Zr_0.15_Al_0.15_)_2_Si_8_O_24_(O_0.27_OH_0.73_)_7_
##PIN_ID=M00260
##ORIENTATION=Laser parallel to -b* (0 -1 0). Fiducial mark perpendicular to laser is parallel to c [0 0 1]
143.9560, 18551.00
145.1840, 18644.00
146.4120, 18968.00
147.6390, 19358.00
148.8670, 19808.00
150.0940, 20187.00
151.3210, 20807.00
152.5490, 21096.00
153.7750, 21686.00
155.0020, 21865.00
156.2290, 22175.00
157.4550, 22640.00
158.6810, 22866.00
159.9080, 23354.00
161.1340, 23405.00
162.3590, 23788.00
163.5850, 23666.00
164.8110, 23375.00
166.0360, 23293.00
167.2610, 23011.00
168.4860, 22616.00
169.7110, 22079.00
170.9360, 21737.00
172.1610, 21217.00
173.3850, 21135.00
174.6100, 20683.00
175.8340, 20557.00
177.0580, 20212.00
178.2820, 19866.00
179.5050, 20022.00
180.7290, 19752.00
181.9520, 19770.00
183.1760, 19918.00
184.3990, 20070.00
185.6220, 19812.00
186.8450, 19905.00
188.0670, 20115.00
189.2900, 20740.00
190.5120, 21045.00
191.7340, 21265.00
192.9560, 21796.00
194.1780, 22163.00
195.4000, 22465.00
196.6220, 22680.00
197.8430, 22937.00
199.0640, 23133.00
200.2860, 23040.00
201.5070, 23071.00
202.7270, 22548.00
203.9480, 22039.00
205.1690, 22062.00
206.3890, 22125.00
207.6090, 22499.00
208.8290, 22774.00
210.0490, 23049.00
211.2690, 23332.00
212.4890, 23603.00
213.7080, 23973.40
214.9280, 24105.00
216.1470, 24698.00
217.3660, 24974.00
218.5850, 25253.00
219.8030, 25741.00
221.0220, 26395.00
222.2400, 26716.00
223.4590, 27271.00
224.6770, 27653.00
225.8950, 28244.00
227.1120, 28826.00
228.3300, 28931.00
229.5480, 29330.00
230.7650, 29677.00
231.9820, 29639.00
233.1990, 29917.00
234.4160, 29710.00
235.6330, 29654.00
236.8490, 29036.00
238.0660, 28295.00
239.2820, 28156.00
240.4980, 27322.00
241.7140, 26422.00
242.9300, 25789.00
244.1460, 25196.00
245.3610, 24614.00
246.5770, 24018.00
247.7920, 23625.00
249.0070, 22971.00
250.2220, 22615.00
251.4370, 21891.00
252.6510, 22182.00
253.8660, 22143.00
255.0800, 21347.00
256.2940, 21566.00
257.5080, 20909.13
258.7220, 20690.00
259.9360, 19940.00
261.1490, 19448.00
262.3630, 19100.00
263.5760, 19036.00
264.7890, 18692.00
266.0020, 18672.00
267.2150, 18317.00
268.4270, 18195.00
269.6400, 18019.00
270.8520, 17730.00
272.0640, 17497.00
273.2760, 17574.00
274.4880, 17463.00
275.7000, 17248.00
276.9120, 16967.00
278.1230, 16916.15
279.3340, 16872.00
280.5450, 16783.00
281.7560, 16674.75
282.9670, 16491.00
284.1780, 16417.00
285.3880, 16405.00
286.5980, 16294.00
287.8090, 16360.00
289.0190, 16430.00
290.2290, 16177.00
291.4380, 16230.00
292.6480, 16209.00
293.8570, 16326.00
295.0670, 16162.00
296.2760, 16433.00
297.4850, 16278.00
298.6930, 16236.00
299.9020, 16206.00
301.1110, 16131.00
302.3190, 16194.00
303.5270, 16206.86
304.7350, 16325.00
305.9430, 16345.00
307.1510, 16373.00
308.3580, 16478.00
309.5660, 16386.00
310.7730, 16394.00
311.9800, 16479.00
313.1870, 16711.00
314.3940, 16760.00
315.6010, 16768.00
316.8070, 16703.00
318.0130, 16638.00
319.2200, 16700.00
320.4260, 16736.15
321.6310, 16868.44
322.8370, 16927.00
324.0430, 17175.00
325.2480, 17281.00
326.4540, 17340.00
327.6590, 17482.00
328.8640, 17597.00
330.0680, 17778.00
331.2730, 17934.00
332.4780, 18183.00
333.6820, 18283.00
334.8860, 18549.00
336.0900, 18788.00
337.2940, 18945.00
338.4980, 19152.00
339.7010, 19114.00
340.9050, 19508.00
342.1080, 19444.00
343.3110, 19533.00
344.5140, 19723.00
345.7170, 20045.00
346.9200, 19797.00
348.1220, 20259.00
349.3240, 20188.00
350.5270, 20291.00
351.7290, 20260.00
352.9310, 20372.00
354.1320, 20351.59
355.3340, 20203.00
356.5350, 20293.00
357.7370, 20193.00
358.9380, 20077.00
360.1390, 20062.00
361.3400, 19755.00
362.5400, 19680.00
363.7410, 19761.00
364.9410, 19470.00
366.1410, 19399.00
367.3410, 19261.00
368.5410, 19271.00
369.7410, 19248.00
370.9400, 19182.00
372.1400, 19223.00
373.3390, 19280.00
374.5380, 19387.00
375.7370, 19311.00
376.9360, 19410.00
378.1350, 19184.00
379.3330, 19458.00
380.5310, 19437.00
381.7300, 19182.00
382.9280, 19064.00
384.1260, 18992.00
385.3230, 18753.00
386.5210, 18746.00
387.7180, 18574.00
388.9160, 18394.00
390.1130, 18108.00
391.3100, 18177.00
392.5060, 18165.00
393.7030, 17930.00
394.9000, 17967.00
396.0960, 17814.00
397.2920, 17786.00
398.4880, 17663.00
399.6840, 17518.00
400.8800, 17339.00
402.0750, 17338.00
403.2710, 17246.00
404.4660, 17368.00
405.6610, 17182.00
406.8560, 17319.00
408.0510, 17277.00
409.2450, 17046.73
410.4400, 17173.80
411.6340, 17224.54
412.8280, 17202.99
414.0220, 16892.70
415.2160, 16955.27
416.4100, 16868.41
417.6030, 16775.47
418.7970, 16890.51
419.9900, 16622.26
421.1830, 16734.04
422.3760, 16694.12
423.5690, 16723.63
424.7610, 16602.84
425.9540, 16528.44
427.1460, 16604.48
428.3380, 16597.24
429.5300, 16233.00
430.7220, 16282.00
431.9140, 16126.00
433.1050, 16090.00
434.2970, 16061.00
435.4880, 16075.00
436.6790, 16049.01
437.8700, 16054.00
439.0610, 16064.00
440.2510, 16067.00
441.4420, 16139.00
442.6320, 16210.00
443.8220, 16305.38
445.0120, 16531.00
446.2020, 16565.00
447.3910, 16675.00
448.5810, 16841.71
449.7700, 16798.00
450.9600, 17171.00
452.1490, 17408.00
453.3370, 17490.00
454.5260, 17780.00
455.7150, 18088.00
456.9030, 18276.00
458.0910, 18645.00
459.2800, 18812.00
460.4670, 18960.00
461.6550, 19227.00
462.8430, 19334.00
464.0300, 19396.00
465.2180, 19213.00
466.4050, 19458.00
467.5920, 19352.00
468.7790, 19432.00
469.9650, 19402.00
471.1520, 19245.00
472.3380, 19145.00
473.5250, 19021.00
474.7110, 18905.00
475.8970, 18982.00
477.0820, 18878.00
478.2680, 18745.00
479.4540, 18814.00
480.6390, 18665.00
481.8240, 18493.00
483.0090, 18515.00
484.1940, 18264.00
485.3780, 18292.00
486.5630, 18122.00
487.7470, 18060.00
488.9320, 17950.68
490.1160, 17698.00
491.3000, 17634.00
492.4830, 17455.00
493.6670, 17161.00
494.8500, 17289.00
496.0340, 17116.00
497.2170, 16989.00
498.4000, 17094.00
499.5820, 16995.00
500.7650, 16878.00
501.9480, 16889.00
503.1300, 16847.00
504.3120, 16820.00
505.4940, 16763.00
506.6760, 16698.00
507.8580, 16649.79
509.0390, 16628.18
510.2210, 16610.00
511.4020, 16596.00
512.5830, 16752.00
513.7640, 16735.00
514.9450, 16786.00
516.1250, 17020.00
517.3060, 17012.00
518.4860, 16979.00
519.6660, 17199.00
520.8460, 17056.00
522.0260, 17089.00
523.2060, 17326.00
524.3850, 17308.00
525.5650, 17431.00
526.7440, 17565.00
527.9230, 17822.00
529.1020, 18045.00
530.2810, 18245.00
531.4590, 18412.00
532.6380, 18590.00
533.8160, 18914.00
534.9940, 19432.00
536.1720, 19869.00
537.3500, 20475.00
538.5270, 21021.00
539.7050, 21544.00
540.8820, 22431.00
542.0590, 23319.00
543.2360, 24334.00
544.4130, 25429.00
545.5900, 26152.00
546.7660, 27136.00
547.9430, 28047.00
549.1190, 28876.00
550.2950, 29420.00
551.4710, 29973.00
552.6470, 30133.00
553.8220, 29902.00
554.9980, 29879.00
556.1730, 29693.00
557.3480, 29442.00
558.5230, 28836.00
559.6980, 28329.00
560.8730, 27512.00
562.0470, 27073.00
563.2220, 26721.00
564.3960, 25957.00
565.5700, 25425.00
566.7440, 25102.00
567.9170, 24493.00
569.0910, 24033.00
570.2640, 23599.00
571.4380, 23448.00
572.6110, 22988.00
573.7840, 22963.00
574.9570, 22706.00
576.1290, 22604.00
577.3020, 22585.00
578.4740, 22459.00
579.6460, 22517.00
580.8180, 22552.00
581.9900, 22630.00
583.1620, 22603.00
584.3330, 22671.00
585.5040, 22691.00
586.6760, 22730.00
587.8470, 22733.00
589.0180, 22825.00
590.1880, 22815.00
591.3590, 22850.00
592.5290, 23094.00
593.7000, 23041.83
594.8700, 23096.50
596.0400, 23108.00
597.2090, 23090.00
598.3790, 23136.00
599.5490, 23163.00
600.7180, 22976.00
601.8870, 23049.00
603.0560, 23106.00
604.2250, 23343.00
605.3940, 23337.00
606.5620, 23577.00
607.7300, 23606.00
608.8990, 23693.00
610.0670, 23902.05
611.2350, 24020.39
612.4020, 24254.00
613.5700, 24414.00
614.7370, 24558.00
615.9050, 24794.00
617.0720, 25101.00
618.2390, 25221.00
619.4060, 25561.93
620.5720, 25811.00
621.7390, 26218.00
622.9050, 26371.00
624.0710, 26808.00
625.2370, 27026.00
626.4030, 27485.00
627.5690, 27968.00
628.7340, 28291.00
629.9000, 28783.00
631.0650, 29575.00
632.2300, 29860.00
633.3950, 30849.00
634.5600, 31753.00
635.7240, 32636.00
636.8890, 33827.00
638.0530, 35128.00
639.2170, 36636.00
640.3810, 38384.00
641.5450, 40202.00
642.7080, 41922.00
643.8720, 44192.00
645.0350, 46064.00
646.1980, 47858.00
647.3610, 49054.00
648.5240, 49635.00
649.6870, 49124.00
650.8490, 49020.00
652.0120, 47753.00
653.1740, 46587.00
654.3360, 45168.00
655.4980, 44029.00
656.6600, 43021.00
657.8210, 41960.00
658.9830, 41258.12
660.1440, 40695.00
661.3050, 40267.00
662.4660, 39829.00
663.6270, 39965.00
664.7870, 39783.00
665.9480, 40110.00
667.1080, 40581.00
668.2680, 41273.00
669.4280, 41778.00
670.5880, 42289.00
671.7480, 43115.00
672.9070, 44049.00
674.0670, 44880.00
675.2260, 45629.82
676.3850, 46457.98
677.5440, 47084.00
678.7030, 47956.00
679.8610, 48707.00
681.0200, 49393.00
682.1780, 49862.00
683.3360, 50722.00
684.4940, 51267.00
685.6520, 51693.00
686.8090, 52366.00
687.9670, 52875.00
689.1240, 53439.00
690.2810, 53723.00
691.4380, 53833.00
692.5950, 54171.00
693.7520, 54557.00
694.9080, 54491.00
696.0650, 54927.00
697.2210, 54673.00
698.3770, 55085.00
699.5330, 54804.00
700.6880, 54884.00
701.8440, 54825.00
702.9990, 54683.00
704.1550, 54704.00
705.3100, 54231.00
706.4650, 53745.00
707.6190, 53377.00
708.7740, 53129.00
709.9290, 52438.00
711.0830, 52233.00
712.2370, 50978.00
713.3910, 50607.00
714.5450, 49876.00
715.6980, 49215.00
716.8520, 48587.00
718.0050, 47474.00
719.1580, 46518.00
720.3110, 46028.00
721.4640, 44881.00
722.6170, 44043.00
723.7700, 42590.00
724.9220, 41949.00
726.0740, 41312.00
727.2260, 40187.00
728.3780, 39331.00
729.5300, 38537.00
730.6810, 37736.00
731.8330, 36885.00
732.9840, 36219.12
734.1350, 35529.33
735.2860, 35002.00
736.4370, 34406.00
737.5880, 34065.00
738.7380, 33766.00
739.8880, 33082.00
741.0390, 32864.00
742.1890, 32749.00
743.3380, 32175.00
744.4880, 31898.00
745.6380, 31687.00
746.7870, 31296.00
747.9360, 31348.00
749.0850, 30853.00
750.2340, 30632.00
751.3830, 30473.00
752.5310, 29970.00
753.6800, 29878.00
754.8280, 29420.00
755.9760, 29301.00
757.1240, 29030.00
758.2720, 28357.00
759.4190, 28243.00
760.5670, 27870.00
761.7140, 27596.00
762.8610, 27206.00
764.0080, 27124.00
765.1550, 26713.00
766.3020, 26359.00
767.4480, 26397.00
768.5950, 26245.00
769.7410, 25653.00
770.8870, 25645.00
772.0330, 25436.00
773.1780, 25376.00
774.3240, 25244.00
775.4690, 25169.00
776.6140, 25145.00
777.7590, 24859.00
778.9040, 24785.00
780.0490, 24699.00
781.1940, 24772.00
782.3380, 24556.00
783.4820, 24309.00
784.6260, 24196.00
785.7700, 23884.00
786.9140, 23780.00
788.0580, 23749.00
789.2010, 23524.00
790.3450, 23316.00
791.4880, 22953.00
792.6310, 22867.00
793.7730, 22579.00
794.9160, 22377.00
796.0590, 22112.00
797.2010, 21916.00
798.3430, 21748.69
799.4850, 21657.00
800.6270, 21456.00
801.7690, 21222.00
802.9100, 21086.00
804.0520, 20831.00
805.1930, 20605.00
806.3340, 20711.00
807.4750, 20639.00
808.6160, 20423.00
809.7560, 20351.00
810.8970, 20401.00
812.0370, 20139.00
813.1770, 20133.00
814.3170, 19913.00
815.4570, 19876.00
816.5960, 19827.00
817.7360, 19822.00
818.8750, 19763.00
820.0140, 19693.00
821.1530, 19535.00
822.2920, 19629.00
823.4310, 19255.00
824.5690, 19530.00
825.7070, 19402.00
826.8460, 19373.00
827.9840, 19464.00
829.1220, 19293.00
830.2590, 19380.00
831.3970, 19439.00
832.5340, 19367.00
833.6710, 19280.00
834.8080, 19375.00
835.9450, 19323.00
837.0820, 19374.00
838.2190, 19209.00
839.3550, 19354.00
840.4910, 19324.90
841.6270, 19302.53
842.7630, 19373.00
843.8990, 19344.00
845.0350, 19334.00
846.1700, 19463.00
847.3060, 19396.00
848.4410, 19458.00
849.5760, 19465.00
850.7100, 19523.00
851.8450, 19422.00
852.9800, 19417.00
854.1140, 19760.00
855.2480, 19659.00
856.3820, 19618.00
857.5160, 19911.00
858.6500, 19804.00
859.7830, 19736.00
860.9170, 20029.00
862.0500, 19923.00
863.1830, 20125.00
864.3160, 20122.00
865.4480, 20229.00
866.5810, 20376.00
867.7130, 20369.00
868.8460, 20600.00
869.9780, 20666.00
871.1100, 20683.00
872.2410, 20939.00
873.3730, 21055.00
874.5050, 21223.00
875.6360, 21478.00
876.7670, 21425.00
877.8980, 21738.00
879.0290, 22095.00
880.1590, 21993.42
881.2900, 22186.00
882.4200, 22085.00
883.5500, 22290.00
884.6800, 22618.00
885.8100, 22678.00
886.9400, 22654.00
888.0690, 22814.00
889.1990, 23221.00
890.3280, 23562.00
891.4570, 23531.00
892.5860, 23946.00
893.7140, 24079.00
894.8430, 24031.00
895.9710, 24500.00
897.1000, 24601.00
898.2280, 24978.00
899.3560, 25068.00
900.4830, 25486.00
901.6110, 25623.00
902.7380, 25690.00
903.8660, 25849.00
904.9930, 26105.00
906.1200, 26375.00
907.2460, 26373.00
908.3730, 26731.00
909.5000, 26771.38
910.6260, 27081.00
911.7520, 26997.00
912.8780, 27183.00
914.0040, 27409.00
915.1290, 27497.00
916.2550, 27512.00
917.3800, 27588.00
918.5050, 27649.00
919.6300, 27749.00
920.7550, 27696.08
921.8800, 27547.00
923.0040, 27639.00
924.1290, 27425.00
925.2530, 27509.00
926.3770, 27553.00
927.5010, 27515.00
928.6250, 27373.00
929.7480, 27222.00
930.8720, 27109.00
931.9950, 26918.00
933.1180, 26532.00
934.2410, 26188.00
935.3640, 26124.00
936.4860, 25705.00
937.6090, 25523.00
938.7310, 25415.00
939.8530, 24844.00
940.9750, 24604.00
942.0970, 24408.00
943.2180, 24344.00
944.3400, 24153.00
945.4610, 24011.28
946.5820, 23566.00
947.7030, 23596.00
948.8240, 23383.00
949.9450, 22943.00
951.0650, 22948.00
952.1860, 22790.00
953.3060, 22592.00
954.4260, 22423.00
955.5460, 22235.00
956.6650, 21995.00
957.7850, 21826.00
958.9040, 21576.00
960.0230, 21488.00
961.1420, 21417.00
962.2610, 21268.47
963.3800, 21138.00
964.4990, 21051.00
965.6170, 21047.00
966.7350, 20891.00
967.8530, 20769.00
968.9710, 20897.00
970.0890, 20653.00
971.2070, 20741.00
972.3240, 20599.00
973.4410, 20689.00
974.5580, 20518.00
975.6750, 20757.00
976.7920, 20766.00
977.9090, 20599.00
979.0250, 20569.00
980.1410, 20724.00
981.2580, 20702.00
982.3740, 20812.00
983.4890, 20889.00
984.6050, 20574.00
985.7200, 20945.00
986.8360, 20863.37
987.9510, 21133.00
989.0660, 21027.00
990.1810, 21114.00
991.2950, 21243.00
992.4100, 21246.00
993.5240, 21384.00
994.6390, 21547.00
995.7530, 21519.00
996.8660, 21775.00
997.9800, 21892.78
999.0940, 22287.00
1000.207, 22289.00
1001.320, 22530.00
1002.433, 22821.00
1003.546, 22790.00
1004.659, 22929.00
1005.772, 23221.00
1006.884, 23406.00
1007.996, 23640.35
1009.108, 23911.66
1010.220, 24099.00
1011.332, 24442.00
1012.444, 24641.00
1013.555, 24902.00
1014.666, 25320.00
1015.777, 25308.00
1016.888, 25697.00
1017.999, 26030.00
1019.110, 26128.00
1020.220, 26364.00
1021.331, 26709.00
1022.441, 26966.00
1023.551, 26903.00
1024.661, 26991.00
1025.770, 27134.00
1026.880, 26904.00
1027.989, 26988.00
1029.098, 26685.00
1030.207, 26536.00
1031.316, 26574.00
1032.425, 26517.00
1033.533, 26492.00
1034.642, 26079.00
1035.750, 25910.00
1036.858, 25656.00
1037.966, 25602.00
1039.073, 25227.00
1040.181, 25005.00
1041.288, 24611.00
1042.396, 24494.00
1043.503, 24179.00
1044.610, 24236.00
1045.716, 23802.00
1046.823, 23854.00
1047.929, 23425.00
1049.036, 23562.00
1050.142, 23405.00
1051.248, 23343.00
1052.353, 23023.00
1053.459, 23124.00
1054.564, 23028.00
1055.670, 22767.00
1056.775, 22876.00
1057.880, 22669.00
1058.985, 22622.00
1060.089, 22737.00
1061.194, 22746.00
1062.298, 22591.00
1063.402, 22773.00
1064.506, 22700.00
1065.610, 22830.00
1066.713, 22807.00
1067.817, 22778.00
1068.920, 22749.00
1070.023, 22849.00
1071.126, 22821.00
1072.229, 22831.00
1073.332, 22788.00
1074.435, 22751.00
1075.537, 22752.00
1076.639, 22709.10
1077.741, 22660.36
1078.843, 22670.00
1079.945, 22550.00
1081.046, 22557.00
1082.148, 22522.00
1083.249, 22572.00
1084.350, 22466.00
1085.451, 22411.00
1086.551, 22279.00
1087.652, 22118.68
1088.752, 22217.58
1089.853, 22240.02
1090.953, 22190.27
1092.053, 21851.76
1093.152, 21886.18
1094.252, 21771.11
1095.351, 21649.98
1096.451, 21736.81
1097.550, 21440.37
1098.649, 21523.97
1099.748, 21455.87
1100.846, 21457.27
1101.945, 21308.25
1103.043, 21249.00
1104.141, 21289.00
1105.239, 21114.00
1106.337, 21190.00
1107.434, 21177.00
1108.532, 20981.00
1109.629, 21071.00
1110.726, 20927.00
1111.823, 20927.00
1112.920, 21091.00
1114.017, 20959.00
1115.113, 20903.00
1116.210, 20995.00
1117.306, 20994.00
1118.402, 20948.00
1119.498, 20870.00
1120.593, 20888.00
1121.689, 20901.00
1122.784, 21114.00
1123.879, 20815.00
1124.974, 21021.00
1126.069, 20927.00
1127.164, 20837.00
1128.259, 20842.00
1129.353, 20840.00
1130.447, 20831.00
1131.541, 20750.00
1132.635, 20716.00
1133.729, 20722.00
1134.822, 20784.00
1135.916, 20676.00
1137.009, 20803.00
1138.102, 20882.00
1139.195, 20811.00
1140.288, 20768.00
1141.380, 20818.00
1142.473, 20884.00
1143.565, 20846.00
1144.657, 20862.00
1145.749, 20813.00
1146.841, 20814.00
1147.932, 20841.00
1149.024, 20781.00
1150.115, 20826.10
1151.206, 20792.00
1152.297, 20863.00
1153.388, 20872.00
1154.479, 20866.00
1155.569, 20719.00
1156.659, 20756.88
1157.750, 20740.39
1158.839, 20765.00
1159.929, 20831.00
1161.019, 20918.00
1162.108, 21071.00
1163.198, 21030.00
1164.287, 21152.29
1165.376, 21101.64
1166.465, 21230.00
1167.553, 21034.00
1168.642, 20923.00
1169.730, 20980.00
1170.818, 20891.00
1171.906, 21105.00
1172.994, 21006.00
1174.082, 21113.00
1175.170, 21138.00
1176.257, 20854.00
1177.344, 20847.00
1178.431, 20907.00
1179.518, 21145.00
1180.605, 21089.00
1181.691, 21027.00
1182.778, 21091.00
1183.864, 21071.00
1184.950, 21159.00
1186.036, 21180.00
1187.122, 21227.00
1188.207, 21247.72
1189.292, 21228.00
1190.378, 21280.00
1191.463, 21369.00
1192.548, 21426.87
1193.632, 21029.00
1194.717, 21439.00
1195.801, 21280.00
1196.886, 21108.00
1197.970, 21287.00
1199.054, 21147.00
1200.137, 21513.00
1201.221, 21178.00
1202.305, 21254.00
1203.388, 21177.00
1204.471, 21317.00
1205.554, 21414.00
1206.637, 21400.30
1207.719, 21559.00
1208.802, 21517.00
1209.884, 21368.00
1210.966, 21562.00
1212.048, 21425.00
1213.130, 21536.00
1214.212, 21693.00
1215.293, 21540.00
1216.374, 21486.00
1217.456, 21673.00
1218.536, 21563.00
1219.617, 21661.00
1220.698, 21542.00
1221.778, 21505.00
1222.859, 21677.00
1223.939, 21706.00
1225.019, 21577.00
1226.099, 21760.00
1227.178, 21343.04
1228.258, 21552.29
1229.337, 21685.13
1230.417, 21745.73
1231.496, 21517.54
1232.574, 21662.18
1233.653, 21657.43
1234.732, 21646.56
1235.810, 21843.68
1236.888, 21657.45
1237.966, 21851.27
1239.044, 21893.39
1240.122, 22004.93
1241.199, 21966.10
1242.277, 21973.74
1243.354, 22131.74
1244.431, 22135.00
1245.508, 21875.00
1246.585, 21984.00
1247.661, 21903.00
1248.738, 22032.00
1249.814, 21978.00
1250.890, 22016.66
1251.966, 22220.00
1253.042, 22027.00
1254.117, 22105.00
1255.193, 22010.00
1256.268, 22114.00
1257.343, 21919.00
1258.418, 22168.00
1259.493, 21990.00
1260.567, 22109.00
1261.642, 22262.00
1262.716, 22044.00
1263.790, 22323.00
1264.864, 22409.00
1265.938, 22260.00
1267.011, 22358.00
1268.085, 22199.00
1269.158, 22343.00
1270.231, 22218.00
1271.304, 22363.00
1272.377, 22438.00
1273.450, 22394.00
1274.522, 22389.00
1275.594, 22563.00
1276.666, 22554.00
1277.738, 22553.59
1278.810, 22555.39
1279.882, 22477.00
1280.953, 22465.00
1282.025, 22395.00
1283.096, 22389.00
1284.167, 22361.00
1285.238, 22445.00
1286.308, 22362.00
1287.379, 22488.00
1288.449, 22446.00
1289.519, 22472.25
1290.589, 22548.83
1291.659, 22553.00
1292.729, 22577.00
1293.798, 22700.00
1294.868, 22519.00
1295.937, 22672.00
1297.006, 22702.00
1298.075, 22663.00
1299.143, 22564.00
1300.212, 22680.00
1301.280, 22728.00
1302.348, 22840.00
1303.416, 22861.19
1304.484, 22874.32
1305.552, 22875.00
1306.620, 22860.00
1307.687, 22813.00
1308.754, 22822.00
1309.821, 22920.00
1310.888, 22800.00
1311.955, 22974.00
1313.021, 22923.00
1314.088, 23004.00
1315.154, 22965.00
1316.220, 23066.00
1317.286, 23116.42
1318.352, 23097.97
1319.417, 23206.00
1320.483, 23095.00
1321.548, 23001.00
1322.613, 23009.67
1323.678, 23078.00
1324.743, 23038.00
1325.807, 23074.00
1326.872, 23080.00
1327.936, 23064.00
1329.000, 23273.00
1330.064, 23127.00
1331.128, 23127.00
1332.191, 23190.00
1333.255, 23039.00
1334.318, 23032.00
1335.381, 23124.00
1336.444, 23235.00
1337.507, 23253.00
1338.569, 23167.00
1339.632, 23238.30
1340.694, 23075.00
1341.756, 23280.00
1342.818, 23153.00
1343.880, 23215.00
1344.941, 23276.00
1346.003, 23403.00
1347.064, 23301.00
1348.125, 23367.00
1349.186, 23418.78
1350.247, 23242.00
1351.308, 23398.00
1352.368, 23519.00
1353.428, 23225.00
1354.489, 23364.00
1355.549, 23453.00
1356.608, 23510.00
1357.668, 23390.00
1358.727, 23562.00
1359.787, 23338.00
1360.846, 23452.00
1361.905, 23284.00
1362.964, 23587.00
1364.022, 23552.00
1365.081, 23605.00
1366.139, 23400.00
1367.197, 23564.00
1368.255, 23471.00
1369.313, 23474.00
1370.371, 23479.00
1371.428, 23738.00
1372.486, 23670.00
1373.543, 23784.00
1374.600, 23821.00
1375.657, 23698.00
1376.713, 23797.00
1377.770, 23684.00
1378.826, 23696.40
1379.882, 23709.42
1380.938, 23676.00
1381.994, 23726.00
1383.050, 23689.46
1384.106, 23709.58
1385.161, 23791.00
1386.216, 23758.00
1387.271, 23938.00
1388.326, 23739.00
1389.381, 23864.00
1390.435, 23881.00
1391.490, 23817.00
1392.544, 24033.00
1393.598, 23909.00
1394.652, 23907.00
1395.705, 24012.00
1396.759, 23941.00
1397.812, 24061.00
1398.866, 23909.00
1399.919, 23892.00
1400.972, 23945.00
1402.024, 23961.00
1403.077, 24013.46
1404.129, 24031.00
1405.181, 24104.00
1406.233, 24232.00
1407.285, 24211.00
1408.337, 24292.00
1409.389, 24332.00
1410.440, 24100.00
1411.491, 24215.00
1412.542, 24231.00
1413.593, 24203.00
1414.644, 24388.00
1415.695, 24265.00
1416.745, 24474.00
1417.795, 24185.00
1418.845, 24413.00
1419.895, 24300.00
1420.945, 24442.00
1421.995, 24432.00
1423.044, 24407.00
1424.093, 24419.00
1425.142, 24421.20
1426.191, 24459.71
1427.240, 24451.00
1428.289, 24569.00
1429.337, 24595.00
1430.385, 24665.00
1431.433, 24803.00
1432.481, 24885.00
1433.529, 24917.38
1434.577, 24856.00
1435.624, 24955.00
1436.672, 24951.47
1437.719, 24959.00
1438.766, 25213.00
1439.812, 25085.00
1440.859, 25462.00
1441.905, 25426.00
1442.952, 25264.00
1443.998, 25478.00
1445.044, 25610.00
1446.090, 25311.00
1447.135, 25464.00
1448.181, 25812.00
1449.226, 25648.00
1450.271, 25668.00
1451.316, 25850.00
1452.361, 25799.00
1453.405, 25695.00
1454.450, 25729.00
1455.494, 25771.00
1456.538, 25790.00
1457.582, 25684.00
1458.626, 25677.00
1459.670, 25651.00
1460.713, 25641.00
1461.757, 25611.45
1462.800, 25625.74
1463.843, 25585.00
1464.886, 25645.00
1465.928, 25713.00
1466.971, 25702.00
1468.013, 25764.00
1469.055, 25797.40
1470.097, 25794.44
1471.139, 25843.00
1472.181, 25819.00
1473.222, 25764.00
1474.263, 25813.00
1475.305, 25791.00
1476.346, 25875.00
1477.386, 25733.00
1478.427, 25774.61
1479.468, 25846.00
1480.508, 25862.00
1481.548, 25918.79
1482.588, 25960.00
1483.628, 25953.00
1484.668, 25816.00
1485.707, 25701.00
1486.747, 25730.00
1487.786, 25774.00
1488.825, 25658.00
1489.864, 25669.00
1490.902, 25939.00
1491.941, 25726.00
1492.979, 25747.00
1494.017, 25597.00
1495.055, 25735.00
1496.093, 25763.00
1497.131, 25589.00
1498.168, 25963.00
1499.206, 25846.00
1500.243, 25944.00
1501.280, 26112.00
1502.317, 25917.00
1503.354, 25975.43
1504.390, 25852.00
1505.426, 25758.00
1506.463, 25801.75
1507.499, 25752.82
1508.535, 25919.00
1509.570, 25796.00
1510.606, 26029.00
1511.641, 26086.00
1512.676, 25877.00
1513.711, 26104.00
1514.746, 26156.00
1515.781, 26084.00
1516.816, 26166.00
1517.850, 25990.00
1518.884, 26258.00
1519.918, 26285.00
1520.952, 26088.00
1521.986, 26277.00
1523.019, 26236.00
1524.053, 26387.00
1525.086, 26280.00
1526.119, 26152.00
1527.152, 26184.00
1528.185, 26197.68
1529.217, 26328.00
1530.250, 26358.00
1531.282, 26330.00
1532.314, 26385.00
1533.346, 26433.00
1534.377, 26322.00
1535.409, 26288.00
1536.440, 26579.00
1537.472, 26361.00
1538.503, 26521.00
1539.534, 26336.44
1540.564, 26532.52
1541.595, 26652.24
1542.625, 26699.67
1543.656, 26458.38
1544.686, 26589.92
1545.716, 26572.03
1546.745, 26548.00
1547.775, 26732.01
1548.804, 26532.67
1549.834, 26713.39
1550.863, 26742.38
1551.892, 26840.80
1552.920, 26788.86
1553.949, 26783.37
1554.977, 26928.26
1556.006, 26989.89
1557.034, 26920.64
1558.062, 27023.45
1559.089, 26818.81
1560.117, 26829.00
1561.144, 26855.00
1562.172, 27008.00
1563.199, 26933.00
1564.226, 27086.00
1565.252, 27084.00
1566.279, 27009.00
1567.305, 27065.00
1568.332, 26974.00
1569.358, 27064.00
1570.384, 27134.00
##END=



