##NAMES=Astrophyllite
##RRUFFID=R060103
##IDEAL CHEMISTRY=K_2_NaFe^2+^_7_Ti^4+^_2_(Si_4_O_12_)_2_O_2_(OH)_4_F
##LOCALITY=Brivik, Norway
##OWNER=RRUFF
##SOURCE=University of Arizona Mineral Museum
##DESCRIPTION=Brown fragment embedded in matrix
##STATUS=The identification of this mineral is confirmed by single-crystal X-ray diffraction and chemical analysis.
##URL=rruff.info/R060103
##MEASURED CHEMISTRY=K_2.00_Na_1.00_(Fe^2+^_0.55_Mn_0.32_Fe^3+^_0.04_Mg_0.04_Ca_0.04_)_7_(Ti_0.66_Zr_0.18_Al_0.16_)_2_Si_8.00_O_26_(OH)_4_F_1.00_
##PIN_ID=L00382
##ORIENTATION=Laser parallel to b* (0 1 0). Fiducial mark perpendicular to laser is parallel to c [0 0 1]
80.65400, 12758.00
81.88700, 13367.00
83.11900, 13957.00
84.35200, 14334.00
85.58400, 14173.00
86.81600, 14447.00
88.04900, 14411.00
89.28100, 14838.00
90.51200, 15047.00
91.74400, 15454.00
92.97600, 15495.00
94.20700, 15290.00
95.43800, 14992.00
96.66900, 14900.65
97.90100, 14557.00
99.13100, 14418.00
100.3620, 14162.00
101.5930, 13710.00
102.8230, 13902.00
104.0530, 13737.00
105.2840, 13854.00
106.5140, 13924.00
107.7440, 13860.00
108.9730, 13596.00
110.2030, 13289.00
111.4320, 13180.00
112.6620, 13127.00
113.8910, 13205.00
115.1200, 13362.00
116.3490, 13266.00
117.5780, 13093.00
118.8060, 12767.00
120.0350, 13038.00
121.2630, 13092.00
122.4920, 13306.00
123.7200, 12961.00
124.9480, 12768.00
126.1750, 12609.00
127.4030, 12297.00
128.6310, 12410.00
129.8580, 12737.00
131.0850, 12597.00
132.3120, 12572.00
133.5390, 12772.00
134.7660, 12657.00
135.9930, 12687.00
137.2200, 12911.00
138.4460, 12886.00
139.6720, 12711.00
140.8980, 12586.00
142.1240, 12390.00
143.3500, 12376.00
144.5760, 12365.00
145.8020, 12322.00
147.0270, 12303.00
148.2520, 12282.00
149.4780, 12347.00
150.7030, 12473.00
151.9270, 12685.00
153.1520, 13004.00
154.3770, 13205.00
155.6010, 13686.00
156.8260, 14000.00
158.0500, 14360.00
159.2740, 15090.00
160.4980, 15431.00
161.7210, 16094.00
162.9450, 16693.00
164.1690, 17106.00
165.3920, 17553.00
166.6150, 18058.70
167.8380, 18629.00
169.0610, 18871.00
170.2840, 19171.00
171.5070, 19298.00
172.7290, 19336.00
173.9510, 18959.00
175.1740, 18226.00
176.3960, 17759.00
177.6180, 17167.00
178.8390, 16449.00
180.0610, 15951.00
181.2830, 15300.00
182.5040, 14656.00
183.7250, 14239.00
184.9460, 13666.00
186.1670, 13310.00
187.3880, 13025.00
188.6090, 12826.00
189.8290, 12511.00
191.0500, 12352.00
192.2700, 12202.00
193.4900, 12177.00
194.7100, 11985.00
195.9300, 12090.00
197.1490, 11894.00
198.3690, 12044.00
199.5880, 11983.00
200.8080, 11972.00
202.0270, 12022.00
203.2460, 12016.00
204.4650, 12147.00
205.6830, 12168.00
206.9020, 12227.48
208.1200, 12282.00
209.3380, 12334.00
210.5570, 12305.00
211.7750, 12342.00
212.9920, 12470.00
214.2100, 12476.00
215.4280, 12670.00
216.6450, 12575.00
217.8620, 12561.00
219.0790, 12595.00
220.2960, 12723.00
221.5130, 12522.00
222.7300, 12596.00
223.9460, 12511.00
225.1630, 12334.00
226.3790, 12454.00
227.5950, 12370.44
228.8110, 12288.33
230.0270, 12341.00
231.2430, 12158.00
232.4580, 12032.00
233.6740, 12044.00
234.8890, 12078.00
236.1040, 11898.00
237.3190, 11908.00
238.5340, 11763.00
239.7490, 11805.00
240.9630, 11663.00
242.1780, 11719.00
243.3920, 11641.00
244.6060, 11549.00
245.8200, 11440.00
247.0340, 11367.00
248.2470, 11408.00
249.4610, 11168.00
250.6740, 11299.00
251.8880, 11172.00
253.1010, 11100.00
254.3140, 11071.00
255.5270, 11064.00
256.7390, 10986.00
257.9520, 11008.73
259.1640, 11000.00
260.3760, 11026.00
261.5880, 11102.00
262.8000, 11121.00
264.0120, 11093.00
265.2240, 11222.00
266.4350, 11098.00
267.6470, 11235.00
268.8580, 10970.00
270.0690, 11128.00
271.2800, 11033.00
272.4910, 11053.00
273.7020, 11073.00
274.9120, 11000.00
276.1230, 10947.00
277.3330, 11032.00
278.5430, 11023.00
279.7530, 11004.00
280.9630, 11114.00
282.1720, 11000.00
283.3820, 11078.00
284.5910, 11043.00
285.8000, 11133.00
287.0090, 10991.00
288.2180, 11184.00
289.4270, 11105.00
290.6360, 11007.00
291.8440, 11209.00
293.0530, 11095.00
294.2610, 11075.00
295.4690, 11125.00
296.6770, 11058.00
297.8850, 11130.00
299.0920, 11222.00
300.3000, 11199.00
301.5070, 11099.00
302.7140, 11135.00
303.9210, 11018.00
305.1280, 10979.00
306.3350, 11083.00
307.5420, 11009.00
308.7480, 11037.00
309.9540, 11046.00
311.1600, 10972.00
312.3660, 11026.00
313.5720, 10899.00
314.7780, 11026.00
315.9840, 11075.00
317.1890, 11110.00
318.3940, 11077.00
319.6000, 10911.00
320.8050, 10946.00
322.0090, 11099.00
323.2140, 10938.00
324.4190, 11026.00
325.6230, 10957.00
326.8270, 10875.00
328.0320, 10960.76
329.2360, 11016.00
330.4390, 10952.00
331.6430, 11150.00
332.8470, 10933.00
334.0500, 11050.00
335.2530, 11027.00
336.4560, 11165.00
337.6590, 11335.00
338.8620, 11445.00
340.0650, 11297.00
341.2670, 11482.00
342.4700, 11436.00
343.6720, 11533.00
344.8740, 11539.00
346.0760, 11466.00
347.2780, 11411.00
348.4790, 11404.00
349.6810, 11361.00
350.8820, 11330.00
352.0830, 11203.58
353.2840, 11249.62
354.4850, 11254.33
355.6860, 11219.91
356.8870, 11029.22
358.0870, 11040.37
359.2870, 10970.65
360.4880, 10897.57
361.6880, 10937.12
362.8870, 10769.24
364.0870, 10726.00
365.2870, 10629.23
366.4860, 10690.23
367.6850, 10709.88
368.8850, 10690.39
370.0840, 10514.65
371.2820, 10540.74
372.4810, 10485.93
373.6800, 10427.80
374.8780, 10482.29
376.0760, 10329.30
377.2740, 10382.01
378.4720, 10352.61
379.6700, 10360.78
380.8680, 10287.58
382.0650, 10298.00
383.2630, 10276.00
384.4600, 10215.66
385.6570, 10089.00
386.8540, 10140.00
388.0510, 10045.00
389.2470, 10020.00
390.4440, 9873.000
391.6400, 9974.000
392.8360, 9973.000
394.0320, 9853.000
395.2280, 9804.000
396.4240, 9709.000
397.6190, 9694.000
398.8150, 9729.000
400.0100, 9686.000
401.2050, 9637.000
402.4000, 9617.000
403.5950, 9478.000
404.7900, 9404.000
405.9840, 9449.000
407.1790, 9229.000
408.3730, 9268.000
409.5670, 9296.000
410.7610, 9262.000
411.9550, 9137.000
413.1480, 9020.000
414.3420, 9154.000
415.5350, 9102.000
416.7280, 9168.000
417.9220, 9080.000
419.1140, 9089.000
420.3070, 8972.000
421.5000, 9169.000
422.6920, 9067.000
423.8850, 9058.000
425.0770, 9008.000
426.2690, 9034.000
427.4610, 9043.919
428.6520, 9098.000
429.8440, 9081.000
431.0350, 9069.000
432.2260, 9026.344
433.4180, 9007.000
434.6090, 9023.000
435.7990, 9023.000
436.9900, 9109.000
438.1800, 8981.000
439.3710, 9010.773
440.5610, 9121.953
441.7510, 9191.793
442.9410, 9222.515
444.1310, 9096.957
445.3200, 9129.000
446.5100, 9182.000
447.6990, 9229.000
448.8880, 9187.000
450.0770, 9261.000
451.2660, 9290.000
452.4550, 9382.000
453.6430, 9357.000
454.8320, 9426.000
456.0200, 9598.000
457.2080, 9504.000
458.3960, 9478.000
459.5840, 9525.000
460.7720, 9648.000
461.9590, 9622.000
463.1460, 9672.000
464.3340, 9751.000
465.5210, 9654.000
466.7080, 9664.263
467.8940, 9759.672
469.0810, 9813.743
470.2670, 9828.696
471.4540, 9687.371
472.6400, 9747.848
473.8260, 9772.000
475.0120, 9629.000
476.1970, 9674.000
477.3830, 9685.000
478.5680, 9593.000
479.7540, 9640.000
480.9390, 9609.000
482.1240, 9708.000
483.3080, 9645.000
484.4930, 9580.000
485.6780, 9584.000
486.8620, 9534.000
488.0460, 9676.000
489.2300, 9559.000
490.4140, 9692.000
491.5980, 9649.000
492.7810, 9583.000
493.9650, 9592.000
495.1480, 9629.000
496.3310, 9633.000
497.5140, 9657.934
498.6970, 9640.000
499.8800, 9650.000
501.0620, 9610.000
502.2440, 9496.000
503.4270, 9412.000
504.6090, 9583.000
505.7910, 9451.000
506.9720, 9562.000
508.1540, 9463.000
509.3350, 9598.000
510.5170, 9603.000
511.6980, 9595.000
512.8790, 9474.000
514.0600, 9589.000
515.2400, 9528.000
516.4210, 9461.000
517.6010, 9525.000
518.7810, 9574.000
519.9620, 9502.000
521.1410, 9524.000
522.3210, 9504.000
523.5010, 9689.000
524.6800, 9600.000
525.8600, 9626.000
527.0390, 9718.000
528.2180, 9645.000
529.3970, 9669.000
530.5750, 9620.000
531.7540, 9651.188
532.9320, 9800.000
534.1110, 9737.000
535.2890, 9829.000
536.4670, 9900.000
537.6440, 9876.000
538.8220, 9985.000
540.0000, 10062.00
541.1770, 10021.00
542.3540, 10172.00
543.5310, 10222.00
544.7080, 10543.00
545.8850, 10485.00
547.0610, 10730.00
548.2380, 10991.00
549.4140, 10989.00
550.5900, 11225.00
551.7660, 11248.00
552.9420, 11641.00
554.1170, 11645.00
555.2930, 11871.00
556.4680, 12050.00
557.6430, 12193.00
558.8180, 12164.00
559.9930, 12214.00
561.1680, 12182.00
562.3430, 12191.00
563.5170, 12017.00
564.6910, 11866.00
565.8650, 11821.00
567.0390, 11691.00
568.2130, 11606.00
569.3870, 11487.00
570.5600, 11335.00
571.7340, 11312.00
572.9070, 11201.00
574.0800, 11284.00
575.2530, 11192.00
576.4250, 11176.71
577.5980, 10987.00
578.7700, 11164.00
579.9430, 11106.00
581.1150, 11189.00
582.2870, 11281.00
583.4590, 11425.00
584.6300, 11465.00
585.8020, 11532.64
586.9730, 11461.00
588.1440, 11564.00
589.3150, 11623.00
590.4860, 11550.00
591.6570, 11971.00
592.8270, 11816.00
593.9980, 12015.00
595.1680, 12108.00
596.3380, 12085.00
597.5080, 12118.00
598.6780, 12255.00
599.8480, 12381.00
601.0170, 12410.00
602.1860, 12471.00
603.3550, 12508.00
604.5240, 12655.00
605.6930, 12710.00
606.8620, 12748.00
608.0310, 12797.00
609.1990, 12950.00
610.3670, 13017.00
611.5350, 13155.00
612.7030, 13244.84
613.8710, 13258.00
615.0390, 13395.00
616.2060, 13477.00
617.3730, 13486.00
618.5410, 13539.00
619.7080, 13755.00
620.8740, 14001.00
622.0410, 13960.00
623.2080, 14108.00
624.3740, 14162.00
625.5400, 14234.00
626.7060, 14435.00
627.8720, 14506.00
629.0380, 14705.00
630.2040, 14767.00
631.3690, 15136.00
632.5340, 15217.00
633.6990, 15384.00
634.8640, 15629.00
636.0290, 15673.00
637.1940, 15765.00
638.3580, 16128.00
639.5230, 16368.00
640.6870, 16563.00
641.8510, 16942.00
643.0150, 17263.00
644.1790, 17812.00
645.3420, 18247.00
646.5060, 18612.00
647.6690, 19016.00
648.8320, 19389.89
649.9950, 19905.00
651.1580, 20101.00
652.3200, 20487.00
653.4830, 20799.00
654.6450, 20692.00
655.8070, 20834.00
656.9690, 20693.00
658.1310, 20339.00
659.2930, 20247.00
660.4540, 19676.00
661.6160, 19697.00
662.7770, 19090.00
663.9380, 18903.00
665.0990, 18923.00
666.2600, 18927.00
667.4200, 18974.00
668.5810, 18937.00
669.7410, 19096.28
670.9010, 19194.74
672.0610, 19456.00
673.2210, 19591.00
674.3810, 19868.00
675.5400, 20238.27
676.6990, 20542.76
677.8590, 20934.63
679.0180, 21327.00
680.1760, 21682.00
681.3350, 22081.00
682.4940, 22516.99
683.6520, 22998.00
684.8100, 23428.00
685.9680, 23774.00
687.1260, 24244.00
688.2840, 24606.00
689.4420, 25040.00
690.5990, 25360.00
691.7560, 25672.00
692.9140, 26350.00
694.0710, 26529.00
695.2270, 27255.00
696.3840, 27310.00
697.5410, 27665.00
698.6970, 28083.00
699.8530, 28525.00
701.0090, 28700.00
702.1650, 29072.00
703.3210, 29382.00
704.4760, 29657.39
705.6320, 29965.41
706.7870, 30213.07
707.9420, 30401.86
709.0970, 30466.67
710.2520, 30606.45
711.4060, 30664.11
712.5610, 30682.86
713.7150, 30727.02
714.8690, 30748.00
716.0230, 30660.00
717.1770, 30546.12
718.3310, 30483.00
719.4840, 30119.00
720.6380, 29812.00
721.7910, 29449.00
722.9440, 29239.00
724.0970, 28774.00
725.2490, 28470.00
726.4020, 28027.00
727.5540, 27633.00
728.7070, 27173.00
729.8590, 26735.40
731.0110, 26152.00
732.1620, 25788.00
733.3140, 25409.00
734.4650, 24845.00
735.6170, 24457.00
736.7680, 24091.00
737.9190, 23738.00
739.0700, 23419.31
740.2200, 23025.00
741.3710, 22848.00
742.5210, 22463.00
743.6710, 22234.00
744.8210, 22081.00
745.9710, 21914.00
747.1210, 21771.00
748.2700, 21571.00
749.4200, 21469.00
750.5690, 21465.00
751.7180, 21321.00
752.8670, 21323.00
754.0160, 21416.00
755.1640, 21061.00
756.3130, 21090.00
757.4610, 21033.36
758.6090, 20842.36
759.7570, 20916.00
760.9050, 20643.00
762.0530, 20424.00
763.2000, 20414.00
764.3470, 20296.00
765.4940, 19986.00
766.6410, 20065.00
767.7880, 19920.00
768.9350, 19743.00
770.0810, 19889.00
771.2280, 19471.00
772.3740, 19451.00
773.5200, 19361.00
774.6660, 19287.00
775.8120, 19313.00
776.9570, 19149.00
778.1030, 19073.00
779.2480, 19055.00
780.3930, 19014.00
781.5380, 19016.00
782.6830, 18924.00
783.8270, 18919.00
784.9720, 18776.00
786.1160, 18641.00
787.2600, 18598.00
788.4040, 18419.00
789.5480, 18471.00
790.6910, 18278.00
791.8350, 18182.00
792.9780, 17957.00
794.1210, 17628.00
795.2640, 17572.00
796.4070, 17217.32
797.5500, 17213.00
798.6920, 16828.00
799.8350, 16603.00
800.9770, 16371.24
802.1190, 15981.00
803.2610, 15779.00
804.4030, 15663.00
805.5440, 15311.83
806.6850, 15172.00
807.8270, 15038.00
808.9680, 14844.00
810.1090, 14641.00
811.2490, 14407.00
812.3900, 14340.00
813.5300, 14242.31
814.6710, 14181.00
815.8110, 14109.00
816.9510, 13927.00
818.0910, 13686.00
819.2300, 13660.00
820.3700, 13462.00
821.5090, 13429.00
822.6480, 13385.00
823.7870, 13403.00
824.9260, 13097.00
826.0640, 13324.00
827.2030, 12985.00
828.3410, 13068.00
829.4790, 12886.13
830.6170, 12890.04
831.7550, 12870.99
832.8930, 12830.20
834.0310, 12702.59
835.1680, 12687.14
836.3050, 12626.76
837.4420, 12564.54
838.5790, 12564.87
839.7160, 12449.93
840.8520, 12449.31
841.9890, 12403.03
843.1250, 12377.67
844.2610, 12416.00
845.3970, 12178.00
846.5330, 12209.00
847.6680, 12301.00
848.8040, 12286.00
849.9390, 12287.82
851.0740, 12151.00
852.2090, 12187.00
853.3440, 12143.00
854.4780, 11999.00
855.6130, 11968.00
856.7470, 11989.68
857.8810, 12025.00
859.0150, 12088.00
860.1490, 12107.00
861.2830, 12145.00
862.4160, 12150.00
863.5490, 12157.00
864.6830, 12284.00
865.8160, 12196.00
866.9480, 12268.00
868.0810, 12130.00
869.2140, 12170.00
870.3460, 12184.00
871.4780, 12284.00
872.6100, 12430.00
873.7420, 12507.00
874.8740, 12385.00
876.0050, 12567.00
877.1370, 12396.00
878.2680, 12550.00
879.3990, 12560.00
880.5300, 12628.00
881.6600, 12724.00
882.7910, 12835.00
883.9210, 12831.00
885.0520, 12911.00
886.1820, 12851.00
887.3120, 13007.00
888.4410, 13112.00
889.5710, 13076.00
890.7000, 13047.00
891.8300, 13181.00
892.9590, 13211.00
894.0880, 13334.00
895.2160, 13327.00
896.3450, 13505.00
897.4730, 13473.00
898.6020, 13421.00
899.7300, 13503.00
900.8580, 13352.00
901.9860, 13641.00
903.1130, 13618.00
904.2410, 13637.00
905.3680, 13819.00
906.4950, 13844.00
907.6220, 13849.00
908.7490, 13900.00
909.8760, 13942.00
911.0020, 13822.00
912.1280, 13990.00
913.2550, 14107.00
914.3810, 14347.00
915.5060, 14254.00
916.6320, 14386.00
917.7580, 14285.00
918.8830, 14337.00
920.0080, 14492.00
921.1330, 14309.00
922.2580, 14515.00
923.3830, 14431.00
924.5070, 14261.00
925.6310, 14629.00
926.7560, 14523.00
927.8800, 14379.00
929.0040, 14413.00
930.1270, 14427.00
931.2510, 14305.00
932.3740, 14358.08
933.4970, 14186.00
934.6200, 14342.00
935.7430, 14283.00
936.8660, 14231.00
937.9890, 14243.00
939.1110, 14273.00
940.2330, 14319.00
941.3550, 14327.01
942.4770, 14274.00
943.5990, 14325.00
944.7200, 14351.00
945.8420, 14273.00
946.9630, 14374.00
948.0840, 14328.00
949.2050, 14305.00
950.3260, 14426.00
951.4460, 14197.00
952.5670, 14091.00
953.6870, 14316.00
954.8070, 14179.00
955.9270, 14252.00
957.0470, 14208.00
958.1660, 14221.00
959.2860, 14024.00
960.4050, 13962.00
961.5240, 14090.00
962.6430, 13899.00
963.7620, 13947.00
964.8810, 13832.00
965.9990, 14020.00
967.1170, 14042.00
968.2350, 13923.00
969.3530, 13822.00
970.4710, 13991.00
971.5890, 13929.00
972.7060, 13991.00
973.8240, 13964.00
974.9410, 14010.00
976.0580, 14058.00
977.1740, 14044.00
978.2910, 14133.00
979.4080, 14055.00
980.5240, 14188.00
981.6400, 14255.00
982.7560, 14326.00
983.8720, 14258.00
984.9870, 14483.00
986.1030, 14564.00
987.2180, 14617.00
988.3330, 14965.00
989.4480, 14889.00
990.5630, 15249.00
991.6780, 15464.00
992.7920, 15633.00
993.9070, 15930.00
995.0210, 15849.00
996.1350, 16310.00
997.2490, 16576.00
998.3620, 16865.00
999.4760, 17305.00
1000.589, 17473.00
1001.702, 17993.00
1002.815, 18241.00
1003.928, 18675.00
1005.041, 19118.00
1006.153, 19646.00
1007.266, 20327.00
1008.378, 20764.00
1009.490, 21423.00
1010.602, 22083.00
1011.713, 23005.00
1012.825, 23795.00
1013.936, 24524.00
1015.047, 25596.00
1016.158, 26516.22
1017.269, 27719.00
1018.380, 28673.00
1019.490, 29682.00
1020.601, 30874.00
1021.711, 31827.00
1022.821, 32906.00
1023.931, 33905.00
1025.040, 34607.00
1026.150, 35251.00
1027.259, 35906.00
1028.368, 36649.00
1029.477, 36932.00
1030.586, 37428.00
1031.695, 37649.00
1032.803, 37520.00
1033.912, 37815.00
1035.020, 37620.00
1036.128, 37074.00
1037.236, 36353.00
1038.343, 35999.00
1039.451, 35237.00
1040.558, 34321.00
1041.665, 33625.00
1042.772, 32482.00
1043.879, 31277.00
1044.986, 30178.00
1046.093, 29025.00
1047.199, 27892.43
1048.305, 26780.00
1049.411, 25725.00
1050.517, 24770.00
1051.623, 23862.00
1052.728, 22871.00
1053.833, 22119.00
1054.939, 21411.00
1056.044, 20701.00
1057.148, 20166.00
1058.253, 19615.84
1059.358, 19026.00
1060.462, 18725.00
1061.566, 18342.00
1062.670, 17991.00
1063.774, 17608.00
1064.878, 17364.00
1065.981, 17298.00
1067.085, 17038.74
1068.188, 16870.29
1069.291, 16789.00
1070.394, 16493.00
1071.496, 16459.00
1072.599, 16305.00
1073.701, 16182.00
1074.803, 16037.00
1075.905, 16182.00
1077.007, 15948.00
1078.109, 15951.00
1079.210, 15595.00
1080.312, 15711.00
1081.413, 15712.00
1082.514, 15499.00
1083.615, 15496.00
1084.715, 15379.00
1085.816, 15244.00
1086.916, 15200.25
1088.016, 15155.00
1089.116, 15125.00
1090.216, 14973.00
1091.316, 15107.00
1092.415, 14821.00
1093.515, 14794.00
1094.614, 14892.00
1095.713, 14883.00
1096.812, 14736.00
1097.910, 14715.00
1099.009, 14600.00
1100.107, 14407.00
1101.205, 14437.00
1102.303, 14131.00
1103.401, 14387.00
1104.499, 14163.33
1105.596, 14289.00
1106.693, 13910.00
1107.791, 13839.00
1108.888, 13676.00
1109.984, 13613.00
1111.081, 13508.51
1112.177, 13405.00
1113.274, 13336.00
1114.370, 13305.00
1115.466, 13243.00
1116.562, 13115.00
1117.657, 13233.00
1118.753, 12990.00
1119.848, 12888.00
1120.943, 13093.00
1122.038, 12990.00
1123.133, 12922.00
1124.228, 12846.00
1125.322, 12905.00
1126.416, 12757.00
1127.510, 12960.00
1128.604, 12757.00
1129.698, 12732.00
1130.792, 12884.00
1131.885, 12871.00
1132.978, 12824.00
1134.071, 12743.00
1135.164, 12666.00
1136.257, 12790.00
1137.350, 12613.00
1138.442, 12817.00
1139.534, 12723.00
1140.627, 12723.00
1141.718, 12737.00
1142.810, 12718.00
1143.902, 12701.00
1144.993, 12606.00
1146.084, 12687.00
1147.176, 12787.00
1148.266, 12663.00
1149.357, 12790.00
1150.448, 12715.00
1151.538, 12744.00
1152.628, 12653.00
1153.718, 12661.67
1154.808, 12717.00
1155.898, 12648.00
1156.988, 12656.00
1158.077, 12636.43
1159.166, 12665.69
1160.255, 12788.00
1161.344, 12704.00
1162.433, 12750.00
1163.521, 12648.00
1164.610, 12708.00
1165.698, 12712.00
1166.786, 12730.04
1167.874, 12811.79
1168.961, 12815.00
1170.049, 12904.00
1171.136, 12935.00
1172.224, 12840.00
1173.311, 12900.00
1174.397, 12894.00
1175.484, 12936.00
1176.571, 12844.00
1177.657, 12849.00
1178.743, 12886.00
1179.829, 12882.00
1180.915, 13008.00
1182.001, 13000.00
1183.086, 12935.00
1184.171, 12750.00
1185.256, 12902.00
1186.341, 12829.00
1187.426, 12846.00
1188.511, 12859.00
1189.595, 12862.18
1190.680, 12923.00
1191.764, 12945.00
1192.848, 12934.00
1193.932, 13021.00
1195.015, 12861.00
1196.099, 12944.80
1197.182, 12963.00
1198.265, 12966.00
1199.348, 13046.00
1200.431, 13001.00
1201.513, 12884.00
1202.596, 12868.00
1203.678, 12947.00
1204.760, 13047.00
1205.842, 13197.00
1206.924, 13096.00
1208.005, 13098.00
1209.087, 12915.00
1210.168, 13011.00
1211.249, 13081.00
1212.330, 13069.00
1213.411, 13045.00
1214.491, 13068.00
1215.572, 13044.43
1216.652, 12958.00
1217.732, 13018.00
1218.812, 13049.00
1219.891, 13026.00
1220.971, 13118.00
1222.050, 13039.00
1223.129, 13192.00
1224.208, 13081.00
1225.287, 13144.00
1226.366, 13220.00
1227.444, 13085.00
1228.523, 13208.00
1229.601, 13232.00
1230.679, 13232.00
1231.757, 13193.00
1232.834, 13188.00
1233.912, 13232.00
1234.989, 13239.00
1236.066, 13254.40
1237.143, 13265.00
1238.220, 13240.00
1239.297, 13252.00
1240.373, 13248.46
1241.449, 13327.00
1242.526, 13263.00
1243.601, 13251.00
1244.677, 13284.00
1245.753, 13200.64
1246.828, 13257.00
1247.904, 13123.00
1248.979, 13325.00
1250.054, 13392.00
1251.128, 13256.00
1252.203, 13321.00
1253.277, 13310.00
1254.351, 13413.00
1255.426, 13494.00
1256.499, 13475.00
1257.573, 13362.00
1258.647, 13395.00
1259.720, 13473.00
1260.793, 13534.00
1261.866, 13433.00
1262.939, 13272.00
1264.012, 13477.00
1265.084, 13468.00
1266.157, 13342.00
1267.229, 13483.00
1268.301, 13508.00
1269.373, 13499.00
1270.444, 13651.00
1271.516, 13443.00
1272.587, 13458.00
1273.658, 13391.00
1274.729, 13637.00
1275.800, 13531.00
1276.871, 13505.00
1277.941, 13468.00
1279.011, 13481.00
1280.082, 13476.42
1281.151, 13474.57
1282.221, 13553.00
1283.291, 13487.00
1284.360, 13621.00
1285.430, 13637.00
1286.499, 13613.00
1287.568, 13548.00
1288.636, 13612.00
1289.705, 13562.00
1290.773, 13627.00
1291.841, 13743.00
1292.909, 13620.00
1293.977, 13764.00
1295.045, 13603.33
1296.113, 13663.62
1297.180, 13700.93
1298.247, 13716.52
1299.314, 13645.28
1300.381, 13686.16
1301.448, 13682.10
1302.514, 13676.20
1303.580, 13732.85
1304.647, 13674.24
1305.713, 13729.89
1306.778, 13739.93
1307.844, 13770.84
1308.910, 13781.00
1309.975, 13768.58
1311.040, 13790.00
1312.105, 13786.00
1313.170, 13808.82
1314.234, 13910.00
1315.299, 13836.00
1316.363, 13894.00
1317.427, 13862.00
1318.491, 13851.00
1319.555, 13869.77
1320.618, 13872.00
1321.682, 13870.00
1322.745, 13879.10
1323.808, 13867.50
1324.871, 13802.00
1325.933, 13890.83
1326.996, 13941.83
1328.058, 13969.86
1329.121, 13976.16
1330.183, 13895.64
1331.244, 13927.23
1332.306, 13913.90
1333.368, 13898.72
1334.429, 13946.09
1335.490, 13878.20
1336.551, 13924.58
1337.612, 13925.34
1338.672, 13907.00
1339.733, 13968.00
1340.793, 14012.00
1341.853, 13988.00
1342.913, 13881.00
1343.973, 14004.00
1345.033, 13916.54
1346.092, 13972.67
1347.151, 14005.84
1348.210, 14017.27
1349.269, 13941.88
1350.328, 13978.60
1351.386, 13970.39
1352.445, 13960.34
1353.503, 14012.84
1354.561, 14089.00
1355.619, 14103.00
1356.677, 14119.00
1357.734, 14023.00
1358.791, 14070.00
1359.849, 13999.00
1360.906, 14122.00
1361.962, 14136.00
1363.019, 14106.00
1364.075, 14107.00
1365.132, 14091.00
1366.188, 14132.00
1367.244, 14140.13
1368.300, 14060.00
1369.355, 14196.00
1370.411, 14109.00
1371.466, 14133.00
1372.521, 14153.00
1373.576, 14171.00
1374.631, 14090.00
1375.685, 14096.00
1376.740, 14112.00
1377.794, 14164.00
1378.848, 14125.00
1379.902, 14174.00
1380.955, 14188.74
1382.009, 14205.14
1383.062, 14230.00
1384.115, 14252.00
1385.168, 14259.00
1386.221, 14257.00
1387.274, 14336.00
1388.326, 14379.00
1389.379, 14269.00
1390.431, 14447.00
1391.483, 14172.00
1392.534, 14383.00
1393.586, 14289.00
1394.637, 14243.00
1395.689, 14346.00
1396.740, 14297.00
1397.791, 14364.00
1398.841, 14379.00
1399.892, 14424.00
1400.942, 14427.23
1401.993, 14434.00
1403.043, 14408.00
1404.092, 14434.00
1405.142, 14405.00
1406.192, 14433.00
1407.241, 14320.00
1408.290, 14356.00
1409.339, 14349.00
1410.388, 14556.00
1411.437, 14524.00
1412.485, 14509.00
1413.533, 14340.00
1414.581, 14620.00
1415.629, 14481.00
1416.677, 14558.00
1417.725, 14513.00
1418.772, 14605.00
1419.819, 14646.00
1420.867, 14657.00
1421.913, 14571.00
1422.960, 14572.00
1424.007, 14663.00
1425.053, 14709.00
1426.099, 14738.00
1427.145, 14798.00
1428.191, 14881.00
1429.237, 14832.00
1430.282, 14697.00
1431.328, 14960.00
1432.373, 14875.00
1433.418, 14846.00
1434.462, 14950.00
1435.507, 15163.00
1436.552, 15105.00
1437.596, 15178.00
1438.640, 15220.00
1439.684, 15245.00
1440.728, 15337.00
1441.771, 15251.00
1442.815, 15185.00
1443.858, 15238.00
1444.901, 15367.00
1445.944, 15378.00
1446.986, 15239.00
1448.029, 15430.00
1449.071, 15277.00
1450.113, 15362.00
1451.155, 15302.00
1452.197, 15330.00
1453.239, 15417.00
1454.280, 15232.00
1455.322, 15337.00
1456.363, 15244.00
1457.404, 15366.00
1458.444, 15385.00
1459.485, 15181.00
1460.525, 15161.00
1461.566, 15308.00
1462.606, 15212.00
1463.646, 15141.00
1464.685, 15100.00
1465.725, 15226.00
1466.764, 15215.00
1467.803, 15212.00
1468.842, 15149.00
1469.881, 15114.00
1470.920, 15038.00
1471.958, 15107.00
1472.997, 15038.57
1474.035, 15106.00
1475.073, 14996.00
1476.111, 14990.00
1477.148, 14997.00
1478.186, 15014.00
1479.223, 15132.00
1480.260, 15140.00
1481.297, 15264.00
1482.334, 15101.00
1483.370, 15025.00
1484.407, 15184.00
1485.443, 15096.00
1486.479, 15103.00
1487.515, 15207.00
1488.550, 15041.00
1489.586, 15099.00
1490.621, 15129.00
1491.656, 15049.00
1492.691, 15104.00
1493.726, 15142.00
1494.761, 15094.00
1495.795, 15033.00
1496.829, 15058.91
1497.863, 15194.00
1498.897, 15128.00
1499.931, 15073.00
1500.965, 15243.00
1501.998, 15179.00
1503.031, 15150.00
1504.064, 15339.00
1505.097, 15296.00
1506.130, 15168.00
1507.162, 15397.00
1508.195, 15258.00
1509.227, 15204.00
1510.259, 15282.00
1511.291, 15257.00
1512.322, 15277.00
1513.354, 15234.00
1514.385, 15280.00
1515.416, 15302.00
1516.447, 15230.00
1517.478, 15098.00
1518.508, 15386.00
1519.539, 15361.00
1520.569, 15545.00
1521.599, 15369.00
1522.629, 15338.00
1523.658, 15517.00
1524.688, 15294.00
1525.717, 15498.00
1526.746, 15565.00
1527.775, 15362.00
1528.804, 15468.00
1529.833, 15475.00
1530.861, 15582.00
1531.890, 15473.00
1532.918, 15456.00
1533.946, 15460.00
1534.973, 15472.00
1536.001, 15512.00
1537.028, 15350.00
1538.055, 15467.00
1539.082, 15333.00
1540.109, 15470.00
1541.136, 15415.00
1542.163, 15632.00
1543.189, 15618.00
1544.215, 15435.00
1545.241, 15470.00
1546.267, 15585.00
1547.292, 15519.00
1548.318, 15580.00
1549.343, 15602.67
1550.368, 15695.00
1551.393, 15656.00
1552.418, 15703.00
1553.442, 15758.00
1554.467, 15801.00
1555.491, 15762.00
1556.515, 15689.00
1557.539, 15657.00
1558.562, 15757.00
1559.586, 15766.00
1560.609, 15751.00
1561.632, 15797.00
1562.655, 15570.00
1563.678, 15790.00
1564.701, 15592.94
1565.723, 15662.68
1566.745, 15709.45
1567.768, 15734.50
1568.789, 15672.71
1569.811, 15723.04
1570.833, 15728.44
1571.854, 15731.98
1572.875, 15798.07
1573.896, 15748.90
1574.917, 15814.00
1575.938, 15881.00
1576.958, 15907.00
##END=



