##NAMES=Astrophyllite
##RRUFFID=R060103
##IDEAL CHEMISTRY=K_2_NaFe^2+^_7_Ti^4+^_2_(Si_4_O_12_)_2_O_2_(OH)_4_F
##LOCALITY=Brivik, Norway
##OWNER=RRUFF
##SOURCE=University of Arizona Mineral Museum
##DESCRIPTION=Brown fragment embedded in matrix
##STATUS=The identification of this mineral is confirmed by single-crystal X-ray diffraction and chemical analysis.
##URL=rruff.info/R060103
##MEASURED CHEMISTRY=K_2.00_Na_1.00_(Fe^2+^_0.55_Mn_0.32_Fe^3+^_0.04_Mg_0.04_Ca_0.04_)_7_(Ti_0.66_Zr_0.18_Al_0.16_)_2_Si_8.00_O_26_(OH)_4_F_1.00_
##PIN_ID=L00382
##ORIENTATION=Laser parallel to b* (0 1 0). Fiducial mark perpendicular to laser is parallel to c [0 0 1]
80.65400, 10709.00
81.88700, 11130.00
83.11900, 11621.00
84.35200, 12149.00
85.58400, 12194.00
86.81600, 12227.00
88.04900, 12354.00
89.28100, 12580.00
90.51200, 12979.00
91.74400, 12904.00
92.97600, 12969.00
94.20700, 12611.00
95.43800, 12265.00
96.66900, 11838.00
97.90100, 11470.00
99.13100, 11280.00
100.3620, 11070.00
101.5930, 10787.00
102.8230, 10552.00
104.0530, 10361.00
105.2840, 10265.00
106.5140, 10343.00
107.7440, 10141.00
108.9730, 10058.00
110.2030, 9735.000
111.4320, 9646.000
112.6620, 9528.000
113.8910, 9587.000
115.1200, 9795.000
116.3490, 9816.000
117.5780, 9769.000
118.8060, 9742.000
120.0350, 9765.000
121.2630, 10261.00
122.4920, 10342.00
123.7200, 10300.00
124.9480, 10070.00
126.1750, 9915.000
127.4030, 9818.000
128.6310, 9887.000
129.8580, 9880.000
131.0850, 9820.000
132.3120, 9829.000
133.5390, 9685.000
134.7660, 9496.000
135.9930, 9484.000
137.2200, 9382.000
138.4460, 9335.000
139.6720, 9132.000
140.8980, 9001.000
142.1240, 8821.000
143.3500, 8880.000
144.5760, 8718.000
145.8020, 8720.000
147.0270, 8798.000
148.2520, 8773.000
149.4780, 8760.000
150.7030, 8868.000
151.9270, 9021.000
153.1520, 9161.000
154.3770, 9339.881
155.6010, 9445.000
156.8260, 9689.000
158.0500, 9877.000
159.2740, 9975.000
160.4980, 10167.00
161.7210, 10504.00
162.9450, 10777.00
164.1690, 10987.00
165.3920, 11137.00
166.6150, 11297.61
167.8380, 11401.00
169.0610, 11480.00
170.2840, 11536.00
171.5070, 11537.00
172.7290, 11508.00
173.9510, 11355.00
175.1740, 11208.59
176.3960, 10931.00
177.6180, 10719.00
178.8390, 10445.00
180.0610, 10077.00
181.2830, 10060.00
182.5040, 9756.000
183.7250, 9640.000
184.9460, 9350.000
186.1670, 9353.000
187.3880, 9201.000
188.6090, 9200.000
189.8290, 9177.000
191.0500, 9018.000
192.2700, 9108.000
193.4900, 9244.000
194.7100, 9218.000
195.9300, 9359.000
197.1490, 9389.000
198.3690, 9507.000
199.5880, 9407.000
200.8080, 9680.000
202.0270, 9633.000
203.2460, 9731.000
204.4650, 10010.00
205.6830, 9935.000
206.9020, 9952.000
208.1200, 10113.00
209.3380, 10101.00
210.5570, 10212.00
211.7750, 10329.00
212.9920, 10466.00
214.2100, 10524.00
215.4280, 10527.00
216.6450, 10593.00
217.8620, 10920.00
219.0790, 10990.00
220.2960, 11244.00
221.5130, 11302.00
222.7300, 11496.00
223.9460, 11778.00
225.1630, 11746.00
226.3790, 11877.00
227.5950, 12073.00
228.8110, 12179.00
230.0270, 12314.00
231.2430, 12523.00
232.4580, 12645.00
233.6740, 12869.00
234.8890, 12871.00
236.1040, 13147.00
237.3190, 12942.00
238.5340, 13151.00
239.7490, 13045.00
240.9630, 13033.00
242.1780, 12960.00
243.3920, 12882.00
244.6060, 12741.01
245.8200, 12425.00
247.0340, 12358.00
248.2470, 12127.00
249.4610, 11846.00
250.6740, 11659.00
251.8880, 11453.67
253.1010, 11231.00
254.3140, 11072.00
255.5270, 11029.00
256.7390, 10793.00
257.9520, 10709.41
259.1640, 10535.00
260.3760, 10471.00
261.5880, 10308.00
262.8000, 10195.00
264.0120, 10031.00
265.2240, 10067.00
266.4350, 10114.00
267.6470, 10022.00
268.8580, 9905.000
270.0690, 9928.000
271.2800, 9875.000
272.4910, 9963.000
273.7020, 9831.000
274.9120, 9823.000
276.1230, 9765.000
277.3330, 9789.000
278.5430, 9748.887
279.7530, 9745.754
280.9630, 9719.000
282.1720, 9783.000
283.3820, 9815.000
284.5910, 9929.000
285.8000, 9824.000
287.0090, 9985.000
288.2180, 10097.00
289.4270, 10080.00
290.6360, 10242.00
291.8440, 10366.00
293.0530, 10314.00
294.2610, 10345.00
295.4690, 10397.00
296.6770, 10310.00
297.8850, 10372.00
299.0920, 10419.00
300.3000, 10407.00
301.5070, 10220.00
302.7140, 10215.00
303.9210, 10205.00
305.1280, 10078.00
306.3350, 10144.00
307.5420, 10029.00
308.7480, 9850.000
309.9540, 9943.000
311.1600, 9886.000
312.3660, 9821.000
313.5720, 9837.000
314.7780, 9829.000
315.9840, 9938.000
317.1890, 9735.000
318.3940, 9964.000
319.6000, 9908.000
320.8050, 9806.000
322.0090, 10107.00
323.2140, 10180.00
324.4190, 10162.00
325.6230, 10225.00
326.8270, 10355.63
328.0320, 10489.49
329.2360, 10674.00
330.4390, 10877.00
331.6430, 11084.00
332.8470, 11274.00
334.0500, 11393.00
335.2530, 11724.00
336.4560, 11860.00
337.6590, 12145.00
338.8620, 12426.00
340.0650, 12633.00
341.2670, 12711.00
342.4700, 12883.00
343.6720, 13210.00
344.8740, 13231.00
346.0760, 13400.00
347.2780, 13444.44
348.4790, 13428.00
349.6810, 13415.00
350.8820, 13232.00
352.0830, 13138.00
353.2840, 12972.00
354.4850, 12839.00
355.6860, 12587.00
356.8870, 12342.00
358.0870, 12367.00
359.2870, 12116.00
360.4880, 11854.00
361.6880, 11617.00
362.8870, 11606.00
364.0870, 11290.00
365.2870, 11144.00
366.4860, 10866.00
367.6850, 10628.00
368.8850, 10638.00
370.0840, 10346.00
371.2820, 10175.00
372.4810, 9940.000
373.6800, 9932.000
374.8780, 9811.000
376.0760, 9805.000
377.2740, 9704.000
378.4720, 9656.000
379.6700, 9471.000
380.8680, 9474.000
382.0650, 9445.000
383.2630, 9364.000
384.4600, 9463.000
385.6570, 9204.000
386.8540, 9236.000
388.0510, 9229.000
389.2470, 9021.000
390.4440, 8888.000
391.6400, 8974.000
392.8360, 9031.000
394.0320, 8717.000
395.2280, 8822.000
396.4240, 8502.000
397.6190, 8658.000
398.8150, 8449.000
400.0100, 8426.000
401.2050, 8388.000
402.4000, 8330.000
403.5950, 8287.000
404.7900, 8245.159
405.9840, 8262.000
407.1790, 8230.000
408.3730, 8211.000
409.5670, 8348.000
410.7610, 8349.000
411.9550, 8363.000
413.1480, 8374.000
414.3420, 8369.000
415.5350, 8348.000
416.7280, 8397.128
417.9220, 8480.000
419.1140, 8499.000
420.3070, 8502.000
421.5000, 8576.000
422.6920, 8607.000
423.8850, 8473.000
425.0770, 8585.000
426.2690, 8472.000
427.4610, 8440.000
428.6520, 8431.000
429.8440, 8261.000
431.0350, 8346.000
432.2260, 8075.000
433.4180, 8156.000
434.6090, 8009.000
435.7990, 7955.000
436.9900, 7835.000
438.1800, 7726.000
439.3710, 7816.000
440.5610, 7738.000
441.7510, 7798.000
442.9410, 7745.988
444.1310, 7678.000
445.3200, 7647.000
446.5100, 7637.000
447.6990, 7609.000
448.8880, 7666.000
450.0770, 7726.000
451.2660, 7854.000
452.4550, 7829.000
453.6430, 7833.000
454.8320, 7782.000
456.0200, 7985.000
457.2080, 7932.000
458.3960, 8163.000
459.5840, 8030.000
460.7720, 8149.000
461.9590, 8185.000
463.1460, 8343.000
464.3340, 8466.000
465.5210, 8480.000
466.7080, 8550.000
467.8940, 8609.000
469.0810, 8474.000
470.2670, 8654.000
471.4540, 8708.000
472.6400, 8521.000
473.8260, 8687.000
475.0120, 8503.000
476.1970, 8525.000
477.3830, 8521.000
478.5680, 8508.000
479.7540, 8584.000
480.9390, 8604.000
482.1240, 8507.000
483.3080, 8557.603
484.4930, 8533.000
485.6780, 8527.000
486.8620, 8505.721
488.0460, 8460.856
489.2300, 8417.000
490.4140, 8368.000
491.5980, 8300.000
492.7810, 8264.000
493.9650, 8204.000
495.1480, 8284.000
496.3310, 8159.000
497.5140, 8156.000
498.6970, 8059.000
499.8800, 8028.000
501.0620, 7994.000
502.2440, 7838.000
503.4270, 7802.000
504.6090, 7801.000
505.7910, 7813.000
506.9720, 7863.000
508.1540, 7867.000
509.3350, 7829.000
510.5170, 7778.000
511.6980, 7803.000
512.8790, 7776.541
514.0600, 7913.000
515.2400, 7768.000
516.4210, 7833.000
517.6010, 7814.000
518.7810, 7775.000
519.9620, 7851.000
521.1410, 7848.000
522.3210, 7867.000
523.5010, 7801.000
524.6800, 7951.000
525.8600, 8025.000
527.0390, 7897.000
528.2180, 8099.000
529.3970, 7909.000
530.5750, 8063.000
531.7540, 8157.000
532.9320, 7965.000
534.1110, 8269.000
535.2890, 8288.000
536.4670, 8189.000
537.6440, 8390.000
538.8220, 8597.000
540.0000, 8538.000
541.1770, 8716.000
542.3540, 8777.000
543.5310, 9058.000
544.7080, 9194.000
545.8850, 9383.000
547.0610, 9733.000
548.2380, 9879.000
549.4140, 10147.00
550.5900, 10472.00
551.7660, 10882.00
552.9420, 11043.00
554.1170, 11280.00
555.2930, 11691.00
556.4680, 11924.00
557.6430, 12000.00
558.8180, 12275.00
559.9930, 12324.00
561.1680, 12311.00
562.3430, 12323.00
563.5170, 12125.00
564.6910, 11832.00
565.8650, 11764.00
567.0390, 11531.00
568.2130, 11320.00
569.3870, 11049.00
570.5600, 10801.00
571.7340, 10671.00
572.9070, 10416.00
574.0800, 10451.00
575.2530, 10238.00
576.4250, 10223.00
577.5980, 10010.00
578.7700, 9838.000
579.9430, 9841.000
581.1150, 9575.000
582.2870, 9636.000
583.4590, 9735.000
584.6300, 9562.000
585.8020, 9743.000
586.9730, 9555.000
588.1440, 9783.000
589.3150, 9772.000
590.4860, 9783.000
591.6570, 9787.000
592.8270, 9844.000
593.9980, 9861.000
595.1680, 9943.000
596.3380, 9894.000
597.5080, 9959.000
598.6780, 10016.00
599.8480, 9928.000
601.0170, 10063.00
602.1860, 10070.00
603.3550, 10050.00
604.5240, 9947.000
605.6930, 9982.000
606.8620, 10035.00
608.0310, 9975.000
609.1990, 10061.00
610.3670, 10186.00
611.5350, 10029.00
612.7030, 10057.00
613.8710, 10190.00
615.0390, 10301.00
616.2060, 10232.00
617.3730, 10392.00
618.5410, 10318.00
619.7080, 10571.00
620.8740, 10666.00
622.0410, 10600.00
623.2080, 10825.00
624.3740, 10798.00
625.5400, 10962.00
626.7060, 11005.00
627.8720, 11189.00
629.0380, 11245.00
630.2040, 11337.00
631.3690, 11565.00
632.5340, 11728.00
633.6990, 11982.00
634.8640, 12038.00
636.0290, 12228.00
637.1940, 12496.00
638.3580, 12774.00
639.5230, 13178.00
640.6870, 13460.00
641.8510, 13872.00
643.0150, 14209.00
644.1790, 14740.00
645.3420, 15208.59
646.5060, 15876.23
647.6690, 16520.39
648.8320, 17142.79
649.9950, 17678.40
651.1580, 18326.12
652.3200, 18928.36
653.4830, 19263.00
654.6450, 19376.00
655.8070, 19187.00
656.9690, 19247.00
658.1310, 18723.00
659.2930, 18293.00
660.4540, 17602.00
661.6160, 17040.00
662.7770, 16704.00
663.9380, 16227.00
665.0990, 15829.00
666.2600, 15687.00
667.4200, 15412.00
668.5810, 15524.00
669.7410, 15550.00
670.9010, 15518.00
672.0610, 15697.00
673.2210, 15809.00
674.3810, 15978.00
675.5400, 16612.00
676.6990, 17505.00
677.8590, 17891.00
679.0180, 18763.00
680.1760, 18945.00
681.3350, 18557.00
682.4940, 17847.00
683.6520, 18312.00
684.8100, 18417.00
685.9680, 18774.00
687.1260, 19325.00
688.2840, 19530.00
689.4420, 19881.00
690.5990, 20157.00
691.7560, 20549.00
692.9140, 20866.00
694.0710, 21104.00
695.2270, 21292.00
696.3840, 21559.00
697.5410, 21651.00
698.6970, 21819.00
699.8530, 22253.00
701.0090, 22548.00
702.1650, 22558.00
703.3210, 22795.00
704.4760, 22880.00
705.6320, 23180.00
706.7870, 23269.83
707.9420, 23441.00
709.0970, 23470.00
710.2520, 23452.00
711.4060, 23458.00
712.5610, 23401.00
713.7150, 23392.03
714.8690, 23391.00
716.0230, 23253.00
717.1770, 23122.00
718.3310, 22858.00
719.4840, 22503.00
720.6380, 22478.00
721.7910, 21891.00
722.9440, 21627.00
724.0970, 21416.00
725.2490, 20967.63
726.4020, 20645.00
727.5540, 20253.00
728.7070, 19927.00
729.8590, 19516.00
731.0110, 19180.00
732.1620, 18806.00
733.3140, 18200.00
734.4650, 17998.00
735.6170, 17546.00
736.7680, 17312.00
737.9190, 16912.00
739.0700, 16609.00
740.2200, 16194.00
741.3710, 16030.00
742.5210, 15861.00
743.6710, 15504.00
744.8210, 15368.00
745.9710, 15332.00
747.1210, 15205.00
748.2700, 14969.00
749.4200, 14880.00
750.5690, 15008.00
751.7180, 14636.00
752.8670, 14763.00
754.0160, 14467.00
755.1640, 14574.00
756.3130, 14396.00
757.4610, 14409.00
758.6090, 14102.00
759.7570, 13988.00
760.9050, 13952.00
762.0530, 13990.00
763.2000, 13740.00
764.3470, 13693.00
765.4940, 13451.00
766.6410, 13319.00
767.7880, 13356.00
768.9350, 13094.64
770.0810, 13079.00
771.2280, 12800.00
772.3740, 12784.00
773.5200, 12784.00
774.6660, 12541.00
775.8120, 12471.00
776.9570, 12287.00
778.1030, 12491.00
779.2480, 12341.00
780.3930, 12313.00
781.5380, 12178.00
782.6830, 12156.00
783.8270, 12184.00
784.9720, 12083.00
786.1160, 12045.00
787.2600, 12098.00
788.4040, 11942.00
789.5480, 11922.00
790.6910, 11754.00
791.8350, 11810.00
792.9780, 11720.00
794.1210, 11458.00
795.2640, 11609.00
796.4070, 11319.00
797.5500, 11375.00
798.6920, 11157.00
799.8350, 10955.00
800.9770, 10999.00
802.1190, 10723.00
803.2610, 10720.00
804.4030, 10501.00
805.5440, 10527.00
806.6850, 10299.00
807.8270, 10275.00
808.9680, 10075.00
810.1090, 10003.00
811.2490, 10017.00
812.3900, 10043.00
813.5300, 9879.000
814.6710, 9828.000
815.8110, 9888.000
816.9510, 9688.000
818.0910, 9703.000
819.2300, 9587.000
820.3700, 9653.000
821.5090, 9523.000
822.6480, 9567.000
823.7870, 9468.000
824.9260, 9459.000
826.0640, 9462.000
827.2030, 9496.000
828.3410, 9367.000
829.4790, 9452.000
830.6170, 9435.000
831.7550, 9261.000
832.8930, 9511.000
834.0310, 9309.000
835.1680, 9331.000
836.3050, 9252.000
837.4420, 9267.000
838.5790, 9245.000
839.7160, 9410.000
840.8520, 9214.000
841.9890, 9336.000
843.1250, 9381.000
844.2610, 9248.000
845.3970, 9306.000
846.5330, 9317.000
847.6680, 9208.000
848.8040, 9265.000
849.9390, 9244.000
851.0740, 9147.000
852.2090, 9207.000
853.3440, 9201.000
854.4780, 9243.000
855.6130, 9252.000
856.7470, 9279.000
857.8810, 9243.000
859.0150, 9292.000
860.1490, 9275.913
861.2830, 9328.426
862.4160, 9363.740
863.5490, 9383.085
864.6830, 9321.391
865.8160, 9377.560
866.9480, 9394.536
868.0810, 9415.456
869.2140, 9504.691
870.3460, 9484.385
871.4780, 9584.104
872.6100, 9643.959
873.7420, 9740.000
874.8740, 9731.000
876.0050, 9923.000
877.1370, 9857.000
878.2680, 10070.00
879.3990, 10016.00
880.5300, 10287.00
881.6600, 10321.00
882.7910, 10355.00
883.9210, 10518.00
885.0520, 10544.00
886.1820, 10684.00
887.3120, 10663.00
888.4410, 10890.00
889.5710, 11011.00
890.7000, 11093.00
891.8300, 11061.00
892.9590, 11375.00
894.0880, 11368.00
895.2160, 11535.00
896.3450, 11671.00
897.4730, 11546.00
898.6020, 11886.00
899.7300, 11785.00
900.8580, 12084.00
901.9860, 11953.00
903.1130, 12180.00
904.2410, 12365.00
905.3680, 12485.00
906.4950, 12617.00
907.6220, 12702.00
908.7490, 12769.00
909.8760, 12865.68
911.0020, 12903.00
912.1280, 12960.79
913.2550, 13080.92
914.3810, 13173.37
915.5060, 13239.04
916.6320, 13232.97
917.7580, 13292.83
918.8830, 13309.86
920.0080, 13313.95
921.1330, 13349.68
922.2580, 13293.93
923.3830, 13305.62
924.5070, 13274.10
925.6310, 13245.38
926.7560, 13173.66
927.8800, 13065.00
929.0040, 12914.00
930.1270, 12862.33
931.2510, 12811.00
932.3740, 12700.00
933.4970, 12565.00
934.6200, 12477.00
935.7430, 12315.00
936.8660, 12243.01
937.9890, 12242.00
939.1110, 12049.00
940.2330, 12034.00
941.3550, 11877.00
942.4770, 11749.88
943.5990, 11648.00
944.7200, 11562.00
945.8420, 11465.00
946.9630, 11389.99
948.0840, 11327.57
949.2050, 11262.00
950.3260, 11202.00
951.4460, 11175.00
952.5670, 11075.00
953.6870, 11169.00
954.8070, 11142.00
955.9270, 10934.00
957.0470, 10979.00
958.1660, 10827.00
959.2860, 10696.00
960.4050, 10832.00
961.5240, 10749.00
962.6430, 10721.00
963.7620, 10703.00
964.8810, 10561.00
965.9990, 10601.00
967.1170, 10534.00
968.2350, 10488.00
969.3530, 10537.00
970.4710, 10480.13
971.5890, 10438.00
972.7060, 10432.00
973.8240, 10371.00
974.9410, 10309.00
976.0580, 10335.00
977.1740, 10276.00
978.2910, 10275.00
979.4080, 10167.00
980.5240, 10240.00
981.6400, 10213.00
982.7560, 10311.00
983.8720, 10343.00
984.9870, 10194.00
986.1030, 10235.00
987.2180, 10322.00
988.3330, 10424.00
989.4480, 10500.00
990.5630, 10419.00
991.6780, 10417.00
992.7920, 10604.00
993.9070, 10617.96
995.0210, 10733.00
996.1350, 10833.00
997.2490, 10883.00
998.3620, 10965.00
999.4760, 11033.00
1000.589, 11094.00
1001.702, 11295.00
1002.815, 11505.00
1003.928, 11584.00
1005.041, 11574.00
1006.153, 11891.00
1007.266, 11915.00
1008.378, 11955.00
1009.490, 12176.00
1010.602, 12407.00
1011.713, 12501.00
1012.825, 12825.00
1013.936, 12916.00
1015.047, 13269.00
1016.158, 13453.00
1017.269, 13847.00
1018.380, 13900.00
1019.490, 14264.00
1020.601, 14551.00
1021.711, 14933.00
1022.821, 15132.00
1023.931, 15401.00
1025.040, 15722.00
1026.150, 15714.00
1027.259, 15914.00
1028.368, 16068.00
1029.477, 16127.00
1030.586, 16167.00
1031.695, 16351.00
1032.803, 16436.00
1033.912, 16516.00
1035.020, 16495.00
1036.128, 16316.00
1037.236, 16072.00
1038.343, 16069.00
1039.451, 15883.00
1040.558, 15679.00
1041.665, 15481.00
1042.772, 15163.00
1043.879, 14955.00
1044.986, 14700.00
1046.093, 14548.00
1047.199, 14023.00
1048.305, 13903.00
1049.411, 13577.00
1050.517, 13363.00
1051.623, 13118.00
1052.728, 12921.79
1053.833, 12740.00
1054.939, 12619.00
1056.044, 12426.00
1057.148, 12344.00
1058.253, 12291.00
1059.358, 12145.00
1060.462, 12085.00
1061.566, 12054.00
1062.670, 11776.00
1063.774, 11718.00
1064.878, 11714.00
1065.981, 11588.00
1067.085, 11642.00
1068.188, 11576.21
1069.291, 11502.00
1070.394, 11550.00
1071.496, 11509.00
1072.599, 11577.00
1073.701, 11585.00
1074.803, 11493.00
1075.905, 11414.00
1077.007, 11412.00
1078.109, 11443.00
1079.210, 11436.00
1080.312, 11418.70
1081.413, 11406.19
1082.514, 11347.00
1083.615, 11333.00
1084.715, 11258.00
1085.816, 11188.00
1086.916, 11324.00
1088.016, 11160.00
1089.116, 11226.00
1090.216, 11124.00
1091.316, 11152.00
1092.415, 11074.00
1093.515, 10989.00
1094.614, 10939.00
1095.713, 10949.00
1096.812, 10942.00
1097.910, 10912.00
1099.009, 10887.00
1100.107, 10780.00
1101.205, 10687.00
1102.303, 10805.00
1103.401, 10704.21
1104.499, 10842.00
1105.596, 10668.00
1106.693, 10615.00
1107.791, 10598.00
1108.888, 10492.00
1109.984, 10444.00
1111.081, 10529.00
1112.177, 10416.00
1113.274, 10491.00
1114.370, 10544.00
1115.466, 10469.00
1116.562, 10440.00
1117.657, 10437.00
1118.753, 10332.00
1119.848, 10342.00
1120.943, 10334.00
1122.038, 10290.00
1123.133, 10378.00
1124.228, 10495.00
1125.322, 10322.00
1126.416, 10548.00
1127.510, 10457.11
1128.604, 10319.00
1129.698, 10403.00
1130.792, 10380.00
1131.885, 10364.00
1132.978, 10398.00
1134.071, 10396.00
1135.164, 10358.00
1136.257, 10429.00
1137.350, 10385.00
1138.442, 10477.00
1139.534, 10475.00
1140.627, 10357.00
1141.718, 10437.00
1142.810, 10415.00
1143.902, 10391.00
1144.993, 10459.00
1146.084, 10420.11
1147.176, 10413.00
1148.266, 10412.00
1149.357, 10457.29
1150.448, 10472.00
1151.538, 10469.99
1152.628, 10505.00
1153.718, 10461.00
1154.808, 10411.00
1155.898, 10400.00
1156.988, 10379.88
1158.077, 10353.00
1159.166, 10370.00
1160.255, 10395.87
1161.344, 10389.00
1162.433, 10436.00
1163.521, 10440.00
1164.610, 10390.00
1165.698, 10514.00
1166.786, 10432.00
1167.874, 10420.00
1168.961, 10588.00
1170.049, 10570.00
1171.136, 10506.00
1172.224, 10436.00
1173.311, 10293.00
1174.397, 10551.00
1175.484, 10411.00
1176.571, 10360.00
1177.657, 10532.00
1178.743, 10514.00
1179.829, 10531.00
1180.915, 10325.00
1182.001, 10485.00
1183.086, 10607.00
1184.171, 10423.00
1185.256, 10464.00
1186.341, 10569.00
1187.426, 10509.00
1188.511, 10573.00
1189.595, 10508.00
1190.680, 10563.00
1191.764, 10530.00
1192.848, 10497.00
1193.932, 10472.00
1195.015, 10487.11
1196.099, 10510.00
1197.182, 10552.00
1198.265, 10530.00
1199.348, 10594.00
1200.431, 10525.00
1201.513, 10546.00
1202.596, 10560.00
1203.678, 10509.00
1204.760, 10530.00
1205.842, 10529.81
1206.924, 10631.00
1208.005, 10588.00
1209.087, 10615.00
1210.168, 10722.00
1211.249, 10643.00
1212.330, 10713.00
1213.411, 10716.00
1214.491, 10636.00
1215.572, 10720.00
1216.652, 10734.00
1217.732, 10720.00
1218.812, 10613.00
1219.891, 10638.00
1220.971, 10660.47
1222.050, 10693.00
1223.129, 10763.00
1224.208, 10619.00
1225.287, 10630.00
1226.366, 10696.00
1227.444, 10747.00
1228.523, 10861.00
1229.601, 10786.00
1230.679, 10786.00
1231.757, 10718.00
1232.834, 10783.00
1233.912, 10793.73
1234.989, 10799.00
1236.066, 10860.00
1237.143, 10804.00
1238.220, 10768.00
1239.297, 10965.00
1240.373, 10835.84
1241.449, 10872.05
1242.526, 10765.00
1243.601, 10827.00
1244.677, 10855.00
1245.753, 10857.00
1246.828, 10849.91
1247.904, 10917.00
1248.979, 10826.00
1250.054, 10865.00
1251.128, 10947.00
1252.203, 10916.00
1253.277, 11017.00
1254.351, 10829.00
1255.426, 11089.00
1256.499, 10933.00
1257.573, 11026.00
1258.647, 10983.00
1259.720, 10871.00
1260.793, 11030.00
1261.866, 10996.00
1262.939, 10928.00
1264.012, 10919.00
1265.084, 11069.00
1266.157, 11078.00
1267.229, 10974.00
1268.301, 11179.00
1269.373, 10936.00
1270.444, 11091.00
1271.516, 11065.00
1272.587, 11155.00
1273.658, 11158.82
1274.729, 11167.45
1275.800, 11127.00
1276.871, 11165.00
1277.941, 11127.00
1279.011, 11095.00
1280.082, 11237.00
1281.151, 11143.00
1282.221, 11131.00
1283.291, 11249.00
1284.360, 11201.00
1285.430, 11191.00
1286.499, 11357.00
1287.568, 11296.00
1288.636, 11186.00
1289.705, 11227.00
1290.773, 11285.00
1291.841, 11231.00
1292.909, 11253.00
1293.977, 11222.08
1295.045, 11282.07
1296.113, 11319.09
1297.180, 11334.38
1298.247, 11262.84
1299.314, 11303.42
1300.381, 11299.06
1301.448, 11292.86
1302.514, 11349.21
1303.580, 11290.29
1304.647, 11345.66
1305.713, 11355.40
1306.778, 11386.01
1307.844, 11371.42
1308.910, 11370.79
1309.975, 11415.38
1311.040, 11434.93
1312.105, 11390.00
1313.170, 11357.00
1314.234, 11287.00
1315.299, 11398.00
1316.363, 11354.00
1317.427, 11307.00
1318.491, 11257.00
1319.555, 11420.00
1320.618, 11308.00
1321.682, 11487.00
1322.745, 11349.00
1323.808, 11335.00
1324.871, 11340.00
1325.933, 11289.00
1326.996, 11298.00
1328.058, 11324.00
1329.121, 11284.00
1330.183, 11302.00
1331.244, 11443.00
1332.306, 11334.00
1333.368, 11433.00
1334.429, 11440.00
1335.490, 11461.00
1336.551, 11568.00
1337.612, 11376.00
1338.672, 11538.00
1339.733, 11332.00
1340.793, 11344.00
1341.853, 11458.00
1342.913, 11521.00
1343.973, 11510.00
1345.033, 11509.00
1346.092, 11553.00
1347.151, 11513.09
1348.210, 11400.00
1349.269, 11467.00
1350.328, 11387.00
1351.386, 11367.00
1352.445, 11528.00
1353.503, 11524.00
1354.561, 11516.00
1355.619, 11558.00
1356.677, 11463.00
1357.734, 11522.00
1358.791, 11638.00
1359.849, 11368.00
1360.906, 11526.00
1361.962, 11483.00
1363.019, 11554.00
1364.075, 11584.00
1365.132, 11554.00
1366.188, 11605.00
1367.244, 11625.00
1368.300, 11636.00
1369.355, 11601.00
1370.411, 11626.00
1371.466, 11710.00
1372.521, 11569.00
1373.576, 11626.00
1374.631, 11719.00
1375.685, 11632.00
1376.740, 11681.00
1377.794, 11792.00
1378.848, 11628.00
1379.902, 11580.00
1380.955, 11562.00
1382.009, 11609.00
1383.062, 11780.00
1384.115, 11633.00
1385.168, 11710.00
1386.221, 11699.00
1387.274, 11661.00
1388.326, 11600.00
1389.379, 11677.00
1390.431, 11563.00
1391.483, 11631.00
1392.534, 11667.64
1393.586, 11877.00
1394.637, 11739.00
1395.689, 11797.00
1396.740, 11731.00
1397.791, 11832.00
1398.841, 11909.00
1399.892, 11714.00
1400.942, 11757.00
1401.993, 11806.00
1403.043, 11752.00
1404.092, 11747.00
1405.142, 11795.00
1406.192, 11932.00
1407.241, 11768.00
1408.290, 11896.00
1409.339, 11826.00
1410.388, 11910.00
1411.437, 11866.00
1412.485, 11879.67
1413.533, 11876.57
1414.581, 11955.00
1415.629, 11815.00
1416.677, 11964.00
1417.725, 11898.00
1418.772, 11977.00
1419.819, 11979.00
1420.867, 11944.00
1421.913, 12079.00
1422.960, 12130.00
1424.007, 12180.00
1425.053, 12215.38
1426.099, 12186.00
1427.145, 12247.00
1428.191, 12182.00
1429.237, 12238.00
1430.282, 12226.00
1431.328, 12262.00
1432.373, 12381.00
1433.418, 12317.00
1434.462, 12519.00
1435.507, 12407.00
1436.552, 12400.00
1437.596, 12535.00
1438.640, 12420.00
1439.684, 12493.44
1440.728, 12552.00
1441.771, 12502.00
1442.815, 12607.00
1443.858, 12549.08
1444.901, 12437.00
1445.944, 12623.00
1446.986, 12599.00
1448.029, 12553.00
1449.071, 12593.00
1450.113, 12508.00
1451.155, 12561.00
1452.197, 12575.00
1453.239, 12593.00
1454.280, 12544.00
1455.322, 12468.33
1456.363, 12517.46
1457.404, 12543.62
1458.444, 12548.06
1459.485, 12465.67
1460.525, 12495.40
1461.566, 12480.19
1462.606, 12463.15
1463.646, 12508.66
1464.685, 12566.00
1465.725, 12550.00
1466.764, 12417.00
1467.803, 12524.00
1468.842, 12494.00
1469.881, 12445.96
1470.920, 12624.00
1471.958, 12447.00
1472.997, 12480.00
1474.035, 12653.00
1475.073, 12418.00
1476.111, 12559.00
1477.148, 12445.00
1478.186, 12540.00
1479.223, 12564.00
1480.260, 12454.00
1481.297, 12539.00
1482.334, 12537.00
1483.370, 12440.00
1484.407, 12408.00
1485.443, 12482.00
1486.479, 12576.00
1487.515, 12411.00
1488.550, 12583.00
1489.586, 12675.00
1490.621, 12564.00
1491.656, 12452.00
1492.691, 12509.00
1493.726, 12646.00
1494.761, 12446.00
1495.795, 12636.00
1496.829, 12690.00
1497.863, 12523.00
1498.897, 12579.00
1499.931, 12625.00
1500.965, 12621.00
1501.998, 12652.00
1503.031, 12799.00
1504.064, 12682.00
1505.097, 12702.00
1506.130, 12588.00
1507.162, 12652.00
1508.195, 12691.00
1509.227, 12879.00
1510.259, 12911.00
1511.291, 12707.00
1512.322, 12679.00
1513.354, 12846.00
1514.385, 12825.00
1515.416, 12893.00
1516.447, 12932.00
1517.478, 12917.00
1518.508, 12892.00
1519.539, 12786.00
1520.569, 12853.99
1521.599, 12873.00
1522.629, 12936.00
1523.658, 12951.00
1524.688, 12966.00
1525.717, 13036.00
1526.746, 12949.00
1527.775, 12990.00
1528.804, 12972.00
1529.833, 12880.00
1530.861, 13065.00
1531.890, 12914.00
1532.918, 13058.00
1533.946, 13063.00
1534.973, 12864.00
1536.001, 13105.00
1537.028, 13003.00
1538.055, 13072.00
1539.082, 13057.00
1540.109, 12949.00
1541.136, 12864.00
1542.163, 13068.00
1543.189, 13145.00
1544.215, 13133.00
1545.241, 13046.00
1546.267, 13065.00
1547.292, 13100.00
1548.318, 13123.00
1549.343, 13178.00
1550.368, 13238.00
1551.393, 13246.01
1552.418, 13222.00
1553.442, 13250.00
1554.467, 13194.85
1555.491, 13137.00
1556.515, 13142.00
1557.539, 13133.00
1558.562, 13139.00
1559.586, 13193.00
1560.609, 12977.00
1561.632, 13217.00
1562.655, 13183.00
1563.678, 13046.00
1564.701, 13155.00
1565.723, 13210.00
1566.745, 13062.00
1567.768, 13056.00
1568.789, 13046.00
1569.811, 13063.00
1570.833, 13184.00
1571.854, 13196.00
1572.875, 13219.00
1573.896, 13355.00
1574.917, 13111.00
1575.938, 13064.00
1576.958, 13250.00
##END=



