##NAMES=Astrophyllite
##RRUFFID=R060103
##IDEAL CHEMISTRY=K_2_NaFe^2+^_7_Ti^4+^_2_(Si_4_O_12_)_2_O_2_(OH)_4_F
##LOCALITY=Brivik, Norway
##OWNER=RRUFF
##SOURCE=University of Arizona Mineral Museum
##DESCRIPTION=Brown fragment embedded in matrix
##STATUS=The identification of this mineral is confirmed by single-crystal X-ray diffraction and chemical analysis.
##URL=rruff.info/R060103
##MEASURED CHEMISTRY=K_2.00_Na_1.00_(Fe^2+^_0.55_Mn_0.32_Fe^3+^_0.04_Mg_0.04_Ca_0.04_)_7_(Ti_0.66_Zr_0.18_Al_0.16_)_2_Si_8.00_O_26_(OH)_4_F_1.00_
##PIN_ID=M01746
##ORIENTATION=Laser parallel to a* (1 0 0). Fiducial mark perpendicular to laser is parallel to b [0 1 0]
143.9980, 7316.000
145.2320, 7139.000
146.4650, 7169.000
147.6990, 7147.000
148.9320, 7221.000
150.1650, 7185.000
151.3980, 7226.000
152.6310, 7364.000
153.8640, 7433.000
155.0960, 7556.000
156.3280, 7645.000
157.5600, 7638.000
158.7920, 7825.000
160.0240, 7930.000
161.2560, 8129.000
162.4870, 8346.000
163.7180, 8431.000
164.9490, 8703.000
166.1800, 8770.000
167.4110, 8793.000
168.6410, 8796.000
169.8720, 8910.000
171.1020, 8976.000
172.3320, 8867.000
173.5620, 8887.000
174.7910, 8674.000
176.0210, 8509.000
177.2500, 8448.000
178.4790, 8319.270
179.7080, 8260.000
180.9370, 8100.000
182.1650, 8017.000
183.3940, 7914.987
184.6220, 7763.000
185.8500, 7717.000
187.0780, 7709.000
188.3050, 7621.000
189.5330, 7725.000
190.7600, 7662.000
191.9870, 7574.000
193.2140, 7677.000
194.4410, 7824.000
195.6680, 7879.000
196.8940, 7927.000
198.1200, 7980.000
199.3470, 8171.000
200.5720, 8467.000
201.7980, 8565.000
203.0240, 8584.000
204.2490, 8542.000
205.4740, 8476.000
206.6990, 8623.000
207.9240, 8868.000
209.1490, 9141.000
210.3740, 9363.000
211.5980, 9527.000
212.8220, 9869.000
214.0460, 10108.00
215.2700, 10490.00
216.4930, 10727.00
217.7170, 11021.00
218.9400, 11416.00
220.1630, 11535.00
221.3860, 12036.00
222.6090, 12167.00
223.8320, 12420.00
225.0540, 12646.00
226.2760, 12787.00
227.4980, 13027.00
228.7200, 13042.00
229.9420, 13245.00
231.1630, 13377.00
232.3850, 13408.00
233.6060, 13447.00
234.8270, 13453.00
236.0480, 13302.00
237.2690, 13089.00
238.4890, 13056.00
239.7090, 12949.00
240.9290, 12765.00
242.1490, 12249.00
243.3690, 12072.00
244.5890, 11689.00
245.8080, 11345.00
247.0270, 11202.00
248.2470, 10690.00
249.4650, 10571.00
250.6840, 10297.00
251.9030, 10204.00
253.1210, 9946.000
254.3390, 9887.000
255.5570, 9666.000
256.7750, 9681.000
257.9930, 9535.000
259.2100, 9529.000
260.4280, 9385.000
261.6450, 9142.000
262.8620, 8961.000
264.0790, 8826.646
265.2950, 8664.000
266.5120, 8543.000
267.7280, 8349.000
268.9440, 8154.000
270.1600, 8051.000
271.3760, 7935.000
272.5920, 7804.214
273.8070, 7853.000
275.0220, 7622.000
276.2370, 7583.000
277.4520, 7572.000
278.6670, 7402.000
279.8820, 7451.000
281.0960, 7392.000
282.3100, 7207.000
283.5240, 7193.000
284.7380, 7226.000
285.9520, 7307.000
287.1650, 7171.000
288.3780, 7242.000
289.5920, 7209.000
290.8050, 7183.000
292.0170, 7295.000
293.2300, 7263.000
294.4430, 7251.000
295.6550, 7309.000
296.8670, 7256.000
298.0790, 7221.000
299.2910, 7341.000
300.5020, 7298.000
301.7140, 7271.000
302.9250, 7317.000
304.1360, 7375.000
305.3470, 7341.000
306.5580, 7449.000
307.7680, 7532.000
308.9780, 7461.000
310.1890, 7542.000
311.3990, 7436.000
312.6090, 7568.000
313.8180, 7551.000
315.0280, 7616.000
316.2370, 7811.000
317.4460, 7720.000
318.6550, 7728.000
319.8640, 7844.000
321.0730, 7764.000
322.2810, 8037.000
323.4890, 7996.000
324.6980, 8000.000
325.9060, 8099.000
327.1130, 7972.000
328.3210, 8038.000
329.5280, 8089.000
330.7360, 7940.000
331.9430, 8128.000
333.1500, 8150.000
334.3560, 8044.000
335.5630, 8195.000
336.7690, 8381.000
337.9760, 8340.000
339.1820, 8400.000
340.3870, 8458.000
341.5930, 8573.000
342.7990, 8542.000
344.0040, 8631.000
345.2090, 8593.000
346.4140, 8703.000
347.6190, 8534.000
348.8240, 8597.000
350.0280, 8387.000
351.2330, 8262.000
352.4370, 8318.000
353.6410, 8239.000
354.8440, 8277.000
356.0480, 8052.000
357.2520, 8066.000
358.4550, 8031.000
359.6580, 8075.000
360.8610, 8019.000
362.0640, 7994.000
363.2660, 8034.000
364.4690, 8083.000
365.6710, 7979.000
366.8730, 8077.000
368.0750, 8068.000
369.2770, 8041.000
370.4780, 7993.000
371.6800, 8040.000
372.8810, 7995.000
374.0820, 8119.000
375.2830, 8035.000
376.4830, 8086.000
377.6840, 8143.000
378.8840, 8053.000
380.0840, 8202.000
381.2840, 8008.000
382.4840, 8134.000
383.6840, 8053.000
384.8830, 8013.000
386.0830, 7889.000
387.2820, 7811.738
388.4810, 7820.000
389.6800, 7648.000
390.8780, 7511.000
392.0770, 7501.000
393.2750, 7508.000
394.4730, 7329.000
395.6710, 7237.000
396.8690, 7148.000
398.0660, 7011.000
399.2640, 6966.000
400.4610, 6919.000
401.6580, 6854.000
402.8550, 6798.072
404.0520, 6720.000
405.2490, 6687.000
406.4450, 6654.000
407.6410, 6639.000
408.8370, 6557.000
410.0330, 6477.000
411.2290, 6655.000
412.4240, 6523.000
413.6200, 6472.000
414.8150, 6543.000
416.0100, 6431.000
417.2050, 6454.000
418.4000, 6514.000
419.5940, 6560.000
420.7880, 6533.772
421.9830, 6529.369
423.1770, 6475.000
424.3700, 6431.000
425.5640, 6403.000
426.7580, 6325.000
427.9510, 6237.000
429.1440, 6047.000
430.3370, 6209.000
431.5300, 6029.000
432.7220, 6071.000
433.9150, 5977.000
435.1070, 5944.000
436.2990, 5853.000
437.4910, 5779.000
438.6830, 5744.000
439.8750, 5670.933
441.0660, 5642.852
442.2570, 5600.000
443.4480, 5583.000
444.6390, 5625.000
445.8300, 5594.000
447.0210, 5512.000
448.2110, 5540.000
449.4010, 5473.000
450.5910, 5447.000
451.7810, 5555.000
452.9710, 5582.000
454.1610, 5503.000
455.3500, 5595.000
456.5390, 5605.000
457.7280, 5578.000
458.9170, 5742.000
460.1060, 5626.000
461.2940, 5752.000
462.4830, 5686.000
463.6710, 5780.000
464.8590, 5703.000
466.0470, 5848.000
467.2350, 5703.000
468.4220, 5913.000
469.6090, 5895.000
470.7970, 5853.000
471.9840, 5969.000
473.1700, 5856.000
474.3570, 5960.000
475.5440, 5985.000
476.7300, 5927.000
477.9160, 5988.000
479.1020, 6047.000
480.2880, 5955.000
481.4740, 6014.000
482.6590, 6073.000
483.8440, 6030.000
485.0300, 6057.000
486.2140, 6074.000
487.3990, 6061.708
488.5840, 6132.000
489.7680, 6080.000
490.9530, 6116.000
492.1370, 6157.000
493.3210, 6137.000
494.5040, 6124.000
495.6880, 6145.000
496.8720, 6123.000
498.0550, 6127.000
499.2380, 6251.000
500.4210, 6130.000
501.6040, 6132.000
502.7860, 6182.000
503.9690, 6069.000
505.1510, 6135.000
506.3330, 6092.000
507.5150, 6093.000
508.6970, 6141.000
509.8780, 6040.000
511.0600, 6011.000
512.2410, 5915.000
513.4220, 6015.000
514.6030, 5913.000
515.7840, 5941.000
516.9640, 6033.000
518.1440, 5945.000
519.3250, 5922.000
520.5050, 5889.000
521.6850, 5845.907
522.8640, 5900.000
524.0440, 5834.000
525.2230, 5877.000
526.4020, 5970.000
527.5820, 5915.000
528.7600, 5935.000
529.9390, 5987.000
531.1180, 5990.000
532.2960, 6030.393
533.4740, 6037.000
534.6520, 6088.000
535.8300, 6150.000
537.0080, 6170.000
538.1850, 6259.000
539.3630, 6338.000
540.5400, 6412.000
541.7170, 6539.000
542.8940, 6679.000
544.0700, 6832.000
545.2470, 6957.000
546.4230, 7189.000
547.5990, 7332.000
548.7750, 7593.000
549.9510, 7867.000
551.1270, 8086.000
552.3020, 8419.000
553.4780, 8733.000
554.6530, 8968.000
555.8280, 9163.000
557.0030, 9438.000
558.1770, 9605.000
559.3520, 9632.000
560.5260, 9655.000
561.7000, 9509.000
562.8740, 9567.000
564.0480, 9440.000
565.2220, 9166.000
566.3950, 9063.000
567.5680, 8782.000
568.7420, 8590.000
569.9150, 8508.000
571.0870, 8156.000
572.2600, 8048.000
573.4320, 7867.000
574.6050, 7750.000
575.7770, 7636.000
576.9490, 7473.000
578.1210, 7450.000
579.2920, 7412.000
580.4640, 7223.000
581.6350, 7179.000
582.8060, 7295.000
583.9770, 7339.000
585.1480, 7310.000
586.3190, 7321.000
587.4890, 7337.000
588.6590, 7366.000
589.8290, 7374.573
590.9990, 7415.000
592.1690, 7414.000
593.3390, 7408.000
594.5080, 7450.000
595.6770, 7441.350
596.8470, 7455.000
598.0160, 7434.000
599.1840, 7416.000
600.3530, 7364.000
601.5210, 7311.000
602.6900, 7284.474
603.8580, 7248.090
605.0260, 7221.514
606.1930, 7203.000
607.3610, 7188.000
608.5280, 7176.000
609.6960, 7204.000
610.8630, 7230.000
612.0300, 7162.000
613.1970, 7244.000
614.3630, 7247.000
615.5300, 7206.000
616.6960, 7330.000
617.8620, 7316.000
619.0280, 7454.000
620.1940, 7469.000
621.3590, 7583.000
622.5250, 7572.000
623.6900, 7677.000
624.8550, 7699.000
626.0200, 7889.000
627.1850, 7915.000
628.3490, 8022.000
629.5140, 8322.000
630.6780, 8417.000
631.8420, 8721.000
633.0060, 8804.000
634.1700, 8980.000
635.3330, 9405.000
636.4970, 9605.000
637.6600, 9920.000
638.8230, 10356.00
639.9860, 10904.00
641.1490, 11361.00
642.3110, 11940.00
643.4740, 12730.00
644.6360, 13509.00
645.7980, 14275.00
646.9600, 15334.00
648.1220, 16412.00
649.2840, 17211.00
650.4450, 17974.00
651.6060, 18694.00
652.7670, 19270.00
653.9280, 19612.00
655.0890, 19749.00
656.2500, 19422.00
657.4100, 18764.00
658.5700, 18268.00
659.7300, 17098.00
660.8900, 16273.00
662.0500, 15219.00
663.2100, 14328.00
664.3690, 13563.00
665.5280, 12856.00
666.6880, 12361.00
667.8460, 12078.00
669.0050, 11677.00
670.1640, 11650.00
671.3220, 11512.00
672.4810, 11409.00
673.6390, 11488.00
674.7970, 11309.00
675.9540, 11580.00
677.1120, 11520.00
678.2690, 11769.00
679.4270, 11968.00
680.5840, 12217.00
681.7410, 12246.00
682.8980, 12585.00
684.0540, 12723.00
685.2110, 12706.00
686.3670, 13304.00
687.5230, 13266.00
688.6790, 13537.00
689.8350, 13726.00
690.9900, 13849.00
692.1460, 14078.00
693.3010, 14141.00
694.4560, 14373.00
695.6110, 14370.00
696.7660, 14590.00
697.9210, 14651.00
699.0750, 14634.00
700.2290, 15002.00
701.3840, 14812.00
702.5370, 14851.00
703.6910, 15109.00
704.8450, 15204.00
705.9980, 15090.00
707.1520, 15404.00
708.3050, 15297.00
709.4580, 15335.00
710.6110, 15433.00
711.7630, 15544.00
712.9160, 15584.00
714.0680, 15524.00
715.2200, 15486.29
716.3720, 15446.00
717.5240, 15257.00
718.6760, 14962.00
719.8270, 14804.00
720.9780, 14377.00
722.1300, 14349.00
723.2810, 14149.00
724.4310, 13624.00
725.5820, 13315.00
726.7330, 13074.00
727.8830, 12691.00
729.0330, 12455.00
730.1830, 12287.00
731.3330, 11852.00
732.4830, 11677.00
733.6320, 11445.00
734.7810, 11156.00
735.9310, 10957.00
737.0800, 10653.00
738.2290, 10561.00
739.3770, 10360.00
740.5260, 10306.00
741.6740, 10140.95
742.8220, 9919.000
743.9700, 9854.000
745.1180, 9699.000
746.2660, 9550.000
747.4130, 9442.000
748.5610, 9370.000
749.7080, 9297.000
750.8550, 9232.082
752.0020, 9200.000
753.1490, 9160.000
754.2950, 9108.000
755.4420, 9060.515
756.5880, 9042.000
757.7340, 8936.000
758.8800, 8893.000
760.0250, 8802.893
761.1710, 8791.000
762.3160, 8679.000
763.4620, 8627.000
764.6070, 8587.000
765.7520, 8517.000
766.8960, 8475.000
768.0410, 8364.000
769.1850, 8236.000
770.3300, 8218.000
771.4740, 8195.000
772.6180, 8081.000
773.7610, 8045.000
774.9050, 7989.959
776.0480, 7947.658
777.1920, 7879.000
778.3350, 7866.000
779.4780, 7786.000
780.6200, 7755.479
781.7630, 7713.000
782.9060, 7701.000
784.0480, 7650.000
785.1900, 7672.000
786.3320, 7559.000
787.4740, 7590.000
788.6150, 7401.000
789.7570, 7398.000
790.8980, 7302.000
792.0390, 7241.000
793.1800, 7184.000
794.3210, 7103.571
795.4620, 7049.000
796.6020, 6973.000
797.7420, 6894.000
798.8830, 6847.000
800.0230, 6697.000
801.1620, 6639.836
802.3020, 6625.000
803.4420, 6496.000
804.5810, 6470.000
805.7200, 6463.000
806.8590, 6274.000
807.9980, 6260.000
809.1370, 6198.000
810.2750, 6071.000
811.4140, 6147.000
812.5520, 6163.000
813.6900, 6110.000
814.8280, 6079.966
815.9650, 6028.096
817.1030, 5938.000
818.2400, 5897.000
819.3780, 5874.000
820.5150, 5815.000
821.6520, 5809.684
822.7880, 5808.000
823.9250, 5785.000
825.0610, 5830.000
826.1980, 5814.000
827.3340, 5802.227
828.4700, 5805.647
829.6050, 5763.000
830.7410, 5754.000
831.8760, 5732.000
833.0120, 5650.000
834.1470, 5653.000
835.2820, 5657.000
836.4160, 5714.000
837.5510, 5606.000
838.6860, 5608.000
839.8200, 5626.000
840.9540, 5600.000
842.0880, 5720.000
843.2220, 5677.000
844.3550, 5615.000
845.4890, 5721.000
846.6220, 5614.000
847.7550, 5618.000
848.8880, 5594.000
850.0210, 5734.000
851.1540, 5717.000
852.2860, 5730.000
853.4190, 5783.000
854.5510, 5784.000
855.6830, 5786.000
856.8150, 5801.000
857.9460, 5819.000
859.0780, 5831.000
860.2090, 5851.000
861.3410, 5879.000
862.4720, 5900.000
863.6020, 5951.000
864.7330, 6046.000
865.8640, 5990.000
866.9940, 6092.000
868.1240, 6093.000
869.2540, 6183.000
870.3840, 6233.000
871.5140, 6264.000
872.6440, 6446.000
873.7730, 6415.000
874.9020, 6444.000
876.0320, 6531.000
877.1600, 6677.000
878.2890, 6742.000
879.4180, 6845.000
880.5460, 6969.000
881.6750, 7058.000
882.8030, 7128.000
883.9310, 7183.000
885.0590, 7305.000
886.1860, 7375.892
887.3140, 7467.000
888.4410, 7551.000
889.5680, 7685.000
890.6950, 7754.000
891.8220, 7857.000
892.9490, 7895.000
894.0750, 8076.000
895.2020, 8159.000
896.3280, 8261.000
897.4540, 8261.000
898.5800, 8464.000
899.7050, 8603.000
900.8310, 8611.000
901.9560, 8715.000
903.0820, 8843.000
904.2070, 9026.000
905.3320, 9166.000
906.4560, 9170.000
907.5810, 9314.000
908.7050, 9396.476
909.8300, 9503.469
910.9540, 9606.000
912.0780, 9765.000
913.2010, 9900.000
914.3250, 10051.00
915.4480, 10012.00
916.5720, 10200.00
917.6950, 10209.00
918.8180, 10151.00
919.9410, 10181.00
921.0630, 10178.00
922.1860, 10176.00
923.3080, 10174.00
924.4300, 10140.00
925.5520, 10097.80
926.6740, 9887.000
927.7960, 9966.000
928.9170, 9853.000
930.0390, 9753.523
931.1600, 9884.000
932.2810, 9606.000
933.4020, 9498.000
934.5230, 9468.000
935.6430, 9200.000
936.7640, 9112.000
937.8840, 9000.000
939.0040, 8918.000
940.1240, 8842.000
941.2440, 8743.000
942.3630, 8578.000
943.4830, 8431.000
944.6020, 8508.000
945.7210, 8345.000
946.8400, 8279.000
947.9590, 8189.000
949.0770, 8033.000
950.1960, 7986.000
951.3140, 7921.000
952.4320, 7838.000
953.5500, 7701.000
954.6680, 7661.000
955.7860, 7515.000
956.9030, 7507.000
958.0210, 7357.000
959.1380, 7315.000
960.2550, 7191.000
961.3720, 6948.000
962.4890, 6906.000
963.6050, 6834.000
964.7220, 6809.000
965.8380, 6609.000
966.9540, 6682.000
968.0700, 6529.000
969.1860, 6459.000
970.3010, 6426.000
971.4170, 6379.000
972.5320, 6376.000
973.6470, 6371.000
974.7620, 6374.000
975.8770, 6195.000
976.9910, 6388.000
978.1060, 6104.000
979.2200, 6297.000
980.3340, 6202.000
981.4480, 6167.000
982.5620, 6188.000
983.6760, 6130.000
984.7890, 6165.000
985.9030, 6085.000
987.0160, 6262.000
988.1290, 6209.000
989.2420, 6336.000
990.3550, 6296.000
991.4670, 6435.000
992.5800, 6391.000
993.6920, 6468.000
994.8040, 6384.000
995.9160, 6487.000
997.0280, 6615.000
998.1390, 6695.000
999.2510, 6755.000
1000.362, 6830.000
1001.473, 6910.000
1002.584, 6987.000
1003.695, 7044.000
1004.805, 7100.000
1005.916, 7174.000
1007.026, 7408.000
1008.136, 7476.000
1009.246, 7583.000
1010.356, 7792.000
1011.466, 7837.000
1012.576, 8089.000
1013.685, 8321.000
1014.794, 8517.000
1015.903, 8618.000
1017.012, 8873.000
1018.121, 9148.000
1019.229, 9471.000
1020.338, 9590.000
1021.446, 9846.000
1022.554, 10083.00
1023.662, 10226.00
1024.770, 10350.00
1025.878, 10466.00
1026.985, 10571.00
1028.092, 10652.00
1029.200, 10758.00
1030.307, 10800.00
1031.413, 10890.00
1032.520, 10890.84
1033.627, 10811.00
1034.733, 10852.00
1035.839, 10745.00
1036.945, 10668.00
1038.051, 10501.00
1039.157, 10350.00
1040.262, 10050.00
1041.368, 9941.000
1042.473, 9686.000
1043.578, 9410.000
1044.683, 9201.000
1045.788, 9008.000
1046.893, 8780.000
1047.997, 8654.000
1049.101, 8345.000
1050.205, 8148.000
1051.309, 7806.000
1052.413, 7696.000
1053.517, 7533.000
1054.621, 7474.000
1055.724, 7252.000
1056.827, 7110.000
1057.930, 7063.000
1059.033, 6947.000
1060.136, 6882.000
1061.238, 6828.000
1062.341, 6674.000
1063.443, 6750.000
1064.545, 6682.000
1065.647, 6520.000
1066.749, 6494.000
1067.850, 6556.000
1068.952, 6538.000
1070.053, 6526.000
1071.154, 6387.000
1072.255, 6410.000
1073.356, 6360.000
1074.457, 6424.000
1075.557, 6301.000
1076.658, 6410.000
1077.758, 6235.000
1078.858, 6307.000
1079.958, 6351.000
1081.057, 6343.000
1082.157, 6275.000
1083.256, 6380.000
1084.356, 6357.000
1085.455, 6275.000
1086.554, 6301.000
1087.653, 6180.000
1088.751, 6188.000
1089.850, 6283.000
1090.948, 6273.000
1092.046, 6168.000
1093.144, 6286.000
1094.242, 6213.000
1095.340, 6225.000
1096.437, 6166.000
1097.534, 6195.000
1098.632, 6151.000
1099.729, 6210.000
1100.826, 6061.000
1101.922, 5958.000
1103.019, 6032.000
1104.115, 5907.000
1105.212, 5883.000
1106.308, 5951.000
1107.404, 5810.000
1108.499, 5804.000
1109.595, 5693.000
1110.691, 5724.000
1111.786, 5727.000
1112.881, 5667.000
1113.976, 5684.318
1115.071, 5638.000
1116.166, 5636.000
1117.260, 5584.000
1118.355, 5511.000
1119.449, 5483.000
1120.543, 5449.027
1121.637, 5441.000
1122.731, 5404.000
1123.824, 5455.000
1124.918, 5425.000
1126.011, 5416.000
1127.104, 5399.000
1128.197, 5385.496
1129.290, 5401.000
1130.382, 5364.000
1131.475, 5411.000
1132.567, 5402.000
1133.659, 5351.000
1134.751, 5400.000
1135.843, 5376.000
1136.935, 5367.000
1138.027, 5275.000
1139.118, 5403.000
1140.209, 5290.000
1141.300, 5357.000
1142.391, 5362.000
1143.482, 5322.000
1144.573, 5354.000
1145.663, 5331.000
1146.754, 5367.000
1147.844, 5397.000
1148.934, 5393.839
1150.024, 5385.032
1151.113, 5399.000
1152.203, 5353.000
1153.292, 5322.000
1154.381, 5357.000
1155.470, 5389.000
1156.559, 5402.000
1157.648, 5321.000
1158.737, 5388.000
1159.825, 5282.000
1160.913, 5317.000
1162.001, 5347.000
1163.089, 5247.000
1164.177, 5345.000
1165.265, 5311.000
1166.352, 5348.000
1167.440, 5315.000
1168.527, 5303.000
1169.614, 5346.000
1170.701, 5274.000
1171.788, 5277.000
1172.874, 5322.000
1173.961, 5282.000
1175.047, 5279.000
1176.133, 5351.000
1177.219, 5360.000
1178.305, 5325.000
1179.390, 5273.000
1180.476, 5367.000
1181.561, 5321.000
1182.646, 5292.000
1183.731, 5320.000
1184.816, 5324.000
1185.901, 5244.000
1186.985, 5325.000
1188.070, 5302.000
1189.154, 5356.000
1190.238, 5296.000
1191.322, 5371.000
1192.406, 5225.000
1193.489, 5419.000
1194.573, 5279.000
1195.656, 5331.000
1196.739, 5320.000
1197.822, 5322.000
1198.905, 5353.000
1199.988, 5352.000
1201.070, 5359.136
1202.153, 5288.000
1203.235, 5346.000
1204.317, 5360.000
1205.399, 5318.000
1206.481, 5363.000
1207.562, 5295.000
1208.644, 5313.000
1209.725, 5344.000
1210.806, 5280.000
1211.887, 5424.000
1212.968, 5375.000
1214.049, 5374.000
1215.129, 5262.000
1216.209, 5296.000
1217.290, 5293.000
1218.370, 5293.000
1219.450, 5300.000
1220.529, 5319.000
1221.609, 5400.000
1222.688, 5291.000
1223.768, 5396.000
1224.847, 5318.000
1225.926, 5376.000
1227.005, 5328.000
1228.083, 5297.000
1229.162, 5339.000
1230.240, 5304.000
1231.318, 5350.000
1232.396, 5376.000
1233.474, 5327.000
1234.552, 5365.000
1235.629, 5355.000
1236.707, 5364.000
1237.784, 5370.000
1238.861, 5330.000
1239.938, 5369.000
1241.015, 5432.000
1242.092, 5401.000
1243.168, 5371.000
1244.244, 5277.000
1245.321, 5261.000
1246.397, 5304.000
1247.473, 5312.000
1248.548, 5313.000
1249.624, 5372.000
1250.699, 5261.000
1251.775, 5213.000
1252.850, 5262.000
1253.925, 5282.000
1254.999, 5306.000
1256.074, 5303.000
1257.148, 5257.000
1258.223, 5282.000
1259.297, 5369.000
1260.371, 5401.000
1261.445, 5350.000
1262.519, 5290.000
1263.592, 5291.000
1264.666, 5366.000
1265.739, 5376.000
1266.812, 5404.000
1267.885, 5310.000
1268.958, 5335.000
1270.030, 5322.000
1271.103, 5294.000
1272.175, 5319.000
1273.247, 5373.000
1274.319, 5349.000
1275.391, 5414.000
1276.463, 5385.662
1277.535, 5314.000
1278.606, 5344.000
1279.677, 5358.000
1280.748, 5345.000
1281.819, 5347.000
1282.890, 5358.000
1283.961, 5296.000
1285.031, 5378.000
1286.102, 5417.000
1287.172, 5303.000
1288.242, 5447.000
1289.312, 5290.000
1290.381, 5398.000
1291.451, 5314.000
1292.520, 5337.000
1293.590, 5422.000
1294.659, 5462.000
1295.728, 5342.000
1296.797, 5346.000
1297.865, 5378.000
1298.934, 5373.000
1300.002, 5366.000
1301.070, 5415.000
1302.138, 5480.000
1303.206, 5407.000
1304.274, 5442.000
1305.341, 5322.000
1306.409, 5381.000
1307.476, 5462.000
1308.543, 5308.000
1309.610, 5386.000
1310.677, 5375.000
1311.744, 5385.000
1312.810, 5469.000
1313.877, 5288.000
1314.943, 5419.000
1316.009, 5354.000
1317.075, 5275.000
1318.140, 5312.000
1319.206, 5357.000
1320.272, 5317.000
1321.337, 5278.000
1322.402, 5378.000
1323.467, 5464.000
1324.532, 5324.000
1325.596, 5393.000
1326.661, 5340.000
1327.725, 5355.000
1328.790, 5426.000
1329.854, 5415.000
1330.918, 5271.000
1331.981, 5322.000
1333.045, 5343.000
1334.108, 5354.000
1335.172, 5361.000
1336.235, 5390.000
1337.298, 5387.000
1338.361, 5322.000
1339.423, 5337.000
1340.486, 5467.000
1341.548, 5414.000
1342.611, 5339.000
1343.673, 5448.000
1344.735, 5395.000
1345.796, 5380.000
1346.858, 5403.000
1347.919, 5347.000
1348.981, 5417.000
1350.042, 5385.000
1351.103, 5474.000
1352.164, 5274.000
1353.225, 5388.000
1354.285, 5391.000
1355.346, 5330.000
1356.406, 5409.000
1357.466, 5389.000
1358.526, 5329.000
1359.586, 5409.000
1360.645, 5434.000
1361.705, 5389.000
1362.764, 5343.000
1363.823, 5369.000
1364.882, 5358.472
1365.941, 5408.000
1367.000, 5366.000
1368.059, 5433.000
1369.117, 5370.000
1370.175, 5465.000
1371.233, 5337.000
1372.291, 5382.000
1373.349, 5400.000
1374.407, 5460.000
1375.464, 5395.000
1376.522, 5497.000
1377.579, 5362.000
1378.636, 5423.000
1379.693, 5471.000
1380.750, 5445.000
1381.806, 5473.930
1382.863, 5484.000
1383.919, 5459.000
1384.975, 5444.000
1386.031, 5426.000
1387.087, 5416.973
1388.143, 5354.000
1389.199, 5402.000
1390.254, 5463.000
1391.309, 5455.000
1392.364, 5413.000
1393.419, 5497.000
1394.474, 5439.000
1395.529, 5515.000
1396.583, 5519.000
1397.638, 5403.000
1398.692, 5428.000
1399.746, 5517.000
1400.800, 5361.000
1401.853, 5474.000
1402.907, 5481.000
1403.960, 5499.000
1405.014, 5450.000
1406.067, 5533.000
1407.120, 5423.000
1408.173, 5351.000
1409.225, 5454.000
1410.278, 5409.000
1411.330, 5502.000
1412.383, 5477.000
1413.435, 5431.000
1414.487, 5486.000
1415.538, 5471.000
1416.590, 5533.000
1417.641, 5575.000
1418.693, 5500.000
1419.744, 5453.000
1420.795, 5463.000
1421.846, 5446.032
1422.897, 5522.000
1423.947, 5461.000
1424.998, 5554.000
1426.048, 5526.000
1427.098, 5562.000
1428.148, 5511.000
1429.198, 5485.000
1430.247, 5596.000
1431.297, 5559.000
1432.346, 5469.000
1433.396, 5493.000
1434.445, 5608.000
1435.494, 5524.000
1436.542, 5572.000
1437.591, 5501.000
1438.639, 5577.000
1439.688, 5540.000
1440.736, 5584.000
1441.784, 5621.000
1442.832, 5643.000
1443.880, 5560.000
1444.927, 5564.000
1445.975, 5565.000
1447.022, 5571.000
1448.069, 5642.000
1449.116, 5630.000
1450.163, 5664.000
1451.209, 5628.000
1452.256, 5722.000
1453.302, 5657.000
1454.348, 5628.000
1455.394, 5565.000
1456.440, 5616.000
1457.486, 5666.000
1458.532, 5696.000
1459.577, 5533.000
1460.623, 5665.000
1461.668, 5627.000
1462.713, 5717.000
1463.758, 5584.000
1464.802, 5653.000
1465.847, 5611.000
1466.891, 5647.000
1467.936, 5569.000
1468.980, 5578.000
1470.024, 5650.000
1471.067, 5657.000
1472.111, 5655.000
1473.155, 5673.000
1474.198, 5651.000
1475.241, 5548.000
1476.284, 5646.000
1477.327, 5529.000
1478.370, 5697.000
1479.413, 5576.000
1480.455, 5557.000
1481.497, 5635.000
1482.540, 5565.000
1483.582, 5559.000
1484.624, 5605.000
1485.665, 5555.000
1486.707, 5574.000
1487.748, 5531.000
1488.790, 5607.000
1489.831, 5568.000
1490.872, 5617.000
1491.912, 5635.000
1492.953, 5523.000
1493.994, 5645.000
1495.034, 5510.000
1496.074, 5561.000
1497.114, 5571.000
1498.154, 5638.000
1499.194, 5547.000
1500.234, 5533.000
1501.273, 5619.000
1502.313, 5586.000
1503.352, 5669.000
1504.391, 5515.000
1505.430, 5629.000
1506.468, 5630.000
1507.507, 5537.000
1508.545, 5613.000
1509.584, 5535.000
1510.622, 5597.000
1511.660, 5606.000
1512.698, 5501.000
1513.735, 5607.000
1514.773, 5498.000
1515.810, 5621.000
1516.848, 5555.000
1517.885, 5593.000
1518.922, 5542.000
1519.958, 5489.000
1520.995, 5561.000
1522.032, 5549.000
1523.068, 5595.000
1524.104, 5629.000
1525.140, 5618.000
1526.176, 5594.000
1527.212, 5547.000
1528.248, 5554.000
1529.283, 5623.000
1530.318, 5659.000
1531.353, 5532.000
1532.389, 5668.000
1533.423, 5588.000
1534.458, 5487.000
1535.493, 5485.000
1536.527, 5593.000
1537.561, 5549.000
1538.596, 5493.000
1539.630, 5550.000
1540.663, 5449.000
1541.697, 5579.000
1542.731, 5615.000
1543.764, 5480.000
1544.797, 5572.000
1545.830, 5562.000
##END=



