##NAMES=Astrophyllite
##RRUFFID=R060202
##IDEAL CHEMISTRY=K_2_NaFe^2+^_7_Ti^4+^_2_(Si_4_O_12_)_2_O_2_(OH)_4_F
##LOCALITY=Demix Quarry, Mont Saint-Hilaire, Rouville County, Quebec, Canada
##OWNER=RRUFF
##SOURCE=Royal Ontario Museum
##DESCRIPTION=Aggregate of brown splintered wafers
##STATUS=The identification of this mineral has been confirmed by X-ray diffraction and chemical analysis
##URL=rruff.info/R060202
##MEASURED CHEMISTRY=(K_0.56_Na_0.38_Ca_0.06_)_3_(Fe^2+^_0.52_Mn_0.44_Mg_0.04_)_7_(Ti_0.75_Zr_0.15_Al_0.15_)_2_Si_8_O_24_(O_0.27_OH_0.73_)_7_
##PIN_ID=M00255
##ORIENTATION=Laser parallel to (0 1 1). Fiducial mark perpendicular to laser is parallel to a [1 0 0]
86.07200, 29607.00
87.30800, 30200.00
88.54200, 30766.00
89.77700, 31604.00
91.01200, 32537.00
92.24600, 34121.00
93.48000, 35160.00
94.71400, 36448.00
95.94800, 38326.00
97.18200, 39641.00
98.41600, 40497.00
99.64900, 41009.79
100.8830, 41707.00
102.1160, 40628.00
103.3490, 39611.00
104.5820, 38282.00
105.8150, 37613.00
107.0470, 36844.00
108.2800, 36510.00
109.5120, 36969.00
110.7440, 37343.00
111.9760, 34370.00
113.2080, 31987.00
114.4400, 31389.00
115.6710, 31974.00
116.9030, 32185.00
118.1340, 32496.00
119.3650, 32510.00
120.5960, 32602.00
121.8270, 32450.00
123.0580, 32098.00
124.2880, 32575.00
125.5190, 32639.00
126.7490, 32391.00
127.9790, 32810.00
129.2090, 32943.29
130.4390, 33167.00
131.6680, 33361.00
132.8980, 32974.00
134.1270, 32628.00
135.3560, 32463.00
136.5850, 32513.00
137.8140, 32127.53
139.0430, 31855.00
140.2710, 31402.00
141.5000, 31356.00
142.7280, 30630.00
143.9560, 30244.00
145.1840, 29985.00
146.4120, 30128.00
147.6390, 30194.00
148.8670, 29920.00
150.0940, 30008.00
151.3210, 30012.00
152.5490, 30247.00
153.7750, 30363.11
155.0020, 30659.00
156.2290, 30843.00
157.4550, 30897.00
158.6810, 31349.00
159.9080, 31486.00
161.1340, 31885.00
162.3590, 32306.00
163.5850, 32854.00
164.8110, 33306.00
166.0360, 33551.00
167.2610, 33556.00
168.4860, 33672.00
169.7110, 33511.00
170.9360, 33533.00
172.1610, 33303.00
173.3850, 33015.00
174.6100, 32246.00
175.8340, 32105.00
177.0580, 31340.00
178.2820, 31296.00
179.5050, 30950.00
180.7290, 30822.00
181.9520, 30680.00
183.1760, 30704.00
184.3990, 30572.00
185.6220, 30693.00
186.8450, 30621.00
188.0670, 31032.00
189.2900, 31046.00
190.5120, 31225.00
191.7340, 31363.00
192.9560, 31648.00
194.1780, 31901.00
195.4000, 32243.00
196.6220, 32644.30
197.8430, 32974.00
199.0640, 33589.00
200.2860, 33986.00
201.5070, 34583.00
202.7270, 35603.00
203.9480, 35974.00
205.1690, 35818.00
206.3890, 35326.00
207.6090, 35086.00
208.8290, 35773.00
210.0490, 36275.00
211.2690, 36930.00
212.4890, 37806.00
213.7080, 38582.00
214.9280, 39283.00
216.1470, 39993.98
217.3660, 40569.00
218.5850, 41210.00
219.8030, 41617.00
221.0220, 42061.00
222.2400, 42695.00
223.4590, 42903.00
224.6770, 43342.00
225.8950, 43494.00
227.1120, 44034.00
228.3300, 44317.00
229.5480, 44689.00
230.7650, 44431.00
231.9820, 44135.00
233.1990, 44041.00
234.4160, 43830.00
235.6330, 43337.00
236.8490, 42979.00
238.0660, 42297.00
239.2820, 41689.00
240.4980, 41003.00
241.7140, 40576.00
242.9300, 39765.00
244.1460, 39085.00
245.3610, 38495.78
246.5770, 37592.00
247.7920, 37195.00
249.0070, 36662.00
250.2220, 35979.00
251.4370, 35703.00
252.6510, 35075.00
253.8660, 34913.00
255.0800, 34698.00
256.2940, 34501.00
257.5080, 34278.00
258.7220, 33888.00
259.9360, 33784.32
261.1490, 33668.51
262.3630, 33406.00
263.5760, 32973.00
264.7890, 32631.69
266.0020, 32111.00
267.2150, 32091.00
268.4270, 31761.00
269.6400, 31608.00
270.8520, 31748.00
272.0640, 31300.00
273.2760, 31214.00
274.4880, 30774.00
275.7000, 30809.00
276.9120, 30867.00
278.1230, 30705.00
279.3340, 30712.00
280.5450, 30692.00
281.7560, 30662.00
282.9670, 30730.00
284.1780, 30891.00
285.3880, 30826.00
286.5980, 30990.00
287.8090, 30758.00
289.0190, 30981.00
290.2290, 31333.00
291.4380, 31348.00
292.6480, 31796.00
293.8570, 32227.00
295.0670, 31602.00
296.2760, 31789.00
297.4850, 31904.00
298.6930, 32044.00
299.9020, 32059.00
301.1110, 32137.00
302.3190, 32308.00
303.5270, 32443.95
304.7350, 32545.00
305.9430, 32866.00
307.1510, 32937.00
308.3580, 33190.00
309.5660, 33353.75
310.7730, 33485.00
311.9800, 33658.00
313.1870, 33766.00
314.3940, 33882.09
315.6010, 34182.00
316.8070, 33929.00
318.0130, 33872.00
319.2200, 33852.00
320.4260, 34044.00
321.6310, 33941.00
322.8370, 33927.00
324.0430, 34142.00
325.2480, 33912.00
326.4540, 33868.00
327.6590, 33918.00
328.8640, 33888.73
330.0680, 33879.00
331.2730, 34057.00
332.4780, 34088.00
333.6820, 34232.00
334.8860, 34301.00
336.0900, 34431.00
337.2940, 34403.00
338.4980, 34797.00
339.7010, 34664.00
340.9050, 34782.00
342.1080, 34663.00
343.3110, 34679.00
344.5140, 34366.00
345.7170, 34415.00
346.9200, 34075.00
348.1220, 34472.00
349.3240, 34111.00
350.5270, 34107.00
351.7290, 34204.00
352.9310, 34184.00
354.1320, 34188.56
355.3340, 34114.00
356.5350, 34179.00
357.7370, 34222.00
358.9380, 34273.59
360.1390, 34165.00
361.3400, 34265.00
362.5400, 34376.00
363.7410, 34256.00
364.9410, 34480.00
366.1410, 34493.00
367.3410, 34357.00
368.5410, 34576.00
369.7410, 34186.00
370.9400, 34074.00
372.1400, 34326.00
373.3390, 34363.00
374.5380, 34534.00
375.7370, 34286.00
376.9360, 34333.00
378.1350, 34430.00
379.3330, 34257.00
380.5310, 34228.00
381.7300, 34133.45
382.9280, 34033.75
384.1260, 33822.00
385.3230, 33844.00
386.5210, 33553.00
387.7180, 33398.00
388.9160, 33261.00
390.1130, 32826.00
391.3100, 32700.00
392.5060, 32584.00
393.7030, 32294.00
394.9000, 31854.00
396.0960, 31530.00
397.2920, 31476.00
398.4880, 31430.00
399.6840, 30986.00
400.8800, 30907.00
402.0750, 30545.00
403.2710, 30485.00
404.4660, 30216.00
405.6610, 29984.00
406.8560, 30065.00
408.0510, 29802.00
409.2450, 29532.00
410.4400, 29442.00
411.6340, 29225.00
412.8280, 29401.00
414.0220, 29150.00
415.2160, 29143.00
416.4100, 28929.00
417.6030, 28923.00
418.7970, 28886.00
419.9900, 28898.00
421.1830, 28896.00
422.3760, 28629.00
423.5690, 28811.00
424.7610, 28551.00
425.9540, 28695.00
427.1460, 28574.00
428.3380, 28400.00
429.5300, 28629.00
430.7220, 28549.00
431.9140, 28385.00
433.1050, 28370.00
434.2970, 28248.00
435.4880, 28238.00
436.6790, 28184.00
437.8700, 28344.00
439.0610, 28339.00
440.2510, 28364.00
441.4420, 28353.00
442.6320, 28311.00
443.8220, 28557.00
445.0120, 28485.00
446.2020, 28663.00
447.3910, 28693.00
448.5810, 28357.00
449.7700, 28556.00
450.9600, 28555.00
452.1490, 28620.00
453.3370, 28629.00
454.5260, 28869.00
455.7150, 28942.00
456.9030, 28873.00
458.0910, 29194.00
459.2800, 29201.00
460.4670, 28926.00
461.6550, 29303.00
462.8430, 29204.00
464.0300, 29067.00
465.2180, 29527.00
466.4050, 29520.00
467.5920, 29407.00
468.7790, 29597.00
469.9650, 29652.00
471.1520, 29621.00
472.3380, 29663.00
473.5250, 29771.00
474.7110, 29644.00
475.8970, 29575.00
477.0820, 29698.00
478.2680, 29583.00
479.4540, 29445.00
480.6390, 29829.00
481.8240, 29787.00
483.0090, 29932.34
484.1940, 29887.00
485.3780, 30061.00
486.5630, 30055.00
487.7470, 29820.00
488.9320, 30009.00
490.1160, 29961.00
491.3000, 30084.00
492.4830, 30054.00
493.6670, 29884.00
494.8500, 30179.00
496.0340, 30274.00
497.2170, 29950.00
498.4000, 30328.00
499.5820, 30034.00
500.7650, 30303.00
501.9480, 30504.00
503.1300, 30452.00
504.3120, 30311.00
505.4940, 30192.00
506.6760, 30409.00
507.8580, 30300.00
509.0390, 30415.00
510.2210, 30378.00
511.4020, 30410.00
512.5830, 30293.00
513.7640, 30417.00
514.9450, 30368.00
516.1250, 30162.00
517.3060, 30396.00
518.4860, 30240.00
519.6660, 30456.00
520.8460, 30494.82
522.0260, 30640.00
523.2060, 30574.00
524.3850, 30723.00
525.5650, 30634.00
526.7440, 30867.00
527.9230, 30908.00
529.1020, 30820.00
530.2810, 31112.00
531.4590, 31277.00
532.6380, 31353.00
533.8160, 31321.00
534.9940, 31726.00
536.1720, 31848.00
537.3500, 32076.00
538.5270, 32072.00
539.7050, 32660.00
540.8820, 32879.00
542.0590, 32841.00
543.2360, 33420.00
544.4130, 33811.00
545.5900, 34307.00
546.7660, 34717.00
547.9430, 35231.00
549.1190, 35975.00
550.2950, 36422.00
551.4710, 36816.96
552.6470, 37343.00
553.8220, 37406.00
554.9980, 37773.00
556.1730, 37973.00
557.3480, 38117.00
558.5230, 38273.00
559.6980, 38236.00
560.8730, 37816.00
562.0470, 37817.00
563.2220, 37609.00
564.3960, 37520.00
565.5700, 37289.00
566.7440, 37048.00
567.9170, 36745.00
569.0910, 36540.00
570.2640, 36247.00
571.4380, 36155.00
572.6110, 36119.00
573.7840, 36043.00
574.9570, 35874.00
576.1290, 35885.00
577.3020, 35986.00
578.4740, 35797.00
579.6460, 35957.00
580.8180, 35969.00
581.9900, 36083.00
583.1620, 36189.63
584.3330, 36124.00
585.5040, 36446.00
586.6760, 36627.00
587.8470, 36852.00
589.0180, 36895.00
590.1880, 37229.00
591.3590, 37343.00
592.5290, 37482.00
593.7000, 37435.00
594.8700, 37170.00
596.0400, 37397.00
597.2090, 37178.00
598.3790, 37409.00
599.5490, 37142.00
600.7180, 37140.00
601.8870, 37211.00
603.0560, 37096.00
604.2250, 37133.00
605.3940, 37071.12
606.5620, 37256.00
607.7300, 36986.00
608.8990, 37151.00
610.0670, 37206.00
611.2350, 37590.00
612.4020, 37951.00
613.5700, 37487.00
614.7370, 37671.00
615.9050, 37564.00
617.0720, 37786.00
618.2390, 38294.00
619.4060, 38283.00
620.5720, 38329.00
621.7390, 38891.00
622.9050, 38811.00
624.0710, 39112.00
625.2370, 39419.00
626.4030, 39785.00
627.5690, 40130.16
628.7340, 40621.00
629.9000, 40938.00
631.0650, 41398.00
632.2300, 41938.00
633.3950, 42657.00
634.5600, 43158.61
635.7240, 43906.12
636.8890, 44476.00
638.0530, 45489.00
639.2170, 46479.00
640.3810, 47554.00
641.5450, 48983.00
642.7080, 50529.00
643.8720, 51817.00
645.0350, 53860.00
646.1980, 55687.00
647.3610, 57732.00
648.5240, 59643.00
649.6870, 60699.00
650.8490, 62296.00
652.0120, 63000.00
653.1740, 63272.00
654.3360, 62836.00
655.4980, 61265.00
656.6600, 59860.00
657.8210, 58447.00
658.9830, 56553.00
660.1440, 54679.00
661.3050, 53294.00
662.4660, 51656.00
663.6270, 50921.00
664.7870, 50014.00
665.9480, 49115.00
667.1080, 49009.00
668.2680, 48325.00
669.4280, 48271.00
670.5880, 48313.00
671.7480, 48029.00
672.9070, 48006.00
674.0670, 48399.00
675.2260, 48501.00
676.3850, 48561.00
677.5440, 48917.00
678.7030, 48931.00
679.8610, 49259.00
681.0200, 49690.00
682.1780, 49852.00
683.3360, 50518.00
684.4940, 50721.00
685.6520, 50969.00
686.8090, 51511.00
687.9670, 51614.00
689.1240, 51892.18
690.2810, 52009.00
691.4380, 52163.00
692.5950, 52345.00
693.7520, 52464.30
694.9080, 52586.98
696.0650, 52726.00
697.2210, 52786.00
698.3770, 52880.97
699.5330, 52972.21
700.6880, 53007.00
701.8440, 52912.00
702.9990, 53051.00
704.1550, 52852.00
705.3100, 53299.00
706.4650, 53174.00
707.6190, 53157.00
708.7740, 53465.00
709.9290, 53564.00
711.0830, 53290.00
712.2370, 53158.00
713.3910, 53180.00
714.5450, 53015.00
715.6980, 52372.00
716.8520, 52305.00
718.0050, 52474.00
719.1580, 51076.00
720.3110, 50978.00
721.4640, 50110.00
722.6170, 50106.00
723.7700, 49231.00
724.9220, 48666.00
726.0740, 48619.00
727.2260, 48030.00
728.3780, 47661.00
729.5300, 46921.00
730.6810, 46178.00
731.8330, 46036.00
732.9840, 45922.00
734.1350, 45359.00
735.2860, 45007.00
736.4370, 44811.00
737.5880, 44235.00
738.7380, 44384.00
739.8880, 44134.00
741.0390, 43615.00
742.1890, 43554.00
743.3380, 43462.00
744.4880, 43306.00
745.6380, 42980.00
746.7870, 43038.00
747.9360, 42767.00
749.0850, 42867.00
750.2340, 42527.00
751.3830, 42586.00
752.5310, 42747.00
753.6800, 42492.00
754.8280, 42119.00
755.9760, 42423.00
757.1240, 41772.00
758.2720, 41939.00
759.4190, 41726.00
760.5670, 41231.00
761.7140, 41452.00
762.8610, 41407.00
764.0080, 41188.01
765.1550, 41043.70
766.3020, 40933.00
767.4480, 40477.00
768.5950, 40352.00
769.7410, 40198.00
770.8870, 39767.00
772.0330, 40275.00
773.1780, 39532.00
774.3240, 39684.00
775.4690, 39422.00
776.6140, 39281.00
777.7590, 39572.00
778.9040, 39536.00
780.0490, 39501.00
781.1940, 39205.00
782.3380, 39099.00
783.4820, 38897.00
784.6260, 38789.00
785.7700, 38734.00
786.9140, 38806.00
788.0580, 38712.00
789.2010, 38895.00
790.3450, 38607.00
791.4880, 38978.00
792.6310, 38297.00
793.7730, 38442.00
794.9160, 38216.00
796.0590, 38288.00
797.2010, 38158.00
798.3430, 37983.00
799.4850, 38146.00
800.6270, 37948.00
801.7690, 37764.00
802.9100, 37651.00
804.0520, 37898.00
805.1930, 37839.00
806.3340, 37709.00
807.4750, 37448.00
808.6160, 37461.00
809.7560, 37372.00
810.8970, 37364.00
812.0370, 37336.96
813.1770, 37320.00
814.3170, 37302.00
815.4570, 37266.00
816.5960, 37272.00
817.7360, 37116.00
818.8750, 37270.00
820.0140, 37496.00
821.1530, 37269.00
822.2920, 37263.00
823.4310, 37586.00
824.5690, 37076.00
825.7070, 37131.00
826.8460, 37007.00
827.9840, 36820.00
829.1220, 37134.00
830.2590, 37309.00
831.3970, 37357.00
832.5340, 37289.00
833.6710, 37442.00
834.8080, 37239.00
835.9450, 37320.00
837.0820, 37066.00
838.2190, 37259.00
839.3550, 37205.00
840.4910, 37465.00
841.6270, 37564.00
842.7630, 37427.00
843.8990, 37586.00
845.0350, 37419.00
846.1700, 37717.00
847.3060, 37560.00
848.4410, 37583.00
849.5760, 37926.00
850.7100, 37789.71
851.8450, 37847.00
852.9800, 37916.00
854.1140, 38040.00
855.2480, 38288.00
856.3820, 38428.00
857.5160, 38504.00
858.6500, 38622.00
859.7830, 38566.00
860.9170, 38825.00
862.0500, 39106.00
863.1830, 39124.00
864.3160, 39440.95
865.4480, 40243.00
866.5810, 39537.00
867.7130, 40312.00
868.8460, 39620.00
869.9780, 39713.00
871.1100, 39765.00
872.2410, 40152.00
873.3730, 40513.00
874.5050, 40229.00
875.6360, 40463.00
876.7670, 40731.00
877.8980, 41024.00
879.0290, 41063.00
880.1590, 41339.00
881.2900, 41392.00
882.4200, 41538.00
883.5500, 41620.00
884.6800, 41889.00
885.8100, 41888.00
886.9400, 42286.00
888.0690, 42500.00
889.1990, 42307.00
890.3280, 42818.00
891.4570, 43058.00
892.5860, 43437.00
893.7140, 43880.00
894.8430, 43582.00
895.9710, 43992.00
897.1000, 44328.00
898.2280, 44241.00
899.3560, 44640.00
900.4830, 44838.00
901.6110, 45038.00
902.7380, 45466.00
903.8660, 45390.00
904.9930, 45739.00
906.1200, 45962.00
907.2460, 46229.00
908.3730, 46319.00
909.5000, 46770.00
910.6260, 46763.00
911.7520, 47213.00
912.8780, 47536.00
914.0040, 47424.00
915.1290, 47710.00
916.2550, 47712.00
917.3800, 47705.00
918.5050, 47749.00
919.6300, 47907.00
920.7550, 47880.00
921.8800, 48021.00
923.0040, 48173.00
924.1290, 47721.00
925.2530, 47871.00
926.3770, 47904.00
927.5010, 47675.00
928.6250, 47774.00
929.7480, 47842.00
930.8720, 47602.00
931.9950, 47288.00
933.1180, 47108.00
934.2410, 47244.00
935.3640, 47162.00
936.4860, 47151.00
937.6090, 46816.00
938.7310, 46799.00
939.8530, 46578.00
940.9750, 46452.00
942.0970, 46620.00
943.2180, 46196.00
944.3400, 46365.00
945.4610, 46167.00
946.5820, 45958.83
947.7030, 46160.00
948.8240, 45711.00
949.9450, 45252.00
951.0650, 45406.00
952.1860, 45287.00
953.3060, 45041.00
954.4260, 44735.00
955.5460, 44503.00
956.6650, 44440.00
957.7850, 44035.00
958.9040, 44142.00
960.0230, 43667.00
961.1420, 43860.00
962.2610, 43438.00
963.3800, 43214.00
964.4990, 43366.00
965.6170, 42906.00
966.7350, 42830.00
967.8530, 42742.00
968.9710, 42672.00
970.0890, 43022.00
971.2070, 42680.00
972.3240, 42453.00
973.4410, 42712.00
974.5580, 42430.00
975.6750, 42542.00
976.7920, 42671.00
977.9090, 42796.00
979.0250, 42447.00
980.1410, 42714.00
981.2580, 42377.00
982.3740, 42780.00
983.4890, 42598.00
984.6050, 42749.00
985.7200, 42893.00
986.8360, 42875.00
987.9510, 42938.00
989.0660, 43047.00
990.1810, 43296.00
991.2950, 43458.00
992.4100, 43390.00
993.5240, 43861.00
994.6390, 43664.00
995.7530, 44180.00
996.8660, 44367.00
997.9800, 44290.00
999.0940, 44890.00
1000.207, 45080.00
1001.320, 45309.00
1002.433, 45732.00
1003.546, 46281.00
1004.659, 46318.00
1005.772, 46754.00
1006.884, 47313.00
1007.996, 47500.00
1009.108, 47756.00
1010.220, 48348.00
1011.332, 49012.00
1012.444, 49291.00
1013.555, 49882.00
1014.666, 50382.00
1015.777, 50962.00
1016.888, 51767.00
1017.999, 52244.00
1019.110, 53045.00
1020.220, 53344.00
1021.331, 53820.00
1022.441, 54339.00
1023.551, 54509.00
1024.661, 54750.00
1025.770, 54716.00
1026.880, 56134.00
1027.989, 56435.00
1029.098, 56281.00
1030.207, 55472.00
1031.316, 55134.00
1032.425, 55032.00
1033.533, 54704.00
1034.642, 54219.00
1035.750, 54115.00
1036.858, 53610.00
1037.966, 52818.00
1039.073, 52452.00
1040.181, 51860.00
1041.288, 51219.00
1042.396, 50913.00
1043.503, 50120.00
1044.610, 49943.00
1045.716, 49556.00
1046.823, 49091.00
1047.929, 48285.00
1049.036, 48208.00
1050.142, 47712.00
1051.248, 47440.00
1052.353, 47180.00
1053.459, 47028.00
1054.564, 46731.00
1055.670, 46714.00
1056.775, 46350.00
1057.880, 46014.00
1058.985, 46259.00
1060.089, 45899.00
1061.194, 45590.00
1062.298, 46025.00
1063.402, 45553.00
1064.506, 45486.00
1065.610, 45907.00
1066.713, 45420.00
1067.817, 45481.00
1068.920, 45654.00
1070.023, 45920.00
1071.126, 45440.00
1072.229, 45561.00
1073.332, 45237.00
1074.435, 45316.00
1075.537, 45212.00
1076.639, 45469.00
1077.741, 45247.00
1078.843, 45434.00
1079.945, 45378.00
1081.046, 45484.00
1082.148, 45504.00
1083.249, 45603.00
1084.350, 45684.82
1085.451, 45764.00
1086.551, 45717.00
1087.652, 45730.00
1088.752, 45422.00
1089.853, 45381.00
1090.953, 45647.00
1092.053, 45320.00
1093.152, 45376.00
1094.252, 45142.00
1095.351, 45430.00
1096.451, 45230.00
1097.550, 45284.00
1098.649, 45779.00
1099.748, 45257.00
1100.846, 46177.00
1101.945, 45044.00
1103.043, 44800.00
1104.141, 45116.00
1105.239, 44989.00
1106.337, 44511.00
1107.434, 44983.00
1108.532, 44695.00
1109.629, 44690.00
1110.726, 44849.00
1111.823, 44476.00
1112.920, 44603.00
1114.017, 44867.00
1115.113, 44575.00
1116.210, 44234.00
1117.306, 44834.00
1118.402, 44448.00
1119.498, 44285.00
1120.593, 44704.00
1121.689, 44682.00
1122.784, 44599.00
1123.879, 44990.00
1124.974, 45004.00
1126.069, 44798.00
1127.164, 44575.00
1128.259, 44988.00
1129.353, 44752.00
1130.447, 44789.00
1131.541, 44559.00
1132.635, 44677.00
1133.729, 44732.00
1134.822, 44555.00
1135.916, 44699.00
1137.009, 44843.00
1138.102, 44858.00
1139.195, 45044.00
1140.288, 44792.00
1141.380, 44783.00
1142.473, 44683.00
1143.565, 44967.00
1144.657, 45014.00
1145.749, 45085.00
1146.841, 45105.00
1147.932, 45088.00
1149.024, 44561.00
1150.115, 44749.00
1151.206, 45128.00
1152.297, 44750.00
1153.388, 45568.00
1154.479, 45122.00
1155.569, 45033.00
1156.659, 45268.00
1157.750, 45275.00
1158.839, 45674.43
1159.929, 45450.10
1161.019, 45468.07
1162.108, 45249.00
1163.198, 45273.00
1164.287, 45549.00
1165.376, 45626.00
1166.465, 45674.00
1167.553, 45685.00
1168.642, 45473.00
1169.730, 45542.00
1170.818, 45704.00
1171.906, 45620.00
1172.994, 45825.00
1174.082, 45831.00
1175.170, 45786.00
1176.257, 45990.00
1177.344, 45531.00
1178.431, 46012.00
1179.518, 45768.00
1180.605, 46134.00
1181.691, 46008.00
1182.778, 46303.00
1183.864, 45879.00
1184.950, 46101.00
1186.036, 46039.00
1187.122, 46154.00
1188.207, 46238.44
1189.292, 45965.00
1190.378, 46345.00
1191.463, 46202.00
1192.548, 46149.00
1193.632, 46323.00
1194.717, 46109.00
1195.801, 46011.00
1196.886, 46231.00
1197.970, 46465.00
1199.054, 46959.00
1200.137, 47240.00
1201.221, 46530.00
1202.305, 47062.00
1203.388, 47136.00
1204.471, 46772.00
1205.554, 47306.00
1206.637, 47368.00
1207.719, 47157.81
1208.802, 47372.00
1209.884, 47103.00
1210.966, 47139.00
1212.048, 47782.00
1213.130, 47448.27
1214.212, 47453.00
1215.293, 47526.00
1216.374, 47323.00
1217.456, 47748.00
1218.536, 47825.00
1219.617, 48362.00
1220.698, 47702.00
1221.778, 47838.00
1222.859, 47851.00
1223.939, 48594.00
1225.019, 48157.00
1226.099, 47732.00
1227.178, 48277.00
1228.258, 47901.00
1229.337, 47751.00
1230.417, 48055.00
1231.496, 48034.00
1232.574, 48190.00
1233.653, 48323.00
1234.732, 48604.00
1235.810, 48017.00
1236.888, 48066.00
1237.966, 48346.00
1239.044, 48060.00
1240.122, 48362.00
1241.199, 48492.00
1242.277, 48526.00
1243.354, 48377.32
1244.431, 47760.00
1245.508, 47997.00
1246.585, 47924.00
1247.661, 48122.00
1248.738, 47995.00
1249.814, 47683.00
1250.890, 48184.00
1251.966, 47742.00
1253.042, 48067.00
1254.117, 48126.00
1255.193, 48168.00
1256.268, 48262.00
1257.343, 48232.00
1258.418, 48402.00
1259.493, 48298.00
1260.567, 48333.00
1261.642, 48583.00
1262.716, 48447.00
1263.790, 48715.00
1264.864, 48567.00
1265.938, 48548.00
1267.011, 48579.00
1268.085, 48457.00
1269.158, 48444.00
1270.231, 48803.00
1271.304, 48969.00
1272.377, 49077.00
1273.450, 48701.00
1274.522, 49015.00
1275.594, 48992.00
1276.666, 48643.00
1277.738, 48867.00
1278.810, 48892.00
1279.882, 49184.00
1280.953, 49173.00
1282.025, 49127.00
1283.096, 49044.00
1284.167, 49450.00
1285.238, 48874.00
1286.308, 49304.00
1287.379, 49492.00
1288.449, 49282.00
1289.519, 49244.00
1290.589, 49338.00
1291.659, 49373.00
1292.729, 49336.00
1293.798, 49519.00
1294.868, 49648.00
1295.937, 49635.00
1297.006, 49580.00
1298.075, 49580.29
1299.143, 49595.00
1300.212, 49526.00
1301.280, 49426.00
1302.348, 49540.00
1303.416, 50020.00
1304.484, 49548.00
1305.552, 50125.00
1306.620, 49934.00
1307.687, 49775.00
1308.754, 49740.00
1309.821, 49743.76
1310.888, 50282.00
1311.955, 49905.00
1313.021, 50255.00
1314.088, 50357.00
1315.154, 49828.00
1316.220, 50590.00
1317.286, 50149.00
1318.352, 50239.00
1319.417, 50132.00
1320.483, 50379.00
1321.548, 49988.00
1322.613, 50385.00
1323.678, 50321.00
1324.743, 50528.00
1325.807, 50533.00
1326.872, 50535.00
1327.936, 50615.00
1329.000, 50695.00
1330.064, 50630.00
1331.128, 50874.00
1332.191, 50600.00
1333.255, 50767.00
1334.318, 50477.00
1335.381, 50489.00
1336.444, 50456.00
1337.507, 50826.00
1338.569, 50705.00
1339.632, 50930.00
1340.694, 50808.00
1341.756, 51082.00
1342.818, 50899.00
1343.880, 50934.00
1344.941, 51183.00
1346.003, 51422.00
1347.064, 51574.02
1348.125, 51728.80
1349.186, 51926.00
1350.247, 51950.00
1351.308, 51976.00
1352.368, 52088.00
1353.428, 51832.00
1354.489, 52149.00
1355.549, 52095.00
1356.608, 52929.00
1357.668, 52085.00
1358.727, 52410.00
1359.787, 52209.00
1360.846, 51922.00
1361.905, 52627.00
1362.964, 51880.00
1364.022, 52171.00
1365.081, 52524.00
1366.139, 52314.00
1367.197, 52369.00
1368.255, 52423.00
1369.313, 52396.18
1370.371, 52478.64
1371.428, 52483.50
1372.486, 52547.79
1373.543, 52562.00
1374.600, 52502.00
1375.657, 52506.49
1376.713, 52543.00
1377.770, 52485.00
1378.826, 52133.00
1379.882, 52225.00
1380.938, 52077.00
1381.994, 52116.00
1383.050, 52138.94
1384.106, 52247.00
1385.161, 52252.00
1386.216, 52216.00
1387.271, 52364.00
1388.326, 52371.00
1389.381, 52131.00
1390.435, 52558.00
1391.490, 52408.00
1392.544, 52543.00
1393.598, 52677.00
1394.652, 52716.00
1395.705, 52737.22
1396.759, 52663.01
1397.812, 52710.00
1398.866, 52477.00
1399.919, 52510.00
1400.972, 52575.00
1402.024, 52719.00
1403.077, 52583.00
1404.129, 53013.00
1405.181, 52964.00
1406.233, 52880.00
1407.285, 52792.00
1408.337, 53070.00
1409.389, 52962.00
1410.440, 52959.00
1411.491, 52632.00
1412.542, 52949.00
1413.593, 53204.00
1414.644, 53075.00
1415.695, 53527.00
1416.745, 53611.00
1417.795, 54195.00
1418.845, 54119.00
1419.895, 53920.00
1420.945, 53906.00
1421.995, 53226.00
1423.044, 53387.00
1424.093, 53203.00
1425.142, 53150.00
1426.191, 53362.00
1427.240, 53724.00
1428.289, 54493.00
1429.337, 53728.00
1430.385, 55189.00
1431.433, 54765.00
1432.481, 54708.00
1433.529, 53704.00
1434.577, 53835.00
1435.624, 53865.00
1436.672, 53872.00
1437.719, 53827.00
1438.766, 53641.00
1439.812, 54023.00
1440.859, 53758.00
1441.905, 54033.00
1442.952, 54025.00
1443.998, 54361.00
1445.044, 54205.00
1446.090, 54155.00
1447.135, 54273.00
1448.181, 54293.00
1449.226, 54258.00
1450.271, 54523.00
1451.316, 54313.00
1452.361, 54350.00
1453.405, 54695.00
1454.450, 54075.00
1455.494, 54408.00
1456.538, 54517.00
1457.582, 54691.00
1458.626, 54966.00
1459.670, 54643.00
1460.713, 54699.00
1461.757, 54751.00
1462.800, 54537.00
1463.843, 54711.00
1464.886, 54537.00
1465.928, 54731.00
1466.971, 54752.00
1468.013, 54460.00
1469.055, 54814.00
1470.097, 54848.00
1471.139, 54613.00
1472.181, 54807.00
1473.222, 55109.00
1474.263, 54569.00
1475.305, 55114.00
1476.346, 54929.00
1477.386, 55089.00
1478.427, 55077.00
1479.468, 55145.00
1480.508, 55264.00
1481.548, 55314.00
1482.588, 55323.34
1483.628, 55195.00
1484.668, 55340.00
1485.707, 55328.00
1486.747, 55428.00
1487.786, 55522.00
1488.825, 55147.00
1489.864, 55670.00
1490.902, 55435.00
1491.941, 55887.00
1492.979, 55480.00
1494.017, 55138.00
1495.055, 55617.00
1496.093, 55392.00
1497.131, 55700.00
1498.168, 55854.00
1499.206, 55619.00
1500.243, 55601.00
1501.280, 55627.82
1502.317, 55788.00
1503.354, 55716.00
1504.390, 55769.00
1505.426, 55960.00
1506.463, 55668.00
1507.499, 55710.00
1508.535, 56112.00
1509.570, 56022.00
1510.606, 56359.00
1511.641, 56250.00
1512.676, 56401.00
1513.711, 56167.00
1514.746, 56534.00
1515.781, 56178.00
1516.816, 56110.00
1517.850, 56205.00
1518.884, 56351.00
1519.918, 56432.00
1520.952, 56423.00
1521.986, 56575.00
1523.019, 56534.25
1524.053, 57046.00
1525.086, 56565.00
1526.119, 56299.00
1527.152, 56424.00
1528.185, 56940.00
1529.217, 56701.00
1530.250, 56948.00
1531.282, 56939.00
1532.314, 56737.00
1533.346, 57072.00
1534.377, 57261.00
1535.409, 56799.00
1536.440, 56961.00
1537.472, 57019.00
1538.503, 57248.00
1539.534, 57118.00
1540.564, 57116.00
1541.595, 57081.00
1542.625, 56927.00
1543.656, 57147.00
1544.686, 57407.00
##END=



