##NAMES=Astrophyllite
##RRUFFID=R060202
##IDEAL CHEMISTRY=K_2_NaFe^2+^_7_Ti^4+^_2_(Si_4_O_12_)_2_O_2_(OH)_4_F
##LOCALITY=Demix Quarry, Mont Saint-Hilaire, Rouville County, Quebec, Canada
##OWNER=RRUFF
##SOURCE=Royal Ontario Museum
##DESCRIPTION=Aggregate of brown splintered wafers
##STATUS=The identification of this mineral has been confirmed by X-ray diffraction and chemical analysis
##URL=rruff.info/R060202
##MEASURED CHEMISTRY=(K_0.56_Na_0.38_Ca_0.06_)_3_(Fe^2+^_0.52_Mn_0.44_Mg_0.04_)_7_(Ti_0.75_Zr_0.15_Al_0.15_)_2_Si_8_O_24_(O_0.27_OH_0.73_)_7_
##PIN_ID=M00260
##ORIENTATION=Laser parallel to -b* (0 -1 0). Fiducial mark perpendicular to laser is parallel to c [0 0 1]
143.9560, 26499.00
145.1840, 26506.00
146.4120, 26423.00
147.6390, 26725.00
148.8670, 27241.00
150.0940, 27713.00
151.3210, 27377.00
152.5490, 27741.00
153.7750, 27531.00
155.0020, 27743.00
156.2290, 27747.00
157.4550, 27827.00
158.6810, 28210.00
159.9080, 28405.00
161.1340, 28599.00
162.3590, 28685.42
163.5850, 28709.00
164.8110, 28615.00
166.0360, 28629.00
167.2610, 28402.00
168.4860, 28138.00
169.7110, 28038.00
170.9360, 27514.00
172.1610, 27440.00
173.3850, 27271.00
174.6100, 27091.00
175.8340, 27233.00
177.0580, 26818.00
178.2820, 26629.00
179.5050, 26798.00
180.7290, 26645.00
181.9520, 26834.00
183.1760, 26699.00
184.3990, 26817.00
185.6220, 26833.00
186.8450, 27228.00
188.0670, 27427.00
189.2900, 27465.00
190.5120, 27997.00
191.7340, 27956.00
192.9560, 28392.00
194.1780, 28962.00
195.4000, 28819.00
196.6220, 29297.00
197.8430, 29996.00
199.0640, 30261.00
200.2860, 30893.00
201.5070, 30708.00
202.7270, 30535.00
203.9480, 30095.00
205.1690, 30292.00
206.3890, 30963.00
207.6090, 31430.00
208.8290, 31848.00
210.0490, 32596.00
211.2690, 32971.00
212.4890, 33810.00
213.7080, 34313.00
214.9280, 34319.00
216.1470, 35048.00
217.3660, 35619.00
218.5850, 35878.00
219.8030, 36306.00
221.0220, 36743.00
222.2400, 37148.00
223.4590, 37451.00
224.6770, 37619.22
225.8950, 37822.00
227.1120, 37725.00
228.3300, 37891.00
229.5480, 37792.00
230.7650, 37927.00
231.9820, 37574.00
233.1990, 37066.00
234.4160, 36631.00
235.6330, 36072.83
236.8490, 35500.00
238.0660, 34898.00
239.2820, 34237.00
240.4980, 33651.00
241.7140, 32936.00
242.9300, 32617.00
244.1460, 32443.00
245.3610, 32232.00
246.5770, 31731.00
247.7920, 31291.00
249.0070, 30956.38
250.2220, 30787.00
251.4370, 30144.00
252.6510, 30119.00
253.8660, 29525.43
255.0800, 29446.52
256.2940, 29291.23
257.5080, 29063.66
258.7220, 28547.36
259.9360, 28403.90
261.1490, 28111.24
262.3630, 27812.23
263.5760, 27721.47
264.7890, 27247.37
266.0020, 27153.30
267.2150, 26907.53
268.4270, 26731.40
269.6400, 26122.00
270.8520, 26094.00
272.0640, 25866.00
273.2760, 26163.00
274.4880, 25806.00
275.7000, 25778.00
276.9120, 25808.00
278.1230, 25563.00
279.3340, 25654.00
280.5450, 25633.00
281.7560, 25723.00
282.9670, 25622.00
284.1780, 25746.00
285.3880, 25769.00
286.5980, 25848.00
287.8090, 25875.69
289.0190, 25756.00
290.2290, 25865.00
291.4380, 25762.00
292.6480, 25658.00
293.8570, 25900.00
295.0670, 25939.00
296.2760, 25967.00
297.4850, 26086.00
298.6930, 26140.00
299.9020, 26040.00
301.1110, 26033.00
302.3190, 26398.00
303.5270, 26495.00
304.7350, 26403.00
305.9430, 26437.00
307.1510, 26554.00
308.3580, 26874.00
309.5660, 26881.00
310.7730, 27120.00
311.9800, 27145.00
313.1870, 27166.00
314.3940, 27419.00
315.6010, 27527.00
316.8070, 27439.00
318.0130, 27592.00
319.2200, 27450.00
320.4260, 27548.00
321.6310, 27289.45
322.8370, 27502.73
324.0430, 27639.64
325.2480, 27704.24
326.4540, 27480.12
327.6590, 27628.83
328.8640, 27628.11
330.0680, 27621.24
331.2730, 27822.42
332.4780, 27640.27
333.6820, 27838.12
334.8860, 27884.27
336.0900, 27999.85
337.2940, 27965.09
338.4980, 27976.76
339.7010, 28138.79
340.9050, 28217.58
342.1080, 28165.48
343.3110, 28285.44
344.5140, 28097.97
345.7170, 28180.28
346.9200, 28378.98
348.1220, 28334.40
349.3240, 28457.08
350.5270, 28507.00
351.7290, 28556.00
352.9310, 28648.00
354.1320, 28606.00
355.3340, 28729.00
356.5350, 28502.00
357.7370, 28587.00
358.9380, 28549.00
360.1390, 28742.00
361.3400, 28589.00
362.5400, 28596.00
363.7410, 28488.00
364.9410, 28441.00
366.1410, 28274.00
367.3410, 28382.00
368.5410, 28603.00
369.7410, 28371.00
370.9400, 28636.00
372.1400, 28350.00
373.3390, 28274.00
374.5380, 28584.00
375.7370, 28194.00
376.9360, 28343.00
378.1350, 28347.00
379.3330, 28233.00
380.5310, 28211.00
381.7300, 28076.00
382.9280, 27844.00
384.1260, 27791.00
385.3230, 27610.61
386.5210, 27485.00
387.7180, 27329.00
388.9160, 27171.00
390.1130, 27025.00
391.3100, 26910.00
392.5060, 26771.02
393.7030, 26558.00
394.9000, 26512.00
396.0960, 26390.00
397.2920, 26231.00
398.4880, 26249.00
399.6840, 26153.00
400.8800, 26159.00
402.0750, 26060.98
403.2710, 26131.00
404.4660, 25996.00
405.6610, 25811.00
406.8560, 26054.00
408.0510, 25917.00
409.2450, 25963.00
410.4400, 25943.00
411.6340, 25872.00
412.8280, 25996.00
414.0220, 25838.00
415.2160, 25798.00
416.4100, 25794.00
417.6030, 25915.00
418.7970, 25747.00
419.9900, 25777.00
421.1830, 25564.00
422.3760, 25571.00
423.5690, 25611.00
424.7610, 25403.00
425.9540, 25480.00
427.1460, 25601.00
428.3380, 25427.00
429.5300, 25291.00
430.7220, 25198.00
431.9140, 25245.00
433.1050, 25150.57
434.2970, 25158.00
435.4880, 25132.00
436.6790, 25126.00
437.8700, 25200.69
439.0610, 25181.00
440.2510, 25251.00
441.4420, 25260.53
442.6320, 24884.00
443.8220, 25264.00
445.0120, 25065.00
446.2020, 24992.00
447.3910, 25255.00
448.5810, 25231.00
449.7700, 25120.00
450.9600, 25273.00
452.1490, 25372.00
453.3370, 25327.00
454.5260, 25238.00
455.7150, 25496.00
456.9030, 25446.00
458.0910, 25770.00
459.2800, 25564.00
460.4670, 25681.00
461.6550, 26138.00
462.8430, 25860.00
464.0300, 25802.00
465.2180, 25867.00
466.4050, 26023.00
467.5920, 25789.00
468.7790, 25856.00
469.9650, 25887.00
471.1520, 26016.00
472.3380, 25851.00
473.5250, 25930.00
474.7110, 26160.00
475.8970, 25946.00
477.0820, 26091.00
478.2680, 26060.00
479.4540, 26017.00
480.6390, 26213.00
481.8240, 26270.00
483.0090, 26301.00
484.1940, 26417.00
485.3780, 26145.00
486.5630, 26415.00
487.7470, 26368.00
488.9320, 26300.00
490.1160, 26482.00
491.3000, 26406.00
492.4830, 26310.00
493.6670, 26528.00
494.8500, 26469.00
496.0340, 26671.00
497.2170, 26617.00
498.4000, 26787.00
499.5820, 26576.00
500.7650, 26908.00
501.9480, 26737.00
503.1300, 26848.00
504.3120, 26715.00
505.4940, 26709.00
506.6760, 26849.00
507.8580, 26780.00
509.0390, 26812.95
510.2210, 26722.00
511.4020, 26789.00
512.5830, 26775.00
513.7640, 26751.00
514.9450, 26798.00
516.1250, 26735.00
517.3060, 26792.81
518.4860, 26810.49
519.6660, 26885.00
520.8460, 26916.00
522.0260, 26978.00
523.2060, 27105.00
524.3850, 27340.00
525.5650, 27189.00
526.7440, 27302.00
527.9230, 27422.00
529.1020, 27284.00
530.2810, 27598.00
531.4590, 27854.00
532.6380, 27836.00
533.8160, 28129.00
534.9940, 27970.00
536.1720, 28580.00
537.3500, 28714.00
538.5270, 29158.00
539.7050, 29690.00
540.8820, 29883.00
542.0590, 30299.00
543.2360, 31153.00
544.4130, 31554.00
545.5900, 32070.00
546.7660, 32396.00
547.9430, 32803.00
549.1190, 33335.00
550.2950, 33276.00
551.4710, 33805.00
552.6470, 33894.00
553.8220, 33793.00
554.9980, 33775.00
556.1730, 33750.00
557.3480, 33510.00
558.5230, 33161.00
559.6980, 32802.00
560.8730, 32494.00
562.0470, 32325.00
563.2220, 32026.00
564.3960, 31729.00
565.5700, 31736.00
566.7440, 31187.00
567.9170, 31120.00
569.0910, 31121.00
570.2640, 30561.00
571.4380, 30406.00
572.6110, 30746.00
573.7840, 30276.00
574.9570, 30535.00
576.1290, 30468.00
577.3020, 30440.00
578.4740, 30437.00
579.6460, 30551.00
580.8180, 30394.00
581.9900, 30731.00
583.1620, 30744.00
584.3330, 30752.00
585.5040, 30928.00
586.6760, 31206.00
587.8470, 31278.00
589.0180, 30953.00
590.1880, 30972.00
591.3590, 30708.00
592.5290, 30982.00
593.7000, 30922.00
594.8700, 30869.00
596.0400, 31017.00
597.2090, 30742.00
598.3790, 30821.00
599.5490, 30801.00
600.7180, 30870.00
601.8870, 30507.00
603.0560, 30942.00
604.2250, 30880.00
605.3940, 30808.00
606.5620, 31161.00
607.7300, 30860.00
608.8990, 31037.00
610.0670, 31279.00
611.2350, 31331.00
612.4020, 31224.00
613.5700, 31624.00
614.7370, 31592.00
615.9050, 31892.00
617.0720, 32151.00
618.2390, 32331.00
619.4060, 32428.00
620.5720, 32768.00
621.7390, 32755.00
622.9050, 32841.00
624.0710, 33177.00
625.2370, 33945.00
626.4030, 34039.00
627.5690, 34500.00
628.7340, 34733.00
629.9000, 35053.00
631.0650, 35711.00
632.2300, 36410.00
633.3950, 37143.00
634.5600, 38070.68
635.7240, 39318.00
636.8890, 40129.00
638.0530, 41523.00
639.2170, 42785.00
640.3810, 44793.00
641.5450, 46353.00
642.7080, 48323.00
643.8720, 50433.00
645.0350, 52062.00
646.1980, 53513.00
647.3610, 54121.63
648.5240, 54455.00
649.6870, 54050.00
650.8490, 53403.00
652.0120, 52053.00
653.1740, 50268.00
654.3360, 48252.00
655.4980, 46873.00
656.6600, 45574.00
657.8210, 44212.00
658.9830, 43205.00
660.1440, 42072.00
661.3050, 41525.00
662.4660, 41153.00
663.6270, 40486.00
664.7870, 39872.00
665.9480, 39871.00
667.1080, 39874.00
668.2680, 39774.00
669.4280, 40003.00
670.5880, 40196.00
671.7480, 40338.00
672.9070, 40504.00
674.0670, 40543.00
675.2260, 41121.00
676.3850, 41327.00
677.5440, 41801.00
678.7030, 41903.00
679.8610, 42639.00
681.0200, 42786.00
682.1780, 42954.00
683.3360, 43573.00
684.4940, 43760.00
685.6520, 43903.00
686.8090, 43948.00
687.9670, 44208.06
689.1240, 44175.00
690.2810, 44589.00
691.4380, 44576.00
692.5950, 44603.00
693.7520, 44636.00
694.9080, 44839.00
696.0650, 44851.00
697.2210, 45026.00
698.3770, 44977.00
699.5330, 45256.00
700.6880, 45229.00
701.8440, 45376.00
702.9990, 45259.00
704.1550, 45352.16
705.3100, 45377.00
706.4650, 45419.00
707.6190, 45482.00
708.7740, 45460.00
709.9290, 44907.00
711.0830, 44823.00
712.2370, 44813.00
713.3910, 43965.00
714.5450, 43501.00
715.6980, 43059.00
716.8520, 42667.00
718.0050, 42345.00
719.1580, 41787.00
720.3110, 41235.00
721.4640, 40850.00
722.6170, 40509.00
723.7700, 39897.00
724.9220, 39735.00
726.0740, 39182.00
727.2260, 38599.00
728.3780, 38466.00
729.5300, 37684.00
730.6810, 37860.00
731.8330, 37614.00
732.9840, 37389.00
734.1350, 36855.00
735.2860, 36750.00
736.4370, 36557.00
737.5880, 36339.00
738.7380, 35940.00
739.8880, 36135.00
741.0390, 35902.00
742.1890, 35386.00
743.3380, 35590.00
744.4880, 35651.00
745.6380, 35257.00
746.7870, 35440.00
747.9360, 35137.00
749.0850, 35249.00
750.2340, 35327.00
751.3830, 35179.00
752.5310, 35222.09
753.6800, 34971.00
754.8280, 34978.00
755.9760, 34788.00
757.1240, 34373.00
758.2720, 34287.00
759.4190, 34367.00
760.5670, 34339.00
761.7140, 34351.00
762.8610, 34285.00
764.0080, 34127.00
765.1550, 33852.00
766.3020, 34013.00
767.4480, 33991.00
768.5950, 33750.00
769.7410, 34155.00
770.8870, 33913.00
772.0330, 33419.00
773.1780, 33732.00
774.3240, 33942.00
775.4690, 33578.00
776.6140, 33510.00
777.7590, 33692.00
778.9040, 34002.00
780.0490, 33804.00
781.1940, 33711.00
782.3380, 33741.00
783.4820, 33577.00
784.6260, 33558.00
785.7700, 33496.00
786.9140, 33206.00
788.0580, 32991.00
789.2010, 32944.00
790.3450, 33164.00
791.4880, 32916.00
792.6310, 32598.00
793.7730, 32906.00
794.9160, 32434.00
796.0590, 32674.00
797.2010, 32392.00
798.3430, 32215.00
799.4850, 32423.00
800.6270, 32452.00
801.7690, 32115.00
802.9100, 32069.00
804.0520, 31914.00
805.1930, 31964.00
806.3340, 31637.00
807.4750, 31662.00
808.6160, 31493.00
809.7560, 31667.00
810.8970, 31976.00
812.0370, 31726.00
813.1770, 31764.00
814.3170, 31446.00
815.4570, 31551.00
816.5960, 31541.00
817.7360, 31656.00
818.8750, 31499.00
820.0140, 31558.00
821.1530, 31560.00
822.2920, 31643.00
823.4310, 31535.00
824.5690, 31549.00
825.7070, 31604.00
826.8460, 31667.00
827.9840, 31500.00
829.1220, 31612.00
830.2590, 31601.00
831.3970, 31964.00
832.5340, 31724.00
833.6710, 31926.00
834.8080, 31883.00
835.9450, 31599.00
837.0820, 31960.00
838.2190, 31905.00
839.3550, 31793.00
840.4910, 31871.00
841.6270, 31688.00
842.7630, 31934.00
843.8990, 32200.00
845.0350, 32044.00
846.1700, 32221.00
847.3060, 32424.00
848.4410, 32452.00
849.5760, 32408.00
850.7100, 32652.00
851.8450, 32687.86
852.9800, 32633.00
854.1140, 32872.00
855.2480, 32908.00
856.3820, 32836.00
857.5160, 33188.00
858.6500, 33025.00
859.7830, 33470.00
860.9170, 33564.00
862.0500, 33516.00
863.1830, 33670.00
864.3160, 33823.00
865.4480, 33684.00
866.5810, 34146.00
867.7130, 33908.00
868.8460, 34411.00
869.9780, 34518.00
871.1100, 34829.00
872.2410, 34954.00
873.3730, 35117.00
874.5050, 35261.00
875.6360, 35426.97
876.7670, 35642.00
877.8980, 35800.00
879.0290, 35976.00
880.1590, 36225.00
881.2900, 36247.00
882.4200, 36454.00
883.5500, 36952.00
884.6800, 36841.00
885.8100, 37340.00
886.9400, 37386.00
888.0690, 37535.00
889.1990, 37532.00
890.3280, 38022.00
891.4570, 38221.00
892.5860, 38537.00
893.7140, 38612.00
894.8430, 39186.00
895.9710, 39458.00
897.1000, 39640.00
898.2280, 39586.00
899.3560, 39776.00
900.4830, 40487.00
901.6110, 40762.00
902.7380, 41093.00
903.8660, 41388.00
904.9930, 41778.00
906.1200, 41842.00
907.2460, 42323.00
908.3730, 42485.00
909.5000, 42945.00
910.6260, 42978.00
911.7520, 43013.00
912.8780, 43411.00
914.0040, 43414.00
915.1290, 43877.00
916.2550, 43860.00
917.3800, 44086.00
918.5050, 43963.00
919.6300, 44209.00
920.7550, 44068.00
921.8800, 44084.00
923.0040, 44410.00
924.1290, 43933.00
925.2530, 44051.00
926.3770, 44076.00
927.5010, 43895.00
928.6250, 43952.59
929.7480, 43918.00
930.8720, 43718.00
931.9950, 43419.00
933.1180, 42972.79
934.2410, 42869.00
935.3640, 42317.00
936.4860, 42135.00
937.6090, 41996.00
938.7310, 41705.00
939.8530, 41349.00
940.9750, 41100.00
942.0970, 40749.00
943.2180, 40292.00
944.3400, 40043.00
945.4610, 39709.00
946.5820, 39754.00
947.7030, 39332.00
948.8240, 39088.00
949.9450, 39087.00
951.0650, 38652.00
952.1860, 38598.00
953.3060, 38340.00
954.4260, 38059.00
955.5460, 37952.00
956.6650, 37582.00
957.7850, 37305.00
958.9040, 37488.00
960.0230, 37028.00
961.1420, 36971.25
962.2610, 36892.02
963.3800, 36725.00
964.4990, 36674.00
965.6170, 36769.00
966.7350, 36621.00
967.8530, 36583.00
968.9710, 36566.00
970.0890, 36409.00
971.2070, 36556.00
972.3240, 36597.00
973.4410, 36404.00
974.5580, 36405.00
975.6750, 36568.00
976.7920, 36523.00
977.9090, 36730.00
979.0250, 36512.00
980.1410, 36729.00
981.2580, 36800.00
982.3740, 36980.00
983.4890, 37123.00
984.6050, 37275.00
985.7200, 37344.00
986.8360, 37640.00
987.9510, 37602.00
989.0660, 37540.00
990.1810, 37767.00
991.2950, 37940.00
992.4100, 37852.00
993.5240, 38176.00
994.6390, 38459.00
995.7530, 38584.00
996.8660, 38898.98
997.9800, 38579.00
999.0940, 39300.00
1000.207, 39229.00
1001.320, 39204.00
1002.433, 39803.00
1003.546, 40162.00
1004.659, 40454.00
1005.772, 40870.00
1006.884, 40945.00
1007.996, 41323.00
1009.108, 41941.00
1010.220, 41911.00
1011.332, 42402.00
1012.444, 42891.60
1013.555, 43335.00
1014.666, 43834.00
1015.777, 44366.00
1016.888, 44576.00
1017.999, 45076.00
1019.110, 45623.00
1020.220, 45888.00
1021.331, 46112.00
1022.441, 46218.00
1023.551, 46585.00
1024.661, 46521.00
1025.770, 46766.00
1026.880, 46833.00
1027.989, 46883.00
1029.098, 46624.00
1030.207, 46687.00
1031.316, 46418.00
1032.425, 45795.00
1033.533, 45803.00
1034.642, 45467.00
1035.750, 44932.00
1036.858, 44880.00
1037.966, 44554.00
1039.073, 43946.00
1040.181, 43862.00
1041.288, 43469.00
1042.396, 43003.00
1043.503, 43030.00
1044.610, 42495.00
1045.716, 41938.00
1046.823, 41822.00
1047.929, 41635.00
1049.036, 41100.00
1050.142, 41105.00
1051.248, 40889.00
1052.353, 40503.00
1053.459, 40253.00
1054.564, 40899.00
1055.670, 40426.00
1056.775, 40311.00
1057.880, 39977.00
1058.985, 39935.00
1060.089, 39999.00
1061.194, 39675.00
1062.298, 39885.00
1063.402, 39693.00
1064.506, 40076.00
1065.610, 39406.00
1066.713, 39805.00
1067.817, 39657.00
1068.920, 39465.00
1070.023, 39535.00
1071.126, 39843.00
1072.229, 39862.00
1073.332, 39777.00
1074.435, 40041.00
1075.537, 39759.00
1076.639, 39583.00
1077.741, 39981.00
1078.843, 39670.00
1079.945, 39843.00
1081.046, 39862.00
1082.148, 39733.00
1083.249, 39926.00
1084.350, 39860.00
1085.451, 40016.00
1086.551, 39990.00
1087.652, 39862.00
1088.752, 39796.00
1089.853, 40059.00
1090.953, 39902.00
1092.053, 39606.00
1093.152, 39866.00
1094.252, 39759.00
1095.351, 39696.00
1096.451, 40051.00
1097.550, 39582.00
1098.649, 39438.00
1099.748, 39593.00
1100.846, 39360.00
1101.945, 39439.35
1103.043, 39608.36
1104.141, 39700.99
1105.239, 39721.34
1106.337, 39452.95
1107.434, 39557.42
1108.532, 39512.46
1109.629, 39461.38
1110.726, 39618.33
1111.823, 39391.94
1112.920, 39545.59
1114.017, 39547.53
1115.113, 39618.91
1116.210, 39539.94
1117.306, 39507.41
1118.402, 39625.28
1119.498, 39659.87
1120.593, 39563.60
1121.689, 39639.39
1122.784, 39407.77
1123.879, 39445.91
1124.974, 39600.45
1126.069, 39511.73
1127.164, 39590.29
1128.259, 39605.13
1129.353, 39330.49
1130.447, 39559.30
1131.541, 39570.39
1132.635, 39357.92
1133.729, 39569.49
1134.822, 39387.84
1135.916, 39346.54
1137.009, 39410.88
1138.102, 39365.10
1139.195, 39492.93
1140.288, 39453.50
1141.380, 39399.15
1142.473, 39410.00
1143.565, 39236.07
1144.657, 39404.95
1145.749, 39262.00
1146.841, 39321.00
1147.932, 39332.00
1149.024, 39276.00
1150.115, 39437.00
1151.206, 39514.00
1152.297, 39596.00
1153.388, 39642.48
1154.479, 39601.00
1155.569, 39659.00
1156.659, 39654.75
1157.750, 39626.00
1158.839, 39734.00
1159.929, 39651.00
1161.019, 39631.00
1162.108, 39868.00
1163.198, 39507.00
1164.287, 39344.00
1165.376, 39634.00
1166.465, 39778.00
1167.553, 39820.00
1168.642, 39730.00
1169.730, 39818.00
1170.818, 39727.00
1171.906, 39907.00
1172.994, 39733.00
1174.082, 39860.00
1175.170, 39800.00
1176.257, 39682.00
1177.344, 39899.00
1178.431, 39708.00
1179.518, 39837.00
1180.605, 39996.00
1181.691, 40058.00
1182.778, 39925.00
1183.864, 40082.00
1184.950, 40053.00
1186.036, 39966.00
1187.122, 40306.00
1188.207, 40044.00
1189.292, 39894.00
1190.378, 39890.00
1191.463, 40205.00
1192.548, 40385.00
1193.632, 40208.00
1194.717, 40345.00
1195.801, 40250.00
1196.886, 40315.00
1197.970, 40011.00
1199.054, 40642.00
1200.137, 40300.00
1201.221, 40245.00
1202.305, 40713.00
1203.388, 40452.00
1204.471, 40558.00
1205.554, 40574.00
1206.637, 40484.00
1207.719, 40684.00
1208.802, 40893.00
1209.884, 40846.00
1210.966, 40776.00
1212.048, 40774.00
1213.130, 40985.00
1214.212, 40870.00
1215.293, 40937.38
1216.374, 40789.00
1217.456, 41035.00
1218.536, 40992.00
1219.617, 41248.00
1220.698, 41062.00
1221.778, 41150.07
1222.859, 41210.00
1223.939, 41214.00
1225.019, 41178.00
1226.099, 41331.00
1227.178, 41273.00
1228.258, 41465.00
1229.337, 41331.00
1230.417, 41374.00
1231.496, 41549.00
1232.574, 41522.00
1233.653, 41352.00
1234.732, 41699.00
1235.810, 41825.00
1236.888, 42077.00
1237.966, 41787.00
1239.044, 41735.00
1240.122, 41961.00
1241.199, 41913.00
1242.277, 41957.00
1243.354, 42024.43
1244.431, 41857.00
1245.508, 42031.00
1246.585, 42053.00
1247.661, 41964.00
1248.738, 42128.00
1249.814, 42325.00
1250.890, 41953.00
1251.966, 42099.00
1253.042, 42074.00
1254.117, 41881.00
1255.193, 41974.00
1256.268, 42300.00
1257.343, 42169.00
1258.418, 42293.00
1259.493, 42431.00
1260.567, 42515.00
1261.642, 42436.00
1262.716, 42684.00
1263.790, 42425.00
1264.864, 42519.00
1265.938, 42178.00
1267.011, 42590.00
1268.085, 42669.00
1269.158, 42837.00
1270.231, 42622.00
1271.304, 42952.00
1272.377, 42663.00
1273.450, 42818.00
1274.522, 42569.00
1275.594, 42826.00
1276.666, 42693.00
1277.738, 42761.00
1278.810, 42885.00
1279.882, 43089.00
1280.953, 42859.00
1282.025, 42926.00
1283.096, 42898.00
1284.167, 42820.00
1285.238, 43022.00
1286.308, 42965.00
1287.379, 43152.00
1288.449, 43440.00
1289.519, 43553.00
1290.589, 43357.00
1291.659, 43199.00
1292.729, 43424.00
1293.798, 43630.00
1294.868, 43253.00
1295.937, 43206.00
1297.006, 43351.00
1298.075, 43413.00
1299.143, 43488.00
1300.212, 43339.00
1301.280, 43565.00
1302.348, 43600.00
1303.416, 43378.00
1304.484, 43772.00
1305.552, 43477.00
1306.620, 43340.00
1307.687, 43448.00
1308.754, 43635.00
1309.821, 43846.00
1310.888, 43812.00
1311.955, 44075.00
1313.021, 43979.00
1314.088, 43826.00
1315.154, 44139.00
1316.220, 43988.11
1317.286, 44042.00
1318.352, 44090.00
1319.417, 44129.00
1320.483, 44208.64
1321.548, 44414.58
1322.613, 44544.14
1323.678, 44601.43
1324.743, 44369.98
1325.807, 44511.34
1326.872, 44503.32
1327.936, 44489.14
1329.000, 44682.98
1330.064, 44493.49
1331.128, 44684.04
1332.191, 44722.85
1333.255, 44831.12
1334.318, 44789.02
1335.381, 44793.36
1336.444, 44948.09
1337.507, 45019.55
1338.569, 44833.00
1339.632, 44912.00
1340.694, 44848.00
1341.756, 45009.00
1342.818, 45044.00
1343.880, 45244.00
1344.941, 45214.00
1346.003, 45288.00
1347.064, 45279.00
1348.125, 45275.00
1349.186, 45088.00
1350.247, 45290.07
1351.308, 45323.51
1352.368, 45512.00
1353.428, 45581.00
1354.489, 45465.00
1355.549, 45505.00
1356.608, 45454.00
1357.668, 45393.00
1358.727, 45628.00
1359.787, 45813.00
1360.846, 45947.00
1361.905, 45909.00
1362.964, 45780.00
1364.022, 45732.00
1365.081, 46188.00
1366.139, 45962.00
1367.197, 46044.00
1368.255, 46079.00
1369.313, 45780.00
1370.371, 45914.00
1371.428, 46310.00
1372.486, 46274.00
1373.543, 46234.00
1374.600, 46233.00
1375.657, 46299.00
1376.713, 46388.00
1377.770, 46388.21
1378.826, 46465.59
1379.882, 46450.00
1380.938, 46523.00
1381.994, 46593.00
1383.050, 46529.00
1384.106, 46639.00
1385.161, 46698.00
1386.216, 46485.00
1387.271, 46797.00
1388.326, 46658.00
1389.381, 46945.00
1390.435, 46940.27
1391.490, 46938.00
1392.544, 46963.00
1393.598, 47085.00
1394.652, 47069.70
1395.705, 46778.00
1396.759, 46886.00
1397.812, 46778.00
1398.866, 46820.00
1399.919, 46866.00
1400.972, 46857.45
1402.024, 47017.00
1403.077, 47017.00
1404.129, 47067.00
1405.181, 47333.00
1406.233, 47217.00
1407.285, 47542.00
1408.337, 47413.00
1409.389, 47496.00
1410.440, 47376.00
1411.491, 47749.00
1412.542, 47564.00
1413.593, 47826.00
1414.644, 47718.00
1415.695, 47952.00
1416.745, 47918.00
1417.795, 47753.00
1418.845, 48030.00
1419.895, 48100.00
1420.945, 48122.00
1421.995, 48305.00
1423.044, 48408.00
1424.093, 48151.00
1425.142, 48196.24
1426.191, 48437.20
1427.240, 48601.77
1428.289, 48694.07
1429.337, 48497.57
1430.385, 48673.91
1431.433, 48700.83
1432.481, 48721.62
1433.529, 48950.46
1434.577, 48795.95
1435.624, 49021.41
1436.672, 49095.23
1437.719, 49238.42
1438.766, 49231.26
1439.812, 49270.48
1440.859, 49460.16
1441.905, 49566.50
1442.952, 49542.04
1443.998, 49689.58
1445.044, 49529.68
1446.090, 49639.57
1447.135, 49808.00
1448.181, 49875.00
1449.226, 49949.00
1450.271, 49994.00
1451.316, 50043.47
1452.361, 50038.07
1453.405, 50123.00
1454.450, 50050.00
1455.494, 50088.00
1456.538, 50209.00
1457.582, 50177.00
1458.626, 50390.00
1459.670, 50529.00
1460.713, 50348.00
1461.757, 50454.00
1462.800, 50700.00
1463.843, 50381.00
1464.886, 50613.00
1465.928, 50475.00
1466.971, 50856.00
1468.013, 50604.00
1469.055, 50939.00
1470.097, 50712.00
1471.139, 50880.00
1472.181, 50522.00
1473.222, 51020.00
1474.263, 50983.00
1475.305, 51119.00
1476.346, 51294.00
1477.386, 51107.00
1478.427, 51532.00
1479.468, 51268.00
1480.508, 51209.00
1481.548, 51487.00
1482.588, 51345.00
1483.628, 51086.00
1484.668, 51327.00
1485.707, 51363.00
1486.747, 51361.00
1487.786, 51319.00
1488.825, 51709.00
1489.864, 51382.00
1490.902, 52079.00
1491.941, 52046.00
1492.979, 51413.00
1494.017, 51651.00
1495.055, 51648.00
1496.093, 51760.00
1497.131, 51594.00
1498.168, 52100.00
1499.206, 51743.00
1500.243, 51892.00
1501.280, 52251.00
1502.317, 52000.83
1503.354, 52179.00
1504.390, 51926.00
1505.426, 52276.00
1506.463, 52345.00
1507.499, 52369.00
1508.535, 52061.00
1509.570, 52276.00
1510.606, 52348.00
1511.641, 52200.00
1512.676, 52369.00
1513.711, 52271.00
1514.746, 51886.00
1515.781, 52486.00
1516.816, 52347.00
1517.850, 52602.00
1518.884, 52372.00
1519.918, 52487.00
1520.952, 52477.00
1521.986, 52588.00
1523.019, 52655.00
1524.053, 52970.00
1525.086, 52889.57
1526.119, 52985.48
1527.152, 52914.00
1528.185, 53016.00
1529.217, 53185.00
1530.250, 53260.00
1531.282, 53250.00
1532.314, 53138.00
1533.346, 53108.00
1534.377, 53158.23
1535.409, 53261.46
1536.440, 53491.34
1537.472, 53644.91
1538.503, 53726.14
1539.534, 53518.63
1540.564, 53683.91
1541.595, 53699.83
1542.625, 53709.57
1543.656, 53927.39
1544.686, 53761.82
1545.716, 53976.29
1546.745, 54039.00
1547.775, 54171.19
1548.804, 54152.98
1549.834, 54181.27
1550.863, 54359.89
1551.892, 54455.24
1552.920, 54419.68
1553.949, 54556.22
1554.977, 54385.30
1556.006, 54484.19
1557.034, 54699.43
1558.062, 54671.42
1559.089, 54810.61
1560.117, 54886.15
1561.144, 55004.00
1562.172, 54956.00
1563.199, 54926.00
1564.226, 55159.00
1565.252, 55075.14
1566.279, 54972.00
1567.305, 55104.00
1568.332, 55224.00
1569.358, 55255.00
1570.384, 55673.00
##END=



