##NAMES=Astrophyllite
##RRUFFID=R060202
##IDEAL CHEMISTRY=K_2_NaFe^2+^_7_Ti^4+^_2_(Si_4_O_12_)_2_O_2_(OH)_4_F
##LOCALITY=Demix Quarry, Mont Saint-Hilaire, Rouville County, Quebec, Canada
##OWNER=RRUFF
##SOURCE=Royal Ontario Museum
##DESCRIPTION=Aggregate of brown splintered wafers
##STATUS=The identification of this mineral has been confirmed by X-ray diffraction and chemical analysis
##URL=rruff.info/R060202
##MEASURED CHEMISTRY=(K_0.56_Na_0.38_Ca_0.06_)_3_(Fe^2+^_0.52_Mn_0.44_Mg_0.04_)_7_(Ti_0.75_Zr_0.15_Al_0.15_)_2_Si_8_O_24_(O_0.27_OH_0.73_)_7_
##PIN_ID=M00215
##ORIENTATION=Laser parallel to (1 1 0). Fiducial mark perpendicular to laser is parallel to -c [0 0 -1]
73.71400, 11598.00
74.95100, 12821.00
76.18700, 14150.00
77.42300, 15158.00
78.65900, 16067.00
79.89500, 17201.00
81.13100, 18285.00
82.36700, 20237.00
83.60200, 22551.00
84.83700, 24555.00
86.07200, 25860.00
87.30800, 27359.00
88.54200, 28942.00
89.77700, 29419.00
91.01200, 30396.00
92.24600, 31284.00
93.48000, 31843.00
94.71400, 32924.00
95.94800, 33994.00
97.18200, 34853.00
98.41600, 35104.00
99.64900, 35007.77
100.8830, 34895.00
102.1160, 33698.00
103.3490, 32213.00
104.5820, 30866.00
105.8150, 30063.00
107.0470, 29735.00
108.2800, 29737.00
109.5120, 28383.94
110.7440, 28994.00
111.9760, 26174.00
113.2080, 24592.00
114.4400, 23872.00
115.6710, 23825.00
116.9030, 23551.00
118.1340, 23325.00
119.3650, 22621.00
120.5960, 21958.00
121.8270, 21603.00
123.0580, 22329.00
124.2880, 22504.00
125.5190, 22883.00
126.7490, 22905.00
127.9790, 23076.00
129.2090, 23072.00
130.4390, 22602.00
131.6680, 22155.00
132.8980, 21365.00
134.1270, 20782.00
135.3560, 20528.00
136.5850, 19868.00
137.8140, 19940.00
139.0430, 19794.00
140.2710, 19802.00
141.5000, 19284.00
142.7280, 18777.00
143.9560, 18633.00
145.1840, 18500.00
146.4120, 18492.00
147.6390, 18584.00
148.8670, 18533.00
150.0940, 18482.00
151.3210, 18669.00
152.5490, 18901.00
153.7750, 19222.00
155.0020, 19379.00
156.2290, 19414.00
157.4550, 19351.00
158.6810, 19568.00
159.9080, 19931.00
161.1340, 20145.00
162.3590, 20622.00
163.5850, 20927.00
164.8110, 21495.00
166.0360, 21721.00
167.2610, 22001.00
168.4860, 22266.00
169.7110, 22283.00
170.9360, 22290.75
172.1610, 22180.00
173.3850, 21936.00
174.6100, 21570.00
175.8340, 21133.00
177.0580, 20815.00
178.2820, 20383.00
179.5050, 20214.00
180.7290, 19935.00
181.9520, 19783.00
183.1760, 19514.00
184.3990, 19386.00
185.6220, 19346.00
186.8450, 19294.00
188.0670, 19306.00
189.2900, 19330.00
190.5120, 19407.00
191.7340, 19533.96
192.9560, 19708.95
194.1780, 19907.00
195.4000, 20182.00
196.6220, 20476.00
197.8430, 20774.00
199.0640, 21167.00
200.2860, 21587.00
201.5070, 22498.00
202.7270, 22765.00
203.9480, 23066.00
205.1690, 22682.00
206.3890, 22190.00
207.6090, 22525.00
208.8290, 22785.00
210.0490, 23191.00
211.2690, 23895.00
212.4890, 24815.00
213.7080, 25425.00
214.9280, 26039.00
216.1470, 27161.00
217.3660, 27677.00
218.5850, 28452.00
219.8030, 29324.00
221.0220, 30396.00
222.2400, 30542.00
223.4590, 30970.00
224.6770, 31689.00
225.8950, 31797.00
227.1120, 32340.00
228.3300, 33024.00
229.5480, 33621.00
230.7650, 33981.19
231.9820, 34361.36
233.1990, 34536.00
234.4160, 34695.00
235.6330, 34715.15
236.8490, 34567.00
238.0660, 34295.00
239.2820, 33731.00
240.4980, 33212.00
241.7140, 32521.00
242.9300, 31660.00
244.1460, 30832.00
245.3610, 30056.00
246.5770, 28885.00
247.7920, 28014.00
249.0070, 27103.00
250.2220, 26396.00
251.4370, 25757.00
252.6510, 25397.00
253.8660, 25066.00
255.0800, 24512.00
256.2940, 24124.00
257.5080, 23936.00
258.7220, 23994.00
259.9360, 24577.00
261.1490, 24471.00
262.3630, 23256.00
263.5760, 22303.00
264.7890, 21899.00
266.0020, 21489.00
267.2150, 21004.00
268.4270, 20739.00
269.6400, 20095.00
270.8520, 19950.00
272.0640, 19486.00
273.2760, 19219.00
274.4880, 18952.00
275.7000, 18538.00
276.9120, 18517.00
278.1230, 18497.00
279.3340, 18155.00
280.5450, 18071.00
281.7560, 17872.00
282.9670, 17855.00
284.1780, 17950.00
285.3880, 18001.00
286.5980, 17973.00
287.8090, 17982.00
289.0190, 17992.00
290.2290, 18034.00
291.4380, 18159.00
292.6480, 18038.00
293.8570, 18020.00
295.0670, 18060.00
296.2760, 17962.00
297.4850, 18064.00
298.6930, 18233.00
299.9020, 18108.00
301.1110, 18171.00
302.3190, 18363.00
303.5270, 18352.00
304.7350, 18269.00
305.9430, 18378.00
307.1510, 18302.00
308.3580, 18352.00
309.5660, 18411.00
310.7730, 18585.00
311.9800, 18722.00
313.1870, 18775.00
314.3940, 18925.00
315.6010, 19240.00
316.8070, 19567.00
318.0130, 19539.00
319.2200, 19716.00
320.4260, 19713.00
321.6310, 19837.64
322.8370, 19965.61
324.0430, 20084.00
325.2480, 20229.00
326.4540, 20369.00
327.6590, 20501.00
328.8640, 20324.00
330.0680, 20287.00
331.2730, 20305.00
332.4780, 20508.00
333.6820, 20685.00
334.8860, 20845.00
336.0900, 21029.00
337.2940, 21169.00
338.4980, 21380.00
339.7010, 21738.00
340.9050, 21913.00
342.1080, 21932.00
343.3110, 21924.00
344.5140, 21959.00
345.7170, 22089.00
346.9200, 22029.00
348.1220, 21762.00
349.3240, 21526.00
350.5270, 21121.00
351.7290, 21018.00
352.9310, 20994.00
354.1320, 20932.00
355.3340, 20986.00
356.5350, 20983.00
357.7370, 20932.00
358.9380, 20856.00
360.1390, 20990.00
361.3400, 21012.00
362.5400, 21173.00
363.7410, 21124.00
364.9410, 21101.00
366.1410, 20947.00
367.3410, 21015.00
368.5410, 21233.00
369.7410, 20907.00
370.9400, 20743.00
372.1400, 20826.00
373.3390, 20537.00
374.5380, 20796.00
375.7370, 20527.00
376.9360, 20554.00
378.1350, 20788.00
379.3330, 20646.00
380.5310, 20714.00
381.7300, 20698.00
382.9280, 20774.00
384.1260, 20526.00
385.3230, 20435.00
386.5210, 20230.00
387.7180, 20012.00
388.9160, 19943.00
390.1130, 19455.00
391.3100, 19485.00
392.5060, 19089.00
393.7030, 18637.00
394.9000, 18531.00
396.0960, 18423.00
397.2920, 18192.00
398.4880, 18039.00
399.6840, 17951.00
400.8800, 17707.00
402.0750, 17473.00
403.2710, 17411.00
404.4660, 17287.00
405.6610, 17275.00
406.8560, 17052.00
408.0510, 16922.00
409.2450, 16933.00
410.4400, 16793.00
411.6340, 16684.00
412.8280, 16537.00
414.0220, 16761.00
415.2160, 16463.00
416.4100, 16684.00
417.6030, 16570.00
418.7970, 16685.00
419.9900, 16691.00
421.1830, 16579.00
422.3760, 16506.00
423.5690, 16493.00
424.7610, 16496.00
425.9540, 16452.00
427.1460, 16217.00
428.3380, 16082.00
429.5300, 15931.00
430.7220, 15831.00
431.9140, 15873.00
433.1050, 15872.00
434.2970, 15626.00
435.4880, 15718.00
436.6790, 15521.00
437.8700, 15402.00
439.0610, 15366.00
440.2510, 15492.00
441.4420, 15345.00
442.6320, 15299.00
443.8220, 15231.00
445.0120, 15146.00
446.2020, 15127.06
447.3910, 15218.00
448.5810, 15076.00
449.7700, 15121.00
450.9600, 15105.00
452.1490, 15011.00
453.3370, 15066.00
454.5260, 15160.00
455.7150, 15279.00
456.9030, 15371.00
458.0910, 15454.00
459.2800, 15363.00
460.4670, 15484.00
461.6550, 15526.00
462.8430, 15523.00
464.0300, 15725.00
465.2180, 15685.00
466.4050, 15739.00
467.5920, 15960.00
468.7790, 15861.00
469.9650, 15809.00
471.1520, 15986.00
472.3380, 15981.00
473.5250, 16035.00
474.7110, 15903.00
475.8970, 15857.00
477.0820, 15885.00
478.2680, 15919.00
479.4540, 15902.00
480.6390, 15953.00
481.8240, 15932.36
483.0090, 15880.00
484.1940, 15935.00
485.3780, 15965.00
486.5630, 16031.00
487.7470, 16014.00
488.9320, 16091.00
490.1160, 16106.00
491.3000, 16173.00
492.4830, 16178.17
493.6670, 16183.91
494.8500, 16196.00
496.0340, 16159.00
497.2170, 16192.00
498.4000, 16162.00
499.5820, 16147.00
500.7650, 16282.00
501.9480, 16285.00
503.1300, 16454.00
504.3120, 16264.00
505.4940, 16492.00
506.6760, 16487.00
507.8580, 16521.00
509.0390, 16669.00
510.2210, 16426.00
511.4020, 16607.00
512.5830, 16354.00
513.7640, 16328.00
514.9450, 16577.00
516.1250, 16385.94
517.3060, 16454.00
518.4860, 16349.00
519.6660, 16288.00
520.8460, 16336.00
522.0260, 16366.00
523.2060, 16275.00
524.3850, 16252.00
525.5650, 16267.00
526.7440, 16484.00
527.9230, 16488.00
529.1020, 16430.00
530.2810, 16731.00
531.4590, 16672.00
532.6380, 16715.00
533.8160, 16870.00
534.9940, 16869.00
536.1720, 17883.00
537.3500, 18570.00
538.5270, 18587.00
539.7050, 17856.00
540.8820, 18024.00
542.0590, 18166.00
543.2360, 18527.00
544.4130, 18949.32
545.5900, 19770.00
546.7660, 20131.00
547.9430, 20713.00
549.1190, 21568.00
550.2950, 22092.00
551.4710, 22811.00
552.6470, 23598.00
553.8220, 24232.00
554.9980, 24869.00
556.1730, 25103.00
557.3480, 25458.00
558.5230, 25445.00
559.6980, 25492.00
560.8730, 25012.00
562.0470, 24823.00
563.2220, 24295.00
564.3960, 23907.00
565.5700, 23531.00
566.7440, 23321.00
567.9170, 22903.00
569.0910, 22393.00
570.2640, 22149.00
571.4380, 21710.00
572.6110, 21265.00
573.7840, 21079.00
574.9570, 20774.00
576.1290, 20588.00
577.3020, 20455.00
578.4740, 20350.00
579.6460, 20279.62
580.8180, 20227.76
581.9900, 20254.00
583.1620, 20199.00
584.3330, 20277.00
585.5040, 20308.00
586.6760, 20454.00
587.8470, 20667.00
589.0180, 20847.00
590.1880, 20987.00
591.3590, 21216.00
592.5290, 21120.00
593.7000, 21232.00
594.8700, 21291.00
596.0400, 21180.00
597.2090, 21195.00
598.3790, 21146.93
599.5490, 20928.00
600.7180, 21030.00
601.8870, 20875.00
603.0560, 20772.00
604.2250, 20956.00
605.3940, 20847.00
606.5620, 20757.00
607.7300, 20751.00
608.8990, 20759.78
610.0670, 20618.00
611.2350, 20953.00
612.4020, 21119.00
613.5700, 21387.00
614.7370, 21413.72
615.9050, 21368.00
617.0720, 21468.00
618.2390, 21518.00
619.4060, 21707.00
620.5720, 21757.00
621.7390, 22024.00
622.9050, 22310.00
624.0710, 22511.00
625.2370, 22689.00
626.4030, 23002.00
627.5690, 23135.00
628.7340, 23426.00
629.9000, 23852.00
631.0650, 24133.00
632.2300, 24593.00
633.3950, 25131.00
634.5600, 25826.00
635.7240, 26398.00
636.8890, 26974.00
638.0530, 28059.00
639.2170, 28913.00
640.3810, 29925.00
641.5450, 31234.00
642.7080, 32910.00
643.8720, 34624.84
645.0350, 36709.96
646.1980, 38869.00
647.3610, 41552.00
648.5240, 44250.00
649.6870, 47338.00
650.8490, 49711.00
652.0120, 52211.00
653.1740, 54111.00
654.3360, 54332.00
655.4980, 53892.00
656.6600, 52420.00
657.8210, 49494.00
658.9830, 46493.00
660.1440, 43607.00
661.3050, 40926.00
662.4660, 38533.00
663.6270, 36425.00
664.7870, 35227.00
665.9480, 33742.00
667.1080, 32841.00
668.2680, 31972.00
669.4280, 31654.00
670.5880, 31599.00
671.7480, 31135.00
672.9070, 31395.00
674.0670, 31645.00
675.2260, 31643.00
676.3850, 31900.00
677.5440, 32402.00
678.7030, 32387.00
679.8610, 33009.00
681.0200, 33249.00
682.1780, 33419.00
683.3360, 34088.00
684.4940, 34888.00
685.6520, 34968.00
686.8090, 35784.00
687.9670, 35983.00
689.1240, 36135.00
690.2810, 36774.00
691.4380, 37091.00
692.5950, 37314.00
693.7520, 37661.00
694.9080, 37625.00
696.0650, 37724.00
697.2210, 37804.00
698.3770, 37783.00
699.5330, 37597.00
700.6880, 38157.00
701.8440, 37781.00
702.9990, 38078.00
704.1550, 37864.00
705.3100, 38173.00
706.4650, 38361.00
707.6190, 38273.00
708.7740, 38337.00
709.9290, 38415.00
711.0830, 38520.00
712.2370, 38613.00
713.3910, 38843.00
714.5450, 38591.00
715.6980, 38288.00
716.8520, 37982.00
718.0050, 37305.00
719.1580, 36709.00
720.3110, 36124.00
721.4640, 35557.00
722.6170, 34735.00
723.7700, 34194.00
724.9220, 33370.54
726.0740, 32524.00
727.2260, 31755.00
728.3780, 31118.00
729.5300, 30311.00
730.6810, 29913.00
731.8330, 29102.00
732.9840, 28942.00
734.1350, 28146.00
735.2860, 27914.00
736.4370, 27358.00
737.5880, 26835.00
738.7380, 26438.00
739.8880, 26141.00
741.0390, 25745.00
742.1890, 25498.00
743.3380, 25293.00
744.4880, 25052.00
745.6380, 24845.00
746.7870, 24597.00
747.9360, 24646.00
749.0850, 24179.00
750.2340, 24132.00
751.3830, 23980.00
752.5310, 24165.00
753.6800, 23729.00
754.8280, 23741.00
755.9760, 23619.00
757.1240, 23250.00
758.2720, 23270.00
759.4190, 23247.00
760.5670, 23122.00
761.7140, 22859.00
762.8610, 22917.00
764.0080, 22590.00
765.1550, 22611.00
766.3020, 22349.00
767.4480, 22121.00
768.5950, 21950.00
769.7410, 22086.00
770.8870, 21718.00
772.0330, 21930.00
773.1780, 21373.00
774.3240, 21188.00
775.4690, 21271.00
776.6140, 21130.00
777.7590, 21070.97
778.9040, 21181.00
780.0490, 20940.00
781.1940, 21009.00
782.3380, 20977.00
783.4820, 21058.00
784.6260, 21024.00
785.7700, 21039.12
786.9140, 20967.00
788.0580, 21016.00
789.2010, 20748.00
790.3450, 20656.00
791.4880, 20595.00
792.6310, 20359.00
793.7730, 20357.00
794.9160, 20092.00
796.0590, 20137.00
797.2010, 19951.00
798.3430, 19867.00
799.4850, 19489.00
800.6270, 19416.00
801.7690, 19305.00
802.9100, 19272.00
804.0520, 19071.00
805.1930, 18977.00
806.3340, 18793.00
807.4750, 18700.00
808.6160, 18745.00
809.7560, 18446.00
810.8970, 18473.00
812.0370, 18271.00
813.1770, 18185.00
814.3170, 18330.00
815.4570, 18223.00
816.5960, 18217.00
817.7360, 17875.00
818.8750, 17918.00
820.0140, 18042.00
821.1530, 17856.00
822.2920, 17909.00
823.4310, 17904.00
824.5690, 17881.11
825.7070, 17797.00
826.8460, 17870.00
827.9840, 17807.00
829.1220, 17660.00
830.2590, 17812.00
831.3970, 17682.00
832.5340, 17786.00
833.6710, 17832.00
834.8080, 17817.00
835.9450, 17729.00
837.0820, 17723.00
838.2190, 17756.00
839.3550, 17711.00
840.4910, 17797.00
841.6270, 17770.00
842.7630, 17858.00
843.8990, 17796.00
845.0350, 17795.00
846.1700, 17840.00
847.3060, 17899.00
848.4410, 17801.00
849.5760, 17989.00
850.7100, 18041.00
851.8450, 18292.00
852.9800, 18190.00
854.1140, 18174.00
855.2480, 18413.00
856.3820, 18423.00
857.5160, 18522.00
858.6500, 18714.00
859.7830, 18724.00
860.9170, 18848.00
862.0500, 18845.00
863.1830, 19073.00
864.3160, 19141.00
865.4480, 19153.00
866.5810, 19364.00
867.7130, 19455.86
868.8460, 19608.91
869.9780, 19815.00
871.1100, 19943.00
872.2410, 20217.00
873.3730, 20389.00
874.5050, 20503.00
875.6360, 20798.00
876.7670, 20964.00
877.8980, 21145.00
879.0290, 21526.00
880.1590, 21729.28
881.2900, 21827.00
882.4200, 22265.00
883.5500, 22480.00
884.6800, 22668.00
885.8100, 23007.00
886.9400, 23070.00
888.0690, 23475.00
889.1990, 23906.00
890.3280, 23919.00
891.4570, 24085.00
892.5860, 24531.00
893.7140, 24881.00
894.8430, 25062.00
895.9710, 25378.00
897.1000, 25753.00
898.2280, 26169.00
899.3560, 26282.00
900.4830, 26805.00
901.6110, 27215.00
902.7380, 27881.00
903.8660, 27953.00
904.9930, 28156.00
906.1200, 28903.00
907.2460, 29180.00
908.3730, 29407.00
909.5000, 30182.00
910.6260, 30375.00
911.7520, 30843.00
912.8780, 31101.00
914.0040, 31442.00
915.1290, 31716.00
916.2550, 32000.00
917.3800, 32224.25
918.5050, 32516.00
919.6300, 32605.00
920.7550, 32686.00
921.8800, 32828.00
923.0040, 32731.00
924.1290, 32840.46
925.2530, 33143.00
926.3770, 32905.00
927.5010, 32955.00
928.6250, 32967.00
929.7480, 32859.00
930.8720, 32792.00
931.9950, 32553.00
933.1180, 32253.00
934.2410, 32230.00
935.3640, 31827.00
936.4860, 31541.00
937.6090, 31189.00
938.7310, 30746.00
939.8530, 30156.00
940.9750, 29993.00
942.0970, 29338.00
943.2180, 28946.00
944.3400, 28257.00
945.4610, 27986.00
946.5820, 27466.00
947.7030, 27251.00
948.8240, 27100.00
949.9450, 26560.00
951.0650, 26183.00
952.1860, 25714.00
953.3060, 25633.00
954.4260, 25236.00
955.5460, 24833.00
956.6650, 24431.45
957.7850, 24214.00
958.9040, 23540.00
960.0230, 23195.00
961.1420, 23037.00
962.2610, 22730.00
963.3800, 22200.00
964.4990, 22051.00
965.6170, 21661.00
966.7350, 21369.00
967.8530, 21130.00
968.9710, 21122.00
970.0890, 20828.00
971.2070, 20878.00
972.3240, 20637.00
973.4410, 20284.00
974.5580, 20157.00
975.6750, 20399.00
976.7920, 20154.00
977.9090, 20254.00
979.0250, 20183.00
980.1410, 19969.00
981.2580, 19900.00
982.3740, 20100.00
983.4890, 20136.00
984.6050, 20029.00
985.7200, 20189.00
986.8360, 20109.00
987.9510, 20096.00
989.0660, 20162.00
990.1810, 20208.00
991.2950, 20383.00
992.4100, 20517.00
993.5240, 20791.00
994.6390, 20808.00
995.7530, 20997.00
996.8660, 21271.00
997.9800, 21275.00
999.0940, 21550.00
1000.207, 21741.00
1001.320, 21690.00
1002.433, 22021.00
1003.546, 22124.00
1004.659, 22588.00
1005.772, 22575.00
1006.884, 23090.00
1007.996, 23393.00
1009.108, 23730.00
1010.220, 23992.00
1011.332, 24430.00
1012.444, 24984.00
1013.555, 25512.00
1014.666, 25992.00
1015.777, 26567.00
1016.888, 27122.00
1017.999, 27694.46
1019.110, 28381.00
1020.220, 28911.00
1021.331, 29472.00
1022.441, 30128.00
1023.551, 30617.00
1024.661, 30979.00
1025.770, 31463.00
1026.880, 31912.00
1027.989, 32197.00
1029.098, 32100.00
1030.207, 32398.00
1031.316, 32395.00
1032.425, 32512.00
1033.533, 32510.00
1034.642, 31947.00
1035.750, 31577.00
1036.858, 31213.00
1037.966, 30971.00
1039.073, 30682.00
1040.181, 29926.00
1041.288, 29192.00
1042.396, 28579.00
1043.503, 28114.00
1044.610, 27403.00
1045.716, 26883.00
1046.823, 26479.00
1047.929, 25918.00
1049.036, 25476.00
1050.142, 24865.00
1051.248, 24522.00
1052.353, 23982.00
1053.459, 24017.00
1054.564, 23427.00
1055.670, 23026.00
1056.775, 22850.00
1057.880, 22423.00
1058.985, 22301.00
1060.089, 22004.00
1061.194, 22084.00
1062.298, 21651.00
1063.402, 21603.00
1064.506, 21596.00
1065.610, 21482.53
1066.713, 21564.00
1067.817, 21365.00
1068.920, 21311.00
1070.023, 21289.35
1071.126, 21150.00
1072.229, 21227.00
1073.332, 21218.00
1074.435, 21223.00
1075.537, 21198.00
1076.639, 21183.00
1077.741, 21182.00
1078.843, 21341.00
1079.945, 21170.00
1081.046, 21022.00
1082.148, 21332.00
1083.249, 21048.00
1084.350, 21124.00
1085.451, 21085.00
1086.551, 21206.00
1087.652, 21053.00
1088.752, 21225.00
1089.853, 21072.00
1090.953, 21165.00
1092.053, 21248.00
1093.152, 21207.00
1094.252, 21205.56
1095.351, 21211.57
1096.451, 21074.00
1097.550, 21121.00
1098.649, 21045.30
1099.748, 20864.00
1100.846, 20861.00
1101.945, 20614.00
1103.043, 20498.00
1104.141, 20339.00
1105.239, 20294.00
1106.337, 20025.00
1107.434, 20042.00
1108.532, 20197.00
1109.629, 19801.00
1110.726, 19793.00
1111.823, 19775.00
1112.920, 19576.00
1114.017, 19537.00
1115.113, 19510.00
1116.210, 19318.00
1117.306, 19448.00
1118.402, 19233.00
1119.498, 19236.00
1120.593, 19428.00
1121.689, 19304.00
1122.784, 19257.00
1123.879, 19318.00
1124.974, 19343.00
1126.069, 19319.00
1127.164, 19329.00
1128.259, 19170.00
1129.353, 19131.00
1130.447, 19178.00
1131.541, 19044.00
1132.635, 19046.00
1133.729, 19011.00
1134.822, 19069.00
1135.916, 19016.00
1137.009, 18900.00
1138.102, 18984.00
1139.195, 18963.00
1140.288, 18910.00
1141.380, 18939.00
1142.473, 18960.00
1143.565, 18901.00
1144.657, 18998.00
1145.749, 19010.00
1146.841, 18942.00
1147.932, 19143.00
1149.024, 19056.22
1150.115, 19060.00
1151.206, 19088.00
1152.297, 19064.00
1153.388, 19036.25
1154.479, 18938.00
1155.569, 18985.00
1156.659, 19016.00
1157.750, 19084.00
1158.839, 19046.00
1159.929, 18938.00
1161.019, 18982.00
1162.108, 18921.00
1163.198, 18932.00
1164.287, 19138.00
1165.376, 19082.00
1166.465, 19098.00
1167.553, 19160.00
1168.642, 19069.00
1169.730, 18974.00
1170.818, 18957.00
1171.906, 18945.00
1172.994, 18921.00
1174.082, 19149.00
1175.170, 18982.00
1176.257, 19070.00
1177.344, 19218.00
1178.431, 18992.00
1179.518, 19056.00
1180.605, 19216.00
1181.691, 19333.00
1182.778, 19154.00
1183.864, 19160.00
1184.950, 19131.00
1186.036, 19240.00
1187.122, 19043.00
1188.207, 19111.00
1189.292, 19047.00
1190.378, 18955.00
1191.463, 19110.00
1192.548, 19254.00
1193.632, 19317.00
1194.717, 19272.00
1195.801, 19149.00
1196.886, 19276.00
1197.970, 19101.00
1199.054, 19282.00
1200.137, 19225.00
1201.221, 19275.00
1202.305, 19245.00
1203.388, 19286.00
1204.471, 19171.00
1205.554, 19253.00
1206.637, 19258.00
1207.719, 19261.00
1208.802, 19390.00
1209.884, 19360.00
1210.966, 19182.00
1212.048, 19393.00
1213.130, 19366.00
1214.212, 19198.00
1215.293, 19198.00
1216.374, 19422.00
1217.456, 19291.00
1218.536, 19415.00
1219.617, 19229.00
1220.698, 19475.00
1221.778, 19482.00
1222.859, 19246.00
1223.939, 19381.00
1225.019, 19402.00
1226.099, 19421.00
1227.178, 19431.00
1228.258, 19326.00
1229.337, 19335.00
1230.417, 19478.00
1231.496, 19424.00
1232.574, 19573.00
1233.653, 19364.00
1234.732, 19485.00
1235.810, 19550.00
1236.888, 19450.94
1237.966, 19540.80
1239.044, 19375.00
1240.122, 19544.00
1241.199, 19522.00
1242.277, 19469.00
1243.354, 19604.00
1244.431, 19481.00
1245.508, 19512.00
1246.585, 19640.00
1247.661, 19599.00
1248.738, 19558.00
1249.814, 19683.00
1250.890, 19529.00
1251.966, 19653.00
1253.042, 19626.00
1254.117, 19529.00
1255.193, 19682.00
1256.268, 19537.00
1257.343, 19531.00
1258.418, 19667.00
1259.493, 19533.00
1260.567, 19740.00
1261.642, 19756.00
1262.716, 19826.00
1263.790, 19757.00
1264.864, 19769.00
1265.938, 19930.00
1267.011, 19704.00
1268.085, 19863.00
1269.158, 19672.00
1270.231, 19592.00
1271.304, 19717.00
1272.377, 19670.00
1273.450, 19835.00
1274.522, 19875.86
1275.594, 19934.00
1276.666, 19958.00
1277.738, 19855.00
1278.810, 19744.00
1279.882, 19760.00
1280.953, 19723.00
1282.025, 19931.00
1283.096, 19941.00
1284.167, 19984.17
1285.238, 19992.91
1286.308, 20010.00
1287.379, 19938.00
1288.449, 19866.00
1289.519, 19912.00
1290.589, 19830.20
1291.659, 20027.00
1292.729, 19757.00
1293.798, 20082.00
1294.868, 20088.00
1295.937, 20118.00
1297.006, 20025.00
1298.075, 19923.00
1299.143, 19881.00
1300.212, 20009.00
1301.280, 20003.00
1302.348, 20025.00
1303.416, 19905.00
1304.484, 20116.00
1305.552, 20138.00
1306.620, 20045.00
1307.687, 19936.00
1308.754, 20056.00
1309.821, 20119.00
1310.888, 20056.00
1311.955, 20171.00
1313.021, 20071.00
1314.088, 20036.00
1315.154, 20105.00
1316.220, 20150.00
1317.286, 20212.00
1318.352, 20130.00
1319.417, 20211.00
1320.483, 20026.00
1321.548, 20324.00
1322.613, 20272.00
1323.678, 20151.00
1324.743, 20142.00
1325.807, 20177.00
1326.872, 20176.00
1327.936, 20164.00
1329.000, 20134.00
1330.064, 20220.00
1331.128, 19935.00
1332.191, 19959.00
1333.255, 20106.00
1334.318, 20082.00
1335.381, 20256.00
1336.444, 20174.00
1337.507, 20157.00
1338.569, 20075.00
1339.632, 20086.50
1340.694, 20205.00
1341.756, 20153.00
1342.818, 20176.00
1343.880, 20298.00
1344.941, 20302.00
1346.003, 20382.00
1347.064, 20336.60
1348.125, 20118.00
1349.186, 20316.00
1350.247, 20078.00
1351.308, 20278.00
1352.368, 20331.00
1353.428, 20248.00
1354.489, 20474.00
1355.549, 20326.00
1356.608, 20266.00
1357.668, 20297.00
1358.727, 20308.00
1359.787, 20336.00
1360.846, 20304.00
1361.905, 20307.00
1362.964, 20328.00
1364.022, 20342.00
1365.081, 20351.80
1366.139, 20403.03
1367.197, 20366.00
1368.255, 20473.00
1369.313, 20468.00
1370.371, 20425.00
1371.428, 20407.00
1372.486, 20468.00
1373.543, 20612.00
1374.600, 20543.00
1375.657, 20635.00
1376.713, 20640.00
1377.770, 20614.00
1378.826, 20498.00
1379.882, 20582.00
1380.938, 20610.00
1381.994, 20432.00
1383.050, 20533.00
1384.106, 20734.00
1385.161, 20542.00
1386.216, 20467.00
1387.271, 20744.00
1388.326, 20747.00
1389.381, 20603.00
1390.435, 20628.00
1391.490, 20667.00
1392.544, 20776.00
1393.598, 20684.00
1394.652, 20719.00
1395.705, 20760.00
1396.759, 20803.00
1397.812, 20556.00
1398.866, 20765.00
1399.919, 21028.00
1400.972, 20734.00
1402.024, 20754.00
1403.077, 20788.00
1404.129, 20889.00
1405.181, 20878.00
1406.233, 21014.00
1407.285, 20793.00
1408.337, 20959.00
1409.389, 20743.00
1410.440, 20822.00
1411.491, 20980.00
1412.542, 20789.00
1413.593, 20997.00
1414.644, 20989.00
1415.695, 21006.00
1416.745, 20977.00
1417.795, 21013.19
1418.845, 20967.00
1419.895, 21057.00
1420.945, 21081.00
1421.995, 21068.00
1423.044, 20883.00
1424.093, 21003.00
1425.142, 21070.00
1426.191, 20940.00
1427.240, 21027.00
1428.289, 21097.00
1429.337, 21119.00
1430.385, 21100.00
1431.433, 20971.00
1432.481, 21341.00
1433.529, 21338.00
1434.577, 21101.00
1435.624, 20879.00
1436.672, 21200.00
1437.719, 21373.00
1438.766, 21353.00
1439.812, 21160.00
1440.859, 21406.00
1441.905, 21498.00
1442.952, 21328.00
1443.998, 21373.00
1445.044, 21441.00
1446.090, 21473.00
1447.135, 21562.00
1448.181, 21664.00
1449.226, 21341.00
1450.271, 21579.00
1451.316, 21528.00
1452.361, 21781.00
1453.405, 21672.00
1454.450, 21583.00
1455.494, 21662.00
1456.538, 21478.00
1457.582, 21618.00
1458.626, 21707.00
1459.670, 21705.00
1460.713, 21405.00
1461.757, 21603.00
1462.800, 21553.00
1463.843, 21689.00
1464.886, 21623.00
1465.928, 21600.00
1466.971, 21702.00
1468.013, 21455.00
1469.055, 21422.00
1470.097, 21551.00
1471.139, 21648.00
1472.181, 21797.00
1473.222, 21826.68
1474.263, 21460.00
1475.305, 21780.00
1476.346, 21794.00
1477.386, 21542.00
1478.427, 21770.00
1479.468, 21747.00
1480.508, 21619.00
1481.548, 21605.00
1482.588, 21620.00
1483.628, 21498.00
1484.668, 21754.00
1485.707, 21764.00
1486.747, 21752.00
1487.786, 21793.00
1488.825, 21751.00
1489.864, 21778.30
1490.902, 21814.00
1491.941, 21805.00
1492.979, 21677.00
1494.017, 21682.00
1495.055, 21859.00
1496.093, 21618.00
1497.131, 21761.00
1498.168, 21868.00
1499.206, 21772.00
1500.243, 21756.00
1501.280, 21676.00
1502.317, 21869.00
1503.354, 21762.00
1504.390, 21753.00
1505.426, 21927.00
1506.463, 21750.00
1507.499, 21913.00
1508.535, 21859.00
1509.570, 21891.00
1510.606, 21848.00
1511.641, 21837.98
1512.676, 21763.00
1513.711, 21816.00
1514.746, 21924.00
1515.781, 21938.00
1516.816, 21790.00
1517.850, 22036.00
1518.884, 21951.00
1519.918, 21713.00
1520.952, 21748.00
1521.986, 21971.00
1523.019, 22040.00
1524.053, 22035.00
1525.086, 21910.00
1526.119, 22150.00
1527.152, 22028.00
1528.185, 22116.00
1529.217, 22100.00
1530.250, 22180.00
1531.282, 22004.00
1532.314, 22197.00
1533.346, 22064.00
1534.377, 22142.00
1535.409, 21831.00
1536.440, 22172.00
1537.472, 22002.00
1538.503, 22143.00
1539.534, 22100.00
1540.564, 22074.00
##END=



