##NAMES=Astrophyllite
##RRUFFID=R060202
##IDEAL CHEMISTRY=K_2_NaFe^2+^_7_Ti^4+^_2_(Si_4_O_12_)_2_O_2_(OH)_4_F
##LOCALITY=Demix Quarry, Mont Saint-Hilaire, Rouville County, Quebec, Canada
##OWNER=RRUFF
##SOURCE=Royal Ontario Museum
##DESCRIPTION=Aggregate of brown splintered wafers
##STATUS=The identification of this mineral has been confirmed by X-ray diffraction and chemical analysis
##URL=rruff.info/R060202
##MEASURED CHEMISTRY=(K_0.56_Na_0.38_Ca_0.06_)_3_(Fe^2+^_0.52_Mn_0.44_Mg_0.04_)_7_(Ti_0.75_Zr_0.15_Al_0.15_)_2_Si_8_O_24_(O_0.27_OH_0.73_)_7_
##PIN_ID=M00349
##ORIENTATION=Laser parallel to a* (1 0 0). Fiducial mark perpendicular to laser is parallel to b [0 1 0]
121.8270, 21589.00
123.0580, 21846.00
124.2880, 21568.00
125.5190, 21569.00
126.7490, 21526.00
127.9790, 21783.00
129.2090, 21813.00
130.4390, 21954.00
131.6680, 21853.00
132.8980, 21918.00
134.1270, 21751.00
135.3560, 21879.00
136.5850, 21795.00
137.8140, 22181.00
139.0430, 22241.00
140.2710, 21947.00
141.5000, 21924.00
142.7280, 21804.00
143.9560, 21857.00
145.1840, 21829.00
146.4120, 22007.00
147.6390, 21961.00
148.8670, 21999.00
150.0940, 21968.00
151.3210, 22255.00
152.5490, 22333.00
153.7750, 22213.00
155.0020, 22405.00
156.2290, 22398.00
157.4550, 22560.00
158.6810, 22569.00
159.9080, 22438.00
161.1340, 22664.00
162.3590, 22846.00
163.5850, 23165.00
164.8110, 23304.00
166.0360, 23239.00
167.2610, 23117.00
168.4860, 23340.00
169.7110, 23478.00
170.9360, 23438.00
172.1610, 23459.00
173.3850, 23156.00
174.6100, 23088.00
175.8340, 23141.00
177.0580, 23104.00
178.2820, 23008.00
179.5050, 22997.00
180.7290, 23020.00
181.9520, 23045.00
183.1760, 23091.61
184.3990, 23311.00
185.6220, 23232.00
186.8450, 23381.00
188.0670, 23495.00
189.2900, 23265.00
190.5120, 23558.00
191.7340, 23597.00
192.9560, 23687.00
194.1780, 23733.00
195.4000, 23754.00
196.6220, 23823.00
197.8430, 23786.00
199.0640, 24105.00
200.2860, 24256.00
201.5070, 24183.47
202.7270, 24309.00
203.9480, 24065.00
205.1690, 23906.00
206.3890, 23866.00
207.6090, 23946.00
208.8290, 24078.00
210.0490, 24240.00
211.2690, 24387.00
212.4890, 24474.00
213.7080, 24609.04
214.9280, 24742.00
216.1470, 24872.00
217.3660, 25036.00
218.5850, 25280.00
219.8030, 25285.00
221.0220, 25550.00
222.2400, 25486.00
223.4590, 25716.00
224.6770, 25799.00
225.8950, 26112.00
227.1120, 26049.00
228.3300, 26250.00
229.5480, 26356.00
230.7650, 26748.00
231.9820, 26656.00
233.1990, 26853.00
234.4160, 26679.00
235.6330, 26994.00
236.8490, 27085.00
238.0660, 27094.00
239.2820, 27027.00
240.4980, 27114.00
241.7140, 26886.00
242.9300, 27023.00
244.1460, 27009.00
245.3610, 27076.00
246.5770, 26874.00
247.7920, 26840.00
249.0070, 27080.00
250.2220, 26853.00
251.4370, 27041.00
252.6510, 27099.00
253.8660, 27139.00
255.0800, 27263.00
256.2940, 27210.00
257.5080, 27186.00
258.7220, 27097.88
259.9360, 27118.00
261.1490, 26843.00
262.3630, 26431.00
263.5760, 26338.00
264.7890, 26376.00
266.0020, 26019.00
267.2150, 25993.00
268.4270, 25820.00
269.6400, 25944.00
270.8520, 25489.00
272.0640, 25520.00
273.2760, 25385.00
274.4880, 25487.00
275.7000, 25226.00
276.9120, 25169.00
278.1230, 25196.00
279.3340, 24971.00
280.5450, 25036.00
281.7560, 25163.00
282.9670, 25177.00
284.1780, 25042.00
285.3880, 24910.00
286.5980, 24965.00
287.8090, 24895.00
289.0190, 24973.00
290.2290, 24862.00
291.4380, 24788.00
292.6480, 25105.00
293.8570, 24935.00
295.0670, 25057.00
296.2760, 25231.00
297.4850, 25025.00
298.6930, 25095.00
299.9020, 25116.00
301.1110, 24981.00
302.3190, 25050.00
303.5270, 25261.00
304.7350, 25146.00
305.9430, 25389.00
307.1510, 25370.00
308.3580, 25558.00
309.5660, 25251.00
310.7730, 25600.00
311.9800, 25367.00
313.1870, 25586.00
314.3940, 25665.00
315.6010, 25755.00
316.8070, 25703.00
318.0130, 25781.00
319.2200, 25811.00
320.4260, 25946.00
321.6310, 26026.00
322.8370, 26024.09
324.0430, 26066.00
325.2480, 26013.00
326.4540, 26147.00
327.6590, 26149.00
328.8640, 26102.00
330.0680, 26258.00
331.2730, 26208.00
332.4780, 26482.00
333.6820, 26506.00
334.8860, 26354.00
336.0900, 26342.00
337.2940, 26623.00
338.4980, 26767.00
339.7010, 26536.00
340.9050, 26555.00
342.1080, 26615.00
343.3110, 26628.00
344.5140, 26690.00
345.7170, 26653.00
346.9200, 26732.00
348.1220, 26747.00
349.3240, 26651.00
350.5270, 26458.00
351.7290, 26713.00
352.9310, 26478.00
354.1320, 26752.00
355.3340, 26639.00
356.5350, 26709.00
357.7370, 26756.00
358.9380, 26548.00
360.1390, 26783.00
361.3400, 26838.00
362.5400, 26686.00
363.7410, 26724.00
364.9410, 26708.00
366.1410, 26816.00
367.3410, 26568.00
368.5410, 26793.00
369.7410, 26583.00
370.9400, 26792.00
372.1400, 26726.00
373.3390, 26802.00
374.5380, 26817.00
375.7370, 26826.00
376.9360, 26905.86
378.1350, 26861.00
379.3330, 26980.00
380.5310, 26969.79
381.7300, 27112.00
382.9280, 27037.00
384.1260, 27065.00
385.3230, 27187.00
386.5210, 27195.00
387.7180, 27130.00
388.9160, 27068.00
390.1130, 27073.00
391.3100, 27245.00
392.5060, 27194.00
393.7030, 27277.00
394.9000, 27134.00
396.0960, 27254.00
397.2920, 27206.00
398.4880, 27188.00
399.6840, 27407.00
400.8800, 27409.00
402.0750, 27220.00
403.2710, 27439.00
404.4660, 27389.00
405.6610, 27317.00
406.8560, 27433.00
408.0510, 27518.00
409.2450, 27523.00
410.4400, 27699.00
411.6340, 27614.00
412.8280, 27839.00
414.0220, 27808.00
415.2160, 27791.00
416.4100, 27849.00
417.6030, 27917.00
418.7970, 28069.00
419.9900, 27991.00
421.1830, 27756.00
422.3760, 27982.00
423.5690, 27870.00
424.7610, 27980.00
425.9540, 27746.00
427.1460, 27776.00
428.3380, 27741.00
429.5300, 27739.00
430.7220, 27724.23
431.9140, 27662.00
433.1050, 27663.00
434.2970, 27653.00
435.4880, 27585.00
436.6790, 27608.00
437.8700, 27559.00
439.0610, 27537.00
440.2510, 27563.91
441.4420, 27513.00
442.6320, 27611.00
443.8220, 27563.00
445.0120, 27585.00
446.2020, 27450.00
447.3910, 27632.00
448.5810, 27654.00
449.7700, 27538.00
450.9600, 27577.00
452.1490, 27713.00
453.3370, 27688.00
454.5260, 27670.00
455.7150, 27818.00
456.9030, 27801.00
458.0910, 27769.00
459.2800, 27762.00
460.4670, 27793.00
461.6550, 27903.00
462.8430, 28088.00
464.0300, 28078.00
465.2180, 28162.00
466.4050, 28160.00
467.5920, 28195.00
468.7790, 28234.97
469.9650, 28253.00
471.1520, 28284.00
472.3380, 28295.00
473.5250, 28293.00
474.7110, 28312.00
475.8970, 28262.00
477.0820, 28332.14
478.2680, 28342.00
479.4540, 28420.00
480.6390, 28487.00
481.8240, 28471.00
483.0090, 28319.00
484.1940, 28511.00
485.3780, 28413.00
486.5630, 28435.00
487.7470, 28626.00
488.9320, 28475.00
490.1160, 28645.00
491.3000, 28548.00
492.4830, 28531.00
493.6670, 28567.00
494.8500, 28642.00
496.0340, 28592.00
497.2170, 28698.00
498.4000, 28608.00
499.5820, 28787.00
500.7650, 28858.00
501.9480, 28813.00
503.1300, 28925.00
504.3120, 28967.13
505.4940, 28746.00
506.6760, 29013.00
507.8580, 29059.00
509.0390, 28867.00
510.2210, 28946.00
511.4020, 28845.00
512.5830, 28813.00
513.7640, 28893.00
514.9450, 28962.00
516.1250, 28865.00
517.3060, 28952.00
518.4860, 28993.00
519.6660, 29026.00
520.8460, 29059.00
522.0260, 29087.00
523.2060, 29248.00
524.3850, 29292.00
525.5650, 29240.00
526.7440, 29449.00
527.9230, 29268.00
529.1020, 29500.00
530.2810, 29373.00
531.4590, 29522.00
532.6380, 29667.00
533.8160, 29616.00
534.9940, 29571.00
536.1720, 29725.00
537.3500, 29617.00
538.5270, 29790.00
539.7050, 29757.00
540.8820, 29834.00
542.0590, 29814.00
543.2360, 30176.00
544.4130, 30293.00
545.5900, 30371.00
546.7660, 30691.00
547.9430, 30756.00
549.1190, 30713.00
550.2950, 31360.00
551.4710, 30914.00
552.6470, 31302.00
553.8220, 31284.00
554.9980, 31236.00
556.1730, 31609.00
557.3480, 31350.00
558.5230, 31491.00
559.6980, 31702.00
560.8730, 31653.00
562.0470, 31524.00
563.2220, 31353.00
564.3960, 31356.00
565.5700, 31273.00
566.7440, 31226.00
567.9170, 31165.00
569.0910, 31162.00
570.2640, 31122.05
571.4380, 31184.00
572.6110, 31077.00
573.7840, 31131.00
574.9570, 31106.00
576.1290, 31182.00
577.3020, 31200.00
578.4740, 31198.00
579.6460, 31255.00
580.8180, 31106.00
581.9900, 31252.00
583.1620, 31169.00
584.3330, 31441.00
585.5040, 31396.17
586.6760, 31472.00
587.8470, 31468.00
589.0180, 31456.00
590.1880, 31579.00
591.3590, 31782.00
592.5290, 31586.00
593.7000, 31429.00
594.8700, 31731.00
596.0400, 31736.00
597.2090, 31526.00
598.3790, 31663.00
599.5490, 31722.00
600.7180, 31887.00
601.8870, 31541.00
603.0560, 31800.00
604.2250, 31541.00
605.3940, 31762.00
606.5620, 31687.00
607.7300, 31713.00
608.8990, 31931.00
610.0670, 32012.00
611.2350, 32125.00
612.4020, 32060.00
613.5700, 32161.00
614.7370, 32109.00
615.9050, 32275.00
617.0720, 32398.00
618.2390, 32411.00
619.4060, 32456.00
620.5720, 32270.00
621.7390, 32385.00
622.9050, 32549.00
624.0710, 32859.00
625.2370, 32646.00
626.4030, 32774.00
627.5690, 32920.00
628.7340, 32994.00
629.9000, 33110.00
631.0650, 33481.00
632.2300, 33447.00
633.3950, 33681.00
634.5600, 33580.00
635.7240, 33952.00
636.8890, 34148.00
638.0530, 34301.00
639.2170, 34505.00
640.3810, 34849.00
641.5450, 35214.00
642.7080, 35459.00
643.8720, 35617.00
645.0350, 36075.00
646.1980, 36505.00
647.3610, 36910.00
648.5240, 37443.00
649.6870, 37912.00
650.8490, 38235.00
652.0120, 38448.00
653.1740, 38577.00
654.3360, 38473.00
655.4980, 38458.00
656.6600, 37898.00
657.8210, 37780.00
658.9830, 37567.00
660.1440, 36883.00
661.3050, 36710.00
662.4660, 36188.00
663.6270, 35989.00
664.7870, 36054.00
665.9480, 35969.00
667.1080, 35818.00
668.2680, 35822.00
669.4280, 35932.00
670.5880, 35798.00
671.7480, 35948.00
672.9070, 35788.00
674.0670, 36020.00
675.2260, 35959.00
676.3850, 36095.00
677.5440, 36181.00
678.7030, 36487.00
679.8610, 36264.00
681.0200, 36348.00
682.1780, 36831.00
683.3360, 36880.00
684.4940, 36704.00
685.6520, 36881.00
686.8090, 36843.00
687.9670, 36912.22
689.1240, 37060.74
690.2810, 37145.00
691.4380, 37244.00
692.5950, 37458.00
693.7520, 37348.00
694.9080, 37464.00
696.0650, 37732.00
697.2210, 37749.00
698.3770, 37544.00
699.5330, 37679.00
700.6880, 37822.00
701.8440, 37491.00
702.9990, 37740.00
704.1550, 37709.00
705.3100, 37696.00
706.4650, 37663.00
707.6190, 37891.00
708.7740, 37975.00
709.9290, 37721.00
711.0830, 37894.00
712.2370, 37831.00
713.3910, 37555.00
714.5450, 37808.00
715.6980, 37524.00
716.8520, 37637.00
718.0050, 37341.00
719.1580, 37268.00
720.3110, 37340.00
721.4640, 37103.00
722.6170, 37053.00
723.7700, 37029.00
724.9220, 36841.00
726.0740, 36781.00
727.2260, 36407.00
728.3780, 36377.93
729.5300, 36261.00
730.6810, 36282.00
731.8330, 36229.00
732.9840, 36402.00
734.1350, 36182.00
735.2860, 36431.00
736.4370, 36180.00
737.5880, 35996.00
738.7380, 35953.00
739.8880, 35842.49
741.0390, 35787.40
742.1890, 35835.00
743.3380, 35755.00
744.4880, 35845.00
745.6380, 35918.00
746.7870, 36011.00
747.9360, 35905.00
749.0850, 35770.00
750.2340, 36030.00
751.3830, 35796.00
752.5310, 35642.00
753.6800, 36061.00
754.8280, 36328.00
755.9760, 35941.00
757.1240, 35986.00
758.2720, 35840.00
759.4190, 36009.00
760.5670, 35890.00
761.7140, 35890.00
762.8610, 35856.00
764.0080, 35820.00
765.1550, 35791.35
766.3020, 35763.43
767.4480, 35737.00
768.5950, 35746.00
769.7410, 35778.00
770.8870, 35843.00
772.0330, 35827.06
773.1780, 35947.00
774.3240, 35844.00
775.4690, 35880.00
776.6140, 35937.00
777.7590, 35800.00
778.9040, 35859.00
780.0490, 35756.00
781.1940, 35794.00
782.3380, 35942.00
783.4820, 35833.00
784.6260, 36102.00
785.7700, 35992.00
786.9140, 35985.00
788.0580, 36042.00
789.2010, 36341.00
790.3450, 35862.00
791.4880, 36027.00
792.6310, 35677.00
793.7730, 35861.00
794.9160, 36054.00
796.0590, 35852.00
797.2010, 35801.00
798.3430, 35913.00
799.4850, 36169.00
800.6270, 35905.00
801.7690, 36071.00
802.9100, 36015.00
804.0520, 35917.00
805.1930, 35988.31
806.3340, 35921.00
807.4750, 35978.00
808.6160, 36050.00
809.7560, 36038.00
810.8970, 36062.00
812.0370, 36036.00
813.1770, 36147.00
814.3170, 36235.00
815.4570, 36244.00
816.5960, 36125.00
817.7360, 36132.00
818.8750, 36162.00
820.0140, 35967.00
821.1530, 36333.00
822.2920, 36166.00
823.4310, 36403.00
824.5690, 36417.00
825.7070, 36395.00
826.8460, 36405.00
827.9840, 36607.00
829.1220, 36467.00
830.2590, 36682.00
831.3970, 36402.00
832.5340, 36393.00
833.6710, 36410.00
834.8080, 36508.00
835.9450, 36857.00
837.0820, 36945.00
838.2190, 36824.00
839.3550, 37119.00
840.4910, 36606.00
841.6270, 36857.00
842.7630, 37026.00
843.8990, 36794.00
845.0350, 36791.00
846.1700, 37161.00
847.3060, 37023.00
848.4410, 36797.00
849.5760, 37287.00
850.7100, 36958.00
851.8450, 37228.00
852.9800, 37383.00
854.1140, 37397.00
855.2480, 37549.00
856.3820, 37622.00
857.5160, 37584.00
858.6500, 37604.00
859.7830, 37662.00
860.9170, 37648.00
862.0500, 37603.00
863.1830, 37541.00
864.3160, 37721.00
865.4480, 38009.00
866.5810, 38038.00
867.7130, 38275.00
868.8460, 38128.00
869.9780, 38353.00
871.1100, 38187.00
872.2410, 38404.00
873.3730, 38540.00
874.5050, 38623.00
875.6360, 38415.00
876.7670, 38619.00
877.8980, 38590.00
879.0290, 38923.00
880.1590, 38851.00
881.2900, 39024.00
882.4200, 39166.00
883.5500, 39181.00
884.6800, 39328.20
885.8100, 39518.00
886.9400, 39568.00
888.0690, 39675.00
889.1990, 39922.00
890.3280, 39997.00
891.4570, 40141.05
892.5860, 40264.00
893.7140, 40392.00
894.8430, 40525.00
895.9710, 40701.00
897.1000, 40739.00
898.2280, 40917.00
899.3560, 41110.00
900.4830, 41365.00
901.6110, 41038.00
902.7380, 41510.00
903.8660, 41286.00
904.9930, 41667.00
906.1200, 41746.00
907.2460, 42106.00
908.3730, 42413.00
909.5000, 42293.00
910.6260, 42471.00
911.7520, 42683.00
912.8780, 42834.00
914.0040, 42904.00
915.1290, 42963.00
916.2550, 43143.00
917.3800, 43182.00
918.5050, 43131.00
919.6300, 43049.00
920.7550, 43479.00
921.8800, 43564.00
923.0040, 43521.00
924.1290, 43411.00
925.2530, 43634.00
926.3770, 43956.00
927.5010, 43728.00
928.6250, 43774.00
929.7480, 43703.00
930.8720, 43536.00
931.9950, 43451.00
933.1180, 43380.00
934.2410, 43513.00
935.3640, 43560.00
936.4860, 43445.00
937.6090, 43303.00
938.7310, 43178.00
939.8530, 43236.00
940.9750, 42833.00
942.0970, 42938.00
943.2180, 42792.00
944.3400, 42908.00
945.4610, 42539.00
946.5820, 42567.00
947.7030, 42475.00
948.8240, 42218.00
949.9450, 42488.00
951.0650, 42364.00
952.1860, 42327.00
953.3060, 41989.00
954.4260, 41880.00
955.5460, 42061.00
956.6650, 41648.00
957.7850, 41726.00
958.9040, 41693.00
960.0230, 41461.00
961.1420, 41461.00
962.2610, 41330.52
963.3800, 41607.00
964.4990, 41212.00
965.6170, 41090.00
966.7350, 41195.00
967.8530, 40922.00
968.9710, 41130.00
970.0890, 40940.00
971.2070, 40980.00
972.3240, 41064.00
973.4410, 41105.00
974.5580, 41178.00
975.6750, 40947.00
976.7920, 41228.00
977.9090, 40933.00
979.0250, 41069.00
980.1410, 41076.81
981.2580, 41985.00
982.3740, 41079.00
983.4890, 41302.00
984.6050, 41267.00
985.7200, 40829.00
986.8360, 41535.00
987.9510, 41112.00
989.0660, 41638.00
990.1810, 41587.00
991.2950, 41547.00
992.4100, 41574.00
993.5240, 41568.86
994.6390, 41523.00
995.7530, 41644.00
996.8660, 41707.00
997.9800, 41789.59
999.0940, 41933.00
1000.207, 41942.00
1001.320, 42018.00
1002.433, 42120.00
1003.546, 42157.00
1004.659, 42259.00
1005.772, 42593.00
1006.884, 42183.00
1007.996, 42548.00
1009.108, 42404.00
1010.220, 42437.00
1011.332, 42650.00
1012.444, 42627.00
1013.555, 42913.00
1014.666, 43216.00
1015.777, 43272.00
1016.888, 43109.00
1017.999, 43486.00
1019.110, 43490.00
1020.220, 43248.00
1021.331, 43627.00
1022.441, 43569.00
1023.551, 43767.00
1024.661, 43845.00
1025.770, 44208.00
1026.880, 44156.00
1027.989, 44217.00
1029.098, 44345.00
1030.207, 44385.00
1031.316, 44370.00
1032.425, 44058.00
1033.533, 44381.00
1034.642, 44229.00
1035.750, 43691.00
1036.858, 44011.00
1037.966, 43991.00
1039.073, 44187.00
1040.181, 44059.00
1041.288, 44128.00
1042.396, 43896.00
1043.503, 44006.00
1044.610, 43927.00
1045.716, 43630.00
1046.823, 43686.00
1047.929, 43743.00
1049.036, 43497.00
1050.142, 43653.00
1051.248, 43336.00
1052.353, 43478.00
1053.459, 43327.00
1054.564, 43380.00
1055.670, 43674.00
1056.775, 43452.00
1057.880, 43656.00
1058.985, 43598.00
1060.089, 43444.00
1061.194, 43702.00
1062.298, 43684.00
1063.402, 43699.00
1064.506, 43494.00
1065.610, 43629.00
1066.713, 43601.00
1067.817, 43859.00
1068.920, 43784.00
1070.023, 44079.00
1071.126, 43945.00
1072.229, 43882.00
1073.332, 43927.00
1074.435, 43842.00
1075.537, 43742.00
1076.639, 43823.00
1077.741, 43804.00
1078.843, 44036.00
1079.945, 44137.00
1081.046, 44145.00
1082.148, 43995.00
1083.249, 44210.00
1084.350, 43975.00
1085.451, 44258.00
1086.551, 44190.00
1087.652, 44032.00
1088.752, 44113.00
1089.853, 44164.00
1090.953, 44373.00
1092.053, 44716.00
1093.152, 44318.00
1094.252, 44594.00
1095.351, 44562.00
1096.451, 44458.00
1097.550, 44411.00
1098.649, 44489.00
1099.748, 44393.00
1100.846, 44420.00
1101.945, 44463.00
1103.043, 44441.00
1104.141, 44497.00
1105.239, 44388.00
1106.337, 44237.00
1107.434, 44533.00
1108.532, 44366.00
1109.629, 44335.00
1110.726, 44569.00
1111.823, 44488.00
1112.920, 44764.00
1114.017, 44504.00
1115.113, 44671.00
1116.210, 45011.00
1117.306, 45237.00
1118.402, 45131.00
1119.498, 44992.00
1120.593, 45474.00
1121.689, 45400.00
1122.784, 45429.00
1123.879, 45558.00
1124.974, 45428.00
1126.069, 45273.00
1127.164, 45165.00
1128.259, 44978.00
1129.353, 45306.00
1130.447, 45170.00
1131.541, 44765.00
1132.635, 45105.00
1133.729, 44906.00
1134.822, 45082.00
1135.916, 45120.00
1137.009, 45204.00
1138.102, 45318.00
1139.195, 45456.00
1140.288, 45163.00
1141.380, 45497.00
1142.473, 44982.00
1143.565, 45171.00
1144.657, 45565.00
1145.749, 45591.00
1146.841, 45233.00
1147.932, 45296.00
1149.024, 45250.00
1150.115, 45794.00
1151.206, 45303.00
1152.297, 45551.00
1153.388, 45844.00
1154.479, 45583.00
1155.569, 45737.00
1156.659, 45619.00
1157.750, 45732.00
1158.839, 45719.00
1159.929, 45976.00
1161.019, 45927.00
1162.108, 45815.00
1163.198, 46045.00
1164.287, 46000.00
1165.376, 46055.00
1166.465, 46140.00
1167.553, 46041.00
1168.642, 46018.00
1169.730, 46033.00
1170.818, 46021.76
1171.906, 46050.00
1172.994, 46092.00
1174.082, 46365.00
1175.170, 46444.00
1176.257, 46693.00
1177.344, 46392.00
1178.431, 46249.00
1179.518, 46325.00
1180.605, 46494.00
1181.691, 46781.00
1182.778, 46701.00
1183.864, 46592.00
1184.950, 46573.00
1186.036, 46344.00
1187.122, 46896.00
1188.207, 46903.00
1189.292, 46760.00
1190.378, 46784.00
1191.463, 46775.00
1192.548, 46849.00
1193.632, 46836.00
1194.717, 46997.00
1195.801, 46610.00
1196.886, 46766.00
1197.970, 47075.00
1199.054, 46817.00
1200.137, 47007.00
1201.221, 47070.00
1202.305, 47032.00
1203.388, 47379.00
1204.471, 47354.00
1205.554, 47348.00
1206.637, 46982.00
1207.719, 47459.00
1208.802, 47634.00
1209.884, 47307.00
1210.966, 47572.00
1212.048, 47098.00
1213.130, 47307.00
1214.212, 47431.00
1215.293, 47657.00
1216.374, 47575.00
1217.456, 47713.00
1218.536, 47825.00
1219.617, 47522.00
1220.698, 47580.00
1221.778, 47818.00
1222.859, 48175.00
1223.939, 47942.00
1225.019, 47657.00
1226.099, 48249.00
1227.178, 48047.00
1228.258, 47912.00
1229.337, 48233.00
1230.417, 48106.00
1231.496, 48250.00
1232.574, 48340.00
1233.653, 47847.00
1234.732, 48169.00
1235.810, 48559.00
1236.888, 48215.00
1237.966, 48247.00
1239.044, 48124.00
1240.122, 48346.00
1241.199, 48388.00
1242.277, 48474.00
1243.354, 48578.00
1244.431, 48752.00
1245.508, 48422.00
1246.585, 48338.00
1247.661, 48737.00
1248.738, 48667.00
1249.814, 48838.00
1250.890, 48641.00
1251.966, 48772.00
1253.042, 49077.00
1254.117, 49007.00
1255.193, 48991.00
1256.268, 48891.00
1257.343, 48920.00
1258.418, 48879.00
1259.493, 48961.00
1260.567, 49140.00
1261.642, 48934.00
1262.716, 49189.00
1263.790, 48981.00
1264.864, 49308.00
1265.938, 49249.00
1267.011, 49264.00
1268.085, 49221.00
1269.158, 49204.00
1270.231, 49292.00
1271.304, 49604.00
1272.377, 49124.00
1273.450, 49252.00
1274.522, 49611.00
1275.594, 49541.00
1276.666, 49308.00
1277.738, 49275.00
1278.810, 49254.00
1279.882, 49391.00
1280.953, 49379.00
1282.025, 49529.00
1283.096, 49532.00
1284.167, 49685.00
1285.238, 49523.00
1286.308, 49468.00
1287.379, 49571.00
1288.449, 49492.00
1289.519, 49839.00
1290.589, 49713.00
1291.659, 49813.00
1292.729, 49687.00
1293.798, 49916.00
1294.868, 49804.00
1295.937, 50400.00
1297.006, 50109.00
1298.075, 50345.00
1299.143, 50508.00
1300.212, 50463.00
1301.280, 50484.00
1302.348, 50506.00
1303.416, 50356.00
1304.484, 50276.00
1305.552, 50620.00
1306.620, 50512.00
1307.687, 50905.00
1308.754, 50849.00
1309.821, 50840.00
1310.888, 51186.00
1311.955, 50589.00
1313.021, 51062.00
1314.088, 50852.00
1315.154, 50925.00
1316.220, 51055.00
1317.286, 50993.00
1318.352, 51018.00
1319.417, 50813.00
1320.483, 51280.00
1321.548, 50998.00
1322.613, 51316.00
1323.678, 51242.00
1324.743, 51053.00
1325.807, 51163.00
1326.872, 51426.00
1327.936, 51231.00
1329.000, 51385.00
1330.064, 51487.00
1331.128, 51542.00
1332.191, 51458.00
1333.255, 51662.00
1334.318, 51518.00
1335.381, 51575.00
1336.444, 51910.00
1337.507, 51830.00
1338.569, 51737.00
1339.632, 51862.00
1340.694, 51841.00
1341.756, 51810.00
1342.818, 51747.00
1343.880, 51919.00
1344.941, 51869.00
1346.003, 51706.00
1347.064, 52240.00
1348.125, 51910.00
1349.186, 51986.00
1350.247, 52212.00
1351.308, 52187.00
1352.368, 52421.00
1353.428, 52315.00
1354.489, 52127.00
1355.549, 52237.00
1356.608, 52303.00
1357.668, 52228.00
1358.727, 52396.00
1359.787, 52341.59
1360.846, 52320.00
1361.905, 52370.00
1362.964, 52468.00
1364.022, 52590.00
1365.081, 52544.00
1366.139, 52815.00
1367.197, 52544.00
1368.255, 52355.00
1369.313, 52689.00
1370.371, 52460.00
1371.428, 52604.00
1372.486, 52446.00
1373.543, 52662.00
1374.600, 52672.00
1375.657, 52707.00
1376.713, 52786.00
1377.770, 52784.00
1378.826, 52728.00
1379.882, 53094.00
1380.938, 52667.00
1381.994, 52773.00
1383.050, 53013.00
1384.106, 52861.00
1385.161, 53004.00
1386.216, 52826.00
1387.271, 53149.00
1388.326, 52817.00
1389.381, 53539.00
1390.435, 53161.00
1391.490, 53176.00
1392.544, 53072.00
1393.598, 52900.00
1394.652, 53329.00
1395.705, 53132.00
1396.759, 53120.00
1397.812, 53309.00
1398.866, 52923.00
1399.919, 53209.00
1400.972, 53106.00
1402.024, 53364.00
1403.077, 53308.00
1404.129, 53462.00
1405.181, 53585.00
1406.233, 53301.00
1407.285, 53421.00
1408.337, 53615.00
1409.389, 53239.00
1410.440, 53288.00
1411.491, 53468.00
1412.542, 53479.00
1413.593, 53602.00
1414.644, 53568.00
1415.695, 53806.00
1416.745, 53781.00
1417.795, 54150.00
1418.845, 54008.00
1419.895, 53616.00
1420.945, 54048.00
1421.995, 53985.00
1423.044, 53756.00
1424.093, 53900.00
1425.142, 53616.00
1426.191, 53638.00
1427.240, 53933.00
1428.289, 54035.00
1429.337, 53950.00
1430.385, 54123.00
1431.433, 54248.00
1432.481, 54290.00
1433.529, 53847.00
1434.577, 54095.00
1435.624, 54166.00
1436.672, 54097.00
1437.719, 54266.00
1438.766, 54382.00
1439.812, 54078.00
1440.859, 54469.00
1441.905, 54218.00
1442.952, 54139.00
1443.998, 54585.00
1445.044, 54186.00
1446.090, 54402.00
1447.135, 54675.00
1448.181, 54393.00
1449.226, 54611.00
1450.271, 54891.00
1451.316, 54522.00
1452.361, 54664.00
1453.405, 54351.00
1454.450, 54888.00
1455.494, 54799.00
1456.538, 54695.00
1457.582, 54827.00
1458.626, 54783.00
1459.670, 54764.00
1460.713, 54853.00
1461.757, 54859.43
1462.800, 54812.00
1463.843, 55002.00
1464.886, 54985.00
1465.928, 55107.00
1466.971, 55083.00
1468.013, 55097.00
1469.055, 54915.00
1470.097, 55291.00
1471.139, 55384.00
1472.181, 55106.00
1473.222, 55307.00
1474.263, 55118.00
1475.305, 55226.00
1476.346, 55371.00
1477.386, 55265.00
1478.427, 55308.00
1479.468, 55504.00
1480.508, 55622.00
1481.548, 55190.00
1482.588, 55628.00
1483.628, 55754.00
1484.668, 55272.00
1485.707, 55804.00
1486.747, 55761.00
1487.786, 55748.00
1488.825, 55585.00
1489.864, 55751.00
1490.902, 55864.00
1491.941, 55707.00
1492.979, 55964.00
1494.017, 55842.00
1495.055, 55850.00
1496.093, 56208.00
1497.131, 56126.00
1498.168, 55943.00
1499.206, 56083.00
1500.243, 55961.00
1501.280, 55954.68
1502.317, 56438.00
1503.354, 56003.00
1504.390, 56202.00
1505.426, 56408.00
1506.463, 56311.00
1507.499, 56746.00
1508.535, 56446.00
1509.570, 56703.00
1510.606, 56156.00
1511.641, 56449.00
1512.676, 56642.00
1513.711, 56533.00
1514.746, 57061.00
1515.781, 56689.00
1516.816, 56999.00
1517.850, 56830.00
1518.884, 56754.00
1519.918, 56951.00
1520.952, 57203.00
1521.986, 56927.00
1523.019, 56919.00
1524.053, 57224.00
1525.086, 57334.00
1526.119, 57201.00
1527.152, 57041.00
1528.185, 57229.00
1529.217, 57225.00
1530.250, 57612.00
1531.282, 57308.00
1532.314, 57440.00
1533.346, 57695.00
1534.377, 57161.00
1535.409, 57847.00
1536.440, 57466.00
1537.472, 57639.00
1538.503, 57629.00
1539.534, 57869.00
1540.564, 57853.77
1541.595, 57934.91
1542.625, 57874.00
1543.656, 58027.00
1544.686, 58025.00
1545.716, 58050.00
1546.745, 57877.00
1547.775, 58256.00
1548.804, 57927.00
1549.834, 58208.00
1550.863, 58026.00
1551.892, 58271.00
1552.920, 58355.00
1553.949, 58300.00
1554.977, 58506.00
1556.006, 58471.00
1557.034, 58386.00
1558.062, 57961.00
1559.089, 58235.00
1560.117, 58272.00
1561.144, 58314.00
1562.172, 58706.00
1563.199, 59036.00
1564.226, 58325.00
1565.252, 58566.00
1566.279, 58795.00
1567.305, 58682.00
1568.332, 58963.00
1569.358, 58695.00
1570.384, 58801.00
1571.409, 59484.00
##END=



