##NAMES=Astrophyllite
##RRUFFID=R060103
##IDEAL CHEMISTRY=K_2_NaFe^2+^_7_Ti^4+^_2_(Si_4_O_12_)_2_O_2_(OH)_4_F
##LOCALITY=Brivik, Norway
##OWNER=RRUFF
##SOURCE=University of Arizona Mineral Museum
##DESCRIPTION=Brown fragment embedded in matrix
##STATUS=The identification of this mineral is confirmed by single-crystal X-ray diffraction and chemical analysis.
##URL=rruff.info/R060103
##MEASURED CHEMISTRY=K_2.00_Na_1.00_(Fe^2+^_0.55_Mn_0.32_Fe^3+^_0.04_Mg_0.04_Ca_0.04_)_7_(Ti_0.66_Zr_0.18_Al_0.16_)_2_Si_8.00_O_26_(OH)_4_F_1.00_
##PIN_ID=M01746
##ORIENTATION=Laser parallel to a* (1 0 0). Fiducial mark perpendicular to laser is parallel to b [0 1 0]
150.1650, 9894.000
151.3980, 10184.00
152.6310, 10476.00
153.8640, 10732.00
155.0960, 11215.00
156.3280, 11438.00
157.5600, 11805.00
158.7920, 12407.00
160.0240, 12891.00
161.2560, 13300.00
162.4870, 13999.00
163.7180, 14698.00
164.9490, 15541.00
166.1800, 16105.00
167.4110, 16503.00
168.6410, 16959.00
169.8720, 17395.00
171.1020, 17691.00
172.3320, 17642.00
173.5620, 17071.00
174.7910, 16754.00
176.0210, 16317.00
177.2500, 15660.00
178.4790, 15123.00
179.7080, 14352.00
180.9370, 13657.00
182.1650, 13024.00
183.3940, 12575.00
184.6220, 11957.00
185.8500, 11707.00
187.0780, 11312.00
188.3050, 11124.00
189.5330, 10992.00
190.7600, 10592.00
191.9870, 10524.00
193.2140, 10507.00
194.4410, 10416.00
195.6680, 10418.00
196.8940, 10324.00
198.1200, 10412.00
199.3470, 10366.00
200.5720, 10539.00
201.7980, 10638.00
203.0240, 10509.00
204.2490, 10459.00
205.4740, 10371.00
206.6990, 10285.00
207.9240, 10279.00
209.1490, 10464.00
210.3740, 10377.00
211.5980, 10511.00
212.8220, 10756.00
214.0460, 10645.00
215.2700, 10880.00
216.4930, 10788.00
217.7170, 10986.00
218.9400, 10983.00
220.1630, 10898.00
221.3860, 10970.00
222.6090, 10915.00
223.8320, 10787.00
225.0540, 10755.00
226.2760, 10684.00
227.4980, 10437.00
228.7200, 10523.00
229.9420, 10586.00
231.1630, 10256.00
232.3850, 10295.00
233.6060, 10313.00
234.8270, 10231.00
236.0480, 10031.00
237.2690, 9899.000
238.4890, 9901.000
239.7090, 9881.000
240.9290, 9935.000
242.1490, 9855.000
243.3690, 9580.000
244.5890, 9677.000
245.8080, 9609.000
247.0270, 9672.000
248.2470, 9651.000
249.4650, 9447.000
250.6840, 9370.000
251.9030, 9435.000
253.1210, 9347.798
254.3390, 9434.741
255.5570, 9466.619
256.7750, 9446.501
257.9930, 9212.652
259.2100, 9259.402
260.4280, 9196.483
261.6450, 9131.014
262.8620, 9222.963
264.0790, 9030.510
265.2950, 9124.009
266.5120, 9106.142
267.7280, 9142.161
268.9440, 9067.848
270.1600, 9030.222
271.3760, 9106.952
272.5920, 9123.461
273.8070, 9044.199
275.0220, 9095.484
276.2370, 8984.000
277.4520, 9041.000
278.6670, 8902.000
279.8820, 8850.000
281.0960, 8754.000
282.3100, 8789.000
283.5240, 8919.000
284.7380, 8806.000
285.9520, 8736.000
287.1650, 8696.000
288.3780, 8542.000
289.5920, 8669.000
290.8050, 8731.000
292.0170, 8615.000
293.2300, 8572.000
294.4430, 8617.000
295.6550, 8566.000
296.8670, 8665.000
298.0790, 8562.000
299.2910, 8755.000
300.5020, 8536.000
301.7140, 8487.000
302.9250, 8579.000
304.1360, 8614.000
305.3470, 8472.000
306.5580, 8466.000
307.7680, 8531.000
308.9780, 8468.000
310.1890, 8491.000
311.3990, 8466.000
312.6090, 8304.000
313.8180, 8410.000
315.0280, 8299.000
316.2370, 8405.000
317.4460, 8366.000
318.6550, 8345.000
319.8640, 8402.000
321.0730, 8367.000
322.2810, 8409.000
323.4890, 8292.000
324.6980, 8490.000
325.9060, 8424.000
327.1130, 8502.000
328.3210, 8437.000
329.5280, 8586.000
330.7360, 8455.000
331.9430, 8647.000
333.1500, 8653.000
334.3560, 8679.000
335.5630, 8727.000
336.7690, 8966.000
337.9760, 8933.000
339.1820, 9096.000
340.3870, 9108.000
341.5930, 9168.000
342.7990, 9322.000
344.0040, 9381.000
345.2090, 9478.000
346.4140, 9501.000
347.6190, 9469.000
348.8240, 9484.000
350.0280, 9316.000
351.2330, 9461.000
352.4370, 9363.000
353.6410, 9229.000
354.8440, 9269.000
356.0480, 9167.000
357.2520, 9060.000
358.4550, 9063.000
359.6580, 8893.000
360.8610, 8873.000
362.0640, 8633.000
363.2660, 8753.000
364.4690, 8568.000
365.6710, 8522.000
366.8730, 8458.000
368.0750, 8335.000
369.2770, 8423.000
370.4780, 8163.000
371.6800, 8383.000
372.8810, 8268.000
374.0820, 8180.000
375.2830, 8081.000
376.4830, 8063.000
377.6840, 8091.000
378.8840, 7970.000
380.0840, 8011.000
381.2840, 7958.000
382.4840, 7887.000
383.6840, 7887.000
384.8830, 7795.000
386.0830, 7813.000
387.2820, 7760.000
388.4810, 7805.000
389.6800, 7733.000
390.8780, 7707.000
392.0770, 7663.000
393.2750, 7630.000
394.4730, 7575.000
395.6710, 7554.000
396.8690, 7566.000
398.0660, 7427.000
399.2640, 7437.000
400.4610, 7350.000
401.6580, 7280.000
402.8550, 7212.000
404.0520, 7204.000
405.2490, 7139.000
406.4450, 7115.000
407.6410, 7120.000
408.8370, 7000.000
410.0330, 7067.000
411.2290, 7165.000
412.4240, 7080.000
413.6200, 7054.000
414.8150, 7087.000
416.0100, 7082.000
417.2050, 7230.000
418.4000, 7094.000
419.5940, 7193.000
420.7880, 7154.000
421.9830, 7147.000
423.1770, 7164.000
424.3700, 7198.000
425.5640, 7166.000
426.7580, 7234.000
427.9510, 7185.000
429.1440, 7145.000
430.3370, 7171.000
431.5300, 7049.000
432.7220, 7043.000
433.9150, 6945.000
435.1070, 6962.000
436.2990, 7090.000
437.4910, 6966.000
438.6830, 7050.000
439.8750, 7067.000
441.0660, 7041.000
442.2570, 7031.000
443.4480, 7043.000
444.6390, 7150.000
445.8300, 7191.000
447.0210, 7183.000
448.2110, 7236.000
449.4010, 7206.000
450.5910, 7270.000
451.7810, 7222.000
452.9710, 7172.000
454.1610, 7258.000
455.3500, 7327.000
456.5390, 7378.000
457.7280, 7384.000
458.9170, 7412.179
460.1060, 7409.000
461.2940, 7406.000
462.4830, 7428.000
463.6710, 7402.000
464.8590, 7467.000
466.0470, 7435.000
467.2350, 7558.000
468.4220, 7553.000
469.6090, 7474.000
470.7970, 7557.000
471.9840, 7555.000
473.1700, 7581.000
474.3570, 7616.000
475.5440, 7537.000
476.7300, 7492.000
477.9160, 7551.000
479.1020, 7470.000
480.2880, 7476.000
481.4740, 7440.000
482.6590, 7509.000
483.8440, 7575.000
485.0300, 7481.000
486.2140, 7456.000
487.3990, 7566.000
488.5840, 7467.000
489.7680, 7542.000
490.9530, 7477.000
492.1370, 7463.000
493.3210, 7590.000
494.5040, 7412.000
495.6880, 7424.000
496.8720, 7372.000
498.0550, 7560.000
499.2380, 7432.000
500.4210, 7433.000
501.6040, 7439.000
502.7860, 7386.000
503.9690, 7360.000
505.1510, 7412.000
506.3330, 7381.000
507.5150, 7350.000
508.6970, 7314.000
509.8780, 7419.000
511.0600, 7380.000
512.2410, 7286.000
513.4220, 7201.000
514.6030, 7314.000
515.7840, 7310.000
516.9640, 7395.000
518.1440, 7319.000
519.3250, 7219.000
520.5050, 7387.000
521.6850, 7463.000
522.8640, 7359.000
524.0440, 7250.000
525.2230, 7366.000
526.4020, 7344.000
527.5820, 7504.000
528.7600, 7451.000
529.9390, 7510.000
531.1180, 7589.000
532.2960, 7541.000
533.4740, 7483.000
534.6520, 7493.000
535.8300, 7742.000
537.0080, 7669.000
538.1850, 7764.000
539.3630, 7718.000
540.5400, 7832.000
541.7170, 7914.000
542.8940, 7995.000
544.0700, 8161.000
545.2470, 8123.000
546.4230, 8335.000
547.5990, 8380.000
548.7750, 8604.000
549.9510, 8799.000
551.1270, 9146.000
552.3020, 9267.000
553.4780, 9487.347
554.6530, 9691.000
555.8280, 9806.000
557.0030, 10027.00
558.1770, 10139.00
559.3520, 10200.00
560.5260, 10220.00
561.7000, 10174.00
562.8740, 10103.00
564.0480, 9955.000
565.2220, 9860.000
566.3950, 9802.000
567.5680, 9599.000
568.7420, 9316.000
569.9150, 9334.000
571.0870, 9155.000
572.2600, 9228.000
573.4320, 9143.000
574.6050, 8997.000
575.7770, 8925.000
576.9490, 8835.000
578.1210, 8821.000
579.2920, 8805.458
580.4640, 8876.000
581.6350, 8809.000
582.8060, 8946.000
583.9770, 8897.000
585.1480, 9034.000
586.3190, 9086.000
587.4890, 9029.000
588.6590, 9192.000
589.8290, 9343.000
590.9990, 9259.000
592.1690, 9442.000
593.3390, 9620.000
594.5080, 9687.000
595.6770, 9777.000
596.8470, 9846.625
598.0160, 9826.000
599.1840, 9928.000
600.3530, 9859.000
601.5210, 9887.000
602.6900, 10184.00
603.8580, 10167.00
605.0260, 10179.00
606.1930, 10193.00
607.3610, 10251.00
608.5280, 10403.00
609.6960, 10459.00
610.8630, 10539.21
612.0300, 10594.00
613.1970, 10676.00
614.3630, 10842.00
615.5300, 10925.00
616.6960, 11094.00
617.8620, 11152.00
619.0280, 11255.00
620.1940, 11369.00
621.3590, 11504.00
622.5250, 11431.00
623.6900, 11647.00
624.8550, 11708.00
626.0200, 11883.00
627.1850, 11963.00
628.3490, 12118.00
629.5140, 12336.00
630.6780, 12349.00
631.8420, 12504.00
633.0060, 12711.00
634.1700, 12996.00
635.3330, 13042.00
636.4970, 13450.00
637.6600, 13636.00
638.8230, 13851.00
639.9860, 14017.00
641.1490, 14492.00
642.3110, 14644.00
643.4740, 15159.00
644.6360, 15499.00
645.7980, 15578.00
646.9600, 16067.00
648.1220, 16721.00
649.2840, 17132.00
650.4450, 17684.00
651.6060, 18141.00
652.7670, 18524.00
653.9280, 18839.00
655.0890, 18988.00
656.2500, 18935.00
657.4100, 18675.00
658.5700, 18586.00
659.7300, 18254.00
660.8900, 17897.00
662.0500, 17505.00
663.2100, 17108.00
664.3690, 16924.00
665.5280, 16804.00
666.6880, 16809.00
667.8460, 16943.00
669.0050, 16664.00
670.1640, 16935.00
671.3220, 17150.00
672.4810, 17162.00
673.6390, 17707.00
674.7970, 18000.00
675.9540, 18226.00
677.1120, 18657.00
678.2690, 18872.00
679.4270, 19367.00
680.5840, 19778.00
681.7410, 20193.00
682.8980, 20657.00
684.0540, 21089.00
685.2110, 21569.00
686.3670, 22132.00
687.5230, 22644.00
688.6790, 23076.00
689.8350, 23509.21
690.9900, 23949.00
692.1460, 24284.00
693.3010, 24727.00
694.4560, 25166.00
695.6110, 25348.00
696.7660, 25812.00
697.9210, 26007.00
699.0750, 26794.00
700.2290, 26994.00
701.3840, 27376.00
702.5370, 27466.00
703.6910, 27797.00
704.8450, 28095.00
705.9980, 28473.00
707.1520, 28695.00
708.3050, 28832.00
709.4580, 29047.00
710.6110, 29240.00
711.7630, 29139.00
712.9160, 29178.00
714.0680, 29133.00
715.2200, 29243.00
716.3720, 29167.00
717.5240, 28822.00
718.6760, 28849.00
719.8270, 28627.00
720.9780, 28193.00
722.1300, 28007.00
723.2810, 27701.00
724.4310, 27295.00
725.5820, 26803.00
726.7330, 26261.00
727.8830, 25895.00
729.0330, 25454.00
730.1830, 25007.00
731.3330, 24324.00
732.4830, 24031.00
733.6320, 23457.00
734.7810, 23164.00
735.9310, 22734.00
737.0800, 22297.00
738.2290, 21901.00
739.3770, 21520.00
740.5260, 21143.29
741.6740, 20821.16
742.8220, 20493.00
743.9700, 20281.00
745.1180, 20096.00
746.2660, 19999.00
747.4130, 19661.00
748.5610, 19469.00
749.7080, 19354.11
750.8550, 19338.00
752.0020, 19218.00
753.1490, 19257.00
754.2950, 19187.12
755.4420, 19213.00
756.5880, 19134.00
757.7340, 19046.00
758.8800, 19070.00
760.0250, 18785.00
761.1710, 18545.00
762.3160, 18541.00
763.4620, 18354.80
764.6070, 18292.00
765.7520, 18179.00
766.8960, 18059.00
768.0410, 17921.00
769.1850, 17717.00
770.3300, 17607.00
771.4740, 17329.00
772.6180, 17247.79
773.7610, 17098.00
774.9050, 17031.00
776.0480, 16904.00
777.1920, 16794.00
778.3350, 16698.00
779.4780, 16531.00
780.6200, 16390.00
781.7630, 16335.00
782.9060, 16279.00
784.0480, 16373.00
785.1900, 16117.00
786.3320, 16173.00
787.4740, 16078.00
788.6150, 15897.00
789.7570, 15728.00
790.8980, 15570.13
792.0390, 15414.00
793.1800, 15208.00
794.3210, 14928.00
795.4620, 14730.25
796.6020, 14807.00
797.7420, 14358.00
798.8830, 14348.00
800.0230, 14210.00
801.1620, 13924.00
802.3020, 13688.00
803.4420, 13402.00
804.5810, 13377.00
805.7200, 13177.00
806.8590, 12894.00
807.9980, 12583.00
809.1370, 12484.00
810.2750, 12143.00
811.4140, 12100.00
812.5520, 12016.00
813.6900, 11769.00
814.8280, 11561.00
815.9650, 11591.00
817.1030, 11419.00
818.2400, 11177.00
819.3780, 11170.00
820.5150, 11025.00
821.6520, 10883.00
822.7880, 10895.00
823.9250, 10756.00
825.0610, 10751.00
826.1980, 10605.00
827.3340, 10635.00
828.4700, 10510.00
829.6050, 10591.00
830.7410, 10437.59
831.8760, 10282.00
833.0120, 10242.00
834.1470, 10162.00
835.2820, 10071.28
836.4160, 10045.00
837.5510, 9915.000
838.6860, 9894.000
839.8200, 9800.000
840.9540, 9760.000
842.0880, 9668.000
843.2220, 9591.000
844.3550, 9737.000
845.4890, 9556.000
846.6220, 9578.000
847.7550, 9457.000
848.8880, 9425.000
850.0210, 9265.000
851.1540, 9420.000
852.2860, 9450.000
853.4190, 9379.000
854.5510, 9298.000
855.6830, 9352.000
856.8150, 9315.000
857.9460, 9229.000
859.0780, 9353.000
860.2090, 9221.000
861.3410, 9203.000
862.4720, 9130.000
863.6020, 9136.000
864.7330, 9139.586
865.8640, 9081.000
866.9940, 9177.000
868.1240, 9293.000
869.2540, 9296.000
870.3840, 9166.000
871.5140, 9300.000
872.6440, 9268.000
873.7730, 9326.000
874.9020, 9308.000
876.0320, 9359.000
877.1600, 9360.000
878.2890, 9411.000
879.4180, 9496.000
880.5460, 9491.000
881.6750, 9542.098
882.8030, 9517.000
883.9310, 9599.000
885.0590, 9613.000
886.1860, 9656.000
887.3140, 9603.000
888.4410, 9583.000
889.5680, 9771.000
890.6950, 9679.000
891.8220, 9810.000
892.9490, 9783.000
894.0750, 9805.000
895.2020, 9875.000
896.3280, 10006.00
897.4540, 9829.000
898.5800, 10018.00
899.7050, 10007.00
900.8310, 9994.000
901.9560, 10170.00
903.0820, 10145.00
904.2070, 10465.00
905.3320, 10403.34
906.4560, 10389.00
907.5810, 10428.00
908.7050, 10325.00
909.8300, 10406.00
910.9540, 10612.00
912.0780, 10572.14
913.2010, 10670.76
914.3250, 10737.13
915.4480, 10772.72
916.5720, 10696.71
917.6950, 10756.21
918.8180, 10756.14
919.9410, 10750.03
921.0630, 10817.87
922.1860, 10738.78
923.3080, 10707.00
924.4300, 10753.00
925.5520, 10848.00
926.6740, 10873.00
927.7960, 10770.00
928.9170, 10870.00
930.0390, 10818.00
931.1600, 10855.00
932.2810, 10858.29
933.4020, 10732.00
934.5230, 10817.00
935.6430, 10729.00
936.7640, 10645.00
937.8840, 10537.00
939.0040, 10671.00
940.1240, 10705.00
941.2440, 10658.00
942.3630, 10578.00
943.4830, 10679.00
944.6020, 10691.00
945.7210, 10708.00
946.8400, 10765.00
947.9590, 10776.00
949.0770, 10677.00
950.1960, 10722.00
951.3140, 10690.00
952.4320, 10702.00
953.5500, 10687.00
954.6680, 10614.00
955.7860, 10630.00
956.9030, 10571.00
958.0210, 10430.00
959.1380, 10450.00
960.2550, 10548.00
961.3720, 10423.00
962.4890, 10402.00
963.6050, 10296.00
964.7220, 10299.77
965.8380, 10396.00
966.9540, 10351.00
968.0700, 10428.34
969.1860, 10444.82
970.3010, 10513.00
971.4170, 10502.00
972.5320, 10491.00
973.6470, 10543.00
974.7620, 10550.00
975.8770, 10706.00
976.9910, 10674.00
978.1060, 10651.00
979.2200, 10837.00
980.3340, 10870.00
981.4480, 10735.00
982.5620, 10958.00
983.6760, 11004.00
984.7890, 11164.00
985.9030, 11308.00
987.0160, 11343.00
988.1290, 11461.00
989.2420, 11711.00
990.3550, 11903.00
991.4670, 12052.00
992.5800, 12363.00
993.6920, 12476.00
994.8040, 12811.00
995.9160, 13079.00
997.0280, 13380.00
998.1390, 13594.00
999.2510, 13843.00
1000.362, 14417.00
1001.473, 14665.00
1002.584, 15313.00
1003.695, 15732.00
1004.805, 16114.00
1005.916, 16760.51
1007.026, 17092.00
1008.136, 17933.00
1009.246, 18585.00
1010.356, 19181.00
1011.466, 20163.00
1012.576, 21158.00
1013.685, 22040.00
1014.794, 23029.00
1015.903, 24299.00
1017.012, 25441.00
1018.121, 26556.00
1019.229, 27794.00
1020.338, 29015.00
1021.446, 29914.00
1022.554, 31437.00
1023.662, 32125.00
1024.770, 33121.00
1025.878, 34022.00
1026.985, 34787.00
1028.092, 35494.00
1029.200, 35936.00
1030.307, 36340.00
1031.413, 36674.00
1032.520, 36407.00
1033.627, 36107.00
1034.733, 35858.00
1035.839, 35435.00
1036.945, 34487.00
1038.051, 33549.00
1039.157, 32735.00
1040.262, 31533.00
1041.368, 30720.00
1042.473, 29286.00
1043.578, 28010.00
1044.683, 26971.00
1045.788, 25691.00
1046.893, 24596.00
1047.997, 23307.00
1049.101, 22006.00
1050.205, 21045.00
1051.309, 20068.00
1052.413, 19291.00
1053.517, 18336.00
1054.621, 17452.00
1055.724, 16870.00
1056.827, 16189.00
1057.930, 15698.00
1059.033, 15307.00
1060.136, 14824.00
1061.238, 14468.29
1062.341, 14212.00
1063.443, 13821.00
1064.545, 13569.00
1065.647, 13375.00
1066.749, 13132.00
1067.850, 12980.00
1068.952, 12904.00
1070.053, 12687.00
1071.154, 12707.00
1072.255, 12437.00
1073.356, 12248.00
1074.457, 12389.00
1075.557, 12080.00
1076.658, 12291.00
1077.758, 12059.00
1078.858, 11940.00
1079.958, 11813.00
1081.057, 11818.00
1082.157, 11726.10
1083.256, 11677.57
1084.356, 11641.00
1085.455, 11600.00
1086.554, 11552.00
1087.653, 11549.00
1088.751, 11420.00
1089.850, 11324.00
1090.948, 11461.00
1092.046, 11213.00
1093.144, 11303.00
1094.242, 11233.00
1095.340, 11093.00
1096.437, 11174.00
1097.534, 10959.00
1098.632, 10919.00
1099.729, 10794.00
1100.826, 10692.97
1101.922, 10731.00
1103.019, 10560.00
1104.115, 10675.00
1105.212, 10691.00
1106.308, 10540.00
1107.404, 10476.00
1108.499, 10368.00
1109.595, 10448.00
1110.691, 10371.00
1111.786, 10163.00
1112.881, 10163.00
1113.976, 9979.000
1115.071, 9841.000
1116.166, 9751.000
1117.260, 9747.000
1118.355, 9520.000
1119.449, 9504.000
1120.543, 9373.000
1121.637, 9353.000
1122.731, 9217.000
1123.824, 9170.000
1124.918, 9116.000
1126.011, 9054.644
1127.104, 9064.000
1128.197, 9012.000
1129.290, 9024.000
1130.382, 9011.181
1131.475, 8955.000
1132.567, 9007.000
1133.659, 9017.000
1134.751, 9027.000
1135.843, 9028.000
1136.935, 9022.092
1138.027, 8949.000
1139.118, 8963.000
1140.209, 8927.000
1141.300, 8817.000
1142.391, 8887.000
1143.482, 8862.000
1144.573, 8771.000
1145.663, 8725.000
1146.754, 8775.000
1147.844, 8819.000
1148.934, 8897.000
1150.024, 8869.000
1151.113, 8813.000
1152.203, 8874.000
1153.292, 8853.000
1154.381, 8908.000
1155.470, 8808.000
1156.559, 8844.000
1157.648, 8842.000
1158.737, 8806.000
1159.825, 8848.000
1160.913, 8816.000
1162.001, 8838.000
1163.089, 8868.000
1164.177, 8868.000
1165.265, 8841.000
1166.352, 8839.000
1167.440, 8830.387
1168.527, 8779.000
1169.614, 8834.000
1170.701, 8788.000
1171.788, 8820.000
1172.874, 8802.000
1173.961, 8910.000
1175.047, 8929.000
1176.133, 8863.000
1177.219, 8946.000
1178.305, 8953.000
1179.390, 8981.000
1180.476, 9016.000
1181.561, 9074.000
1182.646, 9043.000
1183.731, 9030.000
1184.816, 9056.000
1185.901, 9210.000
1186.985, 9190.000
1188.070, 9171.000
1189.154, 9106.000
1190.238, 9060.000
1191.322, 8952.000
1192.406, 8995.000
1193.489, 8926.000
1194.573, 8915.000
1195.656, 8958.000
1196.739, 8810.000
1197.822, 8815.000
1198.905, 8877.000
1199.988, 8765.000
1201.070, 8800.000
1202.153, 8854.000
1203.235, 8754.000
1204.317, 8747.000
1205.399, 8887.000
1206.481, 8860.000
1207.562, 8924.000
1208.644, 8931.000
1209.725, 8819.000
1210.806, 9099.000
1211.887, 9014.000
1212.968, 9097.000
1214.049, 9237.000
1215.129, 9078.000
1216.209, 9118.000
1217.290, 9126.000
1218.370, 9118.000
1219.450, 9204.000
1220.529, 9142.000
1221.609, 9290.000
1222.688, 9195.000
1223.768, 9239.000
1224.847, 9145.000
1225.926, 9395.000
1227.005, 9314.000
1228.083, 9292.000
1229.162, 9210.000
1230.240, 9196.297
1231.318, 9177.000
1232.396, 9162.000
1233.474, 9189.000
1234.552, 9167.000
1235.629, 9237.000
1236.707, 9162.000
1237.784, 9108.000
1238.861, 9274.000
1239.938, 9233.000
1241.015, 9083.000
1242.092, 9317.000
1243.168, 9168.000
1244.244, 9283.000
1245.321, 9292.000
1246.397, 9181.000
1247.473, 9248.000
1248.548, 9288.000
1249.624, 9318.000
1250.699, 9376.000
1251.775, 9438.000
1252.850, 9283.000
1253.925, 9300.000
1254.999, 9336.000
1256.074, 9397.000
1257.148, 9327.000
1258.223, 9283.000
1259.297, 9385.000
1260.371, 9288.000
1261.445, 9182.000
1262.519, 9182.000
1263.592, 9111.000
1264.666, 9154.000
1265.739, 9149.000
1266.812, 9059.000
1267.885, 9092.000
1268.958, 9063.000
1270.030, 9004.000
1271.103, 9015.000
1272.175, 9176.000
1273.247, 9089.000
1274.319, 9161.000
1275.391, 9141.000
1276.463, 8971.000
1277.535, 9038.000
1278.606, 9115.000
1279.677, 9013.000
1280.748, 9080.000
1281.819, 9176.000
1282.890, 9091.000
1283.961, 9164.000
1285.031, 9086.000
1286.102, 9249.000
1287.172, 9183.631
1288.242, 9262.000
1289.312, 9159.000
1290.381, 9150.000
1291.451, 9193.000
1292.520, 9142.000
1293.590, 9100.000
1294.659, 9240.000
1295.728, 9114.000
1296.797, 9226.000
1297.865, 9265.000
1298.934, 9118.000
1300.002, 9131.000
1301.070, 9217.000
1302.138, 9215.000
1303.206, 9100.000
1304.274, 9297.000
1305.341, 9171.000
1306.409, 9063.000
1307.476, 9178.000
1308.543, 9277.000
1309.610, 9280.000
1310.677, 9090.000
1311.744, 9141.000
1312.810, 9116.000
1313.877, 9173.000
1314.943, 9130.000
1316.009, 9160.000
1317.075, 9206.000
1318.140, 9046.000
1319.206, 9100.000
1320.272, 9060.000
1321.337, 9103.000
1322.402, 9041.000
1323.467, 9064.000
1324.532, 9133.000
1325.596, 9128.000
1326.661, 8996.000
1327.725, 9094.000
1328.790, 9049.000
1329.854, 9101.000
1330.918, 9086.000
1331.981, 9025.000
1333.045, 9127.000
1334.108, 9113.000
1335.172, 9018.000
1336.235, 9079.000
1337.298, 9223.000
1338.361, 9116.000
1339.423, 9121.000
1340.486, 9229.000
1341.548, 9100.000
1342.611, 9178.000
1343.673, 9193.000
1344.735, 9281.000
1345.796, 9250.000
1346.858, 9188.000
1347.919, 9191.000
1348.981, 9271.000
1350.042, 9188.000
1351.103, 9340.000
1352.164, 9215.000
1353.225, 9251.000
1354.285, 9158.000
1355.346, 9112.000
1356.406, 9169.000
1357.466, 9203.000
1358.526, 9232.000
1359.586, 9254.000
1360.645, 9246.000
1361.705, 9248.000
1362.764, 9155.000
1363.823, 9217.000
1364.882, 9330.000
1365.941, 9234.000
1367.000, 9279.000
1368.059, 9197.000
1369.117, 9206.000
1370.175, 9173.000
1371.233, 9188.000
1372.291, 9339.000
1373.349, 9303.000
1374.407, 9473.000
1375.464, 9388.778
1376.522, 9462.000
1377.579, 9353.000
1378.636, 9196.000
1379.693, 9422.000
1380.750, 9253.000
1381.806, 9221.000
1382.863, 9368.000
1383.919, 9401.000
1384.975, 9398.000
1386.031, 9328.000
1387.087, 9265.000
1388.143, 9394.000
1389.199, 9344.000
1390.254, 9331.000
1391.309, 9439.000
1392.364, 9296.000
1393.419, 9320.000
1394.474, 9400.000
1395.529, 9400.000
1396.583, 9465.000
1397.638, 9374.000
1398.692, 9398.000
1399.746, 9453.000
1400.800, 9469.000
1401.853, 9522.000
1402.907, 9505.000
1403.960, 9460.000
1405.014, 9461.000
1406.067, 9506.000
1407.120, 9439.000
1408.173, 9483.000
1409.225, 9469.000
1410.278, 9411.000
1411.330, 9468.000
1412.383, 9623.000
1413.435, 9449.000
1414.487, 9553.000
1415.538, 9445.000
1416.590, 9545.000
1417.641, 9442.000
1418.693, 9543.000
1419.744, 9517.000
1420.795, 9498.000
1421.846, 9599.000
1422.897, 9572.000
1423.947, 9556.000
1424.998, 9630.000
1426.048, 9595.665
1427.098, 9640.079
1428.148, 9642.000
1429.198, 9654.000
1430.247, 9776.000
1431.297, 9689.505
1432.346, 9817.000
1433.396, 9740.000
1434.445, 9798.000
1435.494, 9703.000
1436.542, 9734.000
1437.591, 9764.000
1438.639, 9822.000
1439.688, 9793.000
1440.736, 9880.000
1441.784, 9842.000
1442.832, 9741.000
1443.880, 9919.000
1444.927, 9946.000
1445.975, 9800.000
1447.022, 9981.000
1448.069, 9986.000
1449.116, 9936.000
1450.163, 9856.000
1451.209, 9865.000
1452.256, 9816.000
1453.302, 9840.000
1454.348, 9833.785
1455.394, 9836.273
1456.440, 9857.000
1457.486, 9854.000
1458.532, 9885.000
1459.577, 9878.000
1460.623, 9833.000
1461.668, 9921.000
1462.713, 9965.000
1463.758, 9866.000
1464.802, 9887.000
1465.847, 9837.000
1466.891, 9979.000
1467.936, 9998.000
1468.980, 9761.000
1470.024, 9924.000
1471.067, 9882.000
1472.111, 9916.000
1473.155, 9862.000
1474.198, 9898.000
1475.241, 9917.000
1476.284, 9912.000
1477.327, 9852.000
1478.370, 9931.000
1479.413, 9864.000
1480.455, 9858.000
1481.497, 9967.000
1482.540, 9829.000
1483.582, 9919.000
1484.624, 9857.000
1485.665, 9841.000
1486.707, 9736.000
1487.748, 9845.000
1488.790, 9862.000
1489.831, 9953.000
1490.872, 9933.482
1491.912, 9858.000
1492.953, 9867.000
1493.994, 9901.000
1495.034, 9848.000
1496.074, 9904.000
1497.114, 9881.000
1498.154, 9763.000
1499.194, 9797.000
1500.234, 9843.000
1501.273, 9730.000
1502.313, 9786.000
1503.352, 9805.000
1504.391, 9800.000
1505.430, 9873.000
1506.468, 9793.000
1507.507, 9796.000
1508.545, 9796.000
1509.584, 9855.000
1510.622, 9857.000
1511.660, 9837.000
1512.698, 9858.000
1513.735, 9820.000
1514.773, 9811.373
1515.810, 9710.000
1516.848, 9786.000
1517.885, 9778.000
1518.922, 9800.000
1519.958, 10009.00
1520.995, 9897.728
1522.032, 9947.305
1523.068, 9900.000
1524.104, 9856.000
1525.140, 9897.263
1526.176, 9966.000
1527.212, 9906.000
1528.248, 9899.000
1529.283, 9828.000
1530.318, 9945.000
1531.353, 9935.000
1532.389, 9892.000
1533.423, 9838.000
1534.458, 9850.146
1535.493, 9883.000
1536.527, 9868.000
1537.561, 9934.000
1538.596, 9969.000
1539.630, 9845.000
1540.663, 9951.000
1541.697, 9813.000
1542.731, 10076.00
1543.764, 9821.000
1544.797, 9968.000
1545.830, 10026.00
1546.863, 9890.000
1547.896, 10040.00
1548.929, 10018.00
1549.961, 9970.000
1550.994, 10071.00
1552.026, 10033.00
1553.058, 10025.00
1554.090, 10051.00
1555.121, 10127.00
1556.153, 9997.000
1557.185, 10026.00
1558.216, 9950.000
1559.247, 9953.000
1560.278, 9935.000
1561.309, 9985.000
1562.340, 10052.00
##END=



