##NAMES=Astrophyllite
##RRUFFID=R060103
##IDEAL CHEMISTRY=K_2_NaFe^2+^_7_Ti^4+^_2_(Si_4_O_12_)_2_O_2_(OH)_4_F
##LOCALITY=Brivik, Norway
##OWNER=RRUFF
##SOURCE=University of Arizona Mineral Museum
##DESCRIPTION=Brown fragment embedded in matrix
##STATUS=The identification of this mineral is confirmed by single-crystal X-ray diffraction and chemical analysis.
##URL=rruff.info/R060103
##MEASURED CHEMISTRY=K_2.00_Na_1.00_(Fe^2+^_0.55_Mn_0.32_Fe^3+^_0.04_Mg_0.04_Ca_0.04_)_7_(Ti_0.66_Zr_0.18_Al_0.16_)_2_Si_8.00_O_26_(OH)_4_F_1.00_
##PIN_ID=M01528
##ORIENTATION=Laser parallel to (1 0 1). Fiducial mark perpendicular to laser is parallel to c [0 0 1]
157.5600, 12031.00
158.7920, 12063.00
160.0240, 12041.00
161.2560, 12047.00
162.4870, 12368.00
163.7180, 12438.00
164.9490, 12586.00
166.1800, 12623.00
167.4110, 12554.00
168.6410, 12520.00
169.8720, 12570.41
171.1020, 12511.99
172.3320, 12627.00
173.5620, 12484.00
174.7910, 12433.00
176.0210, 12436.00
177.2500, 12081.00
178.4790, 11995.00
179.7080, 11867.00
180.9370, 11872.00
182.1650, 11574.00
183.3940, 11405.00
184.6220, 11283.00
185.8500, 11240.80
187.0780, 11187.21
188.3050, 11153.02
189.5330, 11212.00
190.7600, 11173.00
191.9870, 11234.00
193.2140, 11339.00
194.4410, 11288.00
195.6680, 11398.00
196.8940, 11485.00
198.1200, 11517.00
199.3470, 11596.00
200.5720, 11704.00
201.7980, 11746.00
203.0240, 11880.00
204.2490, 11883.00
205.4740, 11830.00
206.6990, 11708.00
207.9240, 11811.00
209.1490, 11901.00
210.3740, 12042.00
211.5980, 12200.00
212.8220, 12431.00
214.0460, 12441.00
215.2700, 12529.00
216.4930, 12731.00
217.7170, 12941.00
218.9400, 13126.00
220.1630, 13226.00
221.3860, 13266.00
222.6090, 13510.00
223.8320, 13689.00
225.0540, 13674.00
226.2760, 13848.00
227.4980, 13695.00
228.7200, 13950.00
229.9420, 13814.00
231.1630, 13925.00
232.3850, 13875.41
233.6060, 13886.18
234.8270, 13859.90
236.0480, 13798.56
237.2690, 13597.18
238.4890, 13576.70
239.7090, 13483.74
240.9290, 13387.82
242.1490, 13392.79
243.3690, 13211.84
244.5890, 13057.00
245.8080, 12918.00
247.0270, 12881.00
248.2470, 12753.00
249.4650, 12636.00
250.6840, 12447.00
251.9030, 12384.55
253.1210, 12387.00
254.3390, 12294.00
255.5570, 12262.00
256.7750, 12363.00
257.9930, 12359.00
259.2100, 12438.00
260.4280, 12455.00
261.6450, 11979.00
262.8620, 12079.00
264.0790, 11827.00
265.2950, 11982.00
266.5120, 11792.00
267.7280, 11922.00
268.9440, 11824.00
270.1600, 11823.00
271.3760, 11630.00
272.5920, 11554.00
273.8070, 11572.00
275.0220, 11393.00
276.2370, 11268.00
277.4520, 11263.00
278.6670, 11068.00
279.8820, 11038.00
281.0960, 10980.00
282.3100, 10811.00
283.5240, 10879.00
284.7380, 10769.00
285.9520, 10785.00
287.1650, 10756.00
288.3780, 10852.00
289.5920, 10751.00
290.8050, 10719.00
292.0170, 10855.00
293.2300, 10818.00
294.4430, 10839.00
295.6550, 10871.00
296.8670, 10874.00
298.0790, 11020.00
299.2910, 11164.00
300.5020, 11306.00
301.7140, 11277.00
302.9250, 11384.00
304.1360, 11484.00
305.3470, 11585.00
306.5580, 11764.00
307.7680, 11824.67
308.9780, 11913.10
310.1890, 11981.00
311.3990, 12008.00
312.6090, 12053.00
313.8180, 12049.00
315.0280, 11977.00
316.2370, 12040.00
317.4460, 11965.96
318.6550, 11834.00
319.8640, 11843.00
321.0730, 11778.00
322.2810, 11653.00
323.4890, 11731.00
324.6980, 11570.00
325.9060, 11344.00
327.1130, 11428.00
328.3210, 11381.00
329.5280, 11309.00
330.7360, 11221.00
331.9430, 11230.00
333.1500, 11172.00
334.3560, 11196.68
335.5630, 11323.00
336.7690, 11280.00
337.9760, 11272.00
339.1820, 11342.00
340.3870, 11300.00
341.5930, 11512.00
342.7990, 11587.00
344.0040, 11682.00
345.2090, 11842.00
346.4140, 11781.72
347.6190, 11843.00
348.8240, 11675.00
350.0280, 11580.00
351.2330, 11505.00
352.4370, 11431.42
353.6410, 11542.00
354.8440, 11383.00
356.0480, 11241.00
357.2520, 11272.00
358.4550, 11013.00
359.6580, 11107.00
360.8610, 11134.00
362.0640, 11014.00
363.2660, 11079.00
364.4690, 11051.00
365.6710, 10977.00
366.8730, 10905.00
368.0750, 10944.00
369.2770, 10880.00
370.4780, 10989.00
371.6800, 10983.00
372.8810, 11142.00
374.0820, 11011.00
375.2830, 10906.00
376.4830, 10860.00
377.6840, 10951.00
378.8840, 10949.00
380.0840, 11096.00
381.2840, 10987.00
382.4840, 11066.00
383.6840, 11174.00
384.8830, 11091.00
386.0830, 11154.00
387.2820, 11330.00
388.4810, 11383.00
389.6800, 11335.00
390.8780, 11278.00
392.0770, 11193.00
393.2750, 11299.00
394.4730, 10872.00
395.6710, 10976.00
396.8690, 10868.00
398.0660, 10608.00
399.2640, 10579.00
400.4610, 10483.00
401.6580, 10215.00
402.8550, 10167.00
404.0520, 10046.00
405.2490, 9816.000
406.4450, 9884.000
407.6410, 9760.000
408.8370, 9766.000
410.0330, 9444.000
411.2290, 9512.000
412.4240, 9386.000
413.6200, 9438.000
414.8150, 9239.000
416.0100, 9232.000
417.2050, 9349.000
418.4000, 9221.000
419.5940, 9109.000
420.7880, 9235.000
421.9830, 9278.000
423.1770, 9159.000
424.3700, 9163.000
425.5640, 9226.000
426.7580, 9101.000
427.9510, 9195.000
429.1440, 8995.000
430.3370, 9083.000
431.5300, 9066.000
432.7220, 9033.000
433.9150, 8999.000
435.1070, 9031.000
436.2990, 9033.000
437.4910, 9026.952
438.6830, 8927.000
439.8750, 9048.000
441.0660, 8960.000
442.2570, 9008.000
443.4480, 9060.000
444.6390, 8988.000
445.8300, 8936.000
447.0210, 9065.000
448.2110, 8953.000
449.4010, 9108.000
450.5910, 9181.000
451.7810, 9054.000
452.9710, 9277.000
454.1610, 9225.000
455.3500, 9295.000
456.5390, 9280.000
457.7280, 9337.000
458.9170, 9285.000
460.1060, 9334.000
461.2940, 9446.000
462.4830, 9541.000
463.6710, 9446.000
464.8590, 9582.000
466.0470, 9527.000
467.2350, 9581.000
468.4220, 9748.000
469.6090, 9648.000
470.7970, 9754.000
471.9840, 9645.000
473.1700, 9645.000
474.3570, 9664.000
475.5440, 9665.000
476.7300, 9627.231
477.9160, 9609.818
479.1020, 9548.000
480.2880, 9519.000
481.4740, 9505.000
482.6590, 9439.000
483.8440, 9481.000
485.0300, 9492.000
486.2140, 9406.000
487.3990, 9375.000
488.5840, 9428.000
489.7680, 9426.000
490.9530, 9498.000
492.1370, 9492.000
493.3210, 9461.000
494.5040, 9407.000
495.6880, 9407.000
496.8720, 9375.968
498.0550, 9383.440
499.2380, 9379.000
500.4210, 9426.000
501.6040, 9507.000
502.7860, 9561.000
503.9690, 9524.000
505.1510, 9503.000
506.3330, 9555.000
507.5150, 9599.000
508.6970, 9566.000
509.8780, 9550.000
511.0600, 9703.000
512.2410, 9585.000
513.4220, 9591.000
514.6030, 9721.000
515.7840, 9735.000
516.9640, 9814.000
518.1440, 9701.000
519.3250, 9815.000
520.5050, 9774.000
521.6850, 9906.000
522.8640, 9787.000
524.0440, 9787.000
525.2230, 9757.000
526.4020, 9805.000
527.5820, 9849.000
528.7600, 9846.000
529.9390, 9846.000
531.1180, 9843.000
532.2960, 9826.000
533.4740, 9970.000
534.6520, 9839.000
535.8300, 9916.000
537.0080, 9752.000
538.1850, 9913.000
539.3630, 9939.000
540.5400, 9947.000
541.7170, 9835.000
542.8940, 10045.00
544.0700, 10032.00
545.2470, 10198.00
546.4230, 10346.00
547.5990, 10361.00
548.7750, 10435.00
549.9510, 10518.00
551.1270, 10805.00
552.3020, 10899.00
553.4780, 11224.00
554.6530, 11267.00
555.8280, 11435.00
557.0030, 11637.00
558.1770, 11883.00
559.3520, 11982.00
560.5260, 11872.00
561.7000, 11961.00
562.8740, 11892.00
564.0480, 11891.00
565.2220, 11890.00
566.3950, 11653.00
567.5680, 11591.00
568.7420, 11489.00
569.9150, 11505.00
571.0870, 11279.00
572.2600, 11327.00
573.4320, 11193.00
574.6050, 11180.00
575.7770, 11089.00
576.9490, 10904.00
578.1210, 11050.00
579.2920, 10934.00
580.4640, 11151.00
581.6350, 11175.00
582.8060, 11170.00
583.9770, 11410.00
585.1480, 11365.00
586.3190, 11462.00
587.4890, 11557.00
588.6590, 11656.00
589.8290, 11710.00
590.9990, 11733.00
592.1690, 11817.07
593.3390, 11882.00
594.5080, 11926.00
595.6770, 12014.00
596.8470, 12041.00
598.0160, 12104.00
599.1840, 12030.00
600.3530, 12070.00
601.5210, 12071.19
602.6900, 12123.00
603.8580, 12090.00
605.0260, 12053.00
606.1930, 12068.00
607.3610, 12058.18
608.5280, 12086.42
609.6960, 12118.00
610.8630, 12170.00
612.0300, 12282.00
613.1970, 12346.00
614.3630, 12525.00
615.5300, 12769.00
616.6960, 13073.82
617.8620, 13554.00
619.0280, 13914.00
620.1940, 14518.00
621.3590, 15115.00
622.5250, 15674.00
623.6900, 16215.00
624.8550, 16652.00
626.0200, 16829.00
627.1850, 16656.00
628.3490, 16322.00
629.5140, 15841.00
630.6780, 15371.00
631.8420, 14909.00
633.0060, 14581.00
634.1700, 14472.00
635.3330, 14278.00
636.4970, 14307.00
637.6600, 14548.00
638.8230, 14950.00
639.9860, 15368.00
641.1490, 15774.00
642.3110, 16208.00
643.4740, 16772.37
644.6360, 17532.00
645.7980, 17969.00
646.9600, 18624.00
648.1220, 19260.00
649.2840, 19396.00
650.4450, 19997.00
651.6060, 20361.00
652.7670, 20594.00
653.9280, 20630.00
655.0890, 20495.00
656.2500, 20320.00
657.4100, 19796.00
658.5700, 18976.00
659.7300, 18340.00
660.8900, 17465.00
662.0500, 16708.00
663.2100, 16103.00
664.3690, 15427.00
665.5280, 15071.00
666.6880, 14726.00
667.8460, 14510.00
669.0050, 14462.00
670.1640, 14351.00
671.3220, 14197.00
672.4810, 14199.00
673.6390, 14201.00
674.7970, 14351.00
675.9540, 14471.00
677.1120, 14565.00
678.2690, 14726.65
679.4270, 14929.00
680.5840, 14972.00
681.7410, 15022.00
682.8980, 15031.00
684.0540, 15408.00
685.2110, 15533.00
686.3670, 15770.00
687.5230, 15916.00
688.6790, 15978.00
689.8350, 16071.00
690.9900, 16295.00
692.1460, 16462.00
693.3010, 16541.00
694.4560, 16850.00
695.6110, 16833.00
696.7660, 16993.00
697.9210, 17125.00
699.0750, 17145.00
700.2290, 17129.00
701.3840, 17320.00
702.5370, 17352.00
703.6910, 17409.00
704.8450, 17530.47
705.9980, 17617.00
707.1520, 17729.00
708.3050, 17783.00
709.4580, 17923.00
710.6110, 17796.00
711.7630, 17863.00
712.9160, 17661.00
714.0680, 17929.00
715.2200, 17730.00
716.3720, 17801.00
717.5240, 17609.00
718.6760, 17492.00
719.8270, 17264.00
720.9780, 17232.00
722.1300, 17196.00
723.2810, 16983.00
724.4310, 16846.00
725.5820, 16603.00
726.7330, 16468.90
727.8830, 16499.00
729.0330, 16201.00
730.1830, 16035.00
731.3330, 15958.00
732.4830, 15658.00
733.6320, 15684.00
734.7810, 15160.00
735.9310, 15140.00
737.0800, 14894.00
738.2290, 14924.00
739.3770, 14672.00
740.5260, 14487.00
741.6740, 14552.00
742.8220, 14427.00
743.9700, 14327.00
745.1180, 14278.00
746.2660, 14279.00
747.4130, 14068.00
748.5610, 13958.00
749.7080, 14140.00
750.8550, 14118.00
752.0020, 13835.00
753.1490, 14047.00
754.2950, 13824.00
755.4420, 13898.00
756.5880, 13895.00
757.7340, 13887.00
758.8800, 13951.62
760.0250, 13958.00
761.1710, 14021.00
762.3160, 13976.00
763.4620, 13956.00
764.6070, 13918.00
765.7520, 13995.00
766.8960, 13879.00
768.0410, 13876.76
769.1850, 13899.00
770.3300, 13798.00
771.4740, 13786.00
772.6180, 13775.00
773.7610, 13813.00
774.9050, 13809.00
776.0480, 13807.46
777.1920, 13788.87
778.3350, 13774.00
779.4780, 13742.00
780.6200, 13726.40
781.7630, 13693.00
782.9060, 13682.00
784.0480, 13700.00
785.1900, 13675.00
786.3320, 13809.00
787.4740, 13806.00
788.6150, 13915.00
789.7570, 13834.00
790.8980, 13845.00
792.0390, 13846.00
793.1800, 13798.00
794.3210, 13714.00
795.4620, 13841.00
796.6020, 13699.00
797.7420, 13856.00
798.8830, 13617.00
800.0230, 13817.00
801.1620, 13521.00
802.3020, 13604.00
803.4420, 13466.00
804.5810, 13435.00
805.7200, 13494.00
806.8590, 13320.00
807.9980, 13417.00
809.1370, 13325.00
810.2750, 13245.00
811.4140, 13362.00
812.5520, 13385.00
813.6900, 13345.00
814.8280, 13243.00
815.9650, 13249.00
817.1030, 13259.00
818.2400, 13411.00
819.3780, 13345.00
820.5150, 13361.05
821.6520, 13418.00
822.7880, 13302.00
823.9250, 13294.00
825.0610, 13288.00
826.1980, 13510.00
827.3340, 13517.00
828.4700, 13397.00
829.6050, 13586.00
830.7410, 13382.00
831.8760, 13553.00
833.0120, 13537.00
834.1470, 13610.00
835.2820, 13656.00
836.4160, 13681.00
837.5510, 13937.00
838.6860, 13968.00
839.8200, 14126.00
840.9540, 14176.00
842.0880, 14164.00
843.2220, 14250.00
844.3550, 14655.00
845.4890, 14691.00
846.6220, 14723.00
847.7550, 14909.00
848.8880, 14955.00
850.0210, 14926.00
851.1540, 15210.00
852.2860, 15213.00
853.4190, 15548.00
854.5510, 15897.00
855.6830, 16052.00
856.8150, 16680.00
857.9460, 16808.00
859.0780, 17053.00
860.2090, 17159.00
861.3410, 17365.00
862.4720, 16917.00
863.6020, 16783.00
864.7330, 16440.00
865.8640, 16252.00
866.9940, 15873.00
868.1240, 15608.00
869.2540, 15330.00
870.3840, 15259.00
871.5140, 15270.00
872.6440, 15238.00
873.7730, 15087.00
874.9020, 15181.00
876.0320, 14934.00
877.1600, 15080.00
878.2890, 15030.00
879.4180, 14946.00
880.5460, 14811.00
881.6750, 14870.00
882.8030, 15056.00
883.9310, 14905.00
885.0590, 14991.00
886.1860, 14941.00
887.3140, 14970.00
888.4410, 15099.00
889.5680, 15280.00
890.6950, 15239.00
891.8220, 15351.00
892.9490, 15411.00
894.0750, 15577.00
895.2020, 15546.00
896.3280, 15695.00
897.4540, 15786.00
898.5800, 15940.00
899.7050, 15924.00
900.8310, 15934.00
901.9560, 16015.00
903.0820, 16111.00
904.2070, 16219.00
905.3320, 16375.00
906.4560, 16325.00
907.5810, 16420.00
908.7050, 16534.00
909.8300, 16751.00
910.9540, 16663.00
912.0780, 16669.00
913.2010, 16768.00
914.3250, 16723.00
915.4480, 16673.00
916.5720, 16684.00
917.6950, 16560.00
918.8180, 16674.00
919.9410, 16529.00
921.0630, 16619.00
922.1860, 16490.00
923.3080, 16628.00
924.4300, 16597.00
925.5520, 16622.00
926.6740, 16514.17
927.7960, 16527.56
928.9170, 16518.76
930.0390, 16488.89
931.1600, 16375.02
932.2810, 16369.66
933.4020, 16320.82
934.5230, 16270.19
935.6430, 16280.14
936.7640, 16178.50
937.8840, 16187.48
939.0040, 16152.32
940.1240, 16019.00
941.2440, 16023.00
942.3630, 15854.00
943.4830, 15749.00
944.6020, 15717.00
945.7210, 15656.00
946.8400, 15630.00
947.9590, 15603.00
949.0770, 15471.00
950.1960, 15640.00
951.3140, 15456.00
952.4320, 15436.00
953.5500, 15472.00
954.6680, 15332.00
955.7860, 15385.00
956.9030, 15268.00
958.0210, 15138.00
959.1380, 15046.00
960.2550, 14744.00
961.3720, 14792.00
962.4890, 14550.00
963.6050, 14415.00
964.7220, 14427.00
965.8380, 14422.00
966.9540, 14268.00
968.0700, 14231.00
969.1860, 14040.00
970.3010, 13968.00
971.4170, 13877.00
972.5320, 13873.00
973.6470, 13672.00
974.7620, 13602.00
975.8770, 13653.00
976.9910, 13601.00
978.1060, 13597.00
979.2200, 13603.00
980.3340, 13674.00
981.4480, 13862.00
982.5620, 13799.00
983.6760, 13960.00
984.7890, 13964.00
985.9030, 14028.00
987.0160, 14071.00
988.1290, 14145.00
989.2420, 14214.00
990.3550, 14317.00
991.4670, 14273.00
992.5800, 14297.00
993.6920, 14483.00
994.8040, 14578.00
995.9160, 15023.00
997.0280, 15264.00
998.1390, 15879.00
999.2510, 16660.00
1000.362, 17547.00
1001.473, 17943.00
1002.584, 18187.00
1003.695, 17729.00
1004.805, 17033.00
1005.916, 16468.00
1007.026, 16014.00
1008.136, 15745.00
1009.246, 15815.00
1010.356, 15767.00
1011.466, 16065.00
1012.576, 16256.63
1013.685, 16577.00
1014.794, 16948.00
1015.903, 17239.00
1017.012, 17733.00
1018.121, 18288.00
1019.229, 18537.00
1020.338, 18870.00
1021.446, 19362.00
1022.554, 19470.00
1023.662, 19623.00
1024.770, 19977.00
1025.878, 19943.00
1026.985, 20334.00
1028.092, 20418.00
1029.200, 20232.00
1030.307, 20111.00
1031.413, 20011.00
1032.520, 20121.00
1033.627, 20024.00
1034.733, 19584.00
1035.839, 19598.00
1036.945, 19279.00
1038.051, 19441.00
1039.157, 18979.00
1040.262, 18828.00
1041.368, 18424.00
1042.473, 18383.00
1043.578, 18001.00
1044.683, 17586.00
1045.788, 17391.00
1046.893, 17290.00
1047.997, 17077.00
1049.101, 16811.00
1050.205, 16474.00
1051.309, 16449.00
1052.413, 15993.00
1053.517, 15893.00
1054.621, 15658.00
1055.724, 15400.00
1056.827, 15350.00
1057.930, 15263.00
1059.033, 15213.00
1060.136, 15004.00
1061.238, 14988.00
1062.341, 14837.00
1063.443, 14800.00
1064.545, 14786.00
1065.647, 14812.00
1066.749, 14787.00
1067.850, 14861.00
1068.952, 14782.00
1070.053, 14859.00
1071.154, 14795.00
1072.255, 14859.00
1073.356, 15094.00
1074.457, 15065.00
1075.557, 15290.00
1076.658, 15280.00
1077.758, 15352.00
1078.858, 15604.00
1079.958, 15841.00
1081.057, 16016.00
1082.157, 16180.00
1083.256, 16164.00
1084.356, 16007.00
1085.455, 16013.00
1086.554, 15684.00
1087.653, 15903.00
1088.751, 15507.00
1089.850, 15506.00
1090.948, 15268.00
1092.046, 15275.00
1093.144, 15210.00
1094.242, 15107.00
1095.340, 15141.00
1096.437, 15111.00
1097.534, 15191.00
1098.632, 15007.00
1099.729, 15065.00
1100.826, 15106.00
1101.922, 14958.00
1103.019, 14985.00
1104.115, 15032.00
1105.212, 15079.00
1106.308, 15141.00
1107.404, 15175.00
1108.499, 15178.12
1109.595, 15154.76
1110.691, 15124.00
1111.786, 15049.00
1112.881, 14942.00
1113.976, 14878.00
1115.071, 14837.00
1116.166, 14810.00
1117.260, 14696.00
1118.355, 14537.00
1119.449, 14722.00
1120.543, 14721.00
1121.637, 14570.00
1122.731, 14634.00
1123.824, 14519.00
1124.918, 14499.00
1126.011, 14664.00
1127.104, 14614.00
1128.197, 14510.00
1129.290, 14614.00
1130.382, 14677.00
1131.475, 14588.00
1132.567, 14784.00
1133.659, 14588.00
1134.751, 14634.00
1135.843, 14600.00
1136.935, 14372.00
1138.027, 14384.00
1139.118, 14417.00
1140.209, 14357.00
1141.300, 14310.00
1142.391, 14304.00
1143.482, 14260.00
1144.573, 14328.00
1145.663, 14378.00
1146.754, 14370.00
1147.844, 14357.00
1148.934, 14445.00
1150.024, 14353.00
1151.113, 14327.00
1152.203, 14578.00
1153.292, 14471.00
1154.381, 14523.00
1155.470, 14549.00
1156.559, 14519.76
1157.648, 14509.00
1158.737, 14563.00
1159.825, 14559.00
1160.913, 14656.00
1162.001, 14727.00
1163.089, 14612.00
1164.177, 14843.00
1165.265, 14839.00
1166.352, 14643.00
1167.440, 14949.00
1168.527, 14991.00
1169.614, 14971.00
1170.701, 15071.00
1171.788, 15017.00
1172.874, 15115.00
1173.961, 15154.00
1175.047, 15231.00
1176.133, 15246.00
1177.219, 15143.00
1178.305, 14920.00
1179.390, 14983.00
1180.476, 14991.00
1181.561, 14944.00
1182.646, 15046.00
1183.731, 15196.00
1184.816, 15079.00
1185.901, 14945.00
1186.985, 15196.00
1188.070, 15028.00
1189.154, 15064.00
1190.238, 15000.00
1191.322, 14880.00
1192.406, 14794.00
1193.489, 14783.00
1194.573, 14603.00
1195.656, 14899.00
1196.739, 15035.00
1197.822, 14799.00
1198.905, 14961.00
1199.988, 15214.00
1201.070, 15033.00
1202.153, 15039.00
1203.235, 14960.00
1204.317, 14984.00
1205.399, 14903.00
1206.481, 14764.00
1207.562, 14960.00
1208.644, 14982.00
1209.725, 15166.00
1210.806, 15280.00
1211.887, 15248.00
1212.968, 15360.00
1214.049, 15660.00
1215.129, 15437.00
1216.209, 15657.00
1217.290, 15604.00
1218.370, 15484.00
1219.450, 15419.00
1220.529, 15466.00
1221.609, 15418.00
1222.688, 15258.00
1223.768, 15303.00
1224.847, 15252.00
1225.926, 15424.00
1227.005, 15433.00
1228.083, 15286.00
1229.162, 15522.00
1230.240, 15813.00
1231.318, 15776.00
1232.396, 15877.00
1233.474, 15851.00
1234.552, 16133.00
1235.629, 16164.00
1236.707, 16145.00
1237.784, 16208.00
1238.861, 16188.00
1239.938, 16202.00
1241.015, 16322.00
1242.092, 16216.00
1243.168, 16202.00
1244.244, 16199.00
1245.321, 16293.00
1246.397, 16387.00
1247.473, 16388.00
1248.548, 16475.00
1249.624, 16551.00
1250.699, 16538.71
1251.775, 16407.00
1252.850, 16482.00
1253.925, 16538.00
1254.999, 16394.00
1256.074, 16476.00
1257.148, 16558.00
1258.223, 16621.00
1259.297, 16836.00
1260.371, 16871.00
1261.445, 17044.50
1262.519, 17203.00
1263.592, 17320.00
1264.666, 17432.00
1265.739, 17504.00
1266.812, 17585.00
1267.885, 17685.10
1268.958, 17803.00
1270.030, 17869.00
1271.103, 17920.00
1272.175, 18001.00
1273.247, 17933.00
1274.319, 17801.00
1275.391, 17676.00
1276.463, 17670.00
1277.535, 17699.00
1278.606, 17429.00
1279.677, 17567.00
1280.748, 17411.00
1281.819, 17340.00
1282.890, 17295.00
1283.961, 17248.26
1285.031, 17353.00
1286.102, 17279.00
1287.172, 17278.00
1288.242, 17384.00
1289.312, 17383.00
1290.381, 17463.00
1291.451, 17738.00
1292.520, 18025.00
1293.590, 17927.00
1294.659, 18020.00
1295.728, 17952.00
1296.797, 17716.00
1297.865, 17826.00
1298.934, 17710.00
1300.002, 17982.00
1301.070, 17844.00
1302.138, 17848.00
1303.206, 17972.00
1304.274, 17947.00
1305.341, 18080.00
1306.409, 18095.00
1307.476, 18321.00
1308.543, 18510.00
1309.610, 18588.00
1310.677, 18606.00
1311.744, 18701.00
1312.810, 18743.00
1313.877, 18727.00
1314.943, 18770.00
1316.009, 18765.00
1317.075, 18707.00
1318.140, 18775.00
1319.206, 18529.00
1320.272, 18538.00
1321.337, 18309.00
1322.402, 17986.00
1323.467, 17950.00
1324.532, 17544.00
1325.596, 17444.00
1326.661, 17365.00
1327.725, 16992.00
1328.790, 16917.00
1329.854, 16757.00
1330.918, 16627.00
1331.981, 16369.00
1333.045, 16443.00
1334.108, 16308.00
1335.172, 16349.00
1336.235, 16097.00
1337.298, 16430.00
1338.361, 16461.00
1339.423, 16134.00
1340.486, 16455.00
1341.548, 16336.00
1342.611, 16331.00
1343.673, 16261.00
1344.735, 16423.00
1345.796, 16366.00
1346.858, 16354.00
1347.919, 16469.00
1348.981, 16271.00
1350.042, 16367.00
1351.103, 16336.00
1352.164, 16254.00
1353.225, 16218.00
1354.285, 16217.00
1355.346, 16148.86
1356.406, 16202.00
1357.466, 16075.00
1358.526, 16102.00
1359.586, 16101.00
1360.645, 15996.00
1361.705, 16381.00
1362.764, 16032.00
1363.823, 16340.00
1364.882, 16199.00
1365.941, 16190.00
1367.000, 16306.00
1368.059, 16293.92
1369.117, 16278.00
1370.175, 16458.00
1371.233, 16486.00
1372.291, 16582.00
1373.349, 16625.00
1374.407, 16538.00
1375.464, 16600.00
1376.522, 16666.62
1377.579, 16827.00
1378.636, 16846.00
1379.693, 16972.00
1380.750, 17029.00
1381.806, 16979.00
1382.863, 16985.89
1383.919, 16783.00
1384.975, 16865.00
1386.031, 16846.00
1387.087, 16796.00
1388.143, 16785.20
1389.199, 16781.89
1390.254, 16756.41
1391.309, 16709.89
1392.364, 16579.34
1393.419, 16557.29
1394.474, 16491.76
1395.529, 16424.44
1396.583, 16417.71
1397.638, 16209.00
1398.692, 16291.00
1399.746, 16157.00
1400.800, 16339.00
1401.853, 16167.00
1402.907, 16302.00
1403.960, 16273.00
1405.014, 16286.00
1406.067, 16160.00
1407.120, 16094.00
1408.173, 16091.27
1409.225, 16259.00
1410.278, 16093.00
1411.330, 16274.00
1412.383, 16343.00
1413.435, 16299.00
1414.487, 16404.00
1415.538, 16399.00
1416.590, 16288.00
1417.641, 16320.00
1418.693, 16346.00
1419.744, 16427.00
1420.795, 16429.00
1421.846, 16496.00
1422.897, 16477.00
1423.947, 16653.00
1424.998, 16559.00
1426.048, 16734.00
1427.098, 16795.00
1428.148, 16900.00
1429.198, 17147.00
1430.247, 17209.00
1431.297, 17605.00
1432.346, 17601.00
1433.396, 17886.00
1434.445, 18257.00
1435.494, 18519.00
1436.542, 18994.00
1437.591, 19388.00
1438.639, 19647.00
1439.688, 20130.00
1440.736, 20608.00
1441.784, 20861.00
1442.832, 21245.00
1443.880, 21507.00
1444.927, 21638.00
1445.975, 21691.00
1447.022, 21910.00
1448.069, 22186.00
1449.116, 22426.00
1450.163, 22588.63
1451.209, 22660.00
1452.256, 22802.00
1453.302, 22729.00
1454.348, 22614.00
1455.394, 22623.00
1456.440, 22536.00
1457.486, 22408.00
1458.532, 22283.71
1459.577, 22054.30
1460.623, 21829.00
1461.668, 21482.00
1462.713, 21021.00
1463.758, 20582.00
1464.802, 20262.00
1465.847, 19889.00
1466.891, 19607.99
1467.936, 19616.00
1468.980, 19168.00
1470.024, 19004.00
1471.067, 18946.00
1472.111, 18664.00
1473.155, 18353.00
1474.198, 18539.00
1475.241, 18462.00
1476.284, 18275.00
1477.327, 18309.00
1478.370, 18230.00
1479.413, 18299.00
1480.455, 18187.00
1481.497, 18101.00
1482.540, 17882.00
1483.582, 17796.00
1484.624, 17555.00
1485.665, 17443.00
1486.707, 17243.00
1487.748, 17115.00
1488.790, 16937.00
1489.831, 16720.00
1490.872, 16581.00
1491.912, 16721.00
1492.953, 16386.00
1493.994, 16554.00
1495.034, 16340.00
1496.074, 16366.00
1497.114, 16146.00
1498.154, 16151.00
1499.194, 16278.00
1500.234, 16140.00
1501.273, 16044.00
1502.313, 16250.00
1503.352, 16029.00
1504.391, 16037.00
1505.430, 16065.00
1506.468, 16105.00
1507.507, 16098.33
1508.545, 16122.14
1509.584, 16100.00
1510.622, 16122.00
1511.660, 16128.00
1512.698, 16091.00
1513.735, 16107.00
1514.773, 16083.00
1515.810, 16157.00
1516.848, 16213.00
1517.885, 16362.00
1518.922, 16290.00
1519.958, 16465.00
1520.995, 16279.00
1522.032, 16169.00
1523.068, 16679.00
1524.104, 16560.00
1525.140, 16574.00
1526.176, 16500.00
1527.212, 16559.00
1528.248, 16454.00
1529.283, 16802.00
1530.318, 16570.00
1531.353, 16700.00
1532.389, 16736.00
1533.423, 16653.00
1534.458, 16761.00
1535.493, 16659.00
1536.527, 16801.00
1537.561, 16820.00
1538.596, 16602.00
1539.630, 16707.00
1540.663, 16658.00
1541.697, 16756.00
1542.731, 16814.00
1543.764, 16651.00
1544.797, 16595.00
1545.830, 16594.88
1546.863, 16551.80
1547.896, 16575.00
1548.929, 16614.00
1549.961, 16624.00
1550.994, 16724.00
1552.026, 16559.00
1553.058, 16732.00
1554.090, 16548.00
1555.121, 16538.00
1556.153, 16533.00
1557.185, 16398.00
1558.216, 16395.00
1559.247, 16404.00
1560.278, 16533.00
1561.309, 16483.00
1562.340, 16559.00
##END=



