##NAMES=Astrophyllite
##RRUFFID=R060103
##IDEAL CHEMISTRY=K_2_NaFe^2+^_7_Ti^4+^_2_(Si_4_O_12_)_2_O_2_(OH)_4_F
##LOCALITY=Brivik, Norway
##OWNER=RRUFF
##SOURCE=University of Arizona Mineral Museum
##DESCRIPTION=Brown fragment embedded in matrix
##STATUS=The identification of this mineral is confirmed by single-crystal X-ray diffraction and chemical analysis.
##URL=rruff.info/R060103
##MEASURED CHEMISTRY=K_2.00_Na_1.00_(Fe^2+^_0.55_Mn_0.32_Fe^3+^_0.04_Mg_0.04_Ca_0.04_)_7_(Ti_0.66_Zr_0.18_Al_0.16_)_2_Si_8.00_O_26_(OH)_4_F_1.00_
##PIN_ID=L00382
##ORIENTATION=Laser parallel to b* (0 1 0). Fiducial mark perpendicular to laser is parallel to c [0 0 1]
80.65400, 11663.00
81.88700, 12273.00
83.11900, 12839.00
84.35200, 13228.00
85.58400, 13369.00
86.81600, 13357.00
88.04900, 13528.00
89.28100, 13737.00
90.51200, 14080.00
91.74400, 14113.00
92.97600, 14072.00
94.20700, 13777.00
95.43800, 13526.00
96.66900, 13175.00
97.90100, 12657.00
99.13100, 12526.00
100.3620, 12218.00
101.5930, 12080.00
102.8230, 11686.00
104.0530, 11375.00
105.2840, 11303.00
106.5140, 11136.00
107.7440, 11146.00
108.9730, 10599.00
110.2030, 10352.00
111.4320, 10232.00
112.6620, 9953.000
113.8910, 10039.00
115.1200, 10239.00
116.3490, 10349.00
117.5780, 10221.00
118.8060, 10388.31
120.0350, 10242.00
121.2630, 10487.00
122.4920, 10594.00
123.7200, 10617.00
124.9480, 10442.00
126.1750, 10225.00
127.4030, 10227.00
128.6310, 10141.00
129.8580, 10225.00
131.0850, 10136.00
132.3120, 10166.00
133.5390, 9907.000
134.7660, 9848.000
135.9930, 9582.000
137.2200, 9530.000
138.4460, 9326.000
139.6720, 9265.000
140.8980, 9131.000
142.1240, 8952.000
143.3500, 8869.000
144.5760, 8891.000
145.8020, 8983.000
147.0270, 8965.000
148.2520, 9009.000
149.4780, 9039.000
150.7030, 9221.000
151.9270, 9471.000
153.1520, 9689.000
154.3770, 9805.000
155.6010, 9853.000
156.8260, 10208.00
158.0500, 10382.00
159.2740, 10776.00
160.4980, 10982.00
161.7210, 11308.00
162.9450, 11567.71
164.1690, 11785.00
165.3920, 12033.00
166.6150, 12201.00
167.8380, 12360.00
169.0610, 12422.49
170.2840, 12442.00
171.5070, 12414.00
172.7290, 12314.41
173.9510, 12200.00
175.1740, 11991.00
176.3960, 11773.00
177.6180, 11494.00
178.8390, 11197.00
180.0610, 11003.00
181.2830, 10736.00
182.5040, 10495.00
183.7250, 10230.00
184.9460, 10110.00
186.1670, 9961.000
187.3880, 9942.000
188.6090, 9915.000
189.8290, 9754.000
191.0500, 9812.000
192.2700, 9996.000
193.4900, 10086.00
194.7100, 10077.00
195.9300, 10109.00
197.1490, 10252.51
198.3690, 10490.00
199.5880, 10605.00
200.8080, 10607.00
202.0270, 10905.00
203.2460, 10880.00
204.4650, 11063.00
205.6830, 11121.00
206.9020, 11252.00
208.1200, 11372.00
209.3380, 11447.00
210.5570, 11445.00
211.7750, 11547.00
212.9920, 11663.23
214.2100, 11739.00
215.4280, 11936.00
216.6450, 12084.00
217.8620, 12188.00
219.0790, 12656.00
220.2960, 12749.00
221.5130, 13002.00
222.7300, 13116.00
223.9460, 13561.00
225.1630, 13720.00
226.3790, 14156.00
227.5950, 14354.00
228.8110, 14599.00
230.0270, 14892.00
231.2430, 15039.00
232.4580, 15290.00
233.6740, 15388.00
234.8890, 15474.00
236.1040, 15653.00
237.3190, 15607.00
238.5340, 15660.00
239.7490, 15626.00
240.9630, 15564.00
242.1780, 15008.00
243.3920, 15067.00
244.6060, 14703.00
245.8200, 14475.00
247.0340, 14258.00
248.2470, 13702.13
249.4610, 13503.00
250.6740, 12650.00
251.8880, 12224.00
253.1010, 11802.00
254.3140, 11564.00
255.5270, 11198.00
256.7390, 10994.00
257.9520, 10691.00
259.1640, 10650.00
260.3760, 10290.00
261.5880, 10198.00
262.8000, 9991.000
264.0120, 10010.00
265.2240, 9848.000
266.4350, 9759.000
267.6470, 9717.000
268.8580, 9608.000
270.0690, 9327.000
271.2800, 9332.000
272.4910, 9225.000
273.7020, 9186.000
274.9120, 9223.000
276.1230, 9101.000
277.3330, 8959.000
278.5430, 8808.000
279.7530, 8873.000
280.9630, 8791.000
282.1720, 8739.999
283.3820, 8733.509
284.5910, 8640.000
285.8000, 8654.000
287.0090, 8601.000
288.2180, 8537.000
289.4270, 8454.000
290.6360, 8392.000
291.8440, 8353.000
293.0530, 8502.000
294.2610, 8401.000
295.4690, 8422.000
296.6770, 8294.000
297.8850, 8339.000
299.0920, 8431.000
300.3000, 8271.000
301.5070, 8302.000
302.7140, 8233.000
303.9210, 8254.000
305.1280, 8208.144
306.3350, 8184.126
307.5420, 8154.000
308.7480, 8171.000
309.9540, 8217.000
311.1600, 8293.000
312.3660, 8245.260
313.5720, 8141.000
314.7780, 8176.000
315.9840, 8192.000
317.1890, 8180.000
318.3940, 8210.000
319.6000, 8166.000
320.8050, 8360.000
322.0090, 8416.000
323.2140, 8459.000
324.4190, 8441.000
325.6230, 8551.000
326.8270, 8553.000
328.0320, 8634.947
329.2360, 8722.623
330.4390, 8828.000
331.6430, 8914.000
332.8470, 9077.000
334.0500, 9194.000
335.2530, 9417.000
336.4560, 9500.000
337.6590, 9678.000
338.8620, 9950.000
340.0650, 9937.000
341.2670, 10086.00
342.4700, 10296.00
343.6720, 10418.00
344.8740, 10521.00
346.0760, 10561.00
347.2780, 10667.00
348.4790, 10861.00
349.6810, 10924.00
350.8820, 10894.00
352.0830, 10899.97
353.2840, 10870.77
354.4850, 10790.00
355.6860, 10755.00
356.8870, 10808.00
358.0870, 10711.00
359.2870, 10730.00
360.4880, 10638.00
361.6880, 10399.00
362.8870, 10461.00
364.0870, 10423.00
365.2870, 10271.06
366.4860, 10302.00
367.6850, 10010.00
368.8850, 9967.000
370.0840, 9779.000
371.2820, 9592.000
372.4810, 9631.000
373.6800, 9383.000
374.8780, 9484.000
376.0760, 9418.000
377.2740, 9425.000
378.4720, 9438.000
379.6700, 9324.000
380.8680, 9412.000
382.0650, 9296.000
383.2630, 9367.000
384.4600, 9364.000
385.6570, 9339.000
386.8540, 9245.000
388.0510, 9028.000
389.2470, 9185.000
390.4440, 8965.000
391.6400, 8861.000
392.8360, 8884.000
394.0320, 8728.000
395.2280, 8520.000
396.4240, 8514.000
397.6190, 8310.000
398.8150, 8306.000
400.0100, 8101.000
401.2050, 8153.000
402.4000, 8135.000
403.5950, 8176.000
404.7900, 8120.000
405.9840, 7976.000
407.1790, 7943.000
408.3730, 7892.000
409.5670, 7934.000
410.7610, 7845.000
411.9550, 7954.000
413.1480, 7936.000
414.3420, 7919.774
415.5350, 7889.000
416.7280, 7919.000
417.9220, 7895.000
419.1140, 7948.000
420.3070, 7898.000
421.5000, 7908.000
422.6920, 7872.000
423.8850, 7817.000
425.0770, 7751.000
426.2690, 7695.000
427.4610, 7684.000
428.6520, 7560.000
429.8440, 7549.000
431.0350, 7371.000
432.2260, 7393.000
433.4180, 7396.000
434.6090, 7268.000
435.7990, 7251.000
436.9900, 7316.000
438.1800, 7229.000
439.3710, 7155.000
440.5610, 7220.000
441.7510, 7194.000
442.9410, 7203.000
444.1310, 7126.000
445.3200, 7099.000
446.5100, 7155.000
447.6990, 7247.000
448.8880, 7162.000
450.0770, 7228.000
451.2660, 7382.000
452.4550, 7378.000
453.6430, 7412.000
454.8320, 7450.000
456.0200, 7601.000
457.2080, 7677.000
458.3960, 7879.000
459.5840, 8040.000
460.7720, 8170.000
461.9590, 8091.000
463.1460, 8363.000
464.3340, 8398.000
465.5210, 8519.000
466.7080, 8734.000
467.8940, 8770.000
469.0810, 8867.000
470.2670, 8848.000
471.4540, 9035.000
472.6400, 8963.000
473.8260, 9050.000
475.0120, 9065.000
476.1970, 8931.000
477.3830, 8946.000
478.5680, 8878.000
479.7540, 8837.000
480.9390, 8753.000
482.1240, 8789.000
483.3080, 8746.000
484.4930, 8825.000
485.6780, 8646.000
486.8620, 8673.000
488.0460, 8624.000
489.2300, 8641.000
490.4140, 8513.000
491.5980, 8663.000
492.7810, 8386.000
493.9650, 8345.253
495.1480, 8384.000
496.3310, 8073.000
497.5140, 8125.000
498.6970, 7979.000
499.8800, 7964.000
501.0620, 7825.000
502.2440, 7803.000
503.4270, 7771.000
504.6090, 7655.000
505.7910, 7678.000
506.9720, 7565.000
508.1540, 7540.000
509.3350, 7614.000
510.5170, 7465.000
511.6980, 7506.000
512.8790, 7575.000
514.0600, 7415.454
515.2400, 7459.178
516.4210, 7487.010
517.6010, 7499.790
518.7810, 7452.462
519.9620, 7482.757
521.1410, 7481.935
522.3210, 7479.842
523.5010, 7521.055
524.6800, 7482.463
525.8600, 7599.000
527.0390, 7665.000
528.2180, 7696.000
529.3970, 7554.000
530.5750, 7724.000
531.7540, 7758.000
532.9320, 7800.000
534.1110, 7923.157
535.2890, 8027.532
536.4670, 8094.000
537.6440, 8329.000
538.8220, 8398.000
540.0000, 8567.000
541.1770, 8943.000
542.3540, 8976.000
543.5310, 9317.000
544.7080, 9647.000
545.8850, 9990.000
547.0610, 10394.00
548.2380, 10830.61
549.4140, 11318.00
550.5900, 11833.00
551.7660, 12346.00
552.9420, 12838.78
554.1170, 13595.00
555.2930, 13846.00
556.4680, 14430.00
557.6430, 14963.00
558.8180, 15057.00
559.9930, 15154.00
561.1680, 15022.00
562.3430, 15127.00
563.5170, 14791.00
564.6910, 14494.00
565.8650, 14234.00
567.0390, 13688.00
568.2130, 13402.00
569.3870, 12886.00
570.5600, 12717.00
571.7340, 12363.00
572.9070, 11869.00
574.0800, 11532.00
575.2530, 11465.00
576.4250, 11006.00
577.5980, 10879.00
578.7700, 10861.00
579.9430, 10740.00
581.1150, 10651.00
582.2870, 10456.00
583.4590, 10380.00
584.6300, 10478.00
585.8020, 10413.00
586.9730, 10449.00
588.1440, 10366.00
589.3150, 10481.00
590.4860, 10465.64
591.6570, 10505.65
592.8270, 10529.77
593.9980, 10538.84
595.1680, 10487.79
596.3380, 10514.37
597.5080, 10509.84
598.6780, 10504.04
599.8480, 10541.54
601.0170, 10499.24
602.1860, 10415.00
603.3550, 10536.00
604.5240, 10510.00
605.6930, 10585.00
606.8620, 10533.00
608.0310, 10427.09
609.1990, 10439.00
610.3670, 10460.00
611.5350, 10583.00
612.7030, 10565.67
613.8710, 10534.00
615.0390, 10584.00
616.2060, 10842.00
617.3730, 10831.00
618.5410, 10932.00
619.7080, 10942.00
620.8740, 11116.00
622.0410, 11185.00
623.2080, 11457.00
624.3740, 11394.00
625.5400, 11569.00
626.7060, 11797.00
627.8720, 11906.00
629.0380, 12102.79
630.2040, 12306.00
631.3690, 12470.00
632.5340, 12649.00
633.6990, 12907.00
634.8640, 13276.00
636.0290, 13702.00
637.1940, 14091.00
638.3580, 14362.00
639.5230, 15032.00
640.6870, 15596.00
641.8510, 16110.00
643.0150, 16934.00
644.1790, 17627.00
645.3420, 18434.00
646.5060, 19459.00
647.6690, 20670.00
648.8320, 21628.00
649.9950, 22481.00
651.1580, 23411.00
652.3200, 24195.00
653.4830, 24924.00
654.6450, 25037.00
655.8070, 25108.00
656.9690, 24843.00
658.1310, 24297.00
659.2930, 23572.00
660.4540, 22660.00
661.6160, 21599.00
662.7770, 20778.00
663.9380, 20067.00
665.0990, 19487.00
666.2600, 19037.00
667.4200, 18792.00
668.5810, 18757.00
669.7410, 18568.00
670.9010, 18821.00
672.0610, 18613.00
673.2210, 18665.00
674.3810, 19074.00
675.5400, 19592.00
676.6990, 20021.00
677.8590, 20276.00
679.0180, 20728.00
680.1760, 21161.00
681.3350, 21437.00
682.4940, 22151.00
683.6520, 22525.00
684.8100, 23031.00
685.9680, 23580.00
687.1260, 24071.00
688.2840, 24454.00
689.4420, 25001.00
690.5990, 25312.00
691.7560, 25801.00
692.9140, 26136.00
694.0710, 26481.00
695.2270, 26887.00
696.3840, 27235.00
697.5410, 27726.00
698.6970, 27960.00
699.8530, 28049.00
701.0090, 28410.00
702.1650, 28745.00
703.3210, 30095.00
704.4760, 29683.04
705.6320, 30087.00
706.7870, 29357.00
707.9420, 29769.00
709.0970, 29552.00
710.2520, 29792.00
711.4060, 29902.00
712.5610, 29844.00
713.7150, 29580.00
714.8690, 29387.00
716.0230, 28995.00
717.1770, 28992.00
718.3310, 28846.00
719.4840, 28198.00
720.6380, 27923.00
721.7910, 27471.00
722.9440, 26857.00
724.0970, 26288.00
725.2490, 25806.00
726.4020, 25143.00
727.5540, 24641.00
728.7070, 24209.00
729.8590, 23419.00
731.0110, 22850.00
732.1620, 22486.00
733.3140, 21770.00
734.4650, 21182.00
735.6170, 20501.00
736.7680, 20104.00
737.9190, 19430.00
739.0700, 19114.00
740.2200, 18721.00
741.3710, 18391.00
742.5210, 18065.13
743.6710, 17779.00
744.8210, 17414.00
745.9710, 17090.00
747.1210, 16739.00
748.2700, 16503.39
749.4200, 16611.00
750.5690, 16166.00
751.7180, 15990.00
752.8670, 16048.00
754.0160, 15765.00
755.1640, 15773.00
756.3130, 15570.00
757.4610, 15311.00
758.6090, 15144.00
759.7570, 14985.88
760.9050, 14796.68
762.0530, 14730.00
763.2000, 14508.00
764.3470, 14381.00
765.4940, 14298.00
766.6410, 13969.00
767.7880, 13869.84
768.9350, 13582.00
770.0810, 13493.00
771.2280, 13184.00
772.3740, 12938.00
773.5200, 12935.00
774.6660, 12696.00
775.8120, 12654.00
776.9570, 12484.00
778.1030, 12510.00
779.2480, 12537.00
780.3930, 12267.00
781.5380, 12249.00
782.6830, 12190.00
783.8270, 12107.00
784.9720, 12060.83
786.1160, 11917.00
787.2600, 11887.00
788.4040, 11770.00
789.5480, 11594.00
790.6910, 11482.00
791.8350, 11518.00
792.9780, 11297.00
794.1210, 11289.00
795.2640, 10888.00
796.4070, 10969.00
797.5500, 10783.00
798.6920, 10534.00
799.8350, 10384.00
800.9770, 10305.00
802.1190, 10095.00
803.2610, 9964.000
804.4030, 9917.000
805.5440, 9908.000
806.6850, 9758.965
807.8270, 9687.000
808.9680, 9540.000
810.1090, 9454.364
811.2490, 9345.547
812.3900, 9273.000
813.5300, 9148.000
814.6710, 9049.000
815.8110, 8983.000
816.9510, 8907.000
818.0910, 8912.000
819.2300, 8708.000
820.3700, 8800.000
821.5090, 8603.000
822.6480, 8555.000
823.7870, 8668.000
824.9260, 8570.000
826.0640, 8645.000
827.2030, 8493.000
828.3410, 8353.000
829.4790, 8435.000
830.6170, 8485.000
831.7550, 8539.000
832.8930, 8491.000
834.0310, 8321.000
835.1680, 8404.000
836.3050, 8350.000
837.4420, 8419.000
838.5790, 8515.000
839.7160, 8353.000
840.8520, 8349.000
841.9890, 8417.000
843.1250, 8228.000
844.2610, 8224.000
845.3970, 8265.000
846.5330, 8257.000
847.6680, 8286.000
848.8040, 8305.138
849.9390, 8277.485
851.0740, 8285.213
852.2090, 8229.000
853.3440, 8240.000
854.4780, 8227.000
855.6130, 8169.000
856.7470, 8242.000
857.8810, 8215.000
859.0150, 8274.000
860.1490, 8362.000
861.2830, 8271.000
862.4160, 8390.000
863.5490, 8274.000
864.6830, 8448.000
865.8160, 8297.000
866.9480, 8376.000
868.0810, 8444.000
869.2140, 8483.000
870.3460, 8463.000
871.4780, 8420.000
872.6100, 8503.000
873.7420, 8530.000
874.8740, 8572.000
876.0050, 8616.000
877.1370, 8749.000
878.2680, 8819.000
879.3990, 8916.000
880.5300, 8920.000
881.6600, 9049.000
882.7910, 8958.000
883.9210, 9143.000
885.0520, 9336.000
886.1820, 9270.000
887.3120, 9415.000
888.4410, 9458.000
889.5710, 9514.011
890.7000, 9642.000
891.8300, 9670.000
892.9590, 9809.000
894.0880, 9895.000
895.2160, 9906.000
896.3450, 10002.00
897.4730, 10130.00
898.6020, 10282.00
899.7300, 10246.00
900.8580, 10392.00
901.9860, 10613.00
903.1130, 10595.00
904.2410, 10654.00
905.3680, 10654.00
906.4950, 10843.00
907.6220, 10951.00
908.7490, 11090.00
909.8760, 11058.00
911.0020, 11003.00
912.1280, 11205.00
913.2550, 11280.00
914.3810, 11135.00
915.5060, 11194.00
916.6320, 11396.00
917.7580, 11297.00
918.8830, 11406.00
920.0080, 11388.00
921.1330, 11259.00
922.2580, 11248.00
923.3830, 11193.00
924.5070, 11301.00
925.6310, 11250.00
926.7560, 11092.00
927.8800, 11153.00
929.0040, 10976.00
930.1270, 10976.00
931.2510, 10949.00
932.3740, 10884.00
933.4970, 10783.00
934.6200, 10749.00
935.7430, 10570.00
936.8660, 10491.00
937.9890, 10392.28
939.1110, 10415.00
940.2330, 10208.00
941.3550, 10238.00
942.4770, 10190.00
943.5990, 10041.00
944.7200, 9985.000
945.8420, 9903.000
946.9630, 9767.000
948.0840, 9819.000
949.2050, 9667.000
950.3260, 9632.000
951.4460, 9555.000
952.5670, 9509.177
953.6870, 9486.000
954.8070, 9472.000
955.9270, 9455.000
957.0470, 9459.000
958.1660, 9343.000
959.2860, 9234.000
960.4050, 9220.000
961.5240, 9175.000
962.6430, 9146.000
963.7620, 9110.877
964.8810, 9070.000
965.9990, 9040.000
967.1170, 8993.000
968.2350, 8969.000
969.3530, 8926.000
970.4710, 8909.000
971.5890, 8845.000
972.7060, 8912.000
973.8240, 8909.000
974.9410, 8880.000
976.0580, 8835.000
977.1740, 8717.000
978.2910, 8825.000
979.4080, 8754.000
980.5240, 8721.000
981.6400, 8770.000
982.7560, 8724.000
983.8720, 8686.000
984.9870, 8785.000
986.1030, 8749.000
987.2180, 8773.000
988.3330, 8861.000
989.4480, 8866.000
990.5630, 8861.000
991.6780, 8800.000
992.7920, 8807.000
993.9070, 9071.000
995.0210, 8893.000
996.1350, 9017.000
997.2490, 9264.000
998.3620, 9313.000
999.4760, 9361.000
1000.589, 9318.000
1001.702, 9526.000
1002.815, 9448.000
1003.928, 9568.000
1005.041, 9643.000
1006.153, 9623.516
1007.266, 9785.000
1008.378, 9730.000
1009.490, 9802.000
1010.602, 10036.00
1011.713, 10102.00
1012.825, 10176.00
1013.936, 10283.00
1015.047, 10438.00
1016.158, 10615.00
1017.269, 10728.00
1018.380, 10964.00
1019.490, 10981.00
1020.601, 11168.00
1021.711, 11245.00
1022.821, 11364.50
1023.931, 11549.54
1025.040, 11698.64
1026.150, 11812.88
1027.259, 11847.01
1028.368, 11938.84
1029.477, 11979.67
1030.586, 11999.32
1031.695, 12042.38
1032.803, 12012.00
1033.912, 12023.00
1035.020, 11894.00
1036.128, 12009.00
1037.236, 11821.00
1038.343, 11858.00
1039.451, 11741.00
1040.558, 11713.00
1041.665, 11581.00
1042.772, 11408.92
1043.879, 11286.77
1044.986, 11085.00
1046.093, 10978.00
1047.199, 10983.00
1048.305, 10912.00
1049.411, 10713.00
1050.517, 10778.00
1051.623, 10542.00
1052.728, 10462.00
1053.833, 10485.00
1054.939, 10329.00
1056.044, 10286.00
1057.148, 10189.00
1058.253, 10181.00
1059.358, 10210.00
1060.462, 10123.00
1061.566, 10225.00
1062.670, 10174.00
1063.774, 10018.00
1064.878, 10036.00
1065.981, 10081.00
1067.085, 9999.000
1068.188, 10135.00
1069.291, 9965.000
1070.394, 10062.00
1071.496, 10170.00
1072.599, 9831.000
1073.701, 9848.000
1074.803, 9971.000
1075.905, 9923.000
1077.007, 9914.000
1078.109, 9837.000
1079.210, 9872.000
1080.312, 9894.000
1081.413, 9949.000
1082.514, 9732.000
1083.615, 9712.000
1084.715, 9858.000
1085.816, 9703.000
1086.916, 9800.000
1088.016, 9723.000
1089.116, 9654.000
1090.216, 9570.000
1091.316, 9482.000
1092.415, 9523.000
1093.515, 9450.000
1094.614, 9335.000
1095.713, 9449.000
1096.812, 9422.000
1097.910, 9350.000
1099.009, 9244.000
1100.107, 9247.000
1101.205, 9304.000
1102.303, 9167.000
1103.401, 9187.000
1104.499, 9064.000
1105.596, 8989.000
1106.693, 8989.000
1107.791, 8988.000
1108.888, 9013.000
1109.984, 8926.000
1111.081, 9017.000
1112.177, 8931.000
1113.274, 8958.000
1114.370, 8783.000
1115.466, 8841.000
1116.562, 8720.000
1117.657, 8761.000
1118.753, 8832.000
1119.848, 8886.000
1120.943, 8886.438
1122.038, 8866.000
1123.133, 8866.000
1124.228, 8891.000
1125.322, 8860.000
1126.416, 8755.000
1127.510, 8798.000
1128.604, 8918.000
1129.698, 8824.000
1130.792, 8961.000
1131.885, 8809.000
1132.978, 8835.000
1134.071, 8883.000
1135.164, 8894.000
1136.257, 8849.000
1137.350, 8824.000
1138.442, 8784.000
1139.534, 8875.000
1140.627, 8821.000
1141.718, 8953.000
1142.810, 8810.000
1143.902, 8753.000
1144.993, 8874.000
1146.084, 8927.000
1147.176, 8887.000
1148.266, 8815.000
1149.357, 8932.000
1150.448, 8828.000
1151.538, 8998.000
1152.628, 8893.000
1153.718, 8794.000
1154.808, 8753.000
1155.898, 8732.605
1156.988, 8774.000
1158.077, 8804.000
1159.166, 8843.000
1160.255, 8849.769
1161.344, 8860.000
1162.433, 8830.000
1163.521, 8900.000
1164.610, 8839.000
1165.698, 8970.000
1166.786, 8977.000
1167.874, 8946.000
1168.961, 8906.000
1170.049, 8816.000
1171.136, 9011.000
1172.224, 8958.000
1173.311, 8919.000
1174.397, 9008.000
1175.484, 8878.000
1176.571, 8795.000
1177.657, 8915.000
1178.743, 8953.000
1179.829, 8906.000
1180.915, 8886.000
1182.001, 8883.000
1183.086, 8871.000
1184.171, 8963.000
1185.256, 8901.000
1186.341, 9029.000
1187.426, 8910.000
1188.511, 8980.000
1189.595, 8890.000
1190.680, 9042.000
1191.764, 9047.000
1192.848, 8904.000
1193.932, 8966.000
1195.015, 8868.000
1196.099, 8895.301
1197.182, 8997.000
1198.265, 8971.000
1199.348, 9018.000
1200.431, 9082.000
1201.513, 8905.000
1202.596, 8986.000
1203.678, 9023.000
1204.760, 9179.000
1205.842, 9053.000
1206.924, 9061.000
1208.005, 8976.000
1209.087, 8906.000
1210.168, 9059.000
1211.249, 8946.000
1212.330, 9044.000
1213.411, 9081.000
1214.491, 9097.000
1215.572, 9129.000
1216.652, 9128.000
1217.732, 9161.065
1218.812, 9093.000
1219.891, 9202.000
1220.971, 9212.000
1222.050, 9206.000
1223.129, 9081.000
1224.208, 9204.000
1225.287, 9139.000
1226.366, 9113.000
1227.444, 9126.000
1228.523, 9194.000
1229.601, 9203.000
1230.679, 9133.000
1231.757, 9247.000
1232.834, 9205.000
1233.912, 9219.000
1234.989, 9235.198
1236.066, 9343.000
1237.143, 9175.000
1238.220, 9262.000
1239.297, 9144.000
1240.373, 9107.000
1241.449, 9253.000
1242.526, 9261.000
1243.601, 9204.000
1244.677, 9154.000
1245.753, 9197.236
1246.828, 9370.000
1247.904, 9272.000
1248.979, 9230.000
1250.054, 9263.000
1251.128, 9170.000
1252.203, 9325.000
1253.277, 9313.901
1254.351, 9415.000
1255.426, 9424.000
1256.499, 9298.000
1257.573, 9364.000
1258.647, 9340.000
1259.720, 9366.000
1260.793, 9449.000
1261.866, 9405.000
1262.939, 9437.000
1264.012, 9318.000
1265.084, 9350.000
1266.157, 9466.000
1267.229, 9384.000
1268.301, 9410.000
1269.373, 9502.000
1270.444, 9420.000
1271.516, 9392.000
1272.587, 9422.000
1273.658, 9455.000
1274.729, 9453.000
1275.800, 9600.000
1276.871, 9455.000
1277.941, 9560.000
1279.011, 9371.000
1280.082, 9576.000
1281.151, 9651.000
1282.221, 9601.000
1283.291, 9662.000
1284.360, 9606.000
1285.430, 9634.000
1286.499, 9691.000
1287.568, 9599.000
1288.636, 9751.000
1289.705, 9634.000
1290.773, 9546.000
1291.841, 9747.000
1292.909, 9668.000
1293.977, 9751.000
1295.045, 9882.000
1296.113, 9750.000
1297.180, 9767.000
1298.247, 9660.000
1299.314, 9800.000
1300.381, 9834.000
1301.448, 9869.000
1302.514, 9831.000
1303.580, 9847.000
1304.647, 9835.000
1305.713, 9828.650
1306.778, 9790.000
1307.844, 9803.000
1308.910, 9768.000
1309.975, 9704.000
1311.040, 9738.000
1312.105, 9733.000
1313.170, 9780.000
1314.234, 9803.000
1315.299, 9776.053
1316.363, 9665.000
1317.427, 9693.000
1318.491, 9690.000
1319.555, 9592.000
1320.618, 9641.000
1321.682, 9661.000
1322.745, 9641.000
1323.808, 9713.222
1324.871, 9795.000
1325.933, 9752.000
1326.996, 9669.000
1328.058, 9527.000
1329.121, 9634.000
1330.183, 9762.000
1331.244, 9775.000
1332.306, 9598.000
1333.368, 9714.000
1334.429, 9611.000
1335.490, 9664.457
1336.551, 9847.000
1337.612, 9748.000
1338.672, 9675.000
1339.733, 9618.000
1340.793, 9747.000
1341.853, 9668.000
1342.913, 9773.000
1343.973, 9719.000
1345.033, 9681.000
1346.092, 9766.000
1347.151, 9610.000
1348.210, 9746.000
1349.269, 9682.000
1350.328, 9793.000
1351.386, 9746.000
1352.445, 9743.000
1353.503, 9840.000
1354.561, 9724.000
1355.619, 9764.000
1356.677, 9731.000
1357.734, 9632.000
1358.791, 9789.000
1359.849, 9770.000
1360.906, 9855.000
1361.962, 9843.000
1363.019, 9702.000
1364.075, 9610.000
1365.132, 9782.000
1366.188, 9745.000
1367.244, 9891.000
1368.300, 9795.000
1369.355, 9767.000
1370.411, 9841.000
1371.466, 9722.000
1372.521, 9928.000
1373.576, 9810.000
1374.631, 9820.000
1375.685, 9720.000
1376.740, 9745.919
1377.794, 9779.000
1378.848, 9844.000
1379.902, 9838.024
1380.955, 9869.776
1382.009, 9876.015
1383.062, 9890.000
1384.115, 9874.000
1385.168, 9874.000
1386.221, 9877.000
1387.274, 9873.078
1388.326, 9876.000
1389.379, 9868.000
1390.431, 9895.000
1391.483, 9875.000
1392.534, 9917.000
1393.586, 9818.000
1394.637, 9862.000
1395.689, 9824.000
1396.740, 9715.000
1397.791, 9865.000
1398.841, 10078.00
1399.892, 9910.000
1400.942, 9969.000
1401.993, 10005.00
1403.043, 9894.000
1404.092, 9977.000
1405.142, 9982.000
1406.192, 10029.00
1407.241, 10107.00
1408.290, 10066.00
1409.339, 9989.000
1410.388, 10036.00
1411.437, 10062.00
1412.485, 10141.00
1413.533, 10100.00
1414.581, 10061.00
1415.629, 10045.00
1416.677, 10100.00
1417.725, 10070.00
1418.772, 10169.00
1419.819, 10100.00
1420.867, 10273.00
1421.913, 10187.00
1422.960, 10096.00
1424.007, 10220.00
1425.053, 10265.00
1426.099, 10197.00
1427.145, 10380.00
1428.191, 10258.00
1429.237, 10300.00
1430.282, 10402.00
1431.328, 10474.00
1432.373, 10543.00
1433.418, 10507.00
1434.462, 10651.00
1435.507, 10583.00
1436.552, 10677.00
1437.596, 10716.00
1438.640, 10790.00
1439.684, 10728.00
1440.728, 10794.00
1441.771, 10801.00
1442.815, 10841.00
1443.858, 10817.00
1444.901, 10822.00
1445.944, 10840.00
1446.986, 10794.00
1448.029, 10809.96
1449.071, 10769.00
1450.113, 10813.00
1451.155, 10837.00
1452.197, 10863.00
1453.239, 10763.00
1454.280, 10867.00
1455.322, 10845.00
1456.363, 10768.00
1457.404, 10871.00
1458.444, 10805.91
1459.485, 10781.58
1460.525, 10741.00
1461.566, 10687.79
1462.606, 10707.19
1463.646, 10710.70
1464.685, 10699.17
1465.725, 10627.52
1466.764, 10633.51
1467.803, 10608.39
1468.842, 10581.99
1469.881, 10598.90
1470.920, 10536.01
1471.958, 10510.00
1472.997, 10559.00
1474.035, 10486.01
1475.073, 10472.00
1476.111, 10460.00
1477.148, 10505.00
1478.186, 10581.00
1479.223, 10588.00
1480.260, 10645.00
1481.297, 10622.00
1482.334, 10592.00
1483.370, 10611.00
1484.407, 10664.00
1485.443, 10616.00
1486.479, 10581.00
1487.515, 10635.00
1488.550, 10532.00
1489.586, 10527.00
1490.621, 10496.00
1491.656, 10627.00
1492.691, 10554.00
1493.726, 10596.00
1494.761, 10531.00
1495.795, 10568.00
1496.829, 10701.00
1497.863, 10617.00
1498.897, 10791.00
1499.931, 10714.00
1500.965, 10719.00
1501.998, 10597.00
1503.031, 10784.00
1504.064, 10747.00
1505.097, 10729.00
1506.130, 10661.00
1507.162, 10757.00
1508.195, 10674.00
1509.227, 10919.00
1510.259, 10912.00
1511.291, 10613.00
1512.322, 10849.00
1513.354, 10880.00
1514.385, 10799.00
1515.416, 10835.00
1516.447, 10854.00
1517.478, 10840.00
1518.508, 10853.00
1519.539, 10811.00
1520.569, 10872.73
1521.599, 10915.92
1522.629, 10943.21
1523.658, 10955.45
1524.688, 10907.59
1525.717, 10937.33
1526.746, 10935.97
1527.775, 10933.34
1528.804, 10974.01
1529.833, 10934.88
1530.861, 10974.86
1531.890, 10983.26
1532.918, 11006.11
1533.946, 10997.67
1534.973, 10955.00
1536.001, 10953.13
1537.028, 10916.29
1538.055, 10959.00
1539.082, 10979.00
1540.109, 11018.00
1541.136, 11033.04
1542.163, 11026.00
1543.189, 11041.00
1544.215, 11083.00
1545.241, 11047.00
1546.267, 11086.46
1547.292, 11124.00
1548.318, 11096.00
1549.343, 11084.00
1550.368, 11024.00
1551.393, 11066.00
1552.418, 11133.77
1553.442, 11142.74
1554.467, 11241.00
1555.491, 11245.00
1556.515, 11067.00
1557.539, 11111.00
1558.562, 11103.00
1559.586, 11024.00
1560.609, 11111.00
1561.632, 11046.00
1562.655, 11115.00
1563.678, 11005.00
1564.701, 11042.96
1565.723, 11059.00
1566.745, 11112.00
1567.768, 11113.00
1568.789, 11112.09
1569.811, 11152.00
1570.833, 11119.00
1571.854, 11104.00
1572.875, 11185.00
1573.896, 11174.00
1574.917, 11177.00
1575.938, 11329.00
1576.958, 11088.00
##END=



