##NAMES=Astrophyllite
##RRUFFID=R060202
##IDEAL CHEMISTRY=K_2_NaFe^2+^_7_Ti^4+^_2_(Si_4_O_12_)_2_O_2_(OH)_4_F
##LOCALITY=Demix Quarry, Mont Saint-Hilaire, Rouville County, Quebec, Canada
##OWNER=RRUFF
##SOURCE=Royal Ontario Museum
##DESCRIPTION=Aggregate of brown splintered wafers
##STATUS=The identification of this mineral has been confirmed by X-ray diffraction and chemical analysis
##URL=rruff.info/R060202
##MEASURED CHEMISTRY=(K_0.56_Na_0.38_Ca_0.06_)_3_(Fe^2+^_0.52_Mn_0.44_Mg_0.04_)_7_(Ti_0.75_Zr_0.15_Al_0.15_)_2_Si_8_O_24_(O_0.27_OH_0.73_)_7_
##PIN_ID=M00170
##ORIENTATION=Laser parallel to (-1 0 -1). Fiducial mark perpendicular to laser is parallel to -b [0 -1 0]
118.1340, 24451.00
119.3650, 24370.00
120.5960, 24069.00
121.8270, 23884.00
123.0580, 24252.00
124.2880, 24699.00
125.5190, 24438.00
126.7490, 24594.00
127.9790, 24711.00
129.2090, 25455.00
130.4390, 25671.00
131.6680, 25843.00
132.8980, 26373.00
134.1270, 26158.00
135.3560, 26331.00
136.5850, 26203.00
137.8140, 26074.00
139.0430, 25587.00
140.2710, 25382.00
141.5000, 24659.00
142.7280, 24229.00
143.9560, 23454.00
145.1840, 23132.00
146.4120, 23191.00
147.6390, 23335.00
148.8670, 23541.00
150.0940, 23782.00
151.3210, 24695.00
152.5490, 25560.00
153.7750, 25462.00
155.0020, 25951.00
156.2290, 26284.00
157.4550, 27041.00
158.6810, 27632.00
159.9080, 28531.00
161.1340, 29308.00
162.3590, 30066.00
163.5850, 30984.00
164.8110, 31644.00
166.0360, 32047.00
167.2610, 32319.00
168.4860, 32259.00
169.7110, 31872.00
170.9360, 31685.00
172.1610, 31039.00
173.3850, 30110.00
174.6100, 29382.00
175.8340, 28382.00
177.0580, 27525.00
178.2820, 26977.00
179.5050, 26259.00
180.7290, 25402.00
181.9520, 24804.00
183.1760, 24568.00
184.3990, 24382.00
185.6220, 23858.00
186.8450, 23861.00
188.0670, 23563.00
189.2900, 23114.00
190.5120, 23084.00
191.7340, 23069.00
192.9560, 22877.00
194.1780, 23015.00
195.4000, 22958.00
196.6220, 23128.00
197.8430, 23244.00
199.0640, 23247.00
200.2860, 23512.00
201.5070, 23497.00
202.7270, 23584.33
203.9480, 23993.00
205.1690, 23544.00
206.3890, 23338.00
207.6090, 23002.00
208.8290, 23132.00
210.0490, 23099.00
211.2690, 23393.00
212.4890, 23798.00
213.7080, 23887.00
214.9280, 24006.00
216.1470, 24020.00
217.3660, 24232.00
218.5850, 24061.00
219.8030, 24350.00
221.0220, 24372.00
222.2400, 24721.00
223.4590, 24815.00
224.6770, 24899.00
225.8950, 24959.00
227.1120, 25202.00
228.3300, 25256.37
229.5480, 25449.31
230.7650, 25504.00
231.9820, 25778.00
233.1990, 25960.00
234.4160, 26067.00
235.6330, 26311.00
236.8490, 26507.00
238.0660, 26466.00
239.2820, 26557.00
240.4980, 26623.00
241.7140, 26570.00
242.9300, 26612.00
244.1460, 26568.00
245.3610, 26417.00
246.5770, 26295.00
247.7920, 26604.00
249.0070, 26407.07
250.2220, 26496.00
251.4370, 26373.00
252.6510, 26223.00
253.8660, 26283.00
255.0800, 26103.00
256.2940, 25807.12
257.5080, 25926.80
258.7220, 25947.24
259.9360, 25873.77
261.1490, 25425.20
262.3630, 25461.01
263.5760, 25302.77
264.7890, 25136.55
266.0020, 25240.64
267.2150, 24846.65
268.4270, 25019.00
269.6400, 24847.00
270.8520, 24760.00
272.0640, 24536.00
273.2760, 24450.00
274.4880, 24338.00
275.7000, 24475.00
276.9120, 24218.00
278.1230, 24369.00
279.3340, 24376.00
280.5450, 24092.00
281.7560, 24168.00
282.9670, 24362.00
284.1780, 24358.00
285.3880, 24175.00
286.5980, 24219.00
287.8090, 24419.00
289.0190, 24363.00
290.2290, 24516.00
291.4380, 24456.00
292.6480, 24587.00
293.8570, 24582.00
295.0670, 24615.00
296.2760, 24704.00
297.4850, 24618.00
298.6930, 24539.00
299.9020, 24392.00
301.1110, 24364.52
302.3190, 24361.00
303.5270, 24271.00
304.7350, 24506.00
305.9430, 24470.00
307.1510, 24482.00
308.3580, 24378.00
309.5660, 24360.93
310.7730, 24244.00
311.9800, 24323.00
313.1870, 24110.00
314.3940, 24200.00
315.6010, 24028.00
316.8070, 23989.00
318.0130, 23960.00
319.2200, 23825.00
320.4260, 23841.00
321.6310, 23796.00
322.8370, 23526.00
324.0430, 23733.00
325.2480, 23478.00
326.4540, 23481.00
327.6590, 23597.00
328.8640, 23762.00
330.0680, 23460.00
331.2730, 23405.00
332.4780, 23544.01
333.6820, 23531.62
334.8860, 23795.00
336.0900, 23846.00
337.2940, 23943.00
338.4980, 24139.00
339.7010, 24204.00
340.9050, 24446.00
342.1080, 24204.00
343.3110, 24315.00
344.5140, 24158.00
345.7170, 24445.00
346.9200, 23967.00
348.1220, 23979.00
349.3240, 23885.00
350.5270, 23674.00
351.7290, 23876.00
352.9310, 23619.00
354.1320, 23430.00
355.3340, 23301.00
356.5350, 23311.00
357.7370, 23275.00
358.9380, 23182.10
360.1390, 23125.00
361.3400, 23013.00
362.5400, 22967.00
363.7410, 22851.00
364.9410, 22674.00
366.1410, 22709.00
367.3410, 22560.00
368.5410, 22491.00
369.7410, 22327.00
370.9400, 22278.00
372.1400, 22084.00
373.3390, 22426.00
374.5380, 21948.00
375.7370, 22034.00
376.9360, 22051.00
378.1350, 21556.00
379.3330, 21641.00
380.5310, 21694.00
381.7300, 21284.00
382.9280, 21491.00
384.1260, 21333.00
385.3230, 21350.00
386.5210, 21280.00
387.7180, 21411.00
388.9160, 21325.00
390.1130, 21520.00
391.3100, 21333.00
392.5060, 21605.00
393.7030, 21432.00
394.9000, 21546.00
396.0960, 21296.00
397.2920, 21314.00
398.4880, 21392.00
399.6840, 21307.00
400.8800, 20827.00
402.0750, 20941.00
403.2710, 20727.00
404.4660, 20360.00
405.6610, 20431.00
406.8560, 20141.00
408.0510, 20215.00
409.2450, 19842.00
410.4400, 20192.00
411.6340, 20043.00
412.8280, 20262.00
414.0220, 20330.00
415.2160, 20090.00
416.4100, 20293.00
417.6030, 20211.00
418.7970, 20360.00
419.9900, 20298.00
421.1830, 20378.00
422.3760, 20313.00
423.5690, 20301.00
424.7610, 19971.00
425.9540, 19990.00
427.1460, 19600.00
428.3380, 19226.00
429.5300, 19075.00
430.7220, 19009.00
431.9140, 18901.00
433.1050, 18723.94
434.2970, 18493.00
435.4880, 18360.00
436.6790, 18236.00
437.8700, 18043.00
439.0610, 18046.00
440.2510, 17995.00
441.4420, 17920.00
442.6320, 17903.00
443.8220, 17772.00
445.0120, 17741.00
446.2020, 17707.00
447.3910, 17755.00
448.5810, 17773.00
449.7700, 17705.00
450.9600, 17757.00
452.1490, 17656.00
453.3370, 17917.00
454.5260, 17959.00
455.7150, 17885.00
456.9030, 18149.00
458.0910, 17981.00
459.2800, 18097.00
460.4670, 18295.00
461.6550, 18396.00
462.8430, 18428.00
464.0300, 18419.00
465.2180, 18423.00
466.4050, 18507.00
467.5920, 18337.00
468.7790, 18308.00
469.9650, 18504.00
471.1520, 18234.00
472.3380, 18378.00
473.5250, 18353.00
474.7110, 18111.00
475.8970, 18074.00
477.0820, 18010.00
478.2680, 17898.00
479.4540, 17842.00
480.6390, 17985.00
481.8240, 17858.00
483.0090, 18130.00
484.1940, 17962.89
485.3780, 17835.00
486.5630, 17835.00
487.7470, 17641.00
488.9320, 17787.00
490.1160, 17504.00
491.3000, 17674.00
492.4830, 17658.00
493.6670, 17565.00
494.8500, 18058.00
496.0340, 17503.00
497.2170, 17535.00
498.4000, 17552.00
499.5820, 17180.00
500.7650, 17265.00
501.9480, 17257.00
503.1300, 17367.00
504.3120, 17250.00
505.4940, 17146.00
506.6760, 17209.00
507.8580, 17280.00
509.0390, 17282.00
510.2210, 17203.00
511.4020, 17256.00
512.5830, 17197.48
513.7640, 17208.00
514.9450, 17144.00
516.1250, 17161.00
517.3060, 17170.00
518.4860, 17276.00
519.6660, 17335.00
520.8460, 17243.00
522.0260, 17330.00
523.2060, 17339.00
524.3850, 17402.00
525.5650, 17426.00
526.7440, 17493.00
527.9230, 17627.00
529.1020, 17834.00
530.2810, 17841.41
531.4590, 17745.00
532.6380, 17951.00
533.8160, 17945.00
534.9940, 18056.00
536.1720, 18242.85
537.3500, 18344.00
538.5270, 18609.00
539.7050, 18822.00
540.8820, 19004.00
542.0590, 19254.73
543.2360, 19437.00
544.4130, 19751.00
545.5900, 19951.37
546.7660, 20289.00
547.9430, 20642.00
549.1190, 20832.00
550.2950, 21135.29
551.4710, 21790.00
552.6470, 21526.00
553.8220, 21952.00
554.9980, 21964.00
556.1730, 21859.00
557.3480, 22105.00
558.5230, 21976.00
559.6980, 21772.00
560.8730, 21868.00
562.0470, 21793.00
563.2220, 21460.00
564.3960, 21237.00
565.5700, 21098.00
566.7440, 20880.00
567.9170, 20630.00
569.0910, 20524.00
570.2640, 20418.00
571.4380, 20323.00
572.6110, 20461.00
573.7840, 20270.00
574.9570, 20131.00
576.1290, 20361.00
577.3020, 20336.00
578.4740, 20506.00
579.6460, 20560.00
580.8180, 20492.00
581.9900, 20355.00
583.1620, 20756.00
584.3330, 20931.00
585.5040, 20920.00
586.6760, 21182.00
587.8470, 21573.00
589.0180, 21428.00
590.1880, 21904.00
591.3590, 22033.00
592.5290, 21890.00
593.7000, 22271.00
594.8700, 22327.00
596.0400, 22370.00
597.2090, 22673.00
598.3790, 22691.00
599.5490, 22879.00
600.7180, 23199.00
601.8870, 23240.00
603.0560, 23333.00
604.2250, 23462.00
605.3940, 23590.00
606.5620, 23678.00
607.7300, 23877.00
608.8990, 23997.00
610.0670, 24430.00
611.2350, 24314.00
612.4020, 24681.00
613.5700, 24643.00
614.7370, 24950.00
615.9050, 25331.00
617.0720, 25553.00
618.2390, 25674.00
619.4060, 25794.00
620.5720, 26082.00
621.7390, 26083.00
622.9050, 26357.00
624.0710, 26278.00
625.2370, 26632.00
626.4030, 26992.00
627.5690, 27076.00
628.7340, 27494.00
629.9000, 27625.00
631.0650, 27865.00
632.2300, 28151.00
633.3950, 28539.00
634.5600, 28796.00
635.7240, 29422.00
636.8890, 29695.00
638.0530, 30214.00
639.2170, 30741.00
640.3810, 31260.00
641.5450, 32170.00
642.7080, 33091.00
643.8720, 33739.00
645.0350, 34842.00
646.1980, 35837.00
647.3610, 36532.00
648.5240, 37635.00
649.6870, 38624.00
650.8490, 39135.00
652.0120, 39514.79
653.1740, 39689.00
654.3360, 39490.00
655.4980, 39182.00
656.6600, 38707.00
657.8210, 37712.00
658.9830, 37657.00
660.1440, 36607.00
661.3050, 36078.00
662.4660, 35500.00
663.6270, 35582.00
664.7870, 35599.00
665.9480, 35321.00
667.1080, 35207.00
668.2680, 35499.00
669.4280, 35947.00
670.5880, 36215.00
671.7480, 36461.00
672.9070, 37183.00
674.0670, 37751.00
675.2260, 38061.00
676.3850, 38510.00
677.5440, 39166.00
678.7030, 39891.00
679.8610, 40392.00
681.0200, 40988.00
682.1780, 41569.00
683.3360, 42081.39
684.4940, 42465.00
685.6520, 43030.00
686.8090, 43598.00
687.9670, 43846.00
689.1240, 44326.00
690.2810, 44720.00
691.4380, 44841.00
692.5950, 45491.00
693.7520, 45333.00
694.9080, 45880.00
696.0650, 45825.00
697.2210, 46166.00
698.3770, 46214.00
699.5330, 46322.00
700.6880, 46548.00
701.8440, 46350.00
702.9990, 46385.00
704.1550, 46033.00
705.3100, 46196.00
706.4650, 45919.00
707.6190, 45886.00
708.7740, 45845.00
709.9290, 45417.00
711.0830, 45154.00
712.2370, 44701.00
713.3910, 44147.00
714.5450, 44166.00
715.6980, 43402.00
716.8520, 42840.00
718.0050, 42321.00
719.1580, 41319.00
720.3110, 41218.00
721.4640, 40631.00
722.6170, 39634.00
723.7700, 39309.00
724.9220, 38587.00
726.0740, 37997.00
727.2260, 37440.00
728.3780, 36744.00
729.5300, 36152.00
730.6810, 35706.00
731.8330, 35214.00
732.9840, 34098.00
734.1350, 34031.00
735.2860, 33335.00
736.4370, 32996.00
737.5880, 32675.00
738.7380, 32257.00
739.8880, 31897.00
741.0390, 31623.00
742.1890, 31332.00
743.3380, 31066.38
744.4880, 31233.00
745.6380, 30661.00
746.7870, 30651.00
747.9360, 30637.00
749.0850, 30113.00
750.2340, 30211.00
751.3830, 30038.95
752.5310, 29827.00
753.6800, 29904.00
754.8280, 29886.00
755.9760, 29822.00
757.1240, 29594.00
758.2720, 29337.00
759.4190, 29085.00
760.5670, 29319.00
761.7140, 29253.00
762.8610, 29203.00
764.0080, 29249.00
765.1550, 29182.00
766.3020, 29126.00
767.4480, 29074.00
768.5950, 29051.00
769.7410, 28896.00
770.8870, 29135.00
772.0330, 29063.00
773.1780, 29320.00
774.3240, 29141.00
775.4690, 29428.00
776.6140, 29383.00
777.7590, 29512.00
778.9040, 29305.00
780.0490, 29626.00
781.1940, 29542.00
782.3380, 29717.00
783.4820, 29578.00
784.6260, 29506.00
785.7700, 29393.00
786.9140, 29394.00
788.0580, 29124.00
789.2010, 29070.00
790.3450, 28759.00
791.4880, 28539.00
792.6310, 28166.00
793.7730, 27734.00
794.9160, 27480.00
796.0590, 27199.00
797.2010, 26834.00
798.3430, 26302.00
799.4850, 26137.00
800.6270, 25615.00
801.7690, 25357.00
802.9100, 24986.00
804.0520, 24365.00
805.1930, 23919.00
806.3340, 23861.00
807.4750, 23179.00
808.6160, 23082.00
809.7560, 22525.00
810.8970, 22507.00
812.0370, 22196.00
813.1770, 21741.00
814.3170, 21497.00
815.4570, 21332.00
816.5960, 21143.00
817.7360, 21065.00
818.8750, 20726.00
820.0140, 20479.00
821.1530, 20362.00
822.2920, 20340.00
823.4310, 20416.00
824.5690, 20117.00
825.7070, 19972.00
826.8460, 19769.00
827.9840, 19805.00
829.1220, 19731.00
830.2590, 19655.00
831.3970, 19678.00
832.5340, 19624.00
833.6710, 19315.00
834.8080, 19415.00
835.9450, 19453.00
837.0820, 19220.00
838.2190, 19312.00
839.3550, 19198.00
840.4910, 19155.00
841.6270, 19327.00
842.7630, 19234.00
843.8990, 19174.00
845.0350, 19187.00
846.1700, 19051.00
847.3060, 19237.00
848.4410, 18956.00
849.5760, 19122.00
850.7100, 18870.00
851.8450, 19160.00
852.9800, 19112.00
854.1140, 19272.00
855.2480, 19257.00
856.3820, 19050.00
857.5160, 19294.00
858.6500, 19462.00
859.7830, 19381.00
860.9170, 19587.00
862.0500, 19722.00
863.1830, 19439.00
864.3160, 19583.00
865.4480, 19936.00
866.5810, 19732.00
867.7130, 20139.00
868.8460, 20111.00
869.9780, 20101.00
871.1100, 20275.00
872.2410, 20448.00
873.3730, 20768.00
874.5050, 20973.00
875.6360, 20998.00
876.7670, 21184.00
877.8980, 21542.00
879.0290, 21563.00
880.1590, 21902.00
881.2900, 22033.00
882.4200, 22165.00
883.5500, 22242.00
884.6800, 22388.00
885.8100, 22576.00
886.9400, 23100.00
888.0690, 23081.00
889.1990, 23347.00
890.3280, 23542.00
891.4570, 23680.00
892.5860, 23818.00
893.7140, 24028.00
894.8430, 24327.00
895.9710, 24661.00
897.1000, 24901.87
898.2280, 25211.00
899.3560, 25424.00
900.4830, 25848.00
901.6110, 26057.00
902.7380, 26303.00
903.8660, 26872.00
904.9930, 27080.00
906.1200, 27282.00
907.2460, 27618.00
908.3730, 27849.00
909.5000, 28434.00
910.6260, 28581.00
911.7520, 28831.00
912.8780, 29066.00
914.0040, 29178.00
915.1290, 29339.00
916.2550, 29672.00
917.3800, 29888.00
918.5050, 30211.00
919.6300, 30441.00
920.7550, 30241.00
921.8800, 30280.00
923.0040, 30378.00
924.1290, 30367.00
925.2530, 30458.00
926.3770, 30648.00
927.5010, 30524.00
928.6250, 30307.00
929.7480, 30451.00
930.8720, 30281.00
931.9950, 30114.00
933.1180, 29983.00
934.2410, 29921.00
935.3640, 29871.00
936.4860, 29520.00
937.6090, 29365.00
938.7310, 29354.00
939.8530, 29008.00
940.9750, 28579.00
942.0970, 28245.00
943.2180, 27970.00
944.3400, 27805.00
945.4610, 27655.00
946.5820, 27341.00
947.7030, 26988.00
948.8240, 26973.00
949.9450, 26844.00
951.0650, 26494.00
952.1860, 26104.00
953.3060, 25908.00
954.4260, 25401.00
955.5460, 25357.00
956.6650, 24860.00
957.7850, 24485.00
958.9040, 24040.00
960.0230, 24203.00
961.1420, 23758.00
962.2610, 23632.00
963.3800, 23181.00
964.4990, 23084.00
965.6170, 22839.92
966.7350, 22902.00
967.8530, 22589.00
968.9710, 22651.00
970.0890, 22846.00
971.2070, 22253.00
972.3240, 22472.00
973.4410, 22283.00
974.5580, 22146.00
975.6750, 22380.00
976.7920, 22362.00
977.9090, 22564.00
979.0250, 22537.00
980.1410, 22638.21
981.2580, 22590.00
982.3740, 22842.00
983.4890, 22845.00
984.6050, 23047.00
985.7200, 23274.00
986.8360, 23220.00
987.9510, 23400.00
989.0660, 23745.00
990.1810, 23956.00
991.2950, 24299.00
992.4100, 24167.00
993.5240, 25026.00
994.6390, 24930.00
995.7530, 25621.00
996.8660, 25762.00
997.9800, 26312.00
999.0940, 26859.00
1000.207, 27267.00
1001.320, 27696.00
1002.433, 28347.00
1003.546, 29108.00
1004.659, 29934.00
1005.772, 30678.05
1006.884, 31370.00
1007.996, 32336.00
1009.108, 33450.00
1010.220, 34418.00
1011.332, 35596.00
1012.444, 36563.00
1013.555, 38157.00
1014.666, 39659.00
1015.777, 40577.00
1016.888, 42500.00
1017.999, 44042.00
1019.110, 45154.00
1020.220, 46740.00
1021.331, 48204.00
1022.441, 49377.00
1023.551, 50615.00
1024.661, 52111.00
1025.770, 52736.00
1026.880, 53766.00
1027.989, 54420.00
1029.098, 54624.00
1030.207, 55151.00
1031.316, 55541.00
1032.425, 55129.00
1033.533, 54710.00
1034.642, 53880.00
1035.750, 53142.00
1036.858, 52259.00
1037.966, 51474.00
1039.073, 50103.00
1040.181, 48718.00
1041.288, 47498.00
1042.396, 45859.00
1043.503, 44677.00
1044.610, 43154.00
1045.716, 41683.00
1046.823, 39893.00
1047.929, 38531.00
1049.036, 37167.00
1050.142, 35847.00
1051.248, 34574.00
1052.353, 33269.00
1053.459, 32558.00
1054.564, 31275.00
1055.670, 30571.00
1056.775, 29751.00
1057.880, 29033.00
1058.985, 28471.00
1060.089, 28048.00
1061.194, 27419.00
1062.298, 27120.00
1063.402, 26661.00
1064.506, 26457.00
1065.610, 26052.00
1066.713, 25866.00
1067.817, 25573.00
1068.920, 25496.00
1070.023, 25219.00
1071.126, 25097.00
1072.229, 24782.00
1073.332, 24717.00
1074.435, 24608.00
1075.537, 24335.00
1076.639, 24521.00
1077.741, 24338.00
1078.843, 24201.00
1079.945, 23884.00
1081.046, 23758.00
1082.148, 23742.00
1083.249, 23984.00
1084.350, 23703.00
1085.451, 23462.00
1086.551, 23537.00
1087.652, 23234.00
1088.752, 23171.00
1089.853, 22964.00
1090.953, 22935.00
1092.053, 22805.00
1093.152, 22787.00
1094.252, 22630.00
1095.351, 22435.93
1096.451, 22229.00
1097.550, 22007.00
1098.649, 21729.00
1099.748, 21579.00
1100.846, 21555.00
1101.945, 21119.00
1103.043, 21276.00
1104.141, 20774.00
1105.239, 20754.00
1106.337, 20397.00
1107.434, 19970.00
1108.532, 20032.00
1109.629, 19998.00
1110.726, 19884.00
1111.823, 19756.00
1112.920, 19528.00
1114.017, 19582.00
1115.113, 19361.00
1116.210, 19388.00
1117.306, 19498.00
1118.402, 19570.00
1119.498, 19394.00
1120.593, 19294.00
1121.689, 19253.25
1122.784, 19255.00
1123.879, 19113.00
1124.974, 19138.00
1126.069, 19111.00
1127.164, 19042.00
1128.259, 19039.00
1129.353, 18891.89
1130.447, 18799.00
1131.541, 18653.00
1132.635, 18581.00
1133.729, 18584.00
1134.822, 18642.00
1135.916, 18598.00
1137.009, 18625.00
1138.102, 18589.21
1139.195, 18583.00
1140.288, 18543.00
1141.380, 18550.00
1142.473, 18535.37
1143.565, 18557.00
1144.657, 18551.00
1145.749, 18539.65
1146.841, 18603.00
1147.932, 18503.00
1149.024, 18512.00
1150.115, 18534.00
1151.206, 18630.00
1152.297, 18640.00
1153.388, 18400.00
1154.479, 18502.00
1155.569, 18420.00
1156.659, 18422.00
1157.750, 18428.00
1158.839, 18460.00
1159.929, 18455.00
1161.019, 18410.00
1162.108, 18589.00
1163.198, 18568.00
1164.287, 18511.00
1165.376, 18408.00
1166.465, 18485.00
1167.553, 18347.00
1168.642, 18554.00
1169.730, 18491.00
1170.818, 18437.00
1171.906, 18433.00
1172.994, 18449.00
1174.082, 18457.00
1175.170, 18480.74
1176.257, 18554.00
1177.344, 18553.00
1178.431, 18663.00
1179.518, 18739.00
1180.605, 18666.00
1181.691, 18435.00
1182.778, 18595.00
1183.864, 18581.00
1184.950, 18450.00
1186.036, 18500.00
1187.122, 18510.00
1188.207, 18402.00
1189.292, 18550.00
1190.378, 18410.00
1191.463, 18451.00
1192.548, 18548.00
1193.632, 18530.00
1194.717, 18453.00
1195.801, 18355.00
1196.886, 18528.00
1197.970, 18456.00
1199.054, 18458.00
1200.137, 18412.00
1201.221, 18448.00
1202.305, 18486.00
1203.388, 18507.00
1204.471, 18632.00
1205.554, 18577.00
1206.637, 18690.00
1207.719, 18639.00
1208.802, 18769.00
1209.884, 18724.00
1210.966, 18486.00
1212.048, 18454.00
1213.130, 18589.00
1214.212, 18432.00
1215.293, 18569.00
1216.374, 18549.00
1217.456, 18661.00
1218.536, 18645.33
1219.617, 18483.00
1220.698, 18610.00
1221.778, 18504.00
1222.859, 18483.00
1223.939, 18613.00
1225.019, 18526.00
1226.099, 18549.00
1227.178, 18581.34
1228.258, 18669.00
1229.337, 18582.00
1230.417, 18610.00
1231.496, 18545.00
1232.574, 18591.00
1233.653, 18497.00
1234.732, 18720.00
1235.810, 18639.00
1236.888, 18741.00
1237.966, 18648.00
1239.044, 18609.00
1240.122, 18749.00
1241.199, 18621.00
1242.277, 18728.00
1243.354, 18668.00
1244.431, 18742.00
1245.508, 18676.00
1246.585, 18649.00
1247.661, 18697.00
1248.738, 18787.00
1249.814, 18735.00
1250.890, 18618.00
1251.966, 18600.00
1253.042, 18498.00
1254.117, 18466.00
1255.193, 18482.83
1256.268, 18556.00
1257.343, 18572.00
1258.418, 18590.00
1259.493, 18697.00
1260.567, 18608.00
1261.642, 18729.00
1262.716, 18622.00
1263.790, 18692.00
1264.864, 18624.00
1265.938, 18710.00
1267.011, 18747.00
1268.085, 18660.00
1269.158, 18683.00
1270.231, 18572.00
1271.304, 18748.00
1272.377, 18766.00
1273.450, 18727.00
1274.522, 18657.00
1275.594, 18566.00
1276.666, 18565.00
1277.738, 18722.00
1278.810, 18711.00
1279.882, 18587.00
1280.953, 18590.00
1282.025, 18934.00
1283.096, 18597.00
1284.167, 18728.00
1285.238, 18810.00
1286.308, 18654.00
1287.379, 18730.00
1288.449, 18643.00
1289.519, 18933.00
1290.589, 18643.00
1291.659, 18847.00
1292.729, 18679.00
1293.798, 18767.00
1294.868, 18627.00
1295.937, 18602.00
1297.006, 18806.00
1298.075, 18753.00
1299.143, 18697.00
1300.212, 18807.00
1301.280, 18869.00
1302.348, 18930.00
1303.416, 18879.00
1304.484, 18876.00
1305.552, 18893.01
1306.620, 18858.00
1307.687, 18950.00
1308.754, 18930.94
1309.821, 18829.00
1310.888, 18948.00
1311.955, 18890.00
1313.021, 18875.00
1314.088, 19068.00
1315.154, 18880.00
1316.220, 18890.00
1317.286, 19003.00
1318.352, 18909.00
1319.417, 18876.00
1320.483, 18887.00
1321.548, 18820.00
1322.613, 18803.00
1323.678, 18925.00
1324.743, 19117.00
1325.807, 18975.00
1326.872, 19097.00
1327.936, 18937.00
1329.000, 19116.00
1330.064, 19160.00
1331.128, 18785.00
1332.191, 18974.00
1333.255, 19024.00
1334.318, 19055.00
1335.381, 19107.72
1336.444, 19174.00
1337.507, 19038.00
1338.569, 19120.00
1339.632, 18944.00
1340.694, 18947.00
1341.756, 18942.00
1342.818, 19111.00
1343.880, 19011.00
1344.941, 19184.00
1346.003, 18956.00
1347.064, 19288.00
1348.125, 19047.00
1349.186, 18980.00
1350.247, 18930.00
1351.308, 19102.00
1352.368, 19169.00
1353.428, 19099.00
1354.489, 19117.00
1355.549, 19152.00
1356.608, 18934.00
1357.668, 18977.00
1358.727, 19023.00
1359.787, 19125.00
1360.846, 19078.00
1361.905, 19194.00
1362.964, 19152.00
1364.022, 19303.00
1365.081, 19098.00
1366.139, 19240.00
1367.197, 19075.00
1368.255, 19352.00
1369.313, 19180.00
1370.371, 19372.00
1371.428, 19357.00
1372.486, 19338.00
1373.543, 19137.00
1374.600, 19351.00
1375.657, 18938.17
1376.713, 19179.50
1377.770, 19321.59
1378.826, 19369.76
1379.882, 19042.75
1380.938, 19200.21
1381.994, 19163.51
1383.050, 19118.86
1384.106, 19344.50
1385.161, 19072.05
1386.216, 19293.39
1387.271, 19203.00
1388.326, 19265.00
1389.381, 19248.00
1390.435, 19419.00
1391.490, 19402.00
1392.544, 19428.00
1393.598, 19391.00
1394.652, 19434.94
1395.705, 19416.00
1396.759, 19529.00
1397.812, 19433.00
1398.866, 19510.68
1399.919, 19486.00
1400.972, 19473.00
1402.024, 19472.00
1403.077, 19501.00
1404.129, 19450.00
1405.181, 19374.00
1406.233, 19572.00
1407.285, 19366.00
1408.337, 19493.00
1409.389, 19450.00
1410.440, 19378.00
1411.491, 19504.00
1412.542, 19448.00
1413.593, 19563.00
1414.644, 19536.68
1415.695, 19625.00
1416.745, 19480.00
1417.795, 19677.00
1418.845, 19631.00
1419.895, 19334.00
1420.945, 19688.00
1421.995, 19647.00
1423.044, 19648.00
1424.093, 19437.00
1425.142, 19633.00
1426.191, 19615.00
1427.240, 19538.00
1428.289, 19620.00
1429.337, 19588.00
1430.385, 19526.00
1431.433, 19683.00
1432.481, 19775.00
1433.529, 19951.00
1434.577, 19747.00
1435.624, 19522.00
1436.672, 19686.00
1437.719, 19770.00
1438.766, 19740.00
1439.812, 19661.00
1440.859, 19638.00
1441.905, 19680.00
1442.952, 19756.00
1443.998, 19842.00
1445.044, 19932.00
1446.090, 19725.00
1447.135, 19699.00
1448.181, 19691.50
1449.226, 20005.00
1450.271, 19728.00
1451.316, 19732.00
1452.361, 19891.00
1453.405, 19683.00
1454.450, 20098.00
1455.494, 19855.00
1456.538, 19740.00
1457.582, 19950.00
1458.626, 19742.00
1459.670, 19761.00
1460.713, 19823.00
1461.757, 19835.00
1462.800, 19901.00
1463.843, 19927.00
1464.886, 19852.00
1465.928, 19625.00
1466.971, 19910.00
1468.013, 19819.00
1469.055, 19966.00
1470.097, 19838.00
1471.139, 19867.00
1472.181, 20022.00
1473.222, 19995.00
1474.263, 20052.00
1475.305, 19757.00
1476.346, 20039.00
1477.386, 19802.00
1478.427, 19850.00
1479.468, 19929.00
1480.508, 19997.00
1481.548, 19917.00
1482.588, 19940.00
1483.628, 19990.00
1484.668, 19803.00
1485.707, 19830.00
1486.747, 19955.00
1487.786, 19963.00
1488.825, 19866.00
1489.864, 19956.00
1490.902, 19873.00
1491.941, 19887.00
1492.979, 20070.00
1494.017, 19941.00
1495.055, 19940.00
1496.093, 20042.00
1497.131, 20108.00
1498.168, 19933.00
1499.206, 20449.00
1500.243, 20087.00
1501.280, 20176.00
1502.317, 19908.00
1503.354, 19966.00
1504.390, 20033.00
1505.426, 20026.00
1506.463, 20136.00
1507.499, 20020.00
1508.535, 20069.00
1509.570, 20200.00
1510.606, 20085.00
1511.641, 19977.00
1512.676, 20175.00
1513.711, 19959.00
1514.746, 20012.00
1515.781, 20178.00
1516.816, 20168.00
1517.850, 19926.00
1518.884, 20349.00
1519.918, 20079.00
1520.952, 19955.00
1521.986, 20174.00
1523.019, 20192.00
1524.053, 20006.00
1525.086, 20169.00
1526.119, 20269.00
1527.152, 19974.00
1528.185, 20099.00
1529.217, 20222.00
1530.250, 20100.00
1531.282, 20213.00
1532.314, 20252.00
1533.346, 20121.00
1534.377, 20279.00
1535.409, 20143.00
1536.440, 20192.00
1537.472, 20116.00
1538.503, 20309.00
1539.534, 20267.71
1540.564, 20263.63
1541.595, 20321.00
1542.625, 20237.00
1543.656, 20279.00
1544.686, 20326.00
1545.716, 20270.00
1546.745, 20383.00
1547.775, 20296.00
1548.804, 20247.00
1549.834, 20226.00
1550.863, 20463.00
1551.892, 20544.00
1552.920, 20462.00
1553.949, 20868.00
1554.977, 20932.00
1556.006, 20566.00
1557.034, 20427.00
1558.062, 20463.00
1559.089, 20299.71
1560.117, 20341.07
1561.144, 20290.00
1562.172, 20319.00
1563.199, 20409.00
1564.226, 20242.00
1565.252, 20449.00
1566.279, 20493.00
1567.305, 20246.00
1568.332, 20587.00
1569.358, 20280.00
1570.384, 20626.00
1571.409, 20541.00
##END=



