##NAMES=Astrophyllite
##RRUFFID=R060103
##IDEAL CHEMISTRY=K_2_NaFe^2+^_7_Ti^4+^_2_(Si_4_O_12_)_2_O_2_(OH)_4_F
##LOCALITY=Brivik, Norway
##OWNER=RRUFF
##SOURCE=University of Arizona Mineral Museum
##DESCRIPTION=Brown fragment embedded in matrix
##STATUS=The identification of this mineral is confirmed by single-crystal X-ray diffraction and chemical analysis.
##URL=rruff.info/R060103
##MEASURED CHEMISTRY=K_2.00_Na_1.00_(Fe^2+^_0.55_Mn_0.32_Fe^3+^_0.04_Mg_0.04_Ca_0.04_)_7_(Ti_0.66_Zr_0.18_Al_0.16_)_2_Si_8.00_O_26_(OH)_4_F_1.00_
##PIN_ID=M01690
##ORIENTATION=Laser parallel to (0 1 1). Fiducial mark perpendicular to laser is parallel to a [1 0 0]
146.4650, 6543.000
147.6990, 6546.000
148.9320, 6579.996
150.1650, 6562.024
151.3980, 6638.000
152.6310, 6591.000
153.8640, 6538.000
155.0960, 6602.000
156.3280, 6708.000
157.5600, 6836.000
158.7920, 6797.000
160.0240, 6989.000
161.2560, 7135.000
162.4870, 7150.000
163.7180, 7384.000
164.9490, 7354.000
166.1800, 7431.000
167.4110, 7473.000
168.6410, 7387.000
169.8720, 7415.000
171.1020, 7356.000
172.3320, 7297.000
173.5620, 7284.000
174.7910, 7190.000
176.0210, 7000.000
177.2500, 6868.000
178.4790, 6761.000
179.7080, 6745.000
180.9370, 6636.000
182.1650, 6488.000
183.3940, 6493.000
184.6220, 6396.000
185.8500, 6384.000
187.0780, 6365.000
188.3050, 6378.000
189.5330, 6384.000
190.7600, 6401.000
191.9870, 6493.000
193.2140, 6372.000
194.4410, 6557.000
195.6680, 6623.000
196.8940, 6529.000
198.1200, 6653.000
199.3470, 6680.000
200.5720, 6830.000
201.7980, 6955.000
203.0240, 6986.000
204.2490, 6952.000
205.4740, 6995.000
206.6990, 7086.000
207.9240, 7189.000
209.1490, 7216.000
210.3740, 7339.722
211.5980, 7408.000
212.8220, 7563.000
214.0460, 7625.000
215.2700, 7773.567
216.4930, 7759.000
217.7170, 7995.000
218.9400, 8045.000
220.1630, 8209.000
221.3860, 8302.000
222.6090, 8390.000
223.8320, 8496.000
225.0540, 8588.495
226.2760, 8647.000
227.4980, 8790.000
228.7200, 8873.000
229.9420, 8984.000
231.1630, 9191.000
232.3850, 9341.000
233.6060, 9485.000
234.8270, 9585.000
236.0480, 9647.000
237.2690, 9763.784
238.4890, 9902.000
239.7090, 9913.000
240.9290, 9957.000
242.1490, 9961.000
243.3690, 9991.000
244.5890, 10151.00
245.8080, 9946.000
247.0270, 10103.00
248.2470, 9908.000
249.4650, 9962.000
250.6840, 10085.00
251.9030, 9916.000
253.1210, 9971.000
254.3390, 9908.000
255.5570, 9846.000
256.7750, 9832.000
257.9930, 9898.000
259.2100, 9740.184
260.4280, 9643.855
261.6450, 9451.000
262.8620, 9277.000
264.0790, 9068.000
265.2950, 8837.000
266.5120, 8575.000
267.7280, 8304.000
268.9440, 8189.000
270.1600, 7904.000
271.3760, 7823.000
272.5920, 7651.000
273.8070, 7563.000
275.0220, 7377.000
276.2370, 7361.000
277.4520, 7203.000
278.6670, 7090.000
279.8820, 7018.000
281.0960, 6876.000
282.3100, 6830.000
283.5240, 6697.000
284.7380, 6815.000
285.9520, 6803.000
287.1650, 6781.000
288.3780, 6745.000
289.5920, 6727.000
290.8050, 6742.000
292.0170, 6892.000
293.2300, 6769.000
294.4430, 6912.000
295.6550, 6911.000
296.8670, 6853.000
298.0790, 6907.000
299.2910, 7026.000
300.5020, 6915.000
301.7140, 7069.000
302.9250, 7051.000
304.1360, 7037.000
305.3470, 6996.000
306.5580, 7081.000
307.7680, 6992.000
308.9780, 7049.000
310.1890, 7033.000
311.3990, 7094.000
312.6090, 7047.000
313.8180, 6946.000
315.0280, 7005.000
316.2370, 6922.000
317.4460, 7015.000
318.6550, 6994.000
319.8640, 6953.000
321.0730, 6986.000
322.2810, 6820.000
323.4890, 6872.000
324.6980, 6813.000
325.9060, 6844.000
327.1130, 6820.000
328.3210, 6933.000
329.5280, 6944.000
330.7360, 7042.000
331.9430, 7042.000
333.1500, 7119.000
334.3560, 7241.000
335.5630, 7325.000
336.7690, 7397.000
337.9760, 7506.000
339.1820, 7607.000
340.3870, 7721.245
341.5930, 7896.000
342.7990, 7983.000
344.0040, 8106.000
345.2090, 8265.000
346.4140, 8148.000
347.6190, 8074.000
348.8240, 8234.000
350.0280, 8267.000
351.2330, 8215.000
352.4370, 8156.000
353.6410, 8062.000
354.8440, 8063.000
356.0480, 7964.000
357.2520, 7912.000
358.4550, 7858.000
359.6580, 7828.000
360.8610, 7594.000
362.0640, 7506.000
363.2660, 7395.000
364.4690, 7328.000
365.6710, 7253.000
366.8730, 7187.000
368.0750, 7138.000
369.2770, 6879.000
370.4780, 6867.000
371.6800, 6929.000
372.8810, 6701.000
374.0820, 6761.000
375.2830, 6789.000
376.4830, 6652.000
377.6840, 6773.000
378.8840, 6640.000
380.0840, 6655.000
381.2840, 6715.000
382.4840, 6742.000
383.6840, 6765.000
384.8830, 6736.000
386.0830, 6804.000
387.2820, 6727.000
388.4810, 6785.000
389.6800, 6735.000
390.8780, 6752.000
392.0770, 6702.000
393.2750, 6703.985
394.4730, 6707.000
395.6710, 6697.000
396.8690, 6627.000
398.0660, 6613.000
399.2640, 6633.000
400.4610, 6554.000
401.6580, 6676.000
402.8550, 6564.000
404.0520, 6607.000
405.2490, 6596.000
406.4450, 6522.000
407.6410, 6458.000
408.8370, 6500.000
410.0330, 6606.000
411.2290, 6436.000
412.4240, 6497.000
413.6200, 6573.000
414.8150, 6494.000
416.0100, 6525.000
417.2050, 6522.000
418.4000, 6620.000
419.5940, 6575.000
420.7880, 6682.000
421.9830, 6647.000
423.1770, 6645.000
424.3700, 6613.000
425.5640, 6639.000
426.7580, 6588.000
427.9510, 6483.000
429.1440, 6465.000
430.3370, 6309.000
431.5300, 6291.000
432.7220, 6149.000
433.9150, 6058.762
435.1070, 6033.000
436.2990, 5866.000
437.4910, 5779.000
438.6830, 5696.000
439.8750, 5626.000
441.0660, 5566.301
442.2570, 5481.000
443.4480, 5468.000
444.6390, 5381.000
445.8300, 5335.000
447.0210, 5342.000
448.2110, 5285.000
449.4010, 5268.000
450.5910, 5348.000
451.7810, 5252.000
452.9710, 5322.000
454.1610, 5300.000
455.3500, 5361.000
456.5390, 5425.000
457.7280, 5456.000
458.9170, 5533.000
460.1060, 5582.000
461.2940, 5599.000
462.4830, 5657.000
463.6710, 5733.000
464.8590, 5707.000
466.0470, 5792.000
467.2350, 5828.000
468.4220, 5862.000
469.6090, 5870.751
470.7970, 5855.184
471.9840, 5854.000
473.1700, 5793.000
474.3570, 5795.000
475.5440, 5770.000
476.7300, 5741.000
477.9160, 5743.000
479.1020, 5773.000
480.2880, 5658.000
481.4740, 5713.000
482.6590, 5691.000
483.8440, 5739.000
485.0300, 5662.000
486.2140, 5792.000
487.3990, 5640.000
488.5840, 5658.000
489.7680, 5684.000
490.9530, 5564.000
492.1370, 5699.000
493.3210, 5621.000
494.5040, 5744.000
495.6880, 5604.000
496.8720, 5681.000
498.0550, 5611.000
499.2380, 5607.000
500.4210, 5634.000
501.6040, 5502.000
502.7860, 5490.000
503.9690, 5581.000
505.1510, 5510.000
506.3330, 5466.000
507.5150, 5408.000
508.6970, 5428.000
509.8780, 5357.000
511.0600, 5317.000
512.2410, 5212.000
513.4220, 5271.000
514.6030, 5237.000
515.7840, 5141.000
516.9640, 5121.000
518.1440, 5069.000
519.3250, 5095.000
520.5050, 5051.896
521.6850, 5037.503
522.8640, 5042.000
524.0440, 5010.000
525.2230, 5085.000
526.4020, 5102.000
527.5820, 5132.000
528.7600, 5141.000
529.9390, 5074.000
531.1180, 5153.000
532.2960, 5124.000
533.4740, 5162.000
534.6520, 5219.000
535.8300, 5200.000
537.0080, 5265.000
538.1850, 5216.000
539.3630, 5327.000
540.5400, 5378.000
541.7170, 5555.000
542.8940, 5600.000
544.0700, 5645.000
545.2470, 5926.000
546.4230, 6017.000
547.5990, 6166.000
548.7750, 6329.000
549.9510, 6523.000
551.1270, 6655.000
552.3020, 6916.000
553.4780, 7144.000
554.6530, 7285.000
555.8280, 7566.000
557.0030, 7590.000
558.1770, 7733.000
559.3520, 7839.000
560.5260, 7777.000
561.7000, 7749.000
562.8740, 7740.000
564.0480, 7611.000
565.2220, 7406.000
566.3950, 7358.000
567.5680, 7241.000
568.7420, 6987.000
569.9150, 6980.000
571.0870, 6786.000
572.2600, 6638.000
573.4320, 6557.630
574.6050, 6427.000
575.7770, 6333.000
576.9490, 6289.000
578.1210, 6178.000
579.2920, 6166.000
580.4640, 6182.000
581.6350, 6027.000
582.8060, 6132.000
583.9770, 6014.000
585.1480, 6127.000
586.3190, 6087.000
587.4890, 6079.000
588.6590, 6144.000
589.8290, 6200.000
590.9990, 6212.000
592.1690, 6142.000
593.3390, 6177.000
594.5080, 6212.000
595.6770, 6189.479
596.8470, 6240.365
598.0160, 6194.000
599.1840, 6298.000
600.3530, 6296.000
601.5210, 6310.000
602.6900, 6340.000
603.8580, 6380.000
605.0260, 6380.448
606.1930, 6396.000
607.3610, 6400.000
608.5280, 6418.027
609.6960, 6368.000
610.8630, 6435.000
612.0300, 6442.000
613.1970, 6404.000
614.3630, 6476.000
615.5300, 6563.000
616.6960, 6503.000
617.8620, 6700.000
619.0280, 6572.000
620.1940, 6764.000
621.3590, 6678.000
622.5250, 6744.000
623.6900, 6815.000
624.8550, 6997.000
626.0200, 6923.000
627.1850, 7107.000
628.3490, 7141.000
629.5140, 7263.000
630.6780, 7395.000
631.8420, 7535.000
633.0060, 7650.000
634.1700, 7810.000
635.3330, 8125.000
636.4970, 8312.000
637.6600, 8475.000
638.8230, 8701.000
639.9860, 8784.000
641.1490, 9143.000
642.3110, 9334.000
643.4740, 9571.000
644.6360, 9943.000
645.7980, 10423.00
646.9600, 10881.00
648.1220, 11305.00
649.2840, 11790.00
650.4450, 12263.00
651.6060, 12595.00
652.7670, 12859.00
653.9280, 13069.00
655.0890, 12944.00
656.2500, 12999.00
657.4100, 12744.00
658.5700, 12411.00
659.7300, 12228.00
660.8900, 11643.00
662.0500, 11337.00
663.2100, 10922.00
664.3690, 10608.00
665.5280, 10313.00
666.6880, 10434.00
667.8460, 10132.00
669.0050, 10097.00
670.1640, 10148.00
671.3220, 10109.00
672.4810, 10181.03
673.6390, 10096.00
674.7970, 10373.00
675.9540, 10455.00
677.1120, 10663.00
678.2690, 10676.00
679.4270, 10870.00
680.5840, 11031.00
681.7410, 11135.00
682.8980, 11391.00
684.0540, 11513.00
685.2110, 11758.00
686.3670, 11912.00
687.5230, 12136.00
688.6790, 12344.00
689.8350, 12506.54
690.9900, 12665.00
692.1460, 12851.00
693.3010, 13042.00
694.4560, 13216.00
695.6110, 13368.00
696.7660, 13478.00
697.9210, 13467.00
699.0750, 13602.00
700.2290, 13754.00
701.3840, 13761.00
702.5370, 13894.00
703.6910, 13999.00
704.8450, 13986.00
705.9980, 14024.00
707.1520, 14070.94
708.3050, 14207.00
709.4580, 14096.00
710.6110, 14103.00
711.7630, 14021.00
712.9160, 14093.00
714.0680, 14008.00
715.2200, 13875.00
716.3720, 13781.00
717.5240, 13520.00
718.6760, 13424.00
719.8270, 13270.00
720.9780, 13028.00
722.1300, 12912.00
723.2810, 12783.00
724.4310, 12576.00
725.5820, 12345.00
726.7330, 12118.00
727.8830, 11842.00
729.0330, 11748.00
730.1830, 11410.00
731.3330, 11384.00
732.4830, 11192.00
733.6320, 10768.00
734.7810, 10542.00
735.9310, 10460.00
737.0800, 10166.00
738.2290, 9999.000
739.3770, 9942.000
740.5260, 9683.000
741.6740, 9488.000
742.8220, 9456.000
743.9700, 9256.000
745.1180, 9362.000
746.2660, 9120.000
747.4130, 9083.000
748.5610, 9058.000
749.7080, 8902.000
750.8550, 8959.000
752.0020, 8958.000
753.1490, 8777.000
754.2950, 8896.000
755.4420, 8797.000
756.5880, 8652.000
757.7340, 8667.000
758.8800, 8562.000
760.0250, 8555.000
761.1710, 8574.000
762.3160, 8422.000
763.4620, 8461.000
764.6070, 8374.000
765.7520, 8284.000
766.8960, 8343.000
768.0410, 8257.000
769.1850, 8230.000
770.3300, 8165.000
771.4740, 8132.000
772.6180, 8108.000
773.7610, 8123.000
774.9050, 7989.000
776.0480, 8038.000
777.1920, 7904.000
778.3350, 7955.000
779.4780, 7892.000
780.6200, 7773.000
781.7630, 7880.000
782.9060, 7756.000
784.0480, 7823.000
785.1900, 7770.000
786.3320, 7830.000
787.4740, 7714.000
788.6150, 7778.000
789.7570, 7891.000
790.8980, 7775.000
792.0390, 7863.000
793.1800, 7927.000
794.3210, 7906.000
795.4620, 7951.000
796.6020, 7720.000
797.7420, 7869.000
798.8830, 7694.000
800.0230, 7723.000
801.1620, 7760.000
802.3020, 7760.000
803.4420, 7786.117
804.5810, 7726.000
805.7200, 7795.000
806.8590, 7741.000
807.9980, 7700.000
809.1370, 7553.000
810.2750, 7496.405
811.4140, 7394.000
812.5520, 7354.000
813.6900, 7283.000
814.8280, 7309.000
815.9650, 7207.000
817.1030, 7130.000
818.2400, 7290.000
819.3780, 7321.000
820.5150, 7175.000
821.6520, 7244.000
822.7880, 7087.000
823.9250, 7218.000
825.0610, 7047.000
826.1980, 7211.000
827.3340, 7148.000
828.4700, 7053.000
829.6050, 7074.000
830.7410, 7196.000
831.8760, 7120.000
833.0120, 7194.000
834.1470, 7076.000
835.2820, 6997.000
836.4160, 7073.000
837.5510, 7045.000
838.6860, 6968.000
839.8200, 7051.000
840.9540, 7042.000
842.0880, 6906.000
843.2220, 6966.000
844.3550, 6856.000
845.4890, 6903.000
846.6220, 6941.000
847.7550, 6880.000
848.8880, 6945.000
850.0210, 6977.000
851.1540, 7006.000
852.2860, 7062.000
853.4190, 6952.000
854.5510, 7099.000
855.6830, 7042.000
856.8150, 7253.000
857.9460, 7149.000
859.0780, 7210.000
860.2090, 7102.000
861.3410, 7127.000
862.4720, 7190.000
863.6020, 7062.000
864.7330, 6976.000
865.8640, 6880.000
866.9940, 6914.000
868.1240, 7010.000
869.2540, 6901.000
870.3840, 6957.000
871.5140, 7112.000
872.6440, 7171.000
873.7730, 7070.000
874.9020, 7140.000
876.0320, 7231.000
877.1600, 7344.000
878.2890, 7467.000
879.4180, 7569.000
880.5460, 7591.000
881.6750, 7896.000
882.8030, 8001.000
883.9310, 8041.000
885.0590, 8414.000
886.1860, 8456.000
887.3140, 8519.000
888.4410, 8737.000
889.5680, 8882.000
890.6950, 9103.000
891.8220, 9294.000
892.9490, 9485.000
894.0750, 9740.000
895.2020, 10012.00
896.3280, 10170.00
897.4540, 10434.00
898.5800, 10713.00
899.7050, 10792.00
900.8310, 11030.00
901.9560, 11330.00
903.0820, 11622.00
904.2070, 11863.91
905.3320, 12150.59
906.4560, 12400.00
907.5810, 12704.00
908.7050, 13044.00
909.8300, 13378.00
910.9540, 13635.50
912.0780, 13985.00
913.2010, 14095.00
914.3250, 14379.00
915.4480, 14495.00
916.5720, 14780.00
917.6950, 14591.00
918.8180, 14721.00
919.9410, 14607.00
921.0630, 14605.00
922.1860, 14684.00
923.3080, 14548.00
924.4300, 14473.00
925.5520, 14443.00
926.6740, 14311.00
927.7960, 14229.00
928.9170, 14151.00
930.0390, 13892.00
931.1600, 13650.00
932.2810, 13624.00
933.4020, 13303.00
934.5230, 13054.00
935.6430, 12896.00
936.7640, 12586.52
937.8840, 12446.00
939.0040, 12064.00
940.1240, 11757.00
941.2440, 11484.00
942.3630, 11208.00
943.4830, 10932.11
944.6020, 10800.00
945.7210, 10459.00
946.8400, 10244.00
947.9590, 10138.00
949.0770, 9936.000
950.1960, 9858.000
951.3140, 9639.381
952.4320, 9516.000
953.5500, 9230.000
954.6680, 9053.000
955.7860, 8860.000
956.9030, 8592.000
958.0210, 8533.000
959.1380, 8343.000
960.2550, 8153.000
961.3720, 8040.000
962.4890, 7861.949
963.6050, 7780.000
964.7220, 7621.000
965.8380, 7466.000
966.9540, 7463.000
968.0700, 7348.000
969.1860, 7223.000
970.3010, 7205.000
971.4170, 7067.000
972.5320, 7069.000
973.6470, 6836.000
974.7620, 6939.000
975.8770, 6786.000
976.9910, 6918.000
978.1060, 6779.000
979.2200, 6751.000
980.3340, 6817.000
981.4480, 6713.000
982.5620, 6802.000
983.6760, 6816.000
984.7890, 6769.000
985.9030, 6800.000
987.0160, 6842.000
988.1290, 6818.000
989.2420, 6751.000
990.3550, 6832.000
991.4670, 7013.000
992.5800, 7018.000
993.6920, 7176.000
994.8040, 7232.000
995.9160, 7202.000
997.0280, 7310.000
998.1390, 7584.000
999.2510, 7721.000
1000.362, 7928.000
1001.473, 7855.000
1002.584, 7987.000
1003.695, 7996.000
1004.805, 7813.000
1005.916, 7749.000
1007.026, 7706.000
1008.136, 7747.000
1009.246, 7894.000
1010.356, 7891.000
1011.466, 8037.000
1012.576, 8168.000
1013.685, 8209.000
1014.794, 8317.000
1015.903, 8300.000
1017.012, 8467.000
1018.121, 8690.000
1019.229, 8660.000
1020.338, 8893.000
1021.446, 8931.000
1022.554, 9072.000
1023.662, 9112.000
1024.770, 9242.000
1025.878, 9328.000
1026.985, 9466.000
1028.092, 9540.000
1029.200, 9584.000
1030.307, 9634.369
1031.413, 9690.000
1032.520, 9655.000
1033.627, 9688.000
1034.733, 9680.000
1035.839, 9520.000
1036.945, 9452.000
1038.051, 9352.000
1039.157, 9217.273
1040.262, 9257.000
1041.368, 9008.000
1042.473, 8851.000
1043.578, 8828.000
1044.683, 8769.000
1045.788, 8528.000
1046.893, 8378.000
1047.997, 8221.000
1049.101, 8129.000
1050.205, 7986.000
1051.309, 7869.254
1052.413, 7754.169
1053.517, 7642.000
1054.621, 7523.000
1055.724, 7424.000
1056.827, 7324.000
1057.930, 7288.000
1059.033, 7275.000
1060.136, 7162.000
1061.238, 7060.000
1062.341, 7066.000
1063.443, 7051.000
1064.545, 7040.000
1065.647, 7020.696
1066.749, 7059.000
1067.850, 6993.000
1068.952, 6962.000
1070.053, 6997.000
1071.154, 6980.000
1072.255, 6940.000
1073.356, 7005.000
1074.457, 7002.000
1075.557, 6935.000
1076.658, 6980.000
1077.758, 6983.000
1078.858, 6995.786
1079.958, 7090.000
1081.057, 7061.000
1082.157, 7096.000
1083.256, 7138.000
1084.356, 7090.000
1085.455, 7063.000
1086.554, 7008.000
1087.653, 7005.000
1088.751, 6989.000
1089.850, 7037.000
1090.948, 7037.000
1092.046, 7079.000
1093.144, 7064.000
1094.242, 7081.741
1095.340, 7043.000
1096.437, 7101.000
1097.534, 7092.000
1098.632, 7109.000
1099.729, 7113.000
1100.826, 7171.000
1101.922, 7292.000
1103.019, 7379.000
1104.115, 7476.000
1105.212, 7587.000
1106.308, 7801.000
1107.404, 7956.000
1108.499, 8141.000
1109.595, 8268.000
1110.691, 8334.000
1111.786, 8356.000
1112.881, 8234.000
1113.976, 8024.000
1115.071, 7833.000
1116.166, 7709.000
1117.260, 7458.000
1118.355, 7370.000
1119.449, 7180.000
1120.543, 7011.000
1121.637, 7009.000
1122.731, 6931.000
1123.824, 6896.000
1124.918, 6747.000
1126.011, 6817.000
1127.104, 6741.000
1128.197, 6780.000
1129.290, 6883.000
1130.382, 6784.000
1131.475, 6804.000
1132.567, 6761.000
1133.659, 6824.000
1134.751, 6707.000
1135.843, 6656.000
1136.935, 6522.000
1138.027, 6523.762
1139.118, 6640.000
1140.209, 6550.000
1141.300, 6639.000
1142.391, 6717.000
1143.482, 6679.000
1144.573, 6639.000
1145.663, 6654.000
1146.754, 6605.000
1147.844, 6728.000
1148.934, 6679.000
1150.024, 6721.000
1151.113, 6775.000
1152.203, 6759.000
1153.292, 6888.000
1154.381, 6864.000
1155.470, 6865.000
1156.559, 6965.000
1157.648, 6831.000
1158.737, 6909.000
1159.825, 6839.000
1160.913, 6820.000
1162.001, 6810.000
1163.089, 6722.000
1164.177, 6627.000
1165.265, 6690.000
1166.352, 6645.000
1167.440, 6616.000
1168.527, 6637.000
1169.614, 6650.000
1170.701, 6619.000
1171.788, 6751.000
1172.874, 6750.000
1173.961, 6763.000
1175.047, 6743.000
1176.133, 6881.000
1177.219, 6999.000
1178.305, 7024.000
1179.390, 6944.000
1180.476, 7149.000
1181.561, 7424.000
1182.646, 7352.000
1183.731, 7534.000
1184.816, 7479.000
1185.901, 7500.000
1186.985, 7468.000
1188.070, 7401.000
1189.154, 7322.098
1190.238, 7176.000
1191.322, 7087.000
1192.406, 6954.000
1193.489, 6826.000
1194.573, 6762.435
1195.656, 6733.000
1196.739, 6636.000
1197.822, 6669.000
1198.905, 6633.000
1199.988, 6625.000
1201.070, 6647.000
1202.153, 6687.000
1203.235, 6730.000
1204.317, 6641.000
1205.399, 6806.000
1206.481, 6628.000
1207.562, 6665.000
1208.644, 6781.000
1209.725, 6846.000
1210.806, 6881.000
1211.887, 6982.125
1212.968, 7035.000
1214.049, 7109.000
1215.129, 7201.000
1216.209, 7205.000
1217.290, 7260.000
1218.370, 7377.000
1219.450, 7468.000
1220.529, 7549.000
1221.609, 7629.000
1222.688, 7622.000
1223.768, 7610.000
1224.847, 7596.000
1225.926, 7656.000
1227.005, 7604.000
1228.083, 7551.000
1229.162, 7618.000
1230.240, 7642.000
1231.318, 7550.000
1232.396, 7559.000
1233.474, 7418.000
1234.552, 7483.000
1235.629, 7500.000
1236.707, 7398.000
1237.784, 7529.000
1238.861, 7465.000
1239.938, 7514.000
1241.015, 7371.000
1242.092, 7577.000
1243.168, 7526.000
1244.244, 7537.000
1245.321, 7575.000
1246.397, 7620.000
1247.473, 7807.000
1248.548, 7774.000
1249.624, 7666.000
1250.699, 7840.000
1251.775, 7795.000
1252.850, 7776.000
1253.925, 7768.000
1254.999, 7766.000
1256.074, 7845.000
1257.148, 7826.000
1258.223, 7748.000
1259.297, 7608.000
1260.371, 7551.000
1261.445, 7468.000
1262.519, 7433.000
1263.592, 7338.000
1264.666, 7390.000
1265.739, 7399.000
1266.812, 7327.000
1267.885, 7312.000
1268.958, 7344.000
1270.030, 7382.000
1271.103, 7362.000
1272.175, 7338.000
1273.247, 7232.000
1274.319, 7270.000
1275.391, 7360.000
1276.463, 7272.000
1277.535, 7178.000
1278.606, 7352.000
1279.677, 7286.000
1280.748, 7365.000
1281.819, 7350.000
1282.890, 7358.000
1283.961, 7514.000
1285.031, 7438.000
1286.102, 7578.000
1287.172, 7529.000
1288.242, 7527.000
1289.312, 7527.000
1290.381, 7517.425
1291.451, 7494.292
1292.520, 7536.000
1293.590, 7472.000
1294.659, 7490.000
1295.728, 7559.000
1296.797, 7465.000
1297.865, 7405.000
1298.934, 7413.000
1300.002, 7376.000
1301.070, 7445.000
1302.138, 7324.000
1303.206, 7425.000
1304.274, 7423.000
1305.341, 7421.000
1306.409, 7481.000
1307.476, 7379.000
1308.543, 7395.000
1309.610, 7359.000
1310.677, 7394.000
1311.744, 7366.000
1312.810, 7300.000
1313.877, 7209.000
1314.943, 7240.000
1316.009, 7271.000
1317.075, 7078.000
1318.140, 7012.000
1319.206, 7080.000
1320.272, 6995.000
1321.337, 6991.000
1322.402, 6921.000
1323.467, 6875.000
1324.532, 7013.000
1325.596, 6930.000
1326.661, 6920.000
1327.725, 6934.000
1328.790, 6886.000
1329.854, 6911.000
1330.918, 6976.000
1331.981, 6956.757
1333.045, 6831.000
1334.108, 6977.000
1335.172, 6941.000
1336.235, 6929.000
1337.298, 7001.000
1338.361, 6969.000
1339.423, 6942.000
1340.486, 6997.000
1341.548, 6919.000
1342.611, 7008.000
1343.673, 7044.000
1344.735, 7031.000
1345.796, 7037.000
1346.858, 7033.000
1347.919, 7006.000
1348.981, 7133.000
1350.042, 6990.000
1351.103, 6998.000
1352.164, 6854.000
1353.225, 6822.000
1354.285, 7016.000
1355.346, 6866.000
1356.406, 6992.000
1357.466, 6913.000
1358.526, 6891.000
1359.586, 6893.000
1360.645, 6934.000
1361.705, 6939.000
1362.764, 6949.468
1363.823, 6970.278
1364.882, 6949.000
1365.941, 6985.000
1367.000, 6959.349
1368.059, 6940.000
1369.117, 6908.000
1370.175, 6957.000
1371.233, 6974.000
1372.291, 6828.000
1373.349, 6932.000
1374.407, 6833.000
1375.464, 6870.000
1376.522, 6942.000
1377.579, 6894.000
1378.636, 6873.000
1379.693, 6970.000
1380.750, 6893.000
1381.806, 6916.000
1382.863, 6991.000
1383.919, 7071.000
1384.975, 6955.000
1386.031, 7059.000
1387.087, 6950.000
1388.143, 6975.000
1389.199, 7076.000
1390.254, 6939.000
1391.309, 7015.000
1392.364, 6954.000
1393.419, 7037.000
1394.474, 7032.000
1395.529, 6953.000
1396.583, 7089.000
1397.638, 7059.000
1398.692, 7063.000
1399.746, 7109.000
1400.800, 6974.000
1401.853, 7135.000
1402.907, 7092.000
1403.960, 7164.000
1405.014, 7054.000
1406.067, 7145.000
1407.120, 7169.000
1408.173, 7041.000
1409.225, 7247.000
1410.278, 7146.000
1411.330, 7131.000
1412.383, 7195.000
1413.435, 7280.000
1414.487, 7162.000
1415.538, 7169.000
1416.590, 7150.000
1417.641, 7174.000
1418.693, 7184.000
1419.744, 7072.000
1420.795, 7178.000
1421.846, 7371.000
1422.897, 7295.000
1423.947, 7323.000
1424.998, 7339.000
1426.048, 7386.000
1427.098, 7427.756
1428.148, 7384.000
1429.198, 7504.000
1430.247, 7514.000
1431.297, 7487.000
1432.346, 7555.000
1433.396, 7591.415
1434.445, 7741.000
1435.494, 7744.000
1436.542, 7800.000
1437.591, 7914.000
1438.639, 8122.197
1439.688, 8134.028
1440.736, 8170.194
1441.784, 8228.000
1442.832, 8141.000
1443.880, 8150.000
1444.927, 8191.000
1445.975, 8238.000
1447.022, 8280.000
1448.069, 8272.000
1449.116, 8298.000
1450.163, 8261.000
1451.209, 8345.000
1452.256, 8247.000
1453.302, 8085.000
1454.348, 8167.000
1455.394, 8211.000
1456.440, 8169.000
1457.486, 8233.000
1458.532, 8074.000
1459.577, 7986.000
1460.623, 8097.000
1461.668, 8032.000
1462.713, 7887.000
1463.758, 7944.000
1464.802, 7997.000
1465.847, 7784.000
1466.891, 7806.000
1467.936, 7735.000
1468.980, 7737.000
1470.024, 7568.000
1471.067, 7724.000
1472.111, 7713.000
1473.155, 7550.000
1474.198, 7522.000
1475.241, 7612.000
1476.284, 7509.000
1477.327, 7623.000
1478.370, 7619.000
1479.413, 7515.000
1480.455, 7599.000
1481.497, 7506.000
1482.540, 7457.000
1483.582, 7473.000
1484.624, 7482.000
1485.665, 7370.000
1486.707, 7415.000
1487.748, 7299.000
1488.790, 7249.000
1489.831, 7326.000
1490.872, 7415.000
1491.912, 7298.000
1492.953, 7369.000
1493.994, 7358.000
1495.034, 7293.000
1496.074, 7302.000
1497.114, 7266.000
1498.154, 7273.000
1499.194, 7164.000
1500.234, 7263.000
1501.273, 7198.000
1502.313, 7247.000
1503.352, 7317.000
1504.391, 7177.000
1505.430, 7260.000
1506.468, 7238.000
1507.507, 7285.000
1508.545, 7357.000
1509.584, 7318.000
1510.622, 7344.000
1511.660, 7315.000
1512.698, 7278.000
1513.735, 7281.000
1514.773, 7238.000
1515.810, 7277.000
1516.848, 7207.000
1517.885, 7266.000
1518.922, 7303.000
1519.958, 7274.000
1520.995, 7257.000
1522.032, 7163.000
1523.068, 7190.000
1524.104, 7284.000
1525.140, 7299.000
1526.176, 7191.000
1527.212, 7296.000
1528.248, 7319.000
1529.283, 7265.000
1530.318, 7340.000
1531.353, 7286.000
1532.389, 7304.553
1533.423, 7340.000
1534.458, 7343.000
1535.493, 7279.000
1536.527, 7346.000
1537.561, 7263.000
1538.596, 7196.000
1539.630, 7232.000
1540.663, 7321.000
1541.697, 7302.000
1542.731, 7331.000
1543.764, 7300.000
1544.797, 7274.000
1545.830, 7266.000
1546.863, 7302.000
1547.896, 7425.000
1548.929, 7276.000
1549.961, 7304.000
1550.994, 7284.000
1552.026, 7491.000
1553.058, 7351.000
1554.090, 7542.000
1555.121, 7462.000
1556.153, 7318.000
1557.185, 7332.000
1558.216, 7395.000
1559.247, 7330.000
1560.278, 7361.000
1561.309, 7283.000
1562.340, 7440.000
##END=



