##NAMES=Astrophyllite
##RRUFFID=R060103
##IDEAL CHEMISTRY=K_2_NaFe^2+^_7_Ti^4+^_2_(Si_4_O_12_)_2_O_2_(OH)_4_F
##LOCALITY=Brivik, Norway
##OWNER=RRUFF
##SOURCE=University of Arizona Mineral Museum
##DESCRIPTION=Brown fragment embedded in matrix
##STATUS=The identification of this mineral is confirmed by single-crystal X-ray diffraction and chemical analysis.
##URL=rruff.info/R060103
##MEASURED CHEMISTRY=K_2.00_Na_1.00_(Fe^2+^_0.55_Mn_0.32_Fe^3+^_0.04_Mg_0.04_Ca_0.04_)_7_(Ti_0.66_Zr_0.18_Al_0.16_)_2_Si_8.00_O_26_(OH)_4_F_1.00_
##PIN_ID=M01746
##ORIENTATION=Laser parallel to a* (1 0 0). Fiducial mark perpendicular to laser is parallel to b [0 1 0]
151.3980, 8210.000
152.6310, 8297.000
153.8640, 8218.000
155.0960, 8496.000
156.3280, 8720.000
157.5600, 8817.000
158.7920, 9223.000
160.0240, 9504.000
161.2560, 9678.000
162.4870, 9988.000
163.7180, 10401.00
164.9490, 10824.00
166.1800, 11088.00
167.4110, 11327.00
168.6410, 11638.00
169.8720, 11882.00
171.1020, 12075.00
172.3320, 11872.00
173.5620, 11837.00
174.7910, 11487.00
176.0210, 11193.00
177.2500, 10970.00
178.4790, 10600.00
179.7080, 10246.00
180.9370, 9781.000
182.1650, 9521.000
183.3940, 9386.000
184.6220, 9089.000
185.8500, 8948.000
187.0780, 8924.000
188.3050, 8580.000
189.5330, 8530.000
190.7600, 8687.000
191.9870, 8689.000
193.2140, 8462.000
194.4410, 8363.000
195.6680, 8468.000
196.8940, 8366.000
198.1200, 8537.000
199.3470, 8618.000
200.5720, 8750.000
201.7980, 8656.000
203.0240, 8781.000
204.2490, 8598.000
205.4740, 8510.000
206.6990, 8531.000
207.9240, 8526.000
209.1490, 8682.000
210.3740, 8818.000
211.5980, 8974.000
212.8220, 9099.000
214.0460, 9284.000
215.2700, 9496.000
216.4930, 9458.000
217.7170, 9629.000
218.9400, 9786.000
220.1630, 10031.00
221.3860, 10039.00
222.6090, 10142.00
223.8320, 10075.00
225.0540, 10253.00
226.2760, 10340.00
227.4980, 10396.00
228.7200, 10496.00
229.9420, 10465.00
231.1630, 10527.98
232.3850, 10512.00
233.6060, 10504.00
234.8270, 10507.00
236.0480, 10337.00
237.2690, 10239.00
238.4890, 10342.00
239.7090, 10184.00
240.9290, 10217.00
242.1490, 10099.00
243.3690, 9882.000
244.5890, 9748.000
245.8080, 9618.000
247.0270, 9476.117
248.2470, 9352.000
249.4650, 9255.000
250.6840, 9141.000
251.9030, 9044.000
253.1210, 9006.000
254.3390, 8870.000
255.5570, 8762.000
256.7750, 8744.000
257.9930, 8822.000
259.2100, 8732.284
260.4280, 8719.677
261.6450, 8664.000
262.8620, 8594.000
264.0790, 8553.000
265.2950, 8454.000
266.5120, 8451.164
267.7280, 8437.000
268.9440, 8410.000
270.1600, 8433.000
271.3760, 8369.000
272.5920, 8323.000
273.8070, 8221.000
275.0220, 8216.000
276.2370, 8355.000
277.4520, 8154.000
278.6670, 8260.000
279.8820, 8262.000
281.0960, 8227.000
282.3100, 8308.000
283.5240, 8225.000
284.7380, 8207.000
285.9520, 8179.000
287.1650, 8181.000
288.3780, 8255.000
289.5920, 8227.000
290.8050, 8353.000
292.0170, 8313.000
293.2300, 8365.000
294.4430, 8393.000
295.6550, 8417.000
296.8670, 8563.000
298.0790, 8431.000
299.2910, 8361.000
300.5020, 8487.000
301.7140, 8465.000
302.9250, 8493.000
304.1360, 8431.000
305.3470, 8425.000
306.5580, 8441.000
307.7680, 8419.639
308.9780, 8410.000
310.1890, 8412.000
311.3990, 8477.000
312.6090, 8447.000
313.8180, 8519.000
315.0280, 8417.000
316.2370, 8306.000
317.4460, 8456.000
318.6550, 8382.000
319.8640, 8225.000
321.0730, 8234.000
322.2810, 8263.000
323.4890, 8109.000
324.6980, 8065.000
325.9060, 8140.000
327.1130, 8268.000
328.3210, 8127.437
329.5280, 8240.000
330.7360, 7930.000
331.9430, 8065.000
333.1500, 8029.000
334.3560, 8005.000
335.5630, 8069.000
336.7690, 8185.000
337.9760, 8130.000
339.1820, 8297.000
340.3870, 8324.695
341.5930, 8456.000
342.7990, 8474.000
344.0040, 8452.000
345.2090, 8568.000
346.4140, 8381.000
347.6190, 8454.000
348.8240, 8468.000
350.0280, 8475.000
351.2330, 8427.000
352.4370, 8469.000
353.6410, 8353.000
354.8440, 8342.000
356.0480, 8260.000
357.2520, 8258.000
358.4550, 8137.000
359.6580, 8167.301
360.8610, 8130.447
362.0640, 8206.000
363.2660, 8172.000
364.4690, 8197.000
365.6710, 8352.000
366.8730, 8241.000
368.0750, 8277.000
369.2770, 8222.000
370.4780, 8157.000
371.6800, 8201.000
372.8810, 8303.000
374.0820, 8237.000
375.2830, 8255.000
376.4830, 8219.000
377.6840, 8194.000
378.8840, 8321.000
380.0840, 8200.000
381.2840, 8091.000
382.4840, 8231.000
383.6840, 8405.000
384.8830, 8332.000
386.0830, 8070.000
387.2820, 7966.000
388.4810, 8028.000
389.6800, 8050.000
390.8780, 7957.145
392.0770, 8073.000
393.2750, 7809.000
394.4730, 7705.000
395.6710, 7619.000
396.8690, 7559.000
398.0660, 7503.000
399.2640, 7434.000
400.4610, 7342.000
401.6580, 7302.000
402.8550, 7244.000
404.0520, 7190.000
405.2490, 7069.000
406.4450, 7079.000
407.6410, 6951.000
408.8370, 6944.000
410.0330, 6865.000
411.2290, 6709.000
412.4240, 6768.000
413.6200, 6787.000
414.8150, 6675.000
416.0100, 6755.000
417.2050, 6764.000
418.4000, 6714.000
419.5940, 6674.000
420.7880, 6711.000
421.9830, 6727.000
423.1770, 6758.000
424.3700, 6655.000
425.5640, 6628.000
426.7580, 6586.000
427.9510, 6625.000
429.1440, 6517.000
430.3370, 6549.000
431.5300, 6457.000
432.7220, 6384.000
433.9150, 6222.263
435.1070, 6259.425
436.2990, 6268.569
437.4910, 6251.363
438.6830, 6119.956
439.8750, 6142.841
441.0660, 6108.080
442.2570, 6073.808
443.4480, 6126.931
444.6390, 6027.463
445.8300, 6085.196
447.0210, 6084.339
448.2110, 6114.632
449.4010, 6086.881
450.5910, 6080.944
451.7810, 6139.009
452.9710, 6166.250
454.1610, 6091.000
455.3500, 6190.000
456.5390, 6091.000
457.7280, 6149.000
458.9170, 6048.000
460.1060, 6198.000
461.2940, 6173.000
462.4830, 6264.000
463.6710, 6250.000
464.8590, 6306.399
466.0470, 6299.000
467.2350, 6374.000
468.4220, 6431.000
469.6090, 6388.000
470.7970, 6412.000
471.9840, 6367.000
473.1700, 6273.000
474.3570, 6397.000
475.5440, 6385.000
476.7300, 6328.000
477.9160, 6284.000
479.1020, 6235.000
480.2880, 6280.000
481.4740, 6197.000
482.6590, 6320.000
483.8440, 6307.000
485.0300, 6364.000
486.2140, 6397.000
487.3990, 6393.000
488.5840, 6343.000
489.7680, 6443.000
490.9530, 6348.000
492.1370, 6410.000
493.3210, 6302.000
494.5040, 6351.000
495.6880, 6383.000
496.8720, 6378.000
498.0550, 6407.000
499.2380, 6468.000
500.4210, 6405.000
501.6040, 6408.000
502.7860, 6303.000
503.9690, 6427.000
505.1510, 6274.000
506.3330, 6340.000
507.5150, 6356.000
508.6970, 6347.000
509.8780, 6342.000
511.0600, 6223.000
512.2410, 6185.000
513.4220, 6316.000
514.6030, 6218.000
515.7840, 6289.000
516.9640, 6237.000
518.1440, 6248.000
519.3250, 6262.000
520.5050, 6227.000
521.6850, 6259.000
522.8640, 6182.000
524.0440, 6239.000
525.2230, 6283.000
526.4020, 6351.000
527.5820, 6314.000
528.7600, 6219.000
529.9390, 6374.000
531.1180, 6343.000
532.2960, 6434.000
533.4740, 6354.000
534.6520, 6451.000
535.8300, 6401.000
537.0080, 6446.000
538.1850, 6447.000
539.3630, 6559.000
540.5400, 6501.000
541.7170, 6726.000
542.8940, 6638.000
544.0700, 6766.000
545.2470, 6961.000
546.4230, 7160.000
547.5990, 7171.000
548.7750, 7297.000
549.9510, 7468.259
551.1270, 7651.475
552.3020, 7827.000
553.4780, 8089.000
554.6530, 8310.000
555.8280, 8412.000
557.0030, 8626.000
558.1770, 8698.000
559.3520, 8758.000
560.5260, 8856.000
561.7000, 8715.000
562.8740, 8825.000
564.0480, 8608.000
565.2220, 8652.000
566.3950, 8515.000
567.5680, 8259.000
568.7420, 8049.000
569.9150, 8092.000
571.0870, 7920.000
572.2600, 7739.000
573.4320, 7737.000
574.6050, 7574.000
575.7770, 7598.000
576.9490, 7441.000
578.1210, 7263.000
579.2920, 7251.000
580.4640, 7326.000
581.6350, 7382.000
582.8060, 7255.000
583.9770, 7364.000
585.1480, 7359.000
586.3190, 7355.000
587.4890, 7417.000
588.6590, 7537.000
589.8290, 7573.000
590.9990, 7630.000
592.1690, 7736.000
593.3390, 7702.000
594.5080, 7722.000
595.6770, 7736.000
596.8470, 7902.000
598.0160, 7865.000
599.1840, 7975.000
600.3530, 7993.000
601.5210, 7922.000
602.6900, 7883.000
603.8580, 8024.000
605.0260, 8069.000
606.1930, 8017.000
607.3610, 7993.000
608.5280, 8018.000
609.6960, 8171.000
610.8630, 8164.000
612.0300, 8071.000
613.1970, 8269.000
614.3630, 8210.000
615.5300, 8339.000
616.6960, 8252.000
617.8620, 8443.000
619.0280, 8402.000
620.1940, 8475.000
621.3590, 8630.000
622.5250, 8751.000
623.6900, 8793.000
624.8550, 8807.000
626.0200, 8822.000
627.1850, 8875.000
628.3490, 9095.000
629.5140, 9175.000
630.6780, 9272.000
631.8420, 9447.000
633.0060, 9564.080
634.1700, 9703.000
635.3330, 9885.000
636.4970, 10093.00
637.6600, 10285.00
638.8230, 10362.00
639.9860, 10600.00
641.1490, 10960.00
642.3110, 11416.00
643.4740, 11760.00
644.6360, 12341.00
645.7980, 12541.00
646.9600, 13283.00
648.1220, 13902.00
649.2840, 14222.00
650.4450, 14954.00
651.6060, 15616.00
652.7670, 15938.00
653.9280, 16383.00
655.0890, 16527.00
656.2500, 16564.00
657.4100, 16296.00
658.5700, 15597.00
659.7300, 15441.00
660.8900, 14861.00
662.0500, 14326.00
663.2100, 13711.00
664.3690, 13322.00
665.5280, 12955.00
666.6880, 12646.00
667.8460, 12679.00
669.0050, 12462.00
670.1640, 12514.00
671.3220, 12549.00
672.4810, 12661.00
673.6390, 12740.00
674.7970, 12804.00
675.9540, 13070.00
677.1120, 13300.00
678.2690, 13441.00
679.4270, 13685.00
680.5840, 13915.77
681.7410, 14163.00
682.8980, 14458.00
684.0540, 14732.00
685.2110, 15093.00
686.3670, 15287.00
687.5230, 15596.00
688.6790, 15803.00
689.8350, 16032.00
690.9900, 16430.00
692.1460, 16360.00
693.3010, 16609.00
694.4560, 16978.00
695.6110, 17193.00
696.7660, 17337.00
697.9210, 17854.00
699.0750, 17743.00
700.2290, 18230.00
701.3840, 18163.00
702.5370, 18435.00
703.6910, 18459.00
704.8450, 18851.00
705.9980, 18790.00
707.1520, 19088.00
708.3050, 19092.00
709.4580, 19284.00
710.6110, 19270.00
711.7630, 19378.00
712.9160, 19357.00
714.0680, 19327.00
715.2200, 19324.44
716.3720, 19102.00
717.5240, 19228.00
718.6760, 18961.00
719.8270, 18887.00
720.9780, 18720.00
722.1300, 18315.00
723.2810, 18051.00
724.4310, 17832.00
725.5820, 17618.00
726.7330, 17285.00
727.8830, 16967.00
729.0330, 16566.00
730.1830, 16317.00
731.3330, 15956.00
732.4830, 15744.00
733.6320, 15428.82
734.7810, 15108.00
735.9310, 14865.00
737.0800, 14592.00
738.2290, 14353.00
739.3770, 14155.00
740.5260, 13766.00
741.6740, 13553.00
742.8220, 13322.00
743.9700, 13330.00
745.1180, 13117.00
746.2660, 13103.00
747.4130, 12906.00
748.5610, 12916.00
749.7080, 12681.00
750.8550, 12795.00
752.0020, 12716.00
753.1490, 12671.00
754.2950, 12691.00
755.4420, 12592.00
756.5880, 12559.00
757.7340, 12517.00
758.8800, 12480.00
760.0250, 12431.17
761.1710, 12338.62
762.3160, 12288.00
763.4620, 12171.00
764.6070, 12005.00
765.7520, 11995.00
766.8960, 11828.00
768.0410, 11730.00
769.1850, 11656.00
770.3300, 11595.00
771.4740, 11405.00
772.6180, 11394.00
773.7610, 11330.00
774.9050, 11149.00
776.0480, 11101.00
777.1920, 11144.00
778.3350, 11065.00
779.4780, 11032.00
780.6200, 11004.70
781.7630, 10928.00
782.9060, 10908.00
784.0480, 10843.00
785.1900, 10776.00
786.3320, 10578.00
787.4740, 10695.00
788.6150, 10591.00
789.7570, 10334.00
790.8980, 10326.00
792.0390, 10182.00
793.1800, 10096.00
794.3210, 10055.00
795.4620, 9857.000
796.6020, 9706.000
797.7420, 9591.088
798.8830, 9558.000
800.0230, 9334.000
801.1620, 9258.000
802.3020, 9181.000
803.4420, 9035.000
804.5810, 8872.000
805.7200, 8778.000
806.8590, 8568.000
807.9980, 8582.000
809.1370, 8392.000
810.2750, 8317.000
811.4140, 8152.000
812.5520, 8011.000
813.6900, 8154.000
814.8280, 8006.000
815.9650, 8031.000
817.1030, 7867.000
818.2400, 7861.000
819.3780, 7785.000
820.5150, 7678.000
821.6520, 7525.000
822.7880, 7664.000
823.9250, 7513.000
825.0610, 7512.000
826.1980, 7483.000
827.3340, 7387.000
828.4700, 7369.000
829.6050, 7362.000
830.7410, 7374.000
831.8760, 7419.000
833.0120, 7241.000
834.1470, 7339.000
835.2820, 7183.000
836.4160, 7207.000
837.5510, 7214.000
838.6860, 7144.000
839.8200, 7254.000
840.9540, 7142.000
842.0880, 7052.000
843.2220, 7137.000
844.3550, 7115.000
845.4890, 7064.000
846.6220, 7017.000
847.7550, 7010.305
848.8880, 7003.463
850.0210, 7008.000
851.1540, 7027.000
852.2860, 7063.000
853.4190, 7064.920
854.5510, 6971.000
855.6830, 7071.000
856.8150, 6940.000
857.9460, 7003.000
859.0780, 7023.000
860.2090, 6965.000
861.3410, 6921.000
862.4720, 6949.000
863.6020, 6954.000
864.7330, 7013.000
865.8640, 7012.000
866.9940, 7052.000
868.1240, 7164.000
869.2540, 7133.000
870.3840, 7085.000
871.5140, 7210.000
872.6440, 7245.000
873.7730, 7265.000
874.9020, 7266.000
876.0320, 7285.000
877.1600, 7314.000
878.2890, 7276.000
879.4180, 7464.000
880.5460, 7547.000
881.6750, 7472.000
882.8030, 7689.000
883.9310, 7675.000
885.0590, 7788.000
886.1860, 7756.000
887.3140, 7887.000
888.4410, 7836.000
889.5680, 7910.000
890.6950, 7995.000
891.8220, 8178.000
892.9490, 8067.000
894.0750, 8194.000
895.2020, 8321.000
896.3280, 8210.000
897.4540, 8296.000
898.5800, 8521.000
899.7050, 8474.000
900.8310, 8524.000
901.9560, 8567.000
903.0820, 8653.000
904.2070, 8811.000
905.3320, 8918.000
906.4560, 9060.000
907.5810, 9128.000
908.7050, 9282.353
909.8300, 9387.000
910.9540, 9542.000
912.0780, 9666.000
913.2010, 9750.000
914.3250, 9780.000
915.4480, 9872.000
916.5720, 9897.000
917.6950, 9933.848
918.8180, 9888.000
919.9410, 9975.000
921.0630, 9877.000
922.1860, 9865.000
923.3080, 9944.000
924.4300, 9917.000
925.5520, 9860.930
926.6740, 9905.209
927.7960, 9918.492
928.9170, 9902.470
930.0390, 9769.244
931.1600, 9787.354
932.2810, 9744.825
933.4020, 9699.811
934.5230, 9739.218
935.6430, 9624.000
936.7640, 9694.000
937.8840, 9690.000
939.0040, 9642.000
940.1240, 9616.000
941.2440, 9528.000
942.3630, 9615.000
943.4830, 9338.000
944.6020, 9541.000
945.7210, 9561.000
946.8400, 9428.637
947.9590, 9505.302
949.0770, 9528.729
950.1960, 9500.560
951.3140, 9333.006
952.4320, 9294.542
953.5500, 9173.215
954.6680, 8918.000
955.7860, 8850.000
956.9030, 8917.000
958.0210, 8693.000
959.1380, 8448.000
960.2550, 8527.000
961.3720, 8375.000
962.4890, 8276.000
963.6050, 8237.000
964.7220, 8158.000
965.8380, 8117.000
966.9540, 8054.301
968.0700, 7995.475
969.1860, 7944.000
970.3010, 7888.000
971.4170, 7853.531
972.5320, 7813.234
973.6470, 7828.000
974.7620, 7819.000
975.8770, 7839.000
976.9910, 7843.929
978.1060, 7890.000
979.2200, 7890.000
980.3340, 7876.000
981.4480, 7955.000
982.5620, 8081.000
983.6760, 8108.000
984.7890, 8184.000
985.9030, 8159.000
987.0160, 8138.000
988.1290, 8320.000
989.2420, 8376.000
990.3550, 8338.000
991.4670, 8569.000
992.5800, 8708.000
993.6920, 8778.000
994.8040, 8960.000
995.9160, 8982.000
997.0280, 9223.000
998.1390, 9434.000
999.2510, 9619.000
1000.362, 9715.000
1001.473, 9940.000
1002.584, 10246.00
1003.695, 10329.00
1004.805, 10738.00
1005.916, 10932.00
1007.026, 11205.00
1008.136, 11659.00
1009.246, 11937.00
1010.356, 12373.00
1011.466, 12894.00
1012.576, 13278.00
1013.685, 13734.00
1014.794, 14471.00
1015.903, 14987.00
1017.012, 15538.00
1018.121, 16402.00
1019.229, 16951.00
1020.338, 17576.00
1021.446, 18338.00
1022.554, 18634.00
1023.662, 19101.00
1024.770, 19499.00
1025.878, 20371.00
1026.985, 20863.00
1028.092, 21008.00
1029.200, 21330.00
1030.307, 21529.00
1031.413, 21531.00
1032.520, 21648.00
1033.627, 21487.00
1034.733, 21453.00
1035.839, 21151.59
1036.945, 20790.00
1038.051, 20317.00
1039.157, 19892.00
1040.262, 19245.00
1041.368, 18578.00
1042.473, 18014.00
1043.578, 17435.00
1044.683, 16657.00
1045.788, 16181.00
1046.893, 15553.00
1047.997, 14851.00
1049.101, 14106.00
1050.205, 13510.00
1051.309, 13005.00
1052.413, 12473.00
1053.517, 12021.00
1054.621, 11789.00
1055.724, 11260.00
1056.827, 10881.00
1057.930, 10734.00
1059.033, 10394.00
1060.136, 9987.000
1061.238, 9978.000
1062.341, 9692.000
1063.443, 9720.000
1064.545, 9511.000
1065.647, 9370.000
1066.749, 9211.000
1067.850, 9210.000
1068.952, 9029.000
1070.053, 8895.000
1071.154, 8958.000
1072.255, 8862.000
1073.356, 8770.000
1074.457, 8685.000
1075.557, 8666.000
1076.658, 8669.000
1077.758, 8624.501
1078.858, 8618.000
1079.958, 8575.000
1081.057, 8468.000
1082.157, 8405.000
1083.256, 8429.000
1084.356, 8355.000
1085.455, 8363.000
1086.554, 8318.000
1087.653, 8279.000
1088.751, 8248.000
1089.850, 8227.000
1090.948, 8222.000
1092.046, 8186.000
1093.144, 8138.734
1094.242, 8064.000
1095.340, 8023.000
1096.437, 7989.000
1097.534, 7937.000
1098.632, 7994.000
1099.729, 7929.000
1100.826, 7950.000
1101.922, 7797.000
1103.019, 7611.000
1104.115, 7632.000
1105.212, 7668.000
1106.308, 7377.000
1107.404, 7391.000
1108.499, 7372.000
1109.595, 7366.000
1110.691, 7307.000
1111.786, 7213.000
1112.881, 7248.000
1113.976, 7005.000
1115.071, 7100.000
1116.166, 6997.000
1117.260, 6974.000
1118.355, 6983.000
1119.449, 6882.000
1120.543, 6894.000
1121.637, 6847.000
1122.731, 6889.000
1123.824, 6841.000
1124.918, 6788.000
1126.011, 6665.000
1127.104, 6705.000
1128.197, 6684.000
1129.290, 6616.694
1130.382, 6686.545
1131.475, 6725.398
1132.567, 6734.922
1133.659, 6627.267
1134.751, 6670.923
1135.843, 6653.941
1136.935, 6634.473
1138.027, 6699.426
1139.118, 6608.815
1140.209, 6672.431
1141.300, 6674.481
1142.391, 6704.709
1143.482, 6673.923
1144.573, 6661.982
1145.663, 6646.000
1146.754, 6634.000
1147.844, 6656.079
1148.934, 6627.096
1150.024, 6679.000
1151.113, 6613.000
1152.203, 6627.000
1153.292, 6666.000
1154.381, 6697.000
1155.470, 6673.000
1156.559, 6559.000
1157.648, 6635.000
1158.737, 6672.000
1159.825, 6553.000
1160.913, 6658.000
1162.001, 6655.000
1163.089, 6626.000
1164.177, 6512.000
1165.265, 6640.000
1166.352, 6601.000
1167.440, 6541.000
1168.527, 6660.000
1169.614, 6523.000
1170.701, 6480.000
1171.788, 6639.000
1172.874, 6594.000
1173.961, 6681.000
1175.047, 6650.000
1176.133, 6543.000
1177.219, 6617.000
1178.305, 6589.000
1179.390, 6725.000
1180.476, 6574.000
1181.561, 6699.000
1182.646, 6643.671
1183.731, 6622.950
1184.816, 6560.000
1185.901, 6649.000
1186.985, 6596.000
1188.070, 6721.000
1189.154, 6616.000
1190.238, 6687.000
1191.322, 6666.000
1192.406, 6603.000
1193.489, 6568.000
1194.573, 6507.000
1195.656, 6628.000
1196.739, 6468.000
1197.822, 6584.000
1198.905, 6551.000
1199.988, 6600.000
1201.070, 6599.000
1202.153, 6642.000
1203.235, 6626.000
1204.317, 6494.000
1205.399, 6571.000
1206.481, 6562.000
1207.562, 6704.000
1208.644, 6505.000
1209.725, 6550.000
1210.806, 6585.000
1211.887, 6688.000
1212.968, 6620.000
1214.049, 6715.000
1215.129, 6577.000
1216.209, 6617.000
1217.290, 6699.000
1218.370, 6581.000
1219.450, 6707.000
1220.529, 6627.000
1221.609, 6641.000
1222.688, 6661.000
1223.768, 6678.000
1224.847, 6662.000
1225.926, 6621.000
1227.005, 6649.000
1228.083, 6655.000
1229.162, 6618.000
1230.240, 6636.000
1231.318, 6683.000
1232.396, 6673.000
1233.474, 6724.000
1234.552, 6717.962
1235.629, 6715.297
1236.707, 6701.000
1237.784, 6692.000
1238.861, 6655.000
1239.938, 6635.000
1241.015, 6682.000
1242.092, 6688.000
1243.168, 6722.000
1244.244, 6675.000
1245.321, 6686.000
1246.397, 6624.000
1247.473, 6649.000
1248.548, 6673.000
1249.624, 6656.000
1250.699, 6687.000
1251.775, 6709.134
1252.850, 6844.000
1253.925, 6714.000
1254.999, 6801.000
1256.074, 6685.000
1257.148, 6776.000
1258.223, 6635.000
1259.297, 6680.000
1260.371, 6754.000
1261.445, 6639.000
1262.519, 6692.000
1263.592, 6541.000
1264.666, 6706.000
1265.739, 6653.000
1266.812, 6615.000
1267.885, 6720.000
1268.958, 6722.000
1270.030, 6603.000
1271.103, 6640.000
1272.175, 6612.431
1273.247, 6697.000
1274.319, 6621.000
1275.391, 6686.000
1276.463, 6708.000
1277.535, 6682.000
1278.606, 6698.000
1279.677, 6701.000
1280.748, 6649.000
1281.819, 6673.674
1282.890, 6639.000
1283.961, 6691.000
1285.031, 6705.000
1286.102, 6740.000
1287.172, 6748.000
1288.242, 6707.000
1289.312, 6699.000
1290.381, 6657.000
1291.451, 6809.000
1292.520, 6676.000
1293.590, 6744.000
1294.659, 6625.000
1295.728, 6754.000
1296.797, 6742.000
1297.865, 6710.000
1298.934, 6820.000
1300.002, 6680.000
1301.070, 6643.000
1302.138, 6723.000
1303.206, 6674.000
1304.274, 6687.599
1305.341, 6751.000
1306.409, 6673.000
1307.476, 6698.000
1308.543, 6677.000
1309.610, 6755.000
1310.677, 6793.000
1311.744, 6794.000
1312.810, 6777.000
1313.877, 6756.000
1314.943, 6721.000
1316.009, 6670.000
1317.075, 6680.000
1318.140, 6657.000
1319.206, 6724.000
1320.272, 6812.000
1321.337, 6545.000
1322.402, 6721.000
1323.467, 6661.000
1324.532, 6769.000
1325.596, 6770.000
1326.661, 6749.000
1327.725, 6784.000
1328.790, 6773.000
1329.854, 6697.000
1330.918, 6692.000
1331.981, 6643.000
1333.045, 6662.000
1334.108, 6670.423
1335.172, 6716.000
1336.235, 6730.000
1337.298, 6770.584
1338.361, 6817.000
1339.423, 6801.000
1340.486, 6721.000
1341.548, 6665.000
1342.611, 6743.000
1343.673, 6774.000
1344.735, 6812.000
1345.796, 6868.000
1346.858, 6764.000
1347.919, 6965.000
1348.981, 6733.000
1350.042, 6804.000
1351.103, 6855.000
1352.164, 6878.000
1353.225, 6813.000
1354.285, 6822.000
1355.346, 6848.000
1356.406, 6990.000
1357.466, 7023.000
1358.526, 6920.000
1359.586, 6998.000
1360.645, 6938.000
1361.705, 6990.000
1362.764, 6900.000
1363.823, 6973.000
1364.882, 7037.000
1365.941, 6910.000
1367.000, 6890.000
1368.059, 6949.000
1369.117, 6816.000
1370.175, 6891.000
1371.233, 6910.000
1372.291, 6830.000
1373.349, 6789.000
1374.407, 6810.000
1375.464, 6846.000
1376.522, 6883.000
1377.579, 6839.000
1378.636, 6889.000
1379.693, 6961.000
1380.750, 6861.000
1381.806, 6863.000
1382.863, 6880.000
1383.919, 6899.000
1384.975, 6920.000
1386.031, 6935.000
1387.087, 6935.000
1388.143, 6931.000
1389.199, 6972.000
1390.254, 6906.000
1391.309, 6894.000
1392.364, 6987.000
1393.419, 6955.000
1394.474, 6954.000
1395.529, 7019.000
1396.583, 6943.000
1397.638, 6968.000
1398.692, 6954.000
1399.746, 6998.000
1400.800, 6840.000
1401.853, 6903.000
1402.907, 6921.000
1403.960, 6852.000
1405.014, 6972.000
1406.067, 6886.000
1407.120, 6869.000
1408.173, 6844.000
1409.225, 6810.000
1410.278, 6791.000
1411.330, 6802.974
1412.383, 6805.000
1413.435, 6856.000
1414.487, 6818.000
1415.538, 6866.000
1416.590, 6842.000
1417.641, 6881.000
1418.693, 6891.943
1419.744, 6900.000
1420.795, 6936.000
1421.846, 6933.000
1422.897, 6985.000
1423.947, 6983.000
1424.998, 7037.000
1426.048, 6982.000
1427.098, 7059.653
1428.148, 6983.000
1429.198, 7084.000
1430.247, 7099.000
1431.297, 6907.000
1432.346, 6907.000
1433.396, 6999.000
1434.445, 7052.000
1435.494, 7019.000
1436.542, 6956.000
1437.591, 7093.000
1438.639, 6984.000
1439.688, 7194.000
1440.736, 7132.000
1441.784, 7102.000
1442.832, 7169.000
1443.880, 7135.000
1444.927, 7131.000
1445.975, 7123.000
1447.022, 7107.806
1448.069, 7134.000
1449.116, 7090.000
1450.163, 7134.000
1451.209, 7126.000
1452.256, 7107.000
1453.302, 7130.000
1454.348, 7115.000
1455.394, 7154.000
1456.440, 7164.000
1457.486, 7176.000
1458.532, 7164.000
1459.577, 7161.000
1460.623, 7164.000
1461.668, 7065.000
1462.713, 7197.000
1463.758, 7156.000
1464.802, 7100.000
1465.847, 7010.000
1466.891, 7089.000
1467.936, 7101.000
1468.980, 7167.000
1470.024, 7158.432
1471.067, 7125.000
1472.111, 7143.000
1473.155, 7116.000
1474.198, 7132.000
1475.241, 7116.000
1476.284, 7169.000
1477.327, 7194.000
1478.370, 7109.000
1479.413, 7139.000
1480.455, 7223.000
1481.497, 7171.000
1482.540, 7192.685
1483.582, 7207.000
1484.624, 7110.000
1485.665, 7187.000
1486.707, 7056.000
1487.748, 7091.000
1488.790, 7104.000
1489.831, 7053.000
1490.872, 7079.000
1491.912, 7138.000
1492.953, 7180.000
1493.994, 7182.045
1495.034, 7201.665
1496.074, 7175.000
1497.114, 7147.000
1498.154, 7128.000
1499.194, 6998.000
1500.234, 7013.348
1501.273, 7006.000
1502.313, 7014.000
1503.352, 7038.000
1504.391, 7122.000
1505.430, 7069.000
1506.468, 7130.000
1507.507, 7187.000
1508.545, 7071.000
1509.584, 7081.000
1510.622, 7068.000
1511.660, 7147.000
1512.698, 7059.000
1513.735, 7066.000
1514.773, 6997.000
1515.810, 7133.000
1516.848, 7065.953
1517.885, 7140.639
1518.922, 7184.329
1519.958, 7198.685
1520.995, 7095.866
1522.032, 7144.358
1523.068, 7132.209
1524.104, 7117.573
1525.140, 7187.359
1526.176, 7101.579
1527.212, 7170.026
1528.248, 7176.909
1529.283, 7211.965
1530.318, 7040.000
1531.353, 7087.000
1532.389, 7125.000
1533.423, 7186.000
1534.458, 7052.000
1535.493, 7116.000
1536.527, 7149.000
1537.561, 7052.000
1538.596, 7091.000
1539.630, 7124.000
1540.663, 7214.000
1541.697, 7084.000
1542.731, 7142.000
1543.764, 7022.000
##END=



