##NAMES=Augelite
##RRUFFID=R050060
##IDEAL CHEMISTRY=Al_2_PO_4_(OH)_3_
##LOCALITY=Machacamarca, Potosi Department, Bolivia
##OWNER=RRUFF
##SOURCE=Rock Currier
##DESCRIPTION=Colorless prismatic crystals
##STATUS=The identification of this mineral has been confirmed by X-ray diffraction and chemical analysis
##URL=rruff.info/R050060
##MEASURED CHEMISTRY=Al_2.00_(P_1.00_O_4_)(OH)_3_; OH estimated by difference
##PIN_ID=L00994
##ORIENTATION=Laser parallel to -c* (0 0 -1). Fiducial mark perpendicular to laser is parallel to -a [-1 0 0]
147.4820, 2747.000
148.7200, 2901.000
149.9580, 3001.000
151.1960, 3201.000
152.4340, 3337.000
153.6710, 3557.000
154.9080, 3882.000
156.1450, 4161.000
157.3820, 4457.573
158.6190, 4685.000
159.8550, 5051.000
161.0910, 5306.000
162.3270, 5537.000
163.5630, 5740.000
164.7980, 5669.000
166.0340, 5492.000
167.2690, 5183.000
168.5040, 4884.000
169.7390, 4534.000
170.9730, 4177.000
172.2080, 3756.000
173.4420, 3542.000
174.6760, 3294.000
175.9100, 3195.000
177.1440, 3030.000
178.3770, 2870.000
179.6100, 2798.000
180.8430, 2682.000
182.0760, 2615.000
183.3090, 2561.351
184.5410, 2477.000
185.7740, 2489.000
187.0060, 2494.000
188.2380, 2488.000
189.4690, 2496.000
190.7010, 2498.000
191.9320, 2530.000
193.1630, 2553.000
194.3940, 2526.000
195.6250, 2475.000
196.8550, 2499.000
198.0860, 2440.000
199.3160, 2455.000
200.5460, 2496.000
201.7750, 2554.000
203.0050, 2404.000
204.2340, 2354.000
205.4630, 2317.000
206.6920, 2304.000
207.9210, 2304.000
209.1500, 2345.000
210.3780, 2401.000
211.6060, 2554.000
212.8340, 2670.000
214.0620, 2778.000
215.2900, 2884.000
216.5170, 3040.000
217.7440, 3206.000
218.9710, 3547.000
220.1980, 3911.000
221.4250, 4136.000
222.6510, 4330.000
223.8770, 4526.000
225.1040, 4632.000
226.3290, 4675.000
227.5550, 4552.000
228.7810, 4135.000
230.0060, 3614.000
231.2310, 3290.000
232.4560, 3069.000
233.6810, 2806.000
234.9050, 2567.000
236.1290, 2546.000
237.3540, 2517.000
238.5770, 2383.000
239.8010, 2404.000
241.0250, 2328.000
242.2480, 2320.000
243.4710, 2283.000
244.6940, 2251.000
245.9170, 2249.000
247.1400, 2212.000
248.3620, 2244.000
249.5840, 2272.000
250.8060, 2249.000
252.0280, 2248.000
253.2500, 2241.000
254.4710, 2240.000
255.6920, 2236.349
256.9140, 2211.000
258.1340, 2228.000
259.3550, 2226.583
260.5760, 2217.540
261.7960, 2242.000
263.0160, 2168.000
264.2360, 2090.000
265.4560, 2109.000
266.6750, 2019.000
267.8940, 2052.000
269.1140, 2106.000
270.3330, 2039.000
271.5510, 2025.000
272.7700, 2015.000
273.9880, 2054.000
275.2070, 2075.000
276.4250, 2125.000
277.6420, 2038.000
278.8600, 2107.000
280.0770, 2034.000
281.2950, 2049.000
282.5120, 2087.000
283.7290, 2091.000
284.9450, 2026.000
286.1620, 2072.000
287.3780, 2057.000
288.5940, 2086.000
289.8100, 2116.000
291.0260, 2134.000
292.2410, 2177.432
293.4570, 2203.000
294.6720, 2261.000
295.8870, 2278.000
297.1010, 2321.000
298.3160, 2235.000
299.5300, 2279.000
300.7450, 2201.000
301.9590, 2162.000
303.1730, 2164.000
304.3860, 2116.000
305.6000, 2124.000
306.8130, 2185.000
308.0260, 2181.000
309.2390, 2124.000
310.4510, 2204.000
311.6640, 2268.000
312.8760, 2215.000
314.0880, 2261.000
315.3000, 2240.000
316.5120, 2348.000
317.7240, 2346.000
318.9350, 2354.000
320.1460, 2489.000
321.3570, 2424.000
322.5680, 2461.000
323.7790, 2579.000
324.9890, 2552.000
326.1990, 2614.000
327.4090, 2690.000
328.6190, 2669.000
329.8290, 2713.000
331.0380, 2721.000
332.2480, 2654.000
333.4570, 2658.000
334.6660, 2590.000
335.8740, 2639.000
337.0830, 2561.000
338.2910, 2512.000
339.5000, 2514.000
340.7080, 2439.000
341.9150, 2429.000
343.1230, 2395.000
344.3300, 2351.000
345.5380, 2364.000
346.7450, 2360.000
347.9520, 2370.000
349.1580, 2350.000
350.3650, 2319.000
351.5710, 2313.000
352.7770, 2291.000
353.9830, 2322.000
355.1890, 2345.000
356.3940, 2296.000
357.6000, 2326.000
358.8050, 2393.000
360.0100, 2383.000
361.2150, 2434.000
362.4190, 2456.000
363.6240, 2515.000
364.8280, 2620.000
366.0320, 2642.000
367.2360, 2745.000
368.4400, 2764.000
369.6430, 2792.000
370.8460, 2739.000
372.0500, 2719.000
373.2530, 2566.000
374.4550, 2559.000
375.6580, 2427.000
376.8600, 2348.000
378.0620, 2290.000
379.2650, 2324.000
380.4660, 2317.000
381.6680, 2283.000
382.8690, 2272.000
384.0710, 2283.000
385.2720, 2286.000
386.4730, 2314.000
387.6730, 2318.000
388.8740, 2301.000
390.0740, 2414.000
391.2740, 2383.000
392.4740, 2411.000
393.6740, 2400.000
394.8740, 2494.000
396.0730, 2507.000
397.2730, 2604.000
398.4720, 2703.000
399.6700, 2791.000
400.8690, 2894.000
402.0680, 3066.971
403.2660, 3283.000
404.4640, 3461.000
405.6620, 3755.000
406.8600, 4010.000
408.0570, 4204.000
409.2550, 4345.000
410.4520, 4344.000
411.6490, 4302.000
412.8460, 4250.000
414.0430, 4028.000
415.2390, 4020.000
416.4350, 3957.000
417.6310, 3915.000
418.8270, 3903.000
420.0230, 3984.000
421.2190, 3877.000
422.4140, 4006.000
423.6090, 3867.000
424.8040, 3805.000
425.9990, 3693.000
427.1940, 3557.000
428.3880, 3560.000
429.5820, 3430.000
430.7760, 3323.000
431.9700, 3321.000
433.1640, 3237.000
434.3580, 3197.000
435.5510, 3196.000
436.7440, 3145.000
437.9370, 3157.000
439.1300, 3181.000
440.3230, 3112.000
441.5150, 3106.000
442.7070, 3117.000
443.8990, 3090.000
445.0910, 3007.000
446.2830, 3033.000
447.4750, 2974.000
448.6660, 3062.000
449.8570, 3086.000
451.0480, 3054.000
452.2390, 3060.000
453.4290, 3075.443
454.6200, 3124.000
455.8100, 3120.000
457.0000, 3154.000
458.1900, 3201.000
459.3800, 3318.000
460.5690, 3272.000
461.7590, 3347.000
462.9480, 3335.000
464.1370, 3290.000
465.3260, 3311.000
466.5140, 3291.000
467.7030, 3301.000
468.8910, 3395.000
470.0790, 3245.000
471.2670, 3329.000
472.4550, 3269.000
473.6420, 3243.000
474.8300, 3242.000
476.0170, 3134.000
477.2040, 3186.000
478.3900, 3115.000
479.5770, 3025.000
480.7640, 3039.000
481.9500, 2942.000
483.1360, 2960.000
484.3220, 2909.000
485.5080, 2858.000
486.6930, 2898.000
487.8780, 2915.000
489.0640, 2856.000
490.2490, 2832.000
491.4330, 2859.000
492.6180, 2845.000
493.8030, 2836.000
494.9870, 2827.000
496.1710, 2918.000
497.3550, 2813.000
498.5390, 2928.000
499.7220, 2919.643
500.9060, 2975.000
502.0890, 2965.000
503.2720, 2969.000
504.4550, 3002.000
505.6370, 3084.000
506.8200, 3157.000
508.0020, 3226.000
509.1840, 3300.000
510.3660, 3416.000
511.5480, 3462.000
512.7290, 3589.000
513.9110, 3746.000
515.0920, 3922.000
516.2730, 4004.000
517.4540, 4226.000
518.6350, 4332.000
519.8150, 4494.000
520.9960, 4682.000
522.1760, 4844.000
523.3560, 4983.000
524.5350, 5024.000
525.7150, 5077.000
526.8950, 5027.000
528.0740, 4996.000
529.2530, 4992.000
530.4320, 4937.000
531.6100, 4752.000
532.7890, 4551.000
533.9670, 4470.000
535.1460, 4389.000
536.3240, 4167.000
537.5010, 4003.000
538.6790, 3916.000
539.8570, 3781.000
541.0340, 3689.000
542.2110, 3558.000
543.3880, 3562.000
544.5650, 3436.000
545.7410, 3421.000
546.9180, 3316.000
548.0940, 3272.000
549.2700, 3280.000
550.4460, 3246.000
551.6210, 3223.000
552.7970, 3207.599
553.9720, 3164.000
555.1480, 3154.000
556.3230, 3145.000
557.4970, 3103.000
558.6720, 3038.000
559.8460, 3063.000
561.0210, 3010.000
562.1950, 3033.000
563.3690, 3003.000
564.5420, 3001.000
565.7160, 2909.000
566.8890, 2953.000
568.0630, 2887.000
569.2360, 2930.000
570.4090, 2866.000
571.5810, 2889.000
572.7540, 2869.000
573.9260, 2809.000
575.0980, 2787.000
576.2700, 2769.286
577.4420, 2759.000
578.6140, 2758.000
579.7850, 2770.000
580.9560, 2792.000
582.1270, 2794.000
583.2980, 2774.000
584.4690, 2765.546
585.6400, 2708.000
586.8100, 2731.000
587.9800, 2706.000
589.1500, 2720.000
590.3200, 2733.000
591.4900, 2770.000
592.6590, 2743.000
593.8290, 2792.000
594.9980, 2707.000
596.1670, 2816.000
597.3360, 2826.000
598.5040, 2810.000
599.6730, 2883.000
600.8410, 2868.000
602.0090, 2828.000
603.1770, 2906.000
604.3450, 2946.000
605.5130, 2904.000
606.6800, 3009.000
607.8470, 2991.000
609.0140, 3079.000
610.1810, 3143.000
611.3480, 3175.000
612.5140, 3232.000
613.6810, 3236.000
614.8470, 3347.000
616.0130, 3449.000
617.1790, 3467.000
618.3440, 3445.000
619.5100, 3634.000
620.6750, 3723.000
621.8400, 3862.000
623.0050, 3990.000
624.1700, 4179.000
625.3350, 4421.000
626.4990, 4768.000
627.6640, 5015.000
628.8280, 5513.000
629.9920, 6029.000
631.1550, 6622.000
632.3190, 7327.000
633.4820, 8006.000
634.6460, 8750.000
635.8090, 9409.000
636.9710, 9475.000
638.1340, 9496.000
639.2970, 9082.000
640.4590, 8286.000
641.6210, 7461.000
642.7830, 6655.000
643.9450, 6093.000
645.1070, 5415.000
646.2680, 4923.000
647.4300, 4629.000
648.5910, 4331.000
649.7520, 4098.000
650.9130, 3821.000
652.0730, 3631.000
653.2340, 3577.000
654.3940, 3441.000
655.5540, 3455.000
656.7140, 3301.000
657.8740, 3263.000
659.0330, 3193.000
660.1930, 3138.000
661.3520, 3071.000
662.5110, 3035.000
663.6700, 3001.000
664.8290, 2952.000
665.9870, 2949.000
667.1460, 2899.000
668.3040, 2932.000
669.4620, 2899.000
670.6200, 2974.000
671.7770, 2824.000
672.9350, 2810.000
674.0920, 2858.000
675.2500, 2802.000
676.4070, 2789.000
677.5630, 2802.000
678.7200, 2818.000
679.8770, 2746.000
681.0330, 2767.000
682.1890, 2800.000
683.3450, 2742.000
684.5010, 2767.000
685.6560, 2738.000
686.8120, 2759.000
687.9670, 2727.000
689.1220, 2714.000
690.2770, 2717.000
691.4320, 2748.000
692.5870, 2734.000
693.7410, 2750.000
694.8950, 2693.000
696.0490, 2742.000
697.2030, 2720.000
698.3570, 2719.765
699.5110, 2742.000
700.6640, 2714.000
701.8170, 2768.000
702.9700, 2746.000
704.1230, 2790.000
705.2760, 2765.000
706.4290, 2746.000
707.5810, 2751.000
708.7330, 2739.466
709.8850, 2783.000
711.0370, 2753.000
712.1890, 2783.000
713.3400, 2820.000
714.4920, 2910.000
715.6430, 2846.000
716.7940, 2866.000
717.9450, 2863.000
719.0960, 2792.000
720.2460, 2880.000
721.3960, 2927.000
722.5470, 2930.000
723.6970, 2862.000
724.8460, 2828.000
725.9960, 2862.000
727.1460, 2890.000
728.2950, 2884.000
729.4440, 2914.000
730.5930, 2951.000
731.7420, 2899.000
732.8910, 2899.000
734.0390, 2927.000
735.1870, 2969.000
736.3360, 2934.000
737.4840, 2955.000
738.6310, 3089.000
739.7790, 3031.000
740.9260, 3078.000
742.0740, 3155.000
743.2210, 3162.000
744.3680, 3157.136
745.5150, 3128.000
746.6610, 3085.000
747.8080, 3021.000
748.9540, 2961.000
750.1000, 2943.000
751.2460, 2925.000
752.3920, 2947.000
753.5380, 2901.000
754.6830, 2879.000
755.8280, 2889.000
756.9730, 2793.000
758.1180, 2875.000
759.2630, 2802.000
760.4080, 2848.000
761.5520, 2845.000
762.6960, 2894.000
763.8410, 2766.000
764.9840, 2863.000
766.1280, 2827.000
767.2720, 2825.000
768.4150, 2858.000
769.5590, 2864.000
770.7020, 2868.000
771.8450, 2836.000
772.9870, 2830.000
774.1300, 2905.000
775.2720, 2799.000
776.4150, 2856.000
777.5570, 2888.000
778.6990, 2813.000
779.8400, 2855.000
780.9820, 2902.000
782.1230, 2874.000
783.2650, 2865.000
784.4060, 2858.000
785.5470, 2809.000
786.6870, 2877.000
787.8280, 2895.000
788.9680, 2820.000
790.1090, 2878.000
791.2490, 2914.000
792.3890, 2906.000
793.5280, 2924.000
794.6680, 2865.000
795.8070, 2921.000
796.9470, 2894.000
798.0860, 2869.000
799.2250, 2986.000
800.3630, 2966.000
801.5020, 2930.000
802.6410, 2929.000
803.7790, 2944.000
804.9170, 2943.000
806.0550, 2927.000
807.1930, 2943.000
808.3300, 2937.000
809.4680, 2899.000
810.6050, 2951.000
811.7420, 2968.000
812.8790, 2945.000
814.0160, 2971.000
815.1520, 2983.000
816.2890, 2966.000
817.4250, 3016.000
818.5610, 2942.000
819.6970, 2984.000
820.8330, 3035.000
821.9680, 2976.000
823.1040, 3009.000
824.2390, 3074.000
825.3740, 3057.000
826.5090, 3081.259
827.6440, 3069.000
828.7790, 3066.000
829.9130, 3111.000
831.0470, 3077.000
832.1810, 3126.000
833.3150, 3047.000
834.4490, 3133.000
835.5830, 3066.000
836.7160, 3131.000
837.8500, 3134.000
838.9830, 3148.000
840.1160, 3172.000
841.2480, 3205.000
842.3810, 3221.772
843.5140, 3264.000
844.6460, 3268.000
845.7780, 3271.000
846.9100, 3295.000
848.0420, 3268.000
849.1740, 3282.000
850.3050, 3358.000
851.4360, 3368.000
852.5680, 3491.000
853.6990, 3385.000
854.8290, 3505.000
855.9600, 3426.000
857.0910, 3507.000
858.2210, 3624.000
859.3510, 3483.000
860.4810, 3543.000
861.6110, 3495.000
862.7410, 3526.000
863.8700, 3485.000
865.0000, 3527.000
866.1290, 3533.000
867.2580, 3481.000
868.3870, 3453.000
869.5150, 3418.000
870.6440, 3424.000
871.7720, 3432.000
872.9000, 3446.000
874.0290, 3385.000
875.1560, 3360.000
876.2840, 3411.000
877.4120, 3357.000
878.5390, 3352.000
879.6660, 3324.000
880.7930, 3374.000
881.9200, 3380.000
883.0470, 3423.000
884.1740, 3411.000
885.3000, 3429.905
886.4260, 3421.000
887.5530, 3435.000
888.6780, 3456.000
889.8040, 3437.000
890.9300, 3537.000
892.0550, 3578.000
893.1810, 3594.000
894.3060, 3657.000
895.4310, 3700.000
896.5560, 3601.000
897.6800, 3683.000
898.8050, 3671.000
899.9290, 3567.000
901.0530, 3482.000
902.1770, 3446.000
903.3010, 3469.000
904.4250, 3445.000
905.5480, 3401.000
906.6720, 3339.000
907.7950, 3357.000
908.9180, 3435.000
910.0410, 3325.000
911.1630, 3326.000
912.2860, 3372.000
913.4080, 3303.000
914.5300, 3349.000
915.6530, 3343.000
916.7740, 3262.000
917.8960, 3258.000
919.0180, 3280.000
920.1390, 3311.000
921.2600, 3282.921
922.3820, 3292.000
923.5020, 3263.000
924.6230, 3307.000
925.7440, 3356.000
926.8640, 3287.000
927.9850, 3312.000
929.1050, 3271.000
930.2250, 3289.000
931.3450, 3325.000
932.4640, 3290.000
933.5840, 3305.000
934.7030, 3276.000
935.8220, 3273.000
936.9410, 3286.838
938.0600, 3301.000
939.1790, 3302.000
940.2970, 3306.633
941.4160, 3319.000
942.5340, 3306.000
943.6520, 3316.000
944.7700, 3321.000
945.8870, 3325.171
947.0050, 3331.123
948.1220, 3350.000
949.2400, 3314.570
950.3570, 3349.896
951.4740, 3371.897
952.5900, 3381.284
953.7070, 3340.299
954.8240, 3364.364
955.9400, 3362.356
957.0560, 3359.279
958.1720, 3392.496
959.2880, 3358.834
960.4030, 3391.470
961.5190, 3397.644
962.6340, 3415.927
963.7490, 3407.980
964.8640, 3408.135
965.9790, 3434.528
967.0940, 3446.392
968.2080, 3435.421
969.3230, 3404.000
970.4370, 3418.000
971.5510, 3425.000
972.6650, 3407.000
973.7790, 3433.000
974.8920, 3447.000
976.0060, 3423.000
977.1190, 3402.000
978.2320, 3414.000
979.3450, 3431.000
980.4580, 3461.000
981.5710, 3419.000
982.6830, 3409.000
983.7950, 3456.000
984.9080, 3501.000
986.0200, 3473.000
987.1310, 3486.000
988.2430, 3484.000
989.3550, 3454.756
990.4660, 3495.620
991.5770, 3523.158
992.6880, 3538.087
993.7990, 3502.641
994.9100, 3532.244
996.0200, 3535.769
997.1310, 3538.234
998.2410, 3596.000
999.3510, 3653.000
1000.461, 3666.239
1001.571, 3738.000
1002.681, 3722.000
1003.790, 3720.000
1004.899, 3756.000
1006.009, 3691.000
1007.118, 3679.000
1008.226, 3706.000
1009.335, 3713.000
1010.444, 3639.000
1011.552, 3740.000
1012.660, 3656.000
1013.768, 3750.000
1014.876, 3782.000
1015.984, 3738.000
1017.092, 3730.000
1018.199, 3670.000
1019.306, 3771.000
1020.413, 3760.000
1021.520, 3777.000
1022.627, 3684.000
1023.734, 3773.000
1024.840, 3744.000
1025.947, 3710.000
1027.053, 3750.000
1028.159, 3712.000
1029.265, 3758.000
1030.370, 3711.000
1031.476, 3768.000
1032.581, 3758.000
1033.687, 3753.000
1034.792, 3751.000
1035.897, 3824.000
1037.002, 3868.000
1038.106, 3829.000
1039.211, 3795.000
1040.315, 3881.000
1041.419, 3846.000
1042.523, 3874.000
1043.627, 3895.000
1044.731, 3909.000
1045.834, 3877.000
1046.938, 4015.000
1048.041, 3936.000
1049.144, 4008.000
1050.247, 4006.000
1051.349, 3990.000
1052.452, 4115.000
1053.555, 4117.000
1054.657, 4125.000
1055.759, 4151.000
1056.861, 4267.000
1057.963, 4308.000
1059.064, 4346.000
1060.166, 4402.000
1061.267, 4362.000
1062.368, 4329.000
1063.470, 4297.000
1064.570, 4209.000
1065.671, 4196.000
1066.772, 4230.000
1067.872, 4153.000
1068.972, 4134.000
1070.073, 4150.000
1071.173, 4126.000
1072.272, 4196.000
1073.372, 4180.000
1074.472, 4222.000
1075.571, 4132.000
1076.670, 4234.000
1077.769, 4171.000
1078.868, 4318.000
1079.967, 4327.000
1081.065, 4359.000
1082.164, 4383.000
1083.262, 4445.000
1084.360, 4478.000
1085.458, 4530.000
1086.556, 4640.000
1087.654, 4763.000
1088.751, 4695.000
1089.848, 4825.000
1090.946, 4931.000
1092.043, 5152.000
1093.139, 5288.000
1094.236, 5447.000
1095.333, 5544.000
1096.429, 5787.000
1097.525, 5947.000
1098.622, 6259.000
1099.718, 6672.000
1100.813, 7009.000
1101.909, 7469.000
1103.005, 7973.000
1104.100, 8369.000
1105.195, 8921.000
1106.290, 9350.000
1107.385, 9502.000
1108.480, 9702.949
1109.574, 9799.000
1110.669, 9610.000
1111.763, 9297.000
1112.857, 8900.243
1113.951, 8406.000
1115.045, 7951.000
1116.139, 7525.000
1117.232, 7133.000
1118.326, 6780.607
1119.419, 6427.000
1120.512, 6166.000
1121.605, 5921.000
1122.697, 5678.000
1123.790, 5546.000
1124.883, 5607.000
1125.975, 5346.000
1127.067, 5324.000
1128.159, 5304.000
1129.251, 5180.000
1130.342, 5122.000
1131.434, 4974.000
1132.525, 5062.000
1133.617, 5024.000
1134.708, 5032.000
1135.799, 4943.000
1136.889, 4893.000
1137.980, 4898.000
1139.071, 4853.000
1140.161, 4866.000
1141.251, 4868.000
1142.341, 4845.000
1143.431, 4864.000
1144.521, 4883.000
1145.610, 4879.436
1146.700, 4886.168
1147.789, 4904.000
1148.878, 4883.000
1149.967, 4913.000
1151.056, 4921.000
1152.144, 4859.000
1153.233, 4878.000
1154.321, 4840.000
1155.409, 4937.000
1156.498, 5009.000
1157.585, 5024.000
1158.673, 5091.000
1159.761, 5116.000
1160.848, 5068.000
1161.936, 5078.000
1163.023, 5102.000
1164.110, 4939.000
1165.197, 5033.000
1166.283, 4909.000
1167.370, 4818.000
1168.456, 4711.000
1169.542, 4660.000
1170.629, 4551.000
1171.714, 4449.000
1172.800, 4441.000
1173.886, 4381.000
1174.971, 4377.000
1176.057, 4301.000
1177.142, 4261.000
1178.227, 4275.000
1179.312, 4236.314
1180.397, 4229.305
1181.481, 4212.067
1182.566, 4185.253
1183.650, 4111.159
1184.734, 4105.177
1185.818, 4076.189
1186.902, 4049.194
1187.986, 4061.555
1189.069, 4010.110
1190.153, 4028.018
1191.236, 4022.525
1192.319, 4032.203
1193.402, 4018.708
1194.485, 4016.372
1195.567, 3952.000
1196.650, 3943.000
1197.732, 3962.000
1198.814, 3954.000
1199.896, 3982.000
1200.978, 3990.000
1202.060, 3982.000
1203.142, 4009.000
1204.223, 3943.000
1205.304, 3880.000
1206.386, 3866.000
1207.467, 3863.000
1208.547, 3933.000
1209.628, 3902.000
1210.709, 3961.000
1211.789, 3968.000
1212.869, 3863.000
1213.950, 3908.000
1215.030, 3897.000
1216.109, 3938.000
1217.189, 3946.000
1218.269, 3951.000
1219.348, 3901.000
1220.427, 3910.000
1221.506, 3890.000
1222.585, 3913.000
1223.664, 3967.000
1224.743, 4000.000
1225.821, 3942.000
1226.899, 3876.000
1227.978, 4004.000
1229.056, 4008.000
1230.134, 3924.000
1231.211, 4001.000
1232.289, 3963.000
1233.366, 3996.000
1234.444, 4025.000
1235.521, 3922.000
1236.598, 3989.000
1237.675, 3953.194
1238.751, 3994.000
1239.828, 3967.000
1240.904, 3942.000
1241.981, 4013.000
1243.057, 4038.000
1244.133, 3959.000
1245.209, 4041.000
1246.284, 3969.000
1247.360, 4021.000
1248.435, 3984.000
1249.510, 4054.000
1250.585, 4009.000
1251.660, 4013.000
1252.735, 4062.000
1253.810, 3930.000
1254.884, 3947.000
1255.959, 3969.000
1257.033, 4087.000
1258.107, 4008.000
1259.181, 4031.000
1260.255, 4071.000
1261.328, 4056.000
1262.402, 4060.000
1263.475, 3988.000
1264.548, 3996.438
1265.621, 4154.000
1266.694, 3993.000
1267.767, 4055.000
1268.840, 4107.000
1269.912, 4043.000
1270.984, 4115.000
1272.056, 4153.000
1273.129, 3980.000
1274.200, 4097.000
1275.272, 4034.000
1276.344, 4030.000
1277.415, 4037.000
1278.486, 4108.000
1279.558, 4085.000
1280.629, 4111.622
1281.699, 4120.000
1282.770, 4117.000
1283.841, 4079.000
1284.911, 4057.000
1285.981, 4042.000
1287.051, 4033.000
1288.121, 4084.000
1289.191, 4049.000
1290.261, 4118.000
1291.330, 4039.000
1292.400, 4151.000
1293.469, 4060.000
1294.538, 4122.000
1295.607, 4088.000
1296.676, 4151.000
1297.745, 4068.000
1298.813, 4180.000
1299.881, 4110.000
1300.950, 4041.000
1302.018, 4149.000
1303.086, 4113.000
1304.154, 4047.000
1305.221, 4098.000
1306.289, 4202.000
1307.356, 4198.000
1308.423, 4134.000
1309.490, 4129.000
1310.557, 4109.000
1311.624, 4112.606
1312.691, 4183.000
1313.757, 4178.000
1314.823, 4112.000
1315.890, 4197.000
1316.956, 4156.000
1318.022, 4189.000
1319.087, 4184.000
1320.153, 4152.000
1321.219, 4110.000
1322.284, 4167.000
1323.349, 4210.000
1324.414, 4116.000
1325.479, 4222.000
1326.544, 4184.000
1327.608, 4170.000
1328.673, 4209.000
1329.737, 4193.000
1330.801, 4245.000
1331.865, 4177.000
1332.929, 4196.000
1333.993, 4244.000
1335.057, 4158.000
1336.120, 4176.000
1337.183, 4214.000
1338.247, 4220.000
1339.310, 4223.262
1340.373, 4209.000
1341.435, 4216.000
1342.498, 4188.000
1343.560, 4194.000
1344.623, 4178.000
1345.685, 4200.000
1346.747, 4179.000
1347.809, 4158.000
1348.871, 4236.000
1349.932, 4168.000
1350.994, 4195.000
1352.055, 4246.000
1353.116, 4269.000
1354.177, 4191.000
1355.238, 4248.000
1356.299, 4221.000
1357.359, 4207.000
1358.420, 4253.000
1359.480, 4263.000
1360.540, 4287.000
1361.600, 4285.000
1362.660, 4212.000
1363.720, 4162.000
1364.780, 4228.000
1365.839, 4311.000
1366.898, 4289.000
1367.958, 4260.000
1369.017, 4263.000
1370.076, 4273.000
1371.134, 4304.000
1372.193, 4279.000
1373.251, 4290.000
1374.310, 4215.000
1375.368, 4236.000
1376.426, 4253.000
1377.484, 4300.000
1378.542, 4393.000
1379.599, 4252.000
1380.657, 4236.000
1381.714, 4277.000
1382.771, 4310.000
1383.828, 4223.000
1384.885, 4231.000
1385.942, 4315.000
1386.999, 4231.000
1388.055, 4324.000
1389.111, 4263.000
1390.168, 4325.000
1391.224, 4371.000
1392.280, 4370.000
1393.335, 4350.000
1394.391, 4360.509
1395.446, 4313.000
1396.502, 4318.000
1397.557, 4323.000
1398.612, 4258.000
1399.667, 4344.000
1400.722, 4232.000
1401.776, 4367.000
1402.831, 4354.000
1403.885, 4350.000
1404.939, 4319.000
1405.994, 4394.000
1407.048, 4350.000
1408.101, 4393.000
1409.155, 4366.000
1410.209, 4329.000
1411.262, 4377.000
1412.315, 4317.000
1413.368, 4327.000
1414.421, 4375.000
1415.474, 4345.000
1416.527, 4343.000
1417.579, 4354.000
1418.632, 4293.000
1419.684, 4382.000
1420.736, 4328.000
1421.788, 4325.000
1422.840, 4341.000
1423.891, 4336.000
1424.943, 4449.000
1425.994, 4391.000
1427.046, 4337.000
1428.097, 4296.000
1429.148, 4428.000
1430.199, 4368.000
1431.249, 4407.000
1432.300, 4462.000
1433.350, 4343.000
1434.401, 4455.000
1435.451, 4448.000
1436.501, 4465.956
1437.551, 4490.077
1438.601, 4538.000
1439.650, 4480.000
1440.700, 4495.000
1441.749, 4480.000
1442.798, 4526.000
1443.847, 4510.000
1444.896, 4536.000
1445.945, 4537.769
1446.993, 4552.000
1448.042, 4537.000
1449.090, 4530.739
1450.138, 4533.000
1451.187, 4531.000
1452.234, 4557.000
1453.282, 4584.000
1454.330, 4539.000
1455.377, 4627.000
1456.425, 4558.000
1457.472, 4624.000
1458.519, 4548.000
1459.566, 4562.000
1460.613, 4558.000
1461.660, 4637.000
1462.706, 4536.000
1463.752, 4578.000
1464.799, 4538.000
1465.845, 4552.000
1466.891, 4601.000
1467.937, 4500.000
1468.982, 4562.000
1470.028, 4548.000
1471.073, 4545.000
1472.119, 4492.000
1473.164, 4494.277
1474.209, 4545.000
1475.254, 4497.000
1476.299, 4472.000
1477.343, 4529.000
1478.388, 4503.000
1479.432, 4500.000
1480.476, 4517.676
1481.520, 4561.000
1482.564, 4510.000
1483.608, 4557.000
1484.651, 4523.000
1485.695, 4511.000
1486.738, 4592.000
1487.782, 4461.000
1488.825, 4564.000
1489.868, 4606.000
1490.910, 4560.000
1491.953, 4516.000
1492.996, 4535.000
1494.038, 4591.000
1495.080, 4557.000
1496.122, 4540.000
1497.164, 4475.000
1498.206, 4521.000
1499.248, 4540.000
1500.290, 4478.000
1501.331, 4555.000
1502.372, 4471.000
1503.413, 4575.000
1504.455, 4532.000
1505.495, 4494.000
1506.536, 4571.000
1507.577, 4564.000
1508.617, 4572.000
1509.658, 4578.000
1510.698, 4546.000
1511.738, 4571.000
1512.778, 4595.000
1513.818, 4565.000
1514.857, 4634.000
1515.897, 4612.000
1516.936, 4615.000
1517.975, 4565.000
1519.015, 4606.000
1520.054, 4592.000
1521.092, 4656.000
1522.131, 4609.000
1523.170, 4657.000
1524.208, 4584.812
1525.246, 4617.754
1526.285, 4637.373
1527.323, 4644.379
1528.361, 4601.011
1529.398, 4622.689
1530.436, 4618.301
1531.473, 4612.842
1532.511, 4643.679
1533.548, 4607.634
1534.585, 4637.893
1535.622, 4641.685
1536.659, 4657.590
1537.695, 4647.262
1538.732, 4645.039
1539.768, 4669.051
1540.805, 4678.538
1541.841, 4665.191
1542.877, 4681.864
1543.913, 4644.901
1544.948, 4655.001
1545.984, 4685.411
1547.019, 4673.381
1548.055, 4690.533
1549.090, 4696.569
1550.125, 4652.100
1551.160, 4695.465
1552.195, 4741.000
1553.229, 4715.000
1554.264, 4668.000
1555.298, 4678.000
1556.332, 4642.000
1557.366, 4743.000
1558.400, 4648.000
1559.434, 4729.000
1560.468, 4705.000
1561.502, 4713.000
1562.535, 4809.000
##END=



