##NAMES=Augelite
##RRUFFID=R050060
##IDEAL CHEMISTRY=Al_2_PO_4_(OH)_3_
##LOCALITY=Machacamarca, Potosi Department, Bolivia
##OWNER=RRUFF
##SOURCE=Rock Currier
##DESCRIPTION=Colorless prismatic crystals
##STATUS=The identification of this mineral has been confirmed by X-ray diffraction and chemical analysis
##URL=rruff.info/R050060
##MEASURED CHEMISTRY=Al_2.00_(P_1.00_O_4_)(OH)_3_; OH estimated by difference
##PIN_ID=L00994
##ORIENTATION=Laser parallel to -c* (0 0 -1). Fiducial mark perpendicular to laser is parallel to -a [-1 0 0]
140.0490, 2726.000
141.2890, 2816.000
142.5280, 2834.000
143.7670, 2864.000
145.0050, 2895.000
146.2440, 3016.000
147.4820, 3140.000
148.7200, 3226.000
149.9580, 3502.000
151.1960, 3687.000
152.4340, 4009.000
153.6710, 4289.266
154.9080, 4663.000
156.1450, 4965.000
157.3820, 5305.000
158.6190, 5753.000
159.8550, 6196.000
161.0910, 6440.000
162.3270, 6914.000
163.5630, 6962.000
164.7980, 6719.000
166.0340, 6544.000
167.2690, 6096.000
168.5040, 5613.000
169.7390, 5280.000
170.9730, 4746.000
172.2080, 4416.000
173.4420, 4121.000
174.6760, 3819.000
175.9100, 3636.000
177.1440, 3398.000
178.3770, 3294.000
179.6100, 3220.000
180.8430, 3115.000
182.0760, 3043.724
183.3090, 2978.000
184.5410, 2913.000
185.7740, 2855.000
187.0060, 2821.000
188.2380, 2804.582
189.4690, 2893.000
190.7010, 2829.000
191.9320, 2850.000
193.1630, 2916.000
194.3940, 2824.000
195.6250, 2840.000
196.8550, 2738.000
198.0860, 2759.000
199.3160, 2849.000
200.5460, 2821.000
201.7750, 2765.000
203.0050, 2709.000
204.2340, 2597.000
205.4630, 2510.000
206.6920, 2490.000
207.9210, 2517.000
209.1500, 2439.000
210.3780, 2500.000
211.6060, 2534.000
212.8340, 2541.000
214.0620, 2589.000
215.2900, 2637.000
216.5170, 2687.000
217.7440, 2714.000
218.9710, 2876.000
220.1980, 2910.000
221.4250, 3100.000
222.6510, 3362.000
223.8770, 3602.000
225.1040, 3986.000
226.3290, 4207.000
227.5550, 3933.000
228.7810, 3669.000
230.0060, 3309.000
231.2310, 3056.000
232.4560, 2933.000
233.6810, 2736.000
234.9050, 2666.000
236.1290, 2567.000
237.3540, 2548.000
238.5770, 2614.000
239.8010, 2537.000
241.0250, 2564.000
242.2480, 2524.000
243.4710, 2483.000
244.6940, 2503.000
245.9170, 2527.000
247.1400, 2541.000
248.3620, 2577.000
249.5840, 2520.000
250.8060, 2472.000
252.0280, 2485.000
253.2500, 2611.000
254.4710, 2555.000
255.6920, 2541.000
256.9140, 2476.000
258.1340, 2571.000
259.3550, 2574.807
260.5760, 2560.403
261.7960, 2641.000
263.0160, 2548.000
264.2360, 2476.000
265.4560, 2475.000
266.6750, 2452.000
267.8940, 2449.000
269.1140, 2479.000
270.3330, 2441.000
271.5510, 2450.000
272.7700, 2491.000
273.9880, 2532.000
275.2070, 2519.896
276.4250, 2516.000
277.6420, 2487.000
278.8600, 2502.000
280.0770, 2452.000
281.2950, 2437.000
282.5120, 2493.000
283.7290, 2430.000
284.9450, 2488.000
286.1620, 2411.000
287.3780, 2404.000
288.5940, 2448.000
289.8100, 2403.000
291.0260, 2431.000
292.2410, 2407.000
293.4570, 2413.000
294.6720, 2463.000
295.8870, 2503.000
297.1010, 2478.000
298.3160, 2476.000
299.5300, 2490.000
300.7450, 2450.000
301.9590, 2451.000
303.1730, 2426.000
304.3860, 2439.000
305.6000, 2432.000
306.8130, 2469.000
308.0260, 2452.000
309.2390, 2516.000
310.4510, 2498.000
311.6640, 2483.000
312.8760, 2444.000
314.0880, 2446.000
315.3000, 2470.000
316.5120, 2518.000
317.7240, 2520.000
318.9350, 2457.000
320.1460, 2551.000
321.3570, 2443.000
322.5680, 2505.000
323.7790, 2468.000
324.9890, 2541.000
326.1990, 2534.000
327.4090, 2516.000
328.6190, 2497.000
329.8290, 2524.000
331.0380, 2530.000
332.2480, 2510.000
333.4570, 2530.000
334.6660, 2521.630
335.8740, 2548.000
337.0830, 2521.000
338.2910, 2525.000
339.5000, 2527.000
340.7080, 2540.000
341.9150, 2563.000
343.1230, 2582.000
344.3300, 2509.000
345.5380, 2518.000
346.7450, 2554.000
347.9520, 2525.000
349.1580, 2584.000
350.3650, 2583.000
351.5710, 2551.000
352.7770, 2622.000
353.9830, 2591.000
355.1890, 2518.000
356.3940, 2490.000
357.6000, 2553.000
358.8050, 2582.000
360.0100, 2591.000
361.2150, 2639.000
362.4190, 2566.000
363.6240, 2606.000
364.8280, 2591.000
366.0320, 2556.000
367.2360, 2571.000
368.4400, 2629.000
369.6430, 2597.000
370.8460, 2634.000
372.0500, 2638.000
373.2530, 2661.000
374.4550, 2651.000
375.6580, 2683.000
376.8600, 2674.507
378.0620, 2670.000
379.2650, 2675.000
380.4660, 2702.000
381.6680, 2722.000
382.8690, 2742.000
384.0710, 2760.598
385.2720, 2768.000
386.4730, 2784.000
387.6730, 2813.000
388.8740, 2807.000
390.0740, 2901.000
391.2740, 2894.000
392.4740, 2917.000
393.6740, 3012.000
394.8740, 3029.000
396.0730, 3116.000
397.2730, 3255.000
398.4720, 3356.000
399.6700, 3553.000
400.8690, 3873.000
402.0680, 4092.000
403.2660, 4495.000
404.4640, 4787.000
405.6620, 5300.000
406.8600, 5685.000
408.0570, 5919.000
409.2550, 5915.000
410.4520, 5713.000
411.6490, 5564.000
412.8460, 5210.000
414.0430, 4914.000
415.2390, 4585.000
416.4350, 4414.000
417.6310, 4201.000
418.8270, 4007.000
420.0230, 3896.000
421.2190, 3823.000
422.4140, 3746.000
423.6090, 3688.000
424.8040, 3641.000
425.9990, 3618.000
427.1940, 3613.000
428.3880, 3560.000
429.5820, 3610.000
430.7760, 3541.000
431.9700, 3592.000
433.1640, 3575.000
434.3580, 3534.000
435.5510, 3563.000
436.7440, 3566.000
437.9370, 3547.000
439.1300, 3542.000
440.3230, 3545.000
441.5150, 3487.000
442.7070, 3461.000
443.8990, 3462.000
445.0910, 3397.000
446.2830, 3351.000
447.4750, 3408.000
448.6660, 3307.000
449.8570, 3365.000
451.0480, 3323.000
452.2390, 3315.000
453.4290, 3428.000
454.6200, 3504.000
455.8100, 3591.000
457.0000, 3658.000
458.1900, 3763.000
459.3800, 3887.000
460.5690, 4044.000
461.7590, 4170.000
462.9480, 4301.000
464.1370, 4399.008
465.3260, 4492.097
466.5140, 4562.000
467.7030, 4621.000
468.8910, 4681.000
470.0790, 4687.000
471.2670, 4622.000
472.4550, 4522.000
473.6420, 4389.000
474.8300, 4261.000
476.0170, 4159.000
477.2040, 3877.000
478.3900, 3790.000
479.5770, 3668.000
480.7640, 3513.000
481.9500, 3485.000
483.1360, 3444.000
484.3220, 3365.000
485.5080, 3290.000
486.6930, 3212.000
487.8780, 3188.000
489.0640, 3111.000
490.2490, 3212.000
491.4330, 3105.000
492.6180, 3259.000
493.8030, 3189.000
494.9870, 3211.000
496.1710, 3213.000
497.3550, 3236.000
498.5390, 3274.000
499.7220, 3394.000
500.9060, 3483.000
502.0890, 3550.271
503.2720, 3601.000
504.4550, 3713.000
505.6370, 3797.000
506.8200, 3900.000
508.0020, 4041.000
509.1840, 4196.000
510.3660, 4311.000
511.5480, 4573.000
512.7290, 4742.000
513.9110, 5107.000
515.0920, 5395.000
516.2730, 5666.000
517.4540, 5895.000
518.6350, 6269.000
519.8150, 6695.000
520.9960, 6985.000
522.1760, 7275.000
523.3560, 7442.000
524.5350, 7650.000
525.7150, 7726.000
526.8950, 7791.000
528.0740, 7726.000
529.2530, 7452.000
530.4320, 7231.000
531.6100, 7114.000
532.7890, 6827.000
533.9670, 6540.000
535.1460, 6266.000
536.3240, 5981.000
537.5010, 5700.000
538.6790, 5524.000
539.8570, 5275.000
541.0340, 5085.000
542.2110, 4913.000
543.3880, 4761.000
544.5650, 4632.520
545.7410, 4548.000
546.9180, 4411.000
548.0940, 4359.000
549.2700, 4248.000
550.4460, 4171.000
551.6210, 4150.000
552.7970, 3991.000
553.9720, 3963.000
555.1480, 3956.000
556.3230, 3920.000
557.4970, 3852.000
558.6720, 3766.000
559.8460, 3692.000
561.0210, 3652.528
562.1950, 3624.000
563.3690, 3571.000
564.5420, 3534.000
565.7160, 3469.000
566.8890, 3450.000
568.0630, 3536.000
569.2360, 3453.000
570.4090, 3418.000
571.5810, 3401.000
572.7540, 3321.000
573.9260, 3420.000
575.0980, 3246.000
576.2700, 3289.000
577.4420, 3314.000
578.6140, 3257.000
579.7850, 3287.000
580.9560, 3236.000
582.1270, 3262.000
583.2980, 3320.000
584.4690, 3269.000
585.6400, 3272.000
586.8100, 3249.000
587.9800, 3327.000
589.1500, 3341.000
590.3200, 3347.000
591.4900, 3387.478
592.6590, 3367.000
593.8290, 3401.000
594.9980, 3420.000
596.1670, 3372.000
597.3360, 3368.000
598.5040, 3482.000
599.6730, 3468.000
600.8410, 3523.000
602.0090, 3504.000
603.1770, 3540.000
604.3450, 3551.000
605.5130, 3611.000
606.6800, 3705.000
607.8470, 3631.000
609.0140, 3761.000
610.1810, 3771.000
611.3480, 3852.000
612.5140, 3968.000
613.6810, 3989.000
614.8470, 4098.291
616.0130, 4201.000
617.1790, 4284.000
618.3440, 4357.000
619.5100, 4482.674
620.6750, 4668.000
621.8400, 4821.000
623.0050, 5058.000
624.1700, 5296.000
625.3350, 5637.000
626.4990, 5980.000
627.6640, 6465.000
628.8280, 6926.000
629.9920, 7558.000
631.1550, 8304.000
632.3190, 9093.000
633.4820, 10123.00
634.6460, 10947.00
635.8090, 11493.00
636.9710, 11680.00
638.1340, 11452.00
639.2970, 10960.00
640.4590, 9851.000
641.6210, 8784.000
642.7830, 7956.000
643.9450, 7158.000
645.1070, 6567.000
646.2680, 6086.000
647.4300, 5672.000
648.5910, 5341.000
649.7520, 5018.000
650.9130, 4830.000
652.0730, 4720.000
653.2340, 4486.000
654.3940, 4350.000
655.5540, 4153.000
656.7140, 4034.927
657.8740, 3948.000
659.0330, 3860.000
660.1930, 3770.000
661.3520, 3762.000
662.5110, 3685.000
663.6700, 3570.000
664.8290, 3592.000
665.9870, 3521.000
667.1460, 3494.000
668.3040, 3446.000
669.4620, 3421.000
670.6200, 3403.000
671.7770, 3334.000
672.9350, 3311.000
674.0920, 3309.000
675.2500, 3274.063
676.4070, 3216.000
677.5630, 3246.000
678.7200, 3268.000
679.8770, 3254.000
681.0330, 3190.000
682.1890, 3217.000
683.3450, 3173.000
684.5010, 3177.773
685.6560, 3147.000
686.8120, 3185.000
687.9670, 3223.000
689.1220, 3219.000
690.2770, 3177.000
691.4320, 3148.000
692.5870, 3122.000
693.7410, 3192.000
694.8950, 3136.000
696.0490, 3148.000
697.2030, 3201.000
698.3570, 3176.000
699.5110, 3236.000
700.6640, 3220.000
701.8170, 3237.000
702.9700, 3222.000
704.1230, 3251.000
705.2760, 3235.000
706.4290, 3237.000
707.5810, 3283.000
708.7330, 3224.000
709.8850, 3393.000
711.0370, 3365.000
712.1890, 3448.000
713.3400, 3422.000
714.4920, 3479.000
715.6430, 3490.000
716.7940, 3587.000
717.9450, 3642.000
719.0960, 3585.000
720.2460, 3601.000
721.3960, 3547.000
722.5470, 3510.000
723.6970, 3576.000
724.8460, 3473.000
725.9960, 3470.000
727.1460, 3440.000
728.2950, 3395.000
729.4440, 3345.000
730.5930, 3406.000
731.7420, 3391.000
732.8910, 3454.000
734.0390, 3383.000
735.1870, 3346.000
736.3360, 3407.000
737.4840, 3375.000
738.6310, 3357.000
739.7790, 3392.000
740.9260, 3337.000
742.0740, 3372.000
743.2210, 3375.000
744.3680, 3396.000
745.5150, 3353.000
746.6610, 3392.000
747.8080, 3279.000
748.9540, 3275.000
750.1000, 3285.000
751.2460, 3332.000
752.3920, 3311.135
753.5380, 3319.276
754.6830, 3291.000
755.8280, 3305.000
756.9730, 3281.000
758.1180, 3283.000
759.2630, 3262.000
760.4080, 3234.000
761.5520, 3225.000
762.6960, 3292.000
763.8410, 3275.000
764.9840, 3285.000
766.1280, 3297.000
767.2720, 3288.000
768.4150, 3256.000
769.5590, 3353.000
770.7020, 3291.000
771.8450, 3257.000
772.9870, 3341.000
774.1300, 3232.000
775.2720, 3345.000
776.4150, 3346.000
777.5570, 3380.000
778.6990, 3362.000
779.8400, 3349.000
780.9820, 3327.000
782.1230, 3323.766
783.2650, 3316.000
784.4060, 3307.000
785.5470, 3358.000
786.6870, 3334.000
787.8280, 3403.000
788.9680, 3365.000
790.1090, 3327.000
791.2490, 3391.000
792.3890, 3345.000
793.5280, 3379.000
794.6680, 3372.000
795.8070, 3356.000
796.9470, 3334.000
798.0860, 3349.790
799.2250, 3353.000
800.3630, 3395.000
801.5020, 3387.000
802.6410, 3442.000
803.7790, 3445.000
804.9170, 3461.000
806.0550, 3480.586
807.1930, 3410.000
808.3300, 3493.000
809.4680, 3472.000
810.6050, 3463.000
811.7420, 3527.000
812.8790, 3433.000
814.0160, 3550.000
815.1520, 3484.000
816.2890, 3561.000
817.4250, 3549.000
818.5610, 3506.000
819.6970, 3571.000
820.8330, 3502.000
821.9680, 3611.000
823.1040, 3565.000
824.2390, 3595.000
825.3740, 3558.000
826.5090, 3586.000
827.6440, 3617.000
828.7790, 3619.089
829.9130, 3636.000
831.0470, 3671.000
832.1810, 3744.000
833.3150, 3793.000
834.4490, 3752.000
835.5830, 3748.000
836.7160, 3763.000
837.8500, 3770.000
838.9830, 3864.000
840.1160, 3923.000
841.2480, 3924.000
842.3810, 4020.000
843.5140, 4056.102
844.6460, 4134.000
845.7780, 4179.000
846.9100, 4221.000
848.0420, 4303.000
849.1740, 4341.000
850.3050, 4399.000
851.4360, 4428.000
852.5680, 4615.000
853.6990, 4641.000
854.8290, 4777.000
855.9600, 4803.000
857.0910, 4831.000
858.2210, 4875.000
859.3510, 4895.232
860.4810, 4902.000
861.6110, 4893.035
862.7410, 4866.354
863.8700, 4828.864
865.0000, 4766.146
866.1290, 4703.000
867.2580, 4613.000
868.3870, 4505.000
869.5150, 4413.000
870.6440, 4401.000
871.7720, 4381.000
872.9000, 4392.000
874.0290, 4330.297
875.1560, 4226.000
876.2840, 4217.000
877.4120, 4172.000
878.5390, 4123.000
879.6660, 4153.000
880.7930, 4027.000
881.9200, 4068.000
883.0470, 4079.000
884.1740, 4000.000
885.3000, 4080.000
886.4260, 4039.000
887.5530, 3889.000
888.6780, 3942.000
889.8040, 4011.000
890.9300, 3977.000
892.0550, 4030.000
893.1810, 4069.000
894.3060, 4130.000
895.4310, 4056.000
896.5560, 4001.000
897.6800, 4085.000
898.8050, 4003.000
899.9290, 3956.000
901.0530, 3950.000
902.1770, 3949.000
903.3010, 3929.000
904.4250, 3948.000
905.5480, 3886.000
906.6720, 3893.000
907.7950, 3904.000
908.9180, 3898.000
910.0410, 3922.000
911.1630, 3834.000
912.2860, 3838.000
913.4080, 3851.000
914.5300, 3795.000
915.6530, 3847.000
916.7740, 3764.000
917.8960, 3800.000
919.0180, 3808.000
920.1390, 3860.000
921.2600, 3855.000
922.3820, 3731.000
923.5020, 3816.000
924.6230, 3818.000
925.7440, 3704.000
926.8640, 3769.000
927.9850, 3846.000
929.1050, 3750.000
930.2250, 3870.000
931.3450, 3786.000
932.4640, 3768.000
933.5840, 3783.000
934.7030, 3787.000
935.8220, 3815.000
936.9410, 3764.000
938.0600, 3804.000
939.1790, 3758.000
940.2970, 3814.000
941.4160, 3852.000
942.5340, 3769.000
943.6520, 3814.000
944.7700, 3784.000
945.8870, 3805.000
947.0050, 3843.000
948.1220, 3814.000
949.2400, 3794.000
950.3570, 3809.000
951.4740, 3784.920
952.5900, 3851.000
953.7070, 3797.000
954.8240, 3813.000
955.9400, 3884.000
957.0560, 3777.000
958.1720, 3819.000
959.2880, 3842.000
960.4030, 3817.000
961.5190, 3841.000
962.6340, 3821.000
963.7490, 3758.000
964.8640, 3865.000
965.9790, 3856.000
967.0940, 3827.000
968.2080, 3781.000
969.3230, 3801.000
970.4370, 3824.000
971.5510, 3830.000
972.6650, 3832.000
973.7790, 3908.000
974.8920, 3835.000
976.0060, 3865.000
977.1190, 3876.000
978.2320, 3829.000
979.3450, 3906.000
980.4580, 3873.000
981.5710, 3945.000
982.6830, 3916.813
983.7950, 3916.937
984.9080, 3904.000
986.0200, 3880.000
987.1310, 3955.000
988.2430, 3912.000
989.3550, 3858.000
990.4660, 3942.000
991.5770, 3930.000
992.6880, 3997.000
993.7990, 3933.000
994.9100, 3941.000
996.0200, 4022.000
997.1310, 4005.000
998.2410, 3997.000
999.3510, 4080.000
1000.461, 4046.000
1001.571, 4238.000
1002.681, 4159.000
1003.790, 4188.000
1004.899, 4127.000
1006.009, 4042.000
1007.118, 4097.000
1008.226, 4079.000
1009.335, 4118.000
1010.444, 4061.000
1011.552, 4103.000
1012.660, 4057.000
1013.768, 4046.000
1014.876, 4015.000
1015.984, 4077.000
1017.092, 4127.000
1018.199, 4105.000
1019.306, 4093.000
1020.413, 4177.000
1021.520, 4178.000
1022.627, 4190.000
1023.734, 4170.000
1024.840, 4077.000
1025.947, 4076.000
1027.053, 4088.000
1028.159, 4083.000
1029.265, 4161.000
1030.370, 4211.000
1031.476, 4145.000
1032.581, 4102.000
1033.687, 4130.000
1034.792, 4170.000
1035.897, 4053.000
1037.002, 4098.000
1038.106, 4032.000
1039.211, 4079.000
1040.315, 4105.000
1041.419, 4055.000
1042.523, 4173.000
1043.627, 4120.000
1044.731, 4178.000
1045.834, 4250.000
1046.938, 4205.000
1048.041, 4251.000
1049.144, 4247.000
1050.247, 4247.000
1051.349, 4212.000
1052.452, 4201.000
1053.555, 4257.000
1054.657, 4311.000
1055.759, 4321.000
1056.861, 4333.000
1057.963, 4376.000
1059.064, 4364.000
1060.166, 4425.000
1061.267, 4428.000
1062.368, 4446.000
1063.470, 4466.000
1064.570, 4500.000
1065.671, 4516.815
1066.772, 4552.000
1067.872, 4550.000
1068.972, 4533.000
1070.073, 4522.000
1071.173, 4576.000
1072.272, 4614.000
1073.372, 4632.000
1074.472, 4634.000
1075.571, 4784.000
1076.670, 4725.000
1077.769, 4832.000
1078.868, 4978.000
1079.967, 4906.000
1081.065, 4968.000
1082.164, 5082.000
1083.262, 5141.000
1084.360, 5228.000
1085.458, 5249.000
1086.556, 5287.000
1087.654, 5363.000
1088.751, 5496.000
1089.848, 5631.000
1090.946, 5775.000
1092.043, 5833.000
1093.139, 5959.000
1094.236, 6319.000
1095.333, 6380.000
1096.429, 6784.000
1097.525, 7196.000
1098.622, 7436.000
1099.718, 7898.000
1100.813, 8302.000
1101.909, 8802.000
1103.005, 9370.000
1104.100, 9723.000
1105.195, 10255.00
1106.290, 10750.00
1107.385, 10890.00
1108.480, 11064.00
1109.574, 10928.00
1110.669, 10459.00
1111.763, 10043.00
1112.857, 9470.000
1113.951, 8767.000
1115.045, 8209.000
1116.139, 7651.000
1117.232, 7207.000
1118.326, 6872.000
1119.419, 6528.000
1120.512, 6142.000
1121.605, 5953.000
1122.697, 5717.000
1123.790, 5534.000
1124.883, 5412.000
1125.975, 5255.039
1127.067, 5166.190
1128.159, 5077.000
1129.251, 5017.000
1130.342, 5037.000
1131.434, 4982.000
1132.525, 4962.000
1133.617, 4914.000
1134.708, 4966.000
1135.799, 4866.000
1136.889, 4990.000
1137.980, 5016.000
1139.071, 4966.000
1140.161, 5015.000
1141.251, 5070.000
1142.341, 5081.806
1143.431, 5152.207
1144.521, 5169.000
1145.610, 5258.000
1146.700, 5311.000
1147.789, 5340.000
1148.878, 5548.000
1149.967, 5576.000
1151.056, 5670.000
1152.144, 5773.000
1153.233, 6011.000
1154.321, 6128.000
1155.409, 6274.000
1156.498, 6521.000
1157.585, 6593.000
1158.673, 6854.000
1159.761, 6983.000
1160.848, 7068.000
1161.936, 7117.000
1163.023, 7001.000
1164.110, 7007.000
1165.197, 6781.000
1166.283, 6720.000
1167.370, 6507.000
1168.456, 6253.000
1169.542, 6074.000
1170.629, 5851.000
1171.714, 5723.000
1172.800, 5591.000
1173.886, 5356.000
1174.971, 5234.000
1176.057, 5142.000
1177.142, 5037.000
1178.227, 5008.000
1179.312, 4952.000
1180.397, 4880.186
1181.481, 4876.000
1182.566, 4748.000
1183.650, 4711.000
1184.734, 4629.000
1185.818, 4601.000
1186.902, 4623.000
1187.986, 4607.000
1189.069, 4533.000
1190.153, 4563.000
1191.236, 4559.000
1192.319, 4443.000
1193.402, 4499.000
1194.485, 4498.000
1195.567, 4430.000
1196.650, 4394.000
1197.732, 4453.000
1198.814, 4444.000
1199.896, 4422.000
1200.978, 4367.000
1202.060, 4395.000
1203.142, 4352.000
1204.223, 4353.000
1205.304, 4425.000
1206.386, 4399.000
1207.467, 4362.000
1208.547, 4362.000
1209.628, 4413.000
1210.709, 4318.000
1211.789, 4464.000
1212.869, 4353.011
1213.950, 4365.000
1215.030, 4265.000
1216.109, 4299.000
1217.189, 4386.000
1218.269, 4334.000
1219.348, 4402.000
1220.427, 4347.000
1221.506, 4370.000
1222.585, 4304.000
1223.664, 4332.000
1224.743, 4345.000
1225.821, 4448.000
1226.899, 4389.000
1227.978, 4362.000
1229.056, 4335.000
1230.134, 4314.000
1231.211, 4372.000
1232.289, 4350.000
1233.366, 4445.000
1234.444, 4345.000
1235.521, 4428.000
1236.598, 4375.000
1237.675, 4410.000
1238.751, 4378.000
1239.828, 4476.000
1240.904, 4476.000
1241.981, 4401.000
1243.057, 4449.106
1244.133, 4398.000
1245.209, 4407.000
1246.284, 4443.000
1247.360, 4362.000
1248.435, 4403.000
1249.510, 4324.000
1250.585, 4466.000
1251.660, 4402.000
1252.735, 4422.000
1253.810, 4485.000
1254.884, 4485.000
1255.959, 4405.000
1257.033, 4482.000
1258.107, 4393.000
1259.181, 4401.000
1260.255, 4451.000
1261.328, 4455.000
1262.402, 4440.000
1263.475, 4394.000
1264.548, 4432.000
1265.621, 4389.000
1266.694, 4421.000
1267.767, 4461.000
1268.840, 4516.000
1269.912, 4520.000
1270.984, 4543.000
1272.056, 4425.000
1273.129, 4486.000
1274.200, 4520.000
1275.272, 4482.000
1276.344, 4550.000
1277.415, 4420.000
1278.486, 4464.000
1279.558, 4475.000
1280.629, 4457.000
1281.699, 4503.000
1282.770, 4484.000
1283.841, 4453.000
1284.911, 4463.000
1285.981, 4450.000
1287.051, 4467.000
1288.121, 4472.000
1289.191, 4447.000
1290.261, 4529.000
1291.330, 4436.000
1292.400, 4531.000
1293.469, 4507.000
1294.538, 4495.000
1295.607, 4548.000
1296.676, 4572.000
1297.745, 4563.000
1298.813, 4577.000
1299.881, 4570.184
1300.950, 4537.000
1302.018, 4545.000
1303.086, 4558.000
1304.154, 4532.000
1305.221, 4501.000
1306.289, 4639.000
1307.356, 4500.000
1308.423, 4611.000
1309.490, 4590.000
1310.557, 4619.000
1311.624, 4659.000
1312.691, 4528.000
1313.757, 4615.000
1314.823, 4611.000
1315.890, 4680.000
1316.956, 4577.000
1318.022, 4627.000
1319.087, 4528.000
1320.153, 4598.000
1321.219, 4568.000
1322.284, 4620.000
1323.349, 4622.000
1324.414, 4579.000
1325.479, 4522.000
1326.544, 4561.000
1327.608, 4568.000
1328.673, 4533.000
1329.737, 4529.208
1330.801, 4601.504
1331.865, 4641.092
1332.929, 4649.730
1333.993, 4534.716
1335.057, 4579.372
1336.120, 4560.042
1337.183, 4538.088
1338.247, 4605.217
1339.310, 4508.190
1340.373, 4573.909
1341.435, 4574.665
1342.498, 4605.151
1343.560, 4571.256
1344.623, 4557.245
1345.685, 4607.640
1346.747, 4622.375
1347.809, 4581.068
1348.871, 4613.447
1349.932, 4514.175
1350.994, 4530.428
1352.055, 4583.000
1353.116, 4567.000
1354.177, 4575.000
1355.238, 4565.000
1356.299, 4657.000
1357.359, 4592.000
1358.420, 4611.000
1359.480, 4532.000
1360.540, 4669.000
1361.600, 4577.000
1362.660, 4610.000
1363.720, 4621.000
1364.780, 4573.000
1365.839, 4521.000
1366.898, 4611.000
1367.958, 4577.000
1369.017, 4543.000
1370.076, 4592.000
1371.134, 4570.000
1372.193, 4609.000
1373.251, 4585.000
1374.310, 4570.000
1375.368, 4607.000
1376.426, 4664.000
1377.484, 4659.000
1378.542, 4603.000
1379.599, 4554.000
1380.657, 4674.000
1381.714, 4701.000
1382.771, 4726.000
1383.828, 4651.000
1384.885, 4594.000
1385.942, 4643.000
1386.999, 4593.000
1388.055, 4688.000
1389.111, 4688.000
1390.168, 4611.000
1391.224, 4621.000
1392.280, 4590.000
1393.335, 4692.000
1394.391, 4596.000
1395.446, 4639.000
1396.502, 4692.000
1397.557, 4618.000
1398.612, 4698.000
1399.667, 4635.000
1400.722, 4674.000
1401.776, 4632.000
1402.831, 4658.000
1403.885, 4680.000
1404.939, 4679.000
1405.994, 4700.310
1407.048, 4726.000
1408.101, 4711.000
1409.155, 4736.000
1410.209, 4716.643
1411.262, 4735.000
1412.315, 4720.000
1413.368, 4735.000
1414.421, 4754.318
1415.474, 4690.000
1416.527, 4723.000
1417.579, 4732.000
1418.632, 4686.000
1419.684, 4751.000
1420.736, 4621.000
1421.788, 4616.000
1422.840, 4707.000
1423.891, 4740.000
1424.943, 4721.528
1425.994, 4844.000
1427.046, 4677.000
1428.097, 4718.000
1429.148, 4699.000
1430.199, 4738.000
1431.249, 4708.000
1432.300, 4804.000
1433.350, 4831.000
1434.401, 4781.000
1435.451, 4709.000
1436.501, 4852.000
1437.551, 4975.000
1438.601, 4961.000
1439.650, 4923.000
1440.700, 4941.000
1441.749, 4966.000
1442.798, 4939.000
1443.847, 5005.000
1444.896, 4999.000
1445.945, 4923.000
1446.993, 4948.000
1448.042, 4926.000
1449.090, 5020.000
1450.138, 5013.696
1451.187, 5028.000
1452.234, 5065.000
1453.282, 5002.000
1454.330, 5032.000
1455.377, 5098.000
1456.425, 5074.000
1457.472, 5009.000
1458.519, 5029.000
1459.566, 5030.000
1460.613, 4984.000
1461.660, 5058.000
1462.706, 4953.000
1463.752, 4973.000
1464.799, 4932.000
1465.845, 4932.000
1466.891, 4942.000
1467.937, 4935.000
1468.982, 4961.000
1470.028, 4896.000
1471.073, 4848.000
1472.119, 4864.000
1473.164, 4864.000
1474.209, 4873.000
1475.254, 4907.000
1476.299, 4875.000
1477.343, 4909.000
1478.388, 4843.000
1479.432, 4855.000
1480.476, 4896.000
1481.520, 4944.000
1482.564, 4833.000
1483.608, 4850.000
1484.651, 4852.000
1485.695, 4858.000
1486.738, 4863.153
1487.782, 4820.000
1488.825, 4857.000
1489.868, 4906.000
1490.910, 4885.000
1491.953, 4841.000
1492.996, 4917.000
1494.038, 4886.000
1495.080, 4878.000
1496.122, 4911.000
1497.164, 4796.000
1498.206, 4764.000
1499.248, 4744.000
1500.290, 4831.000
1501.331, 4841.000
1502.372, 4910.000
1503.413, 4846.000
1504.455, 4851.000
1505.495, 4798.000
1506.536, 4778.000
1507.577, 4820.000
1508.617, 4822.000
1509.658, 4872.000
1510.698, 4890.000
1511.738, 4874.000
1512.778, 4893.000
1513.818, 4977.000
1514.857, 4812.000
1515.897, 4890.000
1516.936, 4900.000
1517.975, 4805.000
1519.015, 4891.000
1520.054, 4909.000
1521.092, 4882.000
1522.131, 4880.000
1523.170, 4874.000
1524.208, 4853.000
1525.246, 4938.000
1526.285, 4929.000
1527.323, 4903.000
1528.361, 4837.000
1529.398, 4861.753
1530.436, 4837.000
1531.473, 4897.000
1532.511, 4905.000
1533.548, 4952.000
1534.585, 4887.000
1535.622, 4958.000
1536.659, 4892.000
1537.695, 5022.000
1538.732, 4963.000
1539.768, 4968.000
1540.805, 5069.000
1541.841, 4891.000
1542.877, 4971.000
1543.913, 4934.000
1544.948, 5026.000
1545.984, 4922.000
1547.019, 4879.000
1548.055, 4878.000
1549.090, 4980.000
1550.125, 4977.000
1551.160, 5015.000
1552.195, 4970.000
1553.229, 5040.000
1554.264, 5016.000
1555.298, 5059.000
1556.332, 4963.000
1557.366, 5034.000
1558.400, 4943.000
1559.434, 4941.000
1560.468, 5033.000
1561.502, 5032.000
1562.535, 5076.000
##END=



