##NAMES=Augelite
##RRUFFID=R050060
##IDEAL CHEMISTRY=Al_2_PO_4_(OH)_3_
##LOCALITY=Machacamarca, Potosi Department, Bolivia
##OWNER=RRUFF
##SOURCE=Rock Currier
##DESCRIPTION=Colorless prismatic crystals
##STATUS=The identification of this mineral has been confirmed by X-ray diffraction and chemical analysis
##URL=rruff.info/R050060
##MEASURED CHEMISTRY=Al_2.00_(P_1.00_O_4_)(OH)_3_; OH estimated by difference
##PIN_ID=L01372
##ORIENTATION=Laser parallel to -a* (-1 0 0). Fiducial mark perpendicular to laser is parallel to -b [0 -1 0]
200.5460, 8587.000
201.7750, 8612.000
203.0050, 8445.000
204.2340, 8481.000
205.4630, 8492.000
206.6920, 8528.000
207.9210, 8512.000
209.1500, 8479.000
210.3780, 8660.000
211.6060, 8747.000
212.8340, 8894.000
214.0620, 9165.000
215.2900, 9370.000
216.5170, 9540.000
217.7440, 9778.000
218.9710, 10005.00
220.1980, 10336.00
221.4250, 10594.00
222.6510, 11038.00
223.8770, 11298.00
225.1040, 11529.00
226.3290, 11665.00
227.5550, 11334.00
228.7810, 10804.00
230.0060, 10424.00
231.2310, 9815.000
232.4560, 9533.000
233.6810, 9290.000
234.9050, 9149.000
236.1290, 9258.000
237.3540, 9089.000
238.5770, 9233.000
239.8010, 9424.000
241.0250, 9479.000
242.2480, 9636.000
243.4710, 10054.00
244.6940, 10228.00
245.9170, 10558.00
247.1400, 10921.00
248.3620, 11448.00
249.5840, 11830.00
250.8060, 12270.00
252.0280, 12132.04
253.2500, 11940.59
254.4710, 11643.00
255.6920, 10962.00
256.9140, 10620.00
258.1340, 10041.00
259.3550, 9688.417
260.5760, 9373.569
261.7960, 9179.000
263.0160, 8888.000
264.2360, 8953.000
265.4560, 8884.000
266.6750, 8855.000
267.8940, 8858.000
269.1140, 8818.000
270.3330, 8808.601
271.5510, 8738.000
272.7700, 8756.000
273.9880, 8817.000
275.2070, 8754.000
276.4250, 8801.000
277.6420, 8740.000
278.8600, 8681.000
280.0770, 8749.000
281.2950, 8702.000
282.5120, 8630.000
283.7290, 8703.000
284.9450, 8837.000
286.1620, 8815.000
287.3780, 8765.000
288.5940, 8694.000
289.8100, 8819.000
291.0260, 8808.000
292.2410, 8945.000
293.4570, 8888.000
294.6720, 8974.000
295.8870, 9000.037
297.1010, 9006.000
298.3160, 9052.000
299.5300, 9036.534
300.7450, 9021.727
301.9590, 9003.000
303.1730, 8952.000
304.3860, 8903.000
305.6000, 8854.000
306.8130, 8845.698
308.0260, 8838.068
309.2390, 8849.000
310.4510, 8878.000
311.6640, 8900.000
312.8760, 8952.000
314.0880, 8990.120
315.3000, 8999.000
316.5120, 9083.000
317.7240, 9111.000
318.9350, 9145.000
320.1460, 9140.000
321.3570, 9169.000
322.5680, 9298.000
323.7790, 9322.000
324.9890, 9236.000
326.1990, 9238.000
327.4090, 9385.000
328.6190, 9395.000
329.8290, 9450.000
331.0380, 9477.000
332.2480, 9348.000
333.4570, 9380.000
334.6660, 9393.065
335.8740, 9484.000
337.0830, 9506.000
338.2910, 9487.000
339.5000, 9615.000
340.7080, 9741.000
341.9150, 9783.000
343.1230, 9817.000
344.3300, 9934.000
345.5380, 9920.000
346.7450, 9932.000
347.9520, 10121.00
349.1580, 10125.00
350.3650, 10241.00
351.5710, 10256.00
352.7770, 10270.00
353.9830, 10281.00
355.1890, 10330.00
356.3940, 10324.00
357.6000, 10308.00
358.8050, 10526.00
360.0100, 10762.00
361.2150, 10841.00
362.4190, 11201.00
363.6240, 11357.00
364.8280, 11662.00
366.0320, 12019.00
367.2360, 12129.00
368.4400, 12172.96
369.6430, 12121.00
370.8460, 11911.00
372.0500, 11679.00
373.2530, 11272.00
374.4550, 10884.00
375.6580, 10649.00
376.8600, 10415.00
378.0620, 10364.00
379.2650, 10223.00
380.4660, 10184.00
381.6680, 10146.00
382.8690, 10078.11
384.0710, 10073.00
385.2720, 10016.00
386.4730, 10084.00
387.6730, 10088.00
388.8740, 10209.00
390.0740, 10204.00
391.2740, 10241.00
392.4740, 10267.00
393.6740, 10387.00
394.8740, 10405.00
396.0730, 10545.00
397.2730, 10563.00
398.4720, 10836.00
399.6700, 10964.00
400.8690, 11273.00
402.0680, 11505.00
403.2660, 11941.00
404.4640, 12098.00
405.6620, 12576.00
406.8600, 12702.00
408.0570, 12950.00
409.2550, 13140.00
410.4520, 13112.00
411.6490, 12954.00
412.8460, 12688.00
414.0430, 12667.00
415.2390, 12458.00
416.4350, 12298.00
417.6310, 12383.00
418.8270, 12328.00
420.0230, 12307.00
421.2190, 12204.00
422.4140, 12072.00
423.6090, 12157.00
424.8040, 12033.00
425.9990, 11872.00
427.1940, 11906.00
428.3880, 11615.00
429.5820, 11560.00
430.7760, 11648.00
431.9700, 11567.00
433.1640, 11608.00
434.3580, 11695.00
435.5510, 11688.00
436.7440, 11752.22
437.9370, 11579.00
439.1300, 11815.00
440.3230, 11769.00
441.5150, 11748.00
442.7070, 11877.00
443.8990, 11906.00
445.0910, 11919.00
446.2830, 12061.00
447.4750, 12135.00
448.6660, 12019.00
449.8570, 12212.00
451.0480, 12124.00
452.2390, 12175.00
453.4290, 12141.00
454.6200, 12323.00
455.8100, 12295.00
457.0000, 12405.00
458.1900, 12351.00
459.3800, 12423.00
460.5690, 12344.00
461.7590, 12422.00
462.9480, 12321.00
464.1370, 12544.00
465.3260, 12496.00
466.5140, 12430.00
467.7030, 12464.00
468.8910, 12354.00
470.0790, 12394.00
471.2670, 12244.00
472.4550, 12207.00
473.6420, 12140.00
474.8300, 12012.00
476.0170, 12037.00
477.2040, 11812.00
478.3900, 11794.00
479.5770, 11485.00
480.7640, 11496.00
481.9500, 11498.00
483.1360, 11367.00
484.3220, 11301.00
485.5080, 11254.00
486.6930, 11313.00
487.8780, 11234.00
489.0640, 11301.00
490.2490, 11273.15
491.4330, 11388.00
492.6180, 11248.00
493.8030, 11238.00
494.9870, 11229.00
496.1710, 11455.00
497.3550, 11478.00
498.5390, 11563.00
499.7220, 11615.00
500.9060, 11512.00
502.0890, 11746.00
503.2720, 11707.00
504.4550, 11785.00
505.6370, 11978.00
506.8200, 12083.00
508.0020, 12128.00
509.1840, 12340.00
510.3660, 12626.00
511.5480, 12799.00
512.7290, 13093.86
513.9110, 13192.00
515.0920, 13626.00
516.2730, 13888.00
517.4540, 14098.00
518.6350, 14492.00
519.8150, 14717.00
520.9960, 15087.00
522.1760, 15297.00
523.3560, 15478.00
524.5350, 15734.00
525.7150, 15796.00
526.8950, 15905.00
528.0740, 15818.00
529.2530, 15666.00
530.4320, 15626.00
531.6100, 15405.00
532.7890, 15223.00
533.9670, 15005.00
535.1460, 14749.00
536.3240, 14551.00
537.5010, 14460.00
538.6790, 14264.00
539.8570, 14142.00
541.0340, 14184.00
542.2110, 14036.00
543.3880, 13959.00
544.5650, 13853.00
545.7410, 13769.00
546.9180, 13882.00
548.0940, 13943.00
549.2700, 13839.00
550.4460, 14054.00
551.6210, 13959.00
552.7970, 14087.00
553.9720, 14362.00
555.1480, 14292.00
556.3230, 14371.00
557.4970, 14450.00
558.6720, 14561.00
559.8460, 14562.00
561.0210, 14599.00
562.1950, 15343.00
563.3690, 15666.00
564.5420, 15341.00
565.7160, 15228.00
566.8890, 14726.00
568.0630, 14604.00
569.2360, 14452.00
570.4090, 14236.00
571.5810, 14412.00
572.7540, 14336.00
573.9260, 14124.00
575.0980, 13895.00
576.2700, 13857.00
577.4420, 13725.00
578.6140, 13602.74
579.7850, 13483.00
580.9560, 13390.00
582.1270, 13290.00
583.2980, 13174.00
584.4690, 13142.00
585.6400, 12963.00
586.8100, 12928.00
587.9800, 12883.00
589.1500, 12749.00
590.3200, 12738.00
591.4900, 12711.00
592.6590, 12488.00
593.8290, 12445.00
594.9980, 12628.00
596.1670, 12540.00
597.3360, 12612.00
598.5040, 12636.00
599.6730, 12513.00
600.8410, 12673.00
602.0090, 12699.00
603.1770, 12666.00
604.3450, 12952.00
605.5130, 12999.00
606.6800, 12897.00
607.8470, 12927.00
609.0140, 13055.00
610.1810, 13253.00
611.3480, 13362.00
612.5140, 13534.00
613.6810, 13825.00
614.8470, 13873.51
616.0130, 13985.00
617.1790, 14099.00
618.3440, 14396.00
619.5100, 14589.00
620.6750, 14879.00
621.8400, 15348.00
623.0050, 15878.00
624.1700, 16396.00
625.3350, 16924.00
626.4990, 17830.00
627.6640, 18507.00
628.8280, 19542.00
629.9920, 20447.00
631.1550, 21534.00
632.3190, 22925.00
633.4820, 23879.00
634.6460, 25063.00
635.8090, 25205.00
636.9710, 25410.00
638.1340, 24461.00
639.2970, 23656.00
640.4590, 22094.00
641.6210, 20560.00
642.7830, 19281.00
643.9450, 18125.00
645.1070, 17196.00
646.2680, 16346.00
647.4300, 15591.00
648.5910, 15324.00
649.7520, 14905.00
650.9130, 14393.00
652.0730, 14244.00
653.2340, 13985.00
654.3940, 13925.00
655.5540, 13719.00
656.7140, 13403.00
657.8740, 13506.00
659.0330, 13337.00
660.1930, 13368.00
661.3520, 13275.00
662.5110, 13247.00
663.6700, 13117.00
664.8290, 13091.00
665.9870, 13027.00
667.1460, 13139.00
668.3040, 13021.00
669.4620, 12938.00
670.6200, 12924.00
671.7770, 12796.00
672.9350, 12783.44
674.0920, 12833.00
675.2500, 12754.00
676.4070, 12801.00
677.5630, 12865.00
678.7200, 12934.00
679.8770, 12786.00
681.0330, 12823.00
682.1890, 12601.00
683.3450, 12808.00
684.5010, 12850.00
685.6560, 12733.00
686.8120, 12637.00
687.9670, 12561.00
689.1220, 12544.12
690.2770, 12741.00
691.4320, 12573.00
692.5870, 12640.00
693.7410, 12689.00
694.8950, 12665.00
696.0490, 12645.00
697.2030, 12620.00
698.3570, 12675.00
699.5110, 12728.00
700.6640, 12842.00
701.8170, 12880.00
702.9700, 12857.00
704.1230, 12871.00
705.2760, 12800.00
706.4290, 12905.00
707.5810, 12918.00
708.7330, 13069.00
709.8850, 13041.00
711.0370, 12965.00
712.1890, 13079.00
713.3400, 13176.00
714.4920, 13055.00
715.6430, 13218.00
716.7940, 13250.00
717.9450, 13215.00
719.0960, 13385.00
720.2460, 13355.00
721.3960, 13376.00
722.5470, 13139.00
723.6970, 13231.00
724.8460, 13297.00
725.9960, 13474.00
727.1460, 13213.00
728.2950, 13337.00
729.4440, 13340.00
730.5930, 13318.12
731.7420, 13447.00
732.8910, 13427.00
734.0390, 13275.00
735.1870, 13361.00
736.3360, 13313.00
737.4840, 13358.00
738.6310, 13399.00
739.7790, 13508.00
740.9260, 13473.00
742.0740, 13418.00
743.2210, 13385.00
744.3680, 13379.63
745.5150, 13366.00
746.6610, 13387.00
747.8080, 13422.00
748.9540, 13434.00
750.1000, 13403.00
751.2460, 13203.00
752.3920, 13277.00
753.5380, 13378.00
754.6830, 13306.00
755.8280, 13478.00
756.9730, 13169.00
758.1180, 13370.00
759.2630, 13348.00
760.4080, 13379.00
761.5520, 13399.00
762.6960, 13400.13
763.8410, 13437.00
764.9840, 13399.00
766.1280, 13427.00
767.2720, 13378.58
768.4150, 13442.00
769.5590, 13407.00
770.7020, 13464.00
771.8450, 13586.00
772.9870, 13577.00
774.1300, 13483.00
775.2720, 13534.00
776.4150, 13487.00
777.5570, 13544.00
778.6990, 13528.00
779.8400, 13440.00
780.9820, 13698.00
782.1230, 13490.00
783.2650, 13406.00
784.4060, 13718.00
785.5470, 13637.00
786.6870, 13594.00
787.8280, 13666.00
788.9680, 13529.00
790.1090, 13725.00
791.2490, 13684.00
792.3890, 13766.00
793.5280, 13716.00
794.6680, 13823.00
795.8070, 13768.00
796.9470, 13892.00
798.0860, 13769.00
799.2250, 13920.00
800.3630, 13755.00
801.5020, 13846.00
802.6410, 13860.00
803.7790, 13874.00
804.9170, 13867.00
806.0550, 13899.94
807.1930, 13919.90
808.3300, 13954.00
809.4680, 13985.00
810.6050, 14010.00
811.7420, 14048.00
812.8790, 14082.00
814.0160, 14017.00
815.1520, 14155.00
816.2890, 14094.00
817.4250, 14143.00
818.5610, 14363.00
819.6970, 14202.00
820.8330, 14232.00
821.9680, 14361.00
823.1040, 14211.00
824.2390, 14262.00
825.3740, 14456.00
826.5090, 14422.00
827.6440, 14422.00
828.7790, 14447.00
829.9130, 14530.00
831.0470, 14529.18
832.1810, 14599.00
833.3150, 14595.00
834.4490, 14695.00
835.5830, 14765.00
836.7160, 14801.46
837.8500, 14898.00
838.9830, 14893.00
840.1160, 14932.00
841.2480, 14950.00
842.3810, 15148.00
843.5140, 15123.00
844.6460, 15124.00
845.7780, 15536.00
846.9100, 15608.00
848.0420, 15632.00
849.1740, 15798.00
850.3050, 15798.00
851.4360, 15867.00
852.5680, 16043.00
853.6990, 16074.00
854.8290, 16306.00
855.9600, 16525.00
857.0910, 16412.00
858.2210, 16402.00
859.3510, 16547.00
860.4810, 16487.00
861.6110, 16423.00
862.7410, 16422.00
863.8700, 16367.93
865.0000, 16271.00
866.1290, 16292.00
867.2580, 16196.00
868.3870, 16121.95
869.5150, 16061.00
870.6440, 15856.00
871.7720, 15793.00
872.9000, 15656.00
874.0290, 15731.00
875.1560, 15664.00
876.2840, 15531.00
877.4120, 15578.00
878.5390, 15471.00
879.6660, 15547.00
880.7930, 15544.50
881.9200, 15648.00
883.0470, 15565.00
884.1740, 15604.00
885.3000, 15543.00
886.4260, 15567.00
887.5530, 15724.00
888.6780, 15608.00
889.8040, 15863.00
890.9300, 15823.00
892.0550, 15869.00
893.1810, 15917.00
894.3060, 15928.00
895.4310, 16071.00
896.5560, 15878.00
897.6800, 15954.00
898.8050, 16098.00
899.9290, 15774.00
901.0530, 15674.00
902.1770, 15831.00
903.3010, 15526.00
904.4250, 15542.00
905.5480, 15551.00
906.6720, 15515.00
907.7950, 15578.00
908.9180, 15532.18
910.0410, 15607.00
911.1630, 15466.00
912.2860, 15523.00
913.4080, 15464.00
914.5300, 15484.00
915.6530, 15390.00
916.7740, 15340.00
917.8960, 15393.00
919.0180, 15563.00
920.1390, 15467.00
921.2600, 15435.00
922.3820, 15303.00
923.5020, 15342.00
924.6230, 15425.00
925.7440, 15434.00
926.8640, 15538.00
927.9850, 15535.00
929.1050, 15438.00
930.2250, 15490.00
931.3450, 15507.00
932.4640, 15684.00
933.5840, 15539.00
934.7030, 15647.00
935.8220, 15569.00
936.9410, 15537.00
938.0600, 15654.00
939.1790, 15583.00
940.2970, 15584.00
941.4160, 15665.00
942.5340, 15650.00
943.6520, 15687.00
944.7700, 15712.00
945.8870, 15776.00
947.0050, 15695.00
948.1220, 15604.00
949.2400, 15720.00
950.3570, 15795.00
951.4740, 15711.00
952.5900, 15627.00
953.7070, 15704.00
954.8240, 15669.00
955.9400, 15799.00
957.0560, 15713.00
958.1720, 15586.00
959.2880, 15687.00
960.4030, 15847.00
961.5190, 15882.00
962.6340, 15838.00
963.7490, 15942.00
964.8640, 15851.00
965.9790, 15929.00
967.0940, 15838.00
968.2080, 16022.00
969.3230, 16053.00
970.4370, 15957.00
971.5510, 15975.00
972.6650, 16063.00
973.7790, 15998.00
974.8920, 16020.00
976.0060, 16100.00
977.1190, 16053.00
978.2320, 16064.00
979.3450, 16088.00
980.4580, 16081.00
981.5710, 16221.00
982.6830, 16280.00
983.7950, 16116.00
984.9080, 16287.00
986.0200, 16246.00
987.1310, 16243.00
988.2430, 16274.00
989.3550, 16285.00
990.4660, 16287.00
991.5770, 16274.00
992.6880, 16298.00
993.7990, 16478.00
994.9100, 16434.00
996.0200, 16441.00
997.1310, 16292.00
998.2410, 16602.00
999.3510, 16735.00
1000.461, 16719.00
1001.571, 16883.00
1002.681, 16770.00
1003.790, 17092.00
1004.899, 17120.00
1006.009, 17106.00
1007.118, 16948.00
1008.226, 17183.00
1009.335, 17301.00
1010.444, 17260.00
1011.552, 17423.00
1012.660, 17505.00
1013.768, 17416.00
1014.876, 17501.00
1015.984, 17385.00
1017.092, 17429.00
1018.199, 17439.00
1019.306, 17271.00
1020.413, 17307.00
1021.520, 17217.00
1022.627, 17094.00
1023.734, 16977.00
1024.840, 17074.00
1025.947, 17187.00
1027.053, 17113.00
1028.159, 17155.00
1029.265, 17171.00
1030.370, 17133.00
1031.476, 17227.00
1032.581, 17223.00
1033.687, 17089.00
1034.792, 17233.00
1035.897, 17013.00
1037.002, 17288.00
1038.106, 17324.00
1039.211, 17332.00
1040.315, 17230.00
1041.419, 17180.00
1042.523, 17236.00
1043.627, 17432.00
1044.731, 17416.00
1045.834, 17354.00
1046.938, 17578.00
1048.041, 17590.00
1049.144, 17557.00
1050.247, 17619.00
1051.349, 17833.00
1052.452, 17827.00
1053.555, 17948.00
1054.657, 18015.00
1055.759, 18035.00
1056.861, 18527.00
1057.963, 18292.00
1059.064, 18298.00
1060.166, 18567.00
1061.267, 18386.00
1062.368, 18542.00
1063.470, 18703.00
1064.570, 18372.00
1065.671, 18564.00
1066.772, 18382.00
1067.872, 18479.00
1068.972, 18292.00
1070.073, 18261.00
1071.173, 18311.00
1072.272, 18394.00
1073.372, 18294.00
1074.472, 18522.00
1075.571, 18441.00
1076.670, 18425.00
1077.769, 18443.00
1078.868, 18619.00
1079.967, 18648.00
1081.065, 18785.00
1082.164, 18831.89
1083.262, 18921.23
1084.360, 18917.00
1085.458, 19112.00
1086.556, 19178.00
1087.654, 19312.00
1088.751, 19461.00
1089.848, 19825.00
1090.946, 19891.00
1092.043, 20277.00
1093.139, 20260.00
1094.236, 20582.00
1095.333, 21118.00
1096.429, 21498.00
1097.525, 21751.00
1098.622, 22322.00
1099.718, 22963.00
1100.813, 23826.00
1101.909, 24278.00
1103.005, 25185.00
1104.100, 25724.00
1105.195, 26419.00
1106.290, 26832.00
1107.385, 27001.00
1108.480, 27172.00
1109.574, 27010.00
1110.669, 26372.00
1111.763, 26001.00
1112.857, 25346.00
1113.951, 24367.00
1115.045, 23519.00
1116.139, 23011.00
1117.232, 22261.00
1118.326, 21832.00
1119.419, 21247.00
1120.512, 20876.00
1121.605, 20451.00
1122.697, 20357.00
1123.790, 20022.00
1124.883, 19892.00
1125.975, 19800.00
1127.067, 19749.00
1128.159, 19626.14
1129.251, 19508.00
1130.342, 19444.00
1131.434, 19327.00
1132.525, 19268.00
1133.617, 19326.00
1134.708, 19235.00
1135.799, 19195.00
1136.889, 19082.00
1137.980, 19166.00
1139.071, 19235.00
1140.161, 19159.00
1141.251, 19227.55
1142.341, 19294.00
1143.431, 19255.00
1144.521, 19427.00
1145.610, 19471.00
1146.700, 19514.00
1147.789, 19584.00
1148.878, 19402.00
1149.967, 19650.00
1151.056, 19699.00
1152.144, 19997.00
1153.233, 20125.00
1154.321, 20046.00
1155.409, 20312.00
1156.498, 20640.00
1157.585, 20652.00
1158.673, 20967.00
1159.761, 21038.00
1160.848, 20800.00
1161.936, 21128.00
1163.023, 20853.00
1164.110, 20984.00
1165.197, 20996.00
1166.283, 20800.00
1167.370, 20673.00
1168.456, 20524.00
1169.542, 20442.00
1170.629, 20112.00
1171.714, 19833.00
1172.800, 19886.00
1173.886, 19885.00
1174.971, 19675.00
1176.057, 19693.67
1177.142, 19406.00
1178.227, 19518.00
1179.312, 19543.00
1180.397, 19405.00
1181.481, 19471.28
1182.566, 19225.00
1183.650, 19415.00
1184.734, 19224.00
1185.818, 19137.00
1186.902, 19219.00
1187.986, 19126.00
1189.069, 19038.00
1190.153, 19163.00
1191.236, 19281.00
1192.319, 19250.00
1193.402, 19284.00
1194.485, 19162.00
1195.567, 19193.00
1196.650, 19188.00
1197.732, 19323.00
1198.814, 19218.00
1199.896, 19142.00
1200.978, 19224.00
1202.060, 19147.00
1203.142, 19165.27
1204.223, 19230.00
1205.304, 19206.00
1206.386, 19195.00
1207.467, 19284.00
1208.547, 19275.00
1209.628, 19226.00
1210.709, 19237.00
1211.789, 19237.00
1212.869, 19163.00
1213.950, 19230.00
1215.030, 19227.00
1216.109, 19214.00
1217.189, 19269.00
1218.269, 19306.00
1219.348, 19289.00
1220.427, 19418.00
1221.506, 19287.00
1222.585, 19483.00
1223.664, 19437.00
1224.743, 19345.00
1225.821, 19621.00
1226.899, 19494.00
1227.978, 19458.00
1229.056, 19559.00
1230.134, 19377.00
1231.211, 19474.00
1232.289, 19494.00
1233.366, 19562.00
1234.444, 19662.00
1235.521, 19651.00
1236.598, 19552.00
1237.675, 19708.00
1238.751, 19680.00
1239.828, 19755.00
1240.904, 19636.00
1241.981, 19551.00
1243.057, 19650.00
1244.133, 19738.00
1245.209, 19667.00
1246.284, 19735.35
1247.360, 19739.00
1248.435, 19735.00
1249.510, 19707.00
1250.585, 19689.00
1251.660, 19821.00
1252.735, 19860.00
1253.810, 19942.00
1254.884, 19944.00
1255.959, 19820.00
1257.033, 20053.00
1258.107, 20140.00
1259.181, 19959.00
1260.255, 19894.00
1261.328, 20127.00
1262.402, 20134.00
1263.475, 19957.00
1264.548, 19950.00
1265.621, 19969.00
1266.694, 19969.00
1267.767, 20113.00
1268.840, 20047.00
1269.912, 19953.00
1270.984, 20044.00
1272.056, 20291.00
1273.129, 20152.00
1274.200, 20235.00
1275.272, 20181.00
1276.344, 20187.00
1277.415, 20207.00
1278.486, 20048.00
1279.558, 20126.01
1280.629, 20295.00
1281.699, 20196.00
1282.770, 20374.00
1283.841, 20470.00
1284.911, 20399.92
1285.981, 20528.02
1287.051, 20605.47
1288.121, 20635.00
1289.191, 20473.07
1290.261, 20558.37
1291.330, 20544.58
1292.400, 20526.74
1293.469, 20646.82
1294.538, 20512.72
1295.607, 20630.62
1296.676, 20647.93
1297.745, 20711.28
1298.813, 20674.92
1299.881, 20669.35
1300.950, 20763.52
1302.018, 20802.46
1303.086, 20754.62
1304.154, 20820.88
1305.221, 20683.28
1306.289, 20724.57
1307.356, 20843.03
1308.423, 20800.20
1309.490, 20868.27
1310.557, 20894.10
1311.624, 20727.98
1312.691, 20895.68
1313.757, 20919.01
1314.823, 20794.10
1315.890, 20950.37
1316.956, 20845.89
1318.022, 20834.48
1319.087, 20893.09
1320.153, 20878.71
1321.219, 20979.44
1322.284, 20969.26
1323.349, 21024.00
1324.414, 20989.00
1325.479, 20995.00
1326.544, 21065.00
1327.608, 21052.00
1328.673, 21093.00
1329.737, 21154.00
1330.801, 21121.00
1331.865, 21227.00
1332.929, 21061.00
1333.993, 21186.00
1335.057, 21315.00
1336.120, 21128.00
1337.183, 21375.00
1338.247, 21270.00
1339.310, 21313.00
1340.373, 21285.00
1341.435, 21364.00
1342.498, 21363.00
1343.560, 21437.00
1344.623, 21454.26
1345.685, 21223.00
1346.747, 21568.00
1347.809, 21412.00
1348.871, 21609.00
1349.932, 21403.00
1350.994, 21365.00
1352.055, 21413.00
1353.116, 21564.00
1354.177, 21465.00
1355.238, 21687.00
1356.299, 21527.00
1357.359, 21433.00
1358.420, 21745.00
1359.480, 21510.00
1360.540, 21478.00
1361.600, 21669.00
1362.660, 21801.00
1363.720, 21802.00
1364.780, 21575.00
1365.839, 21720.00
1366.898, 21608.00
1367.958, 21728.00
1369.017, 21654.00
1370.076, 21934.00
1371.134, 21713.00
1372.193, 21752.00
1373.251, 21914.00
1374.310, 21761.00
1375.368, 21824.00
1376.426, 21685.00
1377.484, 21886.00
1378.542, 21934.00
1379.599, 21994.00
1380.657, 21882.00
1381.714, 21780.00
1382.771, 21996.00
1383.828, 22057.00
1384.885, 21832.00
1385.942, 21840.00
1386.999, 21984.00
1388.055, 22084.00
1389.111, 22076.00
1390.168, 22146.00
1391.224, 22294.00
1392.280, 22114.00
1393.335, 22043.00
1394.391, 22060.00
1395.446, 22239.00
1396.502, 22059.00
1397.557, 22218.00
1398.612, 22142.00
1399.667, 22203.00
1400.722, 22375.00
1401.776, 22125.00
1402.831, 22229.00
1403.885, 22346.00
1404.939, 22421.00
1405.994, 22312.00
1407.048, 22289.00
1408.101, 22334.00
1409.155, 22444.00
1410.209, 22519.00
1411.262, 22572.77
1412.315, 22472.00
1413.368, 22609.00
1414.421, 22587.00
1415.474, 22439.00
1416.527, 22637.00
1417.579, 22459.00
1418.632, 22561.00
1419.684, 22588.00
1420.736, 22517.00
1421.788, 22532.00
1422.840, 22629.00
1423.891, 22848.00
1424.943, 22853.00
1425.994, 22945.12
1427.046, 22762.00
1428.097, 22975.00
1429.148, 22928.00
1430.199, 22839.00
1431.249, 22869.00
1432.300, 22965.00
1433.350, 23089.00
1434.401, 23122.00
1435.451, 22963.00
1436.501, 23122.00
1437.551, 23042.00
1438.601, 23186.00
1439.650, 23333.00
1440.700, 23375.00
1441.749, 23415.67
1442.798, 23292.00
1443.847, 23396.00
1444.896, 23355.00
1445.945, 23346.00
1446.993, 23441.00
1448.042, 23204.00
1449.090, 23322.00
1450.138, 23296.00
1451.187, 23354.00
1452.234, 23388.00
1453.282, 23467.00
1454.330, 23371.00
1455.377, 23339.00
1456.425, 23374.00
1457.472, 23626.00
1458.519, 23484.00
1459.566, 23685.00
1460.613, 23380.00
1461.660, 23682.00
1462.706, 23468.00
1463.752, 23685.00
1464.799, 23595.00
1465.845, 23645.00
1466.891, 23453.00
1467.937, 23528.00
1468.982, 23552.00
1470.028, 23655.00
1471.073, 23647.00
1472.119, 23505.00
1473.164, 23439.00
1474.209, 23619.00
1475.254, 23467.00
1476.299, 23772.00
1477.343, 23755.00
1478.388, 23643.00
1479.432, 23851.00
1480.476, 23808.00
1481.520, 23834.00
1482.564, 23876.38
1483.608, 23885.00
1484.651, 23859.00
1485.695, 23839.00
1486.738, 23813.00
1487.782, 23878.00
1488.825, 23655.00
1489.868, 23688.00
1490.910, 23885.00
1491.953, 24107.00
1492.996, 24110.00
1494.038, 23873.00
1495.080, 23881.00
1496.122, 23876.00
1497.164, 24007.00
1498.206, 24092.00
1499.248, 23962.00
1500.290, 23975.00
1501.331, 23902.00
1502.372, 23953.59
1503.413, 24040.00
1504.455, 24066.00
1505.495, 24255.00
1506.536, 24252.00
1507.577, 24324.43
1508.617, 24175.00
1509.658, 24361.00
1510.698, 24270.00
1511.738, 24180.00
1512.778, 24155.00
1513.818, 24156.00
1514.857, 24390.00
1515.897, 24448.00
1516.936, 24355.00
1517.975, 24272.00
1519.015, 24530.00
1520.054, 24478.00
1521.092, 24462.00
1522.131, 24599.00
1523.170, 24576.00
1524.208, 24543.00
1525.246, 24554.00
1526.285, 24848.00
1527.323, 24567.00
1528.361, 24382.00
1529.398, 24731.00
1530.436, 24688.00
1531.473, 24731.00
1532.511, 24823.00
1533.548, 24659.00
1534.585, 24567.00
1535.622, 24791.00
1536.659, 24741.00
1537.695, 24725.00
1538.732, 24881.00
1539.768, 24903.00
1540.805, 24860.00
1541.841, 25038.00
1542.877, 24823.00
1543.913, 24803.00
1544.948, 25056.00
1545.984, 25007.00
1547.019, 25006.00
1548.055, 25031.00
1549.090, 25085.00
1550.125, 25100.00
1551.160, 25155.00
1552.195, 25212.00
1553.229, 25258.00
1554.264, 25281.56
1555.298, 25233.00
1556.332, 25306.87
1557.366, 25339.00
1558.400, 25339.00
1559.434, 25238.00
1560.468, 25354.00
1561.502, 25255.00
1562.535, 25358.00
##END=



