##NAMES=Augelite
##RRUFFID=R050060
##IDEAL CHEMISTRY=Al_2_PO_4_(OH)_3_
##LOCALITY=Machacamarca, Potosi Department, Bolivia
##OWNER=RRUFF
##SOURCE=Rock Currier
##DESCRIPTION=Colorless prismatic crystals
##STATUS=The identification of this mineral has been confirmed by X-ray diffraction and chemical analysis
##URL=rruff.info/R050060
##MEASURED CHEMISTRY=Al_2.00_(P_1.00_O_4_)(OH)_3_; OH estimated by difference
##PIN_ID=L01372
##ORIENTATION=Laser parallel to -a* (-1 0 0). Fiducial mark perpendicular to laser is parallel to -b [0 -1 0]
206.6920, 5508.000
207.9210, 5427.000
209.1500, 5499.000
210.3780, 5467.000
211.6060, 5659.000
212.8340, 5777.000
214.0620, 5931.000
215.2900, 6026.000
216.5170, 6207.000
217.7440, 6492.000
218.9710, 6605.000
220.1980, 6906.000
221.4250, 7153.000
222.6510, 7505.000
223.8770, 7763.000
225.1040, 8010.000
226.3290, 7940.028
227.5550, 8010.000
228.7810, 7536.000
230.0060, 7118.000
231.2310, 6657.000
232.4560, 6286.000
233.6810, 6079.000
234.9050, 5845.000
236.1290, 5805.000
237.3540, 5755.000
238.5770, 5652.000
239.8010, 5616.000
241.0250, 5637.000
242.2480, 5634.000
243.4710, 5660.000
244.6940, 5658.000
245.9170, 5670.000
247.1400, 5737.000
248.3620, 5659.000
249.5840, 5797.000
250.8060, 5780.000
252.0280, 5785.000
253.2500, 5851.000
254.4710, 5703.000
255.6920, 5677.000
256.9140, 5741.000
258.1340, 5596.000
259.3550, 5637.699
260.5760, 5756.000
261.7960, 5643.000
263.0160, 5454.000
264.2360, 5489.000
265.4560, 5529.000
266.6750, 5452.000
267.8940, 5486.000
269.1140, 5496.000
270.3330, 5452.000
271.5510, 5485.000
272.7700, 5500.000
273.9880, 5492.000
275.2070, 5503.000
276.4250, 5520.994
277.6420, 5563.000
278.8600, 5557.000
280.0770, 5580.125
281.2950, 5587.000
282.5120, 5592.000
283.7290, 5587.000
284.9450, 5610.124
286.1620, 5595.000
287.3780, 5579.000
288.5940, 5574.000
289.8100, 5545.000
291.0260, 5620.000
292.2410, 5670.000
293.4570, 5545.000
294.6720, 5685.000
295.8870, 5673.000
297.1010, 5672.000
298.3160, 5552.000
299.5300, 5617.000
300.7450, 5636.000
301.9590, 5535.000
303.1730, 5593.000
304.3860, 5558.000
305.6000, 5689.000
306.8130, 5600.000
308.0260, 5656.000
309.2390, 5567.000
310.4510, 5634.000
311.6640, 5607.000
312.8760, 5667.000
314.0880, 5673.000
315.3000, 5680.000
316.5120, 5692.000
317.7240, 5612.000
318.9350, 5625.000
320.1460, 5712.000
321.3570, 5792.000
322.5680, 5744.000
323.7790, 5869.000
324.9890, 5762.000
326.1990, 5869.000
327.4090, 5906.000
328.6190, 5826.000
329.8290, 5846.000
331.0380, 5781.000
332.2480, 5822.000
333.4570, 5843.000
334.6660, 5934.000
335.8740, 5950.000
337.0830, 5917.000
338.2910, 5954.000
339.5000, 5892.000
340.7080, 5978.000
341.9150, 5964.000
343.1230, 6032.000
344.3300, 6082.000
345.5380, 6072.000
346.7450, 6096.393
347.9520, 6115.000
349.1580, 6079.000
350.3650, 6069.000
351.5710, 6053.000
352.7770, 6053.000
353.9830, 6026.000
355.1890, 6054.000
356.3940, 6099.000
357.6000, 6074.000
358.8050, 6065.000
360.0100, 6100.000
361.2150, 6029.000
362.4190, 6102.000
363.6240, 6106.000
364.8280, 6147.000
366.0320, 6141.000
367.2360, 6185.000
368.4400, 6326.000
369.6430, 6244.000
370.8460, 6195.000
372.0500, 6310.000
373.2530, 6237.000
374.4550, 6162.000
375.6580, 6146.000
376.8600, 6210.000
378.0620, 6177.737
379.2650, 6236.000
380.4660, 6202.000
381.6680, 6323.000
382.8690, 6332.000
384.0710, 6335.000
385.2720, 6333.000
386.4730, 6388.000
387.6730, 6460.000
388.8740, 6526.000
390.0740, 6597.000
391.2740, 6772.000
392.4740, 6704.000
393.6740, 6902.000
394.8740, 6964.000
396.0730, 7204.000
397.2730, 7316.000
398.4720, 7681.000
399.6700, 7990.000
400.8690, 8318.000
402.0680, 8863.000
403.2660, 9420.000
404.4640, 10012.00
405.6620, 10613.00
406.8600, 11381.00
408.0570, 11649.00
409.2550, 11684.00
410.4520, 11485.00
411.6490, 11158.00
412.8460, 10746.00
414.0430, 10349.00
415.2390, 9703.000
416.4350, 9618.000
417.6310, 9258.000
418.8270, 9129.000
420.0230, 8990.000
421.2190, 8847.000
422.4140, 8599.000
423.6090, 8603.000
424.8040, 8372.000
425.9990, 8364.000
427.1940, 8237.000
428.3880, 8172.000
429.5820, 8218.000
430.7760, 8120.000
431.9700, 8054.000
433.1640, 8047.000
434.3580, 8071.000
435.5510, 8065.000
436.7440, 8092.000
437.9370, 8123.741
439.1300, 8124.393
440.3230, 8161.000
441.5150, 8146.000
442.7070, 8074.000
443.8990, 8081.000
445.0910, 8048.000
446.2830, 8006.557
447.4750, 7966.000
448.6660, 7966.000
449.8570, 7951.000
451.0480, 8000.000
452.2390, 8049.000
453.4290, 8195.000
454.6200, 8281.000
455.8100, 8447.000
457.0000, 8421.000
458.1900, 8630.000
459.3800, 8781.000
460.5690, 9012.000
461.7590, 9197.000
462.9480, 9309.000
464.1370, 9487.000
465.3260, 9630.000
466.5140, 9631.000
467.7030, 9855.000
468.8910, 9870.000
470.0790, 9803.000
471.2670, 9672.000
472.4550, 9729.000
473.6420, 9418.000
474.8300, 9278.000
476.0170, 8938.000
477.2040, 8600.000
478.3900, 8516.000
479.5770, 8344.000
480.7640, 8184.000
481.9500, 8069.338
483.1360, 7926.837
484.3220, 7793.000
485.5080, 7712.000
486.6930, 7636.254
487.8780, 7584.306
489.0640, 7550.000
490.2490, 7540.000
491.4330, 7512.000
492.6180, 7518.000
493.8030, 7455.000
494.9870, 7577.000
496.1710, 7766.000
497.3550, 7654.000
498.5390, 7772.000
499.7220, 7928.000
500.9060, 7885.000
502.0890, 8125.000
503.2720, 8145.000
504.4550, 8404.000
505.6370, 8620.000
506.8200, 8881.000
508.0020, 9073.000
509.1840, 9277.000
510.3660, 9506.000
511.5480, 9950.000
512.7290, 10229.00
513.9110, 10801.00
515.0920, 11229.00
516.2730, 11722.00
517.4540, 12216.00
518.6350, 12717.52
519.8150, 13265.00
520.9960, 13747.00
522.1760, 14220.00
523.3560, 14688.00
524.5350, 14840.00
525.7150, 14882.00
526.8950, 15110.00
528.0740, 14692.00
529.2530, 14601.00
530.4320, 14197.00
531.6100, 13752.00
532.7890, 13438.00
533.9670, 13046.00
535.1460, 12459.00
536.3240, 12129.00
537.5010, 11606.00
538.6790, 11161.00
539.8570, 10937.00
541.0340, 10702.00
542.2110, 10329.00
543.3880, 10174.00
544.5650, 9877.000
545.7410, 9813.000
546.9180, 9453.000
548.0940, 9382.000
549.2700, 9226.000
550.4460, 9118.000
551.6210, 9044.000
552.7970, 9063.000
553.9720, 8942.000
555.1480, 8826.000
556.3230, 8765.000
557.4970, 8628.000
558.6720, 8536.000
559.8460, 8550.000
561.0210, 8428.000
562.1950, 8376.000
563.3690, 8312.000
564.5420, 8236.000
565.7160, 8182.000
566.8890, 8156.000
568.0630, 8049.000
569.2360, 8097.000
570.4090, 8098.000
571.5810, 7867.000
572.7540, 8085.000
573.9260, 7899.000
575.0980, 7898.000
576.2700, 7769.000
577.4420, 7814.000
578.6140, 7854.000
579.7850, 7909.000
580.9560, 7901.236
582.1270, 7865.000
583.2980, 7899.000
584.4690, 7894.000
585.6400, 7931.000
586.8100, 7822.000
587.9800, 7926.000
589.1500, 7857.000
590.3200, 7928.000
591.4900, 7985.000
592.6590, 7977.000
593.8290, 7982.000
594.9980, 8009.000
596.1670, 8068.000
597.3360, 8118.000
598.5040, 8091.000
599.6730, 8193.000
600.8410, 8186.000
602.0090, 8400.000
603.1770, 8406.000
604.3450, 8460.000
605.5130, 8410.000
606.6800, 8520.000
607.8470, 8661.000
609.0140, 8760.000
610.1810, 8876.000
611.3480, 9010.000
612.5140, 9089.000
613.6810, 9260.000
614.8470, 9382.000
616.0130, 9565.000
617.1790, 9712.000
618.3440, 9914.028
619.5100, 10169.00
620.6750, 10400.00
621.8400, 10694.00
623.0050, 11079.00
624.1700, 11502.00
625.3350, 12166.00
626.4990, 12761.00
627.6640, 13618.00
628.8280, 14574.00
629.9920, 15699.00
631.1550, 16914.00
632.3190, 17968.00
633.4820, 19296.00
634.6460, 20463.00
635.8090, 21346.00
636.9710, 21475.00
638.1340, 21115.00
639.2970, 20100.00
640.4590, 18622.00
641.6210, 17072.00
642.7830, 15736.00
643.9450, 14408.00
645.1070, 13437.00
646.2680, 12648.00
647.4300, 11868.00
648.5910, 11452.00
649.7520, 10935.00
650.9130, 10588.00
652.0730, 10261.00
653.2340, 9961.000
654.3940, 9598.000
655.5540, 9425.000
656.7140, 9418.000
657.8740, 9090.000
659.0330, 9046.000
660.1930, 8887.000
661.3520, 8801.000
662.5110, 8722.000
663.6700, 8668.000
664.8290, 8530.000
665.9870, 8550.000
667.1460, 8394.000
668.3040, 8461.000
669.4620, 8324.000
670.6200, 8270.000
671.7770, 8413.000
672.9350, 8284.378
674.0920, 8118.000
675.2500, 8205.000
676.4070, 8204.000
677.5630, 8158.000
678.7200, 8180.000
679.8770, 8148.000
681.0330, 8205.000
682.1890, 8196.000
683.3450, 8101.000
684.5010, 8145.000
685.6560, 8117.000
686.8120, 8114.000
687.9670, 8121.000
689.1220, 8132.000
690.2770, 8064.000
691.4320, 8196.000
692.5870, 8017.000
693.7410, 8148.000
694.8950, 8039.000
696.0490, 8145.000
697.2030, 8140.000
698.3570, 8032.000
699.5110, 8043.000
700.6640, 8068.000
701.8170, 8060.559
702.9700, 8146.000
704.1230, 8150.000
705.2760, 8203.313
706.4290, 8237.972
707.5810, 8302.000
708.7330, 8314.000
709.8850, 8357.000
711.0370, 8432.000
712.1890, 8591.000
713.3400, 8635.000
714.4920, 8687.000
715.6430, 8721.000
716.7940, 8818.000
717.9450, 8718.000
719.0960, 8819.000
720.2460, 8782.000
721.3960, 8823.000
722.5470, 8784.000
723.6970, 8787.000
724.8460, 8670.000
725.9960, 8711.000
727.1460, 8582.000
728.2950, 8597.000
729.4440, 8664.000
730.5930, 8701.000
731.7420, 8587.000
732.8910, 8652.000
734.0390, 8588.000
735.1870, 8757.000
736.3360, 8591.000
737.4840, 8657.000
738.6310, 8631.000
739.7790, 8642.000
740.9260, 8493.000
742.0740, 8592.000
743.2210, 8587.000
744.3680, 8610.000
745.5150, 8728.000
746.6610, 8588.000
747.8080, 8480.000
748.9540, 8511.000
750.1000, 8537.000
751.2460, 8443.000
752.3920, 8381.000
753.5380, 8354.000
754.6830, 8507.000
755.8280, 8519.000
756.9730, 8495.000
758.1180, 8432.000
759.2630, 8531.000
760.4080, 8399.000
761.5520, 8469.000
762.6960, 8416.000
763.8410, 8493.000
764.9840, 8486.000
766.1280, 8494.000
767.2720, 8385.000
768.4150, 8563.000
769.5590, 8493.000
770.7020, 8458.000
771.8450, 8619.000
772.9870, 8530.000
774.1300, 8596.000
775.2720, 8469.000
776.4150, 8646.000
777.5570, 8607.000
778.6990, 8484.000
779.8400, 8570.000
780.9820, 8638.000
782.1230, 8619.000
783.2650, 8597.000
784.4060, 8658.000
785.5470, 8653.000
786.6870, 8661.000
787.8280, 8719.000
788.9680, 8703.000
790.1090, 8705.000
791.2490, 8813.000
792.3890, 8765.000
793.5280, 8788.000
794.6680, 8739.000
795.8070, 8748.000
796.9470, 8813.000
798.0860, 8787.000
799.2250, 8871.000
800.3630, 8795.000
801.5020, 8800.000
802.6410, 8699.000
803.7790, 8731.104
804.9170, 8826.000
806.0550, 8800.000
807.1930, 8881.000
808.3300, 8968.000
809.4680, 8909.000
810.6050, 8902.000
811.7420, 8959.000
812.8790, 8896.000
814.0160, 8952.000
815.1520, 8958.000
816.2890, 9102.000
817.4250, 8991.000
818.5610, 9025.000
819.6970, 9171.000
820.8330, 9133.000
821.9680, 9187.227
823.1040, 9075.000
824.2390, 9197.000
825.3740, 9173.000
826.5090, 9145.000
827.6440, 9360.000
828.7790, 9208.000
829.9130, 9232.000
831.0470, 9307.000
832.1810, 9351.000
833.3150, 9437.000
834.4490, 9357.000
835.5830, 9469.000
836.7160, 9626.000
837.8500, 9805.000
838.9830, 9707.000
840.1160, 9717.000
841.2480, 9861.000
842.3810, 9853.000
843.5140, 9920.000
844.6460, 10089.00
845.7780, 10242.00
846.9100, 10289.00
848.0420, 10254.00
849.1740, 10438.00
850.3050, 10477.00
851.4360, 10744.00
852.5680, 10882.00
853.6990, 10928.00
854.8290, 11011.00
855.9600, 11129.00
857.0910, 11188.00
858.2210, 11221.00
859.3510, 11200.00
860.4810, 11208.00
861.6110, 11166.88
862.7410, 11116.00
863.8700, 11052.00
865.0000, 11017.00
866.1290, 10933.00
867.2580, 10806.00
868.3870, 10759.00
869.5150, 10678.00
870.6440, 10719.00
871.7720, 10572.00
872.9000, 10494.00
874.0290, 10293.00
875.1560, 10266.50
876.2840, 10262.00
877.4120, 10221.00
878.5390, 10169.00
879.6660, 10230.00
880.7930, 10053.00
881.9200, 10229.00
883.0470, 10045.00
884.1740, 10206.00
885.3000, 10202.00
886.4260, 10081.00
887.5530, 10213.00
888.6780, 10128.00
889.8040, 10264.00
890.9300, 10334.00
892.0550, 10274.00
893.1810, 10401.00
894.3060, 10331.00
895.4310, 10438.00
896.5560, 10375.48
897.6800, 10326.00
898.8050, 10243.00
899.9290, 10140.00
901.0530, 10051.00
902.1770, 10085.00
903.3010, 9856.000
904.4250, 10124.00
905.5480, 9940.000
906.6720, 9932.000
907.7950, 10019.00
908.9180, 9845.000
910.0410, 10049.00
911.1630, 9872.000
912.2860, 9897.000
913.4080, 9955.000
914.5300, 9875.000
915.6530, 9889.000
916.7740, 9803.000
917.8960, 9855.000
919.0180, 9869.000
920.1390, 10000.00
921.2600, 9954.000
922.3820, 9985.000
923.5020, 9935.000
924.6230, 10011.00
925.7440, 9838.000
926.8640, 9957.000
927.9850, 9859.000
929.1050, 9985.000
930.2250, 9939.000
931.3450, 9853.000
932.4640, 9816.000
933.5840, 9918.000
934.7030, 9753.000
935.8220, 9813.000
936.9410, 10018.00
938.0600, 9938.000
939.1790, 9879.000
940.2970, 10059.00
941.4160, 9931.000
942.5340, 10053.00
943.6520, 10019.00
944.7700, 10019.00
945.8870, 9955.000
947.0050, 9925.000
948.1220, 9937.066
949.2400, 9976.000
950.3570, 10000.00
951.4740, 9980.000
952.5900, 10088.00
953.7070, 10052.00
954.8240, 10058.00
955.9400, 10103.71
957.0560, 10096.71
958.1720, 10130.00
959.2880, 10137.00
960.4030, 10104.00
961.5190, 10120.00
962.6340, 10118.86
963.7490, 10154.00
964.8640, 10144.00
965.9790, 10123.00
967.0940, 10154.00
968.2080, 10224.00
969.3230, 10163.00
970.4370, 10207.00
971.5510, 10206.79
972.6650, 10220.56
973.7790, 10218.00
974.8920, 10266.00
976.0060, 10288.00
977.1190, 10285.00
978.2320, 10242.00
979.3450, 10405.00
980.4580, 10177.00
981.5710, 10373.00
982.6830, 10277.00
983.7950, 10253.00
984.9080, 10234.00
986.0200, 10281.00
987.1310, 10366.00
988.2430, 10346.00
989.3550, 10349.00
990.4660, 10513.00
991.5770, 10463.00
992.6880, 10500.00
993.7990, 10528.00
994.9100, 10483.00
996.0200, 10536.00
997.1310, 10538.86
998.2410, 10517.00
999.3510, 10546.00
1000.461, 10714.00
1001.571, 10656.00
1002.681, 10772.00
1003.790, 10781.00
1004.899, 10807.00
1006.009, 10737.00
1007.118, 10757.00
1008.226, 10710.00
1009.335, 10766.00
1010.444, 10802.00
1011.552, 10805.00
1012.660, 10768.00
1013.768, 10872.00
1014.876, 10878.00
1015.984, 10970.00
1017.092, 10869.00
1018.199, 10927.00
1019.306, 10830.00
1020.413, 10987.00
1021.520, 10841.00
1022.627, 10880.00
1023.734, 10821.00
1024.840, 10839.00
1025.947, 10967.00
1027.053, 10808.00
1028.159, 10885.00
1029.265, 11028.00
1030.370, 10950.00
1031.476, 11010.00
1032.581, 10928.00
1033.687, 11011.00
1034.792, 11022.00
1035.897, 10932.00
1037.002, 11055.00
1038.106, 11134.00
1039.211, 11081.00
1040.315, 11049.00
1041.419, 11042.00
1042.523, 11189.00
1043.627, 11081.00
1044.731, 11046.00
1045.834, 11251.00
1046.938, 11349.00
1048.041, 11169.00
1049.144, 11228.00
1050.247, 11214.00
1051.349, 11334.00
1052.452, 11350.00
1053.555, 11317.00
1054.657, 11419.00
1055.759, 11358.00
1056.861, 11576.00
1057.963, 11481.00
1059.064, 11614.00
1060.166, 11564.00
1061.267, 11835.00
1062.368, 11655.00
1063.470, 11743.00
1064.570, 11836.00
1065.671, 11697.00
1066.772, 11756.00
1067.872, 11748.00
1068.972, 11908.00
1070.073, 12059.00
1071.173, 11941.00
1072.272, 11929.00
1073.372, 12089.00
1074.472, 12143.00
1075.571, 12114.00
1076.670, 12301.00
1077.769, 12283.00
1078.868, 12454.00
1079.967, 12373.00
1081.065, 12581.00
1082.164, 12701.00
1083.262, 12880.00
1084.360, 13012.22
1085.458, 13093.00
1086.556, 13263.00
1087.654, 13370.00
1088.751, 13490.00
1089.848, 13806.00
1090.946, 13952.00
1092.043, 14207.00
1093.139, 14612.00
1094.236, 14901.00
1095.333, 15334.00
1096.429, 15751.00
1097.525, 16258.00
1098.622, 16882.00
1099.718, 17797.00
1100.813, 18670.00
1101.909, 19257.00
1103.005, 20127.00
1104.100, 20977.00
1105.195, 21681.00
1106.290, 22272.00
1107.385, 22404.00
1108.480, 22436.00
1109.574, 22111.00
1110.669, 21720.00
1111.763, 20933.00
1112.857, 19992.00
1113.951, 19151.00
1115.045, 18196.00
1116.139, 17192.00
1117.232, 16312.00
1118.326, 15850.00
1119.419, 15217.00
1120.512, 14692.00
1121.605, 14145.00
1122.697, 13861.00
1123.790, 13652.00
1124.883, 13457.00
1125.975, 13212.00
1127.067, 13205.00
1128.159, 12924.00
1129.251, 12979.00
1130.342, 12970.00
1131.434, 12692.00
1132.525, 12800.00
1133.617, 12884.00
1134.708, 12813.00
1135.799, 12854.00
1136.889, 12688.00
1137.980, 12763.00
1139.071, 12774.00
1140.161, 12832.00
1141.251, 13016.00
1142.341, 12965.00
1143.431, 13130.31
1144.521, 13097.00
1145.610, 13343.00
1146.700, 13372.00
1147.789, 13421.00
1148.878, 13637.00
1149.967, 13702.00
1151.056, 13864.00
1152.144, 14222.00
1153.233, 14460.00
1154.321, 14853.00
1155.409, 14927.00
1156.498, 15371.00
1157.585, 15651.00
1158.673, 15832.00
1159.761, 16241.00
1160.848, 16195.00
1161.936, 16399.00
1163.023, 16196.00
1164.110, 16270.00
1165.197, 16009.00
1166.283, 15760.00
1167.370, 15319.00
1168.456, 15027.00
1169.542, 14832.00
1170.629, 14690.00
1171.714, 14077.00
1172.800, 13968.00
1173.886, 13726.00
1174.971, 13647.00
1176.057, 13295.00
1177.142, 13361.00
1178.227, 13063.00
1179.312, 13018.00
1180.397, 12855.00
1181.481, 12702.00
1182.566, 12771.00
1183.650, 12758.00
1184.734, 12728.00
1185.818, 12522.00
1186.902, 12611.00
1187.986, 12392.00
1189.069, 12551.00
1190.153, 12347.00
1191.236, 12420.00
1192.319, 12310.00
1193.402, 12447.00
1194.485, 12226.00
1195.567, 12412.00
1196.650, 12558.00
1197.732, 12343.00
1198.814, 12375.00
1199.896, 12271.00
1200.978, 12231.00
1202.060, 12367.00
1203.142, 12331.00
1204.223, 12400.00
1205.304, 12200.00
1206.386, 12239.00
1207.467, 12282.00
1208.547, 12286.00
1209.628, 12326.00
1210.709, 12199.00
1211.789, 12275.00
1212.869, 12295.00
1213.950, 12270.00
1215.030, 12352.00
1216.109, 12259.00
1217.189, 12305.00
1218.269, 12278.00
1219.348, 12361.00
1220.427, 12368.00
1221.506, 12420.00
1222.585, 12478.00
1223.664, 12348.00
1224.743, 12369.00
1225.821, 12437.00
1226.899, 12330.00
1227.978, 12449.00
1229.056, 12466.00
1230.134, 12481.00
1231.211, 12345.00
1232.289, 12315.00
1233.366, 12361.00
1234.444, 12336.14
1235.521, 12548.00
1236.598, 12402.00
1237.675, 12514.00
1238.751, 12526.00
1239.828, 12481.00
1240.904, 12465.00
1241.981, 12555.00
1243.057, 12570.00
1244.133, 12569.00
1245.209, 12531.00
1246.284, 12508.00
1247.360, 12479.00
1248.435, 12479.00
1249.510, 12463.00
1250.585, 12503.00
1251.660, 12443.00
1252.735, 12527.00
1253.810, 12548.00
1254.884, 12507.00
1255.959, 12768.00
1257.033, 12569.00
1258.107, 12678.00
1259.181, 12756.00
1260.255, 12591.00
1261.328, 12660.00
1262.402, 12658.00
1263.475, 12692.00
1264.548, 12639.00
1265.621, 12639.00
1266.694, 12619.00
1267.767, 12627.75
1268.840, 12688.00
1269.912, 12678.00
1270.984, 12633.00
1272.056, 12674.00
1273.129, 12547.00
1274.200, 12684.00
1275.272, 12629.00
1276.344, 12846.00
1277.415, 12817.00
1278.486, 12819.00
1279.558, 12734.00
1280.629, 12830.00
1281.699, 12919.00
1282.770, 12859.00
1283.841, 12738.00
1284.911, 12822.00
1285.981, 12856.00
1287.051, 13037.00
1288.121, 12959.00
1289.191, 12969.00
1290.261, 12902.00
1291.330, 12954.00
1292.400, 13051.00
1293.469, 12903.00
1294.538, 12968.00
1295.607, 13118.00
1296.676, 12906.00
1297.745, 12989.00
1298.813, 13039.00
1299.881, 13166.00
1300.950, 13123.00
1302.018, 13063.00
1303.086, 12991.00
1304.154, 13024.00
1305.221, 12984.00
1306.289, 13010.00
1307.356, 13020.00
1308.423, 13154.00
1309.490, 13227.00
1310.557, 13111.00
1311.624, 12978.00
1312.691, 13161.00
1313.757, 13171.00
1314.823, 13101.00
1315.890, 13210.00
1316.956, 13249.00
1318.022, 13109.00
1319.087, 13089.00
1320.153, 13190.00
1321.219, 13263.00
1322.284, 13397.00
1323.349, 13426.04
1324.414, 13420.84
1325.479, 13435.00
1326.544, 13325.00
1327.608, 13179.00
1328.673, 13094.00
1329.737, 13284.00
1330.801, 13305.00
1331.865, 13416.00
1332.929, 13511.00
1333.993, 13338.00
1335.057, 13383.00
1336.120, 13375.00
1337.183, 13295.00
1338.247, 13370.00
1339.310, 13431.00
1340.373, 13564.00
1341.435, 13503.00
1342.498, 13360.00
1343.560, 13495.00
1344.623, 13536.00
1345.685, 13496.00
1346.747, 13536.00
1347.809, 13465.00
1348.871, 13538.00
1349.932, 13607.00
1350.994, 13475.00
1352.055, 13469.00
1353.116, 13596.00
1354.177, 13492.00
1355.238, 13510.00
1356.299, 13405.00
1357.359, 13537.00
1358.420, 13515.00
1359.480, 13740.00
1360.540, 13555.00
1361.600, 13557.00
1362.660, 13690.00
1363.720, 13641.00
1364.780, 13748.00
1365.839, 13718.74
1366.898, 13728.12
1367.958, 13629.00
1369.017, 13752.00
1370.076, 13655.00
1371.134, 13716.00
1372.193, 13803.00
1373.251, 13805.00
1374.310, 13845.69
1375.368, 13795.00
1376.426, 13846.00
1377.484, 13855.00
1378.542, 13804.00
1379.599, 13796.00
1380.657, 13783.00
1381.714, 13846.00
1382.771, 13864.00
1383.828, 13866.00
1384.885, 13764.00
1385.942, 13967.00
1386.999, 13907.00
1388.055, 13778.00
1389.111, 14053.00
1390.168, 13846.00
1391.224, 13941.00
1392.280, 13935.00
1393.335, 13796.00
1394.391, 14006.00
1395.446, 14003.00
1396.502, 14100.00
1397.557, 14030.00
1398.612, 13911.00
1399.667, 14056.00
1400.722, 14061.00
1401.776, 14102.00
1402.831, 14155.00
1403.885, 14074.00
1404.939, 14147.00
1405.994, 14031.00
1407.048, 14168.00
1408.101, 13953.00
1409.155, 14111.00
1410.209, 14113.00
1411.262, 14194.00
1412.315, 14131.00
1413.368, 14270.00
1414.421, 14187.00
1415.474, 14191.00
1416.527, 14223.00
1417.579, 14250.00
1418.632, 14208.00
1419.684, 14266.00
1420.736, 14286.00
1421.788, 14355.00
1422.840, 14392.00
1423.891, 14300.00
1424.943, 14385.00
1425.994, 14312.00
1427.046, 14259.00
1428.097, 14243.00
1429.148, 14178.00
1430.199, 14372.00
1431.249, 14355.00
1432.300, 14217.00
1433.350, 14361.00
1434.401, 14623.00
1435.451, 14489.00
1436.501, 14499.00
1437.551, 14536.00
1438.601, 14435.00
1439.650, 14519.00
1440.700, 14580.00
1441.749, 14622.00
1442.798, 14581.00
1443.847, 14586.00
1444.896, 14520.00
1445.945, 14682.00
1446.993, 14625.00
1448.042, 14696.00
1449.090, 14668.00
1450.138, 14666.87
1451.187, 14740.00
1452.234, 14648.00
1453.282, 14653.00
1454.330, 14622.00
1455.377, 14640.96
1456.425, 14720.00
1457.472, 14712.00
1458.519, 14699.00
1459.566, 14712.00
1460.613, 14649.00
1461.660, 14733.00
1462.706, 14805.29
1463.752, 14793.79
1464.799, 14985.00
1465.845, 14875.00
1466.891, 14823.00
1467.937, 14941.00
1468.982, 14688.00
1470.028, 14915.00
1471.073, 14909.00
1472.119, 14835.00
1473.164, 14823.00
1474.209, 14876.00
1475.254, 14925.00
1476.299, 14959.00
1477.343, 14971.00
1478.388, 14963.00
1479.432, 14956.00
1480.476, 14940.00
1481.520, 15004.00
1482.564, 14998.00
1483.608, 15068.00
1484.651, 14959.00
1485.695, 15174.00
1486.738, 14887.00
1487.782, 14883.00
1488.825, 14957.00
1489.868, 15094.00
1490.910, 14969.00
1491.953, 14881.00
1492.996, 15127.00
1494.038, 15045.00
1495.080, 15043.00
1496.122, 15134.00
1497.164, 15009.00
1498.206, 15125.00
1499.248, 15064.00
1500.290, 15118.00
1501.331, 15124.48
1502.372, 15169.00
1503.413, 15117.00
1504.455, 15100.00
1505.495, 15085.02
1506.536, 15109.00
1507.577, 15139.00
1508.617, 15266.00
1509.658, 15332.00
1510.698, 15287.00
1511.738, 15276.00
1512.778, 15271.00
1513.818, 15270.42
1514.857, 15286.44
1515.897, 15298.00
1516.936, 15329.00
1517.975, 15342.00
1519.015, 15358.00
1520.054, 15218.00
1521.092, 15245.00
1522.131, 15230.29
1523.170, 15304.00
1524.208, 15239.00
1525.246, 15438.00
1526.285, 15430.00
1527.323, 15590.00
1528.361, 15523.00
1529.398, 15505.00
1530.436, 15532.00
1531.473, 15513.00
1532.511, 15660.00
1533.548, 15547.00
1534.585, 15521.00
1535.622, 15656.00
1536.659, 15374.00
1537.695, 15603.00
1538.732, 15541.00
1539.768, 15656.00
1540.805, 15672.00
1541.841, 15845.00
1542.877, 15550.00
1543.913, 15657.00
1544.948, 15824.00
1545.984, 15583.00
1547.019, 15715.00
1548.055, 15648.00
1549.090, 15641.00
1550.125, 15684.00
1551.160, 15610.00
1552.195, 15775.00
1553.229, 15841.00
1554.264, 15837.00
1555.298, 15830.00
1556.332, 15870.00
1557.366, 15819.00
1558.400, 15656.00
1559.434, 15801.00
1560.468, 15970.00
1561.502, 15915.00
1562.535, 15786.00
##END=



