##NAMES=Augite
##RRUFFID=R061086
##IDEAL CHEMISTRY=(Ca,Mg,Fe^2+^,Fe^3+^)_2_(Si,Al)_2_O_6_
##LOCALITY=Boreslav, Teplitz, Bohemia, Czech Republic
##OWNER=RRUFF
##SOURCE=Michael Scott
##DESCRIPTION=Black to dark green tabular euhedral crystal
##STATUS=The identification of this mineral has been confirmed by X-ray diffraction and chemical analysis
##URL=rruff.info/R061086
##MEASURED CHEMISTRY=(Ca_0.88_Mg_0.83_Fe_0.13_Al_0.08_Na_0.04_Ti_0.03_Cr_0.01_)_Σ=2_(Si_1.89_Al_0.11_)_Σ=2_O_6_
##PIN_ID=M00162
##ORIENTATION=Laser parallel to c* (0 0 1). Fiducial mark perpendicular to laser is parallel to a [1 0 0]
166.1800, 2603.000
167.4110, 2660.000
168.6410, 2604.000
169.8720, 2701.000
171.1020, 2621.000
172.3320, 2593.000
173.5620, 2715.000
174.7910, 2624.000
176.0210, 2676.000
177.2500, 2681.000
178.4790, 2698.000
179.7080, 2766.000
180.9370, 2689.000
182.1650, 2751.000
183.3940, 2736.000
184.6220, 2783.000
185.8500, 2750.000
187.0780, 2760.000
188.3050, 2809.000
189.5330, 2808.000
190.7600, 2881.000
191.9870, 2830.000
193.2140, 2919.000
194.4410, 2931.000
195.6680, 2895.000
196.8940, 2850.000
198.1200, 2851.000
199.3470, 2855.000
200.5720, 2878.000
201.7980, 2849.000
203.0240, 2793.000
204.2490, 2755.000
205.4740, 2697.000
206.6990, 2659.000
207.9240, 2660.890
209.1490, 2692.000
210.3740, 2701.000
211.5980, 2744.000
212.8220, 2809.000
214.0460, 2799.000
215.2700, 2763.000
216.4930, 2769.000
217.7170, 2847.000
218.9400, 2807.000
220.1630, 2842.000
221.3860, 2861.000
222.6090, 2870.000
223.8320, 2842.000
225.0540, 2856.000
226.2760, 2932.000
227.4980, 2906.000
228.7200, 2955.000
229.9420, 2908.000
231.1630, 2942.000
232.3850, 2930.000
233.6060, 2869.000
234.8270, 2877.000
236.0480, 2866.000
237.2690, 2827.000
238.4890, 2847.000
239.7090, 2808.000
240.9290, 2848.000
242.1490, 2855.000
243.3690, 2878.000
244.5890, 2903.000
245.8080, 2881.000
247.0270, 2899.000
248.2470, 2932.000
249.4650, 2896.000
250.6840, 2913.000
251.9030, 2945.000
253.1210, 2934.731
254.3390, 2916.000
255.5570, 2965.000
256.7750, 2995.000
257.9930, 3036.000
259.2100, 3067.312
260.4280, 3086.876
261.6450, 3065.000
262.8620, 3076.711
264.0790, 2944.000
265.2950, 2832.000
266.5120, 2883.000
267.7280, 2919.000
268.9440, 2865.000
270.1600, 2860.000
271.3760, 2875.000
272.5920, 2919.000
273.8070, 2860.000
275.0220, 2949.000
276.2370, 2959.000
277.4520, 2943.039
278.6670, 2961.599
279.8820, 2937.000
281.0960, 2949.000
282.3100, 2974.000
283.5240, 3014.000
284.7380, 3016.000
285.9520, 3006.000
287.1650, 3010.000
288.3780, 3004.000
289.5920, 3024.000
290.8050, 3024.000
292.0170, 3060.000
293.2300, 3093.370
294.4430, 3115.000
295.6550, 3177.000
296.8670, 3193.000
298.0790, 3222.000
299.2910, 3201.000
300.5020, 3248.000
301.7140, 3345.000
302.9250, 3318.000
304.1360, 3393.000
305.3470, 3414.000
306.5580, 3390.000
307.7680, 3463.000
308.9780, 3523.000
310.1890, 3586.000
311.3990, 3644.278
312.6090, 3703.647
313.8180, 3765.000
315.0280, 3821.087
316.2370, 3878.000
317.4460, 3939.000
318.6550, 4001.000
319.8640, 4050.000
321.0730, 4177.000
322.2810, 4180.000
323.4890, 4330.000
324.6980, 4289.000
325.9060, 4283.000
327.1130, 4405.000
328.3210, 4297.000
329.5280, 4233.000
330.7360, 4305.000
331.9430, 4236.000
333.1500, 4133.000
334.3560, 4060.000
335.5630, 4053.000
336.7690, 4025.000
337.9760, 3957.000
339.1820, 3952.000
340.3870, 3866.000
341.5930, 3816.000
342.7990, 3934.000
344.0040, 3911.000
345.2090, 3883.000
346.4140, 3910.000
347.6190, 3844.000
348.8240, 3836.000
350.0280, 3878.000
351.2330, 3942.000
352.4370, 3967.000
353.6410, 3979.000
354.8440, 3999.690
356.0480, 3991.000
357.2520, 3991.000
358.4550, 3981.000
359.6580, 3947.000
360.8610, 3855.000
362.0640, 3914.000
363.2660, 3893.000
364.4690, 3812.000
365.6710, 3865.000
366.8730, 3852.000
368.0750, 3756.000
369.2770, 3751.000
370.4780, 3697.000
371.6800, 3624.000
372.8810, 3705.000
374.0820, 3737.000
375.2830, 3755.000
376.4830, 3759.000
377.6840, 3747.000
378.8840, 3828.000
380.0840, 3852.000
381.2840, 3818.000
382.4840, 3930.000
383.6840, 4069.000
384.8830, 4143.000
386.0830, 4139.000
387.2820, 4249.000
388.4810, 4509.000
389.6800, 4399.000
390.8780, 4470.000
392.0770, 4481.000
393.2750, 4452.000
394.4730, 4441.000
395.6710, 4313.000
396.8690, 4247.000
398.0660, 4112.000
399.2640, 4036.000
400.4610, 3878.000
401.6580, 3800.000
402.8550, 3659.000
404.0520, 3562.000
405.2490, 3508.000
406.4450, 3417.000
407.6410, 3369.000
408.8370, 3337.000
410.0330, 3242.000
411.2290, 3266.000
412.4240, 3234.000
413.6200, 3195.000
414.8150, 3161.000
416.0100, 3194.000
417.2050, 3163.000
418.4000, 3196.000
419.5940, 3234.000
420.7880, 3152.000
421.9830, 3196.000
423.1770, 3186.000
424.3700, 3187.000
425.5640, 3179.000
426.7580, 3186.000
427.9510, 3179.000
429.1440, 3214.000
430.3370, 3216.000
431.5300, 3210.000
432.7220, 3172.000
433.9150, 3154.000
435.1070, 3172.000
436.2990, 3228.000
437.4910, 3229.000
438.6830, 3166.000
439.8750, 3168.000
441.0660, 3134.000
442.2570, 3184.000
443.4480, 3187.000
444.6390, 3134.000
445.8300, 3177.000
447.0210, 3169.000
448.2110, 3206.000
449.4010, 3202.000
450.5910, 3204.000
451.7810, 3197.000
452.9710, 3218.000
454.1610, 3210.000
455.3500, 3223.000
456.5390, 3224.000
457.7280, 3369.000
458.9170, 3316.572
460.1060, 3315.589
461.2940, 3196.904
462.4830, 3340.625
463.6710, 3422.732
464.8590, 3446.541
466.0470, 3237.434
467.2350, 3329.088
468.4220, 3300.209
469.6090, 3266.387
470.7970, 3400.372
471.9840, 3225.140
473.1700, 3356.458
474.3570, 3365.409
475.5440, 3274.000
476.7300, 3274.000
477.9160, 3355.000
479.1020, 3261.000
480.2880, 3264.000
481.4740, 3186.000
482.6590, 3197.340
483.8440, 3227.000
485.0300, 3235.000
486.2140, 3282.000
487.3990, 3321.000
488.5840, 3235.000
489.7680, 3228.000
490.9530, 3259.000
492.1370, 3358.000
493.3210, 3342.000
494.5040, 3264.000
495.6880, 3374.000
496.8720, 3309.000
498.0550, 3317.000
499.2380, 3349.000
500.4210, 3285.000
501.6040, 3319.000
502.7860, 3323.000
503.9690, 3337.000
505.1510, 3389.000
506.3330, 3372.000
507.5150, 3451.000
508.6970, 3402.000
509.8780, 3456.000
511.0600, 3442.000
512.2410, 3427.000
513.4220, 3463.000
514.6030, 3406.000
515.7840, 3473.000
516.9640, 3466.000
518.1440, 3439.000
519.3250, 3442.000
520.5050, 3470.000
521.6850, 3483.000
522.8640, 3554.000
524.0440, 3502.000
525.2230, 3517.000
526.4020, 3475.000
527.5820, 3569.000
528.7600, 3650.000
529.9390, 3674.000
531.1180, 3633.000
532.2960, 3577.000
533.4740, 3652.000
534.6520, 3603.000
535.8300, 3627.000
537.0080, 3591.000
538.1850, 3515.000
539.3630, 3552.000
540.5400, 3595.000
541.7170, 3602.000
542.8940, 3561.000
544.0700, 3587.000
545.2470, 3581.000
546.4230, 3624.000
547.5990, 3596.000
548.7750, 3578.000
549.9510, 3687.000
551.1270, 3598.000
552.3020, 3552.000
553.4780, 3715.000
554.6530, 3633.000
555.8280, 3655.000
557.0030, 3700.000
558.1770, 3670.000
559.3520, 3630.000
560.5260, 3687.000
561.7000, 3561.000
562.8740, 3616.000
564.0480, 3594.000
565.2220, 3535.000
566.3950, 3663.000
567.5680, 3586.000
568.7420, 3464.000
569.9150, 3539.000
571.0870, 3539.000
572.2600, 3567.000
573.4320, 3473.000
574.6050, 3460.000
575.7770, 3456.000
576.9490, 3552.000
578.1210, 3428.000
579.2920, 3443.000
580.4640, 3490.000
581.6350, 3413.000
582.8060, 3433.000
583.9770, 3425.000
585.1480, 3463.000
586.3190, 3393.000
587.4890, 3374.000
588.6590, 3446.000
589.8290, 3464.000
590.9990, 3384.000
592.1690, 3367.000
593.3390, 3368.000
594.5080, 3395.000
595.6770, 3374.504
596.8470, 3347.000
598.0160, 3342.000
599.1840, 3362.000
600.3530, 3311.000
601.5210, 3392.000
602.6900, 3364.000
603.8580, 3424.000
605.0260, 3407.000
606.1930, 3412.000
607.3610, 3377.000
608.5280, 3428.000
609.6960, 3322.000
610.8630, 3415.000
612.0300, 3388.000
613.1970, 3446.000
614.3630, 3441.000
615.5300, 3476.000
616.6960, 3514.000
617.8620, 3424.000
619.0280, 3517.000
620.1940, 3447.000
621.3590, 3495.000
622.5250, 3489.746
623.6900, 3501.594
624.8550, 3504.000
626.0200, 3535.000
627.1850, 3548.682
628.3490, 3586.000
629.5140, 3588.000
630.6780, 3607.000
631.8420, 3614.000
633.0060, 3632.000
634.1700, 3658.000
635.3330, 3694.000
636.4970, 3698.412
637.6600, 3730.000
638.8230, 3726.000
639.9860, 3753.000
641.1490, 3793.000
642.3110, 3855.000
643.4740, 3940.000
644.6360, 4001.000
645.7980, 4121.000
646.9600, 4112.000
648.1220, 4197.000
649.2840, 4342.000
650.4450, 4445.000
651.6060, 4557.000
652.7670, 4738.000
653.9280, 4932.000
655.0890, 5237.657
656.2500, 5603.236
657.4100, 5908.733
658.5700, 6252.595
659.7300, 6635.294
660.8900, 6911.000
662.0500, 7344.000
663.2100, 7639.787
664.3690, 7848.184
665.5280, 7920.178
666.6880, 7897.000
667.8460, 7708.000
669.0050, 7414.000
670.1640, 6979.000
671.3220, 6527.000
672.4810, 6157.000
673.6390, 5754.000
674.7970, 5485.000
675.9540, 5227.000
677.1120, 4948.000
678.2690, 4801.000
679.4270, 4622.000
680.5840, 4374.000
681.7410, 4316.000
682.8980, 4233.000
684.0540, 4117.000
685.2110, 4067.000
686.3670, 3980.000
687.5230, 3968.000
688.6790, 3970.000
689.8350, 3868.000
690.9900, 3808.000
692.1460, 3729.000
693.3010, 3800.000
694.4560, 3743.000
695.6110, 3745.000
696.7660, 3772.000
697.9210, 3705.000
699.0750, 3778.000
700.2290, 3738.000
701.3840, 3754.000
702.5370, 3775.000
703.6910, 3714.000
704.8450, 3661.000
705.9980, 3754.000
707.1520, 3697.000
708.3050, 3730.000
709.4580, 3708.000
710.6110, 3676.000
711.7630, 3707.000
712.9160, 3729.000
714.0680, 3671.000
715.2200, 3678.000
716.3720, 3703.000
717.5240, 3675.000
718.6760, 3679.326
719.8270, 3676.000
720.9780, 3652.000
722.1300, 3623.000
723.2810, 3600.348
724.4310, 3583.156
725.5820, 3610.000
726.7330, 3592.000
727.8830, 3664.000
729.0330, 3647.134
730.1830, 3654.000
731.3330, 3629.000
732.4830, 3665.000
733.6320, 3613.000
734.7810, 3758.000
735.9310, 3764.000
737.0800, 3710.000
738.2290, 3756.000
739.3770, 3747.000
740.5260, 3706.000
741.6740, 3718.000
742.8220, 3730.000
743.9700, 3689.000
745.1180, 3758.000
746.2660, 3774.000
747.4130, 3748.000
748.5610, 3773.000
749.7080, 3789.000
750.8550, 3845.000
752.0020, 3771.000
753.1490, 3867.000
754.2950, 3764.000
755.4420, 3890.000
756.5880, 3893.000
757.7340, 3853.000
758.8800, 3937.000
760.0250, 3947.000
761.1710, 3971.000
762.3160, 3934.000
763.4620, 4030.000
764.6070, 4015.000
765.7520, 4140.000
766.8960, 4086.000
768.0410, 4090.000
769.1850, 4109.000
770.3300, 4073.000
771.4740, 4092.000
772.6180, 4063.000
773.7610, 4173.000
774.9050, 4181.000
776.0480, 4153.000
777.1920, 4087.000
778.3350, 4176.000
779.4780, 4184.000
780.6200, 4109.000
781.7630, 4144.000
782.9060, 4178.000
784.0480, 4142.000
785.1900, 4189.000
786.3320, 4201.000
787.4740, 4130.000
788.6150, 4132.000
789.7570, 4179.000
790.8980, 4097.000
792.0390, 4209.000
793.1800, 4125.000
794.3210, 4081.000
795.4620, 4094.000
796.6020, 4138.000
797.7420, 4108.000
798.8830, 4171.000
800.0230, 4092.000
801.1620, 4118.000
802.3020, 4160.000
803.4420, 4149.000
804.5810, 4134.000
805.7200, 4166.000
806.8590, 4156.000
807.9980, 4110.000
809.1370, 4241.000
810.2750, 4191.000
811.4140, 4261.000
812.5520, 4216.000
813.6900, 4203.000
814.8280, 4242.000
815.9650, 4271.000
817.1030, 4312.000
818.2400, 4234.000
819.3780, 4286.000
820.5150, 4238.000
821.6520, 4259.000
822.7880, 4281.000
823.9250, 4223.000
825.0610, 4268.000
826.1980, 4312.000
827.3340, 4324.000
828.4700, 4249.240
829.6050, 4290.705
830.7410, 4314.567
831.8760, 4321.771
833.0120, 4262.430
834.1470, 4289.019
835.2820, 4281.170
836.4160, 4271.908
837.5510, 4310.591
838.6860, 4260.928
839.8200, 4298.850
840.9540, 4301.808
842.0880, 4292.000
843.2220, 4285.000
844.3550, 4320.000
845.4890, 4311.757
846.6220, 4273.000
847.7550, 4339.000
848.8880, 4331.000
850.0210, 4374.000
851.1540, 4401.000
852.2860, 4455.000
853.4190, 4478.000
854.5510, 4521.000
855.6830, 4489.000
856.8150, 4528.000
857.9460, 4587.000
859.0780, 4685.000
860.2090, 4676.000
861.3410, 4647.000
862.4720, 4681.000
863.6020, 4584.000
864.7330, 4611.000
865.8640, 4639.000
866.9940, 4600.000
868.1240, 4541.000
869.2540, 4569.000
870.3840, 4569.000
871.5140, 4572.000
872.6440, 4580.000
873.7730, 4573.000
874.9020, 4577.400
876.0320, 4610.000
877.1600, 4589.000
878.2890, 4561.000
879.4180, 4589.000
880.5460, 4577.000
881.6750, 4632.000
882.8030, 4609.000
883.9310, 4625.000
885.0590, 4610.000
886.1860, 4607.000
887.3140, 4600.000
888.4410, 4556.000
889.5680, 4563.000
890.6950, 4623.000
891.8220, 4569.000
892.9490, 4683.000
894.0750, 4590.000
895.2020, 4672.000
896.3280, 4639.000
897.4540, 4622.000
898.5800, 4664.000
899.7050, 4648.000
900.8310, 4606.000
901.9560, 4650.000
903.0820, 4649.000
904.2070, 4584.739
905.3320, 4634.569
906.4560, 4666.787
907.5810, 4682.357
908.7050, 4631.371
909.8300, 4666.325
910.9540, 4666.833
912.0780, 4665.930
913.2010, 4712.961
914.3250, 4671.654
915.4480, 4717.925
916.5720, 4729.243
917.6950, 4756.552
918.8180, 4749.212
919.9410, 4752.574
921.0630, 4790.589
922.1860, 4809.420
923.3080, 4798.083
924.4300, 4826.401
925.5520, 4783.867
926.6740, 4803.507
927.7960, 4849.973
928.9170, 4840.369
930.0390, 4869.321
931.1600, 4753.000
932.2810, 4767.000
933.4020, 4803.000
934.5230, 4833.000
935.6430, 4790.000
936.7640, 4879.000
937.8840, 4852.000
939.0040, 4847.000
940.1240, 4889.000
941.2440, 4804.000
942.3630, 4755.000
943.4830, 4860.000
944.6020, 4899.000
945.7210, 4828.000
946.8400, 4833.000
947.9590, 4880.000
949.0770, 4871.000
950.1960, 4955.000
951.3140, 4966.000
952.4320, 4924.000
953.5500, 4976.000
954.6680, 4942.000
955.7860, 4966.000
956.9030, 4948.000
958.0210, 4944.000
959.1380, 4910.000
960.2550, 5030.000
961.3720, 5023.000
962.4890, 5008.000
963.6050, 5027.000
964.7220, 5027.499
965.8380, 4993.000
966.9540, 5057.000
968.0700, 5023.000
969.1860, 5044.000
970.3010, 5140.000
971.4170, 5174.000
972.5320, 5208.000
973.6470, 5149.000
974.7620, 5234.000
975.8770, 5169.000
976.9910, 5234.000
978.1060, 5259.000
979.2200, 5325.000
980.3340, 5357.000
981.4480, 5421.000
982.5620, 5369.000
983.6760, 5441.000
984.7890, 5499.000
985.9030, 5585.000
987.0160, 5606.000
988.1290, 5635.000
989.2420, 5731.000
990.3550, 5763.000
991.4670, 5950.000
992.5800, 5963.000
993.6920, 6236.000
994.8040, 6323.000
995.9160, 6529.000
997.0280, 6706.000
998.1390, 6926.000
999.2510, 7173.573
1000.362, 7470.000
1001.473, 7747.000
1002.584, 8077.000
1003.695, 8472.000
1004.805, 8670.000
1005.916, 9011.000
1007.026, 9311.000
1008.136, 9504.000
1009.246, 9514.000
1010.356, 9559.000
1011.466, 9478.000
1012.576, 9152.000
1013.685, 8647.000
1014.794, 8225.000
1015.903, 7741.000
1017.012, 7433.000
1018.121, 7055.000
1019.229, 6822.000
1020.338, 6574.878
1021.446, 6339.000
1022.554, 6179.000
1023.662, 6004.000
1024.770, 5818.000
1025.878, 5826.000
1026.985, 5749.000
1028.092, 5611.000
1029.200, 5656.000
1030.307, 5629.000
1031.413, 5615.000
1032.520, 5565.000
1033.627, 5555.000
1034.733, 5523.000
1035.839, 5517.000
1036.945, 5521.000
1038.051, 5549.000
1039.157, 5542.000
1040.262, 5567.000
1041.368, 5553.000
1042.473, 5502.000
1043.578, 5525.000
1044.683, 5629.000
1045.788, 5430.000
1046.893, 5570.000
1047.997, 5364.000
1049.101, 5344.000
1050.205, 5388.000
1051.309, 5406.000
1052.413, 5372.000
1053.517, 5380.909
1054.621, 5326.252
1055.724, 5323.000
1056.827, 5216.000
1057.930, 5142.000
1059.033, 5101.000
1060.136, 5146.000
1061.238, 5102.000
1062.341, 5101.000
1063.443, 5092.765
1064.545, 5091.000
1065.647, 5034.000
1066.749, 5081.000
1067.850, 5006.000
1068.952, 5014.000
1070.053, 5092.000
1071.154, 5042.000
1072.255, 5111.000
1073.356, 5149.000
1074.457, 4982.000
1075.557, 5084.000
1076.658, 5060.008
1077.758, 5098.636
1078.858, 5119.662
1079.958, 5124.030
1081.057, 5061.853
1082.157, 5085.606
1083.256, 5074.923
1084.356, 5062.827
1085.455, 5098.675
1086.554, 5046.178
1087.653, 5081.266
1088.751, 5081.393
1089.850, 5097.521
1090.948, 5078.999
1092.046, 5071.180
1093.144, 5098.022
1094.242, 5105.672
1095.340, 5083.162
1096.437, 5100.310
1097.534, 5046.604
1098.632, 5055.071
1099.729, 5090.366
1100.826, 5069.599
1101.922, 5087.381
1103.019, 5090.481
1104.115, 5026.864
1105.212, 5079.275
1106.308, 5081.509
1107.404, 5032.220
1108.499, 5080.659
1109.595, 5038.472
1110.691, 5028.633
1111.786, 5043.138
1112.881, 5032.267
1113.976, 5061.405
1115.071, 5051.999
1116.166, 5038.000
1117.260, 5085.000
1118.355, 5046.000
1119.449, 5061.000
1120.543, 5080.000
1121.637, 5001.000
1122.731, 5099.000
1123.824, 5207.000
1124.918, 5019.000
1126.011, 5023.000
1127.104, 5081.000
1128.197, 5006.000
1129.290, 4941.000
1130.382, 5053.000
1131.475, 5046.000
1132.567, 5048.000
1133.659, 5077.000
1134.751, 4909.000
1135.843, 4957.000
1136.935, 4921.000
1138.027, 4910.000
1139.118, 4982.000
1140.209, 4956.000
1141.300, 4938.000
1142.391, 4922.000
1143.482, 4983.000
1144.573, 4934.000
1145.663, 4883.000
1146.754, 4965.000
1147.844, 4918.000
1148.934, 5074.000
1150.024, 4968.608
1151.113, 4944.000
1152.203, 4840.000
1153.292, 4869.000
1154.381, 4884.000
1155.470, 4874.000
1156.559, 4866.000
1157.648, 5049.000
1158.737, 4933.000
1159.825, 4959.000
1160.913, 4966.000
1162.001, 4881.000
1163.089, 4839.000
1164.177, 4945.000
1165.265, 4960.000
1166.352, 5010.000
1167.440, 4993.000
1168.527, 5029.261
1169.614, 5012.713
1170.701, 5057.000
1171.788, 4988.000
1172.874, 4962.000
1173.961, 4978.000
1175.047, 5080.000
1176.133, 5028.000
1177.219, 5009.000
1178.305, 4982.000
1179.390, 4978.000
1180.476, 4949.000
1181.561, 4935.000
1182.646, 4997.000
1183.731, 4859.000
1184.816, 5000.000
1185.901, 4959.000
1186.985, 4995.000
1188.070, 5058.000
1189.154, 5043.000
1190.238, 5078.000
1191.322, 4946.000
1192.406, 5018.000
1193.489, 5011.000
1194.573, 4976.000
1195.656, 5060.000
1196.739, 5015.000
1197.822, 5081.000
1198.905, 4995.000
1199.988, 4974.000
1201.070, 5018.000
1202.153, 5093.000
1203.235, 5057.000
1204.317, 5078.000
1205.399, 5090.000
1206.481, 5029.000
1207.562, 5100.000
1208.644, 5127.000
1209.725, 5048.000
1210.806, 5116.000
1211.887, 5067.000
1212.968, 5099.000
1214.049, 5123.000
1215.129, 5016.000
1216.209, 5128.000
1217.290, 5027.000
1218.370, 5108.000
1219.450, 5090.000
1220.529, 5138.000
1221.609, 5137.000
1222.688, 5050.000
1223.768, 5071.000
1224.847, 5155.000
1225.926, 5196.000
1227.005, 5089.000
1228.083, 5022.000
1229.162, 5146.000
1230.240, 5181.000
1231.318, 5217.000
1232.396, 5178.000
1233.474, 5084.000
1234.552, 5128.000
1235.629, 5087.000
1236.707, 5103.000
1237.784, 5172.000
1238.861, 5216.000
1239.938, 5097.000
1241.015, 5163.000
1242.092, 5219.000
1243.168, 5102.000
1244.244, 5093.000
1245.321, 5193.000
1246.397, 5189.000
1247.473, 5145.000
1248.548, 5232.000
1249.624, 5160.000
1250.699, 5167.000
1251.775, 5140.000
1252.850, 5142.000
1253.925, 5208.000
1254.999, 5216.000
1256.074, 5221.000
1257.148, 5178.000
1258.223, 5203.000
1259.297, 5146.000
1260.371, 5227.000
1261.445, 5220.000
1262.519, 5225.000
1263.592, 5241.000
1264.666, 5248.000
1265.739, 5247.670
1266.812, 5371.000
1267.885, 5244.000
1268.958, 5301.000
1270.030, 5305.106
1271.103, 5172.000
1272.175, 5276.000
1273.247, 5263.000
1274.319, 5266.000
1275.391, 5232.000
1276.463, 5223.000
1277.535, 5265.000
1278.606, 5316.000
1279.677, 5181.000
1280.748, 5274.000
1281.819, 5317.000
1282.890, 5242.000
1283.961, 5355.000
1285.031, 5252.000
1286.102, 5388.000
1287.172, 5301.000
1288.242, 5345.000
1289.312, 5374.000
1290.381, 5401.000
1291.451, 5291.000
1292.520, 5429.000
1293.590, 5381.000
1294.659, 5331.000
1295.728, 5421.000
1296.797, 5343.000
1297.865, 5309.000
1298.934, 5406.000
1300.002, 5416.000
1301.070, 5369.000
1302.138, 5483.000
1303.206, 5462.000
1304.274, 5383.000
1305.341, 5345.000
1306.409, 5430.000
1307.476, 5359.000
1308.543, 5351.000
1309.610, 5435.000
1310.677, 5425.000
1311.744, 5331.000
1312.810, 5380.000
1313.877, 5405.000
1314.943, 5366.000
1316.009, 5488.000
1317.075, 5427.000
1318.140, 5432.000
1319.206, 5398.000
1320.272, 5535.000
1321.337, 5466.000
1322.402, 5482.000
1323.467, 5550.000
1324.532, 5502.000
1325.596, 5440.000
1326.661, 5474.000
1327.725, 5450.142
1328.790, 5434.509
1329.854, 5455.000
1330.918, 5453.000
1331.981, 5414.000
1333.045, 5509.000
1334.108, 5449.000
1335.172, 5525.000
1336.235, 5505.000
1337.298, 5492.000
1338.361, 5581.000
1339.423, 5437.000
1340.486, 5536.000
1341.548, 5541.000
1342.611, 5541.000
1343.673, 5471.000
1344.735, 5520.000
1345.796, 5505.000
1346.858, 5591.000
1347.919, 5534.000
1348.981, 5547.402
1350.042, 5533.000
1351.103, 5494.000
1352.164, 5558.000
1353.225, 5488.000
1354.285, 5495.000
1355.346, 5589.000
1356.406, 5647.000
1357.466, 5515.000
1358.526, 5595.000
1359.586, 5585.000
1360.645, 5594.000
1361.705, 5609.000
1362.764, 5600.949
1363.823, 5524.000
1364.882, 5613.000
1365.941, 5565.000
1367.000, 5600.000
1368.059, 5632.000
1369.117, 5612.000
1370.175, 5688.000
1371.233, 5590.000
1372.291, 5700.000
1373.349, 5662.000
1374.407, 5557.000
1375.464, 5584.000
1376.522, 5620.000
1377.579, 5646.000
1378.636, 5654.671
1379.693, 5593.000
1380.750, 5633.000
1381.806, 5668.000
1382.863, 5594.000
1383.919, 5678.000
1384.975, 5684.000
1386.031, 5624.000
1387.087, 5711.000
1388.143, 5721.000
1389.199, 5614.000
1390.254, 5683.000
1391.309, 5678.000
1392.364, 5700.000
1393.419, 5710.000
1394.474, 5675.000
1395.529, 5678.000
1396.583, 5617.000
1397.638, 5621.000
1398.692, 5733.000
1399.746, 5735.000
1400.800, 5645.000
1401.853, 5754.000
1402.907, 5763.000
1403.960, 5785.000
1405.014, 5793.344
1406.067, 5801.000
1407.120, 5726.000
1408.173, 5719.000
1409.225, 5629.000
1410.278, 5634.804
1411.330, 5796.000
1412.383, 5640.000
1413.435, 5706.000
1414.487, 5728.000
1415.538, 5702.000
1416.590, 5817.000
1417.641, 5741.000
1418.693, 5790.000
1419.744, 5816.000
1420.795, 5778.000
1421.846, 5864.000
1422.897, 5727.000
1423.947, 5792.000
1424.998, 5892.000
1426.048, 5752.000
1427.098, 5823.000
1428.148, 5826.000
1429.198, 5830.000
1430.247, 5859.000
1431.297, 5821.000
1432.346, 5841.000
1433.396, 5860.000
1434.445, 5797.000
1435.494, 5745.000
1436.542, 5806.000
1437.591, 5816.000
1438.639, 5898.000
1439.688, 5893.348
1440.736, 5930.734
1441.784, 5873.000
1442.832, 5914.000
1443.880, 5850.000
1444.927, 5876.065
1445.975, 5853.000
1447.022, 5891.000
1448.069, 5905.000
1449.116, 5866.000
1450.163, 5752.000
1451.209, 5902.000
1452.256, 5801.000
1453.302, 6041.000
1454.348, 5875.000
1455.394, 5768.000
1456.440, 6001.000
1457.486, 5955.000
1458.532, 5883.000
1459.577, 5903.000
1460.623, 5834.000
1461.668, 5908.000
1462.713, 5847.000
1463.758, 5932.000
1464.802, 5855.000
1465.847, 5919.000
1466.891, 5948.000
1467.936, 6021.000
1468.980, 5854.000
1470.024, 5965.000
1471.067, 5901.000
1472.111, 5943.000
1473.155, 5917.000
1474.198, 5886.000
1475.241, 5957.000
1476.284, 5989.000
1477.327, 5998.000
1478.370, 5910.000
1479.413, 5928.000
1480.455, 5960.000
1481.497, 6003.000
1482.540, 6033.000
1483.582, 5971.000
1484.624, 6050.000
1485.665, 5930.000
1486.707, 5935.000
1487.748, 6028.000
1488.790, 5949.000
1489.831, 5958.000
1490.872, 6036.000
1491.912, 6001.000
1492.953, 6011.000
1493.994, 5978.000
1495.034, 5989.894
1496.074, 5984.000
1497.114, 5998.000
1498.154, 6017.000
1499.194, 5991.000
1500.234, 5977.000
1501.273, 6008.000
1502.313, 6022.997
1503.352, 6076.000
1504.391, 6075.000
1505.430, 6103.000
1506.468, 6071.000
1507.507, 6093.474
1508.545, 6015.000
1509.584, 6122.000
1510.622, 6051.000
1511.660, 6080.000
1512.698, 6065.000
1513.735, 6129.000
1514.773, 6144.000
1515.810, 5963.000
1516.848, 6142.000
1517.885, 6046.000
1518.922, 6171.000
1519.958, 6159.000
1520.995, 6095.000
1522.032, 6168.000
1523.068, 6199.000
1524.104, 6063.000
1525.140, 6124.000
1526.176, 6155.000
1527.212, 6175.000
1528.248, 6148.000
1529.283, 6040.000
1530.318, 6157.000
1531.353, 6111.000
1532.389, 6225.000
1533.423, 6019.000
1534.458, 6226.000
1535.493, 6164.822
1536.527, 6345.000
1537.561, 6181.000
1538.596, 6190.000
1539.630, 6219.000
1540.663, 6167.000
1541.697, 6172.000
1542.731, 6241.000
1543.764, 6225.000
1544.797, 6177.000
1545.830, 6164.000
1546.863, 6148.000
1547.896, 6279.000
1548.929, 6169.000
1549.961, 6235.000
1550.994, 6346.000
1552.026, 6216.000
1553.058, 6260.000
1554.090, 6305.000
1555.121, 6247.000
1556.153, 6298.000
##END=



