##NAMES=Augite
##RRUFFID=R061108
##IDEAL CHEMISTRY=(Ca,Mg,Fe^2+^,Fe^3+^)_2_(Si,Al)_2_O_6_
##LOCALITY=Monti Rossi, near Mt. Etna, Sicily, Italy
##OWNER=RRUFF
##SOURCE=Michael Scott
##DESCRIPTION=Euhedral, short prismatic, black crystals in vesicular basalt.
##STATUS=The identification of this mineral is confirmed by single-crystal X-ray diffraction and chemical analysis.
##URL=rruff.info/R061108
##MEASURED CHEMISTRY=(Ca_0.86_Mg_0.74_Fe^2+^_0.18_Fe^3+^_0.08_Al_0.05_Ti_0.04_Na_0.04_Mn_0.01_)_Σ=2_(Si_1.83_Al_0.17_)_Σ=2_O_6_
##PIN_ID=L01693
##ORIENTATION=Laser parallel to -c* (0 0 -1). Fiducial mark perpendicular to laser is parallel to a [1 0 0]
157.4620, 10118.00
158.6970, 10083.00
159.9310, 10321.00
161.1660, 10173.00
162.4000, 10453.00
163.6330, 10617.00
164.8670, 10584.00
166.1000, 10644.00
167.3340, 10477.00
168.5670, 10650.00
169.8000, 10677.00
171.0320, 10795.00
172.2650, 10759.20
173.4970, 10553.00
174.7290, 10575.00
175.9610, 10516.00
177.1930, 10281.00
178.4240, 10480.00
179.6550, 10508.00
180.8870, 10396.00
182.1170, 10369.00
183.3480, 10349.00
184.5790, 10510.00
185.8090, 10571.00
187.0390, 10584.00
188.2690, 10626.00
189.4990, 10753.00
190.7290, 10568.00
191.9580, 10885.00
193.1870, 10742.00
194.4160, 10823.00
195.6450, 10878.00
196.8740, 10963.00
198.1020, 10963.00
199.3310, 11059.00
200.5590, 11043.00
201.7870, 11058.00
203.0140, 10919.00
204.2420, 10869.00
205.4690, 10631.00
206.6960, 10662.00
207.9230, 10403.00
209.1500, 10610.00
210.3760, 10458.00
211.6030, 10511.00
212.8290, 10550.00
214.0550, 10647.00
215.2810, 10628.00
216.5060, 10542.00
217.7320, 10709.00
218.9570, 10487.00
220.1820, 10653.00
221.4070, 10594.00
222.6320, 10762.00
223.8560, 10625.00
225.0800, 10664.00
226.3040, 10683.00
227.5280, 10785.00
228.7520, 10742.00
229.9760, 10872.00
231.1990, 10968.00
232.4220, 10883.00
233.6450, 10987.00
234.8680, 10920.00
236.0910, 11026.00
237.3130, 11163.00
238.5350, 11389.00
239.7570, 11443.06
240.9790, 11524.00
242.2010, 11632.00
243.4220, 11788.00
244.6430, 11920.98
245.8640, 11966.00
247.0850, 12075.00
248.3060, 12118.00
249.5270, 12130.00
250.7470, 12230.00
251.9670, 12270.61
253.1870, 12356.00
254.4070, 12382.00
255.6260, 12442.00
256.8460, 12322.20
258.0650, 12430.42
259.2840, 12475.12
260.5030, 12459.71
261.7220, 12204.14
262.9400, 12227.00
264.1580, 12154.00
265.3760, 12068.00
266.5940, 12056.00
267.8120, 12033.00
269.0290, 12082.00
270.2470, 11852.00
271.4640, 12010.00
272.6810, 12088.00
273.8980, 11920.00
275.1140, 11985.00
276.3310, 12120.00
277.5470, 12017.00
278.7630, 12111.00
279.9790, 12046.00
281.1940, 12236.00
282.4100, 12254.00
283.6250, 12383.00
284.8400, 12453.24
286.0550, 12543.57
287.2700, 12548.00
288.4850, 12789.00
289.6990, 12795.00
290.9130, 13004.00
292.1270, 13142.00
293.3410, 13215.00
294.5540, 13414.00
295.7680, 13778.00
296.9810, 13892.00
298.1940, 14255.00
299.4070, 14538.00
300.6200, 14676.00
301.8320, 15041.00
303.0450, 15334.00
304.2570, 15653.05
305.4690, 16088.00
306.6800, 16420.00
307.8920, 16873.00
309.1030, 17355.00
310.3150, 17782.00
311.5260, 18311.00
312.7360, 18783.00
313.9470, 19316.00
315.1580, 19815.00
316.3680, 20242.00
317.5780, 20625.00
318.7880, 21141.00
319.9980, 21629.00
321.2070, 22116.00
322.4170, 22330.00
323.6260, 22652.00
324.8350, 22620.00
326.0430, 23002.00
327.2520, 23161.00
328.4610, 22852.00
329.6690, 22537.00
330.8770, 22429.00
332.0850, 22020.00
333.2920, 21935.00
334.5000, 21316.00
335.7070, 20979.00
336.9140, 20718.00
338.1210, 20423.00
339.3280, 19976.00
340.5350, 19576.00
341.7410, 19189.00
342.9470, 18732.00
344.1540, 18651.00
345.3590, 18290.00
346.5650, 17919.00
347.7710, 17556.00
348.9760, 17320.00
350.1810, 17191.00
351.3860, 17029.00
352.5910, 16733.00
353.7950, 16367.00
355.0000, 16264.00
356.2040, 16009.00
357.4080, 15676.00
358.6120, 15546.00
359.8150, 15387.00
361.0190, 15053.00
362.2220, 15023.00
363.4250, 14725.00
364.6280, 14469.00
365.8310, 14269.00
367.0340, 14208.00
368.2360, 14131.00
369.4380, 14003.00
370.6400, 13728.00
371.8420, 13634.00
373.0440, 13628.00
374.2450, 13418.00
375.4470, 13483.00
376.6480, 13491.00
377.8490, 13361.00
379.0490, 13404.00
380.2500, 13298.00
381.4500, 13274.00
382.6510, 13259.00
383.8510, 13324.00
385.0500, 13241.00
386.2500, 13174.00
387.4500, 13178.00
388.6490, 13096.00
389.8480, 13082.00
391.0470, 12907.00
392.2460, 12806.00
393.4440, 12810.00
394.6430, 12390.00
395.8410, 12398.00
397.0390, 12047.00
398.2370, 12060.00
399.4340, 11601.00
400.6320, 11640.00
401.8290, 11544.00
403.0260, 11249.00
404.2230, 11282.00
405.4200, 11117.00
406.6170, 11101.00
407.8130, 10917.00
409.0090, 10851.00
410.2050, 10891.00
411.4010, 10834.00
412.5970, 10859.00
413.7920, 10888.00
414.9880, 10795.00
416.1830, 10767.00
417.3780, 10613.00
418.5730, 10842.00
419.7670, 10824.00
420.9620, 10918.00
422.1560, 10634.00
423.3500, 10664.00
424.5440, 10790.00
425.7380, 10617.00
426.9310, 10733.00
428.1240, 10744.00
429.3180, 10640.00
430.5110, 10698.00
431.7030, 10708.00
432.8960, 10565.00
434.0890, 10470.00
435.2810, 10620.00
436.4730, 10458.00
437.6650, 10545.00
438.8570, 10434.00
440.0480, 10474.00
441.2390, 10435.00
442.4310, 10419.00
443.6220, 10359.00
444.8120, 10377.00
446.0030, 10350.00
447.1940, 10365.00
448.3840, 10506.00
449.5740, 10367.00
450.7640, 10480.00
451.9540, 10324.00
453.1430, 10332.00
454.3330, 10479.00
455.5220, 10654.00
456.7110, 10431.00
457.9000, 10520.00
459.0890, 10634.00
460.2770, 10507.00
461.4650, 10620.00
462.6540, 10385.00
463.8420, 10468.00
465.0290, 10609.00
466.2170, 10444.00
467.4050, 10508.00
468.5920, 10487.00
469.7790, 10624.00
470.9660, 10543.00
472.1530, 10424.00
473.3390, 10583.00
474.5250, 10486.00
475.7120, 10646.00
476.8980, 10452.00
478.0840, 10532.00
479.2690, 10506.00
480.4550, 10593.00
481.6400, 10588.87
482.8250, 10568.90
484.0100, 10594.00
485.1950, 10556.00
486.3800, 10544.00
487.5640, 10638.00
488.7480, 10592.00
489.9320, 10644.00
491.1160, 10677.00
492.3000, 10853.00
493.4840, 10912.00
494.6670, 10978.00
495.8500, 11132.00
497.0330, 11188.00
498.2160, 11267.00
499.3990, 11405.00
500.5810, 11493.00
501.7630, 11637.00
502.9460, 11749.00
504.1280, 11951.00
505.3090, 12065.00
506.4910, 12158.00
507.6720, 12167.00
508.8540, 12212.00
510.0350, 12318.00
511.2160, 12020.00
512.3960, 12215.00
513.5770, 12018.00
514.7570, 11879.00
515.9380, 12090.00
517.1180, 11992.00
518.2970, 11958.00
519.4770, 11968.00
520.6570, 12010.00
521.8360, 12037.00
523.0150, 12157.00
524.1940, 12082.00
525.3730, 12269.00
526.5510, 12249.00
527.7300, 12210.00
528.9080, 12420.00
530.0860, 12365.00
531.2640, 12347.00
532.4420, 12319.00
533.6200, 12322.36
534.7970, 12261.00
535.9740, 12351.00
537.1510, 12310.00
538.3280, 12318.00
539.5050, 12181.00
540.6810, 12215.00
541.8580, 12126.00
543.0340, 11921.00
544.2100, 11740.00
545.3860, 11868.00
546.5610, 11711.00
547.7370, 11729.00
548.9120, 11679.00
550.0870, 11585.77
551.2620, 11689.00
552.4370, 11495.00
553.6120, 11424.00
554.7860, 11502.00
555.9600, 11470.00
557.1340, 11390.00
558.3080, 11346.00
559.4820, 11312.00
560.6560, 11382.00
561.8290, 11379.00
563.0020, 11248.00
564.1750, 11081.00
565.3480, 11233.00
566.5210, 11140.00
567.6930, 11054.00
568.8660, 11036.00
570.0380, 11149.00
571.2100, 11000.00
572.3820, 10914.00
573.5530, 10707.00
574.7250, 10620.00
575.8960, 10436.00
577.0670, 10442.00
578.2380, 10399.00
579.4090, 10193.00
580.5800, 10146.00
581.7500, 10055.00
582.9210, 9854.000
584.0910, 9805.000
585.2610, 9606.000
586.4300, 9661.000
587.6000, 9569.000
588.7690, 9439.000
589.9390, 9386.000
591.1080, 9296.000
592.2770, 9259.761
593.4450, 9261.000
594.6140, 9201.000
595.7820, 9148.000
596.9500, 9085.000
598.1190, 9210.000
599.2860, 9246.000
600.4540, 9223.000
601.6220, 9192.000
602.7890, 9248.528
603.9560, 9253.639
605.1230, 9282.000
606.2900, 9396.000
607.4570, 9302.000
608.6230, 9498.000
609.7890, 9531.000
610.9560, 9559.000
612.1220, 9647.000
613.2870, 9623.000
614.4530, 9632.000
615.6180, 9757.000
616.7840, 9807.000
617.9490, 9946.000
619.1140, 9999.000
620.2790, 10058.00
621.4430, 10063.00
622.6080, 10274.00
623.7720, 10310.00
624.9360, 10427.00
626.1000, 10610.00
627.2640, 10814.00
628.4270, 11046.00
629.5910, 11065.00
630.7540, 11299.00
631.9170, 11580.00
633.0800, 11912.00
634.2430, 12177.00
635.4050, 12548.00
636.5680, 12931.00
637.7300, 13437.00
638.8920, 13829.00
640.0540, 14390.00
641.2150, 14893.00
642.3770, 15672.00
643.5380, 16431.00
644.7000, 17335.00
645.8610, 18323.00
647.0210, 19488.00
648.1820, 20771.00
649.3430, 22495.00
650.5030, 24142.00
651.6630, 26044.00
652.8230, 28544.00
653.9830, 30767.00
655.1430, 33907.00
656.3020, 36573.00
657.4620, 39519.00
658.6210, 42689.00
659.7800, 45373.00
660.9390, 47991.00
662.0970, 50101.00
663.2560, 51271.00
664.4140, 52225.00
665.5720, 52498.00
666.7300, 51461.00
667.8880, 49605.00
669.0460, 46741.00
670.2030, 43070.00
671.3600, 39862.00
672.5180, 36277.00
673.6740, 32849.00
674.8310, 29714.00
675.9880, 26908.00
677.1440, 24679.00
678.3010, 22501.00
679.4570, 20829.00
680.6130, 19211.00
681.7690, 18083.00
682.9240, 17201.00
684.0800, 16195.00
685.2350, 15515.00
686.3900, 15031.00
687.5450, 14349.00
688.7000, 14100.00
689.8540, 13713.00
691.0090, 13263.00
692.1630, 13215.00
693.3170, 12839.00
694.4710, 12742.00
695.6250, 12619.00
696.7780, 12573.00
697.9320, 12393.00
699.0850, 12416.00
700.2380, 12330.00
701.3910, 12371.00
702.5440, 12341.00
703.6970, 12350.00
704.8490, 12333.00
706.0010, 12304.00
707.1530, 12449.00
708.3050, 12242.00
709.4570, 12342.00
710.6090, 12211.00
711.7600, 12047.00
712.9110, 12112.00
714.0620, 12049.00
715.2130, 11979.00
716.3640, 11823.00
717.5150, 11840.00
718.6650, 11589.00
719.8150, 11488.00
720.9650, 11427.00
722.1150, 11204.00
723.2650, 11080.00
724.4150, 11050.00
725.5640, 10864.00
726.7130, 10709.00
727.8630, 10652.00
729.0110, 10607.00
730.1600, 10501.00
731.3090, 10509.00
732.4570, 10409.00
733.6060, 10546.00
734.7540, 10612.00
735.9020, 10461.00
737.0490, 10479.00
738.1970, 10500.00
739.3440, 10722.00
740.4920, 10635.00
741.6390, 10795.76
742.7860, 10887.88
743.9320, 11052.00
745.0790, 11131.00
746.2250, 11353.00
747.3720, 11562.00
748.5180, 11748.00
749.6640, 11718.00
750.8100, 11706.00
751.9550, 11755.00
753.1010, 12052.00
754.2460, 12194.00
755.3910, 12333.00
756.5360, 12520.92
757.6810, 12612.00
758.8250, 12838.00
759.9700, 12780.00
761.1140, 12997.00
762.2580, 13145.00
763.4020, 13316.00
764.5460, 13320.00
765.6900, 13608.00
766.8330, 13736.00
767.9760, 13566.00
769.1200, 13803.00
770.2620, 13647.00
771.4050, 13816.00
772.5480, 13815.00
773.6900, 13809.00
774.8330, 13936.00
775.9750, 13747.00
777.1170, 13895.00
778.2590, 13677.00
779.4000, 13684.00
780.5420, 13701.00
781.6830, 13646.00
782.8240, 13550.00
783.9650, 13484.00
785.1060, 13520.00
786.2470, 13507.00
787.3870, 13551.00
788.5280, 13361.00
789.6680, 13306.00
790.8080, 13337.00
791.9480, 13425.00
793.0870, 13268.00
794.2270, 13378.00
795.3660, 13509.00
796.5060, 13472.00
797.6450, 13328.00
798.7830, 13339.00
799.9220, 13360.00
801.0610, 13332.00
802.1990, 13366.00
803.3370, 13395.25
804.4750, 13405.78
805.6130, 13495.00
806.7510, 13516.00
807.8890, 13593.00
809.0260, 13646.26
810.1630, 13709.00
811.3000, 13739.00
812.4370, 13783.00
813.5740, 13790.00
814.7110, 13946.00
815.8470, 13948.00
816.9830, 13892.00
818.1190, 14055.00
819.2550, 13880.00
820.3910, 13965.00
821.5270, 13967.00
822.6620, 13914.00
823.7970, 13934.00
824.9330, 13826.00
826.0670, 13877.00
827.2020, 13789.00
828.3370, 13857.00
829.4710, 13651.00
830.6060, 13618.00
831.7400, 13530.00
832.8740, 13439.00
834.0080, 13438.00
835.1410, 13406.00
836.2750, 13270.00
837.4080, 13222.00
838.5410, 13043.00
839.6740, 12980.00
840.8070, 12936.00
841.9400, 12810.00
843.0730, 12788.00
844.2050, 12766.65
845.3370, 12825.00
846.4690, 12729.00
847.6010, 12679.00
848.7330, 12562.00
849.8640, 12786.00
850.9960, 12698.00
852.1270, 12871.00
853.2580, 12671.00
854.3890, 12845.00
855.5200, 12737.00
856.6500, 12996.00
857.7810, 13073.00
858.9110, 12894.00
860.0410, 12982.00
861.1710, 12868.00
862.3010, 13060.00
863.4310, 12925.00
864.5600, 12908.00
865.6900, 12933.00
866.8190, 12995.00
867.9480, 12997.00
869.0770, 12966.00
870.2050, 12973.00
871.3340, 13008.00
872.4620, 12939.00
873.5900, 13065.00
874.7180, 13142.00
875.8460, 13136.00
876.9740, 13238.00
878.1010, 13270.00
879.2290, 13130.00
880.3560, 13318.00
881.4830, 13202.00
882.6100, 13456.00
883.7370, 13382.00
884.8630, 13540.00
885.9900, 13691.00
887.1160, 13547.00
888.2420, 13767.00
889.3680, 13742.00
890.4940, 13903.00
891.6200, 13968.00
892.7450, 14077.00
893.8700, 14091.00
894.9960, 14148.00
896.1210, 14180.00
897.2460, 14347.00
898.3700, 14210.00
899.4950, 14472.00
900.6190, 14521.00
901.7430, 14381.00
902.8670, 14563.00
903.9910, 14642.00
905.1150, 14636.00
906.2390, 14766.00
907.3620, 14816.00
908.4850, 14928.00
909.6080, 14981.00
910.7310, 15021.00
911.8540, 15247.00
912.9770, 15196.00
914.0990, 15456.00
915.2210, 15298.00
916.3440, 15649.00
917.4660, 15665.00
918.5870, 15896.00
919.7090, 15994.00
920.8310, 16060.00
921.9520, 16117.00
923.0730, 16364.00
924.1940, 16311.00
925.3150, 16371.00
926.4360, 16424.00
927.5560, 16771.00
928.6770, 16618.00
929.7970, 16680.00
930.9170, 16837.00
932.0370, 16751.00
933.1570, 16835.00
934.2760, 16875.00
935.3960, 16807.00
936.5150, 16732.00
937.6340, 16680.00
938.7530, 16715.00
939.8720, 16903.00
940.9910, 16725.00
942.1090, 16749.00
943.2280, 16938.00
944.3460, 16706.00
945.4640, 16868.00
946.5820, 16780.00
947.6990, 16703.00
948.8170, 16717.00
949.9340, 16740.00
951.0520, 16705.00
952.1690, 16805.00
953.2860, 16740.00
954.4030, 16578.00
955.5190, 16819.00
956.6360, 16672.00
957.7520, 16839.00
958.8680, 16681.00
959.9840, 16848.00
961.1000, 16821.00
962.2160, 16975.00
963.3310, 17062.00
964.4470, 17180.00
965.5620, 17332.00
966.6770, 17524.00
967.7920, 17517.00
968.9060, 17716.00
970.0210, 17862.00
971.1360, 18085.00
972.2500, 18287.00
973.3640, 18446.00
974.4780, 18634.00
975.5920, 18825.00
976.7050, 19133.00
977.8190, 19525.02
978.9320, 19994.00
980.0450, 20441.00
981.1580, 20869.00
982.2710, 21308.00
983.3840, 22126.00
984.4970, 22633.00
985.6090, 23492.00
986.7210, 24636.00
987.8330, 25388.00
988.9450, 26490.00
990.0570, 27736.00
991.1690, 29185.00
992.2800, 30928.00
993.3920, 32507.00
994.5030, 34593.00
995.6140, 36627.00
996.7250, 39092.00
997.8350, 41112.00
998.9460, 43557.00
1000.056, 46425.00
1001.167, 48855.00
1002.277, 51166.00
1003.387, 53886.00
1004.496, 55407.00
1005.606, 56265.00
1006.715, 57605.00
1007.825, 57435.00
1008.934, 56382.00
1010.043, 55308.00
1011.152, 52937.00
1012.260, 50358.00
1013.369, 46770.00
1014.477, 43196.00
1015.586, 39750.00
1016.694, 36278.00
1017.802, 33133.00
1018.909, 30515.00
1020.017, 28317.00
1021.124, 26273.00
1022.232, 24634.00
1023.339, 23616.00
1024.446, 22255.00
1025.553, 21273.00
1026.659, 20657.00
1027.766, 20064.00
1028.872, 19179.00
1029.979, 19060.00
1031.085, 18520.00
1032.191, 18214.00
1033.296, 17763.00
1034.402, 17399.00
1035.507, 17133.00
1036.613, 17057.00
1037.718, 16799.00
1038.823, 16646.00
1039.928, 16449.00
1041.032, 16085.00
1042.137, 16027.00
1043.241, 15766.00
1044.346, 15505.00
1045.450, 15438.00
1046.554, 15323.00
1047.657, 14932.00
1048.761, 14735.00
1049.864, 14500.00
1050.968, 14253.00
1052.071, 14066.00
1053.174, 13903.00
1054.277, 13705.00
1055.379, 13409.00
1056.482, 13397.00
1057.584, 13171.00
1058.687, 13083.00
1059.789, 13027.00
1060.891, 13013.00
1061.992, 12829.00
1063.094, 12732.36
1064.196, 12807.00
1065.297, 12500.00
1066.398, 12470.00
1067.499, 12535.00
1068.600, 12416.00
1069.701, 12287.00
1070.801, 12314.14
1071.902, 12268.00
1073.002, 12275.00
1074.102, 12200.00
1075.202, 12175.00
1076.302, 12141.00
1077.402, 12069.47
1078.501, 12174.00
1079.600, 12007.00
1080.700, 11997.00
1081.799, 12111.00
1082.898, 11893.00
1083.996, 11889.00
1085.095, 11903.00
1086.193, 11828.00
1087.292, 11827.00
1088.390, 11724.00
1089.488, 11682.00
1090.586, 11766.00
1091.683, 11635.00
1092.781, 11637.00
1093.878, 11721.00
1094.975, 11645.00
1096.073, 11567.00
1097.169, 11516.00
1098.266, 11480.48
1099.363, 11389.00
1100.459, 11433.00
1101.556, 11368.00
1102.652, 11328.00
1103.748, 11360.00
1104.844, 11252.00
1105.940, 11162.00
1107.035, 11217.00
1108.131, 11033.00
1109.226, 11064.00
1110.321, 11018.00
1111.416, 11051.00
1112.511, 10905.00
1113.605, 11031.00
1114.700, 10880.00
1115.794, 10641.00
1116.889, 10719.00
1117.983, 10732.00
1119.077, 10535.00
1120.170, 10457.00
1121.264, 10558.00
1122.357, 10309.00
1123.451, 10198.00
1124.544, 10041.00
1125.637, 10015.00
1126.730, 9829.000
1127.823, 9797.000
1128.915, 9678.000
1130.008, 9466.000
1131.100, 9344.000
1132.192, 9213.000
1133.284, 9108.975
1134.376, 9004.828
1135.467, 8963.000
1136.559, 8841.000
1137.650, 8773.000
1138.742, 8744.000
1139.833, 8650.000
1140.924, 8438.000
1142.014, 8385.000
1143.105, 8427.000
1144.195, 8293.000
1145.286, 8315.000
1146.376, 8203.000
1147.466, 8098.000
1148.556, 8066.000
1149.646, 7887.000
1150.735, 7958.000
1151.825, 7769.000
1152.914, 7801.000
1154.003, 7771.000
1155.092, 7717.000
1156.181, 7785.000
1157.270, 7717.000
1158.358, 7718.000
1159.447, 7735.000
1160.535, 7728.000
1161.623, 7591.000
1162.711, 7559.000
1163.799, 7645.000
1164.886, 7573.000
1165.974, 7620.000
1167.061, 7695.000
1168.148, 7612.000
1169.235, 7568.000
1170.322, 7452.000
1171.409, 7598.000
1172.496, 7571.000
1173.582, 7630.000
1174.669, 7474.000
1175.755, 7493.000
1176.841, 7563.000
1177.927, 7660.000
1179.012, 7547.000
1180.098, 7491.000
1181.183, 7533.000
1182.269, 7590.000
1183.354, 7557.000
1184.439, 7545.000
1185.524, 7531.000
1186.608, 7495.392
1187.693, 7433.000
1188.777, 7438.000
1189.862, 7490.000
1190.946, 7484.000
1192.030, 7611.000
1193.113, 7422.000
1194.197, 7418.000
1195.281, 7348.000
1196.364, 7456.000
1197.447, 7413.000
1198.530, 7380.000
1199.613, 7422.000
1200.696, 7437.000
1201.779, 7436.000
1202.861, 7411.000
1203.944, 7405.000
1205.026, 7477.000
1206.108, 7425.000
1207.190, 7424.000
1208.271, 7439.085
1209.353, 7339.000
1210.435, 7476.000
1211.516, 7445.000
1212.597, 7535.000
1213.678, 7394.000
1214.759, 7480.000
1215.840, 7429.000
1216.920, 7343.000
1218.001, 7355.000
1219.081, 7411.000
1220.161, 7382.000
1221.241, 7410.107
1222.321, 7392.000
1223.401, 7432.000
1224.480, 7470.000
1225.560, 7497.000
1226.639, 7422.000
1227.718, 7502.000
1228.797, 7476.000
1229.876, 7350.000
1230.955, 7418.000
1232.033, 7399.000
1233.112, 7450.000
1234.190, 7608.998
1235.268, 7426.000
1236.346, 7512.856
1237.424, 7606.000
1238.501, 7499.000
1239.579, 7494.000
1240.656, 7513.000
1241.733, 7481.000
1242.811, 7408.000
1243.888, 7395.000
1244.964, 7380.039
1246.041, 7332.000
1247.117, 7383.000
1248.194, 7425.000
1249.270, 7432.327
1250.346, 7435.851
1251.422, 7448.000
1252.498, 7447.703
1253.573, 7448.729
1254.649, 7445.000
1255.724, 7447.000
1256.800, 7435.026
1257.875, 7438.660
1258.950, 7389.000
1260.024, 7427.000
1261.099, 7399.000
1262.173, 7392.000
1263.248, 7426.000
1264.322, 7448.000
1265.396, 7513.000
1266.470, 7439.000
1267.544, 7566.000
1268.617, 7452.000
1269.691, 7450.000
1270.764, 7368.000
1271.837, 7408.000
1272.910, 7450.000
1273.983, 7514.000
1275.056, 7354.000
1276.129, 7539.000
1277.201, 7421.000
1278.273, 7384.000
1279.346, 7439.000
1280.418, 7418.000
1281.489, 7360.000
1282.561, 7292.000
1283.633, 7338.727
1284.704, 7339.000
1285.776, 7395.000
1286.847, 7446.000
1287.918, 7407.000
1288.989, 7422.000
1290.059, 7521.000
1291.130, 7431.000
1292.200, 7373.000
1293.271, 7451.000
1294.341, 7432.000
1295.411, 7409.000
1296.481, 7386.000
1297.551, 7398.000
1298.620, 7385.000
1299.690, 7351.000
1300.759, 7381.000
1301.828, 7394.246
1302.897, 7401.000
1303.966, 7481.000
1305.035, 7418.000
1306.103, 7485.000
1307.172, 7559.000
1308.240, 7433.000
1309.308, 7432.000
1310.376, 7459.000
1311.444, 7388.000
1312.512, 7454.000
1313.580, 7444.000
1314.647, 7451.000
1315.714, 7440.000
1316.781, 7464.000
1317.848, 7419.000
1318.915, 7484.000
1319.982, 7588.000
1321.049, 7530.000
1322.115, 7557.628
1323.181, 7457.000
1324.248, 7513.000
1325.314, 7493.000
1326.380, 7500.000
1327.445, 7561.000
1328.511, 7430.000
1329.576, 7540.000
1330.642, 7435.000
1331.707, 7488.000
1332.772, 7608.000
1333.837, 7552.000
1334.902, 7499.000
1335.966, 7489.000
1337.031, 7411.000
1338.095, 7402.000
1339.159, 7455.000
1340.223, 7398.000
1341.287, 7439.000
1342.351, 7455.000
1343.415, 7478.000
1344.478, 7491.000
1345.541, 7443.000
1346.605, 7388.000
1347.668, 7541.000
1348.731, 7482.000
1349.793, 7475.000
1350.856, 7566.000
1351.918, 7529.000
1352.981, 7431.000
1354.043, 7437.000
1355.105, 7450.000
1356.167, 7537.000
1357.229, 7461.000
1358.290, 7463.000
1359.352, 7358.000
1360.413, 7433.000
1361.475, 7482.000
1362.536, 7498.000
1363.597, 7320.000
1364.657, 7402.000
1365.718, 7396.000
1366.779, 7378.000
1367.839, 7473.000
1368.899, 7351.000
1369.959, 7451.000
1371.019, 7373.000
1372.079, 7444.000
1373.139, 7379.000
1374.198, 7489.000
1375.258, 7536.000
1376.317, 7486.000
1377.376, 7509.568
1378.435, 7534.000
1379.494, 7472.000
1380.553, 7398.000
1381.611, 7451.000
1382.670, 7403.000
1383.728, 7324.000
1384.786, 7450.000
1385.844, 7580.000
1386.902, 7485.911
1387.960, 7439.000
1389.017, 7401.000
1390.075, 7444.000
1391.132, 7451.000
1392.189, 7394.000
1393.246, 7415.000
1394.303, 7395.000
1395.360, 7414.000
1396.417, 7420.024
1397.473, 7436.943
1398.529, 7443.000
1399.585, 7471.000
1400.642, 7490.000
1401.697, 7473.000
1402.753, 7490.000
1403.809, 7472.000
1404.864, 7524.000
1405.920, 7477.000
1406.975, 7463.000
1408.030, 7394.000
1409.085, 7414.000
1410.140, 7399.000
1411.194, 7503.000
1412.249, 7339.000
1413.303, 7450.000
1414.358, 7544.000
1415.412, 7493.000
1416.466, 7563.543
1417.520, 7484.000
1418.573, 7569.000
1419.627, 7458.000
1420.680, 7427.000
1421.733, 7420.000
1422.787, 7421.000
1423.840, 7423.000
1424.892, 7453.000
1425.945, 7456.083
1426.998, 7466.788
1428.050, 7488.000
1429.103, 7470.000
1430.155, 7492.000
1431.207, 7469.000
1432.259, 7441.000
1433.310, 7461.000
1434.362, 7380.000
1435.414, 7412.000
1436.465, 7383.000
1437.516, 7457.000
1438.567, 7414.000
1439.618, 7377.000
1440.669, 7426.000
1441.720, 7383.000
1442.770, 7417.000
1443.820, 7490.000
1444.871, 7369.000
1445.921, 7469.000
1446.971, 7472.000
1448.021, 7457.000
1449.070, 7503.000
1450.120, 7490.000
1451.169, 7409.000
1452.219, 7319.000
1453.268, 7415.000
1454.317, 7450.000
1455.366, 7530.000
1456.414, 7466.000
1457.463, 7437.000
1458.511, 7458.000
1459.560, 7412.000
1460.608, 7284.000
1461.656, 7413.000
1462.704, 7354.000
1463.752, 7466.000
1464.799, 7430.000
1465.847, 7349.000
1466.894, 7416.000
1467.941, 7404.000
1468.988, 7376.000
1470.035, 7426.571
1471.082, 7432.376
1472.129, 7466.000
1473.175, 7495.000
1474.222, 7487.000
1475.268, 7504.000
1476.314, 7498.026
1477.360, 7504.432
1478.406, 7495.000
1479.452, 7490.000
1480.498, 7520.000
1481.543, 7463.000
1482.588, 7543.000
1483.633, 7449.000
1484.679, 7472.000
1485.723, 7530.000
1486.768, 7494.000
1487.813, 7536.000
1488.857, 7523.000
1489.902, 7563.000
1490.946, 7546.000
1491.990, 7539.000
1493.034, 7540.000
1494.078, 7502.000
1495.122, 7624.000
1496.165, 7717.000
1497.209, 7589.000
1498.252, 7588.000
1499.295, 7565.000
1500.338, 7659.000
1501.381, 7597.000
1502.424, 7557.000
1503.466, 7601.000
1504.509, 7576.000
1505.551, 7612.000
1506.593, 7563.000
1507.635, 7605.000
1508.677, 7661.000
1509.719, 7664.000
1510.761, 7576.000
1511.802, 7710.000
1512.844, 7637.000
1513.885, 7623.549
1514.926, 7750.000
1515.967, 7605.000
1517.008, 7681.000
1518.049, 7790.000
1519.089, 7613.000
1520.130, 7578.000
1521.170, 7746.000
1522.210, 7761.000
1523.250, 7659.000
1524.290, 7694.000
1525.330, 7602.000
1526.370, 7640.000
1527.409, 7579.000
1528.448, 7740.000
1529.488, 7720.000
1530.527, 7757.000
1531.566, 7800.450
1532.605, 7696.000
1533.643, 7791.000
1534.682, 7725.000
1535.720, 7641.000
1536.759, 7732.000
1537.797, 7663.000
1538.835, 7612.000
1539.873, 7653.000
1540.910, 7623.000
1541.948, 7595.858
1542.986, 7736.461
1544.023, 7813.543
1545.060, 7830.512
1546.097, 7607.326
1547.134, 7694.250
1548.171, 7656.896
1549.208, 7614.447
1550.244, 7745.022
1551.281, 7556.766
1552.317, 7684.598
1553.353, 7686.255
1554.389, 7745.659
1555.425, 7680.017
1556.461, 7652.997
1557.497, 7751.064
1558.532, 7779.875
1559.567, 7699.841
1560.603, 7532.000
1561.638, 7551.000
1562.673, 7588.000
1563.708, 7709.000
##END=



