##NAMES=Augite
##RRUFFID=R070231
##IDEAL CHEMISTRY=(Ca,Mg,Fe^2+^,Fe^3+^)_2_(Si,Al)_2_O_6_
##LOCALITY=Old Goose Creek Quarry, Leesburg, Loudoun County, Virginia, USA
##OWNER=RRUFF
##SOURCE=Michael Scott
##DESCRIPTION=Very dark grey-green prismatic crystals frozen in quartz
##STATUS=The identification of this mineral is confirmed by single-crystal X-ray diffraction and chemical analysis.
##URL=rruff.info/R070231
##MEASURED CHEMISTRY=(Mg_0.44_Fe_0.37_Ca_0.17_Ti_0.01_Mn_0.01_)_Σ=1_(Si_0.98_Al_0.02_)_Σ=1_O_3_
##PIN_ID=M00357
##ORIENTATION=Laser parallel to b* (0 1 0). Fiducial mark perpendicular to laser is parallel to c [0 0 1]
110.2640, 15096.00
111.5030, 15694.00
112.7420, 15854.00
113.9810, 17064.00
115.2200, 17617.00
116.4580, 17909.00
117.6970, 17967.00
118.9350, 17954.00
120.1730, 18128.00
121.4100, 18965.00
122.6480, 20208.00
123.8850, 20540.00
125.1230, 20492.00
126.3600, 20463.00
127.5960, 20947.00
128.8330, 21674.00
130.0700, 21907.00
131.3060, 21424.00
132.5420, 20191.00
133.7780, 19439.00
135.0140, 18923.00
136.2500, 18562.00
137.4850, 18785.00
138.7200, 19299.00
139.9550, 18814.00
141.1900, 18056.00
142.4250, 17388.00
143.6600, 17218.00
144.8940, 16922.00
146.1280, 16926.00
147.3620, 16760.00
148.5960, 16153.00
149.8300, 16384.00
151.0630, 16348.00
152.2960, 15874.00
153.5300, 15783.00
154.7620, 15931.00
155.9950, 15446.00
157.2280, 15275.00
158.4600, 15149.00
159.6920, 15090.00
160.9250, 15412.00
162.1560, 15598.00
163.3880, 15916.00
164.6200, 15938.00
165.8510, 16129.51
167.0820, 15966.00
168.3130, 16329.00
169.5440, 16523.00
170.7750, 16586.00
172.0050, 16295.00
173.2350, 16366.00
174.4650, 16323.00
175.6950, 16465.00
176.9250, 16588.00
178.1550, 16725.00
179.3840, 16534.00
180.6130, 16471.00
181.8420, 16336.00
183.0710, 16433.00
184.3000, 16438.00
185.5280, 16484.00
186.7570, 16475.00
187.9850, 16343.00
189.2130, 16275.00
190.4400, 16368.00
191.6680, 16589.00
192.8960, 16506.00
194.1230, 16368.00
195.3500, 16165.00
196.5770, 16183.00
197.8030, 16217.00
199.0300, 16386.00
200.2560, 16523.00
201.4830, 16294.00
202.7090, 15834.00
203.9340, 15088.00
205.1600, 14447.00
206.3860, 14061.00
207.6110, 13947.00
208.8360, 14130.00
210.0610, 13995.00
211.2860, 14137.00
212.5100, 14211.00
213.7350, 14114.00
214.9590, 14117.00
216.1830, 14157.00
217.4070, 14195.00
218.6310, 14126.00
219.8540, 13992.00
221.0780, 14107.00
222.3010, 14089.00
223.5240, 13987.00
224.7470, 13787.00
225.9690, 13856.00
227.1920, 13901.00
228.4140, 13874.00
229.6360, 13865.00
230.8580, 13869.00
232.0800, 13717.00
233.3020, 13735.82
234.5230, 13679.70
235.7440, 13709.00
236.9650, 13591.00
238.1860, 13653.00
239.4070, 13567.00
240.6280, 13167.00
241.8480, 13246.00
243.0680, 13130.00
244.2880, 13191.00
245.5080, 13156.00
246.7280, 12959.00
247.9470, 12678.43
249.1660, 12840.54
250.3860, 12919.67
251.6040, 12920.33
252.8230, 12607.36
254.0420, 12699.36
255.2600, 12629.09
256.4790, 12552.14
257.6970, 12701.17
258.9150, 12433.83
260.1320, 12579.30
261.3500, 12559.97
262.5670, 12616.07
263.7840, 12508.87
265.0010, 12452.12
266.2180, 12516.00
267.4350, 12431.00
268.6510, 12421.00
269.8680, 12382.00
271.0840, 12383.00
272.3000, 12408.79
273.5160, 12440.53
274.7310, 12505.00
275.9470, 12526.00
277.1620, 12611.00
278.3770, 12590.00
279.5920, 12577.00
280.8070, 12500.00
282.0210, 12730.00
283.2360, 12777.00
284.4500, 13061.00
285.6640, 12979.00
286.8780, 13057.00
288.0920, 13094.00
289.3050, 13253.00
290.5180, 13355.88
291.7320, 13510.01
292.9450, 13654.00
294.1570, 13864.00
295.3700, 14046.00
296.5830, 14239.00
297.7950, 14534.07
299.0070, 14911.00
300.2190, 15191.00
301.4310, 15522.00
302.6420, 15957.00
303.8540, 16543.00
305.0650, 16881.00
306.2760, 17627.00
307.4870, 18310.00
308.6980, 18936.00
309.9080, 19753.00
311.1190, 20454.00
312.3290, 21382.00
313.5390, 22125.00
314.7490, 22500.00
315.9580, 22780.00
317.1680, 23021.00
318.3770, 23298.00
319.5860, 22950.00
320.7950, 22638.00
322.0040, 22032.00
323.2130, 21631.00
324.4210, 20523.00
325.6290, 20003.00
326.8380, 19305.00
328.0460, 18774.00
329.2530, 18147.00
330.4610, 17750.00
331.6680, 17277.00
332.8760, 17117.00
334.0830, 16717.00
335.2890, 16697.00
336.4960, 16368.00
337.7030, 16311.00
338.9090, 16135.00
340.1150, 16069.00
341.3210, 16099.00
342.5270, 16112.00
343.7330, 16236.00
344.9380, 16188.00
346.1440, 16207.33
347.3490, 16314.00
348.5540, 16176.00
349.7590, 16116.00
350.9630, 16118.00
352.1680, 16125.00
353.3720, 16074.00
354.5760, 15855.00
355.7800, 15719.00
356.9840, 15561.33
358.1870, 15371.18
359.3910, 15220.00
360.5940, 15037.00
361.7970, 14885.00
363.0000, 14764.00
364.2030, 14860.00
365.4050, 14706.00
366.6080, 14739.00
367.8100, 14519.00
369.0120, 14698.00
370.2140, 14887.00
371.4150, 14924.00
372.6170, 15110.00
373.8180, 15115.00
375.0190, 15292.00
376.2200, 15648.00
377.4210, 15895.00
378.6220, 16014.00
379.8220, 16163.00
381.0230, 16589.00
382.2230, 16563.00
383.4230, 16742.00
384.6220, 16780.00
385.8220, 16512.00
387.0220, 16384.00
388.2210, 16161.72
389.4200, 15846.23
390.6190, 15574.00
391.8180, 15145.00
393.0160, 14721.00
394.2150, 14263.00
395.4130, 13958.00
396.6110, 13523.00
397.8090, 13297.00
399.0060, 13008.00
400.2040, 12579.00
401.4010, 12659.00
402.5980, 12265.00
403.7950, 12291.00
404.9920, 12027.00
406.1890, 12026.00
407.3860, 12061.00
408.5820, 11700.00
409.7780, 11791.00
410.9740, 11659.00
412.1700, 11681.00
413.3650, 11567.00
414.5610, 11684.00
415.7560, 11654.00
416.9510, 11565.00
418.1460, 11525.00
419.3410, 11568.00
420.5360, 11585.00
421.7300, 11648.00
422.9240, 11658.00
424.1180, 11657.00
425.3120, 11722.00
426.5060, 11718.00
427.7000, 11625.00
428.8930, 11616.00
430.0860, 11478.00
431.2790, 11458.00
432.4720, 11337.00
433.6650, 11308.00
434.8580, 11371.00
436.0500, 11270.00
437.2420, 11223.00
438.4340, 11105.00
439.6260, 11081.01
440.8180, 11114.00
442.0090, 11005.00
443.2010, 10977.00
444.3920, 10902.00
445.5830, 10867.00
446.7740, 10862.91
447.9640, 10814.00
449.1550, 10876.00
450.3450, 10923.00
451.5350, 10944.00
452.7250, 10831.00
453.9150, 10880.00
455.1050, 10846.08
456.2940, 10718.00
457.4830, 10744.00
458.6720, 10696.00
459.8610, 10651.23
461.0500, 10610.00
462.2390, 10587.00
463.4270, 10537.00
464.6150, 10493.00
465.8040, 10465.00
466.9910, 10512.00
468.1790, 10463.00
469.3670, 10359.00
470.5540, 10524.00
471.7410, 10480.00
472.9280, 10357.00
474.1150, 10528.00
475.3020, 10523.00
476.4890, 10668.00
477.6750, 10685.00
478.8610, 10559.00
480.0470, 10596.00
481.2330, 10729.00
482.4190, 10744.00
483.6040, 10842.00
484.7900, 10930.30
485.9750, 10930.00
487.1600, 11103.00
488.3450, 11273.00
489.5290, 11355.00
490.7140, 11591.00
491.8980, 11772.00
493.0820, 11895.00
494.2660, 12205.00
495.4500, 12472.00
496.6340, 12647.00
497.8170, 12937.00
499.0010, 13393.00
500.1840, 13491.00
501.3670, 13935.00
502.5500, 13933.00
503.7320, 13907.00
504.9150, 14107.00
506.0970, 13860.00
507.2790, 13786.00
508.4610, 13786.00
509.6430, 13807.00
510.8250, 13648.00
512.0060, 13689.00
513.1870, 13539.00
514.3680, 14018.00
515.5490, 13830.04
516.7300, 14214.00
517.9110, 13801.00
519.0910, 14054.00
520.2710, 14102.00
521.4510, 14022.00
522.6310, 14182.00
523.8110, 14413.00
524.9910, 14489.00
526.1700, 14763.00
527.3490, 14652.00
528.5280, 14716.00
529.7070, 14824.00
530.8860, 14598.00
532.0650, 14680.00
533.2430, 14861.00
534.4210, 14812.00
535.5990, 14776.90
536.7770, 14748.26
537.9550, 14538.00
539.1320, 14523.00
540.3100, 14391.00
541.4870, 14380.90
542.6640, 14449.00
543.8410, 14427.00
545.0170, 14546.00
546.1940, 14624.00
547.3700, 14812.00
548.5470, 14768.00
549.7230, 15009.00
550.8980, 15354.00
552.0740, 15275.00
553.2500, 15537.00
554.4250, 15500.00
555.6000, 15415.00
556.7750, 15142.00
557.9500, 15066.00
559.1250, 14807.03
560.2990, 14395.00
561.4730, 14402.00
562.6480, 13991.00
563.8220, 13965.00
564.9950, 13769.00
566.1690, 13404.00
567.3430, 13272.00
568.5160, 13030.00
569.6890, 12840.00
570.8620, 12753.00
572.0350, 12370.00
573.2070, 12364.00
574.3800, 12011.00
575.5520, 11916.00
576.7240, 11729.00
577.8960, 11655.00
579.0680, 11457.00
580.2400, 11216.00
581.4110, 11068.00
582.5830, 10918.00
583.7540, 10791.86
584.9250, 10658.29
586.0950, 10641.00
587.2660, 10509.00
588.4370, 10506.00
589.6070, 10479.80
590.7770, 10420.00
591.9470, 10449.00
593.1170, 10421.35
594.2860, 10433.00
595.4560, 10431.00
596.6250, 10456.00
597.7940, 10492.00
598.9630, 10496.00
600.1320, 10614.00
601.3000, 10606.00
602.4690, 10655.00
603.6370, 10585.00
604.8050, 10621.00
605.9730, 10860.00
607.1410, 10975.00
608.3090, 10924.00
609.4760, 10887.00
610.6430, 11068.00
611.8100, 11147.00
612.9770, 11336.00
614.1440, 11334.00
615.3110, 11353.00
616.4770, 11535.00
617.6430, 11524.00
618.8090, 11779.00
619.9750, 11807.00
621.1410, 11939.00
622.3070, 12106.00
623.4720, 12152.00
624.6370, 12246.00
625.8020, 12376.00
626.9670, 12570.00
628.1320, 12835.00
629.2970, 12917.00
630.4610, 13255.00
631.6250, 13398.00
632.7890, 13763.00
633.9530, 13948.00
635.1170, 14369.00
636.2810, 14741.00
637.4440, 14959.00
638.6070, 15548.00
639.7700, 16000.00
640.9330, 16566.00
642.0960, 17106.00
643.2590, 17887.00
644.4210, 18634.00
645.5830, 19508.00
646.7450, 20551.00
647.9070, 21707.00
649.0690, 23191.00
650.2310, 24828.00
651.3920, 26946.00
652.5530, 29153.00
653.7140, 31838.00
654.8750, 34659.00
656.0360, 38355.00
657.1970, 41606.00
658.3570, 45196.00
659.5170, 48437.00
660.6770, 51318.00
661.8370, 53649.00
662.9970, 53320.00
664.1570, 52559.00
665.3160, 50261.00
666.4750, 47605.00
667.6340, 43809.00
668.7930, 39926.00
669.9520, 36390.00
671.1110, 33142.00
672.2690, 30183.00
673.4270, 27530.00
674.5850, 25348.12
675.7430, 23492.00
676.9010, 21943.00
678.0590, 20740.00
679.2160, 19828.00
680.3730, 18899.00
681.5300, 18163.00
682.6870, 17717.00
683.8440, 17217.00
685.0010, 16808.00
686.1570, 16599.00
687.3130, 16475.00
688.4690, 16302.00
689.6250, 16076.00
690.7810, 15994.00
691.9370, 15936.00
693.0920, 15877.39
694.2470, 16064.00
695.4020, 15978.00
696.5570, 16128.00
697.7120, 16401.00
698.8670, 16569.00
700.0210, 16715.14
701.1750, 16761.00
702.3290, 16973.00
703.4830, 17132.00
704.6370, 17249.00
705.7910, 17611.00
706.9440, 17592.00
708.0970, 17722.00
709.2510, 18070.00
710.4030, 17897.00
711.5560, 18146.00
712.7090, 18268.00
713.8610, 18437.00
715.0140, 18505.33
716.1660, 18551.41
717.3180, 18581.00
718.4690, 18628.00
719.6210, 18672.00
720.7730, 18839.00
721.9240, 18784.00
723.0750, 18724.93
724.2260, 18480.00
725.3770, 18469.00
726.5270, 18403.00
727.6780, 18284.00
728.8280, 18070.00
729.9780, 17772.00
731.1280, 17783.00
732.2780, 17599.00
733.4280, 17387.00
734.5770, 17306.00
735.7260, 17190.00
736.8760, 16955.00
738.0250, 16696.00
739.1730, 16558.00
740.3220, 16312.00
741.4700, 15964.00
742.6190, 15874.00
743.7670, 15521.00
744.9150, 15381.00
746.0630, 15089.00
747.2100, 15017.00
748.3580, 14708.00
749.5050, 14707.00
750.6520, 14491.00
751.7990, 14400.00
752.9460, 14284.00
754.0930, 14148.00
755.2390, 14173.00
756.3860, 14083.00
757.5320, 14014.00
758.6780, 13841.00
759.8240, 13952.00
760.9690, 13989.00
762.1150, 13790.00
763.2600, 13816.00
764.4060, 13819.00
765.5510, 13704.00
766.6950, 13818.00
767.8400, 13661.00
768.9850, 13790.00
770.1290, 13736.00
771.2730, 13756.00
772.4170, 13806.00
773.5610, 13708.54
774.7050, 13636.00
775.8480, 13575.00
776.9920, 13497.00
778.1350, 13472.00
779.2780, 13458.57
780.4210, 13624.00
781.5640, 13460.00
782.7060, 13533.00
783.8490, 13505.00
784.9910, 13484.33
786.1330, 13652.00
787.2750, 13437.00
788.4170, 13529.00
789.5580, 13372.00
790.7000, 13160.00
791.8410, 13251.00
792.9820, 13133.08
794.1230, 13263.00
795.2640, 13129.00
796.4040, 13099.00
797.5450, 13139.00
798.6850, 13084.00
799.8250, 13172.00
800.9650, 13004.00
802.1050, 12929.00
803.2450, 12971.00
804.3840, 12947.00
805.5230, 12914.00
806.6630, 12917.59
807.8020, 12836.00
808.9400, 12867.00
810.0790, 12843.00
811.2170, 12787.00
812.3560, 12790.00
813.4940, 12893.00
814.6320, 12738.00
815.7700, 12887.00
816.9070, 12864.00
818.0450, 12747.00
819.1820, 12748.00
820.3190, 12736.00
821.4560, 12805.00
822.5930, 12774.60
823.7300, 12781.77
824.8670, 12738.00
826.0030, 12759.00
827.1390, 12695.00
828.2750, 12675.00
829.4110, 12704.00
830.5470, 12646.00
831.6820, 12616.33
832.8180, 12670.00
833.9530, 12517.00
835.0880, 12495.00
836.2230, 12462.00
837.3580, 12296.00
838.4920, 12352.00
839.6270, 12423.00
840.7610, 12359.00
841.8950, 12396.00
843.0290, 12376.00
844.1630, 12353.00
845.2960, 12396.00
846.4300, 12521.00
847.5630, 12526.00
848.6960, 12637.00
849.8290, 12659.00
850.9620, 12779.00
852.0940, 12964.00
853.2270, 13137.00
854.3590, 13062.00
855.4910, 13201.00
856.6230, 13379.00
857.7550, 13437.00
858.8870, 13318.00
860.0180, 13236.00
861.1500, 13344.00
862.2810, 13301.00
863.4120, 13261.00
864.5430, 13271.33
865.6730, 13051.00
866.8040, 13198.00
867.9340, 13036.00
869.0640, 12969.00
870.1940, 13015.00
871.3240, 13014.00
872.4540, 13027.00
873.5830, 13041.00
874.7130, 13067.13
875.8420, 13103.47
876.9710, 13142.17
878.1000, 13180.00
879.2290, 13238.00
880.3570, 13302.00
881.4860, 13385.00
882.6140, 13457.00
883.7420, 13549.00
884.8700, 13573.82
885.9980, 13613.00
887.1250, 13619.00
888.2530, 13651.00
889.3800, 13674.35
890.5070, 13747.19
891.6340, 13809.00
892.7610, 13855.00
893.8880, 13959.00
895.0140, 13888.00
896.1400, 13820.00
897.2670, 13848.00
898.3930, 14025.00
899.5180, 13959.00
900.6440, 14188.00
901.7700, 14082.00
902.8950, 14044.00
904.0200, 14246.00
905.1450, 14174.00
906.2700, 14317.00
907.3950, 14305.00
908.5190, 14301.00
909.6440, 14293.00
910.7680, 14418.00
911.8920, 14495.00
913.0160, 14582.00
914.1400, 14665.00
915.2630, 14725.00
916.3870, 14603.00
917.5100, 14604.00
918.6330, 14817.00
919.7560, 14735.00
920.8790, 14840.00
922.0010, 14718.00
923.1240, 14877.00
924.2460, 14715.00
925.3680, 14648.00
926.4900, 14656.00
927.6120, 14558.00
928.7340, 14674.00
929.8550, 14546.00
930.9760, 14389.00
932.0980, 14607.00
933.2190, 14421.00
934.3390, 14413.00
935.4600, 14371.00
936.5810, 14173.00
937.7010, 14245.00
938.8210, 14153.00
939.9410, 14207.00
941.0610, 14224.00
942.1810, 14293.00
943.3010, 14232.00
944.4200, 14422.00
945.5390, 14304.00
946.6580, 14220.00
947.7770, 14454.00
948.8960, 14565.00
950.0150, 14416.00
951.1330, 14550.00
952.2510, 14550.00
953.3690, 14684.00
954.4870, 14812.00
955.6050, 14807.00
956.7230, 14804.00
957.8400, 14889.00
958.9580, 15101.00
960.0750, 15171.00
961.1920, 15246.62
962.3090, 15118.00
963.4250, 15398.00
964.5420, 15534.00
965.6580, 15735.00
966.7740, 17374.00
967.8900, 17495.00
969.0060, 17942.61
970.1220, 17681.00
971.2380, 18215.00
972.3530, 17669.00
973.4680, 17406.00
974.5830, 17789.00
975.6980, 18223.00
976.8130, 18983.00
977.9280, 19374.00
979.0420, 19920.00
980.1560, 20909.00
981.2710, 21667.00
982.3850, 22621.00
983.4980, 23654.00
984.6120, 24572.00
985.7260, 25858.00
986.8390, 26822.00
987.9520, 27664.00
989.0650, 28340.00
990.1780, 28994.00
991.2910, 29122.00
992.4030, 29078.00
993.5160, 29311.00
994.6280, 29690.00
995.7400, 30293.00
996.8520, 30822.00
997.9640, 31758.00
999.0750, 32990.00
1000.187, 34574.02
1001.298, 36357.00
1002.409, 38846.00
1003.520, 41522.00
1004.631, 44685.00
1005.741, 48523.00
1006.852, 51072.00
1007.962, 53913.00
1009.072, 56516.00
1010.182, 57460.00
1011.292, 56785.00
1012.402, 55052.00
1013.511, 51572.00
1014.621, 46781.00
1015.730, 41916.00
1016.839, 37374.00
1017.948, 33428.00
1019.056, 30066.00
1020.165, 28167.00
1021.273, 25452.00
1022.382, 24120.00
1023.490, 22842.00
1024.598, 21820.00
1025.706, 21044.00
1026.813, 20541.00
1027.921, 20247.00
1029.028, 19654.00
1030.135, 19332.00
1031.242, 19258.00
1032.349, 18865.00
1033.456, 18746.00
1034.562, 18613.00
1035.668, 18470.00
1036.775, 18290.00
1037.881, 18321.00
1038.987, 17883.00
1040.092, 17906.00
1041.198, 17436.00
1042.303, 17312.00
1043.408, 17081.00
1044.514, 16885.00
1045.618, 16710.53
1046.723, 16472.82
1047.828, 16288.00
1048.932, 16089.00
1050.037, 15786.00
1051.141, 15722.00
1052.245, 15551.00
1053.349, 15191.00
1054.452, 15190.00
1055.556, 15099.00
1056.659, 14947.00
1057.762, 14863.00
1058.865, 14752.00
1059.968, 14616.98
1061.071, 14426.00
1062.174, 14325.00
1063.276, 14287.00
1064.378, 14075.00
1065.480, 13998.00
1066.582, 13986.00
1067.684, 13868.00
1068.786, 13731.00
1069.887, 13826.00
1070.988, 13544.00
1072.090, 13633.00
1073.191, 13488.00
1074.291, 13312.00
1075.392, 13278.00
1076.493, 13427.00
1077.593, 13388.00
1078.693, 13308.00
1079.793, 13019.00
1080.893, 13102.00
1081.993, 12929.00
1083.092, 12923.03
1084.192, 13077.81
1085.291, 13149.66
1086.390, 13143.01
1087.489, 12822.74
1088.588, 12907.44
1089.686, 12829.89
1090.785, 12745.64
1091.883, 12641.00
1092.981, 12564.00
1094.079, 12532.00
1095.177, 12498.39
1096.275, 12375.00
1097.373, 12452.00
1098.470, 12433.00
1099.567, 12439.00
1100.664, 12238.00
1101.761, 12527.00
1102.858, 12604.00
1103.954, 12312.00
1105.051, 12347.00
1106.147, 12050.00
1107.243, 12123.00
1108.339, 12114.00
1109.435, 12167.00
1110.531, 11965.00
1111.626, 11994.00
1112.722, 12026.00
1113.817, 11875.00
1114.912, 11884.00
1116.007, 12091.00
1117.101, 11993.00
1118.196, 12070.00
1119.290, 12271.00
1120.385, 12052.00
1121.479, 11938.00
1122.573, 11950.00
1123.666, 11914.00
1124.760, 11818.78
1125.853, 11616.00
1126.947, 11621.00
1128.040, 11540.00
1129.133, 11380.00
1130.226, 11433.00
1131.318, 11163.00
1132.411, 11093.00
1133.503, 11234.00
1134.596, 11226.00
1135.688, 11255.00
1136.780, 11150.00
1137.871, 11012.00
1138.963, 10943.00
1140.054, 10845.00
1141.146, 10843.00
1142.237, 10781.23
1143.328, 10810.00
1144.419, 10721.00
1145.509, 10772.00
1146.600, 10754.00
1147.690, 10794.00
1148.780, 10680.00
1149.870, 10798.00
1150.960, 10693.00
1152.050, 10580.00
1153.139, 10612.00
1154.229, 10508.00
1155.318, 10681.00
1156.407, 10662.00
1157.496, 10756.00
1158.585, 10661.69
1159.674, 10617.00
1160.762, 10446.00
1161.850, 10581.00
1162.939, 10573.00
1164.027, 10460.00
1165.114, 10538.00
1166.202, 10543.00
1167.290, 10603.00
1168.377, 10607.02
1169.464, 10458.00
1170.551, 10587.00
1171.638, 10392.00
1172.725, 10323.00
1173.812, 10546.00
1174.898, 10408.00
1175.984, 10467.00
1177.071, 10367.00
1178.157, 10326.00
1179.242, 10354.00
1180.328, 10381.00
1181.414, 10362.00
1182.499, 10446.00
1183.584, 10419.00
1184.669, 10395.00
1185.754, 10448.23
1186.839, 10522.00
1187.924, 10489.00
1189.008, 10506.00
1190.092, 10495.00
1191.177, 10536.00
1192.260, 10478.00
1193.344, 10384.00
1194.428, 10397.00
1195.512, 10375.00
1196.595, 10498.00
1197.678, 10475.00
1198.761, 10424.00
1199.844, 10489.00
1200.927, 10414.00
1202.009, 10421.00
1203.092, 10377.00
1204.174, 10432.00
1205.256, 10414.00
1206.338, 10424.00
1207.420, 10532.00
1208.502, 10452.00
1209.583, 10475.00
1210.665, 10405.00
1211.746, 10519.00
1212.827, 10595.00
1213.908, 10498.00
1214.988, 10577.00
1216.069, 10504.00
1217.149, 10525.00
1218.230, 10535.00
1219.310, 10602.00
1220.390, 10440.00
1221.470, 10545.00
1222.549, 10458.00
1223.629, 10540.00
1224.708, 10552.00
1225.787, 10641.00
1226.866, 10543.00
1227.945, 10424.00
1229.024, 10486.00
1230.103, 10502.00
1231.181, 10579.00
1232.259, 10566.00
1233.337, 10472.00
1234.415, 10532.00
1235.493, 10573.00
1236.571, 10696.00
1237.648, 10559.00
1238.726, 10526.00
1239.803, 10443.00
1240.880, 10472.26
1241.957, 10563.00
1243.034, 10586.00
1244.110, 10567.00
1245.187, 10633.00
1246.263, 10403.00
1247.339, 10687.00
1248.415, 10583.00
1249.491, 10490.00
1250.566, 10608.00
1251.642, 10503.00
1252.717, 10426.00
1253.793, 10540.00
1254.868, 10624.00
1255.943, 10701.00
1257.017, 10562.00
1258.092, 10693.00
1259.166, 10661.00
1260.241, 10646.00
1261.315, 10695.00
1262.389, 10625.00
1263.462, 10619.26
1264.536, 10538.00
1265.610, 10587.00
1266.683, 10572.00
1267.756, 10640.00
1268.829, 10512.00
1269.902, 10542.00
1270.975, 10638.00
1272.048, 10497.00
1273.120, 10608.00
1274.192, 10628.00
1275.264, 10627.00
1276.336, 10655.00
1277.408, 10631.00
1278.480, 10645.00
1279.551, 10601.00
1280.623, 10573.00
1281.694, 10516.00
1282.765, 10677.00
1283.836, 10652.00
1284.907, 10634.00
1285.977, 10586.00
1287.048, 10633.00
1288.118, 10594.80
1289.188, 10587.53
1290.258, 10579.00
1291.328, 10546.00
1292.398, 10553.00
1293.467, 10505.00
1294.537, 10514.00
1295.606, 10541.00
1296.675, 10547.00
1297.744, 10478.00
1298.813, 10559.00
1299.882, 10529.00
1300.950, 10567.00
1302.018, 10636.00
1303.086, 10581.00
1304.155, 10554.00
1305.222, 10518.00
1306.290, 10647.00
1307.358, 10647.00
1308.425, 10620.00
1309.492, 10553.00
1310.559, 10693.00
1311.626, 10516.00
1312.693, 10616.00
1313.760, 10600.00
1314.826, 10743.00
1315.893, 10680.00
1316.959, 10706.00
1318.025, 10674.00
1319.091, 10791.00
1320.157, 10731.00
1321.222, 10666.00
1322.288, 10731.00
1323.353, 10541.00
1324.418, 10749.00
1325.483, 10751.00
1326.548, 10748.00
1327.612, 10631.00
1328.677, 10779.00
1329.741, 10717.00
1330.806, 10673.00
1331.870, 10860.00
1332.934, 10734.00
1333.997, 10715.00
1335.061, 10809.00
1336.124, 10742.00
1337.188, 10723.00
1338.251, 10812.00
1339.314, 10781.00
1340.377, 10712.00
1341.439, 10852.00
1342.502, 10682.00
1343.564, 10698.00
1344.627, 10768.00
1345.689, 10728.00
1346.751, 10721.85
1347.813, 10763.00
1348.874, 10669.00
1349.936, 10711.00
1350.997, 10743.00
1352.058, 10786.00
1353.119, 10735.00
1354.180, 10788.00
1355.241, 10795.00
1356.301, 10834.00
1357.362, 10835.00
1358.422, 10785.00
1359.482, 10876.00
1360.542, 10812.00
1361.602, 10761.00
1362.662, 10826.00
1363.721, 10710.00
1364.781, 10729.00
1365.840, 10806.00
1366.899, 10675.00
1367.958, 10864.00
1369.017, 10743.00
1370.075, 10887.00
1371.134, 10850.00
1372.192, 10643.00
1373.250, 10860.00
1374.308, 10816.00
1375.366, 10781.00
1376.424, 11074.00
1377.481, 10802.00
1378.539, 10917.00
1379.596, 10850.00
1380.653, 10839.00
1381.710, 10773.00
1382.767, 10713.00
1383.824, 10877.00
1384.880, 10812.00
1385.937, 10915.00
1386.993, 10784.00
1388.049, 10860.00
1389.105, 10857.00
1390.161, 10701.00
1391.216, 10792.00
1392.272, 10833.00
1393.327, 10681.00
1394.382, 10886.00
1395.437, 10790.00
1396.492, 10901.00
1397.547, 10883.00
1398.601, 10811.00
1399.656, 10861.00
1400.710, 10737.00
1401.764, 10781.95
1402.818, 10760.00
1403.872, 10834.00
1404.925, 10839.00
1405.979, 10887.00
1407.032, 10917.22
1408.085, 10992.00
1409.139, 10907.00
1410.191, 10871.00
1411.244, 10726.00
1412.297, 10886.00
1413.349, 10804.00
1414.402, 10753.00
1415.454, 10919.00
1416.506, 10947.00
1417.558, 10927.00
1418.609, 11015.00
1419.661, 10963.00
1420.712, 10825.00
1421.764, 10963.00
1422.815, 10871.00
1423.866, 11071.00
1424.916, 10910.00
1425.967, 10903.00
1427.018, 10956.00
1428.068, 10871.00
1429.118, 11005.00
1430.168, 10963.00
1431.218, 10922.00
1432.268, 11040.00
1433.318, 11016.00
1434.367, 11009.00
1435.416, 10969.00
1436.465, 11024.16
1437.514, 11069.00
1438.563, 11100.00
1439.612, 11081.00
1440.661, 11033.00
1441.709, 10981.00
1442.757, 10992.00
1443.805, 10963.79
1444.853, 10942.00
1445.901, 11029.00
1446.949, 10931.00
1447.996, 11109.00
1449.044, 11125.00
1450.091, 11083.00
1451.138, 10995.00
1452.185, 11033.00
1453.232, 11104.00
1454.278, 11046.10
1455.325, 11109.00
1456.371, 11039.00
1457.417, 10988.00
1458.463, 11034.00
1459.509, 11100.00
1460.555, 10952.00
1461.601, 11042.00
1462.646, 11025.00
1463.691, 11162.00
1464.737, 11107.44
1465.782, 11110.17
1466.826, 11009.00
1467.871, 11093.00
1468.916, 11006.00
1469.960, 11101.00
1471.004, 11096.00
1472.048, 10984.00
1473.092, 11068.00
1474.136, 11074.00
1475.180, 11078.00
1476.223, 11086.00
1477.267, 11133.00
1478.310, 11118.13
1479.353, 11139.80
1480.396, 11043.00
1481.439, 11182.00
1482.481, 11004.00
1483.524, 11063.00
1484.566, 11060.00
1485.608, 11170.00
1486.650, 11040.00
1487.692, 11174.00
1488.734, 10987.00
1489.775, 11163.00
1490.817, 11065.00
1491.858, 11056.00
1492.899, 11126.00
1493.940, 11110.00
1494.981, 11076.00
1496.022, 11113.00
1497.062, 11010.00
1498.103, 10948.00
1499.143, 11003.00
1500.183, 11040.00
1501.223, 11012.00
1502.263, 11043.00
1503.302, 11090.00
1504.342, 11076.00
1505.381, 11063.00
1506.420, 11160.00
1507.459, 11221.00
1508.498, 11149.00
1509.537, 10995.00
1510.576, 11157.00
1511.614, 11040.68
1512.652, 11172.00
1513.691, 11020.00
1514.729, 10994.00
1515.767, 11033.00
1516.804, 11090.00
1517.842, 11129.00
1518.879, 11135.00
1519.917, 11267.00
1520.954, 11186.28
1521.991, 10960.00
1523.028, 11077.00
1524.064, 10968.00
1525.101, 10915.00
1526.137, 11020.00
1527.173, 11006.00
1528.210, 11077.00
1529.245, 11100.00
1530.281, 11109.42
1531.317, 11098.00
1532.352, 11160.00
1533.388, 11038.00
1534.423, 11108.00
1535.458, 11041.00
1536.493, 11039.00
1537.528, 11039.00
1538.562, 11152.00
1539.597, 11184.00
1540.631, 11152.00
1541.665, 10985.71
1542.700, 11147.17
1543.733, 11237.52
1544.767, 11260.58
1545.801, 11014.82
1546.834, 11116.19
1547.868, 11078.44
1548.901, 11034.99
1549.934, 11185.21
1550.967, 10978.56
1551.999, 11125.71
1553.032, 11131.63
1554.064, 11202.18
1555.097, 11132.77
1556.129, 11106.59
1557.161, 11220.42
1558.193, 11256.73
1559.224, 11171.21
1560.256, 11071.00
1561.287, 11022.00
1562.318, 11145.00
1563.350, 11313.00
1564.380, 11216.00
1565.411, 11104.00
1566.442, 11204.00
1567.472, 11073.00
1568.503, 11269.00
1569.533, 11212.00
1570.563, 11074.00
##END=



