##NAMES=Augite
##RRUFFID=R061108
##IDEAL CHEMISTRY=(Ca,Mg,Fe^2+^,Fe^3+^)_2_(Si,Al)_2_O_6_
##LOCALITY=Monti Rossi, near Mt. Etna, Sicily, Italy
##OWNER=RRUFF
##SOURCE=Michael Scott
##DESCRIPTION=Euhedral, short prismatic, black crystals in vesicular basalt.
##STATUS=The identification of this mineral is confirmed by single-crystal X-ray diffraction and chemical analysis.
##URL=rruff.info/R061108
##MEASURED CHEMISTRY=(Ca_0.86_Mg_0.74_Fe^2+^_0.18_Fe^3+^_0.08_Al_0.05_Ti_0.04_Na_0.04_Mn_0.01_)_Σ=2_(Si_1.83_Al_0.17_)_Σ=2_O_6_
##PIN_ID=L00942
##ORIENTATION=Laser parallel to -a* (-1 0 0). Fiducial mark perpendicular to laser is parallel to b [0 1 0]
137.7750, 15922.00
139.0040, 15866.14
140.2330, 15874.99
141.4620, 15774.00
142.6910, 15774.00
143.9200, 15676.00
145.1490, 15597.00
146.3770, 15868.00
147.6060, 15794.00
148.8340, 15879.00
150.0620, 15842.00
151.2900, 15906.51
152.5170, 16179.00
153.7450, 15960.00
154.9720, 16119.00
156.2000, 15969.00
157.4270, 15869.00
158.6540, 15944.00
159.8810, 15901.00
161.1070, 16150.00
162.3340, 16383.00
163.5600, 16731.00
164.7860, 16941.00
166.0120, 16736.00
167.2380, 16999.00
168.4640, 17133.00
169.6890, 17257.00
170.9150, 17436.25
172.1400, 17622.00
173.3650, 17710.00
174.5900, 17732.00
175.8150, 17853.00
177.0400, 18180.00
178.2640, 18186.00
179.4880, 18556.00
180.7130, 18374.00
181.9370, 18267.00
183.1600, 18384.00
184.3840, 18333.00
185.6080, 18467.00
186.8310, 18568.00
188.0540, 18586.00
189.2770, 18676.00
190.5000, 18860.00
191.7230, 18992.00
192.9460, 19112.23
194.1680, 19239.14
195.3910, 19350.00
196.6130, 19476.00
197.8350, 19572.00
199.0570, 19749.00
200.2780, 19701.00
201.5000, 19967.00
202.7210, 19811.00
203.9420, 19871.00
205.1640, 19655.00
206.3840, 19755.00
207.6050, 19721.78
208.8260, 19984.00
210.0460, 19768.00
211.2670, 20062.00
212.4870, 20144.00
213.7070, 20400.00
214.9270, 20522.00
216.1460, 20834.00
217.3660, 20909.00
218.5850, 21269.00
219.8050, 21300.00
221.0240, 21321.00
222.2430, 21487.00
223.4610, 21611.00
224.6800, 21490.00
225.8980, 21368.00
227.1170, 21232.00
228.3350, 21395.00
229.5530, 21258.00
230.7710, 21257.00
231.9880, 20834.00
233.2060, 20439.00
234.4230, 20244.00
235.6400, 20149.00
236.8570, 19929.00
238.0740, 19995.00
239.2910, 19751.00
240.5080, 19736.00
241.7240, 19886.00
242.9400, 19704.00
244.1570, 19488.00
245.3730, 19605.00
246.5880, 19502.00
247.8040, 19582.00
249.0190, 19356.00
250.2350, 19268.00
251.4500, 19240.00
252.6650, 19010.00
253.8800, 19092.00
255.0950, 19133.00
256.3090, 18875.00
257.5240, 19036.00
258.7380, 18825.32
259.9520, 18671.20
261.1660, 18542.00
262.3800, 18333.00
263.5930, 18219.00
264.8070, 18154.00
266.0200, 18200.00
267.2330, 18211.00
268.4460, 18026.00
269.6590, 18010.00
270.8720, 17972.00
272.0850, 17918.00
273.2970, 18033.00
274.5090, 18008.00
275.7210, 18089.00
276.9330, 18293.00
278.1450, 18376.00
279.3570, 18300.00
280.5680, 18599.00
281.7790, 18596.00
282.9910, 18833.00
284.2020, 18779.00
285.4120, 19048.00
286.6230, 19240.00
287.8340, 19465.00
289.0440, 19652.00
290.2540, 19824.00
291.4640, 20033.00
292.6740, 20297.51
293.8840, 20484.00
295.0940, 20936.00
296.3030, 21313.00
297.5120, 21787.00
298.7210, 22031.00
299.9300, 22298.00
301.1390, 23038.00
302.3480, 23371.00
303.5560, 24044.00
304.7650, 24747.00
305.9730, 25582.00
307.1810, 26318.29
308.3890, 27103.00
309.5970, 27916.00
310.8040, 28802.00
312.0120, 29606.00
313.2190, 30496.00
314.4260, 31630.00
315.6330, 32884.00
316.8400, 33700.00
318.0460, 34937.00
319.2530, 35837.91
320.4590, 36806.00
321.6650, 37509.00
322.8710, 37843.00
324.0770, 38261.00
325.2830, 37865.00
326.4880, 38171.00
327.6940, 37338.00
328.8990, 36818.00
330.1040, 36188.00
331.3090, 35359.00
332.5140, 34316.00
333.7180, 33579.00
334.9230, 32801.00
336.1270, 32007.00
337.3310, 31207.00
338.5350, 30581.00
339.7390, 29786.00
340.9430, 29113.00
342.1460, 28530.00
343.3500, 28044.07
344.5530, 27885.00
345.7560, 27327.00
346.9590, 27131.00
348.1620, 26916.00
349.3640, 26632.00
350.5670, 26469.58
351.7690, 26363.00
352.9710, 26123.00
354.1730, 25982.00
355.3750, 25874.00
356.5760, 25733.68
357.7780, 25661.00
358.9790, 25439.00
360.1800, 25764.00
361.3810, 25428.00
362.5820, 25568.00
363.7830, 25817.00
364.9830, 25755.00
366.1840, 25969.00
367.3840, 26034.00
368.5840, 26411.00
369.7840, 26652.00
370.9840, 27091.00
372.1830, 27663.00
373.3830, 28014.00
374.5820, 28711.00
375.7810, 29562.00
376.9800, 30483.00
378.1790, 31624.25
379.3780, 32833.00
380.5760, 34245.00
381.7750, 35731.00
382.9730, 37297.00
384.1710, 38630.00
385.3690, 40689.00
386.5660, 42334.00
387.7640, 43640.00
388.9610, 44542.00
390.1590, 44899.00
391.3560, 44953.00
392.5530, 43923.00
393.7500, 42481.00
394.9460, 40795.00
396.1430, 38853.00
397.3390, 36245.00
398.5350, 34007.00
399.7310, 31932.00
400.9270, 29997.00
402.1230, 28221.00
403.3180, 26650.00
404.5140, 25126.00
405.7090, 23941.00
406.9040, 23165.00
408.0990, 22234.00
409.2930, 21547.00
410.4880, 21158.00
411.6820, 20634.00
412.8770, 20231.00
414.0710, 20087.00
415.2650, 19701.00
416.4590, 19582.00
417.6520, 19361.00
418.8460, 19351.00
420.0390, 19085.00
421.2320, 18912.00
422.4250, 18858.00
423.6180, 18766.00
424.8110, 18586.00
426.0030, 18517.00
427.1960, 18417.00
428.3880, 18380.00
429.5800, 18241.00
430.7720, 18011.00
431.9640, 17751.00
433.1550, 18023.00
434.3470, 17728.36
435.5380, 17794.00
436.7290, 17505.00
437.9200, 17590.00
439.1110, 17497.00
440.3020, 17344.00
441.4920, 17313.00
442.6820, 17310.00
443.8730, 17312.00
445.0630, 17181.00
446.2530, 17157.00
447.4420, 17145.00
448.6320, 17075.00
449.8210, 17073.62
451.0100, 17067.87
452.2000, 17063.00
453.3880, 17118.00
454.5770, 17171.00
455.7660, 17271.00
456.9540, 17169.00
458.1430, 17156.00
459.3310, 17268.00
460.5190, 17215.23
461.7070, 17293.00
462.8940, 17165.00
464.0820, 17341.00
465.2690, 17144.00
466.4560, 17127.00
467.6430, 17171.00
468.8300, 17150.00
470.0170, 17159.00
471.2040, 17077.00
472.3900, 17198.00
473.5760, 17034.00
474.7620, 17203.00
475.9480, 17106.00
477.1340, 17129.00
478.3200, 17165.00
479.5050, 17349.00
480.6900, 17391.00
481.8750, 17329.00
483.0600, 17277.00
484.2450, 17513.00
485.4300, 17526.00
486.6140, 17511.00
487.7990, 17374.00
488.9830, 17230.00
490.1670, 17558.00
491.3510, 17374.00
492.5350, 17567.00
493.7180, 17478.00
494.9020, 17446.00
496.0850, 17498.00
497.2680, 17310.00
498.4510, 17483.00
499.6340, 17747.00
500.8160, 17615.00
501.9990, 17877.00
503.1810, 17859.00
504.3630, 17944.00
505.5450, 18192.00
506.7270, 18267.00
507.9090, 18413.00
509.0900, 18577.00
510.2720, 18733.00
511.4530, 18956.00
512.6340, 18963.00
513.8150, 19103.00
514.9950, 19492.00
516.1760, 19819.00
517.3560, 19754.00
518.5370, 19890.00
519.7170, 19899.00
520.8970, 20256.00
522.0770, 20310.00
523.2560, 20738.00
524.4360, 20787.00
525.6150, 20890.00
526.7940, 20788.00
527.9730, 21028.00
529.1520, 20953.00
530.3310, 20988.00
531.5090, 20934.00
532.6870, 20874.00
533.8660, 20777.00
535.0440, 20659.00
536.2210, 20584.00
537.3990, 20648.00
538.5770, 20450.00
539.7540, 20390.00
540.9310, 20077.35
542.1080, 20144.12
543.2850, 20149.70
544.4620, 20097.38
545.6390, 19813.74
546.8150, 19828.86
547.9920, 19724.21
549.1680, 19614.72
550.3440, 19671.88
551.5190, 19422.01
552.6950, 19476.53
553.8710, 19409.52
555.0460, 19398.18
556.2210, 19173.00
557.3960, 19090.00
558.5710, 19199.00
559.7460, 18957.00
560.9200, 19018.00
562.0950, 18999.00
563.2690, 18788.00
564.4430, 18766.00
565.6170, 18738.00
566.7910, 18653.00
567.9640, 18529.00
569.1380, 18473.00
570.3110, 18441.00
571.4840, 18203.00
572.6570, 18093.00
573.8300, 17928.00
575.0030, 17704.00
576.1750, 17533.00
577.3470, 17327.40
578.5200, 17149.00
579.6920, 16901.00
580.8630, 16716.00
582.0350, 16462.00
583.2070, 16175.00
584.3780, 16023.00
585.5490, 15704.00
586.7200, 15602.00
587.8910, 15434.00
589.0620, 15104.00
590.2330, 14931.00
591.4030, 14673.00
592.5730, 14542.00
593.7430, 14446.00
594.9130, 14369.00
596.0830, 14195.00
597.2530, 14181.00
598.4220, 14100.00
599.5920, 14079.00
600.7610, 14050.00
601.9300, 14040.00
603.0990, 13943.00
604.2670, 14057.00
605.4360, 14028.00
606.6040, 14125.00
607.7720, 14026.00
608.9400, 14051.00
610.1080, 13996.00
611.2760, 14046.00
612.4440, 14055.47
613.6110, 14086.63
614.7780, 14105.00
615.9450, 14169.00
617.1120, 14175.00
618.2790, 14180.00
619.4460, 14243.00
620.6120, 14212.00
621.7780, 14324.00
622.9450, 14378.00
624.1110, 14336.00
625.2760, 14555.00
626.4420, 14479.00
627.6080, 14614.00
628.7730, 14636.00
629.9380, 14834.00
631.1030, 14953.00
632.2680, 15053.00
633.4330, 15257.00
634.5970, 15411.00
635.7620, 15522.00
636.9260, 15654.00
638.0900, 15887.00
639.2540, 15996.00
640.4180, 16345.00
641.5810, 16728.00
642.7450, 16829.00
643.9080, 17218.00
645.0710, 17661.00
646.2340, 18220.00
647.3970, 18897.00
648.5590, 19569.00
649.7220, 20406.44
650.8840, 21242.00
652.0460, 22284.00
653.2080, 23425.00
654.3700, 24738.07
655.5320, 26284.00
656.6930, 27825.00
657.8550, 29449.00
659.0160, 31395.00
660.1770, 33442.00
661.3380, 35168.00
662.4990, 36539.00
663.6590, 37173.00
664.8200, 37298.00
665.9800, 36624.00
667.1400, 35419.00
668.3000, 33867.00
669.4600, 32098.00
670.6190, 30028.00
671.7790, 28301.00
672.9380, 26667.00
674.0970, 25288.00
675.2560, 23882.00
676.4150, 22697.00
677.5740, 21694.00
678.7320, 20799.00
679.8900, 19959.00
681.0490, 19310.69
682.2070, 18789.00
683.3640, 18289.00
684.5220, 17909.00
685.6800, 17627.00
686.8370, 17293.00
687.9940, 16875.00
689.1510, 16972.00
690.3080, 16761.00
691.4650, 16267.00
692.6220, 16357.00
693.7780, 16316.00
694.9340, 16085.00
696.0900, 15980.00
697.2460, 15981.00
698.4020, 15877.00
699.5580, 15942.00
700.7130, 15827.00
701.8680, 15572.00
703.0240, 15697.00
704.1790, 15547.00
705.3330, 15646.00
706.4880, 15519.50
707.6430, 15348.00
708.7970, 15354.00
709.9510, 15352.00
711.1050, 15452.00
712.2590, 15428.00
713.4130, 15332.00
714.5660, 15247.00
715.7200, 15138.00
716.8730, 15159.00
718.0260, 15182.00
719.1790, 15112.08
720.3320, 15179.00
721.4840, 15047.00
722.6370, 15139.00
723.7890, 15138.00
724.9410, 15144.00
726.0930, 15134.00
727.2450, 15144.00
728.3960, 15195.00
729.5480, 15291.00
730.6990, 15303.79
731.8500, 15322.00
733.0010, 15381.00
734.1520, 15552.00
735.3030, 15603.25
736.4530, 15712.50
737.6040, 15682.00
738.7540, 15880.00
739.9040, 15940.00
741.0540, 15975.00
742.2030, 16090.00
743.3530, 16262.59
744.5020, 16536.00
745.6520, 16724.00
746.8010, 16960.00
747.9490, 17104.23
749.0980, 17283.00
750.2470, 17383.00
751.3950, 17538.00
752.5440, 17728.46
753.6920, 18128.00
754.8400, 18191.00
755.9870, 18550.00
757.1350, 18696.00
758.2820, 18818.00
759.4300, 19049.00
760.5770, 19282.00
761.7240, 19503.00
762.8710, 19760.00
764.0170, 19863.00
765.1640, 20040.76
766.3100, 20194.00
767.4560, 20185.00
768.6020, 20257.00
769.7480, 20311.88
770.8940, 20259.00
772.0400, 20354.00
773.1850, 20384.00
774.3300, 20328.00
775.4750, 20211.00
776.6200, 20153.00
777.7650, 20040.00
778.9090, 19965.95
780.0540, 19875.00
781.1980, 19853.00
782.3420, 19760.00
783.4860, 19789.00
784.6300, 19836.00
785.7740, 19651.00
786.9170, 19719.00
788.0600, 19623.00
789.2030, 19504.00
790.3460, 19319.00
791.4890, 19443.00
792.6320, 19608.00
793.7740, 19372.00
794.9170, 19331.00
796.0590, 19456.00
797.2010, 19470.00
798.3430, 19444.00
799.4850, 19595.00
800.6260, 19684.00
801.7670, 19729.00
802.9090, 19806.00
804.0500, 19820.00
805.1910, 19942.43
806.3310, 19998.21
807.4720, 20191.00
808.6120, 20179.00
809.7530, 20330.00
810.8930, 20470.00
812.0330, 20498.00
813.1720, 20479.00
814.3120, 20719.00
815.4510, 20788.00
816.5910, 20586.00
817.7300, 20750.00
818.8690, 20675.00
820.0080, 20470.00
821.1460, 20585.00
822.2850, 20638.00
823.4230, 20445.00
824.5610, 20381.00
825.6990, 20257.00
826.8370, 20181.00
827.9750, 20150.67
829.1120, 20270.00
830.2500, 20156.00
831.3870, 20008.00
832.5240, 20100.00
833.6610, 19977.00
834.7980, 20065.00
835.9340, 20017.82
837.0700, 19988.31
838.2070, 19929.00
839.3430, 19935.00
840.4790, 19837.00
841.6140, 19793.00
842.7500, 19960.00
843.8850, 19912.00
845.0210, 19979.13
846.1560, 20333.00
847.2910, 20103.00
848.4260, 20228.00
849.5600, 20368.00
850.6950, 20654.00
851.8290, 20638.00
852.9630, 20603.00
854.0970, 20637.00
855.2310, 20618.28
856.3650, 20813.00
857.4980, 20684.00
858.6310, 20750.00
859.7650, 20918.00
860.8980, 20868.00
862.0310, 20741.00
863.1630, 20812.00
864.2960, 20762.00
865.4280, 20469.00
866.5600, 20826.00
867.6920, 20853.00
868.8240, 20659.00
869.9560, 20692.00
871.0880, 20823.00
872.2190, 20694.00
873.3500, 20745.00
874.4810, 20784.00
875.6120, 20690.00
876.7430, 20635.00
877.8740, 20775.00
879.0040, 20803.00
880.1340, 20928.00
881.2650, 20753.00
882.3950, 20882.00
883.5240, 20953.00
884.6540, 20890.00
885.7830, 21041.00
886.9130, 20933.00
888.0420, 21042.00
889.1710, 20976.00
890.3000, 21007.00
891.4280, 21018.00
892.5570, 21076.00
893.6850, 21156.00
894.8130, 21185.00
895.9420, 21149.00
897.0690, 20914.00
898.1970, 21045.00
899.3250, 21061.00
900.4520, 20952.00
901.5790, 21028.00
902.7060, 21046.00
903.8330, 21289.00
904.9600, 20995.00
906.0870, 21160.00
907.2130, 21074.00
908.3390, 21391.00
909.4650, 21141.00
910.5910, 21136.00
911.7170, 21324.00
912.8430, 21402.00
913.9680, 21522.00
915.0930, 21433.00
916.2180, 21672.00
917.3430, 21559.00
918.4680, 21713.00
919.5930, 21770.00
920.7170, 21844.60
921.8420, 21913.07
922.9660, 21971.00
924.0900, 22054.00
925.2140, 21881.00
926.3370, 22046.00
927.4610, 21864.00
928.5840, 22016.00
929.7070, 22210.00
930.8310, 21966.00
931.9530, 21828.00
933.0760, 21827.00
934.1990, 21792.00
935.3210, 21719.00
936.4430, 21702.00
937.5650, 21605.00
938.6870, 21515.00
939.8090, 21476.00
940.9310, 21560.00
942.0520, 21498.00
943.1730, 21398.00
944.2940, 21558.00
945.4150, 21540.00
946.5360, 21324.00
947.6570, 21574.00
948.7770, 21545.55
949.8970, 21615.85
951.0180, 21746.00
952.1370, 21780.00
953.2570, 21868.00
954.3770, 21873.00
955.4960, 22052.00
956.6160, 22011.00
957.7350, 22148.00
958.8540, 22176.00
959.9730, 22285.00
961.0910, 22443.42
962.2100, 22617.79
963.3280, 22785.00
964.4460, 22961.05
965.5640, 23220.00
966.6820, 23337.00
967.8000, 23579.00
968.9180, 23811.00
970.0350, 23972.21
971.1520, 24248.50
972.2690, 24403.00
973.3860, 24751.00
974.5030, 25093.00
975.6190, 25347.00
976.7360, 25671.00
977.8520, 26029.00
978.9680, 26334.00
980.0840, 26661.00
981.2000, 27214.00
982.3160, 27374.00
983.4310, 28021.00
984.5460, 28731.00
985.6610, 29311.00
986.7760, 30146.00
987.8910, 31093.00
989.0060, 31897.00
990.1200, 33227.00
991.2350, 34390.00
992.3490, 35738.00
993.4630, 37379.00
994.5760, 39115.00
995.6900, 40818.00
996.8040, 42842.88
997.9170, 44958.00
999.0300, 47160.00
1000.143, 49607.00
1001.256, 52129.00
1002.369, 54104.00
1003.481, 56654.00
1004.594, 58245.00
1005.706, 59375.00
1006.818, 60075.00
1007.930, 59652.00
1009.042, 58829.00
1010.153, 57344.00
1011.264, 54754.00
1012.376, 51615.00
1013.487, 48363.00
1014.598, 44798.00
1015.708, 41571.00
1016.819, 38669.00
1017.929, 36217.00
1019.040, 34215.00
1020.150, 32362.00
1021.260, 30745.00
1022.370, 29521.00
1023.479, 28961.00
1024.589, 28199.00
1025.698, 27298.00
1026.807, 27339.00
1027.916, 26829.00
1029.025, 26378.00
1030.133, 26273.00
1031.242, 25949.00
1032.350, 25817.00
1033.458, 25791.00
1034.566, 25374.00
1035.674, 25635.00
1036.782, 25386.00
1037.890, 25038.00
1038.997, 25016.00
1040.104, 24809.00
1041.211, 24636.00
1042.318, 24508.00
1043.425, 24177.93
1044.531, 23797.00
1045.638, 23482.00
1046.744, 23164.00
1047.850, 22705.00
1048.956, 22700.00
1050.061, 22239.00
1051.167, 21867.00
1052.272, 21848.00
1053.378, 21311.00
1054.483, 21160.00
1055.588, 20909.00
1056.692, 20558.00
1057.797, 20419.00
1058.901, 20303.00
1060.006, 20077.00
1061.110, 19946.00
1062.214, 19997.00
1063.318, 19750.00
1064.421, 19333.00
1065.525, 19250.00
1066.628, 19253.00
1067.731, 19113.00
1068.834, 19149.00
1069.937, 19059.69
1071.040, 18999.00
1072.142, 18924.00
1073.244, 18695.00
1074.347, 18603.00
1075.449, 18611.00
1076.550, 18462.48
1077.652, 18584.00
1078.754, 18330.00
1079.855, 18415.00
1080.956, 18391.00
1082.057, 18274.00
1083.158, 18216.00
1084.259, 18201.00
1085.359, 18167.00
1086.460, 18101.67
1087.560, 17905.00
1088.660, 17962.00
1089.760, 17852.00
1090.860, 17755.00
1091.959, 17873.00
1093.059, 17806.00
1094.158, 17658.00
1095.257, 17593.00
1096.356, 17547.00
1097.455, 17687.00
1098.553, 17600.00
1099.652, 17432.00
1100.750, 17519.00
1101.848, 17378.00
1102.946, 17319.00
1104.044, 17280.00
1105.141, 17143.00
1106.239, 17068.00
1107.336, 17167.00
1108.433, 17097.00
1109.530, 17086.00
1110.627, 16948.00
1111.724, 17095.00
1112.820, 17064.00
1113.917, 16875.00
1115.013, 16872.00
1116.109, 16659.00
1117.205, 16855.00
1118.300, 16711.00
1119.396, 16574.00
1120.491, 16607.00
1121.586, 16395.00
1122.681, 16503.00
1123.776, 16240.00
1124.871, 16076.00
1125.965, 15826.00
1127.060, 15851.00
1128.154, 15664.58
1129.248, 15638.00
1130.342, 15503.00
1131.436, 15421.00
1132.529, 15447.00
1133.623, 15249.00
1134.716, 15185.00
1135.809, 14945.00
1136.902, 14971.00
1137.995, 14947.00
1139.087, 14758.00
1140.180, 14539.00
1141.272, 14656.00
1142.364, 14692.00
1143.456, 14455.00
1144.548, 14393.00
1145.639, 14362.00
1146.731, 14396.00
1147.822, 14363.00
1148.913, 14257.00
1150.004, 14226.00
1151.095, 14255.00
1152.186, 14257.00
1153.276, 14182.00
1154.366, 14105.00
1155.457, 14115.49
1156.546, 14266.00
1157.636, 14088.00
1158.726, 14033.00
1159.815, 13978.00
1160.905, 14168.00
1161.994, 14079.53
1163.083, 13958.00
1164.172, 14061.00
1165.261, 13943.00
1166.349, 13893.00
1167.437, 13952.00
1168.526, 13939.00
1169.614, 13962.00
1170.702, 13818.00
1171.789, 13866.00
1172.877, 13905.00
1173.964, 13782.00
1175.051, 13928.00
1176.138, 13886.00
1177.225, 13915.00
1178.312, 13924.00
1179.399, 13868.00
1180.485, 13930.00
1181.571, 13888.00
1182.657, 13829.00
1183.743, 13945.00
1184.829, 13813.00
1185.915, 13954.00
1187.000, 13897.00
1188.085, 13829.00
1189.171, 13728.00
1190.255, 13816.00
1191.340, 13868.00
1192.425, 13786.00
1193.509, 13835.00
1194.594, 13813.00
1195.678, 13794.17
1196.762, 13793.00
1197.846, 13741.00
1198.929, 13752.74
1200.013, 13769.00
1201.096, 13753.00
1202.179, 13780.00
1203.262, 13781.00
1204.345, 13783.00
1205.428, 13868.00
1206.510, 13675.00
1207.593, 13820.00
1208.675, 13860.00
1209.757, 13731.00
1210.839, 13861.00
1211.920, 13864.00
1213.002, 13753.00
1214.083, 13869.00
1215.164, 13787.00
1216.245, 13801.00
1217.326, 13946.00
1218.407, 13918.00
1219.488, 13825.00
1220.568, 13900.00
1221.648, 13879.00
1222.728, 13847.00
1223.808, 13866.00
1224.888, 13793.00
1225.967, 13812.00
1227.047, 13743.00
1228.126, 13759.08
1229.205, 13756.00
1230.284, 13806.00
1231.363, 13823.00
1232.441, 13888.00
1233.520, 13750.00
1234.598, 13820.00
1235.676, 13853.00
1236.754, 13822.00
1237.832, 13867.00
1238.910, 13774.00
1239.987, 13728.00
1241.064, 13741.00
1242.141, 13781.00
1243.218, 13885.00
1244.295, 13844.00
1245.372, 13864.00
1246.448, 13747.00
1247.525, 13756.00
1248.601, 13693.00
1249.677, 13897.00
1250.753, 13623.00
1251.828, 13725.00
1252.904, 13782.00
1253.979, 13671.00
1255.054, 13822.00
1256.129, 13750.00
1257.204, 13726.00
1258.279, 13778.00
1259.353, 13796.00
1260.428, 13739.00
1261.502, 13808.00
1262.576, 13717.00
1263.650, 13812.00
1264.724, 13779.00
1265.797, 13780.00
1266.871, 13853.00
1267.944, 13880.00
1269.017, 13738.00
1270.090, 13856.00
1271.162, 13715.00
1272.235, 13911.00
1273.307, 13816.21
1274.380, 13852.82
1275.452, 13655.00
1276.524, 13916.00
1277.595, 13733.00
1278.667, 13792.00
1279.738, 13774.00
1280.810, 13720.00
1281.881, 13680.00
1282.952, 13698.91
1284.022, 13694.40
1285.093, 13738.00
1286.164, 13748.00
1287.234, 13759.00
1288.304, 13786.00
1289.374, 13723.00
1290.444, 13623.00
1291.513, 13892.00
1292.583, 13840.00
1293.652, 13769.00
1294.721, 13914.00
1295.790, 13715.00
1296.859, 13822.00
1297.928, 13832.00
1298.996, 13883.00
1300.064, 13885.00
1301.133, 13854.00
1302.201, 13863.00
1303.268, 13820.00
1304.336, 13822.00
1305.404, 13851.00
1306.471, 13848.00
1307.538, 13911.00
1308.605, 13774.00
1309.672, 14012.00
1310.739, 13851.00
1311.805, 13825.00
1312.872, 13972.00
1313.938, 13778.00
1315.004, 13886.00
1316.070, 13797.00
1317.135, 13895.00
1318.201, 13828.00
1319.266, 13821.00
1320.332, 13869.70
1321.397, 13856.00
1322.462, 13906.00
1323.526, 13901.00
1324.591, 13863.00
1325.655, 13881.00
1326.720, 13988.00
1327.784, 13873.00
1328.848, 14006.00
1329.911, 13996.00
1330.975, 13892.00
1332.038, 13948.00
1333.102, 13914.00
1334.165, 13907.21
1335.228, 13951.00
1336.290, 13954.00
1337.353, 13937.00
1338.415, 14036.00
1339.478, 13908.00
1340.540, 13985.00
1341.602, 13885.00
1342.664, 13988.00
1343.725, 13969.00
1344.787, 13933.00
1345.848, 14033.00
1346.909, 13948.00
1347.970, 13821.00
1349.031, 13933.00
1350.092, 13869.88
1351.152, 13933.00
1352.212, 13893.00
1353.273, 14008.00
1354.333, 13994.00
1355.392, 14118.00
1356.452, 13862.00
1357.512, 14055.00
1358.571, 13999.00
1359.630, 14178.00
1360.689, 14073.36
1361.748, 14083.00
1362.807, 13938.00
1363.865, 14009.00
1364.924, 14124.00
1365.982, 14124.00
1367.040, 13952.00
1368.098, 13984.00
1369.155, 13982.00
1370.213, 13924.00
1371.270, 13872.00
1372.328, 13895.00
1373.385, 13956.00
1374.442, 13965.00
1375.498, 14006.78
1376.555, 14001.00
1377.611, 14015.00
1378.668, 13925.00
1379.724, 13796.00
1380.780, 14006.00
1381.835, 13935.00
1382.891, 13802.00
1383.946, 13936.00
1385.002, 13964.00
1386.057, 13975.00
1387.112, 14039.00
1388.166, 13939.00
1389.221, 13917.00
1390.275, 13911.00
1391.330, 13891.79
1392.384, 13996.00
1393.438, 13899.00
1394.492, 13971.00
1395.545, 13939.00
1396.599, 14136.00
1397.652, 13931.00
1398.705, 14053.00
1399.758, 14129.00
1400.811, 14033.00
1401.863, 13952.00
1402.916, 13985.00
1403.968, 14023.00
1405.020, 13986.00
1406.072, 13864.00
1407.124, 13900.03
1408.176, 13860.91
1409.227, 13823.00
1410.279, 13926.00
1411.330, 13780.00
1412.381, 13933.00
1413.432, 13936.00
1414.482, 13987.00
1415.533, 14007.38
1416.583, 13983.80
1417.633, 13995.00
1418.684, 13930.00
1419.733, 13934.00
1420.783, 13916.00
1421.833, 13914.20
1422.882, 13907.00
1423.931, 13949.00
1424.980, 13960.00
1426.029, 13999.00
1427.078, 13922.00
1428.126, 13960.00
1429.175, 13860.00
1430.223, 14005.00
1431.271, 13768.00
1432.319, 13875.00
1433.367, 13817.00
1434.414, 13873.00
1435.462, 13956.00
1436.509, 13887.00
1437.556, 13953.00
1438.603, 13901.00
1439.650, 13925.00
1440.696, 13892.00
1441.743, 13936.00
1442.789, 14041.00
1443.835, 13981.00
1444.881, 13919.00
1445.927, 13806.00
1446.972, 13962.00
1448.018, 13848.00
1449.063, 13922.00
1450.108, 14065.00
1451.153, 13986.00
1452.198, 13997.00
1453.243, 13995.00
1454.287, 13852.00
1455.331, 14057.00
1456.376, 13995.00
1457.420, 13941.00
1458.463, 14015.00
1459.507, 14096.00
1460.550, 14037.00
1461.594, 13906.00
1462.637, 14110.00
1463.680, 13931.00
1464.723, 14013.00
1465.765, 14030.00
1466.808, 14137.00
1467.850, 14026.00
1468.892, 13936.00
1469.934, 13939.00
1470.976, 13887.00
1472.018, 13907.00
1473.060, 14093.00
1474.101, 14042.00
1475.142, 14165.00
1476.183, 13958.00
1477.224, 14019.00
1478.265, 14037.00
1479.305, 14098.00
1480.346, 14042.00
1481.386, 14023.00
1482.426, 14111.00
1483.466, 14127.00
1484.505, 13947.00
1485.545, 14083.00
1486.584, 14022.00
1487.624, 14035.00
1488.663, 14093.00
1489.702, 14057.00
1490.740, 14194.00
1491.779, 14266.00
1492.817, 14100.00
1493.856, 14353.00
1494.894, 14124.00
1495.932, 14178.00
1496.969, 14121.00
1498.007, 14285.00
1499.044, 14186.00
1500.082, 14251.00
1501.119, 14205.00
1502.156, 14199.00
1503.192, 14254.00
1504.229, 14251.00
1505.265, 14329.00
1506.302, 14258.00
1507.338, 14354.00
1508.374, 14227.00
1509.410, 14433.00
1510.445, 14158.00
1511.481, 14300.00
1512.516, 14142.00
1513.551, 14286.00
1514.586, 14406.00
1515.621, 14217.00
1516.655, 14234.00
1517.690, 14399.00
1518.724, 14395.00
1519.758, 14336.00
1520.792, 14297.00
1521.826, 14406.00
1522.860, 14214.00
1523.893, 14388.00
1524.927, 14371.00
1525.960, 14384.00
1526.993, 14445.00
1528.026, 14328.00
1529.058, 14422.00
1530.091, 14382.00
1531.123, 14403.00
1532.155, 14306.00
1533.187, 14319.62
1534.219, 14350.00
1535.251, 14293.00
1536.282, 14422.00
1537.314, 14409.00
1538.345, 14495.00
1539.376, 14377.00
1540.407, 14480.00
1541.438, 14359.00
1542.468, 14317.00
1543.499, 14509.00
1544.529, 14440.00
1545.559, 14255.00
1546.589, 14392.00
1547.618, 14318.00
1548.648, 14332.00
1549.677, 14530.00
1550.707, 14707.00
1551.736, 14573.00
1552.765, 14730.00
1553.793, 14687.42
1554.822, 14830.00
1555.850, 14598.00
1556.879, 14436.00
1557.907, 14304.00
1558.935, 14139.00
1559.962, 14235.00
1560.990, 14419.00
1562.017, 14382.00
1563.045, 14437.00
##END=



