##NAMES=Augite
##RRUFFID=R061086
##IDEAL CHEMISTRY=(Ca,Mg,Fe^2+^,Fe^3+^)_2_(Si,Al)_2_O_6_
##LOCALITY=Boreslav, Teplitz, Bohemia, Czech Republic
##OWNER=RRUFF
##SOURCE=Michael Scott
##DESCRIPTION=Black to dark green tabular euhedral crystal
##STATUS=The identification of this mineral has been confirmed by X-ray diffraction and chemical analysis
##URL=rruff.info/R061086
##MEASURED CHEMISTRY=(Ca_0.88_Mg_0.83_Fe_0.13_Al_0.08_Na_0.04_Ti_0.03_Cr_0.01_)_Σ=2_(Si_1.89_Al_0.11_)_Σ=2_O_6_
##PIN_ID=M00162
##ORIENTATION=Laser parallel to c* (0 0 1). Fiducial mark perpendicular to laser is parallel to a [1 0 0]
131.6490, 4928.000
132.8850, 4938.000
134.1200, 4873.000
135.3560, 5000.000
136.5910, 5070.000
137.8260, 5162.000
139.0610, 5183.516
140.2950, 5154.000
141.5290, 5169.000
142.7640, 5099.000
143.9980, 5035.000
145.2320, 5097.000
146.4650, 5171.000
147.6990, 5095.000
148.9320, 5141.788
150.1650, 5128.000
151.3980, 5139.000
152.6310, 5112.000
153.8640, 5138.000
155.0960, 5152.000
156.3280, 5016.000
157.5600, 5033.000
158.7920, 5039.000
160.0240, 5066.000
161.2560, 5123.000
162.4870, 5141.000
163.7180, 5144.000
164.9490, 5165.000
166.1800, 5124.000
167.4110, 5224.000
168.6410, 5180.000
169.8720, 5240.000
171.1020, 5310.000
172.3320, 5229.000
173.5620, 5185.000
174.7910, 5164.000
176.0210, 5178.000
177.2500, 5183.312
178.4790, 5228.000
179.7080, 5243.000
180.9370, 5292.000
182.1650, 5326.000
183.3940, 5333.596
184.6220, 5404.000
185.8500, 5364.000
187.0780, 5355.000
188.3050, 5399.000
189.5330, 5400.000
190.7600, 5439.000
191.9870, 5471.736
193.2140, 5520.000
194.4410, 5552.000
195.6680, 5544.000
196.8940, 5596.000
198.1200, 5579.757
199.3470, 5537.000
200.5720, 5545.000
201.7980, 5522.000
203.0240, 5465.000
204.2490, 5449.000
205.4740, 5333.000
206.6990, 5281.000
207.9240, 5315.000
209.1490, 5357.000
210.3740, 5424.000
211.5980, 5388.000
212.8220, 5410.000
214.0460, 5436.000
215.2700, 5377.000
216.4930, 5466.000
217.7170, 5354.000
218.9400, 5478.000
220.1630, 5460.000
221.3860, 5479.000
222.6090, 5484.000
223.8320, 5497.686
225.0540, 5512.000
226.2760, 5530.000
227.4980, 5586.000
228.7200, 5588.000
229.9420, 5593.695
231.1630, 5631.000
232.3850, 5593.000
233.6060, 5557.000
234.8270, 5587.000
236.0480, 5569.000
237.2690, 5654.000
238.4890, 5589.000
239.7090, 5488.000
240.9290, 5489.000
242.1490, 5551.000
243.3690, 5482.000
244.5890, 5469.000
245.8080, 5573.000
247.0270, 5589.000
248.2470, 5562.000
249.4650, 5633.000
250.6840, 5615.164
251.9030, 5689.000
253.1210, 5636.000
254.3390, 5647.000
255.5570, 5680.000
256.7750, 5683.000
257.9930, 5729.000
259.2100, 5716.046
260.4280, 5689.414
261.6450, 5749.000
262.8620, 5576.000
264.0790, 5688.000
265.2950, 5587.000
266.5120, 5645.000
267.7280, 5742.000
268.9440, 5576.000
270.1600, 5598.000
271.3760, 5681.000
272.5920, 5708.000
273.8070, 5687.000
275.0220, 5735.522
276.2370, 5718.055
277.4520, 5755.000
278.6670, 5699.000
279.8820, 5681.000
281.0960, 5661.000
282.3100, 5739.000
283.5240, 5686.000
284.7380, 5837.000
285.9520, 5808.000
287.1650, 5775.000
288.3780, 5736.000
289.5920, 5852.000
290.8050, 5853.000
292.0170, 5941.000
293.2300, 5862.000
294.4430, 5882.000
295.6550, 5957.000
296.8670, 5960.000
298.0790, 6058.000
299.2910, 6000.000
300.5020, 6036.000
301.7140, 6093.000
302.9250, 6078.000
304.1360, 6136.000
305.3470, 6140.240
306.5580, 6121.000
307.7680, 6176.000
308.9780, 6210.000
310.1890, 6265.000
311.3990, 6348.000
312.6090, 6343.000
313.8180, 6473.000
315.0280, 6561.000
316.2370, 6575.000
317.4460, 6783.000
318.6550, 6765.000
319.8640, 6694.000
321.0730, 6849.000
322.2810, 6905.000
323.4890, 7131.000
324.6980, 7097.000
325.9060, 7080.000
327.1130, 7172.000
328.3210, 7186.000
329.5280, 7130.000
330.7360, 7117.000
331.9430, 7109.000
333.1500, 7140.000
334.3560, 6904.000
335.5630, 7012.000
336.7690, 6910.000
337.9760, 6755.000
339.1820, 6813.000
340.3870, 6799.000
341.5930, 6720.000
342.7990, 6679.000
344.0040, 6764.000
345.2090, 6640.000
346.4140, 6602.000
347.6190, 6738.000
348.8240, 6748.000
350.0280, 6715.000
351.2330, 6750.000
352.4370, 6663.000
353.6410, 6773.000
354.8440, 6856.000
356.0480, 6819.000
357.2520, 6807.000
358.4550, 6888.000
359.6580, 6761.000
360.8610, 6799.000
362.0640, 6756.000
363.2660, 6707.000
364.4690, 6820.000
365.6710, 6737.000
366.8730, 6658.000
368.0750, 6725.000
369.2770, 6612.000
370.4780, 6713.000
371.6800, 6609.000
372.8810, 6614.000
374.0820, 6639.000
375.2830, 6689.000
376.4830, 6775.000
377.6840, 6703.000
378.8840, 6763.000
380.0840, 6770.000
381.2840, 6873.000
382.4840, 6959.000
383.6840, 7077.000
384.8830, 7144.000
386.0830, 7228.000
387.2820, 7307.000
388.4810, 7447.000
389.6800, 7467.000
390.8780, 7543.000
392.0770, 7646.000
393.2750, 7664.869
394.4730, 7614.489
395.6710, 7665.000
396.8690, 7483.000
398.0660, 7292.000
399.2640, 7330.000
400.4610, 6995.000
401.6580, 7057.000
402.8550, 6986.000
404.0520, 6730.000
405.2490, 6763.000
406.4450, 6671.000
407.6410, 6590.000
408.8370, 6503.000
410.0330, 6445.000
411.2290, 6338.000
412.4240, 6346.000
413.6200, 6374.000
414.8150, 6406.000
416.0100, 6308.000
417.2050, 6298.000
418.4000, 6393.000
419.5940, 6442.000
420.7880, 6332.000
421.9830, 6334.000
423.1770, 6298.000
424.3700, 6302.000
425.5640, 6329.000
426.7580, 6295.000
427.9510, 6342.000
429.1440, 6219.000
430.3370, 6358.000
431.5300, 6332.000
432.7220, 6284.000
433.9150, 6367.000
435.1070, 6387.000
436.2990, 6389.000
437.4910, 6431.000
438.6830, 6424.875
439.8750, 6312.000
441.0660, 6405.000
442.2570, 6366.000
443.4480, 6303.000
444.6390, 6382.000
445.8300, 6344.000
447.0210, 6399.000
448.2110, 6423.000
449.4010, 6399.000
450.5910, 6342.000
451.7810, 6363.000
452.9710, 6465.000
454.1610, 6402.000
455.3500, 6447.000
456.5390, 6478.000
457.7280, 6435.000
458.9170, 6448.000
460.1060, 6493.000
461.2940, 6581.000
462.4830, 6498.000
463.6710, 6511.000
464.8590, 6448.000
466.0470, 6593.000
467.2350, 6471.000
468.4220, 6511.000
469.6090, 6678.000
470.7970, 6435.000
471.9840, 6588.000
473.1700, 6459.000
474.3570, 6538.000
475.5440, 6448.000
476.7300, 6499.000
477.9160, 6592.000
479.1020, 6566.000
480.2880, 6460.000
481.4740, 6589.000
482.6590, 6451.000
483.8440, 6530.000
485.0300, 6543.000
486.2140, 6573.000
487.3990, 6592.439
488.5840, 6635.000
489.7680, 6591.000
490.9530, 6587.000
492.1370, 6563.000
493.3210, 6601.000
494.5040, 6611.000
495.6880, 6605.000
496.8720, 6669.000
498.0550, 6636.000
499.2380, 6628.000
500.4210, 6695.000
501.6040, 6561.000
502.7860, 6762.000
503.9690, 6694.000
505.1510, 6804.000
506.3330, 6729.000
507.5150, 6630.000
508.6970, 6790.000
509.8780, 6757.000
511.0600, 6823.000
512.2410, 6780.000
513.4220, 6760.000
514.6030, 6827.000
515.7840, 6786.000
516.9640, 6879.000
518.1440, 6871.000
519.3250, 6882.000
520.5050, 6892.000
521.6850, 6855.000
522.8640, 6863.000
524.0440, 6904.000
525.2230, 6886.000
526.4020, 6915.000
527.5820, 6936.972
528.7600, 6957.000
529.9390, 6951.000
531.1180, 6969.627
532.2960, 6958.000
533.4740, 6976.000
534.6520, 6998.000
535.8300, 6981.000
537.0080, 6982.000
538.1850, 6970.000
539.3630, 7002.000
540.5400, 6999.000
541.7170, 6971.000
542.8940, 7009.000
544.0700, 6944.000
545.2470, 7033.000
546.4230, 6975.000
547.5990, 6985.000
548.7750, 7115.000
549.9510, 7096.000
551.1270, 6952.000
552.3020, 7034.000
553.4780, 6953.000
554.6530, 7073.000
555.8280, 7099.000
557.0030, 7110.000
558.1770, 7048.000
559.3520, 7127.000
560.5260, 7120.428
561.7000, 7063.000
562.8740, 7157.000
564.0480, 7109.000
565.2220, 7078.000
566.3950, 6998.000
567.5680, 7043.000
568.7420, 7066.000
569.9150, 7013.000
571.0870, 7036.000
572.2600, 7030.510
573.4320, 7069.000
574.6050, 7073.000
575.7770, 7076.000
576.9490, 7078.476
578.1210, 7070.091
579.2920, 7048.000
580.4640, 7044.000
581.6350, 7005.000
582.8060, 6978.000
583.9770, 7005.000
585.1480, 6924.000
586.3190, 7023.000
587.4890, 6993.000
588.6590, 7064.000
589.8290, 6959.000
590.9990, 7028.000
592.1690, 6999.000
593.3390, 7034.000
594.5080, 6953.000
595.6770, 7048.000
596.8470, 7009.000
598.0160, 7024.000
599.1840, 7019.000
600.3530, 7009.956
601.5210, 7024.000
602.6900, 7013.000
603.8580, 7066.000
605.0260, 7085.000
606.1930, 7012.000
607.3610, 7166.000
608.5280, 6992.000
609.6960, 7087.000
610.8630, 7106.000
612.0300, 7142.000
613.1970, 7098.000
614.3630, 7133.000
615.5300, 7063.000
616.6960, 7199.000
617.8620, 7177.000
619.0280, 7122.000
620.1940, 7152.000
621.3590, 7103.000
622.5250, 7199.000
623.6900, 7243.000
624.8550, 7027.000
626.0200, 7182.000
627.1850, 7158.000
628.3490, 7185.000
629.5140, 7241.000
630.6780, 7223.000
631.8420, 7284.584
633.0060, 7270.000
634.1700, 7362.000
635.3330, 7305.000
636.4970, 7310.000
637.6600, 7411.000
638.8230, 7392.000
639.9860, 7368.000
641.1490, 7362.000
642.3110, 7540.000
643.4740, 7545.000
644.6360, 7546.000
645.7980, 7738.000
646.9600, 7606.000
648.1220, 7742.000
649.2840, 7811.000
650.4450, 7798.000
651.6060, 7953.000
652.7670, 8030.000
653.9280, 8183.000
655.0890, 8335.000
656.2500, 8496.517
657.4100, 8605.000
658.5700, 8874.000
659.7300, 9064.000
660.8900, 9258.000
662.0500, 9714.000
663.2100, 9769.000
664.3690, 9968.000
665.5280, 10232.00
666.6880, 10292.00
667.8460, 10357.00
669.0050, 10204.00
670.1640, 9875.000
671.3220, 9747.000
672.4810, 9327.000
673.6390, 9157.000
674.7970, 8876.000
675.9540, 8714.000
677.1120, 8434.000
678.2690, 8367.000
679.4270, 8370.000
680.5840, 8063.000
681.7410, 8046.000
682.8980, 8022.000
684.0540, 7875.000
685.2110, 7875.000
686.3670, 7765.000
687.5230, 7766.000
688.6790, 7841.000
689.8350, 7735.000
690.9900, 7841.000
692.1460, 7715.000
693.3010, 7560.000
694.4560, 7719.000
695.6110, 7740.000
696.7660, 7597.000
697.9210, 7695.363
699.0750, 7656.033
700.2290, 7677.000
701.3840, 7688.000
702.5370, 7634.000
703.6910, 7677.000
704.8450, 7652.000
705.9980, 7679.000
707.1520, 7706.000
708.3050, 7637.000
709.4580, 7753.000
710.6110, 7711.000
711.7630, 7706.000
712.9160, 7684.000
714.0680, 7751.000
715.2200, 7715.000
716.3720, 7737.000
717.5240, 7713.000
718.6760, 7734.000
719.8270, 7689.000
720.9780, 7713.000
722.1300, 7705.000
723.2810, 7687.000
724.4310, 7769.000
725.5820, 7727.000
726.7330, 7683.000
727.8830, 7811.000
729.0330, 7763.000
730.1830, 7734.000
731.3330, 7785.000
732.4830, 7764.000
733.6320, 7719.000
734.7810, 7838.000
735.9310, 7830.000
737.0800, 7847.000
738.2290, 7710.000
739.3770, 7858.000
740.5260, 7753.000
741.6740, 7803.000
742.8220, 7831.000
743.9700, 7802.958
745.1180, 7874.000
746.2660, 7825.000
747.4130, 7852.000
748.5610, 7888.000
749.7080, 7893.133
750.8550, 7996.000
752.0020, 7963.000
753.1490, 8022.000
754.2950, 8076.000
755.4420, 7989.000
756.5880, 8132.000
757.7340, 7913.000
758.8800, 8044.000
760.0250, 8076.000
761.1710, 8055.000
762.3160, 8236.000
763.4620, 8160.000
764.6070, 8332.000
765.7520, 8113.000
766.8960, 8212.000
768.0410, 8241.000
769.1850, 8241.000
770.3300, 8225.000
771.4740, 8215.000
772.6180, 8244.000
773.7610, 8218.000
774.9050, 8365.000
776.0480, 8327.000
777.1920, 8365.000
778.3350, 8357.000
779.4780, 8307.000
780.6200, 8351.000
781.7630, 8416.000
782.9060, 8356.000
784.0480, 8395.000
785.1900, 8418.000
786.3320, 8423.000
787.4740, 8412.000
788.6150, 8238.000
789.7570, 8310.000
790.8980, 8446.000
792.0390, 8350.000
793.1800, 8477.000
794.3210, 8399.000
795.4620, 8453.000
796.6020, 8407.000
797.7420, 8344.000
798.8830, 8507.000
800.0230, 8480.000
801.1620, 8527.000
802.3020, 8472.000
803.4420, 8455.000
804.5810, 8470.000
805.7200, 8529.000
806.8590, 8543.000
807.9980, 8533.000
809.1370, 8529.000
810.2750, 8668.000
811.4140, 8541.000
812.5520, 8600.000
813.6900, 8644.000
814.8280, 8509.000
815.9650, 8611.000
817.1030, 8627.000
818.2400, 8657.000
819.3780, 8667.000
820.5150, 8657.000
821.6520, 8685.000
822.7880, 8584.000
823.9250, 8706.000
825.0610, 8811.000
826.1980, 8830.000
827.3340, 8711.000
828.4700, 8677.000
829.6050, 8835.000
830.7410, 8749.000
831.8760, 8815.000
833.0120, 8860.000
834.1470, 8982.000
835.2820, 9018.994
836.4160, 9070.000
837.5510, 9129.000
838.6860, 9158.000
839.8200, 9200.000
840.9540, 9184.000
842.0880, 9094.000
843.2220, 9061.000
844.3550, 9183.000
845.4890, 9059.000
846.6220, 9028.000
847.7550, 8917.000
848.8880, 8945.000
850.0210, 9002.000
851.1540, 8942.000
852.2860, 9055.000
853.4190, 8905.000
854.5510, 9027.000
855.6830, 9068.000
856.8150, 9188.000
857.9460, 9068.000
859.0780, 9161.000
860.2090, 9130.000
861.3410, 9161.000
862.4720, 9228.000
863.6020, 9164.496
864.7330, 9087.000
865.8640, 9100.000
866.9940, 9091.000
868.1240, 9101.000
869.2540, 9123.000
870.3840, 9070.000
871.5140, 9120.000
872.6440, 9059.000
873.7730, 9161.000
874.9020, 9039.000
876.0320, 9066.000
877.1600, 9180.000
878.2890, 9131.000
879.4180, 9220.000
880.5460, 9160.000
881.6750, 9098.000
882.8030, 9240.000
883.9310, 9163.000
885.0590, 9159.000
886.1860, 9141.000
887.3140, 9270.000
888.4410, 9175.000
889.5680, 9235.000
890.6950, 9109.000
891.8220, 9271.000
892.9490, 9259.000
894.0750, 9163.000
895.2020, 9231.000
896.3280, 9218.000
897.4540, 9181.000
898.5800, 9276.000
899.7050, 9352.000
900.8310, 9259.000
901.9560, 9225.000
903.0820, 9289.000
904.2070, 9310.000
905.3320, 9313.288
906.4560, 9309.000
907.5810, 9332.000
908.7050, 9315.000
909.8300, 9309.000
910.9540, 9417.000
912.0780, 9320.000
913.2010, 9429.000
914.3250, 9406.000
915.4480, 9357.000
916.5720, 9458.000
917.6950, 9409.000
918.8180, 9455.000
919.9410, 9558.000
921.0630, 9570.000
922.1860, 9576.344
923.3080, 9504.000
924.4300, 9524.000
925.5520, 9494.000
926.6740, 9443.000
927.7960, 9567.000
928.9170, 9559.000
930.0390, 9614.000
931.1600, 9521.000
932.2810, 9579.000
933.4020, 9503.000
934.5230, 9619.000
935.6430, 9450.000
936.7640, 9529.000
937.8840, 9605.000
939.0040, 9502.000
940.1240, 9557.000
941.2440, 9554.000
942.3630, 9599.000
943.4830, 9623.457
944.6020, 9635.549
945.7210, 9662.000
946.8400, 9666.000
947.9590, 9682.714
949.0770, 9661.000
950.1960, 9701.000
951.3140, 9724.000
952.4320, 9722.000
953.5500, 9680.000
954.6680, 9663.000
955.7860, 9697.000
956.9030, 9682.244
958.0210, 9835.000
959.1380, 9718.000
960.2550, 9815.000
961.3720, 9862.000
962.4890, 9787.000
963.6050, 9829.000
964.7220, 9867.000
965.8380, 9935.000
966.9540, 9935.000
968.0700, 9882.000
969.1860, 9897.000
970.3010, 9901.000
971.4170, 9887.955
972.5320, 10078.00
973.6470, 9969.000
974.7620, 9918.000
975.8770, 10119.00
976.9910, 10081.00
978.1060, 10124.00
979.2200, 10192.00
980.3340, 10142.00
981.4480, 10238.00
982.5620, 10179.00
983.6760, 10305.00
984.7890, 10326.00
985.9030, 10337.00
987.0160, 10339.00
988.1290, 10363.00
989.2420, 10571.00
990.3550, 10657.00
991.4670, 10737.00
992.5800, 10823.00
993.6920, 10923.00
994.8040, 10988.00
995.9160, 11175.00
997.0280, 11418.00
998.1390, 11539.00
999.2510, 11713.00
1000.362, 11957.00
1001.473, 12045.00
1002.584, 12406.00
1003.695, 12598.00
1004.805, 12910.00
1005.916, 13199.00
1007.026, 13489.00
1008.136, 13621.00
1009.246, 13731.00
1010.356, 13781.00
1011.466, 13689.00
1012.576, 13661.00
1013.685, 13275.00
1014.794, 12817.00
1015.903, 12541.00
1017.012, 12276.00
1018.121, 11905.00
1019.229, 11607.00
1020.338, 11423.00
1021.446, 11280.00
1022.554, 11106.00
1023.662, 10921.00
1024.770, 10868.00
1025.878, 10730.00
1026.985, 10668.00
1028.092, 10707.00
1029.200, 10475.00
1030.307, 10547.00
1031.413, 10664.00
1032.520, 10622.00
1033.627, 10616.00
1034.733, 10657.00
1035.839, 10641.00
1036.945, 10549.00
1038.051, 10605.00
1039.157, 10549.13
1040.262, 10557.00
1041.368, 10490.00
1042.473, 10593.00
1043.578, 10541.00
1044.683, 10598.00
1045.788, 10520.00
1046.893, 10475.00
1047.997, 10518.00
1049.101, 10399.00
1050.205, 10446.00
1051.309, 10528.00
1052.413, 10491.00
1053.517, 10381.00
1054.621, 10358.00
1055.724, 10476.00
1056.827, 10544.00
1057.930, 10314.00
1059.033, 10426.00
1060.136, 10364.00
1061.238, 10318.00
1062.341, 10437.00
1063.443, 10445.00
1064.545, 10437.00
1065.647, 10461.00
1066.749, 10288.00
1067.850, 10459.00
1068.952, 10408.00
1070.053, 10276.00
1071.154, 10441.00
1072.255, 10429.00
1073.356, 10360.00
1074.457, 10411.00
1075.557, 10437.00
1076.658, 10450.00
1077.758, 10425.00
1078.858, 10451.97
1079.958, 10468.99
1081.057, 10455.00
1082.157, 10528.00
1083.256, 10497.00
1084.356, 10524.00
1085.455, 10475.00
1086.554, 10484.00
1087.653, 10559.00
1088.751, 10554.00
1089.850, 10530.00
1090.948, 10671.00
1092.046, 10404.00
1093.144, 10411.00
1094.242, 10596.00
1095.340, 10404.00
1096.437, 10502.00
1097.534, 10429.00
1098.632, 10453.00
1099.729, 10551.00
1100.826, 10489.00
1101.922, 10517.00
1103.019, 10513.00
1104.115, 10591.00
1105.212, 10478.00
1106.308, 10679.00
1107.404, 10519.00
1108.499, 10624.00
1109.595, 10546.00
1110.691, 10562.00
1111.786, 10613.00
1112.881, 10711.00
1113.976, 10527.00
1115.071, 10656.00
1116.166, 10589.00
1117.260, 10528.00
1118.355, 10597.00
1119.449, 10599.00
1120.543, 10636.00
1121.637, 10756.00
1122.731, 10651.00
1123.824, 10617.00
1124.918, 10672.00
1126.011, 10577.00
1127.104, 10607.00
1128.197, 10587.00
1129.290, 10664.00
1130.382, 10728.00
1131.475, 10627.00
1132.567, 10582.00
1133.659, 10633.00
1134.751, 10586.00
1135.843, 10746.00
1136.935, 10644.00
1138.027, 10686.00
1139.118, 10675.00
1140.209, 10668.00
1141.300, 10722.00
1142.391, 10571.00
1143.482, 10630.00
1144.573, 10551.00
1145.663, 10807.00
1146.754, 10645.00
1147.844, 10802.00
1148.934, 10629.00
1150.024, 10741.00
1151.113, 10600.00
1152.203, 10822.00
1153.292, 10721.00
1154.381, 10710.00
1155.470, 10692.00
1156.559, 10691.67
1157.648, 10870.00
1158.737, 10740.00
1159.825, 10853.00
1160.913, 10866.00
1162.001, 10808.00
1163.089, 10730.00
1164.177, 10989.00
1165.265, 10870.00
1166.352, 10793.00
1167.440, 10924.00
1168.527, 10853.00
1169.614, 10753.00
1170.701, 10921.00
1171.788, 10851.00
1172.874, 10749.00
1173.961, 10707.00
1175.047, 10719.00
1176.133, 10742.00
1177.219, 10902.00
1178.305, 10983.00
1179.390, 10995.00
1180.476, 10736.00
1181.561, 10929.00
1182.646, 10816.00
1183.731, 10802.00
1184.816, 10954.00
1185.901, 10994.00
1186.985, 10947.00
1188.070, 10937.00
1189.154, 10930.00
1190.238, 10880.00
1191.322, 10947.00
1192.406, 10951.31
1193.489, 10908.00
1194.573, 11047.00
1195.656, 10971.00
1196.739, 11042.00
1197.822, 11050.00
1198.905, 11072.00
1199.988, 11117.00
1201.070, 11111.00
1202.153, 11009.00
1203.235, 11025.00
1204.317, 11037.00
1205.399, 11066.00
1206.481, 11101.00
1207.562, 11060.00
1208.644, 11131.00
1209.725, 11101.00
1210.806, 11167.00
1211.887, 11192.00
1212.968, 11107.00
1214.049, 11175.54
1215.129, 11104.00
1216.209, 11220.00
1217.290, 11203.00
1218.370, 11233.00
1219.450, 11184.00
1220.529, 11152.00
1221.609, 11230.00
1222.688, 11212.00
1223.768, 11226.00
1224.847, 11259.94
1225.926, 11252.00
1227.005, 11291.00
1228.083, 11254.00
1229.162, 11244.00
1230.240, 11283.00
1231.318, 11256.00
1232.396, 11265.00
1233.474, 11281.00
1234.552, 11397.00
1235.629, 11392.00
1236.707, 11275.00
1237.784, 11153.00
1238.861, 11427.00
1239.938, 11284.00
1241.015, 11430.00
1242.092, 11389.00
1243.168, 11274.00
1244.244, 11431.00
1245.321, 11232.00
1246.397, 11401.00
1247.473, 11371.00
1248.548, 11455.00
1249.624, 11569.00
1250.699, 11471.00
1251.775, 11297.00
1252.850, 11457.00
1253.925, 11476.00
1254.999, 11583.00
1256.074, 11574.00
1257.148, 11468.00
1258.223, 11414.00
1259.297, 11525.00
1260.371, 11615.00
1261.445, 11591.00
1262.519, 11550.00
1263.592, 11577.00
1264.666, 11659.00
1265.739, 11438.00
1266.812, 11625.00
1267.885, 11644.08
1268.958, 11724.90
1270.030, 11773.61
1271.103, 11791.95
1272.175, 11688.93
1273.247, 11742.61
1274.319, 11733.50
1275.391, 11721.81
1276.463, 11797.55
1277.535, 11712.18
1278.606, 11786.53
1279.677, 11797.12
1280.748, 11836.89
1281.819, 11813.47
1282.890, 11809.57
1283.961, 11868.87
1285.031, 11893.17
1286.102, 11862.48
1287.172, 11904.10
1288.242, 11816.51
1289.312, 11842.30
1290.381, 11917.00
1291.451, 11889.48
1292.520, 11932.25
1293.590, 11948.24
1294.659, 11842.57
1295.728, 11948.49
1296.797, 11962.90
1297.865, 11883.35
1298.934, 11982.01
1300.002, 11915.41
1301.070, 11907.80
1302.138, 11944.58
1303.206, 11935.09
1304.274, 11998.55
1305.341, 11991.72
1306.409, 11978.61
1307.476, 11992.91
1308.543, 11929.54
1309.610, 12010.25
1310.677, 11927.00
1311.744, 12025.00
1312.810, 11907.00
1313.877, 12052.00
1314.943, 11908.00
1316.009, 12003.00
1317.075, 12158.00
1318.140, 12120.00
1319.206, 12002.00
1320.272, 11980.00
1321.337, 12154.00
1322.402, 12097.00
1323.467, 12169.00
1324.532, 12010.00
1325.596, 12121.00
1326.661, 12005.00
1327.725, 12132.00
1328.790, 12250.00
1329.854, 12226.00
1330.918, 12189.00
1331.981, 12262.00
1333.045, 12315.00
1334.108, 12282.00
1335.172, 12311.57
1336.235, 12278.00
1337.298, 12257.00
1338.361, 12248.00
1339.423, 12155.00
1340.486, 12352.00
1341.548, 12191.00
1342.611, 12290.00
1343.673, 12302.00
1344.735, 12227.00
1345.796, 12231.00
1346.858, 12215.00
1347.919, 12169.00
1348.981, 12197.29
1350.042, 12320.00
1351.103, 12245.00
1352.164, 12333.00
1353.225, 12396.00
1354.285, 12360.00
1355.346, 12330.00
1356.406, 12475.00
1357.466, 12380.00
1358.526, 12324.00
1359.586, 12336.00
1360.645, 12407.00
1361.705, 12315.00
1362.764, 12484.00
1363.823, 12328.00
1364.882, 12369.00
1365.941, 12231.00
1367.000, 12501.00
1368.059, 12417.00
1369.117, 12499.00
1370.175, 12502.00
1371.233, 12468.00
1372.291, 12427.00
1373.349, 12543.00
1374.407, 12390.00
1375.464, 12500.00
1376.522, 12496.00
1377.579, 12473.00
1378.636, 12566.00
1379.693, 12492.00
1380.750, 12448.00
1381.806, 12579.00
1382.863, 12648.00
1383.919, 12439.00
1384.975, 12504.00
1386.031, 12492.00
1387.087, 12504.00
1388.143, 12572.00
1389.199, 12554.00
1390.254, 12659.00
1391.309, 12548.00
1392.364, 12609.00
1393.419, 12734.00
1394.474, 12633.00
1395.529, 12632.00
1396.583, 12538.00
1397.638, 12631.00
1398.692, 12595.00
1399.746, 12497.00
1400.800, 12703.00
1401.853, 12645.00
1402.907, 12625.00
1403.960, 12734.00
1405.014, 12674.00
1406.067, 12540.00
1407.120, 12703.00
1408.173, 12659.00
1409.225, 12811.00
1410.278, 12730.00
1411.330, 12728.00
1412.383, 12718.00
1413.435, 12742.00
1414.487, 12834.00
1415.538, 12905.00
1416.590, 12683.00
1417.641, 12888.00
1418.693, 12821.00
1419.744, 12849.00
1420.795, 12991.00
1421.846, 12853.00
1422.897, 12740.00
1423.947, 12907.00
1424.998, 12841.00
1426.048, 12957.00
1427.098, 12993.00
1428.148, 12984.00
1429.198, 12984.00
1430.247, 12906.00
1431.297, 12975.00
1432.346, 13070.00
1433.396, 13084.00
1434.445, 13224.00
1435.494, 13152.85
1436.542, 13139.00
1437.591, 13021.00
1438.639, 13047.00
1439.688, 12973.00
1440.736, 13168.00
1441.784, 13064.00
1442.832, 13139.00
1443.880, 13053.00
1444.927, 13225.00
1445.975, 13144.00
1447.022, 13095.00
1448.069, 13075.00
1449.116, 13172.00
1450.163, 13159.00
1451.209, 13167.00
1452.256, 13372.00
1453.302, 13223.00
1454.348, 13246.00
1455.394, 13126.00
1456.440, 13270.00
1457.486, 13260.00
1458.532, 13303.00
1459.577, 13181.00
1460.623, 13219.00
1461.668, 13237.00
1462.713, 13219.13
1463.758, 13308.00
1464.802, 13262.00
1465.847, 13256.00
1466.891, 13277.00
1467.936, 13232.00
1468.980, 13353.00
1470.024, 13144.00
1471.067, 13296.00
1472.111, 13448.00
1473.155, 13251.00
1474.198, 13231.00
1475.241, 13394.00
1476.284, 13363.00
1477.327, 13374.00
1478.370, 13376.00
1479.413, 13448.00
1480.455, 13352.00
1481.497, 13528.00
1482.540, 13419.00
1483.582, 13565.00
1484.624, 13467.00
1485.665, 13478.00
1486.707, 13510.00
1487.748, 13480.00
1488.790, 13524.00
1489.831, 13498.17
1490.872, 13482.00
1491.912, 13485.00
1492.953, 13469.00
1493.994, 13514.00
1495.034, 13603.00
1496.074, 13500.00
1497.114, 13604.00
1498.154, 13466.00
1499.194, 13472.00
1500.234, 13519.00
1501.273, 13637.00
1502.313, 13620.00
1503.352, 13676.00
1504.391, 13552.00
1505.430, 13610.00
1506.468, 13585.00
1507.507, 13585.02
1508.545, 13814.00
1509.584, 13683.00
1510.622, 13613.00
1511.660, 13767.00
1512.698, 13683.00
1513.735, 13693.00
1514.773, 13629.00
1515.810, 13736.00
1516.848, 13767.00
1517.885, 13717.00
1518.922, 13751.00
1519.958, 13706.00
1520.995, 13795.00
1522.032, 13755.00
1523.068, 13684.00
1524.104, 13872.00
1525.140, 13896.00
1526.176, 13809.00
1527.212, 13895.00
1528.248, 13765.00
1529.283, 13844.00
1530.318, 13827.00
1531.353, 13902.00
1532.389, 13779.00
1533.423, 13842.00
1534.458, 13943.00
1535.493, 13849.00
1536.527, 13882.00
1537.561, 13800.00
1538.596, 13834.00
1539.630, 13752.00
1540.663, 13844.00
1541.697, 13920.00
1542.731, 13913.00
1543.764, 13807.00
1544.797, 13841.00
1545.830, 14006.00
##END=



