##NAMES=Augite
##RRUFFID=R061108
##IDEAL CHEMISTRY=(Ca,Mg,Fe^2+^,Fe^3+^)_2_(Si,Al)_2_O_6_
##LOCALITY=Monti Rossi, near Mt. Etna, Sicily, Italy
##OWNER=RRUFF
##SOURCE=Michael Scott
##DESCRIPTION=Euhedral, short prismatic, black crystals in vesicular basalt.
##STATUS=The identification of this mineral is confirmed by single-crystal X-ray diffraction and chemical analysis.
##URL=rruff.info/R061108
##MEASURED CHEMISTRY=(Ca_0.86_Mg_0.74_Fe^2+^_0.18_Fe^3+^_0.08_Al_0.05_Ti_0.04_Na_0.04_Mn_0.01_)_Σ=2_(Si_1.83_Al_0.17_)_Σ=2_O_6_
##PIN_ID=L01906
##ORIENTATION=Laser parallel to (1 0 1). Fiducial mark perpendicular to laser is parallel to -b [0 -1 0]
161.1660, 12198.00
162.4000, 12422.00
163.6330, 12380.00
164.8670, 12577.00
166.1000, 12368.00
167.3340, 12304.00
168.5670, 12317.00
169.8000, 12574.00
171.0320, 12527.00
172.2650, 12464.00
173.4970, 12467.00
174.7290, 12415.00
175.9610, 12397.00
177.1930, 12470.00
178.4240, 12650.00
179.6550, 12487.00
180.8870, 12653.00
182.1170, 12641.00
183.3480, 12556.00
184.5790, 12712.00
185.8090, 12751.00
187.0390, 12955.00
188.2690, 12871.29
189.4990, 12916.00
190.7290, 12969.19
191.9580, 13031.00
193.1870, 13010.00
194.4160, 12961.00
195.6450, 12968.00
196.8740, 12912.00
198.1020, 13009.00
199.3310, 13114.00
200.5590, 13151.00
201.7870, 13144.00
203.0140, 13043.00
204.2420, 13138.00
205.4690, 12758.17
206.6960, 12610.14
207.9230, 12117.00
209.1500, 12160.00
210.3760, 12103.00
211.6030, 12172.00
212.8290, 12214.00
214.0550, 12315.00
215.2810, 12090.00
216.5060, 12160.00
217.7320, 12319.00
218.9570, 12133.00
220.1820, 12220.00
221.4070, 12206.00
222.6320, 12218.00
223.8560, 12277.00
225.0800, 12282.00
226.3040, 12251.00
227.5280, 12197.00
228.7520, 12281.00
229.9760, 12309.00
231.1990, 12184.00
232.4220, 12208.00
233.6450, 12414.00
234.8680, 12296.00
236.0910, 12428.00
237.3130, 12437.00
238.5350, 12376.00
239.7570, 12608.00
240.9790, 12473.00
242.2010, 12486.00
243.4220, 12664.00
244.6430, 12529.00
245.8640, 12668.00
247.0850, 12824.00
248.3060, 12881.00
249.5270, 12839.00
250.7470, 12841.00
251.9670, 12901.00
253.1870, 12987.18
254.4070, 13036.30
255.6260, 13050.35
256.8460, 12924.31
258.0650, 12979.17
259.2840, 12961.54
260.5030, 12940.93
261.7220, 13021.25
262.9400, 12915.58
264.1580, 12994.30
265.3760, 12999.42
266.5940, 13007.00
267.8120, 13079.00
269.0290, 13121.00
270.2470, 12966.00
271.4640, 12993.00
272.6810, 12982.00
273.8980, 13199.00
275.1140, 13011.00
276.3310, 13247.00
277.5470, 13241.00
278.7630, 13445.00
279.9790, 13424.00
281.1940, 13420.00
282.4100, 13597.00
283.6250, 13655.00
284.8400, 13717.00
286.0550, 13799.00
287.2700, 13906.24
288.4850, 14013.00
289.6990, 14180.00
290.9130, 14315.00
292.1270, 14518.00
293.3410, 14657.00
294.5540, 14791.00
295.7680, 14952.00
296.9810, 15159.00
298.1940, 15342.00
299.4070, 15573.00
300.6200, 15849.00
301.8320, 16178.00
303.0450, 16397.00
304.2570, 16616.00
305.4690, 17293.00
306.6800, 17649.00
307.8920, 18230.00
309.1030, 18720.00
310.3150, 19142.00
311.5260, 19735.00
312.7360, 20506.00
313.9470, 21190.00
315.1580, 22000.00
316.3680, 22571.00
317.5780, 23429.00
318.7880, 24007.00
319.9980, 24896.00
321.2070, 25241.00
322.4170, 25734.00
323.6260, 26134.00
324.8350, 26466.00
326.0430, 26457.00
327.2520, 26575.00
328.4610, 26447.00
329.6690, 26307.00
330.8770, 26077.00
332.0850, 25704.00
333.2920, 25554.00
334.5000, 25259.00
335.7070, 25085.00
336.9140, 24750.00
338.1210, 24560.00
339.3280, 24220.00
340.5350, 24316.00
341.7410, 24276.00
342.9470, 24263.00
344.1540, 24469.00
345.3590, 24504.00
346.5650, 24741.00
347.7710, 24975.00
348.9760, 24896.00
350.1810, 25119.00
351.3860, 25172.00
352.5910, 25311.00
353.7950, 25219.00
355.0000, 25255.00
356.2040, 25148.00
357.4080, 25336.00
358.6120, 25222.00
359.8150, 25056.00
361.0190, 24715.00
362.2220, 24824.00
363.4250, 24494.00
364.6280, 24453.00
365.8310, 24187.00
367.0340, 23973.00
368.2360, 24148.00
369.4380, 24303.00
370.6400, 24363.00
371.8420, 24306.00
373.0440, 24450.00
374.2450, 24776.00
375.4470, 25173.00
376.6480, 25911.00
377.8490, 26515.00
379.0490, 27414.00
380.2500, 28100.00
381.4500, 28810.00
382.6510, 29965.00
383.8510, 30882.00
385.0500, 31737.00
386.2500, 32474.00
387.4500, 33161.00
388.6490, 33335.33
389.8480, 33282.09
391.0470, 32947.00
392.2460, 32337.00
393.4440, 31062.00
394.6430, 30001.00
395.8410, 28420.00
397.0390, 26933.00
398.2370, 25380.00
399.4340, 24152.00
400.6320, 22632.00
401.8290, 21430.00
403.0260, 20491.00
404.2230, 19563.00
405.4200, 18685.00
406.6170, 18229.00
407.8130, 17433.00
409.0090, 16972.00
410.2050, 16706.00
411.4010, 16429.00
412.5970, 16257.00
413.7920, 16044.00
414.9880, 15935.00
416.1830, 15820.00
417.3780, 15666.00
418.5730, 15386.00
419.7670, 15266.00
420.9620, 15180.31
422.1560, 15086.59
423.3500, 15133.00
424.5440, 15018.00
425.7380, 15075.00
426.9310, 15005.00
428.1240, 14810.00
429.3180, 14712.00
430.5110, 14783.00
431.7030, 14651.00
432.8960, 14717.00
434.0890, 14466.00
435.2810, 14496.00
436.4730, 14523.00
437.6650, 14318.00
438.8570, 14383.00
440.0480, 14440.00
441.2390, 14224.00
442.4310, 14352.00
443.6220, 14355.00
444.8120, 14412.00
446.0030, 14451.31
447.1940, 14349.00
448.3840, 14473.00
449.5740, 14494.00
450.7640, 14456.00
451.9540, 14571.00
453.1430, 14739.00
454.3330, 14699.00
455.5220, 14846.00
456.7110, 14834.00
457.9000, 14920.00
459.0890, 15053.00
460.2770, 15169.00
461.4650, 15134.00
462.6540, 15165.00
463.8420, 15264.00
465.0290, 15147.00
466.2170, 15241.00
467.4050, 15342.00
468.5920, 15268.00
469.7790, 15207.00
470.9660, 15248.00
472.1530, 15155.00
473.3390, 15261.00
474.5250, 15226.92
475.7120, 15206.00
476.8980, 15223.00
478.0840, 15243.00
479.2690, 15224.00
480.4550, 15200.00
481.6400, 15214.00
482.8250, 15199.00
484.0100, 15270.00
485.1950, 15232.00
486.3800, 15393.00
487.5640, 15354.00
488.7480, 15305.00
489.9320, 15393.00
491.1160, 15262.00
492.3000, 15375.00
493.4840, 15297.00
494.6670, 15339.88
495.8500, 15431.00
497.0330, 15397.00
498.2160, 15364.00
499.3990, 15317.00
500.5810, 15348.00
501.7630, 15398.50
502.9460, 15466.71
504.1280, 15601.00
505.3090, 15687.00
506.4910, 15849.00
507.6720, 15981.00
508.8540, 16151.00
510.0350, 16281.00
511.2160, 16415.00
512.3960, 16541.00
513.5770, 16741.13
514.7570, 17043.00
515.9380, 17172.00
517.1180, 17473.00
518.2970, 17733.00
519.4770, 17961.00
520.6570, 18199.00
521.8360, 18444.00
523.0150, 18834.00
524.1940, 19037.00
525.3730, 19554.00
526.5510, 19817.00
527.7300, 20144.00
528.9080, 20329.00
530.0860, 20408.00
531.2640, 20457.00
532.4420, 20480.23
533.6200, 20505.00
534.7970, 20346.00
535.9740, 20288.00
537.1510, 20060.67
538.3280, 19650.00
539.5050, 19617.00
540.6810, 19385.00
541.8580, 19071.00
543.0340, 18933.00
544.2100, 18847.00
545.3860, 18497.00
546.5610, 18273.00
547.7370, 18263.00
548.9120, 17899.00
550.0870, 17781.00
551.2620, 17573.00
552.4370, 17478.00
553.6120, 17301.00
554.7860, 17223.00
555.9600, 17190.00
557.1340, 17089.00
558.3080, 16994.51
559.4820, 16849.00
560.6560, 16751.00
561.8290, 16611.00
563.0020, 16447.00
564.1750, 16379.00
565.3480, 16404.00
566.5210, 15990.00
567.6930, 16033.00
568.8660, 15900.00
570.0380, 15645.00
571.2100, 15634.00
572.3820, 15278.00
573.5530, 14975.00
574.7250, 14767.00
575.8960, 14758.00
577.0670, 14566.00
578.2380, 14278.00
579.4090, 13986.00
580.5800, 13788.00
581.7500, 13524.00
582.9210, 13433.00
584.0910, 13105.00
585.2610, 12978.00
586.4300, 12509.00
587.6000, 12495.00
588.7690, 12263.00
589.9390, 12208.00
591.1080, 11928.00
592.2770, 11649.00
593.4450, 11781.00
594.6140, 11557.00
595.7820, 11377.00
596.9500, 11363.00
598.1190, 11298.00
599.2860, 11193.00
600.4540, 11161.00
601.6220, 11158.00
602.7890, 11311.00
603.9560, 11395.00
605.1230, 11458.00
606.2900, 11510.00
607.4570, 11442.00
608.6230, 11461.00
609.7890, 11481.00
610.9560, 11543.00
612.1220, 11514.00
613.2870, 11603.00
614.4530, 11692.00
615.6180, 11645.00
616.7840, 11765.00
617.9490, 11892.00
619.1140, 11852.00
620.2790, 11939.00
621.4430, 12083.00
622.6080, 12193.00
623.7720, 12395.00
624.9360, 12442.00
626.1000, 12684.00
627.2640, 12885.00
628.4270, 13165.00
629.5910, 13357.00
630.7540, 13618.74
631.9170, 13807.00
633.0800, 14145.00
634.2430, 14435.26
635.4050, 14744.00
636.5680, 15178.00
637.7300, 15531.00
638.8920, 15942.00
640.0540, 16536.00
641.2150, 17174.75
642.3770, 17870.00
643.5380, 18839.00
644.7000, 19795.00
645.8610, 20976.00
647.0210, 22189.00
648.1820, 23660.00
649.3430, 25263.00
650.5030, 27379.00
651.6630, 29556.00
652.8230, 31702.00
653.9830, 34780.00
655.1430, 37634.00
656.3020, 41349.00
657.4620, 44845.00
658.6210, 48283.00
659.7800, 52124.00
660.9390, 55416.00
662.0970, 58016.00
663.2560, 58790.00
664.4140, 59205.00
665.5720, 58156.00
666.7300, 55925.00
667.8880, 52538.00
669.0460, 49346.00
670.2030, 45207.00
671.3600, 41538.00
672.5180, 37775.00
673.6740, 34472.00
674.8310, 31571.00
675.9880, 28819.00
677.1440, 26853.00
678.3010, 24842.00
679.4570, 23067.00
680.6130, 21580.00
681.7690, 20347.00
682.9240, 19259.00
684.0800, 18378.00
685.2350, 17664.00
686.3900, 16913.00
687.5450, 16309.00
688.7000, 15768.00
689.8540, 15189.00
691.0090, 14893.00
692.1630, 14545.00
693.3170, 14292.00
694.4710, 14024.44
695.6250, 13651.00
696.7780, 13594.00
697.9320, 13355.00
699.0850, 13244.00
700.2380, 12912.00
701.3910, 12792.00
702.5440, 12837.00
703.6970, 12756.00
704.8490, 12454.00
706.0010, 12377.00
707.1530, 12311.00
708.3050, 12169.00
709.4570, 12056.02
710.6090, 11865.00
711.7600, 11798.00
712.9110, 11755.00
714.0620, 11696.00
715.2130, 11532.00
716.3640, 11500.00
717.5150, 11355.00
718.6650, 11224.00
719.8150, 11260.00
720.9650, 11093.00
722.1150, 11290.00
723.2650, 11074.00
724.4150, 10987.00
725.5640, 11029.00
726.7130, 10919.13
727.8630, 10943.00
729.0110, 10910.00
730.1600, 10909.00
731.3090, 10981.00
732.4570, 10940.00
733.6060, 10960.00
734.7540, 11082.00
735.9020, 10982.00
737.0490, 11162.00
738.1970, 11459.00
739.3440, 11395.00
740.4920, 11485.00
741.6390, 11666.00
742.7860, 11778.00
743.9320, 11860.00
745.0790, 12007.00
746.2250, 12133.00
747.3720, 12244.00
748.5180, 12566.00
749.6640, 12651.00
750.8100, 12818.00
751.9550, 12911.00
753.1010, 13188.00
754.2460, 13367.00
755.3910, 13579.00
756.5360, 13672.00
757.6810, 13885.00
758.8250, 14023.00
759.9700, 14215.00
761.1140, 14495.00
762.2580, 14655.00
763.4020, 14543.00
764.5460, 14889.00
765.6900, 14821.00
766.8330, 14842.00
767.9760, 15128.00
769.1200, 15052.00
770.2620, 15169.00
771.4050, 15057.00
772.5480, 15064.16
773.6900, 15103.00
774.8330, 14960.00
775.9750, 14931.00
777.1170, 14772.00
778.2590, 14839.00
779.4000, 14679.00
780.5420, 14695.00
781.6830, 14637.00
782.8240, 14603.00
783.9650, 14359.00
785.1060, 14619.00
786.2470, 14387.00
787.3870, 14253.00
788.5280, 14322.00
789.6680, 14382.00
790.8080, 14371.00
791.9480, 14057.00
793.0870, 14280.00
794.2270, 14126.00
795.3660, 14203.00
796.5060, 14245.00
797.6450, 14296.00
798.7830, 14331.00
799.9220, 14307.00
801.0610, 14365.28
802.1990, 14392.61
803.3370, 14461.00
804.4750, 14437.00
805.6130, 14539.00
806.7510, 14470.00
807.8890, 14598.00
809.0260, 14592.00
810.1630, 14546.00
811.3000, 14544.00
812.4370, 14554.33
813.5740, 14611.00
814.7110, 14643.00
815.8470, 14607.00
816.9830, 14749.00
818.1190, 14612.00
819.2550, 14661.00
820.3910, 14665.00
821.5270, 14618.00
822.6620, 14652.00
823.7970, 14489.00
824.9330, 14484.00
826.0670, 14527.00
827.2020, 14376.00
828.3370, 14401.00
829.4710, 14147.00
830.6060, 14442.00
831.7400, 14347.00
832.8740, 14155.00
834.0080, 14297.00
835.1410, 14216.00
836.2750, 14235.00
837.4080, 14263.00
838.5410, 14283.20
839.6740, 14459.00
840.8070, 14469.00
841.9400, 14626.00
843.0730, 14881.00
844.2050, 15132.00
845.3370, 15422.00
846.4690, 15770.51
847.6010, 16176.00
848.7330, 16572.00
849.8640, 17035.00
850.9960, 17558.00
852.1270, 17713.00
853.2580, 18535.00
854.3890, 18925.00
855.5200, 19509.00
856.6500, 19584.00
857.7810, 19929.00
858.9110, 19831.00
860.0410, 19825.00
861.1710, 19955.00
862.3010, 19909.00
863.4310, 19838.00
864.5600, 19401.00
865.6900, 19303.00
866.8190, 19017.00
867.9480, 18796.00
869.0770, 18575.00
870.2050, 18249.00
871.3340, 18017.00
872.4620, 17809.00
873.5900, 17568.70
874.7180, 17490.00
875.8460, 17205.00
876.9740, 17138.00
878.1010, 17050.00
879.2290, 17138.00
880.3560, 16798.00
881.4830, 16728.00
882.6100, 16628.00
883.7370, 16743.00
884.8630, 16524.00
885.9900, 16471.00
887.1160, 16532.00
888.2420, 16437.00
889.3680, 16291.00
890.4940, 16215.00
891.6200, 16062.00
892.7450, 16037.00
893.8700, 16027.00
894.9960, 16042.00
896.1210, 16171.00
897.2460, 16073.00
898.3700, 16090.00
899.4950, 15991.00
900.6190, 16055.00
901.7430, 15991.00
902.8670, 16052.00
903.9910, 15795.00
905.1150, 15856.00
906.2390, 15854.00
907.3620, 15929.00
908.4850, 15960.31
909.6080, 15990.00
910.7310, 16072.00
911.8540, 16142.00
912.9770, 16255.00
914.0990, 16178.00
915.2210, 16132.55
916.3440, 16260.21
917.4660, 16350.78
918.5870, 16406.25
919.7090, 16321.66
920.8310, 16417.97
921.9520, 16441.74
923.0730, 16462.54
924.1940, 16584.28
925.3150, 16520.03
926.4360, 16640.15
927.5560, 16686.65
928.6770, 16766.86
929.7970, 16774.09
930.9170, 16765.00
932.0370, 16868.00
933.1570, 16851.97
934.2760, 16669.00
935.3960, 16776.00
936.5150, 16692.00
937.6340, 16565.00
938.7530, 16647.35
939.8720, 16630.00
940.9910, 16666.00
942.1090, 16759.00
943.2280, 16712.00
944.3460, 16775.00
945.4640, 16722.00
946.5820, 16791.00
947.6990, 16867.00
948.8170, 16677.00
949.9340, 16696.00
951.0520, 16646.00
952.1690, 16992.00
953.2860, 16641.00
954.4030, 16916.00
955.5190, 16865.00
956.6360, 16897.00
957.7520, 16937.00
958.8680, 16997.00
959.9840, 17027.00
961.1000, 17055.00
962.2160, 17127.00
963.3310, 17186.00
964.4470, 17251.00
965.5620, 17322.00
966.6770, 17388.00
967.7920, 17401.00
968.9060, 17577.00
970.0210, 17518.00
971.1360, 17653.00
972.2500, 17640.00
973.3640, 17878.00
974.4780, 17991.00
975.5920, 18060.00
976.7050, 18206.00
977.8190, 18247.00
978.9320, 18352.00
980.0450, 18433.00
981.1580, 18891.00
982.2710, 18917.00
983.3840, 19263.00
984.4970, 19352.00
985.6090, 20005.00
986.7210, 19957.00
987.8330, 20604.00
988.9450, 20885.00
990.0570, 21573.00
991.1690, 22047.00
992.2800, 23021.00
993.3920, 23710.00
994.5030, 24757.00
995.6140, 25792.00
996.7250, 27002.00
997.8350, 28145.00
998.9460, 29558.00
1000.056, 31198.00
1001.167, 32695.00
1002.277, 33916.00
1003.387, 35328.00
1004.496, 36197.00
1005.606, 36869.00
1006.715, 37666.00
1007.825, 37628.00
1008.934, 36940.00
1010.043, 36063.00
1011.152, 34481.00
1012.260, 32632.00
1013.369, 30744.00
1014.477, 28745.00
1015.586, 26497.00
1016.694, 25078.00
1017.802, 23704.00
1018.909, 22634.00
1020.017, 21533.00
1021.124, 20645.10
1022.232, 19759.00
1023.339, 19208.00
1024.446, 18692.00
1025.553, 18237.00
1026.659, 17981.00
1027.766, 17605.00
1028.872, 17365.00
1029.979, 16907.00
1031.085, 16790.00
1032.191, 16756.00
1033.296, 16436.00
1034.402, 16457.00
1035.507, 16335.00
1036.613, 16474.00
1037.718, 16106.00
1038.823, 16108.00
1039.928, 16087.00
1041.032, 15765.00
1042.137, 15791.00
1043.241, 15740.00
1044.346, 15400.00
1045.450, 15526.00
1046.554, 15236.00
1047.657, 15213.00
1048.761, 14942.00
1049.864, 14974.00
1050.968, 14809.00
1052.071, 14587.00
1053.174, 14457.00
1054.277, 14375.26
1055.379, 14323.00
1056.482, 14271.00
1057.584, 14208.00
1058.687, 14141.00
1059.789, 14107.00
1060.891, 13942.00
1061.992, 13870.00
1063.094, 13887.00
1064.196, 13927.00
1065.297, 13904.00
1066.398, 13692.00
1067.499, 13556.00
1068.600, 13610.00
1069.701, 13672.00
1070.801, 13680.00
1071.902, 13688.00
1073.002, 13529.00
1074.102, 13533.00
1075.202, 13526.00
1076.302, 13511.00
1077.402, 13502.00
1078.501, 13467.00
1079.600, 13430.00
1080.700, 13361.00
1081.799, 13363.00
1082.898, 13348.00
1083.996, 13291.29
1085.095, 13286.00
1086.193, 13215.00
1087.292, 13313.00
1088.390, 13324.00
1089.488, 13350.00
1090.586, 13084.00
1091.683, 13227.00
1092.781, 13024.00
1093.878, 13165.00
1094.975, 13059.00
1096.073, 13184.00
1097.169, 13057.00
1098.266, 12860.00
1099.363, 12875.00
1100.459, 12807.00
1101.556, 12944.00
1102.652, 12908.00
1103.748, 12808.00
1104.844, 12837.00
1105.940, 12783.00
1107.035, 12656.00
1108.131, 12609.00
1109.226, 12523.00
1110.321, 12672.00
1111.416, 12536.00
1112.511, 12482.00
1113.605, 12576.00
1114.700, 12378.00
1115.794, 12302.00
1116.889, 12303.00
1117.983, 12311.00
1119.077, 12117.00
1120.170, 12225.00
1121.264, 12026.00
1122.357, 11994.00
1123.451, 11978.00
1124.544, 11764.00
1125.637, 11588.00
1126.730, 11365.00
1127.823, 11438.00
1128.915, 11456.00
1130.008, 11226.00
1131.100, 11134.00
1132.192, 11037.00
1133.284, 10874.00
1134.376, 10766.00
1135.467, 10689.00
1136.559, 10713.00
1137.650, 10533.00
1138.742, 10395.00
1139.833, 10209.00
1140.924, 10287.00
1142.014, 10204.00
1143.105, 10189.00
1144.195, 10067.00
1145.286, 10079.00
1146.376, 10017.00
1147.466, 10060.00
1148.556, 9792.000
1149.646, 9721.000
1150.735, 9754.000
1151.825, 9767.000
1152.914, 9764.000
1154.003, 9732.000
1155.092, 9731.967
1156.181, 9642.000
1157.270, 9694.000
1158.358, 9595.000
1159.447, 9555.000
1160.535, 9627.000
1161.623, 9489.000
1162.711, 9546.000
1163.799, 9602.000
1164.886, 9491.000
1165.974, 9446.000
1167.061, 9513.000
1168.148, 9605.000
1169.235, 9587.000
1170.322, 9497.000
1171.409, 9379.000
1172.496, 9452.000
1173.582, 9387.000
1174.669, 9548.000
1175.755, 9418.000
1176.841, 9496.000
1177.927, 9375.000
1179.012, 9385.000
1180.098, 9540.000
1181.183, 9475.000
1182.269, 9509.000
1183.354, 9364.000
1184.439, 9465.000
1185.524, 9440.000
1186.608, 9406.000
1187.693, 9465.000
1188.777, 9481.000
1189.862, 9389.000
1190.946, 9541.000
1192.030, 9481.054
1193.113, 9689.000
1194.197, 9474.000
1195.281, 9399.000
1196.364, 9381.000
1197.447, 9487.000
1198.530, 9508.000
1199.613, 9473.000
1200.696, 9358.000
1201.779, 9361.000
1202.861, 9528.000
1203.944, 9354.000
1205.026, 9419.000
1206.108, 9449.000
1207.190, 9282.000
1208.271, 9418.000
1209.353, 9405.000
1210.435, 9165.000
1211.516, 9259.000
1212.597, 9496.000
1213.678, 9361.000
1214.759, 9500.000
1215.840, 9450.000
1216.920, 9413.000
1218.001, 9360.000
1219.081, 9287.000
1220.161, 9370.000
1221.241, 9356.000
1222.321, 9421.000
1223.401, 9410.000
1224.480, 9355.000
1225.560, 9417.000
1226.639, 9357.000
1227.718, 9314.000
1228.797, 9354.000
1229.876, 9417.000
1230.955, 9521.000
1232.033, 9447.000
1233.112, 9478.000
1234.190, 9371.000
1235.268, 9400.000
1236.346, 9293.000
1237.424, 9469.000
1238.501, 9291.000
1239.579, 9441.000
1240.656, 9376.000
1241.733, 9500.000
1242.811, 9310.000
1243.888, 9240.000
1244.964, 9372.000
1246.041, 9311.000
1247.117, 9439.000
1248.194, 9423.000
1249.270, 9315.000
1250.346, 9324.000
1251.422, 9327.000
1252.498, 9417.000
1253.573, 9410.000
1254.649, 9378.000
1255.724, 9283.000
1256.800, 9434.000
1257.875, 9235.000
1258.950, 9391.000
1260.024, 9358.000
1261.099, 9453.000
1262.173, 9408.000
1263.248, 9271.000
1264.322, 9464.000
1265.396, 9448.000
1266.470, 9280.000
1267.544, 9332.000
1268.617, 9505.000
1269.691, 9412.000
1270.764, 9416.000
1271.837, 9471.000
1272.910, 9360.000
1273.983, 9509.000
1275.056, 9437.000
1276.129, 9406.000
1277.201, 9461.000
1278.273, 9404.000
1279.346, 9437.000
1280.418, 9409.000
1281.489, 9343.000
1282.561, 9360.000
1283.633, 9381.000
1284.704, 9479.000
1285.776, 9293.000
1286.847, 9466.000
1287.918, 9288.000
1288.989, 9464.000
1290.059, 9392.109
1291.130, 9287.372
1292.200, 9378.188
1293.271, 9431.954
1294.341, 9450.647
1295.411, 9329.251
1296.481, 9388.753
1297.551, 9375.759
1298.620, 9359.786
1299.690, 9444.749
1300.759, 9343.724
1301.828, 9427.080
1302.897, 9436.834
1303.966, 9480.274
1305.035, 9450.771
1306.103, 9443.793
1307.172, 9519.000
1308.240, 9535.296
1309.308, 9519.000
1310.376, 9568.000
1311.444, 9446.000
1312.512, 9446.000
1313.580, 9533.000
1314.647, 9381.000
1315.714, 9508.000
1316.781, 9354.000
1317.848, 9471.000
1318.915, 9561.000
1319.982, 9571.000
1321.049, 9497.000
1322.115, 9504.000
1323.181, 9491.000
1324.248, 9505.000
1325.314, 9500.133
1326.380, 9514.408
1327.445, 9503.000
1328.511, 9541.000
1329.576, 9554.000
1330.642, 9554.008
1331.707, 9598.000
1332.772, 9550.000
1333.837, 9524.000
1334.902, 9427.000
1335.966, 9479.000
1337.031, 9464.225
1338.095, 9545.000
1339.159, 9531.000
1340.223, 9531.000
1341.287, 9589.000
1342.351, 9552.929
1343.415, 9548.787
1344.478, 9530.000
1345.541, 9509.000
1346.605, 9510.000
1347.668, 9503.056
1348.731, 9523.000
1349.793, 9515.000
1350.856, 9533.646
1351.918, 9557.000
1352.981, 9559.000
1354.043, 9505.000
1355.105, 9509.000
1356.167, 9476.120
1357.229, 9470.117
1358.290, 9433.000
1359.352, 9471.000
1360.413, 9480.000
1361.475, 9490.000
1362.536, 9534.000
1363.597, 9400.000
1364.657, 9520.000
1365.718, 9401.000
1366.779, 9477.000
1367.839, 9472.000
1368.899, 9451.000
1369.959, 9375.000
1371.019, 9454.000
1372.079, 9548.000
1373.139, 9468.000
1374.198, 9512.000
1375.258, 9509.000
1376.317, 9340.000
1377.376, 9439.000
1378.435, 9354.000
1379.494, 9433.000
1380.553, 9467.000
1381.611, 9430.000
1382.670, 9456.000
1383.728, 9540.000
1384.786, 9457.000
1385.844, 9409.000
1386.902, 9491.000
1387.960, 9532.000
1389.017, 9471.000
1390.075, 9532.000
1391.132, 9388.000
1392.189, 9370.000
1393.246, 9431.000
1394.303, 9409.000
1395.360, 9364.000
1396.417, 9390.000
1397.473, 9510.000
1398.529, 9467.000
1399.585, 9442.000
1400.642, 9333.000
1401.697, 9365.375
1402.753, 9442.000
1403.809, 9414.000
1404.864, 9463.000
1405.920, 9532.000
1406.975, 9503.000
1408.030, 9519.000
1409.085, 9467.000
1410.140, 9477.000
1411.194, 9359.000
1412.249, 9399.000
1413.303, 9476.000
1414.358, 9552.000
1415.412, 9480.000
1416.466, 9355.000
1417.520, 9473.000
1418.573, 9403.000
1419.627, 9415.000
1420.680, 9370.000
1421.733, 9344.548
1422.787, 9411.000
1423.840, 9329.000
1424.892, 9394.000
1425.945, 9463.000
1426.998, 9525.000
1428.050, 9533.000
1429.103, 9409.000
1430.155, 9452.000
1431.207, 9521.000
1432.259, 9367.000
1433.310, 9410.000
1434.362, 9434.000
1435.414, 9417.000
1436.465, 9499.000
1437.516, 9357.000
1438.567, 9407.000
1439.618, 9485.000
1440.669, 9368.000
1441.720, 9363.000
1442.770, 9380.000
1443.820, 9517.000
1444.871, 9485.000
1445.921, 9514.000
1446.971, 9475.000
1448.021, 9483.347
1449.070, 9481.275
1450.120, 9481.000
1451.169, 9471.000
1452.219, 9460.000
1453.268, 9443.000
1454.317, 9372.000
1455.366, 9401.165
1456.414, 9488.000
1457.463, 9427.000
1458.511, 9506.000
1459.560, 9524.000
1460.608, 9416.000
1461.656, 9478.000
1462.704, 9485.000
1463.752, 9445.000
1464.799, 9522.000
1465.847, 9428.000
1466.894, 9490.000
1467.941, 9470.000
1468.988, 9515.000
1470.035, 9510.000
1471.082, 9514.723
1472.129, 9553.000
1473.175, 9508.000
1474.222, 9543.000
1475.268, 9516.000
1476.314, 9471.000
1477.360, 9577.000
1478.406, 9517.000
1479.452, 9661.000
1480.498, 9539.000
1481.543, 9560.000
1482.588, 9585.000
1483.633, 9581.000
1484.679, 9504.000
1485.723, 9544.000
1486.768, 9520.000
1487.813, 9552.000
1488.857, 9630.000
1489.902, 9582.000
1490.946, 9598.000
1491.990, 9556.000
1493.034, 9726.000
1494.078, 9639.000
1495.122, 9707.000
1496.165, 9646.000
1497.209, 9712.000
1498.252, 9673.000
1499.295, 9653.000
1500.338, 9734.000
1501.381, 9715.000
1502.424, 9685.000
1503.466, 9626.000
1504.509, 9764.000
1505.551, 9732.000
1506.593, 9796.000
1507.635, 9918.000
1508.677, 9676.000
1509.719, 9792.000
1510.761, 9813.000
1511.802, 9831.000
1512.844, 9795.000
1513.885, 9769.000
1514.926, 9602.000
1515.967, 9613.000
1517.008, 9741.000
1518.049, 9902.000
1519.089, 9789.000
1520.130, 9856.000
1521.170, 9731.000
1522.210, 9825.000
1523.250, 9794.000
1524.290, 9808.000
1525.330, 9762.000
1526.370, 9780.222
1527.409, 9770.909
1528.448, 9812.000
1529.488, 9770.000
1530.527, 9799.923
1531.566, 9735.977
1532.605, 9820.729
1533.643, 9868.425
1534.682, 9881.056
1535.720, 9753.595
1536.759, 9807.032
1537.797, 9787.974
1538.835, 9765.943
1539.873, 9844.841
1540.910, 9737.756
1541.948, 9815.054
1542.986, 9818.750
1544.023, 9856.131
1545.060, 9820.568
1546.097, 9807.536
1547.134, 9867.471
1548.171, 9887.003
1549.208, 9843.044
1550.244, 9882.566
1551.281, 9772.934
1552.317, 9794.187
1553.353, 9871.911
1554.389, 9831.619
1555.425, 9872.475
1556.461, 9882.426
1557.497, 9751.923
1558.532, 9865.683
1559.567, 9725.000
1560.603, 9628.000
1561.638, 9665.000
1562.673, 9667.000
1563.708, 9736.000
##END=



