##NAMES=Augite
##RRUFFID=R061108
##IDEAL CHEMISTRY=(Ca,Mg,Fe^2+^,Fe^3+^)_2_(Si,Al)_2_O_6_
##LOCALITY=Monti Rossi, near Mt. Etna, Sicily, Italy
##OWNER=RRUFF
##SOURCE=Michael Scott
##DESCRIPTION=Euhedral, short prismatic, black crystals in vesicular basalt.
##STATUS=The identification of this mineral is confirmed by single-crystal X-ray diffraction and chemical analysis.
##URL=rruff.info/R061108
##MEASURED CHEMISTRY=(Ca_0.86_Mg_0.74_Fe^2+^_0.18_Fe^3+^_0.08_Al_0.05_Ti_0.04_Na_0.04_Mn_0.01_)_Σ=2_(Si_1.83_Al_0.17_)_Σ=2_O_6_
##PIN_ID=L01906
##ORIENTATION=Laser parallel to (1 0 1). Fiducial mark perpendicular to laser is parallel to -b [0 -1 0]
158.6970, 14968.00
159.9310, 15032.00
161.1660, 15280.00
162.4000, 15404.00
163.6330, 15603.00
164.8670, 15822.00
166.1000, 16030.00
167.3340, 16178.54
168.5670, 16172.00
169.8000, 16392.00
171.0320, 16609.00
172.2650, 16570.00
173.4970, 16495.00
174.7290, 16657.00
175.9610, 16797.00
177.1930, 17164.00
178.4240, 17093.00
179.6550, 17234.00
180.8870, 17269.00
182.1170, 17253.00
183.3480, 17378.00
184.5790, 17420.00
185.8090, 17376.00
187.0390, 17477.00
188.2690, 17406.00
189.4990, 17610.00
190.7290, 17578.00
191.9580, 17583.00
193.1870, 17957.00
194.4160, 17933.00
195.6450, 18194.00
196.8740, 18176.00
198.1020, 18093.00
199.3310, 18408.00
200.5590, 18527.00
201.7870, 18569.00
203.0140, 18609.00
204.2420, 18658.00
205.4690, 18149.00
206.6960, 18285.00
207.9230, 18160.00
209.1500, 18209.00
210.3760, 18562.00
211.6030, 18840.00
212.8290, 19045.00
214.0550, 19154.00
215.2810, 19350.99
216.5060, 19486.43
217.7320, 19586.00
218.9570, 19713.00
220.1820, 19750.00
221.4070, 19743.00
222.6320, 20043.00
223.8560, 19957.00
225.0800, 20163.00
226.3040, 20059.00
227.5280, 19853.00
228.7520, 19795.00
229.9760, 19695.00
231.1990, 19633.00
232.4220, 19298.00
233.6450, 19200.00
234.8680, 19023.00
236.0910, 18852.00
237.3130, 18658.00
238.5350, 18549.00
239.7570, 18673.00
240.9790, 18529.00
242.2010, 18356.00
243.4220, 18432.00
244.6430, 18190.00
245.8640, 18276.00
247.0850, 18137.00
248.3060, 17967.00
249.5270, 17923.00
250.7470, 17994.00
251.9670, 18073.00
253.1870, 17781.00
254.4070, 17517.10
255.6260, 17512.39
256.8460, 17470.55
258.0650, 17393.73
259.2840, 17176.81
260.5030, 17140.79
261.7220, 17032.27
262.9400, 16920.85
264.1580, 16910.37
265.3760, 16725.00
266.5940, 16708.00
267.8120, 16593.00
269.0290, 16526.00
270.2470, 16517.00
271.4640, 16555.00
272.6810, 16555.92
273.8980, 16623.00
275.1140, 16652.00
276.3310, 16725.00
277.5470, 16815.00
278.7630, 16978.00
279.9790, 16987.00
281.1940, 17154.00
282.4100, 17218.00
283.6250, 17251.00
284.8400, 17557.00
286.0550, 17914.00
287.2700, 18410.00
288.4850, 18334.00
289.6990, 18316.00
290.9130, 18743.00
292.1270, 18847.00
293.3410, 19269.00
294.5540, 19482.00
295.7680, 19839.00
296.9810, 20354.00
298.1940, 20802.00
299.4070, 21200.00
300.6200, 21795.00
301.8320, 22410.00
303.0450, 23208.77
304.2570, 23858.99
305.4690, 25123.00
306.6800, 25252.00
307.8920, 26399.00
309.1030, 26990.00
310.3150, 28191.00
311.5260, 29379.00
312.7360, 30706.00
313.9470, 31793.00
315.1580, 33021.00
316.3680, 34422.00
317.5780, 35631.00
318.7880, 36737.00
319.9980, 37695.00
321.2070, 38263.00
322.4170, 38857.00
323.6260, 38863.00
324.8350, 38669.00
326.0430, 38438.00
327.2520, 37960.00
328.4610, 37148.00
329.6690, 36177.00
330.8770, 35475.00
332.0850, 34299.00
333.2920, 33234.00
334.5000, 32226.00
335.7070, 31130.00
336.9140, 30251.00
338.1210, 29440.00
339.3280, 28532.00
340.5350, 27904.00
341.7410, 27269.00
342.9470, 26644.00
344.1540, 26131.00
345.3590, 25583.00
346.5650, 25253.00
347.7710, 24798.00
348.9760, 24477.00
350.1810, 24260.13
351.3860, 24000.57
352.5910, 23977.00
353.7950, 23740.00
355.0000, 23753.00
356.2040, 23802.00
357.4080, 23613.00
358.6120, 23768.00
359.8150, 23702.00
361.0190, 23905.00
362.2220, 23734.00
363.4250, 23879.00
364.6280, 24022.00
365.8310, 24269.00
367.0340, 24622.00
368.2360, 24761.00
369.4380, 25441.00
370.6400, 25606.00
371.8420, 26570.00
373.0440, 27309.00
374.2450, 28162.00
375.4470, 29136.00
376.6480, 30008.00
377.8490, 31327.00
379.0490, 32864.00
380.2500, 34746.00
381.4500, 36290.00
382.6510, 38066.00
383.8510, 39755.00
385.0500, 41825.00
386.2500, 43217.00
387.4500, 44391.00
388.6490, 45305.00
389.8480, 46219.00
391.0470, 45475.00
392.2460, 44657.00
393.4440, 43011.00
394.6430, 41054.00
395.8410, 38656.00
397.0390, 36341.00
398.2370, 34083.00
399.4340, 31277.00
400.6320, 29351.00
401.8290, 27092.00
403.0260, 25460.00
404.2230, 23982.00
405.4200, 22588.00
406.6170, 21667.00
407.8130, 20763.00
409.0090, 20069.00
410.2050, 19416.00
411.4010, 18942.00
412.5970, 18492.00
413.7920, 18224.00
414.9880, 17877.00
416.1830, 17665.00
417.3780, 17618.00
418.5730, 17504.00
419.7670, 17206.00
420.9620, 17087.00
422.1560, 16861.00
423.3500, 16924.00
424.5440, 16680.00
425.7380, 16650.00
426.9310, 16422.00
428.1240, 16434.00
429.3180, 16136.00
430.5110, 16064.00
431.7030, 15861.00
432.8960, 15924.00
434.0890, 15687.00
435.2810, 15459.00
436.4730, 15593.00
437.6650, 15265.00
438.8570, 15247.00
440.0480, 15236.00
441.2390, 15115.00
442.4310, 15137.00
443.6220, 15097.00
444.8120, 14852.00
446.0030, 15018.00
447.1940, 14914.00
448.3840, 14991.00
449.5740, 14979.00
450.7640, 14868.00
451.9540, 14877.00
453.1430, 14931.00
454.3330, 14947.00
455.5220, 14856.00
456.7110, 15048.00
457.9000, 14962.00
459.0890, 14863.00
460.2770, 15021.00
461.4650, 14854.00
462.6540, 14939.00
463.8420, 14961.00
465.0290, 15032.00
466.2170, 15019.00
467.4050, 14817.00
468.5920, 14886.00
469.7790, 15017.00
470.9660, 14748.00
472.1530, 14799.00
473.3390, 14768.00
474.5250, 14856.00
475.7120, 15023.00
476.8980, 14755.00
478.0840, 14966.00
479.2690, 14828.00
480.4550, 14784.00
481.6400, 14807.00
482.8250, 14789.89
484.0100, 15046.00
485.1950, 14934.00
486.3800, 14953.00
487.5640, 15150.00
488.7480, 15092.00
489.9320, 14985.00
491.1160, 15072.00
492.3000, 15151.00
493.4840, 15207.00
494.6670, 15173.00
495.8500, 15107.00
497.0330, 15169.00
498.2160, 15107.00
499.3990, 15304.00
500.5810, 15235.00
501.7630, 15265.00
502.9460, 15630.00
504.1280, 15733.00
505.3090, 15626.00
506.4910, 15698.00
507.6720, 15840.00
508.8540, 15953.00
510.0350, 16123.53
511.2160, 16441.00
512.3960, 16491.00
513.5770, 16763.00
514.7570, 16941.00
515.9380, 17039.00
517.1180, 17150.00
518.2970, 17263.00
519.4770, 17623.00
520.6570, 17635.00
521.8360, 18054.00
523.0150, 18317.00
524.1940, 18491.00
525.3730, 18595.00
526.5510, 18788.00
527.7300, 18714.00
528.9080, 18874.00
530.0860, 18720.00
531.2640, 18686.00
532.4420, 18539.00
533.6200, 18587.00
534.7970, 18436.99
535.9740, 18219.00
537.1510, 18219.00
538.3280, 17978.00
539.5050, 17888.00
540.6810, 17840.00
541.8580, 17767.00
543.0340, 17679.00
544.2100, 17550.59
545.3860, 17445.00
546.5610, 17351.00
547.7370, 17341.00
548.9120, 17465.00
550.0870, 17271.00
551.2620, 17185.00
552.4370, 17139.00
553.6120, 16936.00
554.7860, 16994.00
555.9600, 16843.00
557.1340, 16878.00
558.3080, 16827.00
559.4820, 16743.00
560.6560, 16714.00
561.8290, 16710.00
563.0020, 16575.00
564.1750, 16377.00
565.3480, 16343.00
566.5210, 16195.00
567.6930, 16266.00
568.8660, 16270.00
570.0380, 15844.00
571.2100, 15909.00
572.3820, 15706.00
573.5530, 15508.00
574.7250, 15278.00
575.8960, 15161.00
577.0670, 14850.00
578.2380, 14689.00
579.4090, 14412.00
580.5800, 14159.00
581.7500, 14059.00
582.9210, 13615.00
584.0910, 13490.00
585.2610, 13160.00
586.4300, 12996.00
587.6000, 12808.00
588.7690, 12681.00
589.9390, 12540.00
591.1080, 12287.00
592.2770, 12199.00
593.4450, 12125.00
594.6140, 11868.00
595.7820, 11776.00
596.9500, 11758.00
598.1190, 11644.97
599.2860, 11645.00
600.4540, 11618.00
601.6220, 11580.00
602.7890, 11651.00
603.9560, 11748.00
605.1230, 11638.00
606.2900, 11773.00
607.4570, 11606.00
608.6230, 11847.00
609.7890, 11726.00
610.9560, 11754.00
612.1220, 11843.00
613.2870, 11746.00
614.4530, 11853.00
615.6180, 11877.00
616.7840, 11841.00
617.9490, 11783.00
619.1140, 11994.00
620.2790, 11857.00
621.4430, 11945.00
622.6080, 11996.00
623.7720, 12021.00
624.9360, 12083.00
626.1000, 12161.89
627.2640, 12186.00
628.4270, 12369.00
629.5910, 12395.00
630.7540, 12548.00
631.9170, 12665.00
633.0800, 12723.00
634.2430, 13001.00
635.4050, 13075.00
636.5680, 13326.00
637.7300, 13453.00
638.8920, 13630.00
640.0540, 14046.00
641.2150, 14171.00
642.3770, 14665.00
643.5380, 15061.00
644.7000, 15458.00
645.8610, 16012.00
647.0210, 16540.00
648.1820, 17435.00
649.3430, 18231.00
650.5030, 19098.00
651.6630, 20284.00
652.8230, 21522.00
653.9830, 22884.00
655.1430, 24337.00
656.3020, 26196.00
657.4620, 28117.00
658.6210, 30113.00
659.7800, 32179.00
660.9390, 34054.00
662.0970, 35941.00
663.2560, 36349.00
664.4140, 37054.00
665.5720, 36625.00
666.7300, 35386.00
667.8880, 33891.00
669.0460, 31983.00
670.2030, 29955.00
671.3600, 28066.00
672.5180, 26196.00
673.6740, 24479.43
674.8310, 22697.00
675.9880, 21424.00
677.1440, 20185.00
678.3010, 19178.00
679.4570, 18307.00
680.6130, 17589.00
681.7690, 16798.00
682.9240, 16355.00
684.0800, 15823.00
685.2350, 15546.00
686.3900, 15139.00
687.5450, 14881.00
688.7000, 14504.00
689.8540, 14333.00
691.0090, 14162.00
692.1630, 14097.00
693.3170, 13905.51
694.4710, 13789.35
695.6250, 13591.00
696.7780, 13573.00
697.9320, 13417.00
699.0850, 13418.00
700.2380, 13408.00
701.3910, 13196.00
702.5440, 13112.00
703.6970, 13052.00
704.8490, 13028.00
706.0010, 12985.00
707.1530, 12992.00
708.3050, 12997.00
709.4570, 12893.00
710.6090, 12984.00
711.7600, 12788.00
712.9110, 12929.00
714.0620, 12706.00
715.2130, 12889.00
716.3640, 12736.00
717.5150, 12644.00
718.6650, 12558.00
719.8150, 12705.00
720.9650, 12777.00
722.1150, 12650.00
723.2650, 12706.00
724.4150, 12567.00
725.5640, 12641.00
726.7130, 12714.00
727.8630, 12658.00
729.0110, 12764.00
730.1600, 12898.00
731.3090, 12850.00
732.4570, 13016.24
733.6060, 13180.00
734.7540, 13196.00
735.9020, 13192.00
737.0490, 13176.00
738.1970, 13398.00
739.3440, 13587.00
740.4920, 13572.00
741.6390, 13942.00
742.7860, 13966.00
743.9320, 14065.00
745.0790, 14282.00
746.2250, 14435.00
747.3720, 14666.08
748.5180, 14858.00
749.6640, 15147.00
750.8100, 15349.00
751.9550, 15551.00
753.1010, 15826.00
754.2460, 15806.00
755.3910, 16330.00
756.5360, 16590.00
757.6810, 16518.00
758.8250, 16746.00
759.9700, 17127.00
761.1140, 17214.00
762.2580, 17354.00
763.4020, 17443.00
764.5460, 17818.00
765.6900, 17742.00
766.8330, 18041.00
767.9760, 18174.00
769.1200, 18211.00
770.2620, 18309.76
771.4050, 18147.00
772.5480, 18211.00
773.6900, 18217.00
774.8330, 17941.00
775.9750, 18031.00
777.1170, 17863.00
778.2590, 17854.00
779.4000, 17774.00
780.5420, 17665.00
781.6830, 17596.00
782.8240, 17536.06
783.9650, 17505.00
785.1060, 17473.00
786.2470, 17372.00
787.3870, 17409.10
788.5280, 17325.25
789.6680, 17377.00
790.8080, 17278.00
791.9480, 17265.00
793.0870, 17373.00
794.2270, 17380.00
795.3660, 17429.00
796.5060, 17634.00
797.6450, 17380.00
798.7830, 17703.00
799.9220, 17626.00
801.0610, 17961.00
802.1990, 18879.00
803.3370, 18721.31
804.4750, 18794.12
805.6130, 19066.00
806.7510, 18397.00
807.8890, 18670.00
809.0260, 18683.00
810.1630, 19390.00
811.3000, 19021.00
812.4370, 19020.00
813.5740, 19124.00
814.7110, 19173.00
815.8470, 18991.00
816.9830, 19283.00
818.1190, 18994.00
819.2550, 19277.00
820.3910, 18996.00
821.5270, 19051.00
822.6620, 18966.00
823.7970, 18796.00
824.9330, 18920.00
826.0670, 18710.00
827.2020, 18661.69
828.3370, 18588.52
829.4710, 18393.00
830.6060, 18449.00
831.7400, 18162.00
832.8740, 18238.00
834.0080, 18089.00
835.1410, 18148.00
836.2750, 18090.00
837.4080, 18310.00
838.5410, 18232.78
839.6740, 18305.84
840.8070, 18237.00
841.9400, 18367.00
843.0730, 18458.00
844.2050, 18465.00
845.3370, 18621.00
846.4690, 18603.00
847.6010, 18789.00
848.7330, 18960.00
849.8640, 18914.00
850.9960, 19099.00
852.1270, 19153.00
853.2580, 19425.00
854.3890, 19139.00
855.5200, 19358.00
856.6500, 19284.00
857.7810, 19478.00
858.9110, 19468.00
860.0410, 19340.00
861.1710, 19236.00
862.3010, 19167.00
863.4310, 19230.00
864.5600, 19043.00
865.6900, 19154.00
866.8190, 19192.00
867.9480, 19176.00
869.0770, 19225.00
870.2050, 19157.00
871.3340, 19142.00
872.4620, 19024.00
873.5900, 19184.00
874.7180, 19268.00
875.8460, 19181.00
876.9740, 19314.00
878.1010, 19062.00
879.2290, 19205.00
880.3560, 19227.00
881.4830, 19266.09
882.6100, 19338.14
883.7370, 19517.00
884.8630, 19423.00
885.9900, 19585.00
887.1160, 19629.00
888.2420, 19495.00
889.3680, 19714.00
890.4940, 19759.00
891.6200, 19671.00
892.7450, 19774.00
893.8700, 19737.00
894.9960, 19837.00
896.1210, 19852.00
897.2460, 19711.00
898.3700, 19779.00
899.4950, 19755.00
900.6190, 19709.00
901.7430, 19666.00
902.8670, 19645.00
903.9910, 19689.00
905.1150, 19682.00
906.2390, 19847.00
907.3620, 19847.00
908.4850, 19761.00
909.6080, 19831.00
910.7310, 20062.00
911.8540, 19980.00
912.9770, 19911.00
914.0990, 20222.00
915.2210, 20138.00
916.3440, 20282.00
917.4660, 20406.00
918.5870, 20450.00
919.7090, 20474.00
920.8310, 20614.00
921.9520, 20472.00
923.0730, 20621.00
924.1940, 20733.00
925.3150, 20481.00
926.4360, 20648.00
927.5560, 20495.00
928.6770, 20478.00
929.7970, 20537.00
930.9170, 20421.00
932.0370, 20475.00
933.1570, 20388.00
934.2760, 20345.88
935.3960, 20275.00
936.5150, 20199.00
937.6340, 20099.00
938.7530, 19920.00
939.8720, 19857.00
940.9910, 19747.00
942.1090, 19900.00
943.2280, 19725.00
944.3460, 19778.00
945.4640, 19674.00
946.5820, 19826.00
947.6990, 19643.00
948.8170, 19617.00
949.9340, 19831.00
951.0520, 19752.00
952.1690, 19762.00
953.2860, 19799.00
954.4030, 20016.00
955.5190, 20259.00
956.6360, 20121.00
957.7520, 20496.00
958.8680, 20396.00
959.9840, 20405.00
961.1000, 20686.00
962.2160, 20790.00
963.3310, 20733.00
964.4470, 21099.00
965.5620, 21331.00
966.6770, 21609.00
967.7920, 21648.00
968.9060, 22136.00
970.0210, 22147.00
971.1360, 22575.00
972.2500, 22720.00
973.3640, 23250.00
974.4780, 23297.00
975.5920, 23730.00
976.7050, 23894.00
977.8190, 24503.00
978.9320, 24781.00
980.0450, 25369.00
981.1580, 25754.00
982.2710, 26486.00
983.3840, 27224.00
984.4970, 28003.00
985.6090, 28524.00
986.7210, 29585.00
987.8330, 30615.00
988.9450, 31522.00
990.0570, 33018.00
991.1690, 34278.00
992.2800, 36084.00
993.3920, 38081.00
994.5030, 40002.00
995.6140, 42091.00
996.7250, 44446.00
997.8350, 47060.00
998.9460, 49461.00
1000.056, 52766.00
1001.167, 54892.00
1002.277, 57829.00
1003.387, 60685.00
1004.496, 62368.00
1005.606, 63930.00
1006.715, 64666.00
1007.825, 64376.00
1008.934, 63843.00
1010.043, 61899.00
1011.152, 58651.00
1012.260, 55046.00
1013.369, 51646.00
1014.477, 47571.00
1015.586, 43337.00
1016.694, 39654.00
1017.802, 36638.00
1018.909, 34028.00
1020.017, 32185.00
1021.124, 30502.00
1022.232, 28893.00
1023.339, 27803.00
1024.446, 26963.00
1025.553, 26093.00
1026.659, 25782.00
1027.766, 25134.00
1028.872, 25005.00
1029.979, 24472.00
1031.085, 24215.00
1032.191, 24390.00
1033.296, 23719.00
1034.402, 23699.00
1035.507, 23721.00
1036.613, 23497.00
1037.718, 23046.00
1038.823, 23134.00
1039.928, 22775.00
1041.032, 22303.00
1042.137, 22289.00
1043.241, 21717.00
1044.346, 21466.00
1045.450, 21342.00
1046.554, 21015.00
1047.657, 20437.00
1048.761, 20226.00
1049.864, 19868.00
1050.968, 19614.00
1052.071, 19280.00
1053.174, 18909.00
1054.277, 18578.00
1055.379, 18309.35
1056.482, 18115.00
1057.584, 17894.00
1058.687, 17743.00
1059.789, 17739.00
1060.891, 17451.00
1061.992, 17211.00
1063.094, 17300.00
1064.196, 16817.00
1065.297, 16839.00
1066.398, 16706.00
1067.499, 16642.00
1068.600, 16568.00
1069.701, 16381.00
1070.801, 16314.00
1071.902, 16218.00
1073.002, 16139.00
1074.102, 16098.72
1075.202, 16064.00
1076.302, 16052.00
1077.402, 15893.00
1078.501, 15916.00
1079.600, 15699.00
1080.700, 15720.00
1081.799, 15583.00
1082.898, 15566.00
1083.996, 15433.00
1085.095, 15444.00
1086.193, 15366.00
1087.292, 15290.00
1088.390, 15406.00
1089.488, 15314.00
1090.586, 15237.00
1091.683, 15122.00
1092.781, 15117.00
1093.878, 15129.00
1094.975, 14996.00
1096.073, 14857.00
1097.169, 14966.00
1098.266, 14879.00
1099.363, 14918.00
1100.459, 14741.00
1101.556, 14827.00
1102.652, 14774.00
1103.748, 14556.00
1104.844, 14538.00
1105.940, 14355.00
1107.035, 14722.00
1108.131, 14340.00
1109.226, 14557.00
1110.321, 14227.00
1111.416, 14189.00
1112.511, 14420.00
1113.605, 14256.00
1114.700, 14178.00
1115.794, 14070.00
1116.889, 14149.00
1117.983, 14046.00
1119.077, 13979.00
1120.170, 13850.00
1121.264, 13740.00
1122.357, 13662.08
1123.451, 13557.36
1124.544, 13490.00
1125.637, 13359.00
1126.730, 13265.00
1127.823, 13108.00
1128.915, 12942.00
1130.008, 12854.00
1131.100, 12608.00
1132.192, 12595.00
1133.284, 12619.00
1134.376, 12465.00
1135.467, 12352.00
1136.559, 12347.00
1137.650, 12153.00
1138.742, 12104.00
1139.833, 12029.00
1140.924, 11839.00
1142.014, 11787.00
1143.105, 11833.00
1144.195, 11618.00
1145.286, 11672.00
1146.376, 11665.00
1147.466, 11416.00
1148.556, 11474.00
1149.646, 11433.00
1150.735, 11371.26
1151.825, 11381.00
1152.914, 11360.00
1154.003, 11240.00
1155.092, 11249.00
1156.181, 11256.00
1157.270, 11313.00
1158.358, 11245.00
1159.447, 11247.00
1160.535, 11200.00
1161.623, 11205.00
1162.711, 11094.00
1163.799, 11191.00
1164.886, 11124.00
1165.974, 11266.00
1167.061, 11029.00
1168.148, 11159.00
1169.235, 11247.00
1170.322, 10996.00
1171.409, 11044.00
1172.496, 11150.00
1173.582, 10995.00
1174.669, 11029.00
1175.755, 11020.00
1176.841, 10952.00
1177.927, 11160.00
1179.012, 11189.00
1180.098, 11096.00
1181.183, 11066.00
1182.269, 11005.00
1183.354, 10927.00
1184.439, 10987.00
1185.524, 11122.00
1186.608, 10996.00
1187.693, 11127.00
1188.777, 10983.00
1189.862, 11078.00
1190.946, 11005.00
1192.030, 11022.00
1193.113, 11060.00
1194.197, 11113.00
1195.281, 11110.00
1196.364, 11106.75
1197.447, 11089.00
1198.530, 11082.00
1199.613, 10910.00
1200.696, 10944.00
1201.779, 10986.00
1202.861, 11095.00
1203.944, 10966.00
1205.026, 10907.00
1206.108, 11034.00
1207.190, 11023.00
1208.271, 10994.00
1209.353, 10898.00
1210.435, 10931.00
1211.516, 10905.00
1212.597, 11083.00
1213.678, 10920.00
1214.759, 11129.00
1215.840, 10977.00
1216.920, 11031.00
1218.001, 11053.00
1219.081, 11005.00
1220.161, 10960.00
1221.241, 10905.00
1222.321, 11079.00
1223.401, 11069.00
1224.480, 11057.00
1225.560, 11006.00
1226.639, 11052.00
1227.718, 11139.00
1228.797, 11104.00
1229.876, 11036.00
1230.955, 10926.00
1232.033, 10901.00
1233.112, 10937.00
1234.190, 11086.00
1235.268, 11028.00
1236.346, 10960.00
1237.424, 10872.00
1238.501, 10873.00
1239.579, 10890.00
1240.656, 10868.00
1241.733, 10878.55
1242.811, 10963.00
1243.888, 10914.00
1244.964, 10904.00
1246.041, 10994.00
1247.117, 10787.00
1248.194, 11041.00
1249.270, 10944.00
1250.346, 10871.00
1251.422, 10820.00
1252.498, 10986.00
1253.573, 10919.00
1254.649, 10957.00
1255.724, 10881.00
1256.800, 10849.00
1257.875, 10937.00
1258.950, 10851.00
1260.024, 10953.00
1261.099, 10924.00
1262.173, 10985.00
1263.248, 10982.00
1264.322, 10990.00
1265.396, 10871.00
1266.470, 10958.00
1267.544, 10854.00
1268.617, 10801.00
1269.691, 10793.00
1270.764, 10985.00
1271.837, 10897.00
1272.910, 10719.00
1273.983, 10975.00
1275.056, 10861.00
1276.129, 10826.00
1277.201, 10957.00
1278.273, 10825.00
1279.346, 10862.00
1280.418, 10990.00
1281.489, 10831.00
1282.561, 10862.00
1283.633, 10865.00
1284.704, 10889.00
1285.776, 10902.00
1286.847, 10790.00
1287.918, 10870.00
1288.989, 10838.00
1290.059, 10830.21
1291.130, 10958.00
1292.200, 10844.00
1293.271, 10933.00
1294.341, 10961.00
1295.411, 10903.00
1296.481, 10830.00
1297.551, 10957.00
1298.620, 10875.00
1299.690, 10851.00
1300.759, 10937.00
1301.828, 10808.00
1302.897, 10916.00
1303.966, 10848.00
1305.035, 11023.00
1306.103, 10852.00
1307.172, 10897.00
1308.240, 10809.00
1309.308, 10911.00
1310.376, 10926.00
1311.444, 11029.00
1312.512, 10982.00
1313.580, 11014.75
1314.647, 10989.00
1315.714, 10996.00
1316.781, 10954.00
1317.848, 10970.32
1318.915, 11011.00
1319.982, 10992.00
1321.049, 10988.00
1322.115, 11000.00
1323.181, 11066.00
1324.248, 11041.00
1325.314, 11057.79
1326.380, 10996.00
1327.445, 11054.00
1328.511, 11003.00
1329.576, 11011.00
1330.642, 10957.00
1331.707, 11043.00
1332.772, 10993.00
1333.837, 11026.00
1334.902, 11069.00
1335.966, 10958.00
1337.031, 11006.00
1338.095, 11084.00
1339.159, 10887.00
1340.223, 11031.00
1341.287, 10962.00
1342.351, 11076.00
1343.415, 10964.00
1344.478, 10942.00
1345.541, 11011.00
1346.605, 11038.00
1347.668, 11050.00
1348.731, 11102.00
1349.793, 11045.00
1350.856, 10932.00
1351.918, 11101.00
1352.981, 11058.00
1354.043, 10936.00
1355.105, 11001.00
1356.167, 10930.00
1357.229, 11012.00
1358.290, 11133.00
1359.352, 11012.00
1360.413, 11012.00
1361.475, 10988.00
1362.536, 11044.00
1363.597, 10952.00
1364.657, 11079.00
1365.718, 11053.00
1366.779, 11080.00
1367.839, 10945.00
1368.899, 10938.00
1369.959, 11046.00
1371.019, 10975.00
1372.079, 11051.00
1373.139, 10974.00
1374.198, 10914.00
1375.258, 11062.00
1376.317, 10938.00
1377.376, 11064.00
1378.435, 10997.00
1379.494, 10944.00
1380.553, 10743.00
1381.611, 11025.00
1382.670, 10835.00
1383.728, 11064.00
1384.786, 10936.00
1385.844, 10866.19
1386.902, 10951.15
1387.960, 10999.06
1389.017, 11011.91
1390.075, 10884.66
1391.132, 10938.32
1392.189, 10919.47
1393.246, 10897.66
1394.303, 10976.77
1395.360, 10869.90
1396.417, 10947.41
1397.473, 10951.32
1398.529, 10988.92
1399.585, 10953.57
1400.642, 10940.75
1401.697, 11000.90
1402.753, 11020.65
1403.809, 10976.90
1404.864, 11016.64
1405.920, 10907.22
1406.975, 10928.69
1408.030, 11006.62
1409.085, 10966.55
1410.140, 11007.62
1411.194, 11017.78
1412.249, 10887.49
1413.303, 11001.47
1414.358, 11009.80
1415.412, 10909.68
1416.466, 11015.28
1417.520, 10960.00
1418.573, 10902.00
1419.627, 10934.00
1420.680, 10982.00
1421.733, 10993.00
1422.787, 10925.00
1423.840, 10985.00
1424.892, 10965.00
1425.945, 10917.00
1426.998, 11002.00
1428.050, 10894.00
1429.103, 10927.00
1430.155, 10874.00
1431.207, 10937.00
1432.259, 10969.00
1433.310, 10920.00
1434.362, 10962.00
1435.414, 10997.00
1436.465, 10984.21
1437.516, 10925.00
1438.567, 10991.00
1439.618, 10957.00
1440.669, 10937.00
1441.720, 10965.00
1442.770, 10920.00
1443.820, 10910.42
1444.871, 10996.69
1445.921, 11045.91
1446.971, 11060.06
1448.021, 10934.12
1449.070, 10989.07
1450.120, 10971.54
1451.169, 10951.02
1452.219, 11031.44
1453.268, 10925.87
1454.317, 11004.69
1455.366, 11009.90
1456.414, 11048.80
1457.463, 11014.76
1458.511, 11003.24
1459.560, 11064.69
1460.608, 11085.74
1461.656, 11043.30
1462.704, 11084.34
1463.752, 10976.22
1464.799, 10998.99
1465.847, 11078.23
1466.894, 11039.46
1467.941, 11081.83
1468.988, 11093.29
1470.035, 10964.31
1471.082, 11079.58
1472.129, 11089.22
1473.175, 11133.00
1474.222, 11080.00
1475.268, 10946.00
1476.314, 11007.00
1477.360, 11174.00
1478.406, 11072.00
1479.452, 11173.00
1480.498, 11059.00
1481.543, 11121.00
1482.588, 11006.00
1483.633, 11137.00
1484.679, 11109.00
1485.723, 11112.00
1486.768, 11132.00
1487.813, 11105.04
1488.857, 11164.00
1489.902, 11093.00
1490.946, 11130.00
1491.990, 11163.00
1493.034, 11214.00
1494.078, 11266.00
1495.122, 11297.64
1496.165, 11326.00
1497.209, 11338.00
1498.252, 11299.00
1499.295, 11247.00
1500.338, 11267.57
1501.381, 11284.00
1502.424, 11264.00
1503.466, 11275.00
1504.509, 11239.00
1505.551, 11193.00
1506.593, 11214.00
1507.635, 11294.00
1508.677, 11296.00
1509.719, 11283.00
1510.761, 11363.00
1511.802, 11271.00
1512.844, 11365.00
1513.885, 11243.00
1514.926, 11417.00
1515.967, 11460.00
1517.008, 11475.00
1518.049, 11453.00
1519.089, 11347.00
1520.130, 11261.00
1521.170, 11453.00
1522.210, 11463.00
1523.250, 11535.00
1524.290, 11412.00
1525.330, 11351.00
1526.370, 11336.00
1527.409, 11286.58
1528.448, 11500.00
1529.488, 11300.00
1530.527, 11404.00
1531.566, 11493.00
1532.605, 11347.00
1533.643, 11339.00
1534.682, 11418.00
1535.720, 11377.00
1536.759, 11509.00
1537.797, 11540.00
1538.835, 11319.00
1539.873, 11483.00
1540.910, 11514.00
1541.948, 11320.64
1542.986, 11401.48
1544.023, 11445.27
1545.060, 11453.99
1546.097, 11322.62
1547.134, 11372.15
1548.171, 11349.18
1549.208, 11323.24
1550.244, 11398.23
1551.281, 11287.24
1552.317, 11360.63
1553.353, 11360.42
1554.389, 11393.90
1555.425, 11354.43
1556.461, 11337.50
1557.497, 11393.53
1558.532, 11409.16
1559.567, 11361.30
1560.603, 11396.91
1561.638, 11283.38
1562.673, 11300.73
1563.708, 11374.55
##END=



