##NAMES=Augite
##RRUFFID=R061086
##IDEAL CHEMISTRY=(Ca,Mg,Fe^2+^,Fe^3+^)_2_(Si,Al)_2_O_6_
##LOCALITY=Boreslav, Teplitz, Bohemia, Czech Republic
##OWNER=RRUFF
##SOURCE=Michael Scott
##DESCRIPTION=Black to dark green tabular euhedral crystal
##STATUS=The identification of this mineral has been confirmed by X-ray diffraction and chemical analysis
##URL=rruff.info/R061086
##MEASURED CHEMISTRY=(Ca_0.88_Mg_0.83_Fe_0.13_Al_0.08_Na_0.04_Ti_0.03_Cr_0.01_)_Σ=2_(Si_1.89_Al_0.11_)_Σ=2_O_6_
##PIN_ID=M00179
##ORIENTATION=Laser parallel to a* (1 0 0). Fiducial mark perpendicular to laser is parallel to b [0 1 0]
157.5600, 7177.000
158.7920, 7204.000
160.0240, 7113.000
161.2560, 7283.000
162.4870, 7227.000
163.7180, 7302.110
164.9490, 7429.000
166.1800, 7452.000
167.4110, 7575.000
168.6410, 7691.000
169.8720, 7630.000
171.1020, 7783.000
172.3320, 7756.000
173.5620, 7873.000
174.7910, 7810.000
176.0210, 7920.000
177.2500, 7942.000
178.4790, 7906.000
179.7080, 7990.000
180.9370, 8036.000
182.1650, 8141.000
183.3940, 8050.000
184.6220, 8059.000
185.8500, 8107.000
187.0780, 8175.000
188.3050, 8104.000
189.5330, 8174.000
190.7600, 8150.000
191.9870, 8145.000
193.2140, 8158.000
194.4410, 8064.000
195.6680, 8015.000
196.8940, 8103.000
198.1200, 7943.000
199.3470, 8005.000
200.5720, 7840.000
201.7980, 7937.000
203.0240, 7863.000
204.2490, 7815.000
205.4740, 7678.000
206.6990, 7675.000
207.9240, 7650.000
209.1490, 7715.000
210.3740, 7690.000
211.5980, 7736.000
212.8220, 7825.000
214.0460, 7931.000
215.2700, 7795.000
216.4930, 7990.000
217.7170, 7974.000
218.9400, 8054.000
220.1630, 8142.000
221.3860, 8203.000
222.6090, 8133.000
223.8320, 8135.000
225.0540, 8188.000
226.2760, 8222.000
227.4980, 8226.000
228.7200, 8181.000
229.9420, 8211.000
231.1630, 8088.000
232.3850, 8192.000
233.6060, 8067.000
234.8270, 8105.000
236.0480, 8074.000
237.2690, 7999.000
238.4890, 8041.000
239.7090, 8069.000
240.9290, 8003.000
242.1490, 8101.000
243.3690, 7910.000
244.5890, 7987.000
245.8080, 7931.000
247.0270, 8007.000
248.2470, 7965.530
249.4650, 7999.000
250.6840, 7902.000
251.9030, 7860.000
253.1210, 7842.000
254.3390, 7924.000
255.5570, 7780.000
256.7750, 7792.000
257.9930, 7823.000
259.2100, 7768.470
260.4280, 7906.000
261.6450, 7707.000
262.8620, 7639.000
264.0790, 7488.000
265.2950, 7566.000
266.5120, 7619.000
267.7280, 7621.000
268.9440, 7465.000
270.1600, 7514.000
271.3760, 7562.000
272.5920, 7528.000
273.8070, 7589.000
275.0220, 7550.000
276.2370, 7670.000
277.4520, 7683.709
278.6670, 7702.481
279.8820, 7775.000
281.0960, 7790.000
282.3100, 7832.000
283.5240, 7981.000
284.7380, 7918.000
285.9520, 8041.000
287.1650, 8058.000
288.3780, 8074.000
289.5920, 8273.000
290.8050, 8366.000
292.0170, 8325.000
293.2300, 8343.000
294.4430, 8440.000
295.6550, 8593.000
296.8670, 8657.000
298.0790, 8766.000
299.2910, 8824.000
300.5020, 8831.000
301.7140, 9330.000
302.9250, 9263.000
304.1360, 9446.000
305.3470, 9517.000
306.5580, 9670.000
307.7680, 10069.00
308.9780, 10234.00
310.1890, 10517.00
311.3990, 10797.00
312.6090, 11016.00
313.8180, 11447.00
315.0280, 11722.00
316.2370, 12010.79
317.4460, 12247.00
318.6550, 12556.00
319.8640, 12817.00
321.0730, 13040.00
322.2810, 13159.65
323.4890, 13127.00
324.6980, 13242.00
325.9060, 13320.00
327.1130, 13231.00
328.3210, 12952.00
329.5280, 12817.00
330.7360, 12622.00
331.9430, 12351.00
333.1500, 12200.00
334.3560, 12042.00
335.5630, 11764.00
336.7690, 11632.53
337.9760, 11455.00
339.1820, 11265.00
340.3870, 11137.00
341.5930, 10991.40
342.7990, 10760.00
344.0040, 10771.00
345.2090, 10639.00
346.4140, 10575.00
347.6190, 10650.00
348.8240, 10571.00
350.0280, 10502.00
351.2330, 10471.00
352.4370, 10406.54
353.6410, 10341.00
354.8440, 10323.00
356.0480, 10247.91
357.2520, 10223.93
358.4550, 10128.00
359.6580, 10243.00
360.8610, 10273.00
362.0640, 10302.00
363.2660, 10162.00
364.4690, 10295.00
365.6710, 10119.00
366.8730, 10068.00
368.0750, 10165.00
369.2770, 10122.00
370.4780, 10154.00
371.6800, 10197.00
372.8810, 10247.00
374.0820, 10209.00
375.2830, 10313.00
376.4830, 10499.00
377.6840, 10513.00
378.8840, 10743.00
380.0840, 10774.00
381.2840, 11074.00
382.4840, 11178.00
383.6840, 11282.00
384.8830, 11686.00
386.0830, 11954.00
387.2820, 12174.00
388.4810, 12118.00
389.6800, 12026.00
390.8780, 12094.00
392.0770, 12096.00
393.2750, 11910.00
394.4730, 11718.00
395.6710, 11559.00
396.8690, 11043.00
398.0660, 10810.00
399.2640, 10354.00
400.4610, 10132.00
401.6580, 9717.000
402.8550, 9350.000
404.0520, 9218.000
405.2490, 8931.000
406.4450, 8802.000
407.6410, 8672.000
408.8370, 8534.000
410.0330, 8341.000
411.2290, 8379.000
412.4240, 8331.000
413.6200, 8172.000
414.8150, 8053.000
416.0100, 8135.000
417.2050, 8074.000
418.4000, 8062.000
419.5940, 8086.000
420.7880, 7994.000
421.9830, 7972.000
423.1770, 8068.000
424.3700, 8064.000
425.5640, 8017.000
426.7580, 8063.899
427.9510, 8043.000
429.1440, 8035.000
430.3370, 7943.000
431.5300, 7841.000
432.7220, 7918.000
433.9150, 7923.000
435.1070, 7974.000
436.2990, 7934.000
437.4910, 7947.000
438.6830, 7935.592
439.8750, 7889.488
441.0660, 7924.000
442.2570, 7815.000
443.4480, 7856.000
444.6390, 7859.000
445.8300, 7769.000
447.0210, 7885.000
448.2110, 7883.000
449.4010, 7827.000
450.5910, 7875.000
451.7810, 7897.000
452.9710, 7921.000
454.1610, 7980.000
455.3500, 7942.000
456.5390, 7922.000
457.7280, 7867.000
458.9170, 7965.000
460.1060, 7934.000
461.2940, 7994.000
462.4830, 7938.000
463.6710, 7947.000
464.8590, 8004.000
466.0470, 7985.000
467.2350, 8030.000
468.4220, 7984.000
469.6090, 7906.000
470.7970, 8071.000
471.9840, 8040.000
473.1700, 7949.000
474.3570, 7921.000
475.5440, 7943.000
476.7300, 7904.000
477.9160, 7961.000
479.1020, 8044.000
480.2880, 7889.000
481.4740, 8013.000
482.6590, 8022.000
483.8440, 7970.000
485.0300, 7989.000
486.2140, 8058.000
487.3990, 8170.000
488.5840, 8090.000
489.7680, 8192.000
490.9530, 8143.000
492.1370, 8093.000
493.3210, 8201.000
494.5040, 8264.000
495.6880, 8346.000
496.8720, 8371.000
498.0550, 8320.000
499.2380, 8512.000
500.4210, 8524.749
501.6040, 8708.000
502.7860, 8703.000
503.9690, 8788.000
505.1510, 8893.000
506.3330, 9014.000
507.5150, 9072.000
508.6970, 9130.000
509.8780, 9130.000
511.0600, 9169.773
512.2410, 9181.566
513.4220, 9204.000
514.6030, 9210.000
515.7840, 9231.000
516.9640, 9270.000
518.1440, 9217.000
519.3250, 9130.000
520.5050, 9176.000
521.6850, 9286.000
522.8640, 9131.000
524.0440, 9364.000
525.2230, 9334.000
526.4020, 9295.000
527.5820, 9279.000
528.7600, 9273.000
529.9390, 9357.000
531.1180, 9269.000
532.2960, 9323.000
533.4740, 9218.000
534.6520, 9340.000
535.8300, 9353.000
537.0080, 9366.000
538.1850, 9301.000
539.3630, 9304.000
540.5400, 9174.000
541.7170, 9177.000
542.8940, 9084.000
544.0700, 9198.000
545.2470, 9157.000
546.4230, 9203.000
547.5990, 8992.000
548.7750, 9130.000
549.9510, 9135.000
551.1270, 9102.000
552.3020, 9165.000
553.4780, 9181.000
554.6530, 9112.000
555.8280, 9058.000
557.0030, 9055.000
558.1770, 9063.000
559.3520, 8949.000
560.5260, 8989.000
561.7000, 9044.000
562.8740, 9114.000
564.0480, 9035.000
565.2220, 9040.000
566.3950, 9015.000
567.5680, 8976.000
568.7420, 9002.000
569.9150, 8909.000
571.0870, 8889.000
572.2600, 8829.000
573.4320, 8810.000
574.6050, 8742.000
575.7770, 8840.000
576.9490, 8857.000
578.1210, 8796.000
579.2920, 8741.000
580.4640, 8661.000
581.6350, 8639.000
582.8060, 8669.000
583.9770, 8584.000
585.1480, 8546.000
586.3190, 8391.000
587.4890, 8342.000
588.6590, 8319.000
589.8290, 8309.000
590.9990, 8181.000
592.1690, 8263.000
593.3390, 8134.000
594.5080, 8176.000
595.6770, 8078.000
596.8470, 8015.000
598.0160, 8030.000
599.1840, 8012.000
600.3530, 8058.000
601.5210, 7951.000
602.6900, 7989.000
603.8580, 8074.000
605.0260, 8001.000
606.1930, 8069.000
607.3610, 7980.000
608.5280, 7942.000
609.6960, 8053.000
610.8630, 8159.000
612.0300, 8106.000
613.1970, 8172.000
614.3630, 8122.000
615.5300, 8199.000
616.6960, 8192.046
617.8620, 8145.000
619.0280, 8203.000
620.1940, 8249.000
621.3590, 8252.000
622.5250, 8289.159
623.6900, 8277.000
624.8550, 8325.000
626.0200, 8358.000
627.1850, 8385.000
628.3490, 8352.000
629.5140, 8618.000
630.6780, 8643.000
631.8420, 8595.000
633.0060, 8727.000
634.1700, 8698.000
635.3330, 8743.000
636.4970, 8874.000
637.6600, 9007.000
638.8230, 9033.000
639.9860, 9210.000
641.1490, 9379.000
642.3110, 9621.000
643.4740, 9809.000
644.6360, 9911.000
645.7980, 10361.44
646.9600, 11079.86
648.1220, 11696.92
649.2840, 12218.10
650.4450, 12355.80
651.6060, 12988.16
652.7670, 13422.28
653.9280, 13848.24
655.0890, 14550.22
656.2500, 14743.64
657.4100, 15835.00
658.5700, 16749.00
659.7300, 17436.00
660.8900, 18089.00
662.0500, 18820.00
663.2100, 19210.00
664.3690, 19447.00
665.5280, 19349.14
666.6880, 19148.00
667.8460, 18485.00
669.0050, 17678.00
670.1640, 16768.00
671.3220, 15950.00
672.4810, 14937.00
673.6390, 14204.00
674.7970, 13172.00
675.9540, 12629.00
677.1120, 12155.00
678.2690, 11643.00
679.4270, 11280.00
680.5840, 10810.00
681.7410, 10538.00
682.8980, 10264.00
684.0540, 10168.00
685.2110, 9945.000
686.3670, 9775.000
687.5230, 9569.000
688.6790, 9492.000
689.8350, 9419.000
690.9900, 9253.000
692.1460, 9209.000
693.3010, 9116.000
694.4560, 9140.000
695.6110, 9156.000
696.7660, 9059.000
697.9210, 9066.000
699.0750, 8955.000
700.2290, 9088.000
701.3840, 9120.000
702.5370, 8977.000
703.6910, 8985.000
704.8450, 8964.000
705.9980, 8937.000
707.1520, 8953.000
708.3050, 8815.000
709.4580, 8783.000
710.6110, 8816.000
711.7630, 8726.000
712.9160, 8708.000
714.0680, 8797.000
715.2200, 8682.000
716.3720, 8822.000
717.5240, 8729.000
718.6760, 8749.000
719.8270, 8735.000
720.9780, 8733.000
722.1300, 8631.000
723.2810, 8700.000
724.4310, 8537.000
725.5820, 8543.000
726.7330, 8686.000
727.8830, 8574.000
729.0330, 8560.000
730.1830, 8678.000
731.3330, 8550.000
732.4830, 8492.000
733.6320, 8713.000
734.7810, 8770.000
735.9310, 8593.000
737.0800, 8680.000
738.2290, 8602.000
739.3770, 8630.000
740.5260, 8686.000
741.6740, 8660.000
742.8220, 8770.000
743.9700, 8738.000
745.1180, 8826.000
746.2660, 8800.000
747.4130, 8733.000
748.5610, 8864.000
749.7080, 8997.000
750.8550, 8953.000
752.0020, 8938.000
753.1490, 9060.000
754.2950, 8947.000
755.4420, 8908.000
756.5880, 9032.000
757.7340, 9039.000
758.8800, 9105.000
760.0250, 9281.000
761.1710, 9264.000
762.3160, 9176.000
763.4620, 9306.000
764.6070, 9141.000
765.7520, 9318.000
766.8960, 9324.000
768.0410, 9438.000
769.1850, 9571.000
770.3300, 9447.000
771.4740, 9451.000
772.6180, 9493.000
773.7610, 9359.000
774.9050, 9456.000
776.0480, 9375.000
777.1920, 9323.000
778.3350, 9531.000
779.4780, 9564.000
780.6200, 9438.000
781.7630, 9606.000
782.9060, 9519.000
784.0480, 9630.000
785.1900, 9597.000
786.3320, 9592.000
787.4740, 9503.000
788.6150, 9641.000
789.7570, 9643.000
790.8980, 9651.000
792.0390, 9640.000
793.1800, 9774.000
794.3210, 9672.000
795.4620, 9703.000
796.6020, 9675.000
797.7420, 9917.000
798.8830, 9945.000
800.0230, 9835.000
801.1620, 9896.000
802.3020, 9861.000
803.4420, 9889.000
804.5810, 9938.000
805.7200, 9943.000
806.8590, 10043.00
807.9980, 10063.90
809.1370, 10123.99
810.2750, 10160.00
811.4140, 10216.00
812.5520, 10285.00
813.6900, 10283.00
814.8280, 10323.00
815.9650, 10261.00
817.1030, 10275.00
818.2400, 10339.00
819.3780, 10426.00
820.5150, 10440.23
821.6520, 10478.07
822.7880, 10479.00
823.9250, 10493.00
825.0610, 10452.00
826.1980, 10434.00
827.3340, 10523.00
828.4700, 10543.00
829.6050, 10594.00
830.7410, 10501.00
831.8760, 10631.00
833.0120, 10502.00
834.1470, 10458.00
835.2820, 10515.00
836.4160, 10441.00
837.5510, 10462.00
838.6860, 10550.00
839.8200, 10469.00
840.9540, 10499.00
842.0880, 10452.00
843.2220, 10562.00
844.3550, 10503.00
845.4890, 10621.00
846.6220, 10591.00
847.7550, 10635.00
848.8880, 10698.00
850.0210, 10782.00
851.1540, 10880.00
852.2860, 10785.00
853.4190, 10822.00
854.5510, 10791.00
855.6830, 11002.00
856.8150, 10995.00
857.9460, 11111.00
859.0780, 10977.00
860.2090, 10894.00
861.3410, 10894.00
862.4720, 10802.00
863.6020, 10792.00
864.7330, 10769.00
865.8640, 10864.00
866.9940, 10930.00
868.1240, 10758.00
869.2540, 10732.00
870.3840, 10678.00
871.5140, 10537.00
872.6440, 10741.00
873.7730, 10597.00
874.9020, 10614.00
876.0320, 10639.00
877.1600, 10507.00
878.2890, 10462.00
879.4180, 10521.00
880.5460, 10544.00
881.6750, 10543.00
882.8030, 10523.00
883.9310, 10495.00
885.0590, 10481.00
886.1860, 10595.00
887.3140, 10546.21
888.4410, 10561.00
889.5680, 10543.00
890.6950, 10536.00
891.8220, 10532.00
892.9490, 10541.00
894.0750, 10544.65
895.2020, 10551.65
896.3280, 10559.00
897.4540, 10579.00
898.5800, 10573.00
899.7050, 10605.00
900.8310, 10732.00
901.9560, 10791.00
903.0820, 10654.00
904.2070, 10603.00
905.3320, 10757.00
906.4560, 10531.00
907.5810, 10755.00
908.7050, 10719.00
909.8300, 10676.00
910.9540, 10775.00
912.0780, 10745.00
913.2010, 10739.00
914.3250, 10743.00
915.4480, 10835.00
916.5720, 10862.00
917.6950, 10872.00
918.8180, 10865.00
919.9410, 10917.00
921.0630, 10918.23
922.1860, 10902.00
923.3080, 10954.00
924.4300, 10931.00
925.5520, 10943.00
926.6740, 10923.00
927.7960, 10924.00
928.9170, 11112.00
930.0390, 11055.00
931.1600, 11134.00
932.2810, 11059.00
933.4020, 10980.00
934.5230, 10950.00
935.6430, 10959.00
936.7640, 10917.00
937.8840, 10950.32
939.0040, 10911.00
940.1240, 11018.00
941.2440, 10954.00
942.3630, 10994.00
943.4830, 10941.00
944.6020, 10914.00
945.7210, 10980.00
946.8400, 10950.00
947.9590, 10953.67
949.0770, 11046.00
950.1960, 10974.00
951.3140, 11023.00
952.4320, 11119.00
953.5500, 11032.00
954.6680, 11050.00
955.7860, 11046.00
956.9030, 11099.00
958.0210, 11161.00
959.1380, 11284.00
960.2550, 11139.00
961.3720, 11266.00
962.4890, 11288.00
963.6050, 11193.00
964.7220, 11371.00
965.8380, 11334.00
966.9540, 11383.00
968.0700, 11455.00
969.1860, 11338.00
970.3010, 11457.00
971.4170, 11561.00
972.5320, 11697.00
973.6470, 11586.00
974.7620, 11601.00
975.8770, 11684.00
976.9910, 11734.00
978.1060, 11785.90
979.2200, 11872.36
980.3340, 11908.00
981.4480, 12022.00
982.5620, 12099.00
983.6760, 12148.00
984.7890, 12329.00
985.9030, 12407.00
987.0160, 12670.00
988.1290, 12652.00
989.2420, 13030.00
990.3550, 13091.00
991.4670, 13347.00
992.5800, 13612.00
993.6920, 14025.00
994.8040, 14320.00
995.9160, 14753.00
997.0280, 15118.00
998.1390, 15617.00
999.2510, 16063.00
1000.362, 16737.00
1001.473, 17229.00
1002.584, 17831.00
1003.695, 18202.00
1004.805, 18818.00
1005.916, 19251.00
1007.026, 19473.00
1008.136, 19413.00
1009.246, 19261.00
1010.356, 18981.00
1011.466, 18538.00
1012.576, 18014.00
1013.685, 16983.00
1014.794, 16332.00
1015.903, 15696.00
1017.012, 14995.00
1018.121, 14466.00
1019.229, 13910.00
1020.338, 13510.00
1021.446, 13337.00
1022.554, 13101.00
1023.662, 12854.00
1024.770, 12670.00
1025.878, 12560.00
1026.985, 12494.00
1028.092, 12450.00
1029.200, 12389.00
1030.307, 12475.00
1031.413, 12365.00
1032.520, 12513.00
1033.627, 12471.00
1034.733, 12419.00
1035.839, 12471.00
1036.945, 12388.00
1038.051, 12381.00
1039.157, 12356.00
1040.262, 12361.00
1041.368, 12263.00
1042.473, 12273.00
1043.578, 12175.00
1044.683, 12074.00
1045.788, 12087.00
1046.893, 11971.00
1047.997, 11969.00
1049.101, 11783.00
1050.205, 11787.00
1051.309, 11696.00
1052.413, 11779.00
1053.517, 11547.00
1054.621, 11528.00
1055.724, 11530.00
1056.827, 11464.00
1057.930, 11414.00
1059.033, 11371.00
1060.136, 11380.00
1061.238, 11348.45
1062.341, 11365.00
1063.443, 11332.00
1064.545, 11240.00
1065.647, 11226.00
1066.749, 11289.00
1067.850, 11058.00
1068.952, 11148.00
1070.053, 11228.00
1071.154, 11154.00
1072.255, 11071.00
1073.356, 11067.00
1074.457, 11019.85
1075.557, 11138.00
1076.658, 11010.00
1077.758, 11016.00
1078.858, 11062.00
1079.958, 11002.00
1081.057, 11115.00
1082.157, 11004.00
1083.256, 11136.00
1084.356, 11000.00
1085.455, 10903.00
1086.554, 11058.00
1087.653, 10888.00
1088.751, 10911.00
1089.850, 11048.00
1090.948, 10909.00
1092.046, 10917.00
1093.144, 10963.00
1094.242, 10974.00
1095.340, 10992.00
1096.437, 11006.00
1097.534, 10967.00
1098.632, 10959.67
1099.729, 10921.00
1100.826, 10900.00
1101.922, 10952.00
1103.019, 10934.00
1104.115, 10956.00
1105.212, 11012.00
1106.308, 10960.00
1107.404, 10865.00
1108.499, 10973.00
1109.595, 10780.00
1110.691, 10878.00
1111.786, 10898.00
1112.881, 10803.00
1113.976, 10882.00
1115.071, 10956.00
1116.166, 10905.00
1117.260, 10856.00
1118.355, 10761.00
1119.449, 10782.00
1120.543, 10834.00
1121.637, 10756.00
1122.731, 10910.00
1123.824, 10907.00
1124.918, 10861.00
1126.011, 10762.00
1127.104, 10699.00
1128.197, 10887.00
1129.290, 10689.00
1130.382, 10800.00
1131.475, 10702.00
1132.567, 10744.00
1133.659, 10731.00
1134.751, 10799.00
1135.843, 10762.82
1136.935, 10646.00
1138.027, 10667.00
1139.118, 10645.00
1140.209, 10510.00
1141.300, 10663.00
1142.391, 10538.00
1143.482, 10725.00
1144.573, 10627.00
1145.663, 10593.00
1146.754, 10636.00
1147.844, 10740.00
1148.934, 10680.00
1150.024, 10693.00
1151.113, 10694.00
1152.203, 10590.00
1153.292, 10602.00
1154.381, 10785.00
1155.470, 10706.00
1156.559, 10812.00
1157.648, 10733.00
1158.737, 10636.00
1159.825, 10747.00
1160.913, 10670.00
1162.001, 10782.00
1163.089, 10623.00
1164.177, 10717.00
1165.265, 10724.00
1166.352, 10722.00
1167.440, 10670.00
1168.527, 10719.00
1169.614, 10750.00
1170.701, 10672.00
1171.788, 10807.00
1172.874, 10816.00
1173.961, 10696.00
1175.047, 10874.00
1176.133, 10654.00
1177.219, 10896.00
1178.305, 10716.00
1179.390, 10835.00
1180.476, 10719.00
1181.561, 10741.00
1182.646, 10842.00
1183.731, 10823.00
1184.816, 10787.00
1185.901, 10934.00
1186.985, 10851.00
1188.070, 10850.00
1189.154, 10887.00
1190.238, 10809.00
1191.322, 10782.00
1192.406, 10793.00
1193.489, 10911.00
1194.573, 10866.00
1195.656, 10959.00
1196.739, 10916.00
1197.822, 10900.87
1198.905, 10894.00
1199.988, 10826.00
1201.070, 10945.00
1202.153, 10902.00
1203.235, 10949.00
1204.317, 11040.00
1205.399, 10987.00
1206.481, 11009.00
1207.562, 10999.00
1208.644, 10998.00
1209.725, 10838.00
1210.806, 10916.00
1211.887, 10879.00
1212.968, 10883.00
1214.049, 10962.00
1215.129, 10901.10
1216.209, 10972.00
1217.290, 10891.00
1218.370, 11007.00
1219.450, 11111.00
1220.529, 11068.00
1221.609, 11052.00
1222.688, 11116.08
1223.768, 11024.00
1224.847, 11172.00
1225.926, 11160.00
1227.005, 11138.00
1228.083, 11171.00
1229.162, 11172.00
1230.240, 11156.00
1231.318, 11084.00
1232.396, 11147.00
1233.474, 11110.21
1234.552, 11045.00
1235.629, 11121.00
1236.707, 11144.00
1237.784, 11179.00
1238.861, 11178.00
1239.938, 11171.00
1241.015, 11128.00
1242.092, 11168.00
1243.168, 11191.00
1244.244, 11167.00
1245.321, 11092.00
1246.397, 11202.00
1247.473, 11117.00
1248.548, 11185.00
1249.624, 11204.00
1250.699, 11368.00
1251.775, 11211.00
1252.850, 11202.00
1253.925, 11343.00
1254.999, 11311.00
1256.074, 11199.00
1257.148, 11386.00
1258.223, 11364.00
1259.297, 11237.00
1260.371, 11344.00
1261.445, 11364.00
1262.519, 11409.00
1263.592, 11293.00
1264.666, 11290.00
1265.739, 11356.00
1266.812, 11330.00
1267.885, 11397.00
1268.958, 11509.00
1270.030, 11347.00
1271.103, 11382.00
1272.175, 11358.00
1273.247, 11455.00
1274.319, 11388.00
1275.391, 11488.00
1276.463, 11413.00
1277.535, 11579.00
1278.606, 11329.00
1279.677, 11462.00
1280.748, 11403.00
1281.819, 11364.00
1282.890, 11375.00
1283.961, 11474.00
1285.031, 11512.00
1286.102, 11396.00
1287.172, 11637.00
1288.242, 11540.00
1289.312, 11451.00
1290.381, 11504.00
1291.451, 11518.00
1292.520, 11540.00
1293.590, 11610.00
1294.659, 11571.00
1295.728, 11511.00
1296.797, 11655.00
1297.865, 11588.00
1298.934, 11620.00
1300.002, 11551.00
1301.070, 11606.00
1302.138, 11625.00
1303.206, 11527.00
1304.274, 11616.00
1305.341, 11650.00
1306.409, 11675.00
1307.476, 11697.00
1308.543, 11684.00
1309.610, 11739.00
1310.677, 11662.00
1311.744, 11755.00
1312.810, 11663.00
1313.877, 11723.00
1314.943, 11717.00
1316.009, 11743.00
1317.075, 11814.00
1318.140, 11826.00
1319.206, 11849.60
1320.272, 11859.62
1321.337, 11863.00
1322.402, 11847.00
1323.467, 11834.00
1324.532, 11824.00
1325.596, 11947.00
1326.661, 11776.00
1327.725, 11944.00
1328.790, 11857.00
1329.854, 11945.00
1330.918, 11881.00
1331.981, 11918.00
1333.045, 12039.00
1334.108, 11878.00
1335.172, 11958.00
1336.235, 11962.00
1337.298, 11850.00
1338.361, 12073.00
1339.423, 11970.00
1340.486, 11961.00
1341.548, 12111.00
1342.611, 12008.00
1343.673, 12015.00
1344.735, 11919.00
1345.796, 11896.00
1346.858, 12007.00
1347.919, 11923.00
1348.981, 11991.00
1350.042, 12145.00
1351.103, 12089.00
1352.164, 12120.00
1353.225, 12159.00
1354.285, 12028.00
1355.346, 12016.00
1356.406, 12127.00
1357.466, 12014.00
1358.526, 12110.00
1359.586, 12067.00
1360.645, 12089.00
1361.705, 12217.00
1362.764, 12101.00
1363.823, 12101.00
1364.882, 12246.00
1365.941, 12199.00
1367.000, 12107.00
1368.059, 11996.00
1369.117, 12035.57
1370.175, 12035.20
1371.233, 12111.00
1372.291, 12160.00
1373.349, 12214.00
1374.407, 12273.00
1375.464, 12335.00
1376.522, 12355.00
1377.579, 12275.00
1378.636, 12338.00
1379.693, 12229.00
1380.750, 12097.00
1381.806, 12310.00
1382.863, 12260.00
1383.919, 12096.00
1384.975, 12343.00
1386.031, 12333.00
1387.087, 12254.00
1388.143, 12223.00
1389.199, 12236.77
1390.254, 12242.00
1391.309, 12269.00
1392.364, 12262.00
1393.419, 12258.00
1394.474, 12431.00
1395.529, 12309.00
1396.583, 12206.00
1397.638, 12323.00
1398.692, 12441.00
1399.746, 12261.00
1400.800, 12364.00
1401.853, 12179.00
1402.907, 12253.00
1403.960, 12379.00
1405.014, 12282.00
1406.067, 12340.00
1407.120, 12347.00
1408.173, 12318.00
1409.225, 12346.00
1410.278, 12481.00
1411.330, 12330.00
1412.383, 12468.00
1413.435, 12426.00
1414.487, 12466.00
1415.538, 12386.00
1416.590, 12454.00
1417.641, 12383.00
1418.693, 12325.00
1419.744, 12372.13
1420.795, 12272.00
1421.846, 12418.00
1422.897, 12402.00
1423.947, 12432.00
1424.998, 12449.00
1426.048, 12463.00
1427.098, 12447.00
1428.148, 12332.00
1429.198, 12454.00
1430.247, 12414.72
1431.297, 12495.00
1432.346, 12481.00
1433.396, 12554.00
1434.445, 12626.00
1435.494, 12435.00
1436.542, 12581.00
1437.591, 12400.00
1438.639, 12550.00
1439.688, 12429.00
1440.736, 12573.00
1441.784, 12429.00
1442.832, 12593.00
1443.880, 12455.00
1444.927, 12539.00
1445.975, 12538.00
1447.022, 12622.00
1448.069, 12612.68
1449.116, 12760.00
1450.163, 12630.00
1451.209, 12637.00
1452.256, 12715.00
1453.302, 12635.00
1454.348, 12655.00
1455.394, 12651.00
1456.440, 12787.00
1457.486, 12691.00
1458.532, 12884.00
1459.577, 12650.00
1460.623, 12730.00
1461.668, 12578.00
1462.713, 12733.00
1463.758, 12671.00
1464.802, 12643.00
1465.847, 12757.00
1466.891, 12761.00
1467.936, 12696.00
1468.980, 12801.00
1470.024, 12693.00
1471.067, 12710.00
1472.111, 12791.00
1473.155, 12794.00
1474.198, 12683.00
1475.241, 12704.00
1476.284, 12688.52
1477.327, 12757.00
1478.370, 12722.00
1479.413, 12759.00
1480.455, 12818.00
1481.497, 12798.53
1482.540, 12858.00
1483.582, 12801.00
1484.624, 12903.00
1485.665, 12894.00
1486.707, 13021.00
1487.748, 12883.00
1488.790, 12834.00
1489.831, 12816.00
1490.872, 12859.00
1491.912, 12800.00
1492.953, 12861.00
1493.994, 12714.00
1495.034, 12805.00
1496.074, 12973.00
1497.114, 12900.00
1498.154, 12898.00
1499.194, 12870.00
1500.234, 12870.73
1501.273, 12882.00
1502.313, 12903.00
1503.352, 12901.00
1504.391, 12920.00
1505.430, 12842.00
1506.468, 12949.00
1507.507, 12986.00
1508.545, 12953.00
1509.584, 13097.00
1510.622, 12881.00
1511.660, 13047.00
1512.698, 12908.00
1513.735, 13011.00
1514.773, 12939.00
1515.810, 12958.00
1516.848, 12950.00
1517.885, 12975.00
1518.922, 12997.79
1519.958, 13069.00
1520.995, 13063.00
1522.032, 13115.00
1523.068, 13161.00
1524.104, 13143.65
1525.140, 13157.00
1526.176, 13127.00
1527.212, 13123.00
1528.248, 13118.00
1529.283, 13161.00
1530.318, 13054.00
1531.353, 13159.00
1532.389, 13050.00
1533.423, 13130.00
1534.458, 13120.00
1535.493, 13135.00
1536.527, 13098.00
1537.561, 13106.41
1538.596, 13267.00
1539.630, 13142.00
1540.663, 13124.00
1541.697, 13231.00
1542.731, 13168.00
1543.764, 13211.00
1544.797, 13160.00
1545.830, 13301.00
1546.863, 13204.00
1547.896, 13342.00
1548.929, 13304.00
1549.961, 13268.00
1550.994, 13346.00
1552.026, 13436.00
1553.058, 13442.00
1554.090, 13311.00
1555.121, 13408.00
1556.153, 13339.00
1557.185, 13253.00
1558.216, 13369.00
1559.247, 13336.00
1560.278, 13323.00
1561.309, 13348.00
1562.340, 13493.00
##END=



