##NAMES=Augite
##RRUFFID=R070231
##IDEAL CHEMISTRY=(Ca,Mg,Fe^2+^,Fe^3+^)_2_(Si,Al)_2_O_6_
##LOCALITY=Old Goose Creek Quarry, Leesburg, Loudoun County, Virginia, USA
##OWNER=RRUFF
##SOURCE=Michael Scott
##DESCRIPTION=Very dark grey-green prismatic crystals frozen in quartz
##STATUS=The identification of this mineral is confirmed by single-crystal X-ray diffraction and chemical analysis.
##URL=rruff.info/R070231
##MEASURED CHEMISTRY=(Mg_0.44_Fe_0.37_Ca_0.17_Ti_0.01_Mn_0.01_)_Σ=1_(Si_0.98_Al_0.02_)_Σ=1_O_3_
##PIN_ID=M00250
##ORIENTATION=Laser parallel to (-1 0 -1). Fiducial mark perpendicular to laser is parallel to b [0 1 0]
120.1730, 9699.000
121.4100, 10131.00
122.6480, 10446.00
123.8850, 10837.00
125.1230, 10732.00
126.3600, 10938.00
127.5960, 11521.00
128.8330, 12109.00
130.0700, 12643.00
131.3060, 13224.66
132.5420, 13998.00
133.7780, 14359.00
135.0140, 15100.00
136.2500, 15702.00
137.4850, 16066.00
138.7200, 16325.00
139.9550, 15821.00
141.1900, 14895.00
142.4250, 13965.00
143.6600, 13306.00
144.8940, 12745.00
146.1280, 12242.00
147.3620, 12006.00
148.5960, 11522.00
149.8300, 11040.00
151.0630, 11083.00
152.2960, 10856.00
153.5300, 10500.00
154.7620, 10381.00
155.9950, 10031.00
157.2280, 9950.000
158.4600, 9810.000
159.6920, 9806.000
160.9250, 9883.000
162.1560, 9980.000
163.3880, 10098.00
164.6200, 10151.00
165.8510, 10029.00
167.0820, 9987.000
168.3130, 10234.00
169.5440, 10250.00
170.7750, 10352.00
172.0050, 10308.00
173.2350, 10441.00
174.4650, 10325.00
175.6950, 10498.00
176.9250, 10563.00
178.1550, 10761.00
179.3840, 10698.00
180.6130, 10855.00
181.8420, 10921.00
183.0710, 10973.00
184.3000, 11107.00
185.5280, 11184.88
186.7570, 11261.67
187.9850, 11383.00
189.2130, 11374.00
190.4400, 11430.00
191.6680, 11399.00
192.8960, 11130.00
194.1230, 11092.00
195.3500, 11032.00
196.5770, 11029.00
197.8030, 10781.00
199.0300, 10789.00
200.2560, 10959.00
201.4830, 11017.00
202.7090, 10826.00
203.9340, 10533.00
205.1600, 10158.00
206.3860, 9941.000
207.6110, 9980.000
208.8360, 9939.000
210.0610, 9999.000
211.2860, 10052.80
212.5100, 10048.49
213.7350, 10194.00
214.9590, 10137.00
216.1830, 10171.00
217.4070, 10325.00
218.6310, 10387.00
219.8540, 10412.00
221.0780, 10475.00
222.3010, 10771.00
223.5240, 10777.00
224.7470, 10982.00
225.9690, 11139.00
227.1920, 11194.00
228.4140, 11181.00
229.6360, 11333.00
230.8580, 11556.00
232.0800, 11381.00
233.3020, 11506.00
234.5230, 11401.00
235.7440, 11285.00
236.9650, 11359.00
238.1860, 11367.00
239.4070, 11344.00
240.6280, 11370.00
241.8480, 11362.00
243.0680, 11292.00
244.2880, 11453.00
245.5080, 11397.00
246.7280, 11429.00
247.9470, 11354.00
249.1660, 11521.00
250.3860, 11453.00
251.6040, 11396.00
252.8230, 11320.00
254.0420, 11178.00
255.2600, 11041.00
256.4790, 11197.00
257.6970, 11275.00
258.9150, 11168.46
260.1320, 11522.00
261.3500, 11060.00
262.5670, 10688.00
263.7840, 10680.00
265.0010, 10728.00
266.2180, 10611.02
267.4350, 10537.00
268.6510, 10667.00
269.8680, 10518.00
271.0840, 10604.00
272.3000, 10571.00
273.5160, 10386.00
274.7310, 10458.00
275.9470, 10636.00
277.1620, 10600.00
278.3770, 10585.00
279.5920, 10524.00
280.8070, 10710.00
282.0210, 10614.00
283.2360, 10731.00
284.4500, 10721.00
285.6640, 10792.00
286.8780, 10796.00
288.0920, 10853.00
289.3050, 10851.00
290.5180, 10910.00
291.7320, 11114.00
292.9450, 11375.00
294.1570, 11530.00
295.3700, 11430.00
296.5830, 11645.00
297.7950, 11955.00
299.0070, 11985.00
300.2190, 12377.00
301.4310, 12567.00
302.6420, 12984.00
303.8540, 13322.00
305.0650, 13744.00
306.2760, 14153.00
307.4870, 14643.00
308.6980, 15159.82
309.9080, 15606.00
311.1190, 16278.00
312.3290, 16978.00
313.5390, 17562.00
314.7490, 18263.00
315.9580, 19007.00
317.1680, 19828.00
318.3770, 20514.00
319.5860, 21329.00
320.7950, 22017.00
322.0040, 22557.00
323.2130, 22641.00
324.4210, 22905.00
325.6290, 22818.00
326.8380, 22151.00
328.0460, 21727.00
329.2530, 20993.00
330.4610, 20094.00
331.6680, 18922.00
332.8760, 18262.00
334.0830, 17273.00
335.2890, 16476.00
336.4960, 16062.00
337.7030, 15564.00
338.9090, 15034.00
340.1150, 14796.00
341.3210, 14439.00
342.5270, 14000.00
343.7330, 14031.00
344.9380, 13791.00
346.1440, 13860.00
347.3490, 13696.00
348.5540, 13726.00
349.7590, 13720.00
350.9630, 13686.00
352.1680, 13624.00
353.3720, 13614.00
354.5760, 13675.00
355.7800, 13388.00
356.9840, 13299.00
358.1870, 13393.00
359.3910, 13236.00
360.5940, 13158.00
361.7970, 12989.00
363.0000, 12802.00
364.2030, 12643.00
365.4050, 12716.00
366.6080, 12511.00
367.8100, 12733.00
369.0120, 12512.00
370.2140, 12512.00
371.4150, 12508.00
372.6170, 12430.00
373.8180, 12478.15
375.0190, 12504.06
376.2200, 12573.00
377.4210, 12658.00
378.6220, 12705.73
379.8220, 12798.45
381.0230, 12869.00
382.2230, 12953.00
383.4230, 13106.00
384.6220, 13154.77
385.8220, 13478.00
387.0220, 13439.00
388.2210, 13537.00
389.4200, 13745.00
390.6190, 13620.00
391.8180, 13484.00
393.0160, 13584.00
394.2150, 13458.00
395.4130, 13257.00
396.6110, 12953.00
397.8090, 12875.00
399.0060, 12574.00
400.2040, 12309.00
401.4010, 12183.00
402.5980, 11854.00
403.7950, 11719.00
404.9920, 11544.00
406.1890, 11431.00
407.3860, 11200.00
408.5820, 11140.00
409.7780, 11077.00
410.9740, 10863.00
412.1700, 10806.00
413.3650, 10736.65
414.5610, 10680.00
415.7560, 10682.00
416.9510, 10639.00
418.1460, 10680.00
419.3410, 10667.00
420.5360, 10553.00
421.7300, 10601.00
422.9240, 10511.00
424.1180, 10638.00
425.3120, 10494.00
426.5060, 10642.00
427.7000, 10577.00
428.8930, 10786.00
430.0860, 10577.00
431.2790, 10708.00
432.4720, 10679.00
433.6650, 10754.00
434.8580, 10641.00
436.0500, 10650.00
437.2420, 10711.00
438.4340, 10514.00
439.6260, 10762.00
440.8180, 10816.00
442.0090, 10657.00
443.2010, 10637.00
444.3920, 10796.00
445.5830, 10683.00
446.7740, 10659.00
447.9640, 10677.00
449.1550, 10808.00
450.3450, 10771.00
451.5350, 10814.00
452.7250, 10960.00
453.9150, 10860.00
455.1050, 10855.00
456.2940, 11040.00
457.4830, 11049.00
458.6720, 11089.00
459.8610, 11059.00
461.0500, 10940.00
462.2390, 10806.00
463.4270, 11167.00
464.6150, 11057.00
465.8040, 11169.00
466.9910, 11037.00
468.1790, 11128.00
469.3670, 10981.00
470.5540, 11053.00
471.7410, 11023.00
472.9280, 11032.00
474.1150, 11049.48
475.3020, 11044.00
476.4890, 11031.00
477.6750, 11019.00
478.8610, 10952.00
480.0470, 11042.00
481.2330, 11021.00
482.4190, 11116.00
483.6040, 11092.00
484.7900, 11338.00
485.9750, 11210.00
487.1600, 11218.00
488.3450, 11214.00
489.5290, 11466.00
490.7140, 11378.00
491.8980, 11554.34
493.0820, 11783.00
494.2660, 11763.00
495.4500, 12016.00
496.6340, 12037.00
497.8170, 12372.00
499.0010, 12654.00
500.1840, 12892.00
501.3670, 13340.00
502.5500, 13622.00
503.7320, 13793.00
504.9150, 14310.00
506.0970, 14339.00
507.2790, 14512.00
508.4610, 14524.21
509.6430, 14390.00
510.8250, 14207.00
512.0060, 14080.00
513.1870, 13665.00
514.3680, 13436.00
515.5490, 13360.00
516.7300, 13010.00
517.9110, 12940.00
519.0910, 12937.00
520.2710, 12858.00
521.4510, 12708.00
522.6310, 12674.00
523.8110, 12649.02
524.9910, 12759.00
526.1700, 12665.00
527.3490, 12759.00
528.5280, 12765.00
529.7070, 12930.00
530.8860, 12825.00
532.0650, 12996.00
533.2430, 13039.00
534.4210, 12747.00
535.5990, 12872.00
536.7770, 12810.00
537.9550, 12795.00
539.1320, 12556.00
540.3100, 12472.00
541.4870, 12559.00
542.6640, 12490.00
543.8410, 12489.02
545.0170, 12434.00
546.1940, 12494.00
547.3700, 12574.00
548.5470, 12650.00
549.7230, 12797.00
550.8980, 12883.49
552.0740, 12971.00
553.2500, 13104.00
554.4250, 13175.00
555.6000, 13271.00
556.7750, 13463.00
557.9500, 13408.00
559.1250, 13584.00
560.2990, 13067.00
561.4730, 12951.00
562.6480, 12998.00
563.8220, 12611.00
564.9950, 12645.00
566.1690, 12593.00
567.3430, 12622.00
568.5160, 12266.00
569.6890, 12156.00
570.8620, 12283.00
572.0350, 12205.00
573.2070, 12187.00
574.3800, 11986.00
575.5520, 11995.00
576.7240, 11941.00
577.8960, 12028.00
579.0680, 11890.00
580.2400, 11740.00
581.4110, 11628.00
582.5830, 11598.89
583.7540, 11782.00
584.9250, 11593.00
586.0950, 11690.00
587.2660, 11699.00
588.4370, 11663.00
589.6070, 11645.00
590.7770, 11785.00
591.9470, 11638.00
593.1170, 11666.00
594.2860, 11809.00
595.4560, 11609.00
596.6250, 11627.00
597.7940, 11659.00
598.9630, 11765.00
600.1320, 11791.00
601.3000, 11870.93
602.4690, 11941.77
603.6370, 11938.00
604.8050, 12068.00
605.9730, 11943.00
607.1410, 11961.00
608.3090, 11989.00
609.4760, 12081.00
610.6430, 12119.00
611.8100, 12349.00
612.9770, 12271.00
614.1440, 12512.00
615.3110, 12547.00
616.4770, 12682.00
617.6430, 12637.00
618.8090, 12810.67
619.9750, 12979.25
621.1410, 13098.00
622.3070, 13401.00
623.4720, 13551.00
624.6370, 13732.00
625.8020, 13709.00
626.9670, 13992.00
628.1320, 14117.00
629.2970, 14143.00
630.4610, 14499.00
631.6250, 14789.00
632.7890, 14820.00
633.9530, 14983.00
635.1170, 15241.00
636.2810, 15474.88
637.4440, 15894.00
638.6070, 16167.00
639.7700, 16571.00
640.9330, 17027.00
642.0960, 17343.00
643.2590, 18281.00
644.4210, 18863.00
645.5830, 19561.00
646.7450, 20654.00
647.9070, 21634.00
649.0690, 23357.00
650.2310, 24671.00
651.3920, 26477.00
652.5530, 28803.00
653.7140, 31061.00
654.8750, 33577.00
656.0360, 36636.00
657.1970, 39894.00
658.3570, 43496.00
659.5170, 46695.00
660.6770, 50045.00
661.8370, 53162.00
662.9970, 55775.00
664.1570, 56807.00
665.3160, 57136.00
666.4750, 56237.00
667.6340, 54062.00
668.7930, 51579.00
669.9520, 48563.00
671.1110, 44663.00
672.2690, 41342.00
673.4270, 38443.00
674.5850, 35117.00
675.7430, 32384.00
676.9010, 30081.00
678.0590, 27445.00
679.2160, 25491.00
680.3730, 23641.00
681.5300, 22092.00
682.6870, 20685.00
683.8440, 19556.00
685.0010, 18469.00
686.1570, 17822.00
687.3130, 16893.00
688.4690, 16405.00
689.6250, 16119.00
690.7810, 15521.00
691.9370, 15090.00
693.0920, 14917.00
694.2470, 14610.00
695.4020, 14396.00
696.5570, 14361.00
697.7120, 14183.00
698.8670, 13964.00
700.0210, 13820.00
701.1750, 13754.00
702.3290, 13679.00
703.4830, 13629.00
704.6370, 13522.00
705.7910, 13393.00
706.9440, 13503.00
708.0970, 13240.00
709.2510, 13358.00
710.4030, 13267.00
711.5560, 13004.00
712.7090, 13070.00
713.8610, 13002.00
715.0140, 12851.00
716.1660, 13003.00
717.3180, 12892.00
718.4690, 12823.00
719.6210, 12842.00
720.7730, 12717.00
721.9240, 12726.00
723.0750, 12618.00
724.2260, 12690.00
725.3770, 12774.00
726.5270, 12572.00
727.6780, 12492.00
728.8280, 12565.00
729.9780, 12533.00
731.1280, 12577.00
732.2780, 12663.00
733.4280, 12658.00
734.5770, 12661.62
735.7260, 12619.00
736.8760, 12643.00
738.0250, 12600.00
739.1730, 12662.75
740.3220, 12586.00
741.4700, 12701.00
742.6190, 12651.00
743.7670, 12744.00
744.9150, 12674.00
746.0630, 12701.00
747.2100, 12784.00
748.3580, 12734.00
749.5050, 12712.00
750.6520, 12833.00
751.7990, 12655.00
752.9460, 12916.00
754.0930, 12851.00
755.2390, 12918.00
756.3860, 12769.00
757.5320, 12660.00
758.6780, 12942.00
759.8240, 12948.00
760.9690, 12964.00
762.1150, 13001.00
763.2600, 12973.00
764.4060, 13112.00
765.5510, 12953.00
766.6950, 13135.00
767.8400, 13053.00
768.9850, 13260.00
770.1290, 13265.00
771.2730, 13250.00
772.4170, 13358.00
773.5610, 13272.00
774.7050, 13535.00
775.8480, 13275.00
776.9920, 13289.00
778.1350, 13305.00
779.2780, 13571.00
780.4210, 13436.00
781.5640, 13396.00
782.7060, 13577.00
783.8490, 13522.00
784.9910, 13627.00
786.1330, 13517.00
787.2750, 13554.00
788.4170, 13489.00
789.5580, 13624.00
790.7000, 13670.00
791.8410, 13410.00
792.9820, 13633.00
794.1230, 13542.00
795.2640, 13514.00
796.4040, 13537.00
797.5450, 13426.00
798.6850, 13719.00
799.8250, 13624.00
800.9650, 13501.00
802.1050, 13769.00
803.2450, 13637.00
804.3840, 13728.00
805.5230, 13740.00
806.6630, 13688.00
807.8020, 13708.00
808.9400, 13650.00
810.0790, 13869.00
811.2170, 14034.00
812.3560, 13976.00
813.4940, 14144.00
814.6320, 14245.00
815.7700, 14419.00
816.9070, 14303.00
818.0450, 14418.00
819.1820, 14532.00
820.3190, 14687.00
821.4560, 14743.72
822.5930, 14845.00
823.7300, 14854.00
824.8670, 14956.00
826.0030, 14975.00
827.1390, 15220.00
828.2750, 15109.00
829.4110, 15022.00
830.5470, 15155.00
831.6820, 14965.00
832.8180, 15230.00
833.9530, 15126.00
835.0880, 14965.00
836.2230, 14841.00
837.3580, 14967.00
838.4920, 14828.00
839.6270, 14743.00
840.7610, 14594.00
841.8950, 14505.00
843.0290, 14468.66
844.1630, 14416.00
845.2960, 14439.00
846.4300, 14436.00
847.5630, 14450.00
848.6960, 14363.00
849.8290, 14501.00
850.9620, 14375.00
852.0940, 14327.00
853.2270, 14594.00
854.3590, 14524.00
855.4910, 14393.00
856.6230, 14683.00
857.7550, 14569.00
858.8870, 14602.00
860.0180, 14506.00
861.1500, 14527.00
862.2810, 14361.00
863.4120, 14440.00
864.5430, 14642.00
865.6730, 14477.00
866.8040, 14660.00
867.9340, 14600.00
869.0640, 14429.00
870.1940, 14574.00
871.3240, 14339.00
872.4540, 14669.00
873.5830, 14638.00
874.7130, 14518.00
875.8420, 14728.00
876.9710, 14806.00
878.1000, 14771.00
879.2290, 14742.00
880.3570, 14803.00
881.4860, 15048.00
882.6140, 14855.00
883.7420, 15023.00
884.8700, 15001.00
885.9980, 14885.00
887.1250, 15055.00
888.2530, 14986.00
889.3800, 15068.00
890.5070, 15193.00
891.6340, 15014.00
892.7610, 15082.00
893.8880, 15127.00
895.0140, 15263.00
896.1400, 15313.00
897.2670, 15210.00
898.3930, 15300.00
899.5180, 15296.00
900.6440, 15301.00
901.7700, 15342.00
902.8950, 15351.00
904.0200, 15603.00
905.1450, 15568.00
906.2700, 15894.00
907.3950, 15647.00
908.5190, 15835.00
909.6440, 15799.00
910.7680, 15882.00
911.8920, 15803.00
913.0160, 15974.00
914.1400, 16058.00
915.2630, 16431.00
916.3870, 16342.00
917.5100, 16536.79
918.6330, 16696.00
919.7560, 16679.00
920.8790, 16556.00
922.0010, 16495.00
923.1240, 16629.00
924.2460, 16755.00
925.3680, 16567.00
926.4900, 16544.00
927.6120, 16450.00
928.7340, 16506.00
929.8550, 16485.00
930.9760, 16533.00
932.0980, 16656.00
933.2190, 16614.00
934.3390, 16668.00
935.4600, 16570.00
936.5810, 16530.00
937.7010, 16420.00
938.8210, 16471.00
939.9410, 16483.00
941.0610, 16411.00
942.1810, 16333.00
943.3010, 16687.00
944.4200, 16503.00
945.5390, 16582.00
946.6580, 16723.00
947.7770, 16682.00
948.8960, 16717.00
950.0150, 16828.00
951.1330, 16691.00
952.2510, 16960.00
953.3690, 16929.00
954.4870, 16811.00
955.6050, 17236.00
956.7230, 17101.00
957.8400, 17198.00
958.9580, 17521.00
960.0750, 17440.00
961.1920, 17554.00
962.3090, 17612.00
963.4250, 17855.00
964.5420, 18043.00
965.6580, 18382.00
966.7740, 18346.00
967.8900, 18413.00
969.0060, 18654.00
970.1220, 19006.00
971.2380, 19330.00
972.3530, 19497.00
973.4680, 19837.00
974.5830, 20283.00
975.6980, 20651.00
976.8130, 21144.00
977.9280, 21793.00
979.0420, 22420.00
980.1560, 23121.00
981.2710, 24045.00
982.3850, 25042.00
983.4980, 25906.00
984.6120, 27393.00
985.7260, 28655.00
986.8390, 30345.00
987.9520, 31828.00
989.0650, 34080.00
990.1780, 36037.00
991.2910, 37755.00
992.4030, 39305.00
993.5160, 40571.00
994.6280, 41720.83
995.7400, 42831.00
996.8520, 43471.00
997.9640, 44312.00
999.0750, 44909.00
1000.187, 46095.00
1001.298, 47240.00
1002.409, 48741.00
1003.520, 50968.00
1004.631, 53109.00
1005.741, 56102.00
1006.852, 59294.00
1007.962, 61611.00
1009.072, 64217.00
1010.182, 65535.00
1011.292, 65535.00
1012.402, 64655.24
1013.511, 63285.00
1014.621, 59259.00
1015.730, 55086.00
1016.839, 49542.00
1017.948, 44822.00
1019.056, 40234.00
1020.165, 36315.00
1021.273, 33186.00
1022.382, 30277.00
1023.490, 28446.00
1024.598, 27036.00
1025.706, 25725.00
1026.813, 24560.00
1027.921, 23737.00
1029.028, 23018.00
1030.135, 22646.00
1031.242, 22215.00
1032.349, 21867.00
1033.456, 21563.00
1034.562, 21363.00
1035.668, 21001.00
1036.775, 20907.00
1037.881, 20810.00
1038.987, 20665.00
1040.092, 20790.00
1041.198, 20737.00
1042.303, 20498.00
1043.408, 20511.00
1044.514, 20357.00
1045.618, 19852.00
1046.723, 19782.00
1047.828, 19542.00
1048.932, 19239.00
1050.037, 19037.00
1051.141, 18744.00
1052.245, 18551.00
1053.349, 18089.00
1054.452, 17964.00
1055.556, 17989.00
1056.659, 17946.00
1057.762, 17594.00
1058.865, 17477.00
1059.968, 17258.00
1061.071, 17174.00
1062.174, 17183.00
1063.276, 17072.00
1064.378, 17013.00
1065.480, 16904.00
1066.582, 16882.00
1067.684, 16944.00
1068.786, 16759.00
1069.887, 17002.00
1070.988, 16620.00
1072.090, 16852.00
1073.191, 16750.00
1074.291, 16674.00
1075.392, 16641.00
1076.493, 16600.98
1077.593, 16734.00
1078.693, 16644.00
1079.793, 16832.00
1080.893, 17009.00
1081.993, 17053.00
1083.092, 16951.00
1084.192, 17025.00
1085.291, 16758.00
1086.390, 16694.00
1087.489, 16584.00
1088.588, 16655.00
1089.686, 16552.00
1090.785, 16597.00
1091.883, 16435.00
1092.981, 16509.00
1094.079, 16549.00
1095.177, 16605.00
1096.275, 16550.00
1097.373, 16420.00
1098.470, 16452.00
1099.567, 16401.00
1100.664, 16399.00
1101.761, 16383.99
1102.858, 16509.00
1103.954, 16369.00
1105.051, 16456.00
1106.147, 16511.00
1107.243, 16475.00
1108.339, 16398.00
1109.435, 16542.00
1110.531, 16371.00
1111.626, 16354.00
1112.722, 16441.00
1113.817, 16443.00
1114.912, 16378.00
1116.007, 16394.00
1117.101, 16331.00
1118.196, 16663.00
1119.290, 16615.00
1120.385, 16638.00
1121.479, 16661.00
1122.573, 16596.00
1123.666, 16668.00
1124.760, 16571.00
1125.853, 16580.00
1126.947, 16433.00
1128.040, 16398.00
1129.133, 16301.00
1130.226, 16343.00
1131.318, 16357.00
1132.411, 16342.00
1133.503, 16328.00
1134.596, 16330.00
1135.688, 16277.66
1136.780, 16188.00
1137.871, 16226.00
1138.963, 16191.00
1140.054, 16274.00
1141.146, 16276.00
1142.237, 16133.00
1143.328, 16189.00
1144.419, 16185.00
1145.509, 15994.00
1146.600, 16126.00
1147.690, 16252.00
1148.780, 16199.00
1149.870, 16203.00
1150.960, 16145.67
1152.050, 16138.00
1153.139, 16049.00
1154.229, 15992.00
1155.318, 15959.20
1156.407, 16013.00
1157.496, 15913.00
1158.585, 15927.00
1159.674, 15985.00
1160.762, 16201.00
1161.850, 16261.00
1162.939, 16146.00
1164.027, 16155.00
1165.114, 16135.00
1166.202, 16131.00
1167.290, 16122.24
1168.377, 16088.00
1169.464, 16082.00
1170.551, 16069.01
1171.638, 16076.88
1172.725, 16071.00
1173.812, 16123.00
1174.898, 16102.00
1175.984, 16150.19
1177.071, 16109.00
1178.157, 16198.00
1179.242, 16198.00
1180.328, 16247.00
1181.414, 16253.78
1182.499, 16249.02
1183.584, 16258.00
1184.669, 16268.00
1185.754, 16297.00
1186.839, 16397.00
1187.924, 16281.00
1189.008, 16413.00
1190.092, 16389.00
1191.177, 16228.00
1192.260, 16283.00
1193.344, 16131.00
1194.428, 16329.00
1195.512, 16271.00
1196.595, 16236.00
1197.678, 16304.00
1198.761, 16374.00
1199.844, 16601.00
1200.927, 16378.00
1202.009, 16485.00
1203.092, 16368.00
1204.174, 16487.00
1205.256, 16490.00
1206.338, 16319.00
1207.420, 16375.00
1208.502, 16474.00
1209.583, 16482.00
1210.665, 16467.00
1211.746, 16446.00
1212.827, 16508.73
1213.908, 16628.00
1214.988, 16609.00
1216.069, 16691.00
1217.149, 16689.00
1218.230, 16566.00
1219.310, 16704.00
1220.390, 16418.00
1221.470, 16623.00
1222.549, 16823.00
1223.629, 16729.00
1224.708, 16720.00
1225.787, 16796.00
1226.866, 16737.00
1227.945, 16702.00
1229.024, 16922.00
1230.103, 16719.00
1231.181, 16814.00
1232.259, 16710.00
1233.337, 16905.00
1234.415, 16795.00
1235.493, 16624.00
1236.571, 16768.00
1237.648, 16887.00
1238.726, 16977.00
1239.803, 16930.00
1240.880, 16996.00
1241.957, 16799.00
1243.034, 16899.00
1244.110, 16906.00
1245.187, 16934.00
1246.263, 17058.00
1247.339, 17074.00
1248.415, 16877.00
1249.491, 16970.00
1250.566, 16983.00
1251.642, 17071.00
1252.717, 17095.80
1253.793, 17075.00
1254.868, 17171.00
1255.943, 17076.00
1257.017, 17147.00
1258.092, 17069.00
1259.166, 17084.59
1260.241, 17069.00
1261.315, 17099.00
1262.389, 17221.00
1263.462, 17231.00
1264.536, 17321.00
1265.610, 17257.00
1266.683, 17173.00
1267.756, 17283.00
1268.829, 17157.00
1269.902, 17184.00
1270.975, 17217.00
1272.048, 17168.00
1273.120, 17208.00
1274.192, 17231.22
1275.264, 17211.00
1276.336, 17387.00
1277.408, 17367.02
1278.480, 17611.00
1279.551, 17318.00
1280.623, 17533.00
1281.694, 17427.00
1282.765, 17449.00
1283.836, 17578.37
1284.907, 17462.80
1285.977, 17799.00
1287.048, 17419.00
1288.118, 17535.00
1289.188, 17650.00
1290.258, 17565.00
1291.328, 17492.00
1292.398, 17570.00
1293.467, 17512.00
1294.537, 17578.00
1295.606, 17581.00
1296.675, 17620.00
1297.744, 17666.00
1298.813, 17686.00
1299.882, 17732.20
1300.950, 17757.50
1302.018, 17814.42
1303.086, 17884.00
1304.155, 17937.00
1305.222, 17929.00
1306.290, 17946.84
1307.358, 17943.00
1308.425, 17900.00
1309.492, 17835.00
1310.559, 17770.00
1311.626, 17835.00
1312.693, 17666.00
1313.760, 17900.00
1314.826, 17970.00
1315.893, 17984.00
1316.959, 18206.00
1318.025, 18108.00
1319.091, 17958.00
1320.157, 18120.00
1321.222, 18171.00
1322.288, 18036.00
1323.353, 18096.00
1324.418, 18138.00
1325.483, 17983.00
1326.548, 18148.00
1327.612, 18342.00
1328.677, 18108.00
1329.741, 18134.00
1330.806, 18386.00
1331.870, 18195.00
1332.934, 18224.77
1333.997, 18340.20
1335.061, 18409.83
1336.124, 18436.10
1337.188, 18289.20
1338.251, 18365.92
1339.314, 18353.02
1340.377, 18336.44
1341.439, 18444.63
1342.502, 18322.91
1343.564, 18429.11
1344.627, 18444.34
1345.689, 18501.20
1346.751, 18467.88
1347.813, 18462.42
1348.874, 18547.15
1349.936, 18581.95
1350.997, 18538.24
1352.058, 18597.74
1353.119, 18472.85
1354.180, 18509.76
1355.241, 18616.48
1356.301, 18577.30
1357.362, 18638.45
1358.422, 18661.38
1359.482, 18510.68
1360.542, 18661.94
1361.602, 18682.61
1362.662, 18569.20
1363.721, 18710.10
1364.781, 18615.17
1365.840, 18604.41
1366.899, 18657.01
1367.958, 18643.56
1369.017, 18734.23
1370.075, 18724.59
1371.134, 18706.00
1372.192, 18755.00
1373.250, 18581.00
1374.308, 18769.00
1375.366, 18650.00
1376.424, 18694.00
1377.481, 18707.00
1378.539, 18637.00
1379.596, 18585.00
1380.653, 18603.00
1381.710, 18547.25
1382.767, 18556.21
1383.824, 18533.00
1384.880, 18586.00
1385.937, 18659.00
1386.993, 18727.00
1388.049, 18909.00
1389.105, 18726.00
1390.161, 18893.00
1391.216, 18725.00
1392.272, 18821.00
1393.327, 18611.00
1394.382, 18631.00
1395.437, 18748.00
1396.492, 18786.00
1397.547, 18892.00
1398.601, 19056.00
1399.656, 18879.00
1400.710, 18953.85
1401.764, 19019.00
1402.818, 18825.00
1403.872, 18995.00
1404.925, 18858.00
1405.979, 18893.00
1407.032, 18902.00
1408.085, 19069.00
1409.139, 18767.00
1410.191, 19065.00
1411.244, 18959.00
1412.297, 19035.00
1413.349, 19139.00
1414.402, 18998.00
1415.454, 19273.00
1416.506, 18949.00
1417.558, 18953.00
1418.609, 19041.00
1419.661, 18940.00
1420.712, 18978.00
1421.764, 19131.00
1422.815, 18990.00
1423.866, 19228.00
1424.916, 19242.00
1425.967, 19204.00
1427.018, 19164.00
1428.068, 19169.12
1429.118, 19221.00
1430.168, 19159.00
1431.218, 19337.00
1432.268, 19358.00
1433.318, 19447.00
1434.367, 19370.00
1435.416, 19547.00
1436.465, 19364.00
1437.514, 19533.00
1438.563, 19452.00
1439.612, 19639.00
1440.661, 19552.00
1441.709, 19465.00
1442.757, 19619.00
1443.805, 19654.00
1444.853, 19581.00
1445.901, 19798.00
1446.949, 19509.00
1447.996, 19654.00
1449.044, 19515.00
1450.091, 19511.00
1451.138, 19522.00
1452.185, 19565.00
1453.232, 19608.00
1454.278, 19678.00
1455.325, 19626.00
1456.371, 19710.00
1457.417, 19822.00
1458.463, 19662.00
1459.509, 19726.00
1460.555, 19850.00
1461.601, 19757.00
1462.646, 19673.00
1463.691, 19498.00
1464.737, 19767.00
1465.782, 19685.00
1466.826, 19745.00
1467.871, 19759.00
1468.916, 19864.00
1469.960, 19900.00
1471.004, 19847.16
1472.048, 19725.00
1473.092, 19720.00
1474.136, 19707.00
1475.180, 19667.00
1476.223, 19772.00
1477.267, 19876.00
1478.310, 19878.00
1479.353, 19929.00
1480.396, 19695.00
1481.439, 19853.00
1482.481, 19733.00
1483.524, 19794.00
1484.566, 19924.00
1485.608, 19792.00
1486.650, 19855.00
1487.692, 20004.00
1488.734, 19961.00
1489.775, 19789.00
1490.817, 19983.00
1491.858, 19963.13
1492.899, 19987.53
1493.940, 20085.00
1494.981, 20016.00
1496.022, 19931.00
1497.062, 19799.00
1498.103, 19998.00
1499.143, 20148.00
1500.183, 19920.00
1501.223, 20052.00
1502.263, 20079.00
1503.302, 19992.00
1504.342, 20178.00
1505.381, 20026.00
1506.420, 20097.00
1507.459, 19991.00
1508.498, 20000.40
1509.537, 20074.22
1510.576, 20019.00
1511.614, 20155.00
1512.652, 20170.00
1513.691, 20034.00
1514.729, 20124.00
1515.767, 20381.00
1516.804, 20122.00
1517.842, 20250.00
1518.879, 20379.00
1519.917, 20213.00
1520.954, 20327.00
1521.991, 20310.00
1523.028, 20382.00
1524.064, 20430.00
1525.101, 20333.00
1526.137, 20394.00
1527.173, 20387.00
1528.210, 20281.00
1529.245, 20310.00
1530.281, 20344.00
1531.317, 20206.00
1532.352, 20438.00
1533.388, 20466.00
1534.423, 20495.00
1535.458, 20514.00
1536.493, 20468.00
1537.528, 20482.00
1538.562, 20640.00
1539.597, 20383.00
1540.631, 20421.00
1541.665, 20599.00
1542.700, 20696.00
1543.733, 20705.60
1544.767, 20659.00
1545.801, 20714.00
1546.834, 20650.00
1547.868, 20645.00
1548.901, 20710.00
1549.934, 20709.00
1550.967, 20737.00
1551.999, 20877.00
1553.032, 21250.00
1554.064, 21233.00
1555.097, 21289.00
1556.129, 21041.00
1557.161, 20934.00
1558.193, 20880.00
1559.224, 20802.00
1560.256, 20985.00
1561.287, 20880.15
1562.318, 20881.87
1563.350, 20816.00
1564.380, 20847.00
1565.411, 20766.00
1566.442, 20845.00
1567.472, 21060.00
1568.503, 20897.00
1569.533, 20946.00
1570.563, 21120.00
##END=



