##NAMES=Augite
##RRUFFID=R070231
##IDEAL CHEMISTRY=(Ca,Mg,Fe^2+^,Fe^3+^)_2_(Si,Al)_2_O_6_
##LOCALITY=Old Goose Creek Quarry, Leesburg, Loudoun County, Virginia, USA
##OWNER=RRUFF
##SOURCE=Michael Scott
##DESCRIPTION=Very dark grey-green prismatic crystals frozen in quartz
##STATUS=The identification of this mineral is confirmed by single-crystal X-ray diffraction and chemical analysis.
##URL=rruff.info/R070231
##MEASURED CHEMISTRY=(Mg_0.44_Fe_0.37_Ca_0.17_Ti_0.01_Mn_0.01_)_Σ=1_(Si_0.98_Al_0.02_)_Σ=1_O_3_
##PIN_ID=M00250
##ORIENTATION=Laser parallel to (-1 0 -1). Fiducial mark perpendicular to laser is parallel to b [0 1 0]
115.2200, 10409.00
116.4580, 10261.00
117.6970, 10403.00
118.9350, 10258.00
120.1730, 10226.00
121.4100, 10633.00
122.6480, 10916.00
123.8850, 11030.00
125.1230, 10838.00
126.3600, 10935.00
127.5960, 11071.00
128.8330, 11364.00
130.0700, 11453.00
131.3060, 11524.00
132.5420, 11303.00
133.7780, 11213.00
135.0140, 11162.00
136.2500, 11243.00
137.4850, 11421.00
138.7200, 11571.00
139.9550, 11593.00
141.1900, 11424.00
142.4250, 11135.00
143.6600, 11212.00
144.8940, 11156.00
146.1280, 11244.00
147.3620, 11103.00
148.5960, 10950.00
149.8300, 11063.00
151.0630, 10896.00
152.2960, 10838.00
153.5300, 10835.00
154.7620, 10744.00
155.9950, 10667.00
157.2280, 10448.00
158.4600, 10403.00
159.6920, 10419.00
160.9250, 10450.00
162.1560, 10506.00
163.3880, 10521.97
164.6200, 10545.87
165.8510, 10577.00
167.0820, 10557.00
168.3130, 10577.00
169.5440, 10549.69
170.7750, 10545.67
172.0050, 10580.00
173.2350, 10554.00
174.4650, 10625.00
175.6950, 10702.00
176.9250, 10751.69
178.1550, 10894.00
179.3840, 10835.00
180.6130, 10919.00
181.8420, 10790.00
183.0710, 10698.00
184.3000, 10867.00
185.5280, 10763.00
186.7570, 10907.00
187.9850, 10864.00
189.2130, 10843.00
190.4400, 10787.00
191.6680, 10712.00
192.8960, 10679.00
194.1230, 10708.00
195.3500, 10655.63
196.5770, 10748.00
197.8030, 10660.00
199.0300, 10783.00
200.2560, 10883.00
201.4830, 10994.00
202.7090, 10870.00
203.9340, 10832.00
205.1600, 10470.00
206.3860, 10594.00
207.6110, 10610.00
208.8360, 10657.00
210.0610, 10872.00
211.2860, 10954.00
212.5100, 11034.00
213.7350, 11130.00
214.9590, 11280.00
216.1830, 11402.00
217.4070, 11544.00
218.6310, 11730.00
219.8540, 12001.00
221.0780, 12035.00
222.3010, 12089.00
223.5240, 12322.00
224.7470, 12297.00
225.9690, 12473.00
227.1920, 12391.00
228.4140, 12539.00
229.6360, 12417.00
230.8580, 12618.00
232.0800, 12440.00
233.3020, 12271.00
234.5230, 12152.00
235.7440, 12232.00
236.9650, 12076.00
238.1860, 11974.00
239.4070, 11719.00
240.6280, 11672.00
241.8480, 11709.00
243.0680, 11490.00
244.2880, 11404.00
245.5080, 11411.00
246.7280, 11253.00
247.9470, 11294.00
249.1660, 11110.00
250.3860, 11192.00
251.6040, 10984.00
252.8230, 11044.00
254.0420, 10773.00
255.2600, 10774.00
256.4790, 10654.00
257.6970, 10626.00
258.9150, 10509.62
260.1320, 10430.54
261.3500, 10245.00
262.5670, 10272.00
263.7840, 10109.00
265.0010, 10059.00
266.2180, 10024.00
267.4350, 10073.00
268.6510, 10013.00
269.8680, 9934.000
271.0840, 9996.000
272.3000, 9955.000
273.5160, 10056.00
274.7310, 10054.00
275.9470, 10074.53
277.1620, 10085.00
278.3770, 10163.00
279.5920, 10125.00
280.8070, 10270.00
282.0210, 10398.00
283.2360, 10443.00
284.4500, 10610.43
285.6640, 10677.00
286.8780, 10890.00
288.0920, 11076.00
289.3050, 11236.00
290.5180, 11446.84
291.7320, 11609.53
292.9450, 11837.00
294.1570, 11975.00
295.3700, 12164.00
296.5830, 12389.00
297.7950, 12609.80
299.0070, 12837.00
300.2190, 13112.00
301.4310, 13394.00
302.6420, 13630.00
303.8540, 13951.00
305.0650, 14479.00
306.2760, 14870.00
307.4870, 15462.00
308.6980, 16171.00
309.9080, 17181.00
311.1190, 18085.00
312.3290, 19249.00
313.5390, 20546.00
314.7490, 22370.00
315.9580, 23859.00
317.1680, 25692.00
318.3770, 27203.00
319.5860, 28716.00
320.7950, 30378.00
322.0040, 31708.00
323.2130, 31973.00
324.4210, 32286.00
325.6290, 32028.00
326.8380, 30479.00
328.0460, 29663.00
329.2530, 28003.00
330.4610, 26331.00
331.6680, 24810.00
332.8760, 23122.00
334.0830, 21622.00
335.2890, 20415.00
336.4960, 19333.00
337.7030, 18353.00
338.9090, 17558.00
340.1150, 16997.00
341.3210, 16394.00
342.5270, 15940.00
343.7330, 15927.00
344.9380, 15827.00
346.1440, 15766.00
347.3490, 15942.00
348.5540, 15871.00
349.7590, 16245.00
350.9630, 16264.00
352.1680, 16718.00
353.3720, 16918.00
354.5760, 16939.00
355.7800, 17104.00
356.9840, 17058.00
358.1870, 16986.00
359.3910, 16722.00
360.5940, 16681.00
361.7970, 16636.00
363.0000, 16390.00
364.2030, 16397.00
365.4050, 16637.00
366.6080, 16388.00
367.8100, 16860.00
369.0120, 16990.00
370.2140, 17564.00
371.4150, 17880.00
372.6170, 18392.00
373.8180, 18977.00
375.0190, 19912.00
376.2200, 20716.00
377.4210, 22232.00
378.6220, 23077.00
379.8220, 24799.00
381.0230, 26305.00
382.2230, 27890.00
383.4230, 29875.00
384.6220, 31526.00
385.8220, 33064.00
387.0220, 34758.00
388.2210, 35550.00
389.4200, 36222.00
390.6190, 35871.00
391.8180, 34843.00
393.0160, 33213.00
394.2150, 31260.00
395.4130, 29321.00
396.6110, 26616.00
397.8090, 24623.00
399.0060, 22705.00
400.2040, 21044.00
401.4010, 19278.00
402.5980, 17980.00
403.7950, 16601.00
404.9920, 15583.00
406.1890, 14589.00
407.3860, 13611.00
408.5820, 12826.00
409.7780, 12142.00
410.9740, 11811.00
412.1700, 11455.00
413.3650, 11132.00
414.5610, 10831.00
415.7560, 10575.00
416.9510, 10347.00
418.1460, 10218.00
419.3410, 10098.00
420.5360, 9953.000
421.7300, 10019.00
422.9240, 9823.000
424.1180, 9759.000
425.3120, 9571.000
426.5060, 9477.000
427.7000, 9410.000
428.8930, 9479.000
430.0860, 9395.000
431.2790, 9362.000
432.4720, 9213.000
433.6650, 9210.000
434.8580, 9227.000
436.0500, 9167.555
437.2420, 9209.000
438.4340, 9134.000
439.6260, 9166.000
440.8180, 9126.000
442.0090, 9178.000
443.2010, 9163.000
444.3920, 9127.000
445.5830, 9100.000
446.7740, 9093.000
447.9640, 9179.000
449.1550, 9102.000
450.3450, 9223.000
451.5350, 9191.000
452.7250, 9230.000
453.9150, 9167.000
455.1050, 9369.000
456.2940, 9281.000
457.4830, 9241.000
458.6720, 9354.000
459.8610, 9306.000
461.0500, 9297.000
462.2390, 9339.000
463.4270, 9315.000
464.6150, 9298.000
465.8040, 9392.000
466.9910, 9343.057
468.1790, 9322.000
469.3670, 9276.000
470.5540, 9256.000
471.7410, 9247.137
472.9280, 9208.000
474.1150, 9214.000
475.3020, 9203.000
476.4890, 9127.000
477.6750, 9104.000
478.8610, 9134.000
480.0470, 9071.837
481.2330, 9108.000
482.4190, 9044.000
483.6040, 9106.000
484.7900, 9168.000
485.9750, 9153.000
487.1600, 9320.000
488.3450, 9212.000
489.5290, 9345.000
490.7140, 9259.000
491.8980, 9306.000
493.0820, 9429.000
494.2660, 9326.000
495.4500, 9426.000
496.6340, 9475.000
497.8170, 9489.000
499.0010, 9538.000
500.1840, 9715.000
501.3670, 9777.000
502.5500, 10072.00
503.7320, 10055.00
504.9150, 10301.00
506.0970, 10412.00
507.2790, 10579.00
508.4610, 10713.00
509.6430, 10846.00
510.8250, 10966.00
512.0060, 11031.00
513.1870, 11119.67
514.3680, 11200.27
515.5490, 11268.00
516.7300, 11379.00
517.9110, 11518.00
519.0910, 11683.00
520.2710, 11848.00
521.4510, 12154.00
522.6310, 12195.00
523.8110, 12502.00
524.9910, 12962.00
526.1700, 13057.00
527.3490, 13244.00
528.5280, 13263.00
529.7070, 13338.00
530.8860, 13358.00
532.0650, 13277.51
533.2430, 13201.00
534.4210, 13032.00
535.5990, 12827.00
536.7770, 12606.00
537.9550, 12362.00
539.1320, 12361.00
540.3100, 12197.00
541.4870, 12135.00
542.6640, 11831.00
543.8410, 11699.00
545.0170, 11709.00
546.1940, 11509.00
547.3700, 11621.00
548.5470, 11551.00
549.7230, 11701.00
550.8980, 11665.00
552.0740, 11657.00
553.2500, 11947.00
554.4250, 11880.00
555.6000, 12004.00
556.7750, 11884.00
557.9500, 11752.00
559.1250, 11639.00
560.2990, 11506.00
561.4730, 11229.00
562.6480, 10958.00
563.8220, 10886.00
564.9950, 10672.00
566.1690, 10606.00
567.3430, 10599.00
568.5160, 10424.00
569.6890, 10300.00
570.8620, 10280.00
572.0350, 10089.00
573.2070, 10156.00
574.3800, 9969.000
575.5520, 9939.000
576.7240, 9847.000
577.8960, 9819.000
579.0680, 9763.000
580.2400, 9606.000
581.4110, 9515.000
582.5830, 9401.000
583.7540, 9368.000
584.9250, 9310.000
586.0950, 9251.000
587.2660, 9199.950
588.4370, 9110.000
589.6070, 9096.000
590.7770, 8924.000
591.9470, 8892.000
593.1170, 8797.000
594.2860, 8913.000
595.4560, 8782.000
596.6250, 8743.000
597.7940, 8689.000
598.9630, 8597.000
600.1320, 8695.000
601.3000, 8688.000
602.4690, 8757.000
603.6370, 8768.000
604.8050, 8703.000
605.9730, 8694.000
607.1410, 8710.000
608.3090, 8723.000
609.4760, 8836.000
610.6430, 8902.000
611.8100, 8861.000
612.9770, 8816.000
614.1440, 9056.000
615.3110, 8959.000
616.4770, 9077.000
617.6430, 9120.000
618.8090, 9284.000
619.9750, 9414.000
621.1410, 9327.000
622.3070, 9342.000
623.4720, 9341.000
624.6370, 9488.000
625.8020, 9469.337
626.9670, 9533.000
628.1320, 9565.000
629.2970, 9600.000
630.4610, 9731.000
631.6250, 9817.000
632.7890, 9937.000
633.9530, 10105.00
635.1170, 10289.00
636.2810, 10367.00
637.4440, 10680.00
638.6070, 10676.00
639.7700, 10910.00
640.9330, 11197.00
642.0960, 11482.00
643.2590, 11800.00
644.4210, 12155.00
645.5830, 12770.00
646.7450, 13347.00
647.9070, 13814.00
649.0690, 14824.00
650.2310, 15544.00
651.3920, 16365.00
652.5530, 17513.00
653.7140, 18681.00
654.8750, 19930.00
656.0360, 21660.00
657.1970, 23310.00
658.3570, 25079.00
659.5170, 27036.00
660.6770, 29250.00
661.8370, 30697.00
662.9970, 32063.00
664.1570, 32539.00
665.3160, 32840.00
666.4750, 32161.00
667.6340, 30712.00
668.7930, 29143.00
669.9520, 27445.00
671.1110, 25405.00
672.2690, 23546.00
673.4270, 22124.00
674.5850, 20512.00
675.7430, 19059.00
676.9010, 18012.00
678.0590, 16819.00
679.2160, 15717.00
680.3730, 14925.00
681.5300, 14162.00
682.6870, 13462.00
683.8440, 12891.00
685.0010, 12478.00
686.1570, 12048.00
687.3130, 11641.00
688.4690, 11479.00
689.6250, 11127.00
690.7810, 10972.00
691.9370, 10832.00
693.0920, 10629.00
694.2470, 10437.00
695.4020, 10430.00
696.5570, 10196.00
697.7120, 10134.00
698.8670, 10026.00
700.0210, 10062.00
701.1750, 9897.000
702.3290, 9898.000
703.4830, 9885.000
704.6370, 9702.000
705.7910, 9739.000
706.9440, 9638.000
708.0970, 9621.000
709.2510, 9597.000
710.4030, 9675.000
711.5560, 9603.000
712.7090, 9501.000
713.8610, 9466.000
715.0140, 9382.743
716.1660, 9326.735
717.3180, 9278.000
718.4690, 9255.000
719.6210, 9265.000
720.7730, 9313.000
721.9240, 9145.000
723.0750, 9110.000
724.2260, 9157.000
725.3770, 9112.000
726.5270, 9199.000
727.6780, 9022.000
728.8280, 9113.000
729.9780, 9062.000
731.1280, 9041.000
732.2780, 9091.000
733.4280, 9153.000
734.5770, 9289.000
735.7260, 9265.000
736.8760, 9330.000
738.0250, 9386.000
739.1730, 9265.000
740.3220, 9374.000
741.4700, 9200.000
742.6190, 9274.000
743.7670, 9216.000
744.9150, 9269.000
746.0630, 9151.000
747.2100, 9200.000
748.3580, 9181.000
749.5050, 9187.000
750.6520, 9145.000
751.7990, 9251.000
752.9460, 9226.000
754.0930, 9203.000
755.2390, 9262.000
756.3860, 9225.000
757.5320, 9198.000
758.6780, 9193.000
759.8240, 9203.000
760.9690, 9247.000
762.1150, 9254.000
763.2600, 9295.938
764.4060, 9304.000
765.5510, 9370.334
766.6950, 9361.000
767.8400, 9385.000
768.9850, 9387.000
770.1290, 9355.000
771.2730, 9332.000
772.4170, 9308.000
773.5610, 9315.069
774.7050, 9375.000
775.8480, 9352.000
776.9920, 9381.000
778.1350, 9422.000
779.2780, 9428.000
780.4210, 9429.000
781.5640, 9442.006
782.7060, 9434.000
783.8490, 9419.000
784.9910, 9507.000
786.1330, 9452.000
787.2750, 9350.000
788.4170, 9482.000
789.5580, 9466.000
790.7000, 9566.000
791.8410, 9610.000
792.9820, 9683.000
794.1230, 9437.000
795.2640, 9603.000
796.4040, 9589.000
797.5450, 9739.000
798.6850, 9683.000
799.8250, 9766.000
800.9650, 9710.000
802.1050, 9718.000
803.2450, 9757.497
804.3840, 9822.241
805.5230, 9825.000
806.6630, 9890.584
807.8020, 9943.358
808.9400, 10009.00
810.0790, 10053.00
811.2170, 10146.00
812.3560, 10174.00
813.4940, 10299.00
814.6320, 10303.00
815.7700, 10392.00
816.9070, 10459.00
818.0450, 10745.00
819.1820, 10730.00
820.3190, 10722.00
821.4560, 10998.00
822.5930, 10929.00
823.7300, 11018.00
824.8670, 11011.00
826.0030, 11030.12
827.1390, 11046.00
828.2750, 11098.00
829.4110, 11186.00
830.5470, 11253.00
831.6820, 11242.00
832.8180, 11115.00
833.9530, 11297.00
835.0880, 11088.00
836.2230, 11236.00
837.3580, 11028.00
838.4920, 11092.00
839.6270, 10865.00
840.7610, 10903.00
841.8950, 10864.00
843.0290, 10977.00
844.1630, 11044.00
845.2960, 10854.00
846.4300, 11077.00
847.5630, 11094.00
848.6960, 11071.00
849.8290, 11255.00
850.9620, 11338.00
852.0940, 11470.00
853.2270, 11558.00
854.3590, 11584.00
855.4910, 11482.00
856.6230, 11611.00
857.7550, 11601.00
858.8870, 11509.00
860.0180, 11608.00
861.1500, 11553.00
862.2810, 11374.00
863.4120, 11344.00
864.5430, 11506.00
865.6730, 11265.00
866.8040, 11405.00
867.9340, 11251.00
869.0640, 11292.00
870.1940, 11356.00
871.3240, 11286.00
872.4540, 11240.00
873.5830, 11271.00
874.7130, 11205.00
875.8420, 11345.00
876.9710, 11238.00
878.1000, 11241.00
879.2290, 11384.00
880.3570, 11448.00
881.4860, 11310.00
882.6140, 11365.00
883.7420, 11303.00
884.8700, 11370.00
885.9980, 11464.00
887.1250, 11293.00
888.2530, 11335.00
889.3800, 11430.00
890.5070, 11594.00
891.6340, 11419.00
892.7610, 11449.00
893.8880, 11393.00
895.0140, 11330.00
896.1400, 11397.00
897.2670, 11337.00
898.3930, 11382.00
899.5180, 11340.00
900.6440, 11463.00
901.7700, 11390.00
902.8950, 11344.00
904.0200, 11311.00
905.1450, 11423.00
906.2700, 11347.00
907.3950, 11387.00
908.5190, 11536.00
909.6440, 11529.00
910.7680, 11646.00
911.8920, 11543.00
913.0160, 11609.00
914.1400, 11818.00
915.2630, 11691.00
916.3870, 11740.00
917.5100, 11859.00
918.6330, 11889.00
919.7560, 11934.00
920.8790, 11850.00
922.0010, 12004.00
923.1240, 11932.00
924.2460, 12067.00
925.3680, 11849.00
926.4900, 12101.00
927.6120, 12095.00
928.7340, 12015.00
929.8550, 12120.00
930.9760, 12172.00
932.0980, 12109.00
933.2190, 12197.00
934.3390, 12284.00
935.4600, 12153.00
936.5810, 12188.00
937.7010, 12173.00
938.8210, 12295.00
939.9410, 12400.00
941.0610, 12381.00
942.1810, 12374.00
943.3010, 12432.00
944.4200, 12408.00
945.5390, 12562.00
946.6580, 12547.00
947.7770, 12579.00
948.8960, 12650.00
950.0150, 12549.00
951.1330, 12414.00
952.2510, 12567.00
953.3690, 12563.00
954.4870, 12509.00
955.6050, 12565.00
956.7230, 12619.00
957.8400, 12622.00
958.9580, 12688.00
960.0750, 12705.90
961.1920, 12767.33
962.3090, 12752.00
963.4250, 12921.00
964.5420, 12943.00
965.6580, 13071.00
966.7740, 13238.00
967.8900, 13468.00
969.0060, 13636.00
970.1220, 13853.00
971.2380, 13891.00
972.3530, 14031.00
973.4680, 14478.00
974.5830, 14600.00
975.6980, 15180.00
976.8130, 15314.00
977.9280, 15796.00
979.0420, 16116.00
980.1560, 16787.00
981.2710, 17405.00
982.3850, 18007.00
983.4980, 18941.00
984.6120, 19771.00
985.7260, 20713.00
986.8390, 21994.00
987.9520, 23252.00
989.0650, 24549.00
990.1780, 25878.00
991.2910, 27581.00
992.4030, 28650.00
993.5160, 30101.00
994.6280, 31179.00
995.7400, 32169.00
996.8520, 33086.00
997.9640, 33752.00
999.0750, 34905.00
1000.187, 36191.00
1001.298, 37730.00
1002.409, 39630.00
1003.520, 41947.00
1004.631, 44287.00
1005.741, 47517.00
1006.852, 50449.00
1007.962, 53234.00
1009.072, 55506.00
1010.182, 57291.00
1011.292, 57369.00
1012.402, 56365.00
1013.511, 53768.00
1014.621, 49692.00
1015.730, 44852.00
1016.839, 40279.00
1017.948, 36477.00
1019.056, 31581.00
1020.165, 28328.00
1021.273, 25406.00
1022.382, 23192.00
1023.490, 21842.00
1024.598, 20487.00
1025.706, 19479.00
1026.813, 18894.00
1027.921, 18105.00
1029.028, 17578.00
1030.135, 17291.00
1031.242, 16847.00
1032.349, 16669.00
1033.456, 16234.00
1034.562, 16005.00
1035.668, 15852.00
1036.775, 15596.00
1037.881, 15354.00
1038.987, 15338.00
1040.092, 15240.00
1041.198, 15085.00
1042.303, 14989.00
1043.408, 14932.00
1044.514, 14758.01
1045.618, 14571.04
1046.723, 14433.00
1047.828, 14142.00
1048.932, 13913.00
1050.037, 13781.00
1051.141, 13541.00
1052.245, 13402.31
1053.349, 13321.00
1054.452, 13104.00
1055.556, 13012.00
1056.659, 12859.00
1057.762, 12769.00
1058.865, 12637.00
1059.968, 12545.00
1061.071, 12470.00
1062.174, 12356.45
1063.276, 12287.00
1064.378, 12160.00
1065.480, 12122.00
1066.582, 12022.00
1067.684, 11855.00
1068.786, 11994.00
1069.887, 11833.00
1070.988, 12234.66
1072.090, 11972.80
1073.191, 11939.23
1074.291, 11686.00
1075.392, 11660.00
1076.493, 11627.00
1077.593, 11527.00
1078.693, 11411.00
1079.793, 11620.00
1080.893, 11689.00
1081.993, 11674.00
1083.092, 11492.00
1084.192, 11374.00
1085.291, 11410.00
1086.390, 11519.00
1087.489, 11594.00
1088.588, 11457.00
1089.686, 11400.00
1090.785, 11332.00
1091.883, 11352.00
1092.981, 11344.00
1094.079, 11318.30
1095.177, 11313.00
1096.275, 11296.00
1097.373, 11252.00
1098.470, 11244.00
1099.567, 11235.00
1100.664, 11264.00
1101.761, 11300.00
1102.858, 11220.00
1103.954, 11087.00
1105.051, 11199.00
1106.147, 11310.00
1107.243, 11105.00
1108.339, 11133.00
1109.435, 11210.00
1110.531, 11132.00
1111.626, 11222.00
1112.722, 11099.00
1113.817, 11142.00
1114.912, 11231.00
1116.007, 11168.00
1117.101, 11159.00
1118.196, 11076.00
1119.290, 11300.00
1120.385, 11206.00
1121.479, 11281.00
1122.573, 11202.00
1123.666, 11223.00
1124.760, 11048.00
1125.853, 11093.00
1126.947, 11107.00
1128.040, 11145.00
1129.133, 10954.00
1130.226, 11009.00
1131.318, 10848.00
1132.411, 10945.00
1133.503, 10800.00
1134.596, 10771.00
1135.688, 10824.00
1136.780, 10737.00
1137.871, 10712.00
1138.963, 10717.00
1140.054, 10592.00
1141.146, 10648.00
1142.237, 10518.00
1143.328, 10539.00
1144.419, 10468.00
1145.509, 10520.00
1146.600, 10373.00
1147.690, 10484.00
1148.780, 10375.00
1149.870, 10545.00
1150.960, 10506.00
1152.050, 10341.00
1153.139, 10451.00
1154.229, 10391.00
1155.318, 10478.00
1156.407, 10473.00
1157.496, 10307.00
1158.585, 10396.00
1159.674, 10385.00
1160.762, 10477.00
1161.850, 10448.00
1162.939, 10429.00
1164.027, 10467.00
1165.114, 10289.00
1166.202, 10578.00
1167.290, 10300.00
1168.377, 10399.00
1169.464, 10454.00
1170.551, 10531.00
1171.638, 10435.00
1172.725, 10396.00
1173.812, 10455.00
1174.898, 10428.00
1175.984, 10375.00
1177.071, 10272.00
1178.157, 10298.07
1179.242, 10280.07
1180.328, 10341.00
1181.414, 10324.00
1182.499, 10397.00
1183.584, 10415.00
1184.669, 10338.00
1185.754, 10351.00
1186.839, 10356.00
1187.924, 10357.00
1189.008, 10356.15
1190.092, 10391.27
1191.177, 10363.00
1192.260, 10444.00
1193.344, 10494.00
1194.428, 10474.00
1195.512, 10652.00
1196.595, 10621.00
1197.678, 10648.42
1198.761, 10678.38
1199.844, 10625.00
1200.927, 10671.00
1202.009, 10626.00
1203.092, 10648.00
1204.174, 10615.00
1205.256, 10695.00
1206.338, 10762.00
1207.420, 10657.00
1208.502, 10574.00
1209.583, 10730.00
1210.665, 10714.00
1211.746, 10770.00
1212.827, 10652.00
1213.908, 10741.00
1214.988, 10741.00
1216.069, 10598.00
1217.149, 10713.00
1218.230, 10646.00
1219.310, 10685.00
1220.390, 10701.00
1221.470, 10726.00
1222.549, 10692.00
1223.629, 10743.00
1224.708, 10777.00
1225.787, 10698.00
1226.866, 10667.00
1227.945, 10765.00
1229.024, 10879.00
1230.103, 10869.00
1231.181, 10943.65
1232.259, 10964.00
1233.337, 10946.00
1234.415, 10910.00
1235.493, 10786.00
1236.571, 10804.00
1237.648, 10849.00
1238.726, 10845.57
1239.803, 10924.00
1240.880, 10953.00
1241.957, 10927.00
1243.034, 10985.00
1244.110, 10944.00
1245.187, 10987.00
1246.263, 10984.00
1247.339, 11041.00
1248.415, 11053.00
1249.491, 10943.00
1250.566, 10954.00
1251.642, 10899.00
1252.717, 11004.00
1253.793, 11086.00
1254.868, 10991.00
1255.943, 11023.00
1257.017, 10981.00
1258.092, 10922.00
1259.166, 11104.00
1260.241, 11028.00
1261.315, 11059.00
1262.389, 11167.00
1263.462, 11081.00
1264.536, 11159.00
1265.610, 11391.00
1266.683, 11248.68
1267.756, 11285.00
1268.829, 11172.00
1269.902, 11206.00
1270.975, 11262.00
1272.048, 11244.00
1273.120, 11212.00
1274.192, 11085.00
1275.264, 11248.00
1276.336, 11196.00
1277.408, 11349.00
1278.480, 11284.00
1279.551, 11265.00
1280.623, 11262.00
1281.694, 11285.00
1282.765, 11326.00
1283.836, 11330.27
1284.907, 11271.00
1285.977, 11357.00
1287.048, 11246.00
1288.118, 11232.00
1289.188, 11363.00
1290.258, 11254.00
1291.328, 11421.00
1292.398, 11319.00
1293.467, 11328.00
1294.537, 11418.00
1295.606, 11444.00
1296.675, 11468.00
1297.744, 11381.00
1298.813, 11543.00
1299.882, 11469.00
1300.950, 11506.04
1302.018, 11525.00
1303.086, 11499.00
1304.155, 11563.00
1305.222, 11476.00
1306.290, 11555.00
1307.358, 11562.00
1308.425, 11569.00
1309.492, 11432.00
1310.559, 11454.00
1311.626, 11478.00
1312.693, 11585.00
1313.760, 11693.00
1314.826, 11509.00
1315.893, 11592.00
1316.959, 11656.00
1318.025, 11485.00
1319.091, 11639.00
1320.157, 11517.00
1321.222, 11646.00
1322.288, 11576.00
1323.353, 11563.00
1324.418, 11581.00
1325.483, 11568.00
1326.548, 11747.00
1327.612, 11685.00
1328.677, 11526.00
1329.741, 11624.00
1330.806, 11504.00
1331.870, 11607.00
1332.934, 11554.00
1333.997, 11644.00
1335.061, 11640.84
1336.124, 11611.00
1337.188, 11654.00
1338.251, 11654.00
1339.314, 11671.00
1340.377, 11573.00
1341.439, 11726.00
1342.502, 11668.00
1343.564, 11807.00
1344.627, 11749.00
1345.689, 11576.00
1346.751, 11554.00
1347.813, 11684.00
1348.874, 11746.00
1349.936, 11653.00
1350.997, 11652.00
1352.058, 11608.00
1353.119, 11529.00
1354.180, 11532.00
1355.241, 11421.00
1356.301, 11668.00
1357.362, 11549.00
1358.422, 11478.00
1359.482, 11640.00
1360.542, 11575.00
1361.602, 11615.00
1362.662, 11512.00
1363.721, 11563.00
1364.781, 11589.00
1365.840, 11410.00
1366.899, 11599.00
1367.958, 11605.00
1369.017, 11413.00
1370.075, 11448.00
1371.134, 11471.00
1372.192, 11587.00
1373.250, 11580.00
1374.308, 11524.00
1375.366, 11462.00
1376.424, 11653.00
1377.481, 11422.00
1378.539, 11539.00
1379.596, 11541.00
1380.653, 11290.00
1381.710, 11557.00
1382.767, 11527.00
1383.824, 11536.00
1384.880, 11496.00
1385.937, 11540.00
1386.993, 11552.00
1388.049, 11559.00
1389.105, 11548.00
1390.161, 11603.00
1391.216, 11559.00
1392.272, 11609.00
1393.327, 11588.00
1394.382, 11551.00
1395.437, 11495.00
1396.492, 11517.00
1397.547, 11615.00
1398.601, 11524.00
1399.656, 11617.00
1400.710, 11639.00
1401.764, 11660.00
1402.818, 11586.00
1403.872, 11736.00
1404.925, 11620.00
1405.979, 11708.00
1407.032, 11548.00
1408.085, 11665.00
1409.139, 11694.00
1410.191, 11732.00
1411.244, 11738.00
1412.297, 11760.52
1413.349, 11770.86
1414.402, 11784.00
1415.454, 11798.00
1416.506, 11810.00
1417.558, 11855.00
1418.609, 11991.00
1419.661, 11697.00
1420.712, 11691.00
1421.764, 11796.00
1422.815, 11772.00
1423.866, 11818.00
1424.916, 11872.00
1425.967, 11898.16
1427.018, 11949.72
1428.068, 11960.00
1429.118, 12017.00
1430.168, 11967.00
1431.218, 11950.00
1432.268, 11965.00
1433.318, 12035.35
1434.367, 12248.00
1435.416, 12249.00
1436.465, 12320.00
1437.514, 12435.00
1438.563, 12304.00
1439.612, 12476.00
1440.661, 12418.00
1441.709, 12412.00
1442.757, 12394.00
1443.805, 12407.00
1444.853, 12446.00
1445.901, 12388.00
1446.949, 12509.00
1447.996, 12320.00
1449.044, 12429.00
1450.091, 12481.00
1451.138, 12390.02
1452.185, 12327.00
1453.232, 12298.00
1454.278, 12261.00
1455.325, 12181.00
1456.371, 12251.00
1457.417, 12231.00
1458.463, 12530.00
1459.509, 12462.83
1460.555, 12423.57
1461.601, 12401.00
1462.646, 12264.00
1463.691, 12024.00
1464.737, 12068.00
1465.782, 12015.00
1466.826, 12086.00
1467.871, 11958.00
1468.916, 11931.00
1469.960, 11914.00
1471.004, 11984.00
1472.048, 11850.00
1473.092, 11840.00
1474.136, 11803.00
1475.180, 11744.00
1476.223, 11774.00
1477.267, 11762.00
1478.310, 11822.00
1479.353, 11879.00
1480.396, 11697.00
1481.439, 11655.00
1482.481, 11799.00
1483.524, 11624.00
1484.566, 11644.00
1485.608, 11610.00
1486.650, 11713.00
1487.692, 11672.00
1488.734, 11858.00
1489.775, 11680.00
1490.817, 11611.00
1491.858, 11529.00
1492.899, 11722.00
1493.940, 11615.00
1494.981, 11723.00
1496.022, 11658.00
1497.062, 11803.00
1498.103, 11676.00
1499.143, 11616.00
1500.183, 11693.00
1501.223, 11568.00
1502.263, 11565.00
1503.302, 11748.00
1504.342, 11661.00
1505.381, 11641.00
1506.420, 11736.00
1507.459, 11725.00
1508.498, 11663.00
1509.537, 11725.00
1510.576, 11694.00
1511.614, 11705.00
1512.652, 11713.00
1513.691, 11784.00
1514.729, 11639.00
1515.767, 11698.00
1516.804, 11894.00
1517.842, 11789.00
1518.879, 11830.00
1519.917, 11678.00
1520.954, 11646.00
1521.991, 11846.00
1523.028, 11781.00
1524.064, 11835.00
1525.101, 11821.00
1526.137, 11801.00
1527.173, 11782.00
1528.210, 11829.00
1529.245, 11805.00
1530.281, 11821.00
1531.317, 11843.00
1532.352, 11731.00
1533.388, 11735.00
1534.423, 11774.00
1535.458, 11731.00
1536.493, 11790.00
1537.528, 11854.00
1538.562, 11992.00
1539.597, 11786.00
1540.631, 11778.00
1541.665, 11905.00
1542.700, 11839.00
1543.733, 11836.00
1544.767, 11997.00
1545.801, 12001.00
1546.834, 11923.00
1547.868, 11996.00
1548.901, 12149.00
1549.934, 11968.00
1550.967, 12141.00
1551.999, 12119.00
1553.032, 12265.00
1554.064, 12285.00
1555.097, 12373.00
1556.129, 12185.00
1557.161, 12133.00
1558.193, 12073.00
1559.224, 12166.00
1560.256, 11976.00
1561.287, 12203.00
1562.318, 12141.00
1563.350, 12073.00
1564.380, 12194.00
1565.411, 12060.00
1566.442, 12201.00
1567.472, 11983.00
1568.503, 12127.00
1569.533, 12118.00
1570.563, 12332.00
##END=



