##NAMES=Augite
##RRUFFID=R070231
##IDEAL CHEMISTRY=(Ca,Mg,Fe^2+^,Fe^3+^)_2_(Si,Al)_2_O_6_
##LOCALITY=Old Goose Creek Quarry, Leesburg, Loudoun County, Virginia, USA
##OWNER=RRUFF
##SOURCE=Michael Scott
##DESCRIPTION=Very dark grey-green prismatic crystals frozen in quartz
##STATUS=The identification of this mineral is confirmed by single-crystal X-ray diffraction and chemical analysis.
##URL=rruff.info/R070231
##MEASURED CHEMISTRY=(Mg_0.44_Fe_0.37_Ca_0.17_Ti_0.01_Mn_0.01_)_Σ=1_(Si_0.98_Al_0.02_)_Σ=1_O_3_
##PIN_ID=M00357
##ORIENTATION=Laser parallel to b* (0 1 0). Fiducial mark perpendicular to laser is parallel to c [0 0 1]
112.7420, 15951.00
113.9810, 16671.00
115.2200, 17838.00
116.4580, 18712.00
117.6970, 18675.00
118.9350, 18953.00
120.1730, 19087.00
121.4100, 19477.00
122.6480, 20204.00
123.8850, 20554.94
125.1230, 20963.40
126.3600, 21578.00
127.5960, 21626.00
128.8330, 21904.00
130.0700, 22187.00
131.3060, 21697.00
132.5420, 22060.00
133.7780, 22266.00
135.0140, 23192.00
136.2500, 21288.00
137.4850, 18977.00
138.7200, 19248.00
139.9550, 19456.00
141.1900, 19235.00
142.4250, 18813.00
143.6600, 18643.00
144.8940, 18770.00
146.1280, 19016.00
147.3620, 19211.00
148.5960, 19418.00
149.8300, 19210.00
151.0630, 19091.00
152.2960, 18922.00
153.5300, 18440.00
154.7620, 17930.00
155.9950, 17573.00
157.2280, 17164.00
158.4600, 16513.00
159.6920, 16144.00
160.9250, 16614.00
162.1560, 16200.00
163.3880, 16285.00
164.6200, 16405.00
165.8510, 16359.00
167.0820, 16476.00
168.3130, 16587.37
169.5440, 16801.00
170.7750, 16753.00
172.0050, 17045.00
173.2350, 16912.00
174.4650, 16984.47
175.6950, 17176.00
176.9250, 17056.00
178.1550, 17096.00
179.3840, 17285.00
180.6130, 17184.00
181.8420, 17030.00
183.0710, 16897.00
184.3000, 16795.00
185.5280, 16818.00
186.7570, 16928.00
187.9850, 16942.00
189.2130, 16807.00
190.4400, 16793.00
191.6680, 16743.79
192.8960, 16570.00
194.1230, 16678.00
195.3500, 16784.00
196.5770, 16808.00
197.8030, 16761.00
199.0300, 17045.00
200.2560, 17052.00
201.4830, 17199.00
202.7090, 17689.00
203.9340, 17469.00
205.1600, 16602.00
206.3860, 16106.00
207.6110, 16281.00
208.8360, 16151.00
210.0610, 16409.00
211.2860, 16673.00
212.5100, 16859.00
213.7350, 17048.00
214.9590, 17243.00
216.1830, 17532.00
217.4070, 17559.00
218.6310, 17680.00
219.8540, 17911.00
221.0780, 17825.00
222.3010, 17732.00
223.5240, 17605.00
224.7470, 17490.00
225.9690, 17497.00
227.1920, 17321.00
228.4140, 17143.00
229.6360, 16806.00
230.8580, 16664.00
232.0800, 16429.00
233.3020, 16117.00
234.5230, 15937.00
235.7440, 15797.00
236.9650, 15796.00
238.1860, 15399.00
239.4070, 15358.00
240.6280, 15244.00
241.8480, 15023.00
243.0680, 14978.00
244.2880, 14836.00
245.5080, 14834.00
246.7280, 14527.00
247.9470, 14545.00
249.1660, 14322.00
250.3860, 14543.00
251.6040, 14087.38
252.8230, 14208.09
254.0420, 14264.64
255.2600, 14260.50
256.4790, 14013.77
257.6970, 14080.28
258.9150, 14021.27
260.1320, 13957.13
261.3500, 14067.73
262.5670, 13856.32
263.7840, 13964.17
265.0010, 13944.58
266.2180, 13983.32
267.4350, 13895.75
268.6510, 13847.21
269.8680, 13925.00
271.0840, 13744.00
272.3000, 13797.00
273.5160, 13737.00
274.7310, 13839.00
275.9470, 13875.00
277.1620, 13907.38
278.3770, 13990.00
279.5920, 14011.00
280.8070, 14052.00
282.0210, 14097.00
283.2360, 14185.00
284.4500, 14427.00
285.6640, 14426.00
286.8780, 14564.57
288.0920, 14582.00
289.3050, 14720.00
290.5180, 14802.00
291.7320, 14840.00
292.9450, 15155.00
294.1570, 15374.00
295.3700, 15419.00
296.5830, 15523.00
297.7950, 15823.00
299.0070, 15957.00
300.2190, 16165.00
301.4310, 16429.00
302.6420, 16749.75
303.8540, 17209.00
305.0650, 17674.00
306.2760, 18237.51
307.4870, 19065.00
308.6980, 19375.00
309.9080, 19843.00
311.1190, 20408.00
312.3290, 21629.00
313.5390, 21831.00
314.7490, 22350.00
315.9580, 22652.00
317.1680, 23070.00
318.3770, 22976.00
319.5860, 22955.00
320.7950, 22879.80
322.0040, 22609.81
323.2130, 22407.00
324.4210, 21951.00
325.6290, 21609.00
326.8380, 21138.00
328.0460, 20624.00
329.2530, 20391.00
330.4610, 19805.00
331.6680, 20006.00
332.8760, 19574.00
334.0830, 19842.00
335.2890, 19297.00
336.4960, 19426.00
337.7030, 19405.00
338.9090, 19337.00
340.1150, 19503.00
341.3210, 19610.00
342.5270, 19716.00
343.7330, 19798.99
344.9380, 19757.00
346.1440, 19844.00
347.3490, 19972.00
348.5540, 19840.00
349.7590, 19884.00
350.9630, 19697.00
352.1680, 19598.14
353.3720, 19373.00
354.5760, 19313.00
355.7800, 19045.00
356.9840, 18897.00
358.1870, 18962.00
359.3910, 18690.00
360.5940, 18571.71
361.7970, 18152.00
363.0000, 18116.00
364.2030, 17942.00
365.4050, 17576.00
366.6080, 17779.00
367.8100, 17686.00
369.0120, 18051.00
370.2140, 18131.00
371.4150, 18162.00
372.6170, 18438.00
373.8180, 18734.00
375.0190, 19102.00
376.2200, 19541.00
377.4210, 20183.00
378.6220, 20605.00
379.8220, 20998.00
381.0230, 21604.00
382.2230, 21889.00
383.4230, 22295.00
384.6220, 22329.45
385.8220, 22108.00
387.0220, 22091.00
388.2210, 21713.00
389.4200, 21311.00
390.6190, 20440.00
391.8180, 19652.00
393.0160, 18930.00
394.2150, 18185.00
395.4130, 17442.00
396.6110, 16833.95
397.8090, 16058.00
399.0060, 15709.00
400.2040, 15217.00
401.4010, 14814.02
402.5980, 14678.00
403.7950, 14037.00
404.9920, 13890.00
406.1890, 13466.00
407.3860, 13439.00
408.5820, 13295.00
409.7780, 13133.00
410.9740, 13084.00
412.1700, 13038.00
413.3650, 13046.00
414.5610, 12980.00
415.7560, 13064.00
416.9510, 13038.00
418.1460, 12906.00
419.3410, 12782.00
420.5360, 12754.00
421.7300, 12783.00
422.9240, 12929.00
424.1180, 12769.00
425.3120, 12800.00
426.5060, 12767.68
427.7000, 12736.00
428.8930, 12698.00
430.0860, 12576.00
431.2790, 12589.00
432.4720, 12510.00
433.6650, 12487.00
434.8580, 12328.00
436.0500, 12280.00
437.2420, 12252.00
438.4340, 12131.00
439.6260, 12092.00
440.8180, 11984.00
442.0090, 11998.00
443.2010, 12044.00
444.3920, 11921.00
445.5830, 11865.00
446.7740, 11699.00
447.9640, 11847.00
449.1550, 11727.00
450.3450, 11709.00
451.5350, 11672.00
452.7250, 11635.06
453.9150, 11615.00
455.1050, 11605.00
456.2940, 11574.00
457.4830, 11546.00
458.6720, 11557.00
459.8610, 11531.00
461.0500, 11432.00
462.2390, 11458.00
463.4270, 11365.00
464.6150, 11341.74
465.8040, 11387.00
466.9910, 11314.00
468.1790, 11339.00
469.3670, 11407.00
470.5540, 11339.00
471.7410, 11381.00
472.9280, 11372.00
474.1150, 11373.00
475.3020, 11327.00
476.4890, 11362.00
477.6750, 11393.00
478.8610, 11434.00
480.0470, 11439.00
481.2330, 11507.00
482.4190, 11486.00
483.6040, 11628.00
484.7900, 11543.00
485.9750, 11592.00
487.1600, 11824.00
488.3450, 11771.00
489.5290, 11939.00
490.7140, 12087.00
491.8980, 12113.00
493.0820, 12208.00
494.2660, 12379.00
495.4500, 12540.00
496.6340, 12929.00
497.8170, 12971.38
499.0010, 13216.00
500.1840, 13237.00
501.3670, 13425.00
502.5500, 13669.00
503.7320, 13674.00
504.9150, 13745.00
506.0970, 13773.00
507.2790, 13758.00
508.4610, 13962.00
509.6430, 13809.00
510.8250, 13947.00
512.0060, 13919.00
513.1870, 14035.00
514.3680, 13946.00
515.5490, 14279.00
516.7300, 14248.51
517.9110, 14433.00
519.0910, 14443.00
520.2710, 14657.00
521.4510, 14906.00
522.6310, 15093.00
523.8110, 15195.00
524.9910, 15100.00
526.1700, 15404.00
527.3490, 15468.00
528.5280, 15639.00
529.7070, 15786.00
530.8860, 15659.00
532.0650, 15667.00
533.2430, 15449.00
534.4210, 15459.00
535.5990, 15391.00
536.7770, 15553.00
537.9550, 15321.00
539.1320, 15376.00
540.3100, 15201.00
541.4870, 15248.00
542.6640, 15134.00
543.8410, 14941.00
545.0170, 15014.00
546.1940, 15009.00
547.3700, 15121.00
548.5470, 15184.00
549.7230, 15295.00
550.8980, 15270.00
552.0740, 15333.00
553.2500, 15353.00
554.4250, 15257.00
555.6000, 15099.00
556.7750, 15018.99
557.9500, 14853.60
559.1250, 14721.00
560.2990, 14608.00
561.4730, 14421.00
562.6480, 14447.00
563.8220, 14210.00
564.9950, 14178.00
566.1690, 13985.00
567.3430, 13794.09
568.5160, 13754.00
569.6890, 13426.00
570.8620, 13260.00
572.0350, 13157.00
573.2070, 13042.00
574.3800, 12818.00
575.5520, 12755.00
576.7240, 12559.00
577.8960, 12311.00
579.0680, 12208.00
580.2400, 12217.00
581.4110, 12055.00
582.5830, 11912.00
583.7540, 11695.00
584.9250, 11561.00
586.0950, 11528.00
587.2660, 11566.00
588.4370, 11432.00
589.6070, 11349.00
590.7770, 11347.00
591.9470, 11282.00
593.1170, 11302.00
594.2860, 11371.00
595.4560, 11252.00
596.6250, 11348.00
597.7940, 11464.00
598.9630, 11435.00
600.1320, 11516.00
601.3000, 11585.00
602.4690, 11692.00
603.6370, 11741.00
604.8050, 11750.00
605.9730, 11889.00
607.1410, 11979.00
608.3090, 12166.00
609.4760, 12132.00
610.6430, 12297.00
611.8100, 12289.00
612.9770, 12376.00
614.1440, 12537.00
615.3110, 12631.00
616.4770, 12726.00
617.6430, 12908.00
618.8090, 13123.00
619.9750, 13083.00
621.1410, 13408.00
622.3070, 13657.00
623.4720, 13719.00
624.6370, 13810.00
625.8020, 14083.00
626.9670, 14343.00
628.1320, 14340.00
629.2970, 14793.00
630.4610, 15181.00
631.6250, 15212.00
632.7890, 15559.00
633.9530, 15974.00
635.1170, 16296.00
636.2810, 16913.00
637.4440, 17286.00
638.6070, 17723.00
639.7700, 18554.00
640.9330, 19045.00
642.0960, 20040.00
643.2590, 20856.18
644.4210, 21862.46
645.5830, 22824.00
646.7450, 24198.00
647.9070, 25448.00
649.0690, 26877.00
650.2310, 28586.00
651.3920, 30683.00
652.5530, 32947.00
653.7140, 36356.00
654.8750, 39368.00
656.0360, 42595.00
657.1970, 46173.00
658.3570, 49995.00
659.5170, 53173.00
660.6770, 56766.00
661.8370, 58862.00
662.9970, 59787.00
664.1570, 59894.00
665.3160, 58967.00
666.4750, 56669.00
667.6340, 53326.00
668.7930, 49761.00
669.9520, 45604.00
671.1110, 41605.00
672.2690, 37886.00
673.4270, 34445.00
674.5850, 31448.00
675.7430, 28941.00
676.9010, 26640.00
678.0590, 24777.00
679.2160, 23292.00
680.3730, 22193.00
681.5300, 21123.00
682.6870, 20148.00
683.8440, 19363.00
685.0010, 18855.00
686.1570, 18341.00
687.3130, 18009.00
688.4690, 17615.17
689.6250, 17211.00
690.7810, 17062.00
691.9370, 16909.00
693.0920, 16803.00
694.2470, 16578.00
695.4020, 16592.00
696.5570, 16498.00
697.7120, 16534.00
698.8670, 16588.00
700.0210, 16581.26
701.1750, 16571.00
702.3290, 16688.00
703.4830, 16752.00
704.6370, 16874.00
705.7910, 16919.00
706.9440, 17146.00
708.0970, 17157.00
709.2510, 17210.00
710.4030, 17350.00
711.5560, 17376.00
712.7090, 17578.00
713.8610, 17479.00
715.0140, 17576.00
716.1660, 17662.00
717.3180, 17470.00
718.4690, 17717.00
719.6210, 17677.00
720.7730, 17580.00
721.9240, 17701.00
723.0750, 17622.00
724.2260, 17536.00
725.3770, 17345.00
726.5270, 17274.00
727.6780, 17359.00
728.8280, 17191.00
729.9780, 17050.00
731.1280, 16967.00
732.2780, 16757.00
733.4280, 16706.00
734.5770, 16695.46
735.7260, 16445.13
736.8760, 16348.30
738.0250, 15984.00
739.1730, 16037.00
740.3220, 15730.00
741.4700, 15681.00
742.6190, 15462.00
743.7670, 15329.00
744.9150, 15019.00
746.0630, 14863.00
747.2100, 14842.00
748.3580, 14609.00
749.5050, 14553.00
750.6520, 14399.00
751.7990, 14294.00
752.9460, 14035.00
754.0930, 14087.00
755.2390, 14710.00
756.3860, 14681.00
757.5320, 14651.00
758.6780, 14035.00
759.8240, 13809.00
760.9690, 13667.00
762.1150, 13744.00
763.2600, 13585.00
764.4060, 13777.00
765.5510, 13774.00
766.6950, 13673.00
767.8400, 13695.00
768.9850, 13654.35
770.1290, 13693.00
771.2730, 13600.00
772.4170, 13642.00
773.5610, 13590.00
774.7050, 13602.00
775.8480, 13458.00
776.9920, 13553.00
778.1350, 13716.00
779.2780, 13489.00
780.4210, 13505.00
781.5640, 13654.00
782.7060, 13435.00
783.8490, 13406.00
784.9910, 13528.00
786.1330, 13586.00
787.2750, 13461.00
788.4170, 13523.00
789.5580, 13369.00
790.7000, 13438.00
791.8410, 13373.00
792.9820, 13425.00
794.1230, 13232.00
795.2640, 13330.00
796.4040, 13303.00
797.5450, 13263.00
798.6850, 13273.97
799.8250, 13221.29
800.9650, 13192.00
802.1050, 13150.00
803.2450, 13064.00
804.3840, 13042.00
805.5230, 13078.00
806.6630, 13030.00
807.8020, 13085.00
808.9400, 13017.00
810.0790, 13109.00
811.2170, 12931.00
812.3560, 13028.00
813.4940, 13150.00
814.6320, 13080.00
815.7700, 13133.00
816.9070, 13090.00
818.0450, 13170.00
819.1820, 13036.00
820.3190, 13126.00
821.4560, 12935.00
822.5930, 12871.00
823.7300, 12995.00
824.8670, 13048.00
826.0030, 13085.00
827.1390, 13056.00
828.2750, 13100.00
829.4110, 13190.00
830.5470, 13090.00
831.6820, 12994.00
832.8180, 12906.00
833.9530, 13040.00
835.0880, 12976.00
836.2230, 13004.00
837.3580, 13022.00
838.4920, 13024.00
839.6270, 12914.00
840.7610, 13184.00
841.8950, 13066.00
843.0290, 13216.00
844.1630, 13092.00
845.2960, 13367.00
846.4300, 13637.00
847.5630, 13818.00
848.6960, 14059.07
849.8290, 14354.00
850.9620, 14506.00
852.0940, 14793.00
853.2270, 15112.00
854.3590, 15286.00
855.4910, 15507.48
856.6230, 15716.00
857.7550, 15769.00
858.8870, 15743.00
860.0180, 15706.00
861.1500, 15408.00
862.2810, 15396.00
863.4120, 15199.00
864.5430, 14946.00
865.6730, 14985.00
866.8040, 14742.00
867.9340, 14684.00
869.0640, 14503.00
870.1940, 14412.00
871.3240, 14411.00
872.4540, 14388.00
873.5830, 14262.00
874.7130, 14351.00
875.8420, 14369.00
876.9710, 14444.00
878.1000, 14322.00
879.2290, 14335.00
880.3570, 14374.00
881.4860, 14379.02
882.6140, 14559.00
883.7420, 14515.00
884.8700, 14644.00
885.9980, 14758.00
887.1250, 14738.00
888.2530, 14753.00
889.3800, 14766.00
890.5070, 14834.00
891.6340, 14922.00
892.7610, 15032.00
893.8880, 14945.00
895.0140, 15110.00
896.1400, 15080.00
897.2670, 15015.00
898.3930, 15096.00
899.5180, 15032.00
900.6440, 15101.00
901.7700, 15227.00
902.8950, 15140.00
904.0200, 15296.00
905.1450, 15418.00
906.2700, 15377.00
907.3950, 15454.00
908.5190, 15532.00
909.6440, 15531.00
910.7680, 15725.00
911.8920, 15620.00
913.0160, 15963.00
914.1400, 16022.00
915.2630, 16478.00
916.3870, 16461.12
917.5100, 16580.96
918.6330, 16636.63
919.7560, 16631.59
920.8790, 16383.99
922.0010, 16449.63
923.1240, 16389.72
924.2460, 16324.69
925.3680, 16434.42
926.4900, 16222.11
927.6120, 16329.07
928.7340, 16308.58
929.8550, 16193.85
930.9760, 16030.00
932.0980, 16044.00
933.2190, 15862.00
934.3390, 15858.00
935.4600, 15705.00
936.5810, 15825.00
937.7010, 15665.00
938.8210, 15582.00
939.9410, 15554.00
941.0610, 15491.15
942.1810, 15475.00
943.3010, 15471.00
944.4200, 15541.00
945.5390, 15556.00
946.6580, 15830.00
947.7770, 15701.00
948.8960, 15771.00
950.0150, 15984.00
951.1330, 15899.00
952.2510, 15956.37
953.3690, 16046.00
954.4870, 15893.00
955.6050, 16018.00
956.7230, 15970.00
957.8400, 15934.00
958.9580, 16052.00
960.0750, 16127.00
961.1920, 16249.00
962.3090, 16286.10
963.4250, 16421.00
964.5420, 16403.00
965.6580, 16352.00
966.7740, 16502.00
967.8900, 16876.00
969.0060, 16865.00
970.1220, 17121.00
971.2380, 17418.00
972.3530, 17578.00
973.4680, 17999.00
974.5830, 17994.00
975.6980, 18460.00
976.8130, 18802.00
977.9280, 19546.00
979.0420, 19908.00
980.1560, 20527.00
981.2710, 21229.00
982.3850, 22163.00
983.4980, 23049.00
984.6120, 24051.00
985.7260, 25162.00
986.8390, 25966.00
987.9520, 26724.00
989.0650, 27560.00
990.1780, 28194.00
991.2910, 28412.83
992.4030, 28659.79
993.5160, 28644.00
994.6280, 28716.00
995.7400, 28931.00
996.8520, 29198.00
997.9640, 29959.00
999.0750, 30685.00
1000.187, 31567.00
1001.298, 33113.00
1002.409, 34667.00
1003.520, 36911.00
1004.631, 39153.00
1005.741, 41630.00
1006.852, 44655.00
1007.962, 47131.00
1009.072, 49251.00
1010.182, 50462.00
1011.292, 50869.00
1012.402, 50087.00
1013.511, 48097.00
1014.621, 45243.00
1015.730, 41382.00
1016.839, 37834.00
1017.948, 34457.00
1019.056, 31465.00
1020.165, 29288.00
1021.273, 27500.00
1022.382, 25784.00
1023.490, 24850.00
1024.598, 24170.00
1025.706, 23559.00
1026.813, 22975.26
1027.921, 22360.00
1029.028, 22177.00
1030.135, 21866.00
1031.242, 21746.00
1032.349, 21762.00
1033.456, 21628.00
1034.562, 21482.00
1035.668, 21322.00
1036.775, 21397.00
1037.881, 21376.00
1038.987, 21055.00
1040.092, 21022.00
1041.198, 20583.00
1042.303, 20571.00
1043.408, 20499.00
1044.514, 20258.00
1045.618, 19985.00
1046.723, 19623.00
1047.828, 19402.00
1048.932, 19005.00
1050.037, 18914.00
1051.141, 18679.00
1052.245, 18326.00
1053.349, 18291.00
1054.452, 17972.00
1055.556, 17836.00
1056.659, 17541.00
1057.762, 17328.00
1058.865, 17246.00
1059.968, 16928.00
1061.071, 16708.00
1062.174, 16627.00
1063.276, 16298.00
1064.378, 16130.00
1065.480, 16093.00
1066.582, 15745.00
1067.684, 15685.00
1068.786, 15392.00
1069.887, 15376.00
1070.988, 15314.00
1072.090, 15185.00
1073.191, 15090.00
1074.291, 14823.00
1075.392, 14759.00
1076.493, 14708.00
1077.593, 14792.00
1078.693, 14570.00
1079.793, 14526.00
1080.893, 14439.00
1081.993, 14258.00
1083.092, 14367.00
1084.192, 14097.00
1085.291, 14124.00
1086.390, 14134.00
1087.489, 13991.00
1088.588, 14032.00
1089.686, 13875.00
1090.785, 13859.00
1091.883, 13755.00
1092.981, 13663.19
1094.079, 13679.00
1095.177, 13535.00
1096.275, 13604.00
1097.373, 13651.00
1098.470, 13625.00
1099.567, 13459.00
1100.664, 13548.00
1101.761, 13257.00
1102.858, 13375.00
1103.954, 13296.00
1105.051, 12954.21
1106.147, 13148.02
1107.243, 13239.16
1108.339, 13233.16
1109.435, 12839.05
1110.531, 12946.11
1111.626, 12852.35
1112.722, 12750.33
1113.817, 12927.95
1114.912, 12590.33
1116.007, 12763.52
1117.101, 12732.85
1118.196, 12795.45
1119.290, 12656.01
1120.385, 12578.96
1121.479, 12704.08
1122.573, 12717.28
1123.666, 12554.61
1124.760, 12623.19
1125.853, 12278.58
1126.947, 12296.55
1128.040, 12471.00
1129.133, 12318.49
1130.226, 12390.80
1131.318, 12377.53
1132.411, 11975.11
1133.503, 12249.42
1134.596, 12231.05
1135.688, 11912.23
1136.780, 12163.36
1137.871, 11886.00
1138.963, 12258.00
1140.054, 11985.33
1141.146, 12132.00
1142.237, 11696.00
1143.328, 11680.00
1144.419, 11524.00
1145.509, 11724.00
1146.600, 11500.00
1147.690, 11684.00
1148.780, 11437.00
1149.870, 11535.00
1150.960, 11555.00
1152.050, 11606.00
1153.139, 11395.00
1154.229, 11454.00
1155.318, 11472.00
1156.407, 11370.00
1157.496, 11458.00
1158.585, 11488.00
1159.674, 11406.00
1160.762, 11451.20
1161.850, 11467.37
1162.939, 11442.00
1164.027, 11415.00
1165.114, 11448.00
1166.202, 11404.54
1167.290, 11230.00
1168.377, 11400.00
1169.464, 11302.00
1170.551, 11386.00
1171.638, 11306.00
1172.725, 11141.00
1173.812, 11236.00
1174.898, 11235.29
1175.984, 11234.83
1177.071, 11330.00
1178.157, 11330.00
1179.242, 11196.00
1180.328, 11267.00
1181.414, 11219.00
1182.499, 11312.00
1183.584, 11225.00
1184.669, 11257.00
1185.754, 11348.00
1186.839, 11101.00
1187.924, 11253.00
1189.008, 11212.00
1190.092, 11203.00
1191.177, 11313.00
1192.260, 11354.00
1193.344, 11360.00
1194.428, 11290.00
1195.512, 11257.00
1196.595, 11253.00
1197.678, 11296.00
1198.761, 11253.00
1199.844, 11306.00
1200.927, 11394.00
1202.009, 11318.00
1203.092, 11368.00
1204.174, 11389.00
1205.256, 11268.00
1206.338, 11400.00
1207.420, 11343.00
1208.502, 11374.00
1209.583, 11439.00
1210.665, 11394.00
1211.746, 11370.00
1212.827, 11369.00
1213.908, 11417.00
1214.988, 11266.00
1216.069, 11433.00
1217.149, 11446.00
1218.230, 11360.00
1219.310, 11456.00
1220.390, 11485.00
1221.470, 11394.00
1222.549, 11448.00
1223.629, 11478.00
1224.708, 11486.00
1225.787, 11523.18
1226.866, 11517.00
1227.945, 11530.00
1229.024, 11505.00
1230.103, 11425.00
1231.181, 11295.00
1232.259, 11360.00
1233.337, 11464.00
1234.415, 11513.00
1235.493, 11618.00
1236.571, 11599.50
1237.648, 11595.33
1238.726, 11506.00
1239.803, 11534.00
1240.880, 11509.63
1241.957, 11420.00
1243.034, 11501.00
1244.110, 11512.00
1245.187, 11495.00
1246.263, 11444.00
1247.339, 11587.00
1248.415, 11413.00
1249.491, 11595.00
1250.566, 11415.00
1251.642, 11421.00
1252.717, 11354.00
1253.793, 11456.00
1254.868, 11392.00
1255.943, 11411.49
1257.017, 11453.00
1258.092, 11423.00
1259.166, 11445.00
1260.241, 11460.00
1261.315, 11455.24
1262.389, 11454.82
1263.462, 11451.00
1264.536, 11451.00
1265.610, 11411.00
1266.683, 11450.00
1267.756, 11437.00
1268.829, 11446.74
1269.902, 11478.00
1270.975, 11486.00
1272.048, 11494.00
1273.120, 11541.00
1274.192, 11454.00
1275.264, 11492.00
1276.336, 11420.00
1277.408, 11450.00
1278.480, 11325.00
1279.551, 11483.00
1280.623, 11415.00
1281.694, 11624.00
1282.765, 11435.00
1283.836, 11500.00
1284.907, 11551.00
1285.977, 11473.00
1287.048, 11454.00
1288.118, 11446.00
1289.188, 11406.00
1290.258, 11474.00
1291.328, 11450.00
1292.398, 11433.00
1293.467, 11462.00
1294.537, 11456.63
1295.606, 11427.00
1296.675, 11508.00
1297.744, 11411.00
1298.813, 11471.00
1299.882, 11436.00
1300.950, 11507.00
1302.018, 11578.00
1303.086, 11467.00
1304.155, 11637.00
1305.222, 11582.00
1306.290, 11562.00
1307.358, 11459.00
1308.425, 11486.00
1309.492, 11619.00
1310.559, 11496.00
1311.626, 11590.00
1312.693, 11562.00
1313.760, 11508.00
1314.826, 11621.00
1315.893, 11705.00
1316.959, 11611.00
1318.025, 11827.00
1319.091, 11650.00
1320.157, 11698.00
1321.222, 11623.00
1322.288, 11589.00
1323.353, 11653.00
1324.418, 11798.00
1325.483, 11711.58
1326.548, 11711.00
1327.612, 11606.00
1328.677, 11676.00
1329.741, 11590.00
1330.806, 11573.00
1331.870, 11671.00
1332.934, 11745.00
1333.997, 11579.00
1335.061, 11680.00
1336.124, 11687.00
1337.188, 11655.00
1338.251, 11683.00
1339.314, 11670.00
1340.377, 11578.00
1341.439, 11702.00
1342.502, 11715.00
1343.564, 11611.00
1344.627, 11615.00
1345.689, 11562.00
1346.751, 11502.00
1347.813, 11709.00
1348.874, 11726.00
1349.936, 11749.00
1350.997, 11780.00
1352.058, 11602.00
1353.119, 11599.00
1354.180, 11690.00
1355.241, 11498.00
1356.301, 11620.00
1357.362, 11686.00
1358.422, 11705.00
1359.482, 11756.20
1360.542, 11769.00
1361.602, 11746.00
1362.662, 11769.00
1363.721, 11686.00
1364.781, 11742.00
1365.840, 11588.00
1366.899, 11659.00
1367.958, 11691.00
1369.017, 11699.00
1370.075, 11640.00
1371.134, 11654.00
1372.192, 11645.00
1373.250, 11721.00
1374.308, 11679.00
1375.366, 11693.84
1376.424, 11646.00
1377.481, 11682.00
1378.539, 11627.00
1379.596, 11627.00
1380.653, 11886.00
1381.710, 11681.00
1382.767, 11784.00
1383.824, 11639.00
1384.880, 11630.00
1385.937, 11627.00
1386.993, 11753.00
1388.049, 11687.00
1389.105, 11554.00
1390.161, 11822.00
1391.216, 11566.00
1392.272, 11644.00
1393.327, 11629.00
1394.382, 11728.00
1395.437, 11717.01
1396.492, 11708.00
1397.547, 11735.00
1398.601, 11706.00
1399.656, 11748.00
1400.710, 11758.00
1401.764, 11700.00
1402.818, 11762.00
1403.872, 11734.00
1404.925, 11784.00
1405.979, 11726.00
1407.032, 11771.00
1408.085, 11803.00
1409.139, 11647.00
1410.191, 11674.00
1411.244, 11734.00
1412.297, 11690.00
1413.349, 11834.00
1414.402, 11664.00
1415.454, 11684.00
1416.506, 11661.00
1417.558, 11752.00
1418.609, 11749.00
1419.661, 11741.00
1420.712, 11824.00
1421.764, 11853.00
1422.815, 11866.57
1423.866, 11887.89
1424.916, 11865.00
1425.967, 11880.00
1427.018, 11811.00
1428.068, 11799.00
1429.118, 11925.00
1430.168, 11730.00
1431.218, 11842.00
1432.268, 11840.00
1433.318, 11989.00
1434.367, 11934.00
1435.416, 11855.00
1436.465, 11856.00
1437.514, 11822.47
1438.563, 11845.61
1439.612, 11797.00
1440.661, 11920.00
1441.709, 11890.00
1442.757, 11910.00
1443.805, 11875.00
1444.853, 11910.00
1445.901, 11826.00
1446.949, 11908.00
1447.996, 11888.13
1449.044, 11820.00
1450.091, 11937.00
1451.138, 11838.00
1452.185, 11915.00
1453.232, 11970.00
1454.278, 11844.00
1455.325, 11912.00
1456.371, 11835.00
1457.417, 11825.00
1458.463, 11830.00
1459.509, 11865.00
1460.555, 11799.00
1461.601, 11914.00
1462.646, 11830.00
1463.691, 11853.00
1464.737, 11985.00
1465.782, 11835.00
1466.826, 11842.00
1467.871, 12003.00
1468.916, 11871.00
1469.960, 11947.00
1471.004, 12023.00
1472.048, 11965.00
1473.092, 11894.00
1474.136, 11874.00
1475.180, 11853.00
1476.223, 11950.00
1477.267, 11785.00
1478.310, 11888.00
1479.353, 11708.00
1480.396, 11975.00
1481.439, 11981.00
1482.481, 11805.00
1483.524, 11950.00
1484.566, 11982.00
1485.608, 11917.00
1486.650, 11943.00
1487.692, 11901.00
1488.734, 11902.00
1489.775, 11867.00
1490.817, 11862.00
1491.858, 11871.81
1492.899, 11872.00
1493.940, 11894.00
1494.981, 11943.00
1496.022, 11942.00
1497.062, 11949.00
1498.103, 12038.00
1499.143, 12154.00
1500.183, 11835.00
1501.223, 11956.00
1502.263, 12051.00
1503.302, 11791.00
1504.342, 11923.00
1505.381, 11916.00
1506.420, 11976.00
1507.459, 11917.00
1508.498, 12000.00
1509.537, 12119.00
1510.576, 12013.00
1511.614, 11891.00
1512.652, 11945.00
1513.691, 12002.00
1514.729, 12043.00
1515.767, 12052.00
1516.804, 11840.00
1517.842, 11988.00
1518.879, 12015.00
1519.917, 11912.00
1520.954, 12119.00
1521.991, 11991.00
1523.028, 11915.00
1524.064, 11901.00
1525.101, 11861.60
1526.137, 11859.63
1527.173, 11885.00
1528.210, 11936.00
1529.245, 11978.00
1530.281, 11993.09
1531.317, 11987.00
1532.352, 11997.00
1533.388, 11956.00
1534.423, 11894.00
1535.458, 11922.88
1536.493, 11917.57
1537.528, 11828.69
1538.562, 11977.87
1539.597, 12062.89
1540.631, 12087.20
1541.665, 11868.93
1542.700, 11963.89
1543.733, 11933.33
1544.767, 11897.61
1545.801, 12036.66
1546.834, 11853.67
1547.868, 11989.95
1548.901, 11998.78
1549.934, 12065.93
1550.967, 12006.79
1551.999, 11986.65
1553.032, 12092.86
1554.064, 12129.10
1555.097, 12055.42
1556.129, 12126.28
1557.161, 11938.88
1558.193, 11978.11
1559.224, 12115.11
1560.256, 12047.78
1561.287, 12120.94
1562.318, 12140.60
1563.350, 11917.06
1564.380, 12116.46
1565.411, 12151.00
1566.442, 12107.00
1567.472, 12069.00
1568.503, 12099.00
1569.533, 12128.00
1570.563, 12056.00
##END=



