##NAMES=Augite
##RRUFFID=R061108
##IDEAL CHEMISTRY=(Ca,Mg,Fe^2+^,Fe^3+^)_2_(Si,Al)_2_O_6_
##LOCALITY=Monti Rossi, near Mt. Etna, Sicily, Italy
##OWNER=RRUFF
##SOURCE=Michael Scott
##DESCRIPTION=Euhedral, short prismatic, black crystals in vesicular basalt.
##STATUS=The identification of this mineral is confirmed by single-crystal X-ray diffraction and chemical analysis.
##URL=rruff.info/R061108
##MEASURED CHEMISTRY=(Ca_0.86_Mg_0.74_Fe^2+^_0.18_Fe^3+^_0.08_Al_0.05_Ti_0.04_Na_0.04_Mn_0.01_)_Σ=2_(Si_1.83_Al_0.17_)_Σ=2_O_6_
##PIN_ID=L01906
##ORIENTATION=Laser parallel to (1 0 1). Fiducial mark perpendicular to laser is parallel to -b [0 -1 0]
161.1660, 15313.00
162.4000, 15557.00
163.6330, 15891.00
164.8670, 16194.00
166.1000, 16138.00
167.3340, 16133.00
168.5670, 16448.00
169.8000, 16601.00
171.0320, 16588.00
172.2650, 16606.00
173.4970, 16580.89
174.7290, 16606.00
175.9610, 16637.74
177.1930, 16749.00
178.4240, 16698.00
179.6550, 16725.00
180.8870, 16698.00
182.1170, 16597.00
183.3480, 16592.00
184.5790, 16620.00
185.8090, 16823.00
187.0390, 16858.00
188.2690, 16930.00
189.4990, 16880.00
190.7290, 17024.00
191.9580, 17049.00
193.1870, 16936.00
194.4160, 17218.00
195.6450, 17153.00
196.8740, 17030.00
198.1020, 17240.00
199.3310, 17425.00
200.5590, 17453.00
201.7870, 17616.00
203.0140, 17501.00
204.2420, 17066.00
205.4690, 16863.00
206.6960, 16935.00
207.9230, 16786.00
209.1500, 17037.00
210.3760, 17066.00
211.6030, 17057.00
212.8290, 17504.00
214.0550, 17696.00
215.2810, 17707.00
216.5060, 17956.00
217.7320, 17897.00
218.9570, 18129.00
220.1820, 18338.00
221.4070, 18505.00
222.6320, 18548.00
223.8560, 18494.00
225.0800, 18352.00
226.3040, 18336.00
227.5280, 18357.00
228.7520, 18391.00
229.9760, 18329.00
231.1990, 18145.00
232.4220, 17977.00
233.6450, 17747.00
234.8680, 17754.00
236.0910, 17639.00
237.3130, 17633.00
238.5350, 17591.00
239.7570, 17378.00
240.9790, 17576.00
242.2010, 17351.00
243.4220, 17421.00
244.6430, 17222.00
245.8640, 17176.36
247.0850, 17258.00
248.3060, 17173.00
249.5270, 17178.00
250.7470, 17167.71
251.9670, 17181.00
253.1870, 17104.00
254.4070, 17122.00
255.6260, 16987.98
256.8460, 17039.46
258.0650, 17053.91
259.2840, 17033.29
260.5030, 16872.59
261.7220, 16892.78
262.9400, 16840.50
264.1580, 16785.25
265.3760, 16830.93
266.5940, 16583.00
267.8120, 16596.00
269.0290, 16606.00
270.2470, 16770.00
271.4640, 16779.00
272.6810, 16906.00
273.8980, 16901.00
275.1140, 16986.00
276.3310, 16978.00
277.5470, 17063.28
278.7630, 17186.00
279.9790, 17298.00
281.1940, 17456.32
282.4100, 17672.00
283.6250, 17815.00
284.8400, 18015.00
286.0550, 18231.00
287.2700, 18436.00
288.4850, 18848.00
289.6990, 18956.00
290.9130, 19353.00
292.1270, 19709.00
293.3410, 19887.00
294.5540, 20421.00
295.7680, 20532.00
296.9810, 20870.00
298.1940, 21376.00
299.4070, 21533.00
300.6200, 21950.00
301.8320, 22445.00
303.0450, 22735.00
304.2570, 23444.00
305.4690, 23867.00
306.6800, 24541.00
307.8920, 25354.00
309.1030, 25897.00
310.3150, 26522.00
311.5260, 27597.00
312.7360, 28307.00
313.9470, 29536.00
315.1580, 30445.00
316.3680, 31504.00
317.5780, 32514.00
318.7880, 33423.00
319.9980, 34349.00
321.2070, 34903.00
322.4170, 35368.00
323.6260, 35677.00
324.8350, 35695.00
326.0430, 35627.00
327.2520, 35578.00
328.4610, 35085.00
329.6690, 34609.00
330.8770, 33932.00
332.0850, 33585.00
333.2920, 33109.00
334.5000, 32482.00
335.7070, 31799.00
336.9140, 31307.00
338.1210, 30999.00
339.3280, 30732.00
340.5350, 30491.00
341.7410, 30224.00
342.9470, 30505.00
344.1540, 30815.00
345.3590, 30684.87
346.5650, 31187.00
347.7710, 30785.00
348.9760, 31207.00
350.1810, 31458.00
351.3860, 31624.00
352.5910, 31912.00
353.7950, 31702.00
355.0000, 31523.00
356.2040, 31483.00
357.4080, 31387.00
358.6120, 31085.00
359.8150, 30758.00
361.0190, 30294.00
362.2220, 29989.00
363.4250, 29853.00
364.6280, 29104.00
365.8310, 28972.00
367.0340, 28694.00
368.2360, 28669.00
369.4380, 28679.00
370.6400, 28531.00
371.8420, 28690.00
373.0440, 28940.67
374.2450, 29255.00
375.4470, 29810.00
376.6480, 30391.00
377.8490, 31155.00
379.0490, 32159.00
380.2500, 33391.00
381.4500, 34435.00
382.6510, 35886.00
383.8510, 37153.00
385.0500, 38435.00
386.2500, 39651.00
387.4500, 40599.00
388.6490, 40864.00
389.8480, 41387.00
391.0470, 41175.00
392.2460, 40659.00
393.4440, 39101.00
394.6430, 36633.00
395.8410, 34879.00
397.0390, 32708.00
398.2370, 30770.00
399.4340, 28669.00
400.6320, 26782.00
401.8290, 25579.00
403.0260, 23888.00
404.2230, 22529.00
405.4200, 21519.00
406.6170, 20749.00
407.8130, 20151.00
409.0090, 19374.00
410.2050, 18990.00
411.4010, 18388.00
412.5970, 18109.00
413.7920, 17933.00
414.9880, 17706.00
416.1830, 17601.00
417.3780, 17355.00
418.5730, 17119.00
419.7670, 17046.00
420.9620, 17016.00
422.1560, 17030.00
423.3500, 16892.75
424.5440, 16809.50
425.7380, 16618.00
426.9310, 16592.00
428.1240, 16389.00
429.3180, 16395.00
430.5110, 16342.00
431.7030, 15991.00
432.8960, 15894.00
434.0890, 15992.00
435.2810, 15720.00
436.4730, 15822.00
437.6650, 15741.00
438.8570, 15630.00
440.0480, 15532.00
441.2390, 15289.00
442.4310, 15225.00
443.6220, 15334.00
444.8120, 15439.00
446.0030, 15304.00
447.1940, 15294.00
448.3840, 15287.00
449.5740, 15427.00
450.7640, 15395.00
451.9540, 15556.00
453.1430, 15671.00
454.3330, 15400.00
455.5220, 15567.00
456.7110, 15711.00
457.9000, 15996.00
459.0890, 15946.04
460.2770, 15835.00
461.4650, 15857.00
462.6540, 15954.00
463.8420, 15858.00
465.0290, 15881.00
466.2170, 15737.00
467.4050, 15970.00
468.5920, 16090.00
469.7790, 15897.00
470.9660, 15757.00
472.1530, 15790.00
473.3390, 15700.00
474.5250, 15752.00
475.7120, 15729.00
476.8980, 15737.19
478.0840, 15700.00
479.2690, 15780.00
480.4550, 15804.00
481.6400, 15822.00
482.8250, 15753.00
484.0100, 15877.00
485.1950, 15763.00
486.3800, 15807.00
487.5640, 15820.00
488.7480, 15852.00
489.9320, 15883.00
491.1160, 15742.00
492.3000, 15736.00
493.4840, 15716.00
494.6670, 15863.00
495.8500, 15780.00
497.0330, 15847.00
498.2160, 15881.00
499.3990, 15948.00
500.5810, 16070.00
501.7630, 16153.00
502.9460, 16226.00
504.1280, 16356.55
505.3090, 16362.00
506.4910, 16583.00
507.6720, 16670.00
508.8540, 16752.00
510.0350, 16967.00
511.2160, 17042.00
512.3960, 17326.00
513.5770, 17617.00
514.7570, 17727.00
515.9380, 17818.00
517.1180, 18317.00
518.2970, 18480.00
519.4770, 18769.00
520.6570, 18874.00
521.8360, 19135.00
523.0150, 19561.00
524.1940, 19738.00
525.3730, 19988.00
526.5510, 20065.00
527.7300, 20295.00
528.9080, 20412.00
530.0860, 20495.34
531.2640, 20562.49
532.4420, 20575.00
533.6200, 20523.00
534.7970, 20406.00
535.9740, 20245.00
537.1510, 20184.00
538.3280, 20023.00
539.5050, 19850.00
540.6810, 19706.00
541.8580, 19490.00
543.0340, 19299.00
544.2100, 19224.00
545.3860, 19023.76
546.5610, 18803.00
547.7370, 18804.00
548.9120, 18695.00
550.0870, 18761.00
551.2620, 18615.00
552.4370, 18553.00
553.6120, 18326.00
554.7860, 18263.00
555.9600, 18333.00
557.1340, 17988.00
558.3080, 18151.00
559.4820, 17964.00
560.6560, 17833.00
561.8290, 17789.00
563.0020, 17448.00
564.1750, 17480.00
565.3480, 17162.00
566.5210, 16971.00
567.6930, 17084.00
568.8660, 16901.00
570.0380, 16568.00
571.2100, 16389.00
572.3820, 16159.98
573.5530, 16078.00
574.7250, 15759.00
575.8960, 15569.00
577.0670, 15406.00
578.2380, 15042.00
579.4090, 14843.22
580.5800, 14544.00
581.7500, 14305.00
582.9210, 13976.00
584.0910, 13700.00
585.2610, 13427.00
586.4300, 13212.00
587.6000, 13025.00
588.7690, 12759.00
589.9390, 12617.53
591.1080, 12400.00
592.2770, 12273.00
593.4450, 12113.00
594.6140, 11869.00
595.7820, 11719.00
596.9500, 11694.00
598.1190, 11546.00
599.2860, 11497.00
600.4540, 11505.40
601.6220, 11492.52
602.7890, 11568.00
603.9560, 11565.00
605.1230, 11626.00
606.2900, 11622.00
607.4570, 11737.00
608.6230, 11819.00
609.7890, 11728.00
610.9560, 12023.00
612.1220, 11951.00
613.2870, 11838.00
614.4530, 11943.00
615.6180, 12025.00
616.7840, 12021.00
617.9490, 12083.00
619.1140, 11912.00
620.2790, 12096.00
621.4430, 12134.00
622.6080, 12317.00
623.7720, 12338.00
624.9360, 12358.00
626.1000, 12685.00
627.2640, 12603.00
628.4270, 12896.00
629.5910, 12964.00
630.7540, 13248.00
631.9170, 13377.00
633.0800, 13404.00
634.2430, 13745.00
635.4050, 13988.00
636.5680, 14233.00
637.7300, 14608.00
638.8920, 15003.00
640.0540, 15438.00
641.2150, 16048.00
642.3770, 16413.00
643.5380, 16986.00
644.7000, 17734.00
645.8610, 18598.00
647.0210, 19355.00
648.1820, 20656.00
649.3430, 22134.00
650.5030, 23423.00
651.6630, 25212.00
652.8230, 27089.00
653.9830, 29179.00
655.1430, 31679.76
656.3020, 34397.00
657.4620, 37154.00
658.6210, 40162.00
659.7800, 43137.00
660.9390, 45924.00
662.0970, 48507.00
663.2560, 49534.00
664.4140, 49771.00
665.5720, 49037.00
666.7300, 47634.00
667.8880, 44796.00
669.0460, 42269.00
670.2030, 38915.00
671.3600, 35848.00
672.5180, 33089.00
673.6740, 30337.00
674.8310, 28003.07
675.9880, 25833.00
677.1440, 23946.00
678.3010, 22410.00
679.4570, 21062.00
680.6130, 19946.00
681.7690, 18995.00
682.9240, 17934.00
684.0800, 17405.00
685.2350, 16764.00
686.3900, 16275.00
687.5450, 15836.00
688.7000, 15361.00
689.8540, 14952.00
691.0090, 14748.00
692.1630, 14409.00
693.3170, 14173.00
694.4710, 13989.00
695.6250, 13833.00
696.7780, 13847.00
697.9320, 13473.00
699.0850, 13301.00
700.2380, 13312.00
701.3910, 13319.00
702.5440, 13127.00
703.6970, 13233.00
704.8490, 13068.00
706.0010, 12892.00
707.1530, 12953.00
708.3050, 12805.00
709.4570, 12862.00
710.6090, 12627.00
711.7600, 12696.00
712.9110, 12533.68
714.0620, 12564.00
715.2130, 12301.00
716.3640, 12267.00
717.5150, 12252.00
718.6650, 12322.00
719.8150, 12197.00
720.9650, 12266.00
722.1150, 12071.00
723.2650, 12102.00
724.4150, 12232.00
725.5640, 12212.00
726.7130, 12057.00
727.8630, 12189.00
729.0110, 12156.00
730.1600, 12185.00
731.3090, 12217.00
732.4570, 12235.00
733.6060, 12291.00
734.7540, 12356.11
735.9020, 12409.95
737.0490, 12543.40
738.1970, 12706.00
739.3440, 12863.00
740.4920, 13149.00
741.6390, 13257.00
742.7860, 13312.00
743.9320, 13557.00
745.0790, 13874.00
746.2250, 13969.00
747.3720, 14340.00
748.5180, 14511.00
749.6640, 14897.00
750.8100, 15113.00
751.9550, 15282.00
753.1010, 15599.00
754.2460, 15943.00
755.3910, 16092.00
756.5360, 16421.00
757.6810, 16669.00
758.8250, 17085.00
759.9700, 17349.00
761.1140, 17388.00
762.2580, 17743.00
763.4020, 17939.00
764.5460, 18050.00
765.6900, 18348.00
766.8330, 18262.00
767.9760, 18512.00
769.1200, 18365.00
770.2620, 18600.00
771.4050, 18306.00
772.5480, 18482.00
773.6900, 18167.00
774.8330, 18383.00
775.9750, 18332.00
777.1170, 17960.00
778.2590, 17821.00
779.4000, 17774.00
780.5420, 17498.00
781.6830, 17408.00
782.8240, 17423.00
783.9650, 17279.00
785.1060, 16984.00
786.2470, 16929.00
787.3870, 16843.00
788.5280, 16935.00
789.6680, 16736.00
790.8080, 16867.00
791.9480, 16704.00
793.0870, 16702.00
794.2270, 16843.00
795.3660, 16730.00
796.5060, 16669.00
797.6450, 16848.00
798.7830, 17031.00
799.9220, 17093.00
801.0610, 17149.00
802.1990, 17092.00
803.3370, 17244.41
804.4750, 17400.00
805.6130, 17456.00
806.7510, 17689.00
807.8890, 17740.00
809.0260, 17905.00
810.1630, 18014.00
811.3000, 18012.00
812.4370, 18253.00
813.5740, 18292.00
814.7110, 18324.00
815.8470, 18320.00
816.9830, 18327.00
818.1190, 18501.00
819.2550, 18334.00
820.3910, 18378.00
821.5270, 18459.00
822.6620, 18219.00
823.7970, 18259.00
824.9330, 18018.00
826.0670, 17990.00
827.2020, 17890.00
828.3370, 17728.00
829.4710, 17818.00
830.6060, 17660.00
831.7400, 17613.00
832.8740, 17521.00
834.0080, 17440.00
835.1410, 17579.00
836.2750, 17329.00
837.4080, 17561.00
838.5410, 17532.00
839.6740, 17653.00
840.8070, 17615.00
841.9400, 17755.09
843.0730, 17963.00
844.2050, 18059.00
845.3370, 18320.00
846.4690, 18561.00
847.6010, 18845.00
848.7330, 19089.00
849.8640, 19635.00
850.9960, 19891.00
852.1270, 20248.00
853.2580, 20557.00
854.3890, 20926.00
855.5200, 21207.00
856.6500, 21314.00
857.7810, 21486.00
858.9110, 21565.83
860.0410, 21615.00
861.1710, 21587.00
862.3010, 21522.00
863.4310, 21470.72
864.5600, 21352.01
865.6900, 21260.00
866.8190, 21090.00
867.9480, 20928.00
869.0770, 20802.00
870.2050, 20682.00
871.3340, 20585.00
872.4620, 20482.00
873.5900, 20474.00
874.7180, 20376.00
875.8460, 20328.00
876.9740, 20573.00
878.1010, 20360.00
879.2290, 20375.00
880.3560, 20189.00
881.4830, 20270.00
882.6100, 20310.00
883.7370, 20032.00
884.8630, 20290.00
885.9900, 20171.00
887.1160, 20085.00
888.2420, 20196.00
889.3680, 20208.00
890.4940, 20310.00
891.6200, 20216.00
892.7450, 20116.00
893.8700, 20222.00
894.9960, 19902.00
896.1210, 20163.00
897.2460, 20132.00
898.3700, 20232.00
899.4950, 19922.00
900.6190, 20197.00
901.7430, 20000.00
902.8670, 20088.00
903.9910, 19993.00
905.1150, 20229.00
906.2390, 20059.00
907.3620, 20266.00
908.4850, 20191.00
909.6080, 20217.00
910.7310, 20261.00
911.8540, 20332.00
912.9770, 20468.00
914.0990, 20455.00
915.2210, 20454.00
916.3440, 20608.00
917.4660, 20684.00
918.5870, 20719.00
919.7090, 20784.00
920.8310, 20923.00
921.9520, 20907.00
923.0730, 21051.00
924.1940, 20953.00
925.3150, 20788.00
926.4360, 21068.00
927.5560, 20842.00
928.6770, 20988.00
929.7970, 20774.00
930.9170, 20695.00
932.0370, 20930.00
933.1570, 20703.00
934.2760, 20593.00
935.3960, 20639.00
936.5150, 20252.00
937.6340, 20326.00
938.7530, 20375.00
939.8720, 20210.00
940.9910, 20104.00
942.1090, 19995.00
943.2280, 20202.00
944.3460, 20143.00
945.4640, 19952.00
946.5820, 20245.00
947.6990, 20082.00
948.8170, 20130.00
949.9340, 20090.00
951.0520, 20208.00
952.1690, 20218.00
953.2860, 20438.00
954.4030, 20472.00
955.5190, 20539.00
956.6360, 20576.00
957.7520, 20920.00
958.8680, 20877.00
959.9840, 21041.00
961.1000, 20883.00
962.2160, 21182.00
963.3310, 21415.00
964.4470, 21401.00
965.5620, 21476.00
966.6770, 21702.00
967.7920, 21982.00
968.9060, 22166.00
970.0210, 22212.00
971.1360, 22479.00
972.2500, 22637.42
973.3640, 22720.00
974.4780, 23038.00
975.5920, 23206.00
976.7050, 23368.00
977.8190, 23685.00
978.9320, 23939.00
980.0450, 24232.00
981.1580, 24405.00
982.2710, 24867.00
983.3840, 25180.00
984.4970, 26002.00
985.6090, 26306.00
986.7210, 27012.00
987.8330, 27759.00
988.9450, 28353.00
990.0570, 29316.00
991.1690, 30212.00
992.2800, 31489.00
993.3920, 32884.00
994.5030, 34271.00
995.6140, 35767.00
996.7250, 37960.00
997.8350, 39661.00
998.9460, 41524.00
1000.056, 44055.00
1001.167, 46330.00
1002.277, 48469.00
1003.387, 50628.00
1004.496, 52122.00
1005.606, 53722.00
1006.715, 54207.00
1007.825, 54281.00
1008.934, 53441.00
1010.043, 52405.00
1011.152, 49805.00
1012.260, 47251.00
1013.369, 44140.00
1014.477, 40763.00
1015.586, 37434.00
1016.694, 34677.00
1017.802, 32432.00
1018.909, 30202.00
1020.017, 28656.00
1021.124, 27219.00
1022.232, 25922.00
1023.339, 25154.00
1024.446, 24334.00
1025.553, 23424.00
1026.659, 23193.00
1027.766, 22547.00
1028.872, 22251.00
1029.979, 22284.00
1031.085, 22052.00
1032.191, 21930.00
1033.296, 21464.00
1034.402, 21462.00
1035.507, 21257.00
1036.613, 20942.00
1037.718, 20905.00
1038.823, 20734.00
1039.928, 20514.00
1041.032, 20249.00
1042.137, 20152.00
1043.241, 19970.00
1044.346, 19686.52
1045.450, 19506.49
1046.554, 19112.00
1047.657, 18978.00
1048.761, 18683.00
1049.864, 18335.00
1050.968, 18074.00
1052.071, 17806.00
1053.174, 17609.48
1054.277, 17408.32
1055.379, 17278.00
1056.482, 17081.00
1057.584, 16896.00
1058.687, 16752.00
1059.789, 16680.00
1060.891, 16441.00
1061.992, 16419.00
1063.094, 16212.00
1064.196, 15980.00
1065.297, 16090.00
1066.398, 15715.00
1067.499, 15750.00
1068.600, 15645.00
1069.701, 15577.00
1070.801, 15565.00
1071.902, 15548.00
1073.002, 15536.00
1074.102, 15468.52
1075.202, 15410.00
1076.302, 15296.00
1077.402, 15236.00
1078.501, 15097.00
1079.600, 15026.00
1080.700, 15003.90
1081.799, 14958.43
1082.898, 14973.00
1083.996, 14945.00
1085.095, 14898.00
1086.193, 14865.00
1087.292, 14786.00
1088.390, 14670.00
1089.488, 14596.00
1090.586, 14750.00
1091.683, 14731.00
1092.781, 14513.00
1093.878, 14616.00
1094.975, 14414.00
1096.073, 14329.00
1097.169, 14358.00
1098.266, 14459.00
1099.363, 14282.00
1100.459, 14328.00
1101.556, 14316.00
1102.652, 14190.00
1103.748, 14041.00
1104.844, 14117.00
1105.940, 13903.00
1107.035, 13737.00
1108.131, 14077.00
1109.226, 13762.00
1110.321, 13942.00
1111.416, 13676.00
1112.511, 13532.00
1113.605, 13499.00
1114.700, 13377.21
1115.794, 13448.00
1116.889, 13349.00
1117.983, 13253.00
1119.077, 13333.00
1120.170, 13046.00
1121.264, 13067.00
1122.357, 12976.00
1123.451, 12859.00
1124.544, 12771.00
1125.637, 12577.00
1126.730, 12440.00
1127.823, 12219.00
1128.915, 12198.00
1130.008, 12038.00
1131.100, 11774.00
1132.192, 11774.00
1133.284, 11594.00
1134.376, 11483.00
1135.467, 11418.00
1136.559, 11390.00
1137.650, 11212.00
1138.742, 11101.00
1139.833, 10952.00
1140.924, 10950.00
1142.014, 10986.00
1143.105, 10677.00
1144.195, 10646.00
1145.286, 10771.00
1146.376, 10660.00
1147.466, 10436.00
1148.556, 10390.00
1149.646, 10380.00
1150.735, 10392.00
1151.825, 10341.00
1152.914, 10361.00
1154.003, 10338.03
1155.092, 10302.48
1156.181, 10301.00
1157.270, 10230.00
1158.358, 10188.00
1159.447, 10145.00
1160.535, 10076.00
1161.623, 10112.00
1162.711, 10107.00
1163.799, 10122.00
1164.886, 10003.00
1165.974, 9996.000
1167.061, 10045.00
1168.148, 9952.000
1169.235, 10097.00
1170.322, 10024.00
1171.409, 9911.000
1172.496, 10113.00
1173.582, 9998.000
1174.669, 10015.00
1175.755, 10009.00
1176.841, 10010.00
1177.927, 9936.000
1179.012, 9822.000
1180.098, 10016.00
1181.183, 10102.00
1182.269, 9886.000
1183.354, 9949.000
1184.439, 9915.000
1185.524, 10050.00
1186.608, 10035.00
1187.693, 9978.000
1188.777, 9956.000
1189.862, 9899.000
1190.946, 9896.000
1192.030, 9978.000
1193.113, 9797.000
1194.197, 9980.000
1195.281, 9847.000
1196.364, 9810.000
1197.447, 9782.000
1198.530, 9851.000
1199.613, 9744.000
1200.696, 9858.000
1201.779, 9910.000
1202.861, 9893.000
1203.944, 9935.000
1205.026, 9848.000
1206.108, 9829.000
1207.190, 9871.000
1208.271, 9910.000
1209.353, 9857.000
1210.435, 9899.000
1211.516, 9921.000
1212.597, 9811.000
1213.678, 9904.000
1214.759, 9868.000
1215.840, 9859.000
1216.920, 9776.000
1218.001, 9760.000
1219.081, 9926.000
1220.161, 9788.000
1221.241, 9975.000
1222.321, 9879.000
1223.401, 9801.000
1224.480, 9819.000
1225.560, 9835.000
1226.639, 9937.000
1227.718, 9851.019
1228.797, 9987.000
1229.876, 9733.000
1230.955, 9851.000
1232.033, 9845.000
1233.112, 9937.000
1234.190, 9916.805
1235.268, 9900.000
1236.346, 9839.000
1237.424, 9855.000
1238.501, 9769.000
1239.579, 9845.000
1240.656, 9830.000
1241.733, 9868.000
1242.811, 9812.000
1243.888, 9848.000
1244.964, 9813.000
1246.041, 9866.000
1247.117, 9789.000
1248.194, 9917.000
1249.270, 9818.000
1250.346, 9818.000
1251.422, 9722.000
1252.498, 9721.000
1253.573, 9834.000
1254.649, 9754.000
1255.724, 9777.000
1256.800, 9841.000
1257.875, 9789.000
1258.950, 9743.000
1260.024, 9817.000
1261.099, 9789.000
1262.173, 9882.000
1263.248, 9817.000
1264.322, 9711.000
1265.396, 9739.000
1266.470, 9736.000
1267.544, 9765.000
1268.617, 9753.000
1269.691, 9793.000
1270.764, 9818.000
1271.837, 9768.000
1272.910, 9712.000
1273.983, 9870.000
1275.056, 9769.000
1276.129, 9802.000
1277.201, 9713.000
1278.273, 9814.000
1279.346, 9784.000
1280.418, 9746.000
1281.489, 9745.000
1282.561, 9765.000
1283.633, 9911.000
1284.704, 9752.000
1285.776, 9670.000
1286.847, 9867.000
1287.918, 9802.000
1288.989, 9790.000
1290.059, 9851.000
1291.130, 9813.241
1292.200, 9804.000
1293.271, 9784.000
1294.341, 9858.000
1295.411, 9771.000
1296.481, 9830.000
1297.551, 9789.000
1298.620, 9867.000
1299.690, 9894.000
1300.759, 9777.000
1301.828, 9750.000
1302.897, 9858.000
1303.966, 9765.000
1305.035, 9818.000
1306.103, 9863.000
1307.172, 9744.000
1308.240, 9962.000
1309.308, 9817.000
1310.376, 9715.000
1311.444, 9897.000
1312.512, 9816.000
1313.580, 9805.000
1314.647, 9810.000
1315.714, 9825.099
1316.781, 9839.113
1317.848, 9913.000
1318.915, 9877.000
1319.982, 9898.000
1321.049, 9894.000
1322.115, 9971.000
1323.181, 9813.000
1324.248, 9936.000
1325.314, 9916.000
1326.380, 9763.000
1327.445, 9940.000
1328.511, 9974.000
1329.576, 9903.000
1330.642, 9863.000
1331.707, 9786.000
1332.772, 9901.000
1333.837, 9943.000
1334.902, 9903.000
1335.966, 9912.000
1337.031, 9916.000
1338.095, 9798.000
1339.159, 9886.000
1340.223, 9821.000
1341.287, 9834.000
1342.351, 10040.00
1343.415, 9851.000
1344.478, 9954.000
1345.541, 9974.000
1346.605, 9898.000
1347.668, 9920.000
1348.731, 9863.000
1349.793, 9839.000
1350.856, 9846.000
1351.918, 9847.000
1352.981, 9891.000
1354.043, 9836.000
1355.105, 9931.000
1356.167, 9935.000
1357.229, 9775.000
1358.290, 9865.000
1359.352, 9903.000
1360.413, 9772.000
1361.475, 9937.000
1362.536, 9900.000
1363.597, 9912.000
1364.657, 9847.000
1365.718, 9865.000
1366.779, 9804.000
1367.839, 9839.000
1368.899, 9762.000
1369.959, 9890.000
1371.019, 9756.000
1372.079, 9887.000
1373.139, 9664.000
1374.198, 9896.000
1375.258, 9838.000
1376.317, 9746.000
1377.376, 9912.000
1378.435, 9810.000
1379.494, 9821.000
1380.553, 9814.000
1381.611, 9886.000
1382.670, 9802.000
1383.728, 9753.000
1384.786, 9893.000
1385.844, 9756.000
1386.902, 9833.000
1387.960, 9813.000
1389.017, 9818.000
1390.075, 9837.000
1391.132, 9878.000
1392.189, 9801.000
1393.246, 9849.000
1394.303, 9710.000
1395.360, 9754.842
1396.417, 9748.617
1397.473, 9768.000
1398.529, 9793.000
1399.585, 9756.000
1400.642, 9799.000
1401.697, 9751.000
1402.753, 9810.000
1403.809, 9680.000
1404.864, 9731.873
1405.920, 9801.000
1406.975, 9754.000
1408.030, 9831.000
1409.085, 9823.000
1410.140, 9725.000
1411.194, 9793.000
1412.249, 9797.000
1413.303, 9827.000
1414.358, 9818.000
1415.412, 9833.376
1416.466, 9785.000
1417.520, 9811.000
1418.573, 9823.000
1419.627, 9731.000
1420.680, 9787.000
1421.733, 9731.000
1422.787, 9709.267
1423.840, 9728.000
1424.892, 9664.000
1425.945, 9808.000
1426.998, 9804.000
1428.050, 9836.000
1429.103, 9682.000
1430.155, 9715.000
1431.207, 9695.000
1432.259, 9739.000
1433.310, 9833.000
1434.362, 9783.000
1435.414, 9672.000
1436.465, 9783.000
1437.516, 9753.000
1438.567, 9649.000
1439.618, 9785.000
1440.669, 9891.000
1441.720, 9667.000
1442.770, 9774.000
1443.820, 9825.000
1444.871, 9750.000
1445.921, 9814.000
1446.971, 9752.000
1448.021, 9866.000
1449.070, 9686.000
1450.120, 9791.000
1451.169, 9845.000
1452.219, 9818.000
1453.268, 9724.000
1454.317, 9888.000
1455.366, 9793.000
1456.414, 9809.000
1457.463, 9676.000
1458.511, 9860.000
1459.560, 9939.000
1460.608, 9806.000
1461.656, 9763.000
1462.704, 9847.000
1463.752, 9715.000
1464.799, 9818.000
1465.847, 9820.000
1466.894, 9822.000
1467.941, 9872.000
1468.988, 9795.000
1470.035, 9954.000
1471.082, 9912.000
1472.129, 9793.000
1473.175, 9861.000
1474.222, 9917.000
1475.268, 9846.000
1476.314, 9838.000
1477.360, 10008.00
1478.406, 9790.000
1479.452, 10040.00
1480.498, 10063.00
1481.543, 9865.000
1482.588, 10021.00
1483.633, 9948.000
1484.679, 10061.00
1485.723, 9940.000
1486.768, 9926.000
1487.813, 9926.000
1488.857, 9876.412
1489.902, 9968.000
1490.946, 9890.000
1491.990, 9929.000
1493.034, 10026.00
1494.078, 10045.00
1495.122, 10080.00
1496.165, 10120.00
1497.209, 10098.61
1498.252, 10124.79
1499.295, 10066.00
1500.338, 10113.00
1501.381, 10124.00
1502.424, 10079.00
1503.466, 10178.00
1504.509, 10265.00
1505.551, 10131.00
1506.593, 10254.00
1507.635, 10182.00
1508.677, 10170.00
1509.719, 10056.00
1510.761, 10237.00
1511.802, 10122.00
1512.844, 10127.00
1513.885, 10234.00
1514.926, 10254.00
1515.967, 10237.00
1517.008, 10301.00
1518.049, 10143.00
1519.089, 10306.00
1520.130, 10239.00
1521.170, 10387.00
1522.210, 10247.00
1523.250, 10343.00
1524.290, 10237.00
1525.330, 10345.00
1526.370, 10225.00
1527.409, 10204.00
1528.448, 10285.00
1529.488, 10234.00
1530.527, 10386.00
1531.566, 10223.00
1532.605, 10239.00
1533.643, 10319.00
1534.682, 10321.00
1535.720, 10310.00
1536.759, 10317.00
1537.797, 10292.00
1538.835, 10247.00
1539.873, 10309.00
1540.910, 10372.00
1541.948, 10348.00
1542.986, 10311.00
1544.023, 10190.00
1545.060, 10203.00
1546.097, 10301.00
1547.134, 10231.22
1548.171, 10310.29
1549.208, 10352.30
1550.244, 10359.26
1551.281, 10226.11
1552.317, 10273.87
1553.353, 10249.14
1554.389, 10221.43
1555.425, 10294.65
1556.461, 10181.89
1557.497, 10253.51
1558.532, 10251.53
1559.567, 10283.24
1560.603, 10111.00
1561.638, 10121.00
1562.673, 10023.00
1563.708, 10165.00
##END=



