##NAMES=Augite
##RRUFFID=R061086
##IDEAL CHEMISTRY=(Ca,Mg,Fe^2+^,Fe^3+^)_2_(Si,Al)_2_O_6_
##LOCALITY=Boreslav, Teplitz, Bohemia, Czech Republic
##OWNER=RRUFF
##SOURCE=Michael Scott
##DESCRIPTION=Black to dark green tabular euhedral crystal
##STATUS=The identification of this mineral has been confirmed by X-ray diffraction and chemical analysis
##URL=rruff.info/R061086
##MEASURED CHEMISTRY=(Ca_0.88_Mg_0.83_Fe_0.13_Al_0.08_Na_0.04_Ti_0.03_Cr_0.01_)_Σ=2_(Si_1.89_Al_0.11_)_Σ=2_O_6_
##PIN_ID=M00351
##ORIENTATION=Laser parallel to (1 0 1). Fiducial mark perpendicular to laser is parallel to b [0 1 0]
168.5040, 5765.000
169.7390, 5788.000
170.9730, 5801.000
172.2080, 5761.000
173.4420, 5741.000
174.6760, 5749.000
175.9100, 5727.000
177.1440, 5748.122
178.3770, 5778.000
179.6100, 5792.000
180.8430, 5745.000
182.0760, 5765.148
183.3090, 5782.000
184.5410, 5848.000
185.7740, 5864.000
187.0060, 5972.000
188.2380, 6042.000
189.4690, 5917.000
190.7010, 5998.000
191.9320, 6021.000
193.1630, 5997.000
194.3940, 6001.000
195.6250, 6003.833
196.8550, 6092.000
198.0860, 5975.000
199.3160, 6013.000
200.5460, 5936.000
201.7750, 5956.000
203.0050, 6064.000
204.2340, 5917.000
205.4630, 5951.000
206.6920, 5769.000
207.9210, 5845.000
209.1500, 5890.000
210.3780, 5870.000
211.6060, 5917.000
212.8340, 5876.000
214.0620, 5904.337
215.2900, 5975.000
216.5170, 5976.000
217.7440, 5958.000
218.9710, 6077.000
220.1980, 6079.000
221.4250, 6174.000
222.6510, 6138.000
223.8770, 6206.000
225.1040, 6281.000
226.3290, 6377.000
227.5550, 6259.000
228.7810, 6155.000
230.0060, 6293.000
231.2310, 6158.000
232.4560, 6209.000
233.6810, 6170.000
234.9050, 6041.000
236.1290, 5992.000
237.3540, 6089.000
238.5770, 6064.000
239.8010, 6143.000
241.0250, 6145.000
242.2480, 6126.000
243.4710, 6158.000
244.6940, 6187.000
245.9170, 6085.000
247.1400, 6098.000
248.3620, 6113.000
249.5840, 6189.000
250.8060, 6150.000
252.0280, 6137.000
253.2500, 6097.000
254.4710, 6199.000
255.6920, 6239.000
256.9140, 6181.000
258.1340, 6185.000
259.3550, 6183.515
260.5760, 6140.935
261.7960, 6251.000
263.0160, 6062.000
264.2360, 6242.000
265.4560, 6179.000
266.6750, 6090.000
267.8940, 6173.000
269.1140, 6082.000
270.3330, 6168.000
271.5510, 6152.000
272.7700, 6173.000
273.9880, 6148.000
275.2070, 6231.000
276.4250, 6266.000
277.6420, 6286.000
278.8600, 6303.000
280.0770, 6321.415
281.2950, 6341.000
282.5120, 6344.000
283.7290, 6311.000
284.9450, 6315.000
286.1620, 6433.000
287.3780, 6432.000
288.5940, 6364.000
289.8100, 6511.000
291.0260, 6495.000
292.2410, 6520.000
293.4570, 6621.000
294.6720, 6615.000
295.8870, 6739.000
297.1010, 6797.000
298.3160, 6810.000
299.5300, 6940.000
300.7450, 6886.000
301.9590, 6893.000
303.1730, 7015.000
304.3860, 7019.000
305.6000, 7020.000
306.8130, 7096.000
308.0260, 7154.000
309.2390, 7208.068
310.4510, 7280.577
311.6640, 7337.000
312.8760, 7436.000
314.0880, 7480.819
315.3000, 7603.000
316.5120, 7692.000
317.7240, 7788.000
318.9350, 8022.000
320.1460, 8078.000
321.3570, 8091.000
322.5680, 8167.000
323.7790, 8444.000
324.9890, 8350.000
326.1990, 8520.000
327.4090, 8393.000
328.6190, 8461.000
329.8290, 8398.000
331.0380, 8373.000
332.2480, 8323.000
333.4570, 8219.000
334.6660, 8209.000
335.8740, 8173.000
337.0830, 8191.000
338.2910, 7991.000
339.5000, 8026.000
340.7080, 7920.000
341.9150, 8156.000
343.1230, 7977.000
344.3300, 7869.000
345.5380, 8045.000
346.7450, 7999.000
347.9520, 8033.000
349.1580, 8157.000
350.3650, 8235.000
351.5710, 8385.000
352.7770, 8408.000
353.9830, 8476.000
355.1890, 8531.000
356.3940, 8475.000
357.6000, 8433.000
358.8050, 8574.000
360.0100, 8396.000
361.2150, 8350.000
362.4190, 8175.000
363.6240, 8170.000
364.8280, 8146.000
366.0320, 8108.000
367.2360, 8177.000
368.4400, 8029.000
369.6430, 7878.000
370.8460, 8051.000
372.0500, 8024.000
373.2530, 7868.000
374.4550, 7877.000
375.6580, 7874.000
376.8600, 7958.000
378.0620, 8141.000
379.2650, 8044.000
380.4660, 8048.000
381.6680, 8379.000
382.8690, 8477.000
384.0710, 8516.000
385.2720, 8677.000
386.4730, 8849.000
387.6730, 8861.000
388.8740, 9043.000
390.0740, 9245.000
391.2740, 9178.000
392.4740, 9296.000
393.6740, 9259.000
394.8740, 9160.000
396.0730, 9043.000
397.2730, 8753.000
398.4720, 8477.000
399.6700, 8268.000
400.8690, 8076.000
402.0680, 7859.000
403.2660, 7692.000
404.4640, 7495.000
405.6620, 7348.000
406.8600, 7238.000
408.0570, 7142.644
409.2550, 7055.000
410.4520, 7027.000
411.6490, 7029.000
412.8460, 6979.000
414.0430, 6937.000
415.2390, 6881.000
416.4350, 6853.028
417.6310, 6837.000
418.8270, 6806.000
420.0230, 6745.000
421.2190, 6741.000
422.4140, 6721.477
423.6090, 6832.000
424.8040, 6745.000
425.9990, 6733.000
427.1940, 6808.000
428.3880, 6763.000
429.5820, 6807.000
430.7760, 6809.000
431.9700, 6676.000
433.1640, 6766.000
434.3580, 6726.000
435.5510, 6766.000
436.7440, 6764.000
437.9370, 6744.000
439.1300, 6813.000
440.3230, 6788.000
441.5150, 6833.000
442.7070, 6817.000
443.8990, 6743.000
445.0910, 6784.000
446.2830, 6731.000
447.4750, 6786.000
448.6660, 6778.000
449.8570, 6830.000
451.0480, 6877.000
452.2390, 6798.000
453.4290, 6877.896
454.6200, 6849.227
455.8100, 6934.000
457.0000, 6875.000
458.1900, 6862.000
459.3800, 6953.000
460.5690, 6921.000
461.7590, 6900.000
462.9480, 6915.000
464.1370, 6958.000
465.3260, 6968.000
466.5140, 6950.000
467.7030, 6914.000
468.8910, 6972.000
470.0790, 6969.000
471.2670, 6903.000
472.4550, 6953.000
473.6420, 6914.000
474.8300, 6888.000
476.0170, 6838.000
477.2040, 6994.000
478.3900, 6949.000
479.5770, 6948.000
480.7640, 6888.000
481.9500, 7010.000
483.1360, 7027.000
484.3220, 7014.000
485.5080, 7019.000
486.6930, 7026.000
487.8780, 6988.000
489.0640, 6914.000
490.2490, 6936.000
491.4330, 7011.000
492.6180, 6903.000
493.8030, 6920.000
494.9870, 7037.000
496.1710, 7096.000
497.3550, 7054.000
498.5390, 7113.000
499.7220, 6982.000
500.9060, 7039.000
502.0890, 7020.000
503.2720, 7148.000
504.4550, 7157.000
505.6370, 7071.000
506.8200, 7308.000
508.0020, 7223.000
509.1840, 7315.000
510.3660, 7275.000
511.5480, 7294.000
512.7290, 7371.000
513.9110, 7311.000
515.0920, 7384.000
516.2730, 7305.000
517.4540, 7487.000
518.6350, 7412.000
519.8150, 7434.000
520.9960, 7394.000
522.1760, 7433.000
523.3560, 7419.091
524.5350, 7443.368
525.7150, 7409.000
526.8950, 7501.000
528.0740, 7491.000
529.2530, 7515.000
530.4320, 7608.000
531.6100, 7745.000
532.7890, 7718.000
533.9670, 7661.000
535.1460, 7754.000
536.3240, 7623.000
537.5010, 7681.000
538.6790, 7643.000
539.8570, 7638.000
541.0340, 7571.000
542.2110, 7603.000
543.3880, 7570.000
544.5650, 7550.000
545.7410, 7504.000
546.9180, 7494.000
548.0940, 7500.463
549.2700, 7500.766
550.4460, 7551.000
551.6210, 7552.000
552.7970, 7608.000
553.9720, 7662.000
555.1480, 7584.000
556.3230, 7524.000
557.4970, 7506.000
558.6720, 7546.000
559.8460, 7590.000
561.0210, 7569.000
562.1950, 7508.000
563.3690, 7601.000
564.5420, 7458.000
565.7160, 7412.000
566.8890, 7450.000
568.0630, 7456.000
569.2360, 7412.000
570.4090, 7402.000
571.5810, 7345.000
572.7540, 7340.120
573.9260, 7373.000
575.0980, 7327.000
576.2700, 7363.000
577.4420, 7376.309
578.6140, 7262.000
579.7850, 7377.000
580.9560, 7308.000
582.1270, 7280.000
583.2980, 7255.000
584.4690, 7217.000
585.6400, 7194.000
586.8100, 7155.000
587.9800, 7297.000
589.1500, 7211.911
590.3200, 7347.000
591.4900, 7169.000
592.6590, 7092.000
593.8290, 7100.000
594.9980, 7088.000
596.1670, 7052.665
597.3360, 7050.000
598.5040, 7043.000
599.6730, 7063.000
600.8410, 7126.000
602.0090, 7170.000
603.1770, 7040.000
604.3450, 7198.000
605.5130, 7104.000
606.6800, 7078.000
607.8470, 7150.000
609.0140, 7172.000
610.1810, 7182.000
611.3480, 7284.000
612.5140, 7214.000
613.6810, 7182.000
614.8470, 7205.000
616.0130, 7086.000
617.1790, 7254.000
618.3440, 7293.000
619.5100, 7247.000
620.6750, 7328.000
621.8400, 7310.000
623.0050, 7431.000
624.1700, 7326.000
625.3350, 7396.000
626.4990, 7417.000
627.6640, 7576.000
628.8280, 7426.000
629.9920, 7608.000
631.1550, 7650.000
632.3190, 7606.000
633.4820, 7654.000
634.6460, 7841.000
635.8090, 7794.000
636.9710, 7783.000
638.1340, 7892.000
639.2970, 7796.000
640.4590, 7936.000
641.6210, 8078.000
642.7830, 8070.000
643.9450, 8140.000
645.1070, 8296.000
646.2680, 8355.000
647.4300, 8483.000
648.5910, 8564.000
649.7520, 8722.000
650.9130, 8860.000
652.0730, 9219.000
653.2340, 9383.000
654.3940, 9549.000
655.5540, 10108.00
656.7140, 10515.00
657.8740, 10768.00
659.0330, 11238.00
660.1930, 11756.00
661.3520, 12065.00
662.5110, 12512.00
663.6700, 13092.00
664.8290, 13483.00
665.9870, 13379.00
667.1460, 13402.00
668.3040, 13123.00
669.4620, 12638.00
670.6200, 12181.00
671.7770, 11552.00
672.9350, 10948.00
674.0920, 10477.00
675.2500, 10103.00
676.4070, 9770.000
677.5630, 9546.000
678.7200, 8994.000
679.8770, 8966.000
681.0330, 8673.000
682.1890, 8577.000
683.3450, 8536.000
684.5010, 8256.000
685.6560, 8106.000
686.8120, 8184.000
687.9670, 8027.000
689.1220, 7965.000
690.2770, 7982.000
691.4320, 7962.000
692.5870, 7928.706
693.7410, 7925.125
694.8950, 7880.000
696.0490, 7888.000
697.2030, 7878.000
698.3570, 7861.000
699.5110, 7797.000
700.6640, 7712.000
701.8170, 7711.000
702.9700, 7694.118
704.1230, 7750.000
705.2760, 7727.000
706.4290, 7742.000
707.5810, 7761.000
708.7330, 7764.000
709.8850, 7696.000
711.0370, 7715.000
712.1890, 7707.000
713.3400, 7704.000
714.4920, 7697.000
715.6430, 7689.000
716.7940, 7619.000
717.9450, 7600.000
719.0960, 7711.000
720.2460, 7643.000
721.3960, 7664.000
722.5470, 7641.000
723.6970, 7750.000
724.8460, 7715.000
725.9960, 7581.000
727.1460, 7657.000
728.2950, 7752.000
729.4440, 7665.000
730.5930, 7699.000
731.7420, 7791.000
732.8910, 7684.000
734.0390, 7829.000
735.1870, 7770.195
736.3360, 7711.000
737.4840, 7734.000
738.6310, 7746.000
739.7790, 7764.000
740.9260, 7742.000
742.0740, 7779.000
743.2210, 7765.000
744.3680, 7799.000
745.5150, 7895.000
746.6610, 7885.000
747.8080, 8077.000
748.9540, 8012.000
750.1000, 7920.000
751.2460, 8037.000
752.3920, 7965.000
753.5380, 8028.000
754.6830, 8001.000
755.8280, 8021.000
756.9730, 8022.000
758.1180, 8052.784
759.2630, 8176.000
760.4080, 8134.000
761.5520, 8236.000
762.6960, 8281.000
763.8410, 8281.000
764.9840, 8431.000
766.1280, 8427.000
767.2720, 8446.000
768.4150, 8359.000
769.5590, 8335.000
770.7020, 8544.000
771.8450, 8403.000
772.9870, 8465.000
774.1300, 8514.000
775.2720, 8500.000
776.4150, 8462.000
777.5570, 8519.000
778.6990, 8508.000
779.8400, 8523.000
780.9820, 8538.000
782.1230, 8425.000
783.2650, 8396.000
784.4060, 8377.000
785.5470, 8462.000
786.6870, 8487.000
787.8280, 8422.000
788.9680, 8478.000
790.1090, 8490.000
791.2490, 8553.000
792.3890, 8461.000
793.5280, 8551.000
794.6680, 8408.000
795.8070, 8417.000
796.9470, 8382.000
798.0860, 8558.000
799.2250, 8537.000
800.3630, 8621.000
801.5020, 8493.000
802.6410, 8469.000
803.7790, 8518.000
804.9170, 8672.000
806.0550, 8578.000
807.1930, 8671.000
808.3300, 8595.000
809.4680, 8667.000
810.6050, 8629.000
811.7420, 8663.000
812.8790, 8665.000
814.0160, 8767.000
815.1520, 8731.000
816.2890, 8888.000
817.4250, 8783.000
818.5610, 8834.000
819.6970, 8770.000
820.8330, 8657.000
821.9680, 8777.000
823.1040, 8876.000
824.2390, 8800.000
825.3740, 8733.000
826.5090, 8725.000
827.6440, 8748.000
828.7790, 8852.000
829.9130, 8723.000
831.0470, 8823.000
832.1810, 8861.000
833.3150, 8749.000
834.4490, 8654.000
835.5830, 8776.000
836.7160, 8711.000
837.8500, 8741.000
838.9830, 8847.000
840.1160, 8763.000
841.2480, 8693.000
842.3810, 8865.000
843.5140, 8863.000
844.6460, 8838.000
845.7780, 8890.000
846.9100, 8952.000
848.0420, 8950.000
849.1740, 8997.000
850.3050, 9157.000
851.4360, 9159.000
852.5680, 9277.000
853.6990, 9219.000
854.8290, 9376.000
855.9600, 9341.000
857.0910, 9481.000
858.2210, 9531.000
859.3510, 9512.000
860.4810, 9499.000
861.6110, 9399.000
862.7410, 9417.000
863.8700, 9461.000
865.0000, 9503.000
866.1290, 9487.687
867.2580, 9484.370
868.3870, 9449.000
869.5150, 9439.000
870.6440, 9401.000
871.7720, 9413.000
872.9000, 9386.418
874.0290, 9374.000
875.1560, 9335.000
876.2840, 9348.000
877.4120, 9283.000
878.5390, 9262.000
879.6660, 9366.000
880.7930, 9315.000
881.9200, 9300.000
883.0470, 9277.000
884.1740, 9262.000
885.3000, 9337.000
886.4260, 9176.000
887.5530, 9368.000
888.6780, 9371.000
889.8040, 9308.000
890.9300, 9259.000
892.0550, 9253.829
893.1810, 9226.113
894.3060, 9253.000
895.4310, 9231.000
896.5560, 9291.000
897.6800, 9327.000
898.8050, 9325.000
899.9290, 9256.000
901.0530, 9253.000
902.1770, 9295.000
903.3010, 9369.000
904.4250, 9294.000
905.5480, 9249.000
906.6720, 9440.000
907.7950, 9394.000
908.9180, 9326.000
910.0410, 9321.000
911.1630, 9364.000
912.2860, 9343.000
913.4080, 9511.000
914.5300, 9415.000
915.6530, 9374.000
916.7740, 9487.000
917.8960, 9412.000
919.0180, 9463.000
920.1390, 9369.000
921.2600, 9562.000
922.3820, 9645.000
923.5020, 9516.000
924.6230, 9505.000
925.7440, 9607.000
926.8640, 9565.000
927.9850, 9581.000
929.1050, 9570.000
930.2250, 9576.000
931.3450, 9701.000
932.4640, 9545.000
933.5840, 9704.000
934.7030, 9575.000
935.8220, 9655.000
936.9410, 9600.000
938.0600, 9592.000
939.1790, 9631.000
940.2970, 9585.000
941.4160, 9634.000
942.5340, 9635.000
943.6520, 9642.000
944.7700, 9584.000
945.8870, 9776.000
947.0050, 9651.000
948.1220, 9730.000
949.2400, 9637.000
950.3570, 9705.000
951.4740, 9795.000
952.5900, 9793.000
953.7070, 9629.000
954.8240, 9754.000
955.9400, 9753.000
957.0560, 9791.000
958.1720, 9822.000
959.2880, 9754.000
960.4030, 9790.000
961.5190, 9888.000
962.6340, 9954.000
963.7490, 9894.000
964.8640, 9878.000
965.9790, 9917.000
967.0940, 9911.653
968.2080, 9961.000
969.3230, 9982.000
970.4370, 10073.00
971.5510, 10131.00
972.6650, 9983.000
973.7790, 10091.00
974.8920, 10042.00
976.0060, 10104.00
977.1190, 10160.00
978.2320, 10146.00
979.3450, 10283.00
980.4580, 10265.00
981.5710, 10302.00
982.6830, 10313.00
983.7950, 10525.00
984.9080, 10428.00
986.0200, 10411.00
987.1310, 10701.00
988.2430, 10670.00
989.3550, 10748.00
990.4660, 10942.00
991.5770, 11149.00
992.6880, 11093.00
993.7990, 11251.00
994.9100, 11595.00
996.0200, 11779.00
997.1310, 12058.00
998.2410, 12333.00
999.3510, 12630.46
1000.461, 13008.00
1001.571, 13313.00
1002.681, 13672.00
1003.790, 14064.00
1004.899, 14412.00
1006.009, 14796.00
1007.118, 14968.00
1008.226, 15213.00
1009.335, 15414.00
1010.444, 15165.00
1011.552, 14887.00
1012.660, 14365.00
1013.768, 14156.00
1014.876, 13583.00
1015.984, 13089.00
1017.092, 12618.00
1018.199, 12097.00
1019.306, 11899.00
1020.413, 11519.00
1021.520, 11345.00
1022.627, 11068.00
1023.734, 11001.00
1024.840, 10801.00
1025.947, 10781.00
1027.053, 10627.00
1028.159, 10625.00
1029.265, 10659.00
1030.370, 10733.00
1031.476, 10636.00
1032.581, 10663.69
1033.687, 10502.00
1034.792, 10601.00
1035.897, 10575.00
1037.002, 10530.00
1038.106, 10514.00
1039.211, 10406.00
1040.315, 10467.00
1041.419, 10541.00
1042.523, 10423.20
1043.627, 10505.00
1044.731, 10285.00
1045.834, 10413.00
1046.938, 10405.00
1048.041, 10310.00
1049.144, 10308.00
1050.247, 10187.00
1051.349, 10178.00
1052.452, 10192.00
1053.555, 10235.00
1054.657, 10220.00
1055.759, 10121.00
1056.861, 10149.00
1057.963, 10184.00
1059.064, 10048.00
1060.166, 10070.00
1061.267, 10103.00
1062.368, 9956.000
1063.470, 10005.00
1064.570, 9855.000
1065.671, 9890.000
1066.772, 9938.000
1067.872, 10019.00
1068.972, 9960.000
1070.073, 10010.00
1071.173, 9935.000
1072.272, 9971.000
1073.372, 9953.000
1074.472, 9808.000
1075.571, 9901.000
1076.670, 9969.000
1077.769, 9815.000
1078.868, 9932.000
1079.967, 9973.000
1081.065, 9873.000
1082.164, 9968.000
1083.262, 10052.00
1084.360, 10021.00
1085.458, 9967.000
1086.556, 9998.000
1087.654, 9878.000
1088.751, 9900.000
1089.848, 10026.00
1090.946, 9952.000
1092.043, 9974.000
1093.139, 10022.00
1094.236, 9947.000
1095.333, 10136.00
1096.429, 10028.00
1097.525, 9955.000
1098.622, 10039.00
1099.718, 9990.000
1100.813, 9975.000
1101.909, 10002.00
1103.005, 9970.939
1104.100, 10018.00
1105.195, 9996.000
1106.290, 10004.00
1107.385, 10098.00
1108.480, 9988.000
1109.574, 9983.000
1110.669, 9895.000
1111.763, 9953.000
1112.857, 10079.00
1113.951, 10035.00
1115.045, 10022.00
1116.139, 9990.000
1117.232, 9981.000
1118.326, 10069.00
1119.419, 10099.00
1120.512, 10107.00
1121.605, 10103.23
1122.697, 10087.58
1123.790, 10026.00
1124.883, 10025.00
1125.975, 9976.000
1127.067, 9939.000
1128.159, 9975.000
1129.251, 9980.000
1130.342, 9996.000
1131.434, 10008.00
1132.525, 9983.000
1133.617, 9972.951
1134.708, 9903.000
1135.799, 9929.000
1136.889, 9934.000
1137.980, 9940.000
1139.071, 10031.00
1140.161, 9954.000
1141.251, 9953.000
1142.341, 9792.000
1143.431, 9972.000
1144.521, 9784.000
1145.610, 9929.000
1146.700, 9842.000
1147.789, 9909.000
1148.878, 9884.000
1149.967, 9786.000
1151.056, 9931.000
1152.144, 9809.000
1153.233, 9957.000
1154.321, 9936.000
1155.409, 9817.000
1156.498, 10093.00
1157.585, 9936.000
1158.673, 9788.000
1159.761, 9812.000
1160.848, 9856.000
1161.936, 9977.000
1163.023, 9975.000
1164.110, 9872.000
1165.197, 9845.000
1166.283, 9949.000
1167.370, 9922.000
1168.456, 9935.000
1169.542, 9975.000
1170.629, 9945.000
1171.714, 9938.000
1172.800, 9977.000
1173.886, 9990.000
1174.971, 10039.00
1176.057, 10003.00
1177.142, 9957.000
1178.227, 10075.00
1179.312, 10125.00
1180.397, 10025.00
1181.481, 9973.000
1182.566, 9818.000
1183.650, 9997.000
1184.734, 9989.000
1185.818, 9966.000
1186.902, 10162.00
1187.986, 9968.000
1189.069, 10019.00
1190.153, 10005.00
1191.236, 9995.000
1192.319, 10021.16
1193.402, 10020.16
1194.485, 10077.00
1195.567, 10039.00
1196.650, 10135.00
1197.732, 10128.00
1198.814, 10174.00
1199.896, 10060.00
1200.978, 10103.00
1202.060, 10186.00
1203.142, 10289.00
1204.223, 10170.00
1205.304, 10204.00
1206.386, 10158.00
1207.467, 10036.00
1208.547, 10159.00
1209.628, 10098.94
1210.709, 10227.00
1211.789, 10150.00
1212.869, 10202.00
1213.950, 10284.00
1215.030, 10228.00
1216.109, 10281.00
1217.189, 10209.00
1218.269, 10309.00
1219.348, 10079.00
1220.427, 10272.00
1221.506, 10198.00
1222.585, 10227.00
1223.664, 10309.00
1224.743, 10162.00
1225.821, 10223.00
1226.899, 10347.00
1227.978, 10362.00
1229.056, 10288.00
1230.134, 10346.00
1231.211, 10291.00
1232.289, 10290.00
1233.366, 10374.00
1234.444, 10336.00
1235.521, 10294.00
1236.598, 10322.00
1237.675, 10246.00
1238.751, 10353.00
1239.828, 10369.00
1240.904, 10346.00
1241.981, 10473.00
1243.057, 10457.00
1244.133, 10394.00
1245.209, 10468.00
1246.284, 10436.00
1247.360, 10536.00
1248.435, 10374.00
1249.510, 10440.00
1250.585, 10393.00
1251.660, 10471.00
1252.735, 10469.00
1253.810, 10501.00
1254.884, 10520.00
1255.959, 10371.00
1257.033, 10512.00
1258.107, 10413.00
1259.181, 10524.00
1260.255, 10402.00
1261.328, 10569.00
1262.402, 10539.00
1263.475, 10423.00
1264.548, 10567.00
1265.621, 10363.00
1266.694, 10453.00
1267.767, 10555.00
1268.840, 10561.00
1269.912, 10431.00
1270.984, 10530.00
1272.056, 10517.00
1273.129, 10548.00
1274.200, 10688.00
1275.272, 10523.00
1276.344, 10645.00
1277.415, 10750.00
1278.486, 10563.00
1279.558, 10641.00
1280.629, 10540.00
1281.699, 10629.00
1282.770, 10693.00
1283.841, 10653.00
1284.911, 10745.00
1285.981, 10681.00
1287.051, 10687.00
1288.121, 10676.00
1289.191, 10760.00
1290.261, 10673.00
1291.330, 10649.00
1292.400, 10796.00
1293.469, 10759.00
1294.538, 10806.00
1295.607, 10845.00
1296.676, 10780.00
1297.745, 10832.39
1298.813, 10826.00
1299.881, 10829.00
1300.950, 10823.00
1302.018, 10757.00
1303.086, 10886.00
1304.154, 10822.00
1305.221, 10740.00
1306.289, 10837.36
1307.356, 10915.00
1308.423, 10869.00
1309.490, 11032.00
1310.557, 10925.00
1311.624, 10912.00
1312.691, 10936.00
1313.757, 10895.00
1314.823, 10849.00
1315.890, 10839.00
1316.956, 10948.00
1318.022, 10963.00
1319.087, 10907.00
1320.153, 10943.00
1321.219, 10905.00
1322.284, 10815.00
1323.349, 10872.65
1324.414, 10943.00
1325.479, 10945.00
1326.544, 10895.00
1327.608, 10969.00
1328.673, 11039.00
1329.737, 10857.00
1330.801, 10984.00
1331.865, 10953.00
1332.929, 10968.00
1333.993, 11089.00
1335.057, 10936.00
1336.120, 10913.00
1337.183, 11084.00
1338.247, 11091.00
1339.310, 11249.00
1340.373, 11086.00
1341.435, 11196.00
1342.498, 11023.00
1343.560, 11060.00
1344.623, 11088.00
1345.685, 11155.00
1346.747, 11246.00
1347.809, 11144.00
1348.871, 11210.84
1349.932, 11113.00
1350.994, 11184.00
1352.055, 11178.00
1353.116, 11105.00
1354.177, 11044.00
1355.238, 11139.00
1356.299, 11148.00
1357.359, 11134.32
1358.420, 11155.82
1359.480, 11106.00
1360.540, 11202.00
1361.600, 11167.00
1362.660, 11347.00
1363.720, 11231.00
1364.780, 11377.00
1365.839, 11142.00
1366.898, 11146.00
1367.958, 11144.00
1369.017, 11314.00
1370.076, 11182.00
1371.134, 11169.00
1372.193, 11159.00
1373.251, 11373.00
1374.310, 11120.00
1375.368, 11269.00
1376.426, 11308.00
1377.484, 11266.00
1378.542, 11257.00
1379.599, 11245.00
1380.657, 11265.00
1381.714, 11342.00
1382.771, 11291.00
1383.828, 11147.45
1384.885, 11252.68
1385.942, 11315.80
1386.999, 11339.08
1388.055, 11203.15
1389.111, 11272.79
1390.168, 11260.06
1391.224, 11243.94
1392.280, 11342.51
1393.335, 11229.73
1394.391, 11326.48
1395.446, 11339.58
1396.502, 11390.97
1397.557, 11359.47
1398.612, 11353.56
1399.667, 11430.58
1400.722, 11461.68
1401.776, 11420.62
1402.831, 11474.44
1403.885, 11358.75
1404.939, 11391.80
1405.994, 11489.03
1407.048, 11452.14
1408.101, 11507.46
1409.155, 11527.66
1410.209, 11388.26
1411.262, 11526.42
1412.315, 11544.54
1413.368, 11439.41
1414.421, 11568.06
1415.474, 11479.92
1416.527, 11469.16
1417.579, 11516.62
1418.632, 11503.39
1419.684, 11585.86
1420.736, 11576.12
1421.788, 11548.00
1422.840, 11453.00
1423.891, 11568.00
1424.943, 11588.00
1425.994, 11534.00
1427.046, 11568.00
1428.097, 11540.33
1429.148, 11571.00
1430.199, 11528.00
1431.249, 11561.00
1432.300, 11603.00
1433.350, 11536.00
1434.401, 11570.00
1435.451, 11639.00
1436.501, 11696.00
1437.551, 11615.00
1438.601, 11652.00
1439.650, 11512.00
1440.700, 11685.00
1441.749, 11631.00
1442.798, 11685.00
1443.847, 11727.00
1444.896, 11702.00
1445.945, 11740.00
1446.993, 11616.00
1448.042, 11660.00
1449.090, 11686.00
1450.138, 11787.00
1451.187, 11625.00
1452.234, 11668.00
1453.282, 11766.00
1454.330, 11757.00
1455.377, 11906.00
1456.425, 11825.00
1457.472, 11777.00
1458.519, 11800.00
1459.566, 11866.00
1460.613, 11800.00
1461.660, 11796.00
1462.706, 11844.00
1463.752, 11776.00
1464.799, 11745.00
1465.845, 11748.00
1466.891, 11773.93
1467.937, 11816.00
1468.982, 11873.00
1470.028, 11871.00
1471.073, 11879.00
1472.119, 11773.00
1473.164, 11680.00
1474.209, 11726.00
1475.254, 11889.00
1476.299, 11843.00
1477.343, 11898.00
1478.388, 11810.00
1479.432, 12008.00
1480.476, 11807.00
1481.520, 11703.00
1482.564, 11963.00
1483.608, 11807.00
1484.651, 11927.00
1485.695, 12005.00
1486.738, 11905.00
1487.782, 11888.00
1488.825, 11771.00
1489.868, 11904.00
1490.910, 11871.00
1491.953, 11899.00
1492.996, 11947.00
1494.038, 11941.00
1495.080, 11923.00
1496.122, 12120.00
1497.164, 12031.00
1498.206, 11989.00
1499.248, 11862.00
1500.290, 12074.00
1501.331, 11951.00
1502.372, 12033.00
1503.413, 12037.00
1504.455, 12003.00
1505.495, 11987.00
1506.536, 12125.00
1507.577, 12114.00
1508.617, 11951.00
1509.658, 12097.00
1510.698, 11917.00
1511.738, 11972.00
1512.778, 11946.00
1513.818, 12006.00
1514.857, 12028.00
1515.897, 12152.00
1516.936, 12127.00
1517.975, 12104.00
1519.015, 11950.00
1520.054, 12103.00
1521.092, 12044.00
1522.131, 12190.00
1523.170, 12138.00
1524.208, 12206.00
1525.246, 12374.00
1526.285, 12186.00
1527.323, 12161.00
1528.361, 12129.00
1529.398, 12143.00
1530.436, 12118.00
1531.473, 12216.00
1532.511, 12279.00
1533.548, 12098.00
1534.585, 12264.00
1535.622, 12287.00
1536.659, 12329.00
1537.695, 12199.00
1538.732, 12246.00
1539.768, 12259.00
1540.805, 12312.00
1541.841, 12256.00
1542.877, 12244.00
1543.913, 12149.00
1544.948, 12193.00
1545.984, 12277.00
1547.019, 12287.00
1548.055, 12360.00
1549.090, 12431.00
1550.125, 12427.50
1551.160, 12328.00
1552.195, 12497.00
1553.229, 12359.00
1554.264, 12500.00
1555.298, 12429.00
1556.332, 12375.00
1557.366, 12466.00
1558.400, 12325.00
1559.434, 12406.00
1560.468, 12461.00
1561.502, 12485.00
1562.535, 12437.00
##END=



