##NAMES=Augite
##RRUFFID=R061108
##IDEAL CHEMISTRY=(Ca,Mg,Fe^2+^,Fe^3+^)_2_(Si,Al)_2_O_6_
##LOCALITY=Monti Rossi, near Mt. Etna, Sicily, Italy
##OWNER=RRUFF
##SOURCE=Michael Scott
##DESCRIPTION=Euhedral, short prismatic, black crystals in vesicular basalt.
##STATUS=The identification of this mineral is confirmed by single-crystal X-ray diffraction and chemical analysis.
##URL=rruff.info/R061108
##MEASURED CHEMISTRY=(Ca_0.86_Mg_0.74_Fe^2+^_0.18_Fe^3+^_0.08_Al_0.05_Ti_0.04_Na_0.04_Mn_0.01_)_Σ=2_(Si_1.83_Al_0.17_)_Σ=2_O_6_
##PIN_ID=L01364
##ORIENTATION=Laser parallel to b* (0 1 0). Fiducial mark perpendicular to laser is parallel to c [0 0 1]
159.8810, 16942.00
161.1070, 16893.00
162.3340, 17198.00
163.5600, 17379.00
164.7860, 17409.00
166.0120, 17476.00
167.2380, 17434.00
168.4640, 17571.00
169.6890, 17837.00
170.9150, 18073.00
172.1400, 17949.00
173.3650, 18009.00
174.5900, 17885.00
175.8150, 18038.00
177.0400, 18230.00
178.2640, 18465.00
179.4880, 18384.00
180.7130, 18296.00
181.9370, 18251.00
183.1600, 18191.00
184.3840, 18338.00
185.6080, 18342.00
186.8310, 18417.00
188.0540, 18329.00
189.2770, 18412.00
190.5000, 18479.00
191.7230, 18398.00
192.9460, 18306.00
194.1680, 18424.00
195.3910, 18329.00
196.6130, 18127.00
197.8350, 18164.00
199.0570, 18118.00
200.2780, 18137.00
201.5000, 18285.00
202.7210, 18060.00
203.9420, 17683.00
205.1640, 17375.00
206.3840, 16820.00
207.6050, 16671.00
208.8260, 16553.00
210.0460, 16684.00
211.2670, 16788.00
212.4870, 16988.00
213.7070, 16839.00
214.9270, 16879.00
216.1460, 16737.00
217.3660, 16758.00
218.5850, 16798.00
219.8050, 16741.00
221.0240, 16806.00
222.2430, 16807.00
223.4610, 16856.00
224.6800, 16934.00
225.8980, 17006.00
227.1170, 17183.00
228.3350, 17137.78
229.5530, 16849.00
230.7710, 17028.00
231.9880, 16965.00
233.2060, 16771.00
234.4230, 16794.00
235.6400, 16719.00
236.8570, 16818.00
238.0740, 16785.00
239.2910, 16879.00
240.5080, 16894.47
241.7240, 16883.00
242.9400, 16905.00
244.1570, 16906.12
245.3730, 16872.00
246.5880, 16930.02
247.8040, 16937.00
249.0190, 16974.00
250.2350, 16889.00
251.4500, 16898.00
252.6650, 16772.00
253.8800, 17068.00
255.0950, 16981.00
256.3090, 16800.00
257.5240, 17379.00
258.7380, 17162.56
259.9520, 17102.90
261.1660, 17171.00
262.3800, 16843.00
263.5930, 16711.00
264.8070, 16806.00
266.0200, 16759.00
267.2330, 16623.00
268.4460, 16678.00
269.6590, 16786.00
270.8720, 16663.00
272.0850, 16699.00
273.2970, 16771.00
274.5090, 16824.00
275.7210, 16955.00
276.9330, 17025.00
278.1450, 17047.00
279.3570, 16975.00
280.5680, 17171.00
281.7790, 17320.00
282.9910, 17234.00
284.2020, 17407.00
285.4120, 17554.00
286.6230, 17763.00
287.8340, 17728.00
289.0440, 17953.00
290.2540, 18053.00
291.4640, 18272.00
292.6740, 18623.00
293.8840, 18744.00
295.0940, 19015.00
296.3030, 19314.00
297.5120, 19444.00
298.7210, 19866.00
299.9300, 20190.00
301.1390, 20395.00
302.3480, 20847.00
303.5560, 21354.00
304.7650, 21672.00
305.9730, 22372.00
307.1810, 22762.00
308.3890, 23630.00
309.5970, 24027.00
310.8040, 24513.00
312.0120, 25081.00
313.2190, 25797.00
314.4260, 26335.00
315.6330, 26849.00
316.8400, 27591.00
318.0460, 28005.00
319.2530, 28724.00
320.4590, 29203.00
321.6650, 29316.00
322.8710, 29682.00
324.0770, 29744.00
325.2830, 29781.00
326.4880, 29576.00
327.6940, 29343.00
328.8990, 29320.00
330.1040, 28830.00
331.3090, 28639.00
332.5140, 28428.00
333.7180, 28019.00
334.9230, 27574.00
336.1270, 27518.00
337.3310, 26990.00
338.5350, 26724.00
339.7390, 26409.00
340.9430, 26251.00
342.1460, 25956.00
343.3500, 25898.76
344.5530, 26111.00
345.7560, 25789.00
346.9590, 25799.00
348.1620, 25697.00
349.3640, 25596.00
350.5670, 25506.03
351.7690, 25307.00
352.9710, 25211.00
354.1730, 25041.00
355.3750, 24795.00
356.5760, 24715.00
357.7780, 24387.00
358.9790, 24046.00
360.1800, 24009.00
361.3810, 23759.00
362.5820, 23291.00
363.7830, 23071.00
364.9830, 22849.00
366.1840, 22732.00
367.3840, 22663.00
368.5840, 22533.00
369.7840, 22642.00
370.9840, 22523.00
372.1830, 22612.00
373.3830, 22727.00
374.5820, 22705.00
375.7810, 22974.00
376.9800, 23158.00
378.1790, 23446.00
379.3780, 23787.83
380.5760, 24168.20
381.7750, 24584.00
382.9730, 25028.00
384.1710, 25544.00
385.3690, 25908.00
386.5660, 25955.00
387.7640, 26349.00
388.9610, 26241.00
390.1590, 25944.00
391.3560, 25891.00
392.5530, 24920.00
393.7500, 24477.00
394.9460, 23641.00
396.1430, 23019.00
397.3390, 22091.00
398.5350, 21395.00
399.7310, 20722.00
400.9270, 19977.00
402.1230, 19120.00
403.3180, 18908.00
404.5140, 18209.00
405.7090, 17891.00
406.9040, 17477.00
408.0990, 17030.00
409.2930, 16875.51
410.4880, 16830.00
411.6820, 16553.00
412.8770, 16631.00
414.0710, 16510.00
415.2650, 16310.00
416.4590, 16509.00
417.6520, 16250.00
418.8460, 16313.00
420.0390, 16177.00
421.2320, 16086.00
422.4250, 16210.00
423.6180, 15919.00
424.8110, 16013.00
426.0030, 15917.00
427.1960, 15783.00
428.3880, 15860.00
429.5800, 15755.00
430.7720, 15874.00
431.9640, 15876.00
433.1550, 15478.00
434.3470, 15600.00
435.5380, 15460.00
436.7290, 15462.00
437.9200, 15377.00
439.1110, 15515.00
440.3020, 15414.00
441.4920, 15394.00
442.6820, 15401.00
443.8730, 15235.00
445.0630, 15191.00
446.2530, 15377.00
447.4420, 15347.00
448.6320, 15227.00
449.8210, 15426.00
451.0100, 15502.00
452.2000, 15452.00
453.3880, 15491.00
454.5770, 15416.00
455.7660, 15461.00
456.9540, 15542.00
458.1430, 15475.00
459.3310, 15540.00
460.5190, 15584.00
461.7070, 15626.00
462.8940, 15540.00
464.0820, 15573.00
465.2690, 15526.00
466.4560, 15565.74
467.6430, 15598.00
468.8300, 15688.00
470.0170, 15621.00
471.2040, 15717.00
472.3900, 15615.00
473.5760, 15707.00
474.7620, 15491.00
475.9480, 15568.00
477.1340, 15524.00
478.3200, 15664.00
479.5050, 15709.00
480.6900, 15588.00
481.8750, 15590.00
483.0600, 15801.00
484.2450, 15859.00
485.4300, 15833.00
486.6140, 15824.00
487.7990, 15992.00
488.9830, 15890.00
490.1670, 16105.00
491.3510, 16107.00
492.5350, 16356.00
493.7180, 16601.00
494.9020, 16784.00
496.0850, 17013.00
497.2680, 17238.00
498.4510, 17460.00
499.6340, 17546.00
500.8160, 17856.53
501.9990, 18353.00
503.1810, 18383.00
504.3630, 18529.00
505.5450, 18751.00
506.7270, 18637.00
507.9090, 18500.00
509.0900, 18492.00
510.2720, 18313.00
511.4530, 18347.00
512.6340, 18329.00
513.8150, 18219.42
514.9950, 18400.00
516.1760, 18245.00
517.3560, 18264.00
518.5370, 18665.00
519.7170, 18338.00
520.8970, 18833.00
522.0770, 18917.00
523.2560, 19086.00
524.4360, 19308.00
525.6150, 19442.00
526.7940, 19529.00
527.9730, 19613.00
529.1520, 19850.00
530.3310, 19966.00
531.5090, 20091.00
532.6870, 19815.00
533.8660, 19992.00
535.0440, 19810.00
536.2210, 19882.00
537.3990, 19611.00
538.5770, 19497.00
539.7540, 19206.00
540.9310, 19210.00
542.1080, 19180.00
543.2850, 18969.00
544.4620, 18801.00
545.6390, 18698.00
546.8150, 18745.00
547.9920, 18620.82
549.1680, 18535.00
550.3440, 18457.00
551.5190, 18291.00
552.6950, 18061.25
553.8710, 18218.00
555.0460, 18100.00
556.2210, 18120.00
557.3960, 17957.00
558.5710, 18001.00
559.7460, 17994.00
560.9200, 17782.00
562.0950, 17865.00
563.2690, 17910.00
564.4430, 17635.00
565.6170, 17629.00
566.7910, 17424.00
567.9640, 17478.00
569.1380, 17274.00
570.3110, 17329.00
571.4840, 17180.00
572.6570, 16905.00
573.8300, 16708.00
575.0030, 16310.00
576.1750, 16332.00
577.3470, 15835.00
578.5200, 15715.00
579.6920, 15528.00
580.8630, 15270.00
582.0350, 15047.00
583.2070, 15004.00
584.3780, 14608.00
585.5490, 14524.00
586.7200, 14392.00
587.8910, 13991.00
589.0620, 14097.00
590.2330, 13791.00
591.4030, 13780.00
592.5730, 13466.00
593.7430, 13293.00
594.9130, 13258.00
596.0830, 13139.00
597.2530, 13109.00
598.4220, 13034.17
599.5920, 13027.08
600.7610, 12921.00
601.9300, 13053.00
603.0990, 13046.00
604.2670, 13075.00
605.4360, 12980.00
606.6040, 13077.00
607.7720, 12978.00
608.9400, 13232.00
610.1080, 13246.00
611.2760, 13200.00
612.4440, 13343.00
613.6110, 13396.00
614.7780, 13395.00
615.9450, 13348.00
617.1120, 13538.00
618.2790, 13525.00
619.4460, 13555.00
620.6120, 13734.00
621.7780, 13814.00
622.9450, 13906.00
624.1110, 13950.00
625.2760, 14147.00
626.4420, 14415.00
627.6080, 14599.00
628.7730, 14698.00
629.9380, 14802.00
631.1030, 15083.00
632.2680, 15393.00
633.4330, 15579.00
634.5970, 15946.00
635.7620, 16360.00
636.9260, 16702.70
638.0900, 16923.00
639.2540, 17601.00
640.4180, 18098.00
641.5810, 18690.00
642.7450, 19497.00
643.9080, 20153.00
645.0710, 21048.00
646.2340, 22198.00
647.3970, 23573.00
648.5590, 25010.00
649.7220, 26798.09
650.8840, 28668.00
652.0460, 30939.00
653.2080, 33075.00
654.3700, 35728.00
655.5320, 38887.00
656.6930, 42172.00
657.8550, 45302.00
659.0160, 48300.00
660.1770, 51514.00
661.3380, 53638.00
662.4990, 55168.00
663.6590, 55871.00
664.8200, 55385.00
665.9800, 53930.00
667.1400, 51441.00
668.3000, 48494.00
669.4600, 44993.00
670.6190, 41337.00
671.7790, 37937.00
672.9380, 35029.00
674.0970, 32131.00
675.2560, 29523.00
676.4150, 27490.00
677.5740, 25664.00
678.7320, 23992.00
679.8900, 23021.00
681.0490, 21635.00
682.2070, 20740.00
683.3640, 20098.00
684.5220, 19361.00
685.6800, 18686.00
686.8370, 18314.00
687.9940, 17905.00
689.1510, 17466.00
690.3080, 17280.00
691.4650, 17111.00
692.6220, 16951.00
693.7780, 16652.00
694.9340, 16651.00
696.0900, 16402.00
697.2460, 16231.00
698.4020, 16455.00
699.5580, 16332.00
700.7130, 16218.00
701.8680, 16434.00
703.0240, 16318.00
704.1790, 16427.00
705.3330, 16603.00
706.4880, 16291.00
707.6430, 16155.00
708.7970, 15923.00
709.9510, 15857.00
711.1050, 15986.00
712.2590, 16006.00
713.4130, 15928.04
714.5660, 15602.00
715.7200, 15813.00
716.8730, 15502.00
718.0260, 15519.00
719.1790, 15504.00
720.3320, 15151.00
721.4840, 14844.00
722.6370, 14848.07
723.7890, 14962.00
724.9410, 14768.00
726.0930, 14614.00
727.2450, 14592.00
728.3960, 14392.00
729.5480, 14219.00
730.6990, 14272.00
731.8500, 14394.00
733.0010, 14450.00
734.1520, 14439.00
735.3030, 14430.00
736.4530, 14618.00
737.6040, 14634.00
738.7540, 14770.00
739.9040, 14765.00
741.0540, 14903.00
742.2030, 15000.00
743.3530, 15025.00
744.5020, 15329.00
745.6520, 15471.00
746.8010, 15353.00
747.9490, 15584.33
749.0980, 15641.96
750.2470, 15845.00
751.3950, 15835.00
752.5440, 16119.00
753.6920, 16118.00
754.8400, 16378.00
755.9870, 16776.00
757.1350, 16516.00
758.2820, 16953.00
759.4300, 17147.00
760.5770, 17166.00
761.7240, 17376.00
762.8710, 17586.00
764.0170, 17574.00
765.1640, 17530.00
766.3100, 17643.00
767.4560, 17571.00
768.6020, 18001.00
769.7480, 17873.00
770.8940, 18010.00
772.0400, 17757.00
773.1850, 17861.00
774.3300, 17859.00
775.4750, 17843.00
776.6200, 17705.00
777.7650, 17644.00
778.9090, 17842.00
780.0540, 17384.00
781.1980, 17547.00
782.3420, 17438.00
783.4860, 17261.00
784.6300, 17315.00
785.7740, 17172.00
786.9170, 17297.00
788.0600, 17128.00
789.2030, 17121.00
790.3460, 17131.00
791.4890, 17099.00
792.6320, 17151.00
793.7740, 17059.00
794.9170, 17076.00
796.0590, 17222.00
797.2010, 16991.00
798.3430, 16916.00
799.4850, 17131.00
800.6260, 17158.00
801.7670, 17114.00
802.9090, 17263.00
804.0500, 17199.00
805.1910, 17336.00
806.3310, 17362.00
807.4720, 17527.00
808.6120, 17469.00
809.7530, 17464.00
810.8930, 17602.00
812.0330, 17757.00
813.1720, 17663.00
814.3120, 17829.00
815.4510, 17895.00
816.5910, 17930.00
817.7300, 17917.00
818.8690, 17829.00
820.0080, 17848.00
821.1460, 17979.00
822.2850, 17790.00
823.4230, 17688.00
824.5610, 17847.00
825.6990, 17769.00
826.8370, 17751.00
827.9750, 17634.00
829.1120, 17677.00
830.2500, 17461.00
831.3870, 17699.00
832.5240, 17456.00
833.6610, 17285.00
834.7980, 17429.00
835.9340, 17320.00
837.0700, 17317.00
838.2070, 17380.00
839.3430, 17385.00
840.4790, 17569.00
841.6140, 17570.95
842.7500, 17418.00
843.8850, 17655.00
845.0210, 17794.00
846.1560, 17816.00
847.2910, 18290.00
848.4260, 18189.00
849.5600, 18684.00
850.6950, 18757.00
851.8290, 19375.00
852.9630, 19563.00
854.0970, 19655.00
855.2310, 20093.00
856.3650, 20422.00
857.4980, 20519.00
858.6310, 20396.00
859.7650, 20510.00
860.8980, 20538.00
862.0310, 20466.00
863.1630, 20385.00
864.2960, 20244.00
865.4280, 20045.00
866.5600, 19971.52
867.6920, 20014.00
868.8240, 19773.00
869.9560, 19628.00
871.0880, 19556.00
872.2190, 19214.00
873.3500, 19436.00
874.4810, 19278.00
875.6120, 19092.00
876.7430, 19068.00
877.8740, 18980.00
879.0040, 19086.00
880.1340, 19149.00
881.2650, 19066.53
882.3950, 19107.00
883.5240, 18926.00
884.6540, 18983.00
885.7830, 18868.00
886.9130, 18885.00
888.0420, 18885.00
889.1710, 19012.00
890.3000, 18981.00
891.4280, 19044.00
892.5570, 18814.00
893.6850, 18919.00
894.8130, 18929.00
895.9420, 19060.00
897.0690, 18967.00
898.1970, 19223.00
899.3250, 19097.00
900.4520, 19107.00
901.5790, 19032.00
902.7060, 18936.00
903.8330, 18992.42
904.9600, 19123.00
906.0870, 19104.00
907.2130, 19088.00
908.3390, 19220.00
909.4650, 19281.00
910.5910, 19433.00
911.7170, 19500.00
912.8430, 19575.72
913.9680, 19594.00
915.0930, 19721.00
916.2180, 19772.55
917.3430, 19877.00
918.4680, 19996.00
919.5930, 20065.00
920.7170, 20238.00
921.8420, 20236.00
922.9660, 20378.00
924.0900, 20548.00
925.2140, 20526.00
926.3370, 20667.00
927.4610, 20542.00
928.5840, 20723.00
929.7070, 20626.00
930.8310, 20625.00
931.9530, 20643.00
933.0760, 20514.00
934.1990, 20618.00
935.3210, 20654.00
936.4430, 20543.00
937.5650, 20552.00
938.6870, 20465.00
939.8090, 20512.00
940.9310, 20384.00
942.0520, 20487.00
943.1730, 20497.00
944.2940, 20636.00
945.4150, 20466.00
946.5360, 20434.00
947.6570, 20329.00
948.7770, 20571.00
949.8970, 20494.00
951.0180, 20532.00
952.1370, 20439.00
953.2570, 20435.00
954.3770, 20537.00
955.4960, 20537.00
956.6160, 20453.00
957.7350, 20751.00
958.8540, 20804.00
959.9730, 20833.00
961.0910, 20785.00
962.2100, 20840.00
963.3280, 20922.00
964.4460, 20859.00
965.5640, 20785.00
966.6820, 21038.00
967.8000, 21113.00
968.9180, 21387.00
970.0350, 21496.00
971.1520, 21643.00
972.2690, 21675.00
973.3860, 21979.00
974.5030, 22195.00
975.6190, 22175.00
976.7360, 22492.00
977.8520, 22712.00
978.9680, 22889.00
980.0840, 23471.00
981.2000, 23715.00
982.3160, 24013.00
983.4310, 24525.00
984.5460, 24962.00
985.6610, 25397.00
986.7760, 26085.00
987.8910, 26878.00
989.0060, 27778.00
990.1200, 28410.00
991.2350, 29524.00
992.3490, 30554.00
993.4630, 32141.00
994.5760, 33126.00
995.6900, 34889.00
996.8040, 36714.00
997.9170, 38122.00
999.0300, 40258.00
1000.143, 42457.00
1001.256, 44376.00
1002.369, 46346.00
1003.481, 48229.00
1004.594, 49836.00
1005.706, 50996.00
1006.818, 51522.00
1007.930, 51812.00
1009.042, 50985.00
1010.153, 50161.00
1011.264, 47830.00
1012.376, 45743.00
1013.487, 43019.00
1014.598, 40211.00
1015.708, 37745.00
1016.819, 35187.00
1017.929, 32897.00
1019.040, 31267.71
1020.150, 29759.00
1021.260, 28648.00
1022.370, 27379.00
1023.479, 26655.00
1024.589, 25757.00
1025.698, 25204.00
1026.807, 25121.00
1027.916, 24472.00
1029.025, 24321.00
1030.133, 23791.00
1031.242, 23744.00
1032.350, 23613.00
1033.458, 23400.00
1034.566, 23422.00
1035.674, 23047.00
1036.782, 23311.00
1037.890, 23030.00
1038.997, 22960.00
1040.104, 22806.00
1041.211, 22392.00
1042.318, 22373.00
1043.425, 21875.00
1044.531, 21772.00
1045.638, 21437.00
1046.744, 21119.00
1047.850, 20863.00
1048.956, 20479.00
1050.061, 20146.00
1051.167, 19804.00
1052.272, 19660.00
1053.378, 19343.00
1054.483, 19114.00
1055.588, 18824.00
1056.692, 18725.00
1057.797, 18493.00
1058.901, 18432.00
1060.006, 18271.00
1061.110, 18073.00
1062.214, 17812.00
1063.318, 17649.00
1064.421, 17522.00
1065.525, 17454.00
1066.628, 17596.00
1067.731, 17518.00
1068.834, 17402.00
1069.937, 17126.00
1071.040, 17137.00
1072.142, 17078.00
1073.244, 17069.00
1074.347, 17011.00
1075.449, 16879.00
1076.550, 16864.00
1077.652, 16912.00
1078.754, 16945.00
1079.855, 16820.00
1080.956, 16826.00
1082.057, 16545.00
1083.158, 16508.00
1084.259, 16527.00
1085.359, 16629.00
1086.460, 16478.00
1087.560, 16531.00
1088.660, 16448.00
1089.760, 16472.00
1090.860, 16283.00
1091.959, 16223.00
1093.059, 16237.00
1094.158, 16232.00
1095.257, 16353.00
1096.356, 16041.00
1097.455, 16115.00
1098.553, 15875.00
1099.652, 16014.00
1100.750, 15837.00
1101.848, 15843.00
1102.946, 15810.00
1104.044, 15786.00
1105.141, 15740.00
1106.239, 15575.00
1107.336, 15663.00
1108.433, 15708.00
1109.530, 15527.00
1110.627, 15348.00
1111.724, 15277.00
1112.820, 15393.00
1113.917, 15285.00
1115.013, 15461.00
1116.109, 15204.00
1117.205, 15297.00
1118.300, 15309.00
1119.396, 15245.00
1120.491, 15105.00
1121.586, 15152.00
1122.681, 14918.00
1123.776, 14901.00
1124.871, 14768.00
1125.965, 14616.00
1127.060, 14085.00
1128.154, 14287.00
1129.248, 14006.00
1130.342, 14069.00
1131.436, 13797.00
1132.529, 13548.00
1133.623, 13327.00
1134.716, 13330.00
1135.809, 13269.00
1136.902, 13121.00
1137.995, 13091.60
1139.087, 12983.56
1140.180, 12891.00
1141.272, 12810.00
1142.364, 12618.00
1143.456, 12528.00
1144.548, 12607.00
1145.639, 12381.00
1146.731, 12430.00
1147.822, 12333.00
1148.913, 12141.00
1150.004, 12283.00
1151.095, 12203.00
1152.186, 12076.00
1153.276, 12042.00
1154.366, 11985.17
1155.457, 11957.95
1156.546, 11923.00
1157.636, 11955.00
1158.726, 11921.00
1159.815, 11927.00
1160.905, 11929.00
1161.994, 11933.00
1163.083, 12007.00
1164.172, 11943.00
1165.261, 11919.90
1166.349, 11790.00
1167.437, 11827.00
1168.526, 11824.00
1169.614, 11854.00
1170.702, 11824.00
1171.789, 11767.00
1172.877, 11751.00
1173.964, 11826.00
1175.051, 11667.00
1176.138, 11729.00
1177.225, 11843.00
1178.312, 11684.00
1179.399, 11730.00
1180.485, 11744.00
1181.571, 11880.00
1182.657, 11776.46
1183.743, 11711.00
1184.829, 11640.00
1185.915, 11674.00
1187.000, 11683.00
1188.085, 11642.00
1189.171, 11763.00
1190.255, 11819.00
1191.340, 11681.00
1192.425, 11767.00
1193.509, 11654.00
1194.594, 11687.00
1195.678, 11603.00
1196.762, 11707.00
1197.846, 11632.00
1198.929, 11575.00
1200.013, 11702.00
1201.096, 11689.00
1202.179, 11705.00
1203.262, 11784.00
1204.345, 11695.00
1205.428, 11730.52
1206.510, 11562.00
1207.593, 11635.00
1208.675, 11702.00
1209.757, 11504.00
1210.839, 11652.00
1211.920, 11642.00
1213.002, 11669.00
1214.083, 11791.00
1215.164, 11570.00
1216.245, 11621.00
1217.326, 11685.00
1218.407, 11727.00
1219.488, 11719.00
1220.568, 11712.00
1221.648, 11754.00
1222.728, 11535.00
1223.808, 11613.00
1224.888, 11532.00
1225.967, 11624.00
1227.047, 11681.00
1228.126, 11530.00
1229.205, 11739.00
1230.284, 11666.00
1231.363, 11664.00
1232.441, 11616.00
1233.520, 11622.00
1234.598, 11607.23
1235.676, 11639.00
1236.754, 11606.00
1237.832, 11623.00
1238.910, 11647.00
1239.987, 11658.00
1241.064, 11641.00
1242.141, 11624.00
1243.218, 11617.00
1244.295, 11590.93
1245.372, 11600.42
1246.448, 11555.00
1247.525, 11593.00
1248.601, 11604.00
1249.677, 11551.00
1250.753, 11667.00
1251.828, 11598.00
1252.904, 11542.00
1253.979, 11567.00
1255.054, 11415.00
1256.129, 11594.00
1257.204, 11556.00
1258.279, 11630.00
1259.353, 11591.00
1260.428, 11533.00
1261.502, 11564.00
1262.576, 11494.00
1263.650, 11596.00
1264.724, 11516.00
1265.797, 11660.00
1266.871, 11577.00
1267.944, 11515.00
1269.017, 11574.00
1270.090, 11566.00
1271.162, 11743.00
1272.235, 11437.00
1273.307, 11653.00
1274.380, 11555.00
1275.452, 11597.00
1276.524, 11516.00
1277.595, 11622.00
1278.667, 11599.00
1279.738, 11682.00
1280.810, 11571.00
1281.881, 11561.00
1282.952, 11413.00
1284.022, 11445.00
1285.093, 11536.00
1286.164, 11527.00
1287.234, 11572.00
1288.304, 11451.00
1289.374, 11458.00
1290.444, 11517.00
1291.513, 11445.24
1292.583, 11536.00
1293.652, 11447.00
1294.721, 11516.00
1295.790, 11613.00
1296.859, 11550.00
1297.928, 11645.00
1298.996, 11686.00
1300.064, 11594.00
1301.133, 11670.80
1302.201, 11610.32
1303.268, 11718.00
1304.336, 11528.00
1305.404, 11575.00
1306.471, 11529.00
1307.538, 11554.00
1308.605, 11583.87
1309.672, 11656.00
1310.739, 11637.00
1311.805, 11618.00
1312.872, 11605.00
1313.938, 11655.00
1315.004, 11682.00
1316.070, 11746.00
1317.135, 11640.00
1318.201, 11734.00
1319.266, 11616.00
1320.332, 11711.00
1321.397, 11715.00
1322.462, 11736.00
1323.526, 11713.00
1324.591, 11688.00
1325.655, 11642.00
1326.720, 11742.00
1327.784, 11691.00
1328.848, 11615.00
1329.911, 11639.00
1330.975, 11770.00
1332.038, 11690.00
1333.102, 11764.00
1334.165, 11708.00
1335.228, 11744.00
1336.290, 11728.00
1337.353, 11704.00
1338.415, 11737.82
1339.478, 11721.00
1340.540, 11766.00
1341.602, 11768.00
1342.664, 11756.00
1343.725, 11831.00
1344.787, 11657.00
1345.848, 11865.00
1346.909, 11671.00
1347.970, 11727.00
1349.031, 11650.00
1350.092, 11753.00
1351.152, 11722.00
1352.212, 11801.00
1353.273, 11731.00
1354.333, 11716.00
1355.392, 11701.00
1356.452, 11651.00
1357.512, 11706.00
1358.571, 11750.00
1359.630, 11729.00
1360.689, 11735.00
1361.748, 11639.00
1362.807, 11575.00
1363.865, 11743.00
1364.924, 11578.00
1365.982, 11621.00
1367.040, 11740.00
1368.098, 11721.00
1369.155, 11824.00
1370.213, 11733.00
1371.270, 11703.00
1372.328, 11649.00
1373.385, 11716.00
1374.442, 11748.00
1375.498, 11680.00
1376.555, 11653.00
1377.611, 11661.00
1378.668, 11694.00
1379.724, 11748.00
1380.780, 11783.00
1381.835, 11783.00
1382.891, 11625.00
1383.946, 11728.00
1385.002, 11642.00
1386.057, 11737.00
1387.112, 11740.19
1388.166, 11828.00
1389.221, 11745.00
1390.275, 11756.00
1391.330, 11689.00
1392.384, 11685.00
1393.438, 11813.00
1394.492, 11747.00
1395.545, 11617.00
1396.599, 11724.00
1397.652, 11627.00
1398.705, 11795.00
1399.758, 11657.00
1400.811, 11774.00
1401.863, 11639.00
1402.916, 11793.00
1403.968, 11792.00
1405.020, 11714.00
1406.072, 11752.00
1407.124, 11764.39
1408.176, 11815.00
1409.227, 11827.00
1410.279, 11781.00
1411.330, 11763.00
1412.381, 11640.00
1413.432, 11693.89
1414.482, 11701.00
1415.533, 11777.00
1416.583, 11737.00
1417.633, 11807.00
1418.684, 11619.00
1419.733, 11879.00
1420.783, 11709.00
1421.833, 11732.00
1422.882, 11993.00
1423.931, 11683.00
1424.980, 11814.00
1426.029, 11869.00
1427.078, 11847.00
1428.126, 11894.71
1429.175, 11709.00
1430.223, 11848.00
1431.271, 11749.00
1432.319, 11648.00
1433.367, 11693.00
1434.414, 11711.00
1435.462, 11689.00
1436.509, 11752.00
1437.556, 11796.00
1438.603, 11817.00
1439.650, 11662.00
1440.696, 11784.00
1441.743, 11582.00
1442.789, 11761.00
1443.835, 11847.00
1444.881, 11752.00
1445.927, 11810.00
1446.972, 11798.00
1448.018, 11662.00
1449.063, 11729.00
1450.108, 11571.00
1451.153, 11707.00
1452.198, 11738.00
1453.243, 11777.00
1454.287, 11566.00
1455.331, 11683.00
1456.376, 11539.00
1457.420, 11659.00
1458.463, 11715.00
1459.507, 11647.00
1460.550, 11625.00
1461.594, 11592.00
1462.637, 11610.00
1463.680, 11505.00
1464.723, 11593.63
1465.765, 11553.86
1466.808, 11801.00
1467.850, 11503.00
1468.892, 11724.00
1469.934, 11612.00
1470.976, 11838.00
1472.018, 11736.00
1473.060, 11658.00
1474.101, 11741.00
1475.142, 11746.00
1476.183, 11630.00
1477.224, 11728.00
1478.265, 11622.00
1479.305, 11675.00
1480.346, 11664.00
1481.386, 11753.00
1482.426, 11589.00
1483.466, 11655.00
1484.505, 11626.00
1485.545, 11665.00
1486.584, 11600.00
1487.624, 11674.00
1488.663, 11777.00
1489.702, 11711.00
1490.740, 11752.00
1491.779, 11710.00
1492.817, 11705.00
1493.856, 11796.00
1494.894, 11783.00
1495.932, 11928.00
1496.969, 11681.00
1498.007, 11927.00
1499.044, 11723.00
1500.082, 11817.00
1501.119, 11750.00
1502.156, 11709.00
1503.192, 11939.00
1504.229, 11748.00
1505.265, 11777.00
1506.302, 11843.00
1507.338, 11826.00
1508.374, 11843.39
1509.410, 11838.87
1510.445, 11845.00
1511.481, 11769.00
1512.516, 11798.00
1513.551, 11694.00
1514.586, 11843.00
1515.621, 11719.00
1516.655, 11852.00
1517.690, 11822.00
1518.724, 11721.00
1519.758, 11699.00
1520.792, 11774.00
1521.826, 11682.00
1522.860, 11711.31
1523.893, 11813.00
1524.927, 11708.00
1525.960, 11765.00
1526.993, 11787.00
1528.026, 11742.00
1529.058, 11727.00
1530.091, 11731.32
1531.123, 11759.00
1532.155, 11728.00
1533.187, 11762.00
1534.219, 11759.00
1535.251, 11757.00
1536.282, 11766.80
1537.314, 11722.00
1538.345, 11781.00
1539.376, 11735.00
1540.407, 11771.00
1541.438, 11770.75
1542.468, 11565.24
1543.499, 11711.00
1544.529, 11793.24
1545.559, 11815.36
1546.589, 11597.33
1547.618, 11689.40
1548.648, 11657.20
1549.677, 11619.91
1550.707, 11755.63
1551.736, 11572.53
1552.765, 11705.51
1553.793, 11712.32
1554.822, 11776.87
1555.850, 11716.37
1556.879, 11694.50
1557.907, 11797.72
1558.935, 11831.67
1559.962, 11744.00
1560.990, 11704.00
1562.017, 11761.00
1563.045, 11721.00
##END=



