##NAMES=Augite
##RRUFFID=R061108
##IDEAL CHEMISTRY=(Ca,Mg,Fe^2+^,Fe^3+^)_2_(Si,Al)_2_O_6_
##LOCALITY=Monti Rossi, near Mt. Etna, Sicily, Italy
##OWNER=RRUFF
##SOURCE=Michael Scott
##DESCRIPTION=Euhedral, short prismatic, black crystals in vesicular basalt.
##STATUS=The identification of this mineral is confirmed by single-crystal X-ray diffraction and chemical analysis.
##URL=rruff.info/R061108
##MEASURED CHEMISTRY=(Ca_0.86_Mg_0.74_Fe^2+^_0.18_Fe^3+^_0.08_Al_0.05_Ti_0.04_Na_0.04_Mn_0.01_)_Σ=2_(Si_1.83_Al_0.17_)_Σ=2_O_6_
##PIN_ID=L01364
##ORIENTATION=Laser parallel to b* (0 1 0). Fiducial mark perpendicular to laser is parallel to c [0 0 1]
163.5600, 14532.00
164.7860, 14756.00
166.0120, 14940.00
167.2380, 14792.00
168.4640, 14851.00
169.6890, 15025.00
170.9150, 15199.00
172.1400, 15325.00
173.3650, 15251.00
174.5900, 15333.00
175.8150, 15374.00
177.0400, 15425.00
178.2640, 15483.00
179.4880, 15612.00
180.7130, 15561.00
181.9370, 15528.00
183.1600, 15385.00
184.3840, 15175.00
185.6080, 15288.00
186.8310, 15407.00
188.0540, 15673.00
189.2770, 15425.00
190.5000, 15534.00
191.7230, 15408.00
192.9460, 15527.00
194.1680, 15362.00
195.3910, 15582.00
196.6130, 15649.00
197.8350, 15409.00
199.0570, 15355.00
200.2780, 15286.00
201.5000, 15395.00
202.7210, 15437.00
203.9420, 15424.00
205.1640, 14989.00
206.3840, 14432.00
207.6050, 14291.00
208.8260, 14210.00
210.0460, 14134.00
211.2670, 14241.00
212.4870, 14175.00
213.7070, 14378.00
214.9270, 14399.00
216.1460, 14291.00
217.3660, 14284.00
218.5850, 14405.00
219.8050, 14363.00
221.0240, 14361.00
222.2430, 14533.00
223.4610, 14522.00
224.6800, 14606.00
225.8980, 14740.00
227.1170, 14818.00
228.3350, 14893.00
229.5530, 14919.00
230.7710, 15027.00
231.9880, 15046.00
233.2060, 15033.00
234.4230, 15244.00
235.6400, 15092.00
236.8570, 15163.00
238.0740, 15207.00
239.2910, 15176.00
240.5080, 15305.00
241.7240, 15325.00
242.9400, 15561.00
244.1570, 15221.00
245.3730, 15417.00
246.5880, 15606.00
247.8040, 15633.00
249.0190, 15828.00
250.2350, 15690.00
251.4500, 15739.00
252.6650, 15758.00
253.8800, 15840.00
255.0950, 15596.00
256.3090, 15782.00
257.5240, 15685.00
258.7380, 16000.00
259.9520, 15727.98
261.1660, 15545.54
262.3800, 15380.00
263.5930, 15216.20
264.8070, 15059.00
266.0200, 14995.00
267.2330, 14900.00
268.4460, 14855.00
269.6590, 14894.00
270.8720, 14877.00
272.0850, 14939.00
273.2970, 14905.00
274.5090, 14956.00
275.7210, 15115.00
276.9330, 14956.00
278.1450, 14971.00
279.3570, 15180.00
280.5680, 15057.00
281.7790, 15436.00
282.9910, 15466.00
284.2020, 15424.00
285.4120, 15626.00
286.6230, 15707.00
287.8340, 15836.00
289.0440, 16025.00
290.2540, 16045.00
291.4640, 16191.00
292.6740, 16358.00
293.8840, 16592.00
295.0940, 16885.00
296.3030, 17087.00
297.5120, 17266.00
298.7210, 17634.33
299.9300, 17921.00
301.1390, 18353.00
302.3480, 18680.00
303.5560, 19075.00
304.7650, 19535.00
305.9730, 20055.00
307.1810, 20814.00
308.3890, 21355.12
309.5970, 21955.75
310.8040, 22761.00
312.0120, 23235.00
313.2190, 24140.00
314.4260, 25064.00
315.6330, 25412.00
316.8400, 26178.00
318.0460, 27132.00
319.2530, 27922.00
320.4590, 28513.00
321.6650, 29030.00
322.8710, 29654.00
324.0770, 29776.00
325.2830, 29939.00
326.4880, 29564.00
327.6940, 29741.00
328.8990, 29286.00
330.1040, 29355.00
331.3090, 28620.00
332.5140, 28579.00
333.7180, 28070.00
334.9230, 27599.00
336.1270, 27120.00
337.3310, 26598.00
338.5350, 26245.00
339.7390, 25989.00
340.9430, 25580.00
342.1460, 25431.00
343.3500, 25463.00
344.5530, 25122.00
345.7560, 25104.00
346.9590, 24992.00
348.1620, 24787.00
349.3640, 24817.00
350.5670, 24746.00
351.7690, 24439.00
352.9710, 24381.00
354.1730, 24125.00
355.3750, 23778.00
356.5760, 23633.00
357.7780, 23254.00
358.9790, 23111.00
360.1800, 22746.00
361.3810, 22306.00
362.5820, 21874.00
363.7830, 21867.00
364.9830, 21505.00
366.1840, 21247.00
367.3840, 20997.00
368.5840, 20643.00
369.7840, 20569.00
370.9840, 20451.00
372.1830, 20446.00
373.3830, 20519.00
374.5820, 20557.00
375.7810, 20761.00
376.9800, 20860.00
378.1790, 21140.00
379.3780, 21219.00
380.5760, 21590.00
381.7750, 21977.00
382.9730, 22208.00
384.1710, 22481.00
385.3690, 22751.00
386.5660, 22980.00
387.7640, 23084.00
388.9610, 23206.00
390.1590, 23051.08
391.3560, 22794.00
392.5530, 22476.00
393.7500, 21972.00
394.9460, 21383.00
396.1430, 20834.64
397.3390, 19972.00
398.5350, 19457.00
399.7310, 18669.00
400.9270, 17791.00
402.1230, 17529.00
403.3180, 16902.00
404.5140, 16505.00
405.7090, 16085.00
406.9040, 15788.00
408.0990, 15494.28
409.2930, 15159.00
410.4880, 15022.00
411.6820, 14914.00
412.8770, 14705.00
414.0710, 14668.00
415.2650, 14440.00
416.4590, 14432.00
417.6520, 14376.00
418.8460, 14433.00
420.0390, 14357.00
421.2320, 14332.00
422.4250, 14211.00
423.6180, 14219.00
424.8110, 14022.00
426.0030, 14142.00
427.1960, 14078.00
428.3880, 13941.00
429.5800, 13970.00
430.7720, 13915.00
431.9640, 13826.00
433.1550, 13774.00
434.3470, 13704.00
435.5380, 13679.00
436.7290, 13597.00
437.9200, 13708.00
439.1110, 13647.00
440.3020, 13573.00
441.4920, 13373.00
442.6820, 13407.20
443.8730, 13430.00
445.0630, 13400.00
446.2530, 13384.00
447.4420, 13377.00
448.6320, 13374.78
449.8210, 13355.00
451.0100, 13393.00
452.2000, 13461.00
453.3880, 13482.00
454.5770, 13670.00
455.7660, 13617.57
456.9540, 13482.00
458.1430, 13625.00
459.3310, 13486.00
460.5190, 13562.00
461.7070, 13598.00
462.8940, 13749.00
464.0820, 13553.00
465.2690, 13784.00
466.4560, 13659.00
467.6430, 13501.00
468.8300, 13526.00
470.0170, 13580.00
471.2040, 13470.00
472.3900, 13525.00
473.5760, 13384.00
474.7620, 13452.00
475.9480, 13699.00
477.1340, 13549.00
478.3200, 13532.00
479.5050, 13694.00
480.6900, 13601.00
481.8750, 13620.00
483.0600, 13682.00
484.2450, 13654.00
485.4300, 13761.00
486.6140, 13762.00
487.7990, 13929.00
488.9830, 14106.00
490.1670, 14116.00
491.3510, 14346.00
492.5350, 14490.00
493.7180, 14826.00
494.9020, 14939.00
496.0850, 15197.00
497.2680, 15578.00
498.4510, 15940.00
499.6340, 16408.00
500.8160, 16779.00
501.9990, 17327.00
503.1810, 17507.00
504.3630, 17934.00
505.5450, 17819.00
506.7270, 17949.00
507.9090, 17962.00
509.0900, 17566.00
510.2720, 17461.00
511.4530, 17313.00
512.6340, 16974.00
513.8150, 16733.00
514.9950, 16663.00
516.1760, 16657.00
517.3560, 16451.00
518.5370, 16389.00
519.7170, 16443.00
520.8970, 16478.00
522.0770, 16585.92
523.2560, 16685.00
524.4360, 16819.00
525.6150, 17004.00
526.7940, 16996.00
527.9730, 17115.00
529.1520, 17140.00
530.3310, 17346.00
531.5090, 17401.00
532.6870, 17347.00
533.8660, 17409.40
535.0440, 17253.00
536.2210, 17289.00
537.3990, 17297.00
538.5770, 17099.00
539.7540, 16906.00
540.9310, 16803.00
542.1080, 16730.00
543.2850, 16561.00
544.4620, 16408.00
545.6390, 16396.00
546.8150, 16245.00
547.9920, 16126.00
549.1680, 16100.00
550.3440, 16017.00
551.5190, 15966.00
552.6950, 15983.00
553.8710, 15784.00
555.0460, 15650.00
556.2210, 15614.00
557.3960, 15513.95
558.5710, 15493.06
559.7460, 15454.00
560.9200, 15480.00
562.0950, 15489.00
563.2690, 15499.00
564.4430, 15397.00
565.6170, 15345.91
566.7910, 15246.00
567.9640, 15118.00
569.1380, 15007.00
570.3110, 14832.00
571.4840, 14913.00
572.6570, 14844.00
573.8300, 14627.00
575.0030, 14523.00
576.1750, 14300.00
577.3470, 14156.00
578.5200, 13998.00
579.6920, 13880.00
580.8630, 13690.00
582.0350, 13483.88
583.2070, 13224.00
584.3780, 13046.00
585.5490, 12817.00
586.7200, 12648.00
587.8910, 12599.00
589.0620, 12411.00
590.2330, 12339.00
591.4030, 12197.42
592.5730, 11922.00
593.7430, 11943.00
594.9130, 11688.00
596.0830, 11602.00
597.2530, 11667.00
598.4220, 11660.00
599.5920, 11659.00
600.7610, 11502.00
601.9300, 11619.00
603.0990, 11566.00
604.2670, 11778.00
605.4360, 11734.00
606.6040, 11794.00
607.7720, 11806.00
608.9400, 11867.00
610.1080, 11895.63
611.2760, 11931.10
612.4440, 11949.00
613.6110, 12015.00
614.7780, 12018.00
615.9450, 12080.00
617.1120, 12214.00
618.2790, 12201.00
619.4460, 12480.00
620.6120, 12314.00
621.7780, 12357.00
622.9450, 12684.00
624.1110, 12842.00
625.2760, 12873.00
626.4420, 13153.00
627.6080, 13168.00
628.7730, 13428.00
629.9380, 13729.00
631.1030, 13849.00
632.2680, 14001.00
633.4330, 14461.00
634.5970, 14695.00
635.7620, 14904.00
636.9260, 15415.00
638.0900, 15926.00
639.2540, 16429.00
640.4180, 16994.00
641.5810, 17803.00
642.7450, 18638.00
643.9080, 19309.00
645.0710, 20401.00
646.2340, 21567.00
647.3970, 22776.00
648.5590, 24483.00
649.7220, 26229.00
650.8840, 28367.00
652.0460, 30796.00
653.2080, 33556.00
654.3700, 36403.00
655.5320, 40173.00
656.6930, 43474.00
657.8550, 47459.00
659.0160, 51251.00
660.1770, 55100.00
661.3380, 58328.00
662.4990, 61133.00
663.6590, 62390.00
664.8200, 62429.00
665.9800, 62120.00
667.1400, 60137.00
668.3000, 57349.00
669.4600, 53992.00
670.6190, 49540.00
671.7790, 45366.00
672.9380, 41027.00
674.0970, 37183.00
675.2560, 34061.00
676.4150, 31003.00
677.5740, 28296.00
678.7320, 26284.00
679.8900, 24357.00
681.0490, 23068.00
682.2070, 21849.00
683.3640, 20337.00
684.5220, 19718.00
685.6800, 18814.00
686.8370, 18060.00
687.9940, 17714.00
689.1510, 17210.00
690.3080, 16793.00
691.4650, 16426.00
692.6220, 16246.00
693.7780, 15995.00
694.9340, 15887.00
696.0900, 15679.00
697.2460, 15533.00
698.4020, 15613.00
699.5580, 15488.00
700.7130, 15442.00
701.8680, 15497.00
703.0240, 15553.00
704.1790, 15609.00
705.3330, 15590.52
706.4880, 15595.00
707.6430, 15528.00
708.7970, 15501.00
709.9510, 15454.00
711.1050, 15365.33
712.2590, 15368.00
713.4130, 15212.00
714.5660, 15053.00
715.7200, 15030.00
716.8730, 14778.00
718.0260, 14676.00
719.1790, 14421.00
720.3320, 14181.00
721.4840, 14023.42
722.6370, 13912.00
723.7890, 13599.00
724.9410, 13484.00
726.0930, 13186.00
727.2450, 13153.00
728.3960, 12897.00
729.5480, 12867.00
730.6990, 12866.00
731.8500, 12769.00
733.0010, 12710.00
734.1520, 12614.00
735.3030, 12591.00
736.4530, 12655.00
737.6040, 12716.00
738.7540, 12728.85
739.9040, 12786.00
741.0540, 12812.00
742.2030, 12872.00
743.3530, 12947.00
744.5020, 13119.00
745.6520, 13233.00
746.8010, 13359.00
747.9490, 13440.00
749.0980, 13547.00
750.2470, 13639.00
751.3950, 13744.00
752.5440, 13991.00
753.6920, 14057.00
754.8400, 14042.00
755.9870, 14296.00
757.1350, 14530.00
758.2820, 14636.00
759.4300, 14596.00
760.5770, 14927.00
761.7240, 14862.00
762.8710, 14983.00
764.0170, 15032.00
765.1640, 15114.00
766.3100, 15166.00
767.4560, 15364.00
768.6020, 15403.00
769.7480, 15402.00
770.8940, 15316.00
772.0400, 15329.44
773.1850, 15433.00
774.3300, 15317.00
775.4750, 15376.00
776.6200, 15477.00
777.7650, 15427.00
778.9090, 15384.00
780.0540, 15401.00
781.1980, 15287.00
782.3420, 15284.00
783.4860, 15205.00
784.6300, 15124.00
785.7740, 15131.72
786.9170, 15225.00
788.0600, 15145.00
789.2030, 15201.00
790.3460, 15273.00
791.4890, 15207.00
792.6320, 15140.00
793.7740, 15205.00
794.9170, 15241.00
796.0590, 15365.00
797.2010, 15299.73
798.3430, 15312.00
799.4850, 15211.00
800.6260, 15251.00
801.7670, 15261.00
802.9090, 15319.00
804.0500, 15472.00
805.1910, 15500.04
806.3310, 15690.64
807.4720, 15817.76
808.6120, 15884.72
809.7530, 15711.56
810.8930, 15848.48
812.0330, 15861.12
813.1720, 15868.62
814.3120, 16049.18
815.4510, 15910.87
816.5910, 16088.69
817.7300, 16140.29
818.8690, 16249.65
820.0080, 16124.00
821.1460, 16100.00
822.2850, 16104.00
823.4230, 16163.00
824.5610, 16234.00
825.6990, 16129.00
826.8370, 16033.00
827.9750, 16098.00
829.1120, 16178.00
830.2500, 16061.00
831.3870, 16138.00
832.5240, 15835.00
833.6610, 15771.00
834.7980, 15828.00
835.9340, 15975.00
837.0700, 15993.00
838.2070, 15603.00
839.3430, 15741.00
840.4790, 15713.00
841.6140, 15709.00
842.7500, 15912.00
843.8850, 15834.00
845.0210, 15896.00
846.1560, 16063.00
847.2910, 16247.00
848.4260, 16295.00
849.5600, 16458.00
850.6950, 16724.00
851.8290, 17027.00
852.9630, 17267.00
854.0970, 17369.00
855.2310, 17549.00
856.3650, 17844.00
857.4980, 18065.00
858.6310, 17961.00
859.7650, 18239.00
860.8980, 18235.00
862.0310, 18119.00
863.1630, 18050.00
864.2960, 17921.00
865.4280, 17913.00
866.5600, 18002.00
867.6920, 17586.00
868.8240, 17734.00
869.9560, 17279.00
871.0880, 17357.00
872.2190, 17314.00
873.3500, 17022.00
874.4810, 17258.00
875.6120, 17042.00
876.7430, 17141.00
877.8740, 16996.00
879.0040, 16915.00
880.1340, 16993.00
881.2650, 16967.00
882.3950, 17088.00
883.5240, 16963.00
884.6540, 16890.00
885.7830, 17027.00
886.9130, 16997.89
888.0420, 17010.47
889.1710, 17107.00
890.3000, 17060.00
891.4280, 17032.00
892.5570, 17137.00
893.6850, 17152.00
894.8130, 17249.00
895.9420, 17018.00
897.0690, 17119.00
898.1970, 17110.00
899.3250, 17146.00
900.4520, 17122.00
901.5790, 17256.00
902.7060, 17198.00
903.8330, 17425.00
904.9600, 17278.00
906.0870, 17490.00
907.2130, 17335.00
908.3390, 17332.00
909.4650, 17395.00
910.5910, 17492.00
911.7170, 17477.00
912.8430, 17638.00
913.9680, 17569.00
915.0930, 17616.00
916.2180, 17934.00
917.3430, 17997.00
918.4680, 18027.00
919.5930, 18163.00
920.7170, 18332.00
921.8420, 18364.00
922.9660, 18486.00
924.0900, 18676.00
925.2140, 18624.00
926.3370, 18630.00
927.4610, 18653.00
928.5840, 18758.00
929.7070, 18785.00
930.8310, 18789.00
931.9530, 18983.00
933.0760, 18924.00
934.1990, 18969.29
935.3210, 18803.00
936.4430, 18933.00
937.5650, 18864.00
938.6870, 18779.00
939.8090, 18715.00
940.9310, 18714.00
942.0520, 18604.00
943.1730, 18909.00
944.2940, 19162.00
945.4150, 18973.71
946.5360, 18931.00
947.6570, 18651.00
948.7770, 18835.00
949.8970, 18573.00
951.0180, 18598.00
952.1370, 18702.00
953.2570, 18639.00
954.3770, 18875.00
955.4960, 18684.00
956.6160, 18874.00
957.7350, 18765.00
958.8540, 18858.00
959.9730, 18796.00
961.0910, 18853.00
962.2100, 19040.00
963.3280, 19109.00
964.4460, 19171.00
965.5640, 19323.31
966.6820, 19332.00
967.8000, 19545.00
968.9180, 19659.00
970.0350, 19726.00
971.1520, 19805.00
972.2690, 20143.00
973.3860, 20176.00
974.5030, 20576.00
975.6190, 20769.00
976.7360, 20899.00
977.8520, 21042.00
978.9680, 21388.79
980.0840, 21777.00
981.2000, 22157.00
982.3160, 22590.00
983.4310, 23092.00
984.5460, 23718.00
985.6610, 24035.00
986.7760, 24918.00
987.8910, 25970.00
989.0060, 26768.00
990.1200, 27304.00
991.2350, 28583.00
992.3490, 29931.00
993.4630, 31178.00
994.5760, 33017.00
995.6900, 34541.00
996.8040, 36454.00
997.9170, 38315.00
999.0300, 40678.00
1000.143, 42754.00
1001.256, 45226.00
1002.369, 47785.00
1003.481, 50286.00
1004.594, 52461.00
1005.706, 54122.00
1006.818, 55482.00
1007.930, 56115.00
1009.042, 56341.00
1010.153, 55315.00
1011.264, 53901.00
1012.376, 51114.00
1013.487, 48373.00
1014.598, 45162.00
1015.708, 41804.00
1016.819, 38412.00
1017.929, 35482.00
1019.040, 32800.00
1020.150, 30700.00
1021.260, 28695.00
1022.370, 27346.00
1023.479, 25992.00
1024.589, 25076.00
1025.698, 24290.00
1026.807, 23234.00
1027.916, 23062.00
1029.025, 22463.00
1030.133, 22047.00
1031.242, 21744.00
1032.350, 21302.00
1033.458, 21389.00
1034.566, 21088.00
1035.674, 20952.00
1036.782, 20683.00
1037.890, 20454.00
1038.997, 20356.00
1040.104, 20146.00
1041.211, 20043.00
1042.318, 19893.00
1043.425, 19546.00
1044.531, 19156.00
1045.638, 18875.00
1046.744, 18597.00
1047.850, 18535.00
1048.956, 18122.00
1050.061, 17909.00
1051.167, 17866.00
1052.272, 17412.00
1053.378, 17423.00
1054.483, 16996.00
1055.588, 16865.18
1056.692, 16961.00
1057.797, 16570.00
1058.901, 16358.00
1060.006, 16241.00
1061.110, 16065.00
1062.214, 15912.00
1063.318, 15813.00
1064.421, 15940.00
1065.525, 15678.00
1066.628, 15664.00
1067.731, 15407.00
1068.834, 15392.00
1069.937, 15374.00
1071.040, 15293.00
1072.142, 15271.00
1073.244, 14988.00
1074.347, 15094.00
1075.449, 14777.00
1076.550, 14989.00
1077.652, 14920.00
1078.754, 14787.00
1079.855, 14878.00
1080.956, 14587.00
1082.057, 14637.00
1083.158, 14571.00
1084.259, 14571.00
1085.359, 14478.00
1086.460, 14415.00
1087.560, 14356.00
1088.660, 14295.00
1089.760, 14231.84
1090.860, 14165.43
1091.959, 14114.00
1093.059, 14040.00
1094.158, 13998.00
1095.257, 13962.50
1096.356, 13910.09
1097.455, 13874.35
1098.553, 13834.00
1099.652, 13780.00
1100.750, 13752.00
1101.848, 13674.49
1102.946, 13633.44
1104.044, 13581.00
1105.141, 13556.00
1106.239, 13532.00
1107.336, 13554.00
1108.433, 13418.00
1109.530, 13391.00
1110.627, 13319.00
1111.724, 13355.00
1112.820, 13301.00
1113.917, 13143.00
1115.013, 13224.00
1116.109, 13124.00
1117.205, 13029.00
1118.300, 13039.00
1119.396, 13091.00
1120.491, 12995.00
1121.586, 12944.00
1122.681, 12878.00
1123.776, 12767.00
1124.871, 12691.00
1125.965, 12507.00
1127.060, 12337.00
1128.154, 12139.00
1129.248, 11966.00
1130.342, 11826.78
1131.436, 11667.71
1132.529, 11557.00
1133.623, 11426.75
1134.716, 11279.00
1135.809, 11226.00
1136.902, 11125.00
1137.995, 10956.00
1139.087, 10890.00
1140.180, 10846.00
1141.272, 10709.00
1142.364, 10655.00
1143.456, 10604.00
1144.548, 10593.00
1145.639, 10426.00
1146.731, 10381.00
1147.822, 10381.00
1148.913, 10305.00
1150.004, 10348.00
1151.095, 10153.00
1152.186, 10059.00
1153.276, 9999.000
1154.366, 9996.000
1155.457, 10125.00
1156.546, 10002.00
1157.636, 10005.54
1158.726, 9983.157
1159.815, 9936.000
1160.905, 9885.000
1161.994, 9966.000
1163.083, 9918.000
1164.172, 9872.000
1165.261, 9825.000
1166.349, 9909.000
1167.437, 9841.988
1168.526, 9847.451
1169.614, 9787.000
1170.702, 9832.000
1171.789, 9784.000
1172.877, 9812.000
1173.964, 9749.000
1175.051, 9675.000
1176.138, 9671.000
1177.225, 9642.000
1178.312, 9752.000
1179.399, 9752.000
1180.485, 9754.000
1181.571, 9688.000
1182.657, 9636.000
1183.743, 9630.799
1184.829, 9671.000
1185.915, 9620.000
1187.000, 9692.000
1188.085, 9735.000
1189.171, 9589.000
1190.255, 9678.000
1191.340, 9774.000
1192.425, 9792.000
1193.509, 9581.000
1194.594, 9545.000
1195.678, 9631.000
1196.762, 9651.000
1197.846, 9701.000
1198.929, 9705.704
1200.013, 9706.910
1201.096, 9689.000
1202.179, 9661.000
1203.262, 9650.000
1204.345, 9579.000
1205.428, 9670.000
1206.510, 9634.000
1207.593, 9620.000
1208.675, 9688.000
1209.757, 9648.000
1210.839, 9595.000
1211.920, 9667.000
1213.002, 9743.000
1214.083, 9504.000
1215.164, 9676.000
1216.245, 9714.000
1217.326, 9754.000
1218.407, 9543.000
1219.488, 9560.000
1220.568, 9596.000
1221.648, 9764.000
1222.728, 9702.000
1223.808, 9677.000
1224.888, 9497.000
1225.967, 9639.000
1227.047, 9652.000
1228.126, 9734.000
1229.205, 9537.000
1230.284, 9555.000
1231.363, 9660.000
1232.441, 9594.000
1233.520, 9722.000
1234.598, 9632.000
1235.676, 9699.000
1236.754, 9693.000
1237.832, 9721.000
1238.910, 9637.000
1239.987, 9606.000
1241.064, 9637.000
1242.141, 9593.000
1243.218, 9656.000
1244.295, 9641.091
1245.372, 9584.000
1246.448, 9651.000
1247.525, 9622.000
1248.601, 9631.000
1249.677, 9643.000
1250.753, 9569.000
1251.828, 9626.000
1252.904, 9582.000
1253.979, 9586.000
1255.054, 9689.000
1256.129, 9564.000
1257.204, 9688.000
1258.279, 9621.000
1259.353, 9480.976
1260.428, 9629.186
1261.502, 9713.867
1262.576, 9738.436
1263.650, 9522.849
1264.724, 9617.373
1265.797, 9587.616
1266.871, 9552.766
1267.944, 9690.934
1269.017, 9510.273
1270.090, 9645.698
1271.162, 9654.944
1272.235, 9721.941
1273.307, 9663.889
1274.380, 9644.462
1275.452, 9750.118
1276.524, 9630.000
1277.595, 9697.000
1278.667, 9770.000
1279.738, 9631.000
1280.810, 9569.000
1281.881, 9569.936
1282.952, 9529.012
1284.022, 9559.000
1285.093, 9561.000
1286.164, 9635.000
1287.234, 9679.000
1288.304, 9619.000
1289.374, 9738.000
1290.444, 9661.778
1291.513, 9610.000
1292.583, 9559.000
1293.652, 9672.000
1294.721, 9614.000
1295.790, 9795.000
1296.859, 9784.000
1297.928, 9671.000
1298.996, 9628.000
1300.064, 9575.000
1301.133, 9665.000
1302.201, 9632.000
1303.268, 9690.000
1304.336, 9602.000
1305.404, 9687.000
1306.471, 9567.000
1307.538, 9717.000
1308.605, 9597.000
1309.672, 9620.000
1310.739, 9726.000
1311.805, 9483.961
1312.872, 9650.175
1313.938, 9752.847
1315.004, 9795.405
1316.070, 9597.806
1317.135, 9710.302
1318.201, 9698.537
1319.266, 9681.655
1320.332, 9837.817
1321.397, 9749.000
1322.462, 9838.000
1323.526, 9749.000
1324.591, 9825.553
1325.655, 9723.000
1326.720, 9837.000
1327.784, 9764.000
1328.848, 9626.000
1329.911, 9975.000
1330.975, 9908.000
1332.038, 9784.000
1333.102, 9848.015
1334.165, 9786.860
1335.228, 9757.000
1336.290, 9801.000
1337.353, 9757.700
1338.415, 9773.556
1339.478, 9770.000
1340.540, 9781.000
1341.602, 9846.000
1342.664, 9851.000
1343.725, 9819.000
1344.787, 9841.724
1345.848, 9790.000
1346.909, 9829.000
1347.970, 9776.000
1349.031, 9776.000
1350.092, 9816.000
1351.152, 9693.000
1352.212, 9843.000
1353.273, 9775.000
1354.333, 9844.000
1355.392, 9720.000
1356.452, 9823.000
1357.512, 9847.000
1358.571, 9786.000
1359.630, 9916.000
1360.689, 9837.000
1361.748, 9756.000
1362.807, 9832.000
1363.865, 9795.000
1364.924, 9814.000
1365.982, 9853.000
1367.040, 9832.643
1368.098, 9897.000
1369.155, 9829.000
1370.213, 9744.000
1371.270, 9724.000
1372.328, 9789.000
1373.385, 9754.000
1374.442, 9782.000
1375.498, 9779.000
1376.555, 9863.000
1377.611, 9859.000
1378.668, 9886.000
1379.724, 9818.000
1380.780, 9811.812
1381.835, 9859.000
1382.891, 9776.000
1383.946, 9786.000
1385.002, 9846.000
1386.057, 9888.000
1387.112, 9795.000
1388.166, 9726.000
1389.221, 9894.000
1390.275, 9815.000
1391.330, 9811.000
1392.384, 9900.000
1393.438, 9699.000
1394.492, 9891.000
1395.545, 9776.000
1396.599, 9744.000
1397.652, 9795.000
1398.705, 9915.000
1399.758, 9768.000
1400.811, 9790.000
1401.863, 9997.000
1402.916, 9866.000
1403.968, 9795.000
1405.020, 9890.000
1406.072, 9899.000
1407.124, 9805.000
1408.176, 9928.000
1409.227, 9936.000
1410.279, 9774.000
1411.330, 9875.000
1412.381, 9947.000
1413.432, 9994.000
1414.482, 9809.000
1415.533, 9901.000
1416.583, 9854.000
1417.633, 9924.000
1418.684, 9930.000
1419.733, 9967.000
1420.783, 9919.000
1421.833, 9941.000
1422.882, 9955.837
1423.931, 9934.176
1424.980, 9999.000
1426.029, 9927.000
1427.078, 9946.000
1428.126, 9957.038
1429.175, 9884.000
1430.223, 10010.00
1431.271, 9968.000
1432.319, 9885.000
1433.367, 9858.000
1434.414, 9952.000
1435.462, 9873.000
1436.509, 9901.000
1437.556, 9969.000
1438.603, 9978.000
1439.650, 9872.000
1440.696, 9980.000
1441.743, 9917.000
1442.789, 9926.000
1443.835, 10039.00
1444.881, 9918.000
1445.927, 9864.000
1446.972, 10044.00
1448.018, 9813.000
1449.063, 9683.000
1450.108, 9761.000
1451.153, 9681.133
1452.198, 9704.431
1453.243, 9690.000
1454.287, 9781.000
1455.331, 9650.000
1456.376, 9722.000
1457.420, 9903.000
1458.463, 9743.000
1459.507, 9886.000
1460.550, 9846.000
1461.594, 9757.000
1462.637, 9886.000
1463.680, 9704.000
1464.723, 9912.000
1465.765, 9764.000
1466.808, 9769.000
1467.850, 9714.000
1468.892, 9747.000
1469.934, 9731.000
1470.976, 9667.000
1472.018, 9745.000
1473.060, 9774.000
1474.101, 9729.000
1475.142, 9812.000
1476.183, 9773.000
1477.224, 9674.000
1478.265, 9734.000
1479.305, 9756.000
1480.346, 9699.000
1481.386, 9841.000
1482.426, 9721.000
1483.466, 9766.000
1484.505, 9810.000
1485.545, 9680.000
1486.584, 9632.000
1487.624, 9775.000
1488.663, 9671.000
1489.702, 9789.000
1490.740, 9697.000
1491.779, 9825.000
1492.817, 9726.000
1493.856, 9753.000
1494.894, 9841.000
1495.932, 9778.000
1496.969, 9849.477
1498.007, 9908.681
1499.044, 9874.950
1500.082, 9810.000
1501.119, 9724.000
1502.156, 9728.000
1503.192, 9779.000
1504.229, 9742.000
1505.265, 9791.000
1506.302, 9790.308
1507.338, 9759.705
1508.374, 9803.000
1509.410, 9725.000
1510.445, 9724.000
1511.481, 9765.000
1512.516, 9858.000
1513.551, 9807.000
1514.586, 9844.000
1515.621, 9770.000
1516.655, 9853.000
1517.690, 9816.000
1518.724, 9837.000
1519.758, 9813.000
1520.792, 9790.000
1521.826, 9839.000
1522.860, 9788.000
1523.893, 9781.000
1524.927, 9745.000
1525.960, 9931.000
1526.993, 9826.000
1528.026, 9921.000
1529.058, 9835.000
1530.091, 9825.000
1531.123, 9829.000
1532.155, 9853.000
1533.187, 9839.000
1534.219, 9814.000
1535.251, 9898.000
1536.282, 9893.000
1537.314, 9782.000
1538.345, 9823.000
1539.376, 9841.000
1540.407, 9744.000
1541.438, 9853.000
1542.468, 9689.402
1543.499, 9835.338
1544.529, 9917.747
1545.559, 9940.044
1546.589, 9722.185
1547.618, 9814.437
1548.648, 9782.410
1549.677, 9745.287
1550.707, 9881.187
1551.736, 9698.257
1552.765, 9831.411
1553.793, 9838.390
1554.822, 9903.116
1555.850, 9842.796
1556.879, 9821.100
1557.907, 9924.488
1558.935, 9958.616
1559.962, 9883.899
1560.990, 9952.296
1562.017, 9764.997
1563.045, 9728.000
1564.072, 9841.000
##END=



