##NAMES=Augite
##RRUFFID=R061108
##IDEAL CHEMISTRY=(Ca,Mg,Fe^2+^,Fe^3+^)_2_(Si,Al)_2_O_6_
##LOCALITY=Monti Rossi, near Mt. Etna, Sicily, Italy
##OWNER=RRUFF
##SOURCE=Michael Scott
##DESCRIPTION=Euhedral, short prismatic, black crystals in vesicular basalt.
##STATUS=The identification of this mineral is confirmed by single-crystal X-ray diffraction and chemical analysis.
##URL=rruff.info/R061108
##MEASURED CHEMISTRY=(Ca_0.86_Mg_0.74_Fe^2+^_0.18_Fe^3+^_0.08_Al_0.05_Ti_0.04_Na_0.04_Mn_0.01_)_Σ=2_(Si_1.83_Al_0.17_)_Σ=2_O_6_
##PIN_ID=L00942
##ORIENTATION=Laser parallel to -a* (-1 0 0). Fiducial mark perpendicular to laser is parallel to b [0 1 0]
159.8810, 23330.00
161.1070, 23486.00
162.3340, 23785.00
163.5600, 23880.00
164.7860, 24139.00
166.0120, 24023.00
167.2380, 24303.00
168.4640, 24343.00
169.6890, 24633.00
170.9150, 24875.00
172.1400, 24803.00
173.3650, 24749.00
174.5900, 24991.00
175.8150, 25048.00
177.0400, 25138.00
178.2640, 25510.00
179.4880, 25585.00
180.7130, 25624.00
181.9370, 25582.00
183.1600, 25498.00
184.3840, 25624.00
185.6080, 25502.00
186.8310, 25592.18
188.0540, 25802.00
189.2770, 25719.00
190.5000, 25672.00
191.7230, 25724.00
192.9460, 25569.00
194.1680, 25605.00
195.3910, 25546.00
196.6130, 25428.09
197.8350, 25029.00
199.0570, 25156.00
200.2780, 24910.00
201.5000, 24646.00
202.7210, 24602.00
203.9420, 24135.00
205.1640, 23481.00
206.3840, 23229.00
207.6050, 22952.00
208.8260, 22963.00
210.0460, 22788.00
211.2670, 22545.00
212.4870, 22915.00
213.7070, 23093.00
214.9270, 22801.00
216.1460, 22679.00
217.3660, 22798.00
218.5850, 22899.00
219.8050, 22899.00
221.0240, 22936.00
222.2430, 23106.00
223.4610, 22969.00
224.6800, 23188.00
225.8980, 23147.00
227.1170, 23249.00
228.3350, 23175.00
229.5530, 23269.00
230.7710, 23341.00
231.9880, 23125.00
233.2060, 23113.00
234.4230, 23073.00
235.6400, 22878.00
236.8570, 22891.00
238.0740, 22597.00
239.2910, 22585.00
240.5080, 22320.00
241.7240, 22496.00
242.9400, 22473.00
244.1570, 22537.00
245.3730, 22315.00
246.5880, 22506.00
247.8040, 22172.00
249.0190, 22171.00
250.2350, 22155.00
251.4500, 22089.00
252.6650, 21628.00
253.8800, 21616.00
255.0950, 21925.00
256.3090, 21687.00
257.5240, 21949.00
258.7380, 21874.88
259.9520, 21653.85
261.1660, 21783.00
262.3800, 21242.00
263.5930, 21175.00
264.8070, 21129.00
266.0200, 21190.00
267.2330, 20965.00
268.4460, 21139.00
269.6590, 20980.00
270.8720, 21110.00
272.0850, 21126.00
273.2970, 21119.00
274.5090, 21443.00
275.7210, 21360.00
276.9330, 21456.00
278.1450, 21564.00
279.3570, 21375.00
280.5680, 21652.00
281.7790, 21723.00
282.9910, 21770.00
284.2020, 21717.00
285.4120, 21917.00
286.6230, 21963.00
287.8340, 22252.00
289.0440, 22181.00
290.2540, 22322.00
291.4640, 22512.00
292.6740, 22819.00
293.8840, 22974.00
295.0940, 23146.00
296.3030, 23370.00
297.5120, 23714.00
298.7210, 23955.00
299.9300, 24073.00
301.1390, 24557.00
302.3480, 24838.00
303.5560, 25269.00
304.7650, 25454.00
305.9730, 26230.00
307.1810, 26874.00
308.3890, 27321.00
309.5970, 28171.00
310.8040, 28499.00
312.0120, 29344.00
313.2190, 30111.00
314.4260, 30964.00
315.6330, 31828.00
316.8400, 32797.00
318.0460, 33424.00
319.2530, 34290.00
320.4590, 34830.71
321.6650, 35436.00
322.8710, 35726.00
324.0770, 35967.00
325.2830, 36150.00
326.4880, 35862.00
327.6940, 35676.00
328.8990, 35322.00
330.1040, 34774.00
331.3090, 34145.00
332.5140, 33730.00
333.7180, 33092.84
334.9230, 32673.00
336.1270, 32080.00
337.3310, 31407.00
338.5350, 31234.00
339.7390, 30746.00
340.9430, 30242.00
342.1460, 29730.00
343.3500, 29342.00
344.5530, 29062.00
345.7560, 29109.00
346.9590, 28507.00
348.1620, 28534.00
349.3640, 28159.00
350.5670, 28058.00
351.7690, 27958.00
352.9710, 27774.00
354.1730, 27513.00
355.3750, 27365.00
356.5760, 27291.00
357.7780, 27080.00
358.9790, 27141.00
360.1800, 26966.00
361.3810, 26715.00
362.5820, 26749.00
363.7830, 26590.00
364.9830, 26556.00
366.1840, 26745.00
367.3840, 26638.00
368.5840, 26570.00
369.7840, 26722.00
370.9840, 26687.00
372.1830, 26816.00
373.3830, 26914.00
374.5820, 27153.00
375.7810, 27342.51
376.9800, 27494.00
378.1790, 27870.00
379.3780, 28236.00
380.5760, 28599.20
381.7750, 29105.00
382.9730, 29364.00
384.1710, 29923.00
385.3690, 30340.00
386.5660, 30658.00
387.7640, 31033.00
388.9610, 30994.00
390.1590, 31072.00
391.3560, 30871.00
392.5530, 30419.00
393.7500, 29907.00
394.9460, 29201.00
396.1430, 28259.00
397.3390, 27551.00
398.5350, 26875.00
399.7310, 25950.00
400.9270, 25174.00
402.1230, 24849.00
403.3180, 24830.00
404.5140, 24842.00
405.7090, 23512.00
406.9040, 22818.00
408.0990, 22561.00
409.2930, 22405.00
410.4880, 22174.00
411.6820, 21889.00
412.8770, 21861.00
414.0710, 21992.00
415.2650, 21732.00
416.4590, 21714.00
417.6520, 21597.00
418.8460, 21675.00
420.0390, 21497.00
421.2320, 21595.00
422.4250, 21504.00
423.6180, 21475.00
424.8110, 21526.00
426.0030, 21426.00
427.1960, 21407.00
428.3880, 21403.00
429.5800, 21317.00
430.7720, 21292.00
431.9640, 21254.95
433.1550, 21307.00
434.3470, 21193.00
435.5380, 20934.00
436.7290, 20904.00
437.9200, 20902.00
439.1110, 20755.00
440.3020, 20975.00
441.4920, 20898.00
442.6820, 20748.00
443.8730, 20631.00
445.0630, 20745.00
446.2530, 20722.00
447.4420, 20757.83
448.6320, 20736.00
449.8210, 20851.00
451.0100, 20816.00
452.2000, 20831.00
453.3880, 20894.00
454.5770, 20805.00
455.7660, 20846.00
456.9540, 20955.00
458.1430, 20873.00
459.3310, 20990.00
460.5190, 21182.00
461.7070, 20824.00
462.8940, 20851.00
464.0820, 21228.00
465.2690, 21106.00
466.4560, 20982.00
467.6430, 21153.00
468.8300, 21242.00
470.0170, 20969.00
471.2040, 21010.00
472.3900, 20807.00
473.5760, 20969.00
474.7620, 21420.00
475.9480, 21083.00
477.1340, 21019.00
478.3200, 21414.00
479.5050, 21256.00
480.6900, 21213.00
481.8750, 21366.00
483.0600, 21259.00
484.2450, 21538.00
485.4300, 21414.00
486.6140, 21500.00
487.7990, 21446.00
488.9830, 21575.00
490.1670, 21614.71
491.3510, 21699.19
492.5350, 21817.00
493.7180, 22005.00
494.9020, 22238.00
496.0850, 22599.00
497.2680, 22799.00
498.4510, 23085.00
499.6340, 23664.00
500.8160, 23946.00
501.9990, 24213.00
503.1810, 24728.00
504.3630, 25048.00
505.5450, 25061.00
506.7270, 25147.00
507.9090, 25508.00
509.0900, 25495.00
510.2720, 25541.00
511.4530, 25523.00
512.6340, 25468.84
513.8150, 25422.00
514.9950, 25370.00
516.1760, 25390.00
517.3560, 25440.00
518.5370, 25562.00
519.7170, 25695.00
520.8970, 25919.00
522.0770, 26269.00
523.2560, 26269.00
524.4360, 26606.00
525.6150, 26689.00
526.7940, 26870.00
527.9730, 27094.00
529.1520, 27103.00
530.3310, 27474.00
531.5090, 27677.00
532.6870, 27806.03
533.8660, 27824.08
535.0440, 27960.00
536.2210, 27718.00
537.3990, 27419.00
538.5770, 27501.00
539.7540, 27639.00
540.9310, 27300.00
542.1080, 27169.00
543.2850, 26999.00
544.4620, 26831.00
545.6390, 26708.00
546.8150, 26872.00
547.9920, 26646.00
549.1680, 26509.00
550.3440, 26534.00
551.5190, 26283.00
552.6950, 26391.00
553.8710, 26353.00
555.0460, 26281.00
556.2210, 26213.00
557.3960, 26218.00
558.5710, 26094.00
559.7460, 26048.00
560.9200, 26209.00
562.0950, 26290.00
563.2690, 26124.00
564.4430, 26225.00
565.6170, 25921.00
566.7910, 25968.00
567.9640, 25915.00
569.1380, 26034.00
570.3110, 26007.00
571.4840, 25839.00
572.6570, 25432.00
573.8300, 25192.00
575.0030, 24786.00
576.1750, 24638.00
577.3470, 24382.00
578.5200, 24069.00
579.6920, 23576.00
580.8630, 23366.00
582.0350, 23034.00
583.2070, 22387.00
584.3780, 22213.00
585.5490, 21925.00
586.7200, 21730.00
587.8910, 21429.00
589.0620, 21403.00
590.2330, 20941.00
591.4030, 20574.00
592.5730, 20421.00
593.7430, 20329.00
594.9130, 19968.00
596.0830, 20050.00
597.2530, 19772.00
598.4220, 19641.00
599.5920, 19445.00
600.7610, 19608.00
601.9300, 19541.00
603.0990, 19596.00
604.2670, 19639.00
605.4360, 19672.00
606.6040, 19748.00
607.7720, 19471.00
608.9400, 19729.00
610.1080, 19623.00
611.2760, 19806.00
612.4440, 19641.00
613.6110, 19809.00
614.7780, 19660.00
615.9450, 19824.00
617.1120, 19696.00
618.2790, 19885.00
619.4460, 20197.00
620.6120, 20042.00
621.7780, 20177.00
622.9450, 20316.00
624.1110, 20299.00
625.2760, 20292.00
626.4420, 20435.00
627.6080, 20692.00
628.7730, 20822.00
629.9380, 21080.00
631.1030, 21300.00
632.2680, 21628.00
633.4330, 21869.00
634.5970, 22077.00
635.7620, 22258.00
636.9260, 22767.00
638.0900, 23074.00
639.2540, 23739.00
640.4180, 24030.00
641.5810, 24688.00
642.7450, 25128.00
643.9080, 26029.00
645.0710, 26992.00
646.2340, 27770.00
647.3970, 29024.00
648.5590, 30362.00
649.7220, 31521.00
650.8840, 33463.00
652.0460, 35204.00
653.2080, 37628.00
654.3700, 40145.00
655.5320, 43025.00
656.6930, 46344.00
657.8550, 49910.00
659.0160, 53280.00
660.1770, 56903.00
661.3380, 60069.00
662.4990, 62099.00
663.6590, 63579.00
664.8200, 63363.00
665.9800, 62152.00
667.1400, 59936.00
668.3000, 56816.00
669.4600, 52859.00
670.6190, 49589.00
671.7790, 45726.00
672.9380, 42596.00
674.0970, 39873.00
675.2560, 36937.00
676.4150, 34836.00
677.5740, 33196.00
678.7320, 31418.00
679.8900, 30081.00
681.0490, 28571.00
682.2070, 27512.00
683.3640, 26583.00
684.5220, 25997.00
685.6800, 25523.00
686.8370, 24853.00
687.9940, 24165.00
689.1510, 23927.00
690.3080, 23476.00
691.4650, 23122.43
692.6220, 22954.00
693.7780, 22540.00
694.9340, 22414.00
696.0900, 22162.00
697.2460, 22270.00
698.4020, 22078.00
699.5580, 21525.00
700.7130, 21852.00
701.8680, 21836.00
703.0240, 22013.00
704.1790, 21344.00
705.3330, 21626.00
706.4880, 21104.00
707.6430, 21131.00
708.7970, 21058.00
709.9510, 21013.00
711.1050, 20969.98
712.2590, 20838.00
713.4130, 20843.00
714.5660, 20687.00
715.7200, 20610.00
716.8730, 20682.00
718.0260, 20300.00
719.1790, 20419.00
720.3320, 20077.00
721.4840, 20212.00
722.6370, 20185.00
723.7890, 20043.00
724.9410, 19989.00
726.0930, 19710.00
727.2450, 19963.00
728.3960, 19798.00
729.5480, 19560.00
730.6990, 19697.00
731.8500, 19817.00
733.0010, 19742.00
734.1520, 19578.00
735.3030, 19632.00
736.4530, 19794.00
737.6040, 19827.00
738.7540, 20020.00
739.9040, 19911.00
741.0540, 19999.00
742.2030, 19903.00
743.3530, 20065.00
744.5020, 20092.00
745.6520, 20177.00
746.8010, 20077.00
747.9490, 20195.51
749.0980, 20290.00
750.2470, 20319.00
751.3950, 20466.00
752.5440, 20483.00
753.6920, 20645.00
754.8400, 20502.00
755.9870, 20625.00
757.1350, 20706.00
758.2820, 20723.00
759.4300, 20853.00
760.5770, 20778.00
761.7240, 20947.00
762.8710, 20988.00
764.0170, 21069.00
765.1640, 21026.00
766.3100, 21085.66
767.4560, 21135.49
768.6020, 21129.00
769.7480, 21249.00
770.8940, 21267.00
772.0400, 21314.00
773.1850, 21164.00
774.3300, 21229.00
775.4750, 21221.00
776.6200, 21484.00
777.7650, 21481.00
778.9090, 21540.00
780.0540, 21601.00
781.1980, 21580.00
782.3420, 21554.00
783.4860, 21555.00
784.6300, 21591.00
785.7740, 21705.00
786.9170, 21686.00
788.0600, 21862.00
789.2030, 21721.00
790.3460, 21802.00
791.4890, 21874.00
792.6320, 21940.00
793.7740, 22015.00
794.9170, 22255.00
796.0590, 22071.00
797.2010, 22285.00
798.3430, 22468.00
799.4850, 22442.00
800.6260, 22545.00
801.7670, 22517.00
802.9090, 22542.00
804.0500, 22857.00
805.1910, 22726.00
806.3310, 22800.00
807.4720, 23258.00
808.6120, 23058.00
809.7530, 23078.00
810.8930, 22763.00
812.0330, 23327.00
813.1720, 23434.00
814.3120, 23515.00
815.4510, 23488.00
816.5910, 23562.00
817.7300, 23632.00
818.8690, 23740.00
820.0080, 23620.00
821.1460, 23705.00
822.2850, 23728.00
823.4230, 23480.00
824.5610, 23907.00
825.6990, 23586.00
826.8370, 23803.00
827.9750, 23781.00
829.1120, 23653.84
830.2500, 23672.00
831.3870, 23529.00
832.5240, 23531.00
833.6610, 23550.00
834.7980, 23350.00
835.9340, 23537.00
837.0700, 23442.00
838.2070, 23273.00
839.3430, 23521.00
840.4790, 23366.00
841.6140, 23486.00
842.7500, 23444.00
843.8850, 23593.00
845.0210, 23594.00
846.1560, 23900.00
847.2910, 24004.00
848.4260, 23989.00
849.5600, 24375.00
850.6950, 24453.00
851.8290, 24719.00
852.9630, 25062.00
854.0970, 25177.00
855.2310, 25555.00
856.3650, 25661.00
857.4980, 25990.00
858.6310, 25807.00
859.7650, 25845.00
860.8980, 25519.00
862.0310, 25742.00
863.1630, 25874.00
864.2960, 25478.00
865.4280, 25520.00
866.5600, 25340.00
867.6920, 25512.00
868.8240, 25165.00
869.9560, 25079.00
871.0880, 24662.00
872.2190, 24498.00
873.3500, 24424.00
874.4810, 24489.00
875.6120, 24396.00
876.7430, 24364.00
877.8740, 24297.00
879.0040, 24092.00
880.1340, 24008.00
881.2650, 24025.00
882.3950, 23922.00
883.5240, 23916.00
884.6540, 23791.00
885.7830, 23764.00
886.9130, 23622.00
888.0420, 23722.00
889.1710, 23870.00
890.3000, 23865.00
891.4280, 23763.00
892.5570, 23783.83
893.6850, 24473.00
894.8130, 23621.00
895.9420, 24248.00
897.0690, 24145.00
898.1970, 23824.00
899.3250, 23730.00
900.4520, 23458.00
901.5790, 23615.00
902.7060, 23662.00
903.8330, 23617.00
904.9600, 23735.00
906.0870, 23720.00
907.2130, 23886.00
908.3390, 23878.00
909.4650, 24083.00
910.5910, 23813.00
911.7170, 23924.00
912.8430, 24014.00
913.9680, 24124.00
915.0930, 24235.19
916.2180, 24394.00
917.3430, 24438.00
918.4680, 24490.00
919.5930, 24531.00
920.7170, 24728.00
921.8420, 24803.00
922.9660, 24830.00
924.0900, 24716.00
925.2140, 24979.00
926.3370, 24738.00
927.4610, 24753.00
928.5840, 24806.00
929.7070, 24691.00
930.8310, 24555.00
931.9530, 24679.00
933.0760, 24867.00
934.1990, 24699.00
935.3210, 24777.00
936.4430, 24610.00
937.5650, 24602.00
938.6870, 24483.00
939.8090, 24355.00
940.9310, 24422.00
942.0520, 24393.00
943.1730, 24406.00
944.2940, 24401.00
945.4150, 24290.00
946.5360, 24344.00
947.6570, 24297.00
948.7770, 24590.00
949.8970, 24470.00
951.0180, 24566.00
952.1370, 24598.00
953.2570, 24530.00
954.3770, 24486.00
955.4960, 24531.89
956.6160, 24596.00
957.7350, 24613.00
958.8540, 24618.00
959.9730, 24676.00
961.0910, 24756.00
962.2100, 24801.15
963.3280, 24892.00
964.4460, 24894.00
965.5640, 24948.00
966.6820, 24895.00
967.8000, 25168.00
968.9180, 25118.00
970.0350, 25277.00
971.1520, 25439.00
972.2690, 25331.00
973.3860, 25299.00
974.5030, 25332.00
975.6190, 25462.00
976.7360, 25714.00
977.8520, 25809.00
978.9680, 25703.00
980.0840, 25978.00
981.2000, 25892.00
982.3160, 26264.00
983.4310, 26389.00
984.5460, 26628.00
985.6610, 26704.00
986.7760, 26917.00
987.8910, 26972.00
989.0060, 27343.14
990.1200, 27669.92
991.2350, 28115.00
992.3490, 28644.00
993.4630, 29075.00
994.5760, 29826.00
995.6900, 30381.00
996.8040, 31033.00
997.9170, 32066.00
999.0300, 32572.00
1000.143, 33295.00
1001.256, 34522.00
1002.369, 35280.00
1003.481, 36038.00
1004.594, 37009.00
1005.706, 37441.00
1006.818, 37875.00
1007.930, 38055.00
1009.042, 37888.00
1010.153, 36917.00
1011.264, 36177.00
1012.376, 35142.00
1013.487, 33811.00
1014.598, 32730.00
1015.708, 31834.00
1016.819, 30886.00
1017.929, 29844.00
1019.040, 29013.00
1020.150, 28686.00
1021.260, 28179.99
1022.370, 28020.00
1023.479, 27767.00
1024.589, 27357.00
1025.698, 27140.00
1026.807, 27087.00
1027.916, 26890.00
1029.025, 26994.00
1030.133, 27051.00
1031.242, 26983.00
1032.350, 26884.00
1033.458, 26982.00
1034.566, 26910.00
1035.674, 26873.00
1036.782, 26981.00
1037.890, 26821.00
1038.997, 26930.00
1040.104, 26884.00
1041.211, 26869.00
1042.318, 26723.00
1043.425, 26374.00
1044.531, 26175.00
1045.638, 26100.00
1046.744, 26145.00
1047.850, 25681.00
1048.956, 25444.00
1050.061, 25378.00
1051.167, 25089.00
1052.272, 25172.00
1053.378, 24558.00
1054.483, 24682.00
1055.588, 24479.00
1056.692, 24492.00
1057.797, 24391.00
1058.901, 24129.00
1060.006, 23952.00
1061.110, 23870.00
1062.214, 23763.00
1063.318, 23964.00
1064.421, 23674.00
1065.525, 23681.00
1066.628, 23497.00
1067.731, 23395.27
1068.834, 23360.00
1069.937, 23209.00
1071.040, 23213.00
1072.142, 23102.00
1073.244, 23030.00
1074.347, 23091.00
1075.449, 22947.00
1076.550, 22943.00
1077.652, 22803.00
1078.754, 22902.00
1079.855, 22774.00
1080.956, 22517.00
1082.057, 22736.00
1083.158, 22622.00
1084.259, 22482.00
1085.359, 22443.00
1086.460, 22494.00
1087.560, 22491.00
1088.660, 22288.00
1089.760, 22396.00
1090.860, 22113.00
1091.959, 22116.00
1093.059, 22026.00
1094.158, 21811.00
1095.257, 22010.00
1096.356, 21566.00
1097.455, 21841.00
1098.553, 21817.00
1099.652, 21827.00
1100.750, 21982.00
1101.848, 21823.00
1102.946, 21644.00
1104.044, 21579.00
1105.141, 21567.00
1106.239, 21487.00
1107.336, 21484.00
1108.433, 21415.00
1109.530, 21406.90
1110.627, 21385.35
1111.724, 21354.00
1112.820, 21319.00
1113.917, 21209.00
1115.013, 21090.00
1116.109, 21074.00
1117.205, 21029.00
1118.300, 21130.00
1119.396, 20997.00
1120.491, 21020.00
1121.586, 20950.00
1122.681, 20901.00
1123.776, 20815.84
1124.871, 20707.00
1125.965, 20574.00
1127.060, 20421.00
1128.154, 20251.00
1129.248, 20173.62
1130.342, 20093.00
1131.436, 20050.00
1132.529, 19953.00
1133.623, 19971.00
1134.716, 19786.00
1135.809, 19813.00
1136.902, 19693.00
1137.995, 19545.00
1139.087, 19618.00
1140.180, 19629.00
1141.272, 19596.29
1142.364, 19604.00
1143.456, 19583.00
1144.548, 19543.00
1145.639, 19263.00
1146.731, 19456.00
1147.822, 19245.00
1148.913, 19186.00
1150.004, 19169.00
1151.095, 19128.00
1152.186, 19154.00
1153.276, 19091.00
1154.366, 19057.00
1155.457, 19219.00
1156.546, 19248.00
1157.636, 19140.00
1158.726, 18922.00
1159.815, 19175.00
1160.905, 19096.00
1161.994, 19315.00
1163.083, 19149.00
1164.172, 19009.00
1165.261, 18925.00
1166.349, 19122.00
1167.437, 18991.00
1168.526, 19011.00
1169.614, 18944.00
1170.702, 18966.00
1171.789, 18708.00
1172.877, 18902.00
1173.964, 19142.00
1175.051, 19036.00
1176.138, 18867.00
1177.225, 18883.00
1178.312, 18854.00
1179.399, 18826.00
1180.485, 18892.00
1181.571, 18867.00
1182.657, 18894.00
1183.743, 18962.00
1184.829, 18933.37
1185.915, 18840.00
1187.000, 18902.00
1188.085, 18891.00
1189.171, 18821.00
1190.255, 18900.00
1191.340, 19069.00
1192.425, 19010.34
1193.509, 18959.31
1194.594, 19069.00
1195.678, 18775.00
1196.762, 18875.00
1197.846, 18978.00
1198.929, 18799.00
1200.013, 18959.00
1201.096, 18824.00
1202.179, 18868.00
1203.262, 18797.00
1204.345, 18907.00
1205.428, 18859.00
1206.510, 18860.00
1207.593, 18912.00
1208.675, 18952.00
1209.757, 18888.00
1210.839, 18688.00
1211.920, 18780.00
1213.002, 19049.00
1214.083, 18773.00
1215.164, 18938.00
1216.245, 18720.00
1217.326, 18834.00
1218.407, 18895.00
1219.488, 19078.00
1220.568, 18995.01
1221.648, 19025.00
1222.728, 18888.00
1223.808, 18742.00
1224.888, 18769.00
1225.967, 18770.00
1227.047, 18755.00
1228.126, 18953.00
1229.205, 19061.00
1230.284, 18893.00
1231.363, 18680.00
1232.441, 18859.00
1233.520, 18913.00
1234.598, 18784.00
1235.676, 18959.00
1236.754, 18856.00
1237.832, 18633.00
1238.910, 18778.00
1239.987, 18800.00
1241.064, 18741.00
1242.141, 18895.00
1243.218, 18784.00
1244.295, 18806.00
1245.372, 18820.00
1246.448, 18855.00
1247.525, 18778.00
1248.601, 18703.00
1249.677, 18844.00
1250.753, 18856.00
1251.828, 18606.00
1252.904, 18750.00
1253.979, 18614.00
1255.054, 18960.00
1256.129, 18806.00
1257.204, 18888.83
1258.279, 18891.13
1259.353, 18872.00
1260.428, 18841.00
1261.502, 18684.00
1262.576, 18787.00
1263.650, 18699.00
1264.724, 18756.00
1265.797, 18902.00
1266.871, 18811.00
1267.944, 18664.00
1269.017, 18844.00
1270.090, 18737.00
1271.162, 18674.00
1272.235, 18781.00
1273.307, 18859.00
1274.380, 18739.00
1275.452, 18846.00
1276.524, 18756.00
1277.595, 18678.00
1278.667, 18909.00
1279.738, 18879.00
1280.810, 18598.00
1281.881, 18930.00
1282.952, 18592.00
1284.022, 18910.00
1285.093, 18733.00
1286.164, 18720.00
1287.234, 18705.00
1288.304, 18685.14
1289.374, 18788.00
1290.444, 18746.00
1291.513, 18832.00
1292.583, 18855.00
1293.652, 18849.00
1294.721, 18850.49
1295.790, 18793.00
1296.859, 18808.00
1297.928, 18883.00
1298.996, 18921.00
1300.064, 18793.00
1301.133, 18684.00
1302.201, 18812.00
1303.268, 18801.00
1304.336, 18950.00
1305.404, 18948.00
1306.471, 18964.00
1307.538, 18860.00
1308.605, 18956.00
1309.672, 18937.30
1310.739, 19034.11
1311.805, 18963.28
1312.872, 18959.00
1313.938, 18913.21
1315.004, 18890.85
1316.070, 18921.00
1317.135, 18902.00
1318.201, 18899.00
1319.266, 19006.00
1320.332, 18829.00
1321.397, 19149.00
1322.462, 18965.00
1323.526, 18915.00
1324.591, 18930.00
1325.655, 19080.00
1326.720, 18844.00
1327.784, 19067.00
1328.848, 18990.00
1329.911, 19032.00
1330.975, 19043.00
1332.038, 18984.00
1333.102, 18832.00
1334.165, 19107.00
1335.228, 18877.00
1336.290, 19089.00
1337.353, 19098.00
1338.415, 19232.00
1339.478, 19120.00
1340.540, 19105.00
1341.602, 18915.00
1342.664, 19019.00
1343.725, 19011.00
1344.787, 19182.00
1345.848, 19149.70
1346.909, 19043.00
1347.970, 19116.00
1349.031, 19161.00
1350.092, 19104.00
1351.152, 19157.00
1352.212, 19060.00
1353.273, 19172.00
1354.333, 19211.00
1355.392, 19166.00
1356.452, 19044.00
1357.512, 19019.00
1358.571, 19113.00
1359.630, 19266.00
1360.689, 19109.00
1361.748, 19185.00
1362.807, 18983.00
1363.865, 19028.00
1364.924, 19099.00
1365.982, 19120.00
1367.040, 19162.00
1368.098, 19160.99
1369.155, 19089.00
1370.213, 19093.00
1371.270, 19178.00
1372.328, 19061.00
1373.385, 19207.00
1374.442, 19087.00
1375.498, 19151.00
1376.555, 19095.00
1377.611, 19063.00
1378.668, 19112.00
1379.724, 19083.00
1380.780, 19144.00
1381.835, 19121.00
1382.891, 19004.00
1383.946, 19040.00
1385.002, 19020.00
1386.057, 19106.00
1387.112, 19087.34
1388.166, 19069.00
1389.221, 19103.00
1390.275, 19135.00
1391.330, 19170.00
1392.384, 19165.00
1393.438, 19172.34
1394.492, 19054.00
1395.545, 19130.00
1396.599, 19051.00
1397.652, 18976.00
1398.705, 19003.00
1399.758, 18998.00
1400.811, 18974.54
1401.863, 19057.00
1402.916, 18996.00
1403.968, 19112.00
1405.020, 19212.00
1406.072, 19025.00
1407.124, 19095.00
1408.176, 19120.00
1409.227, 19218.00
1410.279, 19187.94
1411.330, 19145.00
1412.381, 19121.00
1413.432, 19152.00
1414.482, 19087.00
1415.533, 19082.00
1416.583, 19167.00
1417.633, 19190.00
1418.684, 19205.00
1419.733, 19038.00
1420.783, 18990.00
1421.833, 19120.00
1422.882, 19308.00
1423.931, 19093.00
1424.980, 19065.00
1426.029, 19272.00
1427.078, 19056.00
1428.126, 19128.00
1429.175, 18978.00
1430.223, 19133.00
1431.271, 19054.00
1432.319, 18785.00
1433.367, 19173.00
1434.414, 19079.00
1435.462, 18943.00
1436.509, 18928.00
1437.556, 19114.00
1438.603, 18870.00
1439.650, 19000.00
1440.696, 18939.00
1441.743, 18901.00
1442.789, 18976.00
1443.835, 18956.32
1444.881, 19002.00
1445.927, 19053.00
1446.972, 18946.00
1448.018, 19052.00
1449.063, 19079.00
1450.108, 18934.00
1451.153, 18816.83
1452.198, 18961.17
1453.243, 19041.99
1454.287, 19062.69
1455.331, 18843.24
1456.376, 18933.89
1457.420, 18900.28
1458.463, 18861.56
1459.507, 18995.87
1460.550, 18811.34
1461.594, 18942.90
1462.637, 18948.29
1463.680, 19011.42
1464.723, 18949.51
1465.765, 18926.22
1466.808, 18985.00
1467.850, 19054.00
1468.892, 18966.00
1469.934, 19084.00
1470.976, 18894.00
1472.018, 19071.00
1473.060, 18867.00
1474.101, 18999.00
1475.142, 18988.00
1476.183, 18948.00
1477.224, 18996.00
1478.265, 18974.99
1479.305, 18961.00
1480.346, 18987.00
1481.386, 18928.00
1482.426, 18936.00
1483.466, 19033.00
1484.505, 19035.00
1485.545, 19005.00
1486.584, 19060.00
1487.624, 18965.00
1488.663, 18949.00
1489.702, 18987.00
1490.740, 18991.00
1491.779, 18967.00
1492.817, 18955.00
1493.856, 19073.00
1494.894, 18882.00
1495.932, 19018.00
1496.969, 18941.00
1498.007, 18977.00
1499.044, 18961.00
1500.082, 18865.00
1501.119, 18958.00
1502.156, 19004.00
1503.192, 18960.00
1504.229, 18940.00
1505.265, 18962.00
1506.302, 18801.00
1507.338, 19019.00
1508.374, 18878.00
1509.410, 18925.00
1510.445, 19131.00
1511.481, 18771.91
1512.516, 18919.04
1513.551, 19002.63
1514.586, 19026.12
1515.621, 18809.45
1516.655, 18902.89
1517.690, 18872.05
1518.724, 18836.11
1519.758, 18973.20
1520.792, 18791.46
1521.826, 18925.80
1522.860, 18933.96
1523.893, 18999.88
1524.927, 18940.74
1525.960, 18920.23
1526.993, 19024.81
1528.026, 19060.12
1529.058, 18986.59
1530.091, 19056.17
1531.123, 18870.06
1532.155, 18908.32
1533.187, 19043.39
1534.219, 18976.15
1535.251, 19048.02
1536.282, 19066.90
1537.314, 18845.01
1538.345, 19041.85
1539.376, 19057.61
1540.407, 18887.42
1541.438, 19069.91
1542.468, 18925.36
1543.499, 18897.54
1544.529, 18957.58
1545.559, 18926.03
1546.589, 19038.87
1547.618, 19012.61
1548.648, 18973.92
1549.677, 18989.46
1550.707, 18851.32
1551.736, 18998.30
1552.765, 18950.52
1553.793, 18999.55
1554.822, 19070.53
1555.850, 18973.47
1556.879, 19054.31
1557.907, 18859.28
1558.935, 18895.08
1559.962, 18906.02
1560.990, 18885.00
1562.017, 18890.00
1563.045, 19148.00
##END=



