##NAMES=Augite
##RRUFFID=R061086
##IDEAL CHEMISTRY=(Ca,Mg,Fe^2+^,Fe^3+^)_2_(Si,Al)_2_O_6_
##LOCALITY=Boreslav, Teplitz, Bohemia, Czech Republic
##OWNER=RRUFF
##SOURCE=Michael Scott
##DESCRIPTION=Black to dark green tabular euhedral crystal
##STATUS=The identification of this mineral has been confirmed by X-ray diffraction and chemical analysis
##URL=rruff.info/R061086
##MEASURED CHEMISTRY=(Ca_0.88_Mg_0.83_Fe_0.13_Al_0.08_Na_0.04_Ti_0.03_Cr_0.01_)_Σ=2_(Si_1.89_Al_0.11_)_Σ=2_O_6_
##PIN_ID=M00244
##ORIENTATION=Laser parallel to -b* (0 -1 0). Fiducial mark perpendicular to laser is parallel to c [0 0 1]
162.4870, 3462.000
163.7180, 3537.000
164.9490, 3546.000
166.1800, 3562.000
167.4110, 3561.000
168.6410, 3612.000
169.8720, 3644.000
171.1020, 3576.000
172.3320, 3659.000
173.5620, 3598.000
174.7910, 3661.000
176.0210, 3666.000
177.2500, 3720.000
178.4790, 3713.000
179.7080, 3797.000
180.9370, 3790.000
182.1650, 3807.000
183.3940, 3756.000
184.6220, 3729.000
185.8500, 3755.000
187.0780, 3767.000
188.3050, 3750.000
189.5330, 3797.109
190.7600, 3823.000
191.9870, 3873.000
193.2140, 3819.000
194.4410, 3857.000
195.6680, 3834.000
196.8940, 3743.000
198.1200, 3693.000
199.3470, 3685.000
200.5720, 3768.000
201.7980, 3718.000
203.0240, 3692.000
204.2490, 3646.000
205.4740, 3596.000
206.6990, 3594.646
207.9240, 3578.000
209.1490, 3592.000
210.3740, 3606.000
211.5980, 3617.000
212.8220, 3541.000
214.0460, 3640.000
215.2700, 3640.000
216.4930, 3651.000
217.7170, 3770.000
218.9400, 3650.000
220.1630, 3681.000
221.3860, 3690.000
222.6090, 3704.000
223.8320, 3805.000
225.0540, 3788.000
226.2760, 3826.000
227.4980, 3832.000
228.7200, 3835.000
229.9420, 3779.000
231.1630, 3837.000
232.3850, 3796.000
233.6060, 3830.000
234.8270, 3797.000
236.0480, 3856.000
237.2690, 3799.000
238.4890, 3812.000
239.7090, 3810.000
240.9290, 3785.000
242.1490, 3849.000
243.3690, 3878.000
244.5890, 3884.000
245.8080, 3874.000
247.0270, 3955.000
248.2470, 3950.000
249.4650, 3977.000
250.6840, 4026.000
251.9030, 4037.000
253.1210, 4006.000
254.3390, 4028.000
255.5570, 3945.000
256.7750, 4109.000
257.9930, 4174.337
259.2100, 4249.000
260.4280, 4203.000
261.6450, 4099.000
262.8620, 4018.507
264.0790, 3781.000
265.2950, 3808.000
266.5120, 3714.000
267.7280, 3790.000
268.9440, 3787.000
270.1600, 3731.000
271.3760, 3712.000
272.5920, 3701.000
273.8070, 3753.000
275.0220, 3769.000
276.2370, 3790.000
277.4520, 3774.000
278.6670, 3784.000
279.8820, 3813.000
281.0960, 3749.000
282.3100, 3723.000
283.5240, 3841.000
284.7380, 3844.000
285.9520, 3956.000
287.1650, 3994.647
288.3780, 3971.930
289.5920, 4096.000
290.8050, 3960.000
292.0170, 4019.000
293.2300, 4126.000
294.4430, 4094.000
295.6550, 4143.000
296.8670, 4158.000
298.0790, 4256.000
299.2910, 4232.000
300.5020, 4350.000
301.7140, 4463.000
302.9250, 4337.000
304.1360, 4545.000
305.3470, 4547.000
306.5580, 4757.000
307.7680, 4756.000
308.9780, 4840.000
310.1890, 4857.000
311.3990, 4972.000
312.6090, 5102.000
313.8180, 5240.000
315.0280, 5353.000
316.2370, 5606.000
317.4460, 5671.000
318.6550, 5769.000
319.8640, 6078.000
321.0730, 6106.711
322.2810, 6322.000
323.4890, 6271.000
324.6980, 6439.000
325.9060, 6411.000
327.1130, 6369.000
328.3210, 6330.000
329.5280, 6303.000
330.7360, 6224.000
331.9430, 6220.000
333.1500, 6089.000
334.3560, 6031.000
335.5630, 5920.000
336.7690, 5822.000
337.9760, 5628.000
339.1820, 5647.000
340.3870, 5590.000
341.5930, 5410.000
342.7990, 5468.000
344.0040, 5481.000
345.2090, 5482.000
346.4140, 5394.000
347.6190, 5467.000
348.8240, 5429.000
350.0280, 5510.000
351.2330, 5495.000
352.4370, 5431.000
353.6410, 5590.000
354.8440, 5513.000
356.0480, 5490.000
357.2520, 5530.000
358.4550, 5427.000
359.6580, 5375.000
360.8610, 5431.000
362.0640, 5301.000
363.2660, 5221.000
364.4690, 5197.000
365.6710, 5064.000
366.8730, 5100.000
368.0750, 5023.000
369.2770, 4961.000
370.4780, 4989.000
371.6800, 4874.000
372.8810, 4950.000
374.0820, 4808.000
375.2830, 4921.000
376.4830, 4964.000
377.6840, 4959.000
378.8840, 4907.000
380.0840, 5078.000
381.2840, 5088.000
382.4840, 5256.000
383.6840, 5232.000
384.8830, 5372.000
386.0830, 5642.000
387.2820, 5523.000
388.4810, 5696.000
389.6800, 5781.000
390.8780, 5780.000
392.0770, 5805.000
393.2750, 5741.971
394.4730, 5679.000
395.6710, 5527.000
396.8690, 5398.000
398.0660, 5212.000
399.2640, 5060.000
400.4610, 4812.000
401.6580, 4730.000
402.8550, 4561.000
404.0520, 4503.000
405.2490, 4399.000
406.4450, 4227.000
407.6410, 4254.000
408.8370, 4154.000
410.0330, 4017.000
411.2290, 4016.000
412.4240, 4090.000
413.6200, 4025.000
414.8150, 4038.000
416.0100, 4056.000
417.2050, 3951.000
418.4000, 3971.000
419.5940, 3999.000
420.7880, 3975.000
421.9830, 3953.000
423.1770, 3935.000
424.3700, 3857.000
425.5640, 3942.000
426.7580, 3893.000
427.9510, 3883.000
429.1440, 3992.000
430.3370, 3915.000
431.5300, 3926.000
432.7220, 3942.000
433.9150, 3958.000
435.1070, 3949.824
436.2990, 3940.954
437.4910, 3926.000
438.6830, 3904.000
439.8750, 3881.000
441.0660, 3873.000
442.2570, 3941.000
443.4480, 3930.000
444.6390, 3952.000
445.8300, 3925.864
447.0210, 3938.000
448.2110, 3872.000
449.4010, 3814.000
450.5910, 3851.000
451.7810, 3924.000
452.9710, 3811.000
454.1610, 3981.000
455.3500, 3888.000
456.5390, 3887.000
457.7280, 3967.000
458.9170, 3924.000
460.1060, 3973.000
461.2940, 3956.000
462.4830, 4037.000
463.6710, 4023.000
464.8590, 3988.000
466.0470, 4001.000
467.2350, 3972.000
468.4220, 4016.000
469.6090, 3965.000
470.7970, 3915.000
471.9840, 3946.000
473.1700, 3958.000
474.3570, 4021.000
475.5440, 3931.000
476.7300, 3990.000
477.9160, 4091.000
479.1020, 3898.000
480.2880, 3922.000
481.4740, 4041.000
482.6590, 3960.000
483.8440, 4032.000
485.0300, 3957.000
486.2140, 4046.000
487.3990, 4018.000
488.5840, 4021.000
489.7680, 4081.000
490.9530, 4084.000
492.1370, 4082.000
493.3210, 4117.716
494.5040, 4107.000
495.6880, 4161.000
496.8720, 4181.000
498.0550, 4214.000
499.2380, 4300.000
500.4210, 4391.000
501.6040, 4496.000
502.7860, 4630.000
503.9690, 4674.000
505.1510, 4868.000
506.3330, 4849.000
507.5150, 4965.000
508.6970, 4835.000
509.8780, 4754.000
511.0600, 4757.000
512.2410, 4616.000
513.4220, 4568.000
514.6030, 4520.000
515.7840, 4501.000
516.9640, 4531.000
518.1440, 4380.000
519.3250, 4421.000
520.5050, 4438.000
521.6850, 4500.000
522.8640, 4395.000
524.0440, 4458.000
525.2230, 4452.000
526.4020, 4482.000
527.5820, 4528.000
528.7600, 4540.990
529.9390, 4528.000
531.1180, 4606.000
532.2960, 4579.000
533.4740, 4622.838
534.6520, 4533.000
535.8300, 4601.000
537.0080, 4559.000
538.1850, 4524.000
539.3630, 4468.000
540.5400, 4548.000
541.7170, 4519.000
542.8940, 4537.000
544.0700, 4501.000
545.2470, 4501.000
546.4230, 4496.000
547.5990, 4520.000
548.7750, 4457.000
549.9510, 4519.000
551.1270, 4527.000
552.3020, 4410.000
553.4780, 4430.000
554.6530, 4423.000
555.8280, 4500.000
557.0030, 4438.000
558.1770, 4511.000
559.3520, 4503.000
560.5260, 4463.000
561.7000, 4419.000
562.8740, 4421.479
564.0480, 4429.000
565.2220, 4406.000
566.3950, 4396.000
567.5680, 4373.000
568.7420, 4357.808
569.9150, 4353.000
571.0870, 4318.000
572.2600, 4340.000
573.4320, 4308.000
574.6050, 4203.000
575.7770, 4291.000
576.9490, 4255.000
578.1210, 4311.000
579.2920, 4260.000
580.4640, 4268.000
581.6350, 4185.000
582.8060, 4249.000
583.9770, 4159.000
585.1480, 4182.000
586.3190, 4101.000
587.4890, 4077.000
588.6590, 4094.000
589.8290, 4089.000
590.9990, 4099.000
592.1690, 4003.000
593.3390, 4054.000
594.5080, 3958.000
595.6770, 4015.000
596.8470, 3966.000
598.0160, 4059.000
599.1840, 3944.000
600.3530, 3964.000
601.5210, 4015.000
602.6900, 3994.000
603.8580, 3985.000
605.0260, 3964.000
606.1930, 4000.000
607.3610, 3989.000
608.5280, 4056.000
609.6960, 4019.000
610.8630, 3949.000
612.0300, 4064.000
613.1970, 4027.000
614.3630, 4017.000
615.5300, 4106.000
616.6960, 4074.000
617.8620, 4081.000
619.0280, 4122.000
620.1940, 4163.000
621.3590, 4215.000
622.5250, 4202.847
623.6900, 4247.492
624.8550, 4253.854
626.0200, 4287.000
627.1850, 4262.000
628.3490, 4261.000
629.5140, 4246.000
630.6780, 4276.876
631.8420, 4324.158
633.0060, 4368.000
634.1700, 4452.000
635.3330, 4535.000
636.4970, 4585.000
637.6600, 4617.000
638.8230, 4618.000
639.9860, 4703.000
641.1490, 4792.000
642.3110, 4865.000
643.4740, 5070.000
644.6360, 5194.000
645.7980, 5327.980
646.9600, 5503.000
648.1220, 5645.000
649.2840, 5808.000
650.4450, 6052.000
651.6060, 6362.000
652.7670, 6810.000
653.9280, 7085.000
655.0890, 7634.000
656.2500, 8197.000
657.4100, 8658.000
658.5700, 9378.000
659.7300, 10243.00
660.8900, 10928.00
662.0500, 11715.00
663.2100, 12485.00
664.3690, 13050.00
665.5280, 13333.00
666.6880, 13291.00
667.8460, 12945.00
669.0050, 12141.00
670.1640, 11317.00
671.3220, 10458.00
672.4810, 9727.000
673.6390, 9074.000
674.7970, 8212.000
675.9540, 7668.000
677.1120, 7119.000
678.2690, 6781.000
679.4270, 6379.000
680.5840, 6151.000
681.7410, 5728.000
682.8980, 5686.000
684.0540, 5437.000
685.2110, 5250.000
686.3670, 5185.000
687.5230, 5054.000
688.6790, 5016.000
689.8350, 4918.000
690.9900, 4857.280
692.1460, 4809.000
693.3010, 4756.000
694.4560, 4723.000
695.6110, 4692.000
696.7660, 4636.000
697.9210, 4667.000
699.0750, 4553.000
700.2290, 4568.000
701.3840, 4694.000
702.5370, 4501.000
703.6910, 4514.000
704.8450, 4652.000
705.9980, 4496.000
707.1520, 4578.000
708.3050, 4516.000
709.4580, 4571.000
710.6110, 4550.000
711.7630, 4567.000
712.9160, 4612.000
714.0680, 4518.000
715.2200, 4513.000
716.3720, 4507.000
717.5240, 4454.000
718.6760, 4491.000
719.8270, 4409.000
720.9780, 4470.000
722.1300, 4405.000
723.2810, 4393.000
724.4310, 4451.000
725.5820, 4320.000
726.7330, 4363.000
727.8830, 4395.000
729.0330, 4369.000
730.1830, 4304.000
731.3330, 4315.000
732.4830, 4309.000
733.6320, 4262.000
734.7810, 4268.000
735.9310, 4297.000
737.0800, 4364.000
738.2290, 4352.000
739.3770, 4320.000
740.5260, 4338.000
741.6740, 4342.931
742.8220, 4359.000
743.9700, 4384.000
745.1180, 4386.000
746.2660, 4401.000
747.4130, 4447.000
748.5610, 4362.000
749.7080, 4464.000
750.8550, 4572.000
752.0020, 4550.000
753.1490, 4465.000
754.2950, 4621.000
755.4420, 4605.000
756.5880, 4702.000
757.7340, 4613.000
758.8800, 4675.000
760.0250, 4626.000
761.1710, 4704.000
762.3160, 4692.000
763.4620, 4770.000
764.6070, 4772.000
765.7520, 4758.000
766.8960, 4845.000
768.0410, 4830.000
769.1850, 4909.000
770.3300, 4906.000
771.4740, 4857.000
772.6180, 4860.000
773.7610, 4778.000
774.9050, 4896.000
776.0480, 4958.000
777.1920, 4866.000
778.3350, 4956.000
779.4780, 4919.000
780.6200, 4936.000
781.7630, 4900.000
782.9060, 4905.000
784.0480, 4979.000
785.1900, 4892.000
786.3320, 4907.000
787.4740, 4968.000
788.6150, 4890.000
789.7570, 4956.000
790.8980, 4993.000
792.0390, 4923.000
793.1800, 4955.000
794.3210, 4911.000
795.4620, 4964.000
796.6020, 4929.000
797.7420, 4941.000
798.8830, 4947.000
800.0230, 4935.000
801.1620, 4991.000
802.3020, 4947.000
803.4420, 5046.000
804.5810, 4999.000
805.7200, 5055.000
806.8590, 5082.000
807.9980, 5043.000
809.1370, 5105.000
810.2750, 5111.000
811.4140, 5129.000
812.5520, 5102.000
813.6900, 5085.000
814.8280, 5089.000
815.9650, 5050.000
817.1030, 5175.000
818.2400, 5194.000
819.3780, 5157.000
820.5150, 5252.000
821.6520, 5236.000
822.7880, 5281.000
823.9250, 5233.000
825.0610, 5323.000
826.1980, 5138.000
827.3340, 5238.000
828.4700, 5180.000
829.6050, 5283.000
830.7410, 5234.000
831.8760, 5198.000
833.0120, 5204.000
834.1470, 5213.000
835.2820, 5263.000
836.4160, 5171.000
837.5510, 5237.000
838.6860, 5162.000
839.8200, 5115.000
840.9540, 5149.000
842.0880, 5242.000
843.2220, 5188.000
844.3550, 5197.000
845.4890, 5200.000
846.6220, 5228.000
847.7550, 5158.000
848.8880, 5317.000
850.0210, 5412.000
851.1540, 5401.000
852.2860, 5335.000
853.4190, 5496.000
854.5510, 5554.000
855.6830, 5671.000
856.8150, 5700.000
857.9460, 5660.000
859.0780, 5718.000
860.2090, 5651.000
861.3410, 5635.000
862.4720, 5697.000
863.6020, 5724.000
864.7330, 5587.000
865.8640, 5561.000
866.9940, 5636.000
868.1240, 5562.000
869.2540, 5533.000
870.3840, 5537.000
871.5140, 5525.000
872.6440, 5463.000
873.7730, 5415.000
874.9020, 5422.000
876.0320, 5406.000
877.1600, 5442.000
878.2890, 5460.000
879.4180, 5547.000
880.5460, 5403.000
881.6750, 5445.000
882.8030, 5407.000
883.9310, 5484.000
885.0590, 5420.000
886.1860, 5369.000
887.3140, 5429.000
888.4410, 5397.000
889.5680, 5422.000
890.6950, 5517.000
891.8220, 5413.000
892.9490, 5458.000
894.0750, 5486.000
895.2020, 5373.000
896.3280, 5482.000
897.4540, 5450.000
898.5800, 5433.000
899.7050, 5467.000
900.8310, 5417.000
901.9560, 5412.000
903.0820, 5458.000
904.2070, 5448.000
905.3320, 5411.000
906.4560, 5428.000
907.5810, 5457.000
908.7050, 5519.000
909.8300, 5401.000
910.9540, 5485.000
912.0780, 5464.000
913.2010, 5586.000
914.3250, 5439.000
915.4480, 5432.000
916.5720, 5462.000
917.6950, 5529.000
918.8180, 5586.000
919.9410, 5577.000
921.0630, 5591.000
922.1860, 5575.000
923.3080, 5615.000
924.4300, 5721.000
925.5520, 5591.000
926.6740, 5706.000
927.7960, 5705.000
928.9170, 5625.000
930.0390, 5633.000
931.1600, 5624.000
932.2810, 5705.000
933.4020, 5633.000
934.5230, 5662.000
935.6430, 5707.000
936.7640, 5715.000
937.8840, 5746.806
939.0040, 5697.000
940.1240, 5780.000
941.2440, 5643.000
942.3630, 5624.000
943.4830, 5745.000
944.6020, 5716.000
945.7210, 5655.000
946.8400, 5799.000
947.9590, 5805.000
949.0770, 5762.000
950.1960, 5817.000
951.3140, 5723.000
952.4320, 5777.000
953.5500, 5804.000
954.6680, 5688.000
955.7860, 5769.000
956.9030, 5796.000
958.0210, 5801.000
959.1380, 5814.000
960.2550, 5740.000
961.3720, 5833.000
962.4890, 5934.000
963.6050, 5873.000
964.7220, 5886.000
965.8380, 5990.000
966.9540, 5942.000
968.0700, 6079.000
969.1860, 5988.000
970.3010, 5990.000
971.4170, 6035.000
972.5320, 6053.000
973.6470, 6057.000
974.7620, 6208.000
975.8770, 6111.000
976.9910, 6149.000
978.1060, 6268.000
979.2200, 6420.000
980.3340, 6268.000
981.4480, 6419.000
982.5620, 6479.000
983.6760, 6547.000
984.7890, 6622.000
985.9030, 6738.904
987.0160, 6867.000
988.1290, 6997.000
989.2420, 7137.000
990.3550, 7270.000
991.4670, 7490.000
992.5800, 7585.000
993.6920, 7932.000
994.8040, 8106.000
995.9160, 8450.663
997.0280, 8781.000
998.1390, 9192.000
999.2510, 9619.000
1000.362, 10022.00
1001.473, 10639.00
1002.584, 11010.00
1003.695, 11804.00
1004.805, 12257.00
1005.916, 12856.00
1007.026, 13163.00
1008.136, 13467.00
1009.246, 13638.00
1010.356, 13467.00
1011.466, 13197.00
1012.576, 12730.00
1013.685, 12017.00
1014.794, 11310.00
1015.903, 10341.00
1017.012, 9681.000
1018.121, 9138.000
1019.229, 8583.000
1020.338, 8108.000
1021.446, 7862.000
1022.554, 7632.000
1023.662, 7321.000
1024.770, 7187.000
1025.878, 6941.000
1026.985, 6855.000
1028.092, 6776.000
1029.200, 6742.000
1030.307, 6709.000
1031.413, 6611.000
1032.520, 6629.000
1033.627, 6666.000
1034.733, 6567.000
1035.839, 6621.000
1036.945, 6628.000
1038.051, 6496.000
1039.157, 6527.000
1040.262, 6633.000
1041.368, 6572.000
1042.473, 6505.000
1043.578, 6517.000
1044.683, 6418.000
1045.788, 6386.000
1046.893, 6295.000
1047.997, 6373.000
1049.101, 6295.000
1050.205, 6207.000
1051.309, 6050.000
1052.413, 5944.000
1053.517, 6055.000
1054.621, 5940.000
1055.724, 5916.000
1056.827, 5825.000
1057.930, 5805.000
1059.033, 5798.000
1060.136, 5878.000
1061.238, 5731.000
1062.341, 5749.000
1063.443, 5664.000
1064.545, 5612.000
1065.647, 5695.000
1066.749, 5565.000
1067.850, 5564.000
1068.952, 5638.000
1070.053, 5504.000
1071.154, 5559.000
1072.255, 5594.000
1073.356, 5611.000
1074.457, 5513.000
1075.557, 5522.000
1076.658, 5560.000
1077.758, 5534.000
1078.858, 5602.000
1079.958, 5553.000
1081.057, 5584.000
1082.157, 5553.000
1083.256, 5572.000
1084.356, 5461.000
1085.455, 5404.000
1086.554, 5481.000
1087.653, 5420.000
1088.751, 5519.000
1089.850, 5533.000
1090.948, 5469.000
1092.046, 5470.000
1093.144, 5429.000
1094.242, 5441.000
1095.340, 5481.000
1096.437, 5454.000
1097.534, 5545.000
1098.632, 5380.000
1099.729, 5456.000
1100.826, 5448.000
1101.922, 5347.000
1103.019, 5438.000
1104.115, 5526.000
1105.212, 5431.000
1106.308, 5470.000
1107.404, 5545.000
1108.499, 5402.000
1109.595, 5464.000
1110.691, 5449.000
1111.786, 5402.000
1112.881, 5488.000
1113.976, 5448.000
1115.071, 5432.000
1116.166, 5406.000
1117.260, 5440.000
1118.355, 5437.000
1119.449, 5374.000
1120.543, 5446.000
1121.637, 5350.000
1122.731, 5318.000
1123.824, 5384.000
1124.918, 5415.000
1126.011, 5320.000
1127.104, 5324.000
1128.197, 5304.000
1129.290, 5287.022
1130.382, 5305.000
1131.475, 5294.000
1132.567, 5296.000
1133.659, 5295.000
1134.751, 5165.000
1135.843, 5209.000
1136.935, 5164.000
1138.027, 5257.000
1139.118, 5149.000
1140.209, 5160.000
1141.300, 5242.000
1142.391, 5152.000
1143.482, 5209.000
1144.573, 5182.000
1145.663, 5199.000
1146.754, 5073.000
1147.844, 5119.000
1148.934, 5118.000
1150.024, 5143.000
1151.113, 5215.000
1152.203, 5095.000
1153.292, 5067.000
1154.381, 5146.000
1155.470, 5192.000
1156.559, 5167.000
1157.648, 5093.000
1158.737, 5137.000
1159.825, 5038.000
1160.913, 5146.000
1162.001, 5133.000
1163.089, 5117.000
1164.177, 5122.000
1165.265, 5094.000
1166.352, 5209.000
1167.440, 5190.000
1168.527, 5159.000
1169.614, 5180.000
1170.701, 5130.000
1171.788, 5149.000
1172.874, 5140.000
1173.961, 5193.000
1175.047, 5224.000
1176.133, 5128.000
1177.219, 5152.000
1178.305, 5063.000
1179.390, 5111.000
1180.476, 5175.000
1181.561, 5090.000
1182.646, 5207.000
1183.731, 5126.000
1184.816, 5153.000
1185.901, 5149.000
1186.985, 5199.000
1188.070, 5095.000
1189.154, 5217.000
1190.238, 5122.000
1191.322, 5101.000
1192.406, 5132.000
1193.489, 5197.000
1194.573, 5129.000
1195.656, 5140.000
1196.739, 5223.000
1197.822, 5192.000
1198.905, 5114.000
1199.988, 5097.000
1201.070, 5106.000
1202.153, 5302.000
1203.235, 5153.000
1204.317, 5218.000
1205.399, 5175.000
1206.481, 5163.000
1207.562, 5110.000
1208.644, 5145.573
1209.725, 5274.000
1210.806, 5198.000
1211.887, 5246.000
1212.968, 5228.000
1214.049, 5199.000
1215.129, 5265.000
1216.209, 5273.000
1217.290, 5274.000
1218.370, 5220.000
1219.450, 5234.000
1220.529, 5177.000
1221.609, 5180.701
1222.688, 5144.000
1223.768, 5183.000
1224.847, 5177.433
1225.926, 5267.000
1227.005, 5210.000
1228.083, 5274.000
1229.162, 5309.000
1230.240, 5276.000
1231.318, 5347.000
1232.396, 5261.000
1233.474, 5212.000
1234.552, 5265.000
1235.629, 5255.000
1236.707, 5267.000
1237.784, 5274.640
1238.861, 5313.000
1239.938, 5290.000
1241.015, 5354.000
1242.092, 5413.000
1243.168, 5308.000
1244.244, 5330.000
1245.321, 5352.000
1246.397, 5365.000
1247.473, 5368.000
1248.548, 5380.628
1249.624, 5334.000
1250.699, 5387.000
1251.775, 5338.000
1252.850, 5325.000
1253.925, 5348.000
1254.999, 5374.000
1256.074, 5362.000
1257.148, 5306.000
1258.223, 5335.000
1259.297, 5343.000
1260.371, 5340.000
1261.445, 5392.000
1262.519, 5307.000
1263.592, 5414.000
1264.666, 5336.000
1265.739, 5333.000
1266.812, 5467.000
1267.885, 5472.000
1268.958, 5432.000
1270.030, 5406.000
1271.103, 5416.972
1272.175, 5396.870
1273.247, 5445.000
1274.319, 5388.000
1275.391, 5424.000
1276.463, 5408.000
1277.535, 5405.000
1278.606, 5418.733
1279.677, 5438.000
1280.748, 5419.000
1281.819, 5443.000
1282.890, 5424.000
1283.961, 5434.000
1285.031, 5320.000
1286.102, 5506.000
1287.172, 5376.000
1288.242, 5489.000
1289.312, 5442.000
1290.381, 5458.000
1291.451, 5554.000
1292.520, 5526.274
1293.590, 5504.000
1294.659, 5559.000
1295.728, 5539.000
1296.797, 5548.000
1297.865, 5464.000
1298.934, 5511.000
1300.002, 5507.000
1301.070, 5448.000
1302.138, 5505.000
1303.206, 5483.000
1304.274, 5529.000
1305.341, 5510.000
1306.409, 5508.000
1307.476, 5565.000
1308.543, 5586.000
1309.610, 5522.000
1310.677, 5633.000
1311.744, 5616.000
1312.810, 5567.000
1313.877, 5509.000
1314.943, 5520.000
1316.009, 5576.000
1317.075, 5637.000
1318.140, 5551.000
1319.206, 5512.000
1320.272, 5562.629
1321.337, 5614.000
1322.402, 5623.000
1323.467, 5601.000
1324.532, 5600.000
1325.596, 5605.000
1326.661, 5567.000
1327.725, 5585.000
1328.790, 5587.000
1329.854, 5572.000
1330.918, 5616.000
1331.981, 5631.000
1333.045, 5664.000
1334.108, 5643.000
1335.172, 5694.000
1336.235, 5674.000
1337.298, 5640.000
1338.361, 5681.000
1339.423, 5674.689
1340.486, 5670.000
1341.548, 5679.000
1342.611, 5705.000
1343.673, 5630.000
1344.735, 5651.000
1345.796, 5673.000
1346.858, 5588.000
1347.919, 5676.000
1348.981, 5707.000
1350.042, 5691.000
1351.103, 5692.000
1352.164, 5696.000
1353.225, 5672.000
1354.285, 5721.000
1355.346, 5692.000
1356.406, 5684.000
1357.466, 5703.312
1358.526, 5603.000
1359.586, 5706.000
1360.645, 5722.000
1361.705, 5699.000
1362.764, 5818.000
1363.823, 5700.000
1364.882, 5803.000
1365.941, 5720.000
1367.000, 5759.000
1368.059, 5723.000
1369.117, 5713.000
1370.175, 5790.000
1371.233, 5708.000
1372.291, 5703.000
1373.349, 5745.000
1374.407, 5802.000
1375.464, 5734.000
1376.522, 5740.000
1377.579, 5826.000
1378.636, 5703.000
1379.693, 5764.000
1380.750, 5776.000
1381.806, 5762.000
1382.863, 5715.000
1383.919, 5792.000
1384.975, 5749.000
1386.031, 5824.000
1387.087, 5819.000
1388.143, 5777.000
1389.199, 5816.000
1390.254, 5837.000
1391.309, 5886.000
1392.364, 5809.000
1393.419, 5812.000
1394.474, 5811.000
1395.529, 5810.000
1396.583, 5865.000
1397.638, 5797.000
1398.692, 5876.000
1399.746, 5846.904
1400.800, 5842.000
1401.853, 5839.000
1402.907, 5837.000
1403.960, 5828.220
1405.014, 5816.575
1406.067, 5820.000
1407.120, 5803.000
1408.173, 5817.000
1409.225, 5848.000
1410.278, 5873.000
1411.330, 5870.000
1412.383, 5855.000
1413.435, 5916.000
1414.487, 5902.000
1415.538, 5921.000
1416.590, 5932.000
1417.641, 5853.000
1418.693, 5873.000
1419.744, 5871.000
1420.795, 5954.000
1421.846, 5887.000
1422.897, 5872.000
1423.947, 5863.000
1424.998, 5972.000
1426.048, 5910.000
1427.098, 5949.000
1428.148, 5998.000
1429.198, 5922.000
1430.247, 5968.000
1431.297, 5874.000
1432.346, 5871.000
1433.396, 5883.000
1434.445, 5897.000
1435.494, 5930.000
1436.542, 5969.000
1437.591, 5853.000
1438.639, 5891.000
1439.688, 5994.000
1440.736, 6044.000
1441.784, 5930.000
1442.832, 5990.000
1443.880, 5987.000
1444.927, 5946.000
1445.975, 5982.000
1447.022, 5954.802
1448.069, 5965.000
1449.116, 5956.000
1450.163, 5942.000
1451.209, 5986.000
1452.256, 5943.000
1453.302, 5956.000
1454.348, 6006.000
1455.394, 5887.000
1456.440, 5998.000
1457.486, 5981.000
1458.532, 6010.000
1459.577, 6081.000
1460.623, 5982.000
1461.668, 5962.000
1462.713, 5998.000
1463.758, 6033.000
1464.802, 5970.000
1465.847, 6152.000
1466.891, 6012.000
1467.936, 5983.000
1468.980, 6128.000
1470.024, 6006.000
1471.067, 6037.000
1472.111, 6080.000
1473.155, 5955.000
1474.198, 6110.000
1475.241, 6021.000
1476.284, 5997.000
1477.327, 6124.000
1478.370, 6057.000
1479.413, 6130.000
1480.455, 6064.000
1481.497, 6031.000
1482.540, 6167.000
1483.582, 6119.000
1484.624, 6092.000
1485.665, 6104.000
1486.707, 6031.000
1487.748, 6152.000
1488.790, 6140.000
1489.831, 6136.000
1490.872, 6083.000
1491.912, 6107.000
1492.953, 6165.000
1493.994, 6037.000
1495.034, 6078.000
1496.074, 6144.000
1497.114, 6137.000
1498.154, 6051.000
1499.194, 6066.000
1500.234, 6088.000
1501.273, 6116.000
1502.313, 6105.237
1503.352, 6128.926
1504.391, 6091.000
1505.430, 6143.000
1506.468, 6155.000
1507.507, 6146.000
1508.545, 6216.000
1509.584, 6150.000
1510.622, 6130.000
1511.660, 6136.000
1512.698, 6218.000
1513.735, 6199.000
1514.773, 6199.000
1515.810, 6214.000
1516.848, 6225.000
1517.885, 6159.000
1518.922, 6201.000
1519.958, 6258.000
1520.995, 6208.000
1522.032, 6260.000
1523.068, 6287.000
1524.104, 6296.000
1525.140, 6310.000
1526.176, 6251.000
1527.212, 6234.000
1528.248, 6248.000
1529.283, 6222.000
1530.318, 6266.000
1531.353, 6285.000
1532.389, 6163.000
1533.423, 6329.000
1534.458, 6347.000
1535.493, 6207.000
1536.527, 6232.000
1537.561, 6214.318
1538.596, 6281.000
1539.630, 6239.000
1540.663, 6261.000
1541.697, 6301.000
1542.731, 6412.000
1543.764, 6305.000
1544.797, 6280.000
1545.830, 6377.000
1546.863, 6278.000
1547.896, 6357.000
1548.929, 6267.000
1549.961, 6308.000
1550.994, 6343.000
1552.026, 6363.000
1553.058, 6347.000
1554.090, 6394.000
##END=



