##NAMES=Augite
##RRUFFID=R061108
##IDEAL CHEMISTRY=(Ca,Mg,Fe^2+^,Fe^3+^)_2_(Si,Al)_2_O_6_
##LOCALITY=Monti Rossi, near Mt. Etna, Sicily, Italy
##OWNER=RRUFF
##SOURCE=Michael Scott
##DESCRIPTION=Euhedral, short prismatic, black crystals in vesicular basalt.
##STATUS=The identification of this mineral is confirmed by single-crystal X-ray diffraction and chemical analysis.
##URL=rruff.info/R061108
##MEASURED CHEMISTRY=(Ca_0.86_Mg_0.74_Fe^2+^_0.18_Fe^3+^_0.08_Al_0.05_Ti_0.04_Na_0.04_Mn_0.01_)_Σ=2_(Si_1.83_Al_0.17_)_Σ=2_O_6_
##PIN_ID=L01364
##ORIENTATION=Laser parallel to b* (0 1 0). Fiducial mark perpendicular to laser is parallel to c [0 0 1]
163.5600, 16349.00
164.7860, 16724.00
166.0120, 16902.00
167.2380, 16944.00
168.4640, 16960.00
169.6890, 17107.00
170.9150, 17454.00
172.1400, 17413.00
173.3650, 17377.00
174.5900, 17335.00
175.8150, 17305.00
177.0400, 17472.00
178.2640, 17751.00
179.4880, 17688.00
180.7130, 17719.00
181.9370, 17684.00
183.1600, 17658.00
184.3840, 17564.00
185.6080, 17613.00
186.8310, 17632.00
188.0540, 17642.26
189.2770, 17537.00
190.5000, 17650.00
191.7230, 17634.00
192.9460, 17470.00
194.1680, 17392.00
195.3910, 17534.00
196.6130, 17489.00
197.8350, 17392.00
199.0570, 17486.00
200.2780, 17313.00
201.5000, 17352.00
202.7210, 17248.00
203.9420, 17310.00
205.1640, 16612.00
206.3840, 16257.00
207.6050, 15950.00
208.8260, 15714.00
210.0460, 15804.00
211.2670, 15927.00
212.4870, 15967.00
213.7070, 15974.00
214.9270, 15993.00
216.1460, 15854.00
217.3660, 15986.00
218.5850, 15893.00
219.8050, 16103.00
221.0240, 16240.00
222.2430, 16116.00
223.4610, 16355.00
224.6800, 16314.00
225.8980, 16360.00
227.1170, 16325.00
228.3350, 16320.00
229.5530, 16479.00
230.7710, 16362.00
231.9880, 16267.00
233.2060, 16273.00
234.4230, 16388.00
235.6400, 16281.00
236.8570, 16192.00
238.0740, 16431.00
239.2910, 16461.00
240.5080, 16374.00
241.7240, 16396.00
242.9400, 16401.02
244.1570, 16477.00
245.3730, 16453.00
246.5880, 16528.00
247.8040, 16593.00
249.0190, 16628.00
250.2350, 16628.30
251.4500, 16588.00
252.6650, 16629.00
253.8800, 16554.00
255.0950, 16647.00
256.3090, 16505.39
257.5240, 16600.99
258.7380, 16633.11
259.9520, 16605.12
261.1660, 16336.97
262.3800, 16378.93
263.5930, 16296.65
264.8070, 16209.24
266.0200, 16028.00
267.2330, 16169.00
268.4460, 16050.00
269.6590, 16145.00
270.8720, 16155.82
272.0850, 16171.91
273.2970, 16213.00
274.5090, 16253.00
275.7210, 16321.00
276.9330, 16338.79
278.1450, 16504.00
279.3570, 16595.00
280.5680, 16600.82
281.7790, 16907.00
282.9910, 16689.00
284.2020, 16773.00
285.4120, 16981.00
286.6230, 17066.00
287.8340, 17340.00
289.0440, 17295.00
290.2540, 17421.00
291.4640, 17735.00
292.6740, 17573.00
293.8840, 18008.00
295.0940, 18284.00
296.3030, 18524.00
297.5120, 19026.00
298.7210, 19013.00
299.9300, 19522.00
301.1390, 19881.00
302.3480, 20491.00
303.5560, 20804.88
304.7650, 21173.00
305.9730, 21533.00
307.1810, 22124.00
308.3890, 22564.00
309.5970, 23305.00
310.8040, 24072.00
312.0120, 25245.00
313.2190, 25781.48
314.4260, 26362.64
315.6330, 27057.00
316.8400, 27215.00
318.0460, 27688.00
319.2530, 28206.00
320.4590, 28787.00
321.6650, 29075.00
322.8710, 29334.64
324.0770, 29824.00
325.2830, 29550.00
326.4880, 29641.00
327.6940, 29643.00
328.8990, 29256.00
330.1040, 28911.00
331.3090, 28914.00
332.5140, 28308.00
333.7180, 28039.00
334.9230, 27683.00
336.1270, 27292.00
337.3310, 26856.00
338.5350, 26664.00
339.7390, 26378.00
340.9430, 26041.00
342.1460, 25877.00
343.3500, 25719.00
344.5530, 25595.00
345.7560, 25498.00
346.9590, 25386.00
348.1620, 25098.00
349.3640, 24999.00
350.5670, 24809.00
351.7690, 24842.00
352.9710, 24841.00
354.1730, 24518.00
355.3750, 24201.00
356.5760, 23835.00
357.7780, 23503.89
358.9790, 23166.58
360.1800, 22824.00
361.3810, 22512.00
362.5820, 22214.00
363.7830, 21932.00
364.9830, 21630.00
366.1840, 21370.35
367.3840, 21121.00
368.5840, 20896.00
369.7840, 20699.00
370.9840, 20560.00
372.1830, 20687.00
373.3830, 20522.00
374.5820, 20752.00
375.7810, 20810.32
376.9800, 20906.60
378.1790, 21108.00
379.3780, 21217.00
380.5760, 21421.00
381.7750, 21614.00
382.9730, 21857.00
384.1710, 22076.00
385.3690, 22506.00
386.5660, 22483.00
387.7640, 22670.00
388.9610, 22833.00
390.1590, 22641.00
391.3560, 22406.00
392.5530, 21880.00
393.7500, 21552.00
394.9460, 21020.00
396.1430, 20271.00
397.3390, 19949.00
398.5350, 19095.00
399.7310, 18554.00
400.9270, 17953.00
402.1230, 17437.00
403.3180, 17018.48
404.5140, 16601.99
405.7090, 16303.00
406.9040, 15984.00
408.0990, 15744.00
409.2930, 15574.00
410.4880, 15204.00
411.6820, 15152.10
412.8770, 15176.00
414.0710, 15075.00
415.2650, 14814.00
416.4590, 14971.00
417.6520, 15025.00
418.8460, 14761.00
420.0390, 14833.00
421.2320, 14712.00
422.4250, 14573.00
423.6180, 14679.00
424.8110, 14642.00
426.0030, 14351.00
427.1960, 14409.00
428.3880, 15069.00
429.5800, 15082.00
430.7720, 14837.00
431.9640, 14404.00
433.1550, 14176.00
434.3470, 14285.00
435.5380, 14073.00
436.7290, 14135.00
437.9200, 14028.00
439.1110, 13941.00
440.3020, 13913.00
441.4920, 13897.00
442.6820, 13829.00
443.8730, 13749.00
445.0630, 13860.00
446.2530, 13870.00
447.4420, 13694.00
448.6320, 13949.00
449.8210, 13855.00
451.0100, 13744.00
452.2000, 13796.00
453.3880, 13738.00
454.5770, 13838.00
455.7660, 13960.00
456.9540, 13924.00
458.1430, 13865.00
459.3310, 13920.00
460.5190, 13959.00
461.7070, 13957.00
462.8940, 14248.00
464.0820, 13990.00
465.2690, 14150.00
466.4560, 13941.00
467.6430, 13824.00
468.8300, 13929.00
470.0170, 13994.00
471.2040, 14011.00
472.3900, 13820.00
473.5760, 13870.00
474.7620, 14004.00
475.9480, 13878.00
477.1340, 14059.00
478.3200, 13967.00
479.5050, 13998.00
480.6900, 14059.00
481.8750, 13839.00
483.0600, 14119.00
484.2450, 14200.00
485.4300, 14275.00
486.6140, 14141.00
487.7990, 14300.00
488.9830, 14230.00
490.1670, 14570.00
491.3510, 14645.00
492.5350, 14810.00
493.7180, 15131.00
494.9020, 15189.00
496.0850, 15331.00
497.2680, 15899.00
498.4510, 16062.00
499.6340, 16454.00
500.8160, 16768.00
501.9990, 17167.00
503.1810, 17465.00
504.3630, 17671.00
505.5450, 17672.00
506.7270, 17643.00
507.9090, 17717.00
509.0900, 17579.00
510.2720, 17472.00
511.4530, 17191.00
512.6340, 17104.00
513.8150, 16845.00
514.9950, 16750.00
516.1760, 16631.00
517.3560, 16700.00
518.5370, 16694.00
519.7170, 16741.00
520.8970, 16913.00
522.0770, 16904.00
523.2560, 17114.00
524.4360, 17071.00
525.6150, 17242.00
526.7940, 17385.00
527.9730, 17512.00
529.1520, 17385.00
530.3310, 17660.00
531.5090, 17511.00
532.6870, 17613.00
533.8660, 17568.00
535.0440, 17570.00
536.2210, 17480.00
537.3990, 17591.00
538.5770, 17236.00
539.7540, 17093.00
540.9310, 17158.00
542.1080, 17000.00
543.2850, 16758.00
544.4620, 16891.00
545.6390, 16631.00
546.8150, 16560.00
547.9920, 16404.00
549.1680, 16382.00
550.3440, 16319.00
551.5190, 16319.00
552.6950, 16074.00
553.8710, 16045.00
555.0460, 15964.00
556.2210, 16065.00
557.3960, 16025.00
558.5710, 15905.00
559.7460, 15844.00
560.9200, 15792.00
562.0950, 15782.00
563.2690, 15786.00
564.4430, 15623.00
565.6170, 15580.00
566.7910, 15588.00
567.9640, 15467.00
569.1380, 15295.00
570.3110, 15190.00
571.4840, 15187.00
572.6570, 14913.00
573.8300, 14708.00
575.0030, 14787.00
576.1750, 14483.00
577.3470, 14508.00
578.5200, 14213.00
579.6920, 14098.00
580.8630, 13756.00
582.0350, 13489.00
583.2070, 13592.00
584.3780, 13322.00
585.5490, 13103.00
586.7200, 12819.00
587.8910, 12716.00
589.0620, 12400.00
590.2330, 12483.00
591.4030, 12367.00
592.5730, 12149.00
593.7430, 12115.00
594.9130, 12036.00
596.0830, 11783.00
597.2530, 11772.00
598.4220, 11818.00
599.5920, 11687.41
600.7610, 11806.00
601.9300, 11647.00
603.0990, 11715.00
604.2670, 11806.00
605.4360, 11865.00
606.6040, 11895.00
607.7720, 11902.00
608.9400, 11943.00
610.1080, 11933.00
611.2760, 11936.00
612.4440, 12025.00
613.6110, 12031.00
614.7780, 12058.00
615.9450, 12162.00
617.1120, 12153.00
618.2790, 12392.00
619.4460, 12358.00
620.6120, 12516.00
621.7780, 12683.00
622.9450, 12748.00
624.1110, 12739.00
625.2760, 13019.00
626.4420, 12999.00
627.6080, 13244.00
628.7730, 13432.00
629.9380, 13616.00
631.1030, 13793.00
632.2680, 14031.00
633.4330, 14420.00
634.5970, 14678.00
635.7620, 15012.00
636.9260, 15235.00
638.0900, 15541.00
639.2540, 16169.00
640.4180, 16849.00
641.5810, 17355.00
642.7450, 17892.00
643.9080, 18872.00
645.0710, 19788.00
646.2340, 20712.00
647.3970, 21870.00
648.5590, 23383.00
649.7220, 24889.00
650.8840, 26774.00
652.0460, 29215.00
653.2080, 31282.00
654.3700, 34057.00
655.5320, 37295.00
656.6930, 40448.00
657.8550, 43855.00
659.0160, 47470.00
660.1770, 50540.00
661.3380, 52967.00
662.4990, 55100.00
663.6590, 56491.00
664.8200, 56571.00
665.9800, 55632.00
667.1400, 53747.00
668.3000, 51068.00
669.4600, 47543.00
670.6190, 44183.00
671.7790, 40330.00
672.9380, 37015.00
674.0970, 33843.00
675.2560, 31299.00
676.4150, 28598.00
677.5740, 26608.00
678.7320, 24534.00
679.8900, 22998.00
681.0490, 21665.00
682.2070, 20636.00
683.3640, 19620.00
684.5220, 18861.00
685.6800, 18296.00
686.8370, 17715.00
687.9940, 17309.00
689.1510, 16717.00
690.3080, 16626.00
691.4650, 16337.00
692.6220, 16193.00
693.7780, 15910.00
694.9340, 15814.00
696.0900, 15785.00
697.2460, 15666.00
698.4020, 15606.00
699.5580, 15727.00
700.7130, 15607.00
701.8680, 15467.00
703.0240, 15747.00
704.1790, 15651.00
705.3330, 15511.00
706.4880, 15642.00
707.6430, 15609.00
708.7970, 15670.00
709.9510, 15616.17
711.1050, 15599.08
712.2590, 15510.00
713.4130, 15475.00
714.5660, 15525.00
715.7200, 15368.00
716.8730, 15138.00
718.0260, 14905.00
719.1790, 14634.00
720.3320, 14625.00
721.4840, 14409.00
722.6370, 14312.00
723.7890, 14156.00
724.9410, 13971.00
726.0930, 13868.00
727.2450, 13742.00
728.3960, 13490.00
729.5480, 13452.00
730.6990, 13372.00
731.8500, 13434.00
733.0010, 13429.00
734.1520, 13332.00
735.3030, 13418.00
736.4530, 13420.00
737.6040, 13431.00
738.7540, 13517.00
739.9040, 13558.00
741.0540, 13691.00
742.2030, 13803.77
743.3530, 13954.00
744.5020, 14059.00
745.6520, 14239.00
746.8010, 14313.00
747.9490, 14329.00
749.0980, 14553.00
750.2470, 14646.00
751.3950, 15009.00
752.5440, 15104.00
753.6920, 15181.00
754.8400, 15238.00
755.9870, 15430.00
757.1350, 15663.00
758.2820, 15802.00
759.4300, 15961.00
760.5770, 16052.00
761.7240, 16176.00
762.8710, 16377.00
764.0170, 16471.00
765.1640, 16376.00
766.3100, 16725.00
767.4560, 16570.00
768.6020, 16718.00
769.7480, 16775.00
770.8940, 16858.00
772.0400, 16853.00
773.1850, 16871.00
774.3300, 16868.63
775.4750, 16808.47
776.6200, 16778.00
777.7650, 16690.00
778.9090, 16543.00
780.0540, 16523.00
781.1980, 16601.00
782.3420, 16397.00
783.4860, 16304.00
784.6300, 16102.00
785.7740, 16059.00
786.9170, 16286.00
788.0600, 16150.00
789.2030, 16336.00
790.3460, 16022.00
791.4890, 16178.00
792.6320, 16034.00
793.7740, 16001.00
794.9170, 16029.00
796.0590, 15988.87
797.2010, 16067.00
798.3430, 16050.00
799.4850, 16068.00
800.6260, 16150.00
801.7670, 16261.00
802.9090, 16146.00
804.0500, 16194.79
805.1910, 16396.00
806.3310, 16200.00
807.4720, 16413.00
808.6120, 16589.00
809.7530, 16691.00
810.8930, 16569.00
812.0330, 16666.00
813.1720, 16543.00
814.3120, 16716.00
815.4510, 16732.00
816.5910, 16829.00
817.7300, 16986.00
818.8690, 16723.00
820.0080, 16941.00
821.1460, 16764.00
822.2850, 17048.00
823.4230, 16873.00
824.5610, 16980.00
825.6990, 17066.00
826.8370, 16825.00
827.9750, 16907.00
829.1120, 16773.00
830.2500, 16820.00
831.3870, 16840.00
832.5240, 16669.00
833.6610, 16727.00
834.7980, 16744.00
835.9340, 16510.00
837.0700, 16677.00
838.2070, 16301.00
839.3430, 16164.00
840.4790, 16454.00
841.6140, 16346.00
842.7500, 16398.00
843.8850, 16410.00
845.0210, 16561.00
846.1560, 16689.00
847.2910, 16762.00
848.4260, 16927.00
849.5600, 17089.00
850.6950, 17287.00
851.8290, 17591.00
852.9630, 17800.00
854.0970, 17981.00
855.2310, 18239.00
856.3650, 18383.00
857.4980, 18555.00
858.6310, 18532.00
859.7650, 18725.00
860.8980, 18635.00
862.0310, 18704.00
863.1630, 18592.00
864.2960, 18460.00
865.4280, 18415.00
866.5600, 18412.00
867.6920, 18362.00
868.8240, 18314.00
869.9560, 18248.00
871.0880, 18149.00
872.2190, 18020.00
873.3500, 17759.00
874.4810, 17800.00
875.6120, 18038.00
876.7430, 17694.00
877.8740, 17900.00
879.0040, 17765.00
880.1340, 17793.00
881.2650, 17853.00
882.3950, 17803.00
883.5240, 17970.00
884.6540, 17881.00
885.7830, 17912.00
886.9130, 17826.00
888.0420, 17904.00
889.1710, 17986.00
890.3000, 17932.00
891.4280, 17920.00
892.5570, 18079.00
893.6850, 18055.00
894.8130, 18078.00
895.9420, 18041.00
897.0690, 18176.00
898.1970, 18260.00
899.3250, 18267.74
900.4520, 18206.00
901.5790, 18290.00
902.7060, 18239.00
903.8330, 18162.00
904.9600, 18370.00
906.0870, 18353.00
907.2130, 18560.00
908.3390, 18516.00
909.4650, 18697.00
910.5910, 18668.00
911.7170, 18600.00
912.8430, 18763.00
913.9680, 18841.00
915.0930, 18870.00
916.2180, 18935.00
917.3430, 19126.00
918.4680, 19244.00
919.5930, 19373.00
920.7170, 19421.00
921.8420, 19584.00
922.9660, 19793.00
924.0900, 19830.00
925.2140, 19639.00
926.3370, 20063.00
927.4610, 19809.00
928.5840, 19937.00
929.7070, 20038.00
930.8310, 20108.00
931.9530, 20024.00
933.0760, 20035.00
934.1990, 19959.00
935.3210, 19938.16
936.4430, 19883.00
937.5650, 19886.00
938.6870, 19932.00
939.8090, 19909.00
940.9310, 20006.00
942.0520, 19796.00
943.1730, 19850.00
944.2940, 19740.00
945.4150, 19899.00
946.5360, 19742.00
947.6570, 19817.00
948.7770, 19633.00
949.8970, 19773.00
951.0180, 19793.00
952.1370, 19865.00
953.2570, 19882.88
954.3770, 19571.00
955.4960, 19831.00
956.6160, 19894.00
957.7350, 19776.00
958.8540, 19986.00
959.9730, 20012.00
961.0910, 19955.00
962.2100, 20064.00
963.3280, 20326.00
964.4460, 20117.00
965.5640, 20323.00
966.6820, 20505.00
967.8000, 20489.00
968.9180, 20779.00
970.0350, 20832.00
971.1520, 20790.00
972.2690, 21014.00
973.3860, 21425.00
974.5030, 21575.00
975.6190, 21967.00
976.7360, 22184.00
977.8520, 22416.00
978.9680, 22744.00
980.0840, 23012.00
981.2000, 23322.00
982.3160, 23829.00
983.4310, 24060.00
984.5460, 24780.00
985.6610, 25276.00
986.7760, 26116.00
987.8910, 26786.00
989.0060, 27583.00
990.1200, 28697.00
991.2350, 29674.00
992.3490, 31141.00
993.4630, 32372.00
994.5760, 34039.00
995.6900, 35851.00
996.8040, 37565.00
997.9170, 39350.00
999.0300, 41744.00
1000.143, 43920.00
1001.256, 46666.00
1002.369, 48610.00
1003.481, 50878.00
1004.594, 52974.00
1005.706, 54873.00
1006.818, 56121.00
1007.930, 56296.00
1009.042, 56364.00
1010.153, 55358.00
1011.264, 53521.00
1012.376, 51231.00
1013.487, 48389.00
1014.598, 44885.00
1015.708, 42064.00
1016.819, 38861.00
1017.929, 35972.00
1019.040, 33562.00
1020.150, 31417.00
1021.260, 29908.00
1022.370, 28304.00
1023.479, 27273.00
1024.589, 26347.00
1025.698, 25313.00
1026.807, 24868.00
1027.916, 24361.00
1029.025, 24052.00
1030.133, 23573.00
1031.242, 23508.00
1032.350, 22956.00
1033.458, 23258.00
1034.566, 22989.00
1035.674, 22476.00
1036.782, 22496.00
1037.890, 22301.00
1038.997, 22028.00
1040.104, 22065.00
1041.211, 21615.00
1042.318, 21555.00
1043.425, 21365.00
1044.531, 20915.00
1045.638, 20566.00
1046.744, 20430.00
1047.850, 19977.00
1048.956, 19667.00
1050.061, 19415.00
1051.167, 19089.00
1052.272, 18837.00
1053.378, 18550.36
1054.483, 18250.37
1055.588, 18015.00
1056.692, 17718.00
1057.797, 17497.00
1058.901, 17357.00
1060.006, 17170.00
1061.110, 17126.00
1062.214, 16727.00
1063.318, 16676.00
1064.421, 16600.00
1065.525, 16361.00
1066.628, 16429.00
1067.731, 16145.00
1068.834, 16172.00
1069.937, 16082.00
1071.040, 16052.00
1072.142, 15881.00
1073.244, 15927.00
1074.347, 15827.00
1075.449, 15862.00
1076.550, 15716.00
1077.652, 15680.00
1078.754, 15560.00
1079.855, 15543.00
1080.956, 15412.00
1082.057, 15373.00
1083.158, 15461.00
1084.259, 15168.00
1085.359, 15263.00
1086.460, 15405.00
1087.560, 15240.00
1088.660, 15080.00
1089.760, 15073.00
1090.860, 15071.00
1091.959, 14959.00
1093.059, 14856.00
1094.158, 14711.00
1095.257, 14805.00
1096.356, 14760.00
1097.455, 14932.00
1098.553, 14668.00
1099.652, 14610.00
1100.750, 14479.00
1101.848, 14501.00
1102.946, 14589.00
1104.044, 14469.00
1105.141, 14553.00
1106.239, 14418.00
1107.336, 14414.44
1108.433, 14275.05
1109.530, 14365.00
1110.627, 14030.00
1111.724, 13992.00
1112.820, 14059.00
1113.917, 13903.00
1115.013, 13884.00
1116.109, 13870.00
1117.205, 13651.00
1118.300, 13647.00
1119.396, 13754.00
1120.491, 13527.00
1121.586, 13512.00
1122.681, 13412.00
1123.776, 13244.00
1124.871, 13139.00
1125.965, 13015.00
1127.060, 12916.00
1128.154, 12746.00
1129.248, 12662.00
1130.342, 12431.00
1131.436, 12276.00
1132.529, 12189.00
1133.623, 11902.00
1134.716, 12045.00
1135.809, 11948.00
1136.902, 11688.00
1137.995, 11676.00
1139.087, 11450.00
1140.180, 11489.00
1141.272, 11424.00
1142.364, 11463.00
1143.456, 11140.00
1144.548, 11113.00
1145.639, 10955.00
1146.731, 10948.00
1147.822, 10877.00
1148.913, 10715.00
1150.004, 10703.00
1151.095, 10603.00
1152.186, 10623.00
1153.276, 10631.00
1154.366, 10639.00
1155.457, 10442.00
1156.546, 10488.00
1157.636, 10379.00
1158.726, 10576.00
1159.815, 10403.00
1160.905, 10381.00
1161.994, 10461.00
1163.083, 10348.00
1164.172, 10485.00
1165.261, 10474.00
1166.349, 10430.00
1167.437, 10341.00
1168.526, 10397.00
1169.614, 10342.00
1170.702, 10368.00
1171.789, 10406.00
1172.877, 10378.00
1173.964, 10422.00
1175.051, 10353.00
1176.138, 10317.00
1177.225, 10281.00
1178.312, 10331.00
1179.399, 10349.00
1180.485, 10309.74
1181.571, 10309.34
1182.657, 10278.00
1183.743, 10237.00
1184.829, 10297.00
1185.915, 10262.00
1187.000, 10322.00
1188.085, 10196.00
1189.171, 10178.00
1190.255, 10331.00
1191.340, 10136.00
1192.425, 10175.00
1193.509, 10303.00
1194.594, 10226.00
1195.678, 10146.00
1196.762, 10110.00
1197.846, 10243.00
1198.929, 10307.00
1200.013, 10222.00
1201.096, 10212.00
1202.179, 10229.00
1203.262, 10280.00
1204.345, 10198.00
1205.428, 10174.00
1206.510, 10278.00
1207.593, 10330.00
1208.675, 10264.00
1209.757, 10012.00
1210.839, 10108.00
1211.920, 10160.00
1213.002, 10274.00
1214.083, 10284.00
1215.164, 10191.00
1216.245, 10215.00
1217.326, 10216.00
1218.407, 10326.00
1219.488, 10103.00
1220.568, 10156.00
1221.648, 10092.00
1222.728, 10273.00
1223.808, 10120.00
1224.888, 10160.00
1225.967, 10114.00
1227.047, 10202.00
1228.126, 10146.00
1229.205, 10088.00
1230.284, 10062.00
1231.363, 10167.00
1232.441, 10149.00
1233.520, 10136.00
1234.598, 10287.00
1235.676, 10134.00
1236.754, 10148.00
1237.832, 10186.00
1238.910, 10095.00
1239.987, 10117.00
1241.064, 10172.00
1242.141, 10201.00
1243.218, 10177.00
1244.295, 10181.00
1245.372, 10140.00
1246.448, 10115.00
1247.525, 10116.38
1248.601, 10210.00
1249.677, 10090.00
1250.753, 10152.00
1251.828, 10097.73
1252.904, 10104.00
1253.979, 10090.00
1255.054, 10163.00
1256.129, 10163.00
1257.204, 10207.00
1258.279, 10191.00
1259.353, 10112.00
1260.428, 10191.00
1261.502, 10190.00
1262.576, 10242.00
1263.650, 10176.00
1264.724, 10190.00
1265.797, 10209.00
1266.871, 10236.00
1267.944, 10116.00
1269.017, 10141.00
1270.090, 10201.00
1271.162, 10062.00
1272.235, 10275.00
1273.307, 10286.00
1274.380, 10160.00
1275.452, 10132.00
1276.524, 10149.00
1277.595, 10217.00
1278.667, 10078.00
1279.738, 10093.00
1280.810, 10241.00
1281.881, 10121.00
1282.952, 10032.00
1284.022, 10038.00
1285.093, 10108.00
1286.164, 10159.00
1287.234, 10154.00
1288.304, 10132.00
1289.374, 10041.00
1290.444, 10341.00
1291.513, 10085.00
1292.583, 10202.00
1293.652, 10304.00
1294.721, 10159.00
1295.790, 10114.00
1296.859, 10183.00
1297.928, 10191.00
1298.996, 10176.00
1300.064, 10206.00
1301.133, 10135.00
1302.201, 10233.00
1303.268, 10121.00
1304.336, 10229.00
1305.404, 10239.00
1306.471, 10187.00
1307.538, 10288.00
1308.605, 10242.44
1309.672, 10182.00
1310.739, 10323.00
1311.805, 10404.00
1312.872, 10343.64
1313.938, 10399.18
1315.004, 10290.00
1316.070, 10327.00
1317.135, 10367.00
1318.201, 10267.00
1319.266, 10400.00
1320.332, 10406.00
1321.397, 10380.00
1322.462, 10388.00
1323.526, 10295.00
1324.591, 10310.00
1325.655, 10465.00
1326.720, 10385.00
1327.784, 10361.00
1328.848, 10397.00
1329.911, 10269.00
1330.975, 10403.00
1332.038, 10407.00
1333.102, 10506.00
1334.165, 10456.00
1335.228, 10393.00
1336.290, 10428.00
1337.353, 10489.00
1338.415, 10391.00
1339.478, 10324.00
1340.540, 10392.00
1341.602, 10450.00
1342.664, 10261.00
1343.725, 10373.00
1344.787, 10368.00
1345.848, 10372.00
1346.909, 10216.00
1347.970, 10280.00
1349.031, 10341.00
1350.092, 10432.00
1351.152, 10374.00
1352.212, 10471.00
1353.273, 10346.00
1354.333, 10388.00
1355.392, 10470.00
1356.452, 10353.00
1357.512, 10429.00
1358.571, 10258.00
1359.630, 10302.00
1360.689, 10404.00
1361.748, 10461.00
1362.807, 10345.00
1363.865, 10398.00
1364.924, 10326.00
1365.982, 10405.00
1367.040, 10287.00
1368.098, 10341.00
1369.155, 10441.00
1370.213, 10503.00
1371.270, 10445.00
1372.328, 10422.00
1373.385, 10387.00
1374.442, 10349.00
1375.498, 10366.00
1376.555, 10346.86
1377.611, 10399.00
1378.668, 10374.00
1379.724, 10394.00
1380.780, 10456.00
1381.835, 10359.00
1382.891, 10449.00
1383.946, 10391.00
1385.002, 10319.00
1386.057, 10246.00
1387.112, 10359.00
1388.166, 10402.00
1389.221, 10346.86
1390.275, 10489.53
1391.330, 10568.68
1392.384, 10587.71
1393.438, 10366.59
1394.492, 10455.59
1395.545, 10420.30
1396.599, 10379.92
1397.652, 10512.56
1398.705, 10326.37
1399.758, 10456.27
1400.811, 10459.99
1401.863, 10521.46
1402.916, 10483.00
1403.968, 10512.00
1405.020, 10535.00
1406.072, 10470.00
1407.124, 10601.00
1408.176, 10505.00
1409.227, 10467.00
1410.279, 10447.00
1411.330, 10620.00
1412.381, 10473.00
1413.432, 10400.00
1414.482, 10641.00
1415.533, 10691.00
1416.583, 10468.00
1417.633, 10500.00
1418.684, 10610.00
1419.733, 10400.00
1420.783, 10474.00
1421.833, 10571.00
1422.882, 10711.00
1423.931, 10516.00
1424.980, 10470.63
1426.029, 10612.42
1427.078, 10690.67
1428.126, 10708.82
1429.175, 10486.81
1430.223, 10574.92
1431.271, 10538.74
1432.319, 10497.47
1433.367, 10629.22
1434.414, 10442.14
1435.462, 10571.15
1436.509, 10573.98
1437.556, 10634.57
1438.603, 10570.10
1439.650, 10544.26
1440.696, 10643.51
1441.743, 10673.49
1442.789, 10594.64
1443.835, 10658.89
1444.881, 10467.45
1445.927, 10500.39
1446.972, 10630.14
1448.018, 10557.57
1449.063, 10624.11
1450.108, 10637.68
1451.153, 10410.46
1452.198, 10601.99
1453.243, 10612.42
1454.287, 10436.92
1455.331, 10614.09
1456.376, 10464.22
1457.420, 10431.09
1458.463, 10485.81
1459.507, 10448.95
1460.550, 10556.47
1461.594, 10524.90
1462.637, 10480.90
1463.680, 10491.13
1464.723, 10347.68
1465.765, 10489.36
1466.808, 10436.26
1467.850, 10479.99
1468.892, 10545.65
1469.934, 10443.30
1470.976, 10518.83
1472.018, 10318.50
1473.060, 10348.99
1474.101, 10354.62
1475.142, 10507.80
1476.183, 10308.82
1477.224, 10332.90
1478.265, 10451.95
1479.305, 10438.12
1480.346, 10479.84
1481.386, 10357.08
1482.426, 10388.85
1483.466, 10378.02
1484.505, 10514.38
1485.545, 10534.54
1486.584, 10414.57
1487.624, 10295.19
1488.663, 10442.15
1489.702, 10362.00
1490.740, 10349.00
1491.779, 10378.00
1492.817, 10471.00
1493.856, 10472.00
1494.894, 10430.00
1495.932, 10386.00
1496.969, 10493.00
1498.007, 10375.00
1499.044, 10456.00
1500.082, 10461.00
1501.119, 10431.00
1502.156, 10356.00
1503.192, 10403.00
1504.229, 10427.00
1505.265, 10409.00
1506.302, 10540.00
1507.338, 10411.00
1508.374, 10487.00
1509.410, 10394.00
1510.445, 10475.00
1511.481, 10471.00
1512.516, 10421.00
1513.551, 10498.00
1514.586, 10430.00
1515.621, 10431.00
1516.655, 10369.00
1517.690, 10413.00
1518.724, 10478.00
1519.758, 10480.00
1520.792, 10474.00
1521.826, 10649.00
1522.860, 10469.00
1523.893, 10358.00
1524.927, 10583.00
1525.960, 10467.00
1526.993, 10545.00
1528.026, 10488.00
1529.058, 10626.00
1530.091, 10455.00
1531.123, 10427.00
1532.155, 10524.00
1533.187, 10471.90
1534.219, 10445.05
1535.251, 10549.00
1536.282, 10356.00
1537.314, 10374.00
1538.345, 10385.00
1539.376, 10473.00
1540.407, 10475.00
1541.438, 10376.00
1542.468, 10464.00
1543.499, 10519.00
1544.529, 10427.00
1545.559, 10383.32
1546.589, 10529.65
1547.618, 10612.45
1548.648, 10635.14
1549.677, 10417.67
1550.707, 10510.32
1551.736, 10478.68
1552.765, 10441.95
1553.793, 10578.24
1554.822, 10395.70
1555.850, 10529.25
1556.879, 10536.62
1557.907, 10601.74
1558.935, 10541.81
1559.962, 10520.50
1560.990, 10624.29
1562.017, 10658.80
1563.045, 10458.00
1564.072, 10385.00
##END=



