##NAMES=Augite
##RRUFFID=R061108
##IDEAL CHEMISTRY=(Ca,Mg,Fe^2+^,Fe^3+^)_2_(Si,Al)_2_O_6_
##LOCALITY=Monti Rossi, near Mt. Etna, Sicily, Italy
##OWNER=RRUFF
##SOURCE=Michael Scott
##DESCRIPTION=Euhedral, short prismatic, black crystals in vesicular basalt.
##STATUS=The identification of this mineral is confirmed by single-crystal X-ray diffraction and chemical analysis.
##URL=rruff.info/R061108
##MEASURED CHEMISTRY=(Ca_0.86_Mg_0.74_Fe^2+^_0.18_Fe^3+^_0.08_Al_0.05_Ti_0.04_Na_0.04_Mn_0.01_)_Σ=2_(Si_1.83_Al_0.17_)_Σ=2_O_6_
##PIN_ID=L01906
##ORIENTATION=Laser parallel to (1 0 1). Fiducial mark perpendicular to laser is parallel to -b [0 -1 0]
158.6970, 18633.00
159.9310, 19219.00
161.1660, 19450.00
162.4000, 19938.00
163.6330, 20114.00
164.8670, 20406.93
166.1000, 20754.00
167.3340, 20850.00
168.5670, 20922.00
169.8000, 21057.00
171.0320, 21020.86
172.2650, 21131.00
173.4970, 20925.00
174.7290, 20919.00
175.9610, 20816.00
177.1930, 21103.00
178.4240, 20973.00
179.6550, 21007.00
180.8870, 20929.00
182.1170, 20779.00
183.3480, 20876.00
184.5790, 20934.00
185.8090, 21425.00
187.0390, 21309.00
188.2690, 21323.00
189.4990, 21049.00
190.7290, 21371.00
191.9580, 21407.00
193.1870, 21427.00
194.4160, 21339.00
195.6450, 21297.00
196.8740, 21347.00
198.1020, 21407.00
199.3310, 21339.00
200.5590, 21402.00
201.7870, 21671.00
203.0140, 21649.00
204.2420, 21464.00
205.4690, 21005.00
206.6960, 20891.00
207.9230, 21271.00
209.1500, 21092.00
210.3760, 21346.00
211.6030, 21741.00
212.8290, 21989.00
214.0550, 22199.00
215.2810, 22254.00
216.5060, 22503.00
217.7320, 22734.00
218.9570, 22958.00
220.1820, 23127.67
221.4070, 23230.40
222.6320, 23340.00
223.8560, 23302.00
225.0800, 23190.00
226.3040, 23086.00
227.5280, 23119.00
228.7520, 22968.00
229.9760, 23005.00
231.1990, 22781.00
232.4220, 22746.00
233.6450, 22537.00
234.8680, 22300.00
236.0910, 22164.00
237.3130, 22187.00
238.5350, 22091.00
239.7570, 21897.00
240.9790, 21997.00
242.2010, 21732.00
243.4220, 21667.00
244.6430, 21783.00
245.8640, 21566.00
247.0850, 21522.00
248.3060, 21510.00
249.5270, 21270.00
250.7470, 21383.00
251.9670, 21366.00
253.1870, 21051.00
254.4070, 21132.00
255.6260, 21151.91
256.8460, 21188.10
258.0650, 21187.28
259.2840, 21151.40
260.5030, 20975.42
261.7220, 20980.35
262.9400, 20912.82
264.1580, 20995.00
265.3760, 20863.00
266.5940, 20940.00
267.8120, 20937.00
269.0290, 20877.00
270.2470, 20878.00
271.4640, 21080.00
272.6810, 21074.00
273.8980, 21301.00
275.1140, 21294.00
276.3310, 21550.00
277.5470, 21413.00
278.7630, 21693.00
279.9790, 21705.00
281.1940, 22070.00
282.4100, 22177.00
283.6250, 22536.00
284.8400, 22783.00
286.0550, 22956.00
287.2700, 23433.00
288.4850, 23619.00
289.6990, 24030.00
290.9130, 24345.00
292.1270, 24767.00
293.3410, 24834.00
294.5540, 25334.00
295.7680, 25336.00
296.9810, 25886.00
298.1940, 26022.00
299.4070, 26581.00
300.6200, 26788.00
301.8320, 26976.00
303.0450, 27296.00
304.2570, 27623.00
305.4690, 28011.00
306.6800, 28511.00
307.8920, 29113.00
309.1030, 29563.00
310.3150, 30207.00
311.5260, 30886.78
312.7360, 31394.00
313.9470, 32331.00
315.1580, 33010.00
316.3680, 33694.00
317.5780, 34470.00
318.7880, 35275.00
319.9980, 35671.00
321.2070, 36350.00
322.4170, 36627.00
323.6260, 37211.00
324.8350, 36876.00
326.0430, 37140.00
327.2520, 37025.00
328.4610, 36292.00
329.6690, 36367.00
330.8770, 36050.00
332.0850, 35427.00
333.2920, 35225.00
334.5000, 34524.00
335.7070, 34647.00
336.9140, 34249.00
338.1210, 34199.00
339.3280, 34394.00
340.5350, 33990.00
341.7410, 34324.00
342.9470, 34547.00
344.1540, 34827.00
345.3590, 35126.00
346.5650, 35628.66
347.7710, 36078.00
348.9760, 36684.00
350.1810, 36844.00
351.3860, 37213.00
352.5910, 37457.00
353.7950, 37869.00
355.0000, 37437.00
356.2040, 37444.00
357.4080, 36955.00
358.6120, 36302.00
359.8150, 35961.00
361.0190, 35099.00
362.2220, 34568.00
363.4250, 33871.00
364.6280, 33523.00
365.8310, 32803.00
367.0340, 32201.00
368.2360, 31830.00
369.4380, 31937.00
370.6400, 31457.00
371.8420, 31232.00
373.0440, 31221.00
374.2450, 31057.00
375.4470, 31473.00
376.6480, 31683.00
377.8490, 32153.00
379.0490, 32573.00
380.2500, 33314.00
381.4500, 34253.00
382.6510, 35122.00
383.8510, 36006.00
385.0500, 36881.00
386.2500, 37344.00
387.4500, 38120.00
388.6490, 38646.00
389.8480, 38523.00
391.0470, 38360.00
392.2460, 37548.00
393.4440, 36716.00
394.6430, 35268.00
395.8410, 34029.00
397.0390, 32178.00
398.2370, 30610.00
399.4340, 29073.00
400.6320, 27909.00
401.8290, 26454.00
403.0260, 25204.00
404.2230, 24400.00
405.4200, 23580.00
406.6170, 22921.00
407.8130, 22344.00
409.0090, 21835.00
410.2050, 21641.00
411.4010, 21215.00
412.5970, 21236.00
413.7920, 20726.00
414.9880, 20606.00
416.1830, 20620.00
417.3780, 20253.00
418.5730, 20433.00
419.7670, 20074.00
420.9620, 20113.00
422.1560, 19951.00
423.3500, 20011.00
424.5440, 19928.00
425.7380, 19771.00
426.9310, 19591.00
428.1240, 19655.00
429.3180, 19522.00
430.5110, 19375.00
431.7030, 19280.00
432.8960, 19129.00
434.0890, 19213.00
435.2810, 19130.00
436.4730, 19042.00
437.6650, 19035.00
438.8570, 18939.00
440.0480, 18961.00
441.2390, 18821.00
442.4310, 18699.00
443.6220, 18555.00
444.8120, 18610.00
446.0030, 18692.00
447.1940, 18776.00
448.3840, 18749.88
449.5740, 18643.00
450.7640, 18729.00
451.9540, 18775.00
453.1430, 18855.00
454.3330, 18787.00
455.5220, 18911.00
456.7110, 18838.00
457.9000, 18931.42
459.0890, 19003.35
460.2770, 19071.00
461.4650, 19161.00
462.6540, 19185.00
463.8420, 19227.00
465.0290, 18998.00
466.2170, 19091.13
467.4050, 19009.20
468.5920, 19162.00
469.7790, 18914.00
470.9660, 19057.00
472.1530, 18968.00
473.3390, 19094.00
474.5250, 19116.00
475.7120, 19023.00
476.8980, 19008.00
478.0840, 18986.00
479.2690, 19095.00
480.4550, 19164.00
481.6400, 18918.00
482.8250, 19092.00
484.0100, 19009.00
485.1950, 19137.00
486.3800, 19184.00
487.5640, 18978.00
488.7480, 18926.00
489.9320, 19042.00
491.1160, 19361.00
492.3000, 19113.00
493.4840, 19167.00
494.6670, 19039.00
495.8500, 19210.00
497.0330, 19260.00
498.2160, 19225.00
499.3990, 19164.00
500.5810, 19366.00
501.7630, 19412.00
502.9460, 19419.00
504.1280, 19646.00
505.3090, 19589.00
506.4910, 20151.00
507.6720, 19982.00
508.8540, 20224.00
510.0350, 20351.00
511.2160, 20373.00
512.3960, 20481.00
513.5770, 20773.00
514.7570, 21057.00
515.9380, 20996.00
517.1180, 21505.00
518.2970, 21459.00
519.4770, 21703.00
520.6570, 21766.00
521.8360, 22116.00
523.0150, 22069.00
524.1940, 22482.00
525.3730, 22708.00
526.5510, 22655.00
527.7300, 22908.00
528.9080, 23052.00
530.0860, 22941.00
531.2640, 23223.00
532.4420, 23114.00
533.6200, 23108.00
534.7970, 23205.00
535.9740, 22867.00
537.1510, 22830.00
538.3280, 22792.00
539.5050, 22594.00
540.6810, 22572.00
541.8580, 22343.00
543.0340, 22360.00
544.2100, 22486.00
545.3860, 22306.00
546.5610, 22072.00
547.7370, 22210.00
548.9120, 22315.00
550.0870, 22142.00
551.2620, 22159.00
552.4370, 22201.00
553.6120, 21985.00
554.7860, 21811.00
555.9600, 22015.00
557.1340, 21913.00
558.3080, 21867.00
559.4820, 21701.00
560.6560, 21724.00
561.8290, 21389.00
563.0020, 21371.00
564.1750, 21041.00
565.3480, 20964.00
566.5210, 20679.00
567.6930, 20575.00
568.8660, 20411.00
570.0380, 20468.00
571.2100, 20306.00
572.3820, 20074.00
573.5530, 19731.00
574.7250, 19571.00
575.8960, 19912.00
577.0670, 19033.00
578.2380, 18853.00
579.4090, 19247.00
580.5800, 18314.00
581.7500, 17932.00
582.9210, 17473.00
584.0910, 17377.00
585.2610, 17008.00
586.4300, 16811.00
587.6000, 16760.00
588.7690, 16397.00
589.9390, 16890.00
591.1080, 16738.00
592.2770, 16686.00
593.4450, 15917.00
594.6140, 15467.00
595.7820, 15378.00
596.9500, 15342.00
598.1190, 15243.00
599.2860, 15051.00
600.4540, 15271.00
601.6220, 15024.00
602.7890, 15187.00
603.9560, 15240.00
605.1230, 15277.00
606.2900, 15444.00
607.4570, 15396.00
608.6230, 15313.00
609.7890, 15598.00
610.9560, 15547.00
612.1220, 15550.00
613.2870, 15594.00
614.4530, 15518.00
615.6180, 15550.00
616.7840, 15699.00
617.9490, 15731.00
619.1140, 15783.00
620.2790, 15648.00
621.4430, 15740.00
622.6080, 15697.00
623.7720, 15756.00
624.9360, 15904.00
626.1000, 16057.00
627.2640, 15950.00
628.4270, 16075.00
629.5910, 16188.00
630.7540, 16301.00
631.9170, 16434.00
633.0800, 16389.00
634.2430, 16705.00
635.4050, 16825.00
636.5680, 17082.00
637.7300, 17363.00
638.8920, 17435.00
640.0540, 17982.00
641.2150, 18079.00
642.3770, 18490.00
643.5380, 18717.00
644.7000, 19298.00
645.8610, 19935.00
647.0210, 20393.00
648.1820, 21251.00
649.3430, 21930.00
650.5030, 22959.00
651.6630, 24304.00
652.8230, 25239.00
653.9830, 26734.00
655.1430, 28352.00
656.3020, 30018.00
657.4620, 31857.00
658.6210, 33889.00
659.7800, 35893.00
660.9390, 37603.00
662.0970, 39585.00
663.2560, 40190.00
664.4140, 40344.00
665.5720, 40147.00
666.7300, 39242.00
667.8880, 37647.00
669.0460, 35702.00
670.2030, 33677.00
671.3600, 31714.00
672.5180, 29664.00
673.6740, 27846.00
674.8310, 26453.00
675.9880, 24846.00
677.1440, 23747.00
678.3010, 22565.00
679.4570, 21893.00
680.6130, 20868.00
681.7690, 20149.00
682.9240, 19953.00
684.0800, 19229.00
685.2350, 18896.00
686.3900, 18515.00
687.5450, 18303.00
688.7000, 18093.00
689.8540, 17563.00
691.0090, 17503.00
692.1630, 17279.00
693.3170, 17218.00
694.4710, 17040.00
695.6250, 16961.00
696.7780, 16950.00
697.9320, 16901.00
699.0850, 16812.00
700.2380, 16822.00
701.3910, 16631.00
702.5440, 16624.00
703.6970, 16708.00
704.8490, 16515.00
706.0010, 16500.00
707.1530, 16452.00
708.3050, 16401.42
709.4570, 16399.00
710.6090, 16402.00
711.7600, 16316.00
712.9110, 16345.00
714.0620, 16538.00
715.2130, 16235.00
716.3640, 16142.00
717.5150, 16291.00
718.6650, 16137.00
719.8150, 16108.00
720.9650, 16145.00
722.1150, 16159.00
723.2650, 16103.00
724.4150, 16106.00
725.5640, 16055.00
726.7130, 15958.00
727.8630, 16161.00
729.0110, 16161.00
730.1600, 16045.00
731.3090, 16318.00
732.4570, 16189.00
733.6060, 16229.00
734.7540, 16547.00
735.9020, 16488.00
737.0490, 16683.00
738.1970, 16939.00
739.3440, 16996.00
740.4920, 17226.00
741.6390, 17484.00
742.7860, 17790.00
743.9320, 17987.43
745.0790, 18194.00
746.2250, 18420.00
747.3720, 18663.00
748.5180, 18879.00
749.6640, 19153.00
750.8100, 19435.88
751.9550, 19909.00
753.1010, 19956.00
754.2460, 20501.00
755.3910, 20594.00
756.5360, 20985.00
757.6810, 21352.00
758.8250, 21502.00
759.9700, 21905.00
761.1140, 22302.00
762.2580, 22377.00
763.4020, 22648.00
764.5460, 22856.00
765.6900, 22919.00
766.8330, 23069.00
767.9760, 22927.00
769.1200, 23188.00
770.2620, 23114.00
771.4050, 23001.00
772.5480, 23077.00
773.6900, 22816.00
774.8330, 22692.00
775.9750, 22571.00
777.1170, 22522.00
778.2590, 22342.21
779.4000, 22135.00
780.5420, 22008.00
781.6830, 21817.00
782.8240, 21615.00
783.9650, 21513.58
785.1060, 21404.00
786.2470, 21315.00
787.3870, 21057.00
788.5280, 21015.00
789.6680, 20936.00
790.8080, 20880.00
791.9480, 20842.00
793.0870, 20852.85
794.2270, 21035.00
795.3660, 20943.00
796.5060, 21036.00
797.6450, 21135.00
798.7830, 21113.00
799.9220, 21291.00
801.0610, 21365.00
802.1990, 21508.00
803.3370, 21518.00
804.4750, 21796.00
805.6130, 21675.00
806.7510, 22220.00
807.8890, 22361.00
809.0260, 22354.00
810.1630, 22511.00
811.3000, 22684.00
812.4370, 22722.00
813.5740, 22806.26
814.7110, 22680.00
815.8470, 22821.00
816.9830, 22858.00
818.1190, 22776.00
819.2550, 23129.00
820.3910, 23057.00
821.5270, 22991.00
822.6620, 22872.00
823.7970, 22903.00
824.9330, 22794.00
826.0670, 22438.00
827.2020, 22317.00
828.3370, 22496.00
829.4710, 21992.00
830.6060, 22333.00
831.7400, 22184.00
832.8740, 22042.00
834.0080, 21951.00
835.1410, 22067.00
836.2750, 21926.00
837.4080, 21877.00
838.5410, 22037.00
839.6740, 21801.00
840.8070, 21925.00
841.9400, 21957.00
843.0730, 22048.00
844.2050, 22207.00
845.3370, 22329.00
846.4690, 22568.00
847.6010, 22856.00
848.7330, 23092.00
849.8640, 23300.00
850.9960, 23471.00
852.1270, 23806.00
853.2580, 23920.00
854.3890, 24112.00
855.5200, 24225.00
856.6500, 24560.00
857.7810, 24805.00
858.9110, 24745.00
860.0410, 24721.00
861.1710, 25177.00
862.3010, 25022.00
863.4310, 24896.00
864.5600, 24685.00
865.6900, 24893.00
866.8190, 24891.00
867.9480, 24857.00
869.0770, 24662.00
870.2050, 24513.00
871.3340, 24541.00
872.4620, 24634.00
873.5900, 24871.00
874.7180, 24527.00
875.8460, 24809.00
876.9740, 24701.00
878.1010, 24704.00
879.2290, 24658.00
880.3560, 24725.00
881.4830, 24807.00
882.6100, 24840.00
883.7370, 24735.00
884.8630, 24838.00
885.9900, 24737.00
887.1160, 24920.00
888.2420, 24857.00
889.3680, 24792.00
890.4940, 25007.00
891.6200, 24714.00
892.7450, 25133.00
893.8700, 24699.00
894.9960, 24886.00
896.1210, 24793.00
897.2460, 24789.00
898.3700, 24981.00
899.4950, 24863.00
900.6190, 24921.00
901.7430, 24840.00
902.8670, 24914.00
903.9910, 25101.00
905.1150, 25065.00
906.2390, 24999.00
907.3620, 25060.00
908.4850, 24964.00
909.6080, 24883.00
910.7310, 25028.00
911.8540, 25174.00
912.9770, 25207.00
914.0990, 25274.00
915.2210, 25376.00
916.3440, 25452.00
917.4660, 25491.00
918.5870, 25800.00
919.7090, 25764.00
920.8310, 25866.00
921.9520, 25871.00
923.0730, 25719.00
924.1940, 25878.00
925.3150, 25632.00
926.4360, 25757.00
927.5560, 25798.00
928.6770, 25767.00
929.7970, 25567.00
930.9170, 25452.00
932.0370, 25557.00
933.1570, 25120.00
934.2760, 25340.00
935.3960, 24888.00
936.5150, 24840.00
937.6340, 24680.00
938.7530, 24888.00
939.8720, 24690.00
940.9910, 24715.00
942.1090, 24632.00
943.2280, 24458.00
944.3460, 24598.00
945.4640, 24551.00
946.5820, 24626.00
947.6990, 24635.00
948.8170, 24737.00
949.9340, 24784.00
951.0520, 24682.00
952.1690, 24933.00
953.2860, 25152.00
954.4030, 25202.00
955.5190, 25166.00
956.6360, 25337.00
957.7520, 25270.00
958.8680, 25462.00
959.9840, 25650.00
961.1000, 25815.00
962.2160, 25881.00
963.3310, 26066.00
964.4470, 26039.00
965.5620, 26391.00
966.6770, 26363.00
967.7920, 26772.00
968.9060, 26826.00
970.0210, 26934.00
971.1360, 27022.00
972.2500, 27371.00
973.3640, 27492.00
974.4780, 27478.00
975.5920, 27817.00
976.7050, 27911.00
977.8190, 28304.00
978.9320, 28335.00
980.0450, 28817.00
981.1580, 29143.86
982.2710, 29389.00
983.3840, 29835.00
984.4970, 30064.00
985.6090, 30116.00
986.7210, 30952.00
987.8330, 31394.00
988.9450, 32222.00
990.0570, 32903.00
991.1690, 33779.00
992.2800, 34375.00
993.3920, 35847.00
994.5030, 37050.00
995.6140, 38010.00
996.7250, 39536.00
997.8350, 41143.00
998.9460, 42630.00
1000.056, 44605.00
1001.167, 46284.00
1002.277, 48079.00
1003.387, 49475.00
1004.496, 51065.00
1005.606, 52097.00
1006.715, 52401.00
1007.825, 52150.00
1008.934, 51748.00
1010.043, 50273.00
1011.152, 48470.00
1012.260, 45969.00
1013.369, 44059.00
1014.477, 40787.00
1015.586, 38235.00
1016.694, 36129.00
1017.802, 33987.00
1018.909, 32422.00
1020.017, 31118.00
1021.124, 29750.00
1022.232, 28995.00
1023.339, 28213.00
1024.446, 27479.00
1025.553, 26793.00
1026.659, 26687.00
1027.766, 26095.00
1028.872, 26033.00
1029.979, 25766.00
1031.085, 25671.00
1032.191, 25438.00
1033.296, 25079.00
1034.402, 25171.00
1035.507, 24887.00
1036.613, 24831.00
1037.718, 24608.00
1038.823, 24484.00
1039.928, 24350.00
1041.032, 24210.00
1042.137, 24037.00
1043.241, 23985.00
1044.346, 23665.61
1045.450, 23499.00
1046.554, 23077.00
1047.657, 22787.00
1048.761, 22536.00
1049.864, 22425.00
1050.968, 22026.00
1052.071, 21864.19
1053.174, 21706.01
1054.277, 21450.00
1055.379, 21328.00
1056.482, 21220.00
1057.584, 20806.00
1058.687, 20864.00
1059.789, 20690.00
1060.891, 20400.00
1061.992, 20440.00
1063.094, 20217.00
1064.196, 20177.00
1065.297, 20092.00
1066.398, 20039.00
1067.499, 19822.00
1068.600, 19702.00
1069.701, 19651.93
1070.801, 19678.00
1071.902, 19599.00
1073.002, 19498.00
1074.102, 19558.00
1075.202, 19463.00
1076.302, 19282.00
1077.402, 19177.00
1078.501, 19136.62
1079.600, 19200.00
1080.700, 19062.00
1081.799, 19052.00
1082.898, 18955.00
1083.996, 19101.00
1085.095, 18886.00
1086.193, 19013.00
1087.292, 18905.00
1088.390, 18849.00
1089.488, 18787.00
1090.586, 18734.00
1091.683, 18831.00
1092.781, 18566.00
1093.878, 18525.00
1094.975, 18589.00
1096.073, 18416.00
1097.169, 18541.00
1098.266, 18389.00
1099.363, 18298.00
1100.459, 18462.00
1101.556, 18269.00
1102.652, 18171.00
1103.748, 18079.00
1104.844, 18108.00
1105.940, 18044.00
1107.035, 18008.00
1108.131, 17947.00
1109.226, 17772.00
1110.321, 17768.00
1111.416, 17668.00
1112.511, 17721.00
1113.605, 17585.00
1114.700, 17564.00
1115.794, 17750.00
1116.889, 17564.00
1117.983, 17403.00
1119.077, 17551.00
1120.170, 17346.00
1121.264, 17270.00
1122.357, 17155.00
1123.451, 17068.00
1124.544, 16721.00
1125.637, 16727.00
1126.730, 16506.00
1127.823, 16528.00
1128.915, 16125.00
1130.008, 16049.00
1131.100, 15931.00
1132.192, 15780.00
1133.284, 15847.00
1134.376, 15665.00
1135.467, 15581.00
1136.559, 15341.00
1137.650, 15300.00
1138.742, 15199.00
1139.833, 15097.00
1140.924, 14975.00
1142.014, 14918.06
1143.105, 14833.00
1144.195, 14844.00
1145.286, 14668.00
1146.376, 14715.00
1147.466, 14450.00
1148.556, 14547.00
1149.646, 14593.00
1150.735, 14476.84
1151.825, 14445.00
1152.914, 14411.00
1154.003, 14344.00
1155.092, 14345.00
1156.181, 14343.00
1157.270, 14294.00
1158.358, 14314.00
1159.447, 14328.00
1160.535, 14322.00
1161.623, 14307.77
1162.711, 14289.90
1163.799, 14268.00
1164.886, 14212.00
1165.974, 14221.00
1167.061, 14143.00
1168.148, 14230.00
1169.235, 14188.00
1170.322, 14213.00
1171.409, 14274.00
1172.496, 14244.00
1173.582, 14170.00
1174.669, 14067.00
1175.755, 14111.00
1176.841, 14198.00
1177.927, 14134.00
1179.012, 14167.00
1180.098, 14186.00
1181.183, 14139.00
1182.269, 14190.00
1183.354, 14171.00
1184.439, 14168.00
1185.524, 14121.00
1186.608, 14184.00
1187.693, 14123.00
1188.777, 14122.00
1189.862, 14162.00
1190.946, 14103.00
1192.030, 14074.00
1193.113, 13993.00
1194.197, 14060.00
1195.281, 14185.00
1196.364, 14095.00
1197.447, 14218.00
1198.530, 14110.00
1199.613, 14051.00
1200.696, 14004.00
1201.779, 14046.00
1202.861, 14008.49
1203.944, 13994.00
1205.026, 14014.00
1206.108, 14005.00
1207.190, 14016.00
1208.271, 14167.00
1209.353, 13966.00
1210.435, 14212.00
1211.516, 14103.00
1212.597, 14096.00
1213.678, 14264.00
1214.759, 14081.00
1215.840, 14110.00
1216.920, 14070.00
1218.001, 14030.00
1219.081, 14102.00
1220.161, 14092.00
1221.241, 14118.00
1222.321, 14130.00
1223.401, 13945.00
1224.480, 14199.00
1225.560, 14185.00
1226.639, 14003.00
1227.718, 14113.00
1228.797, 14015.00
1229.876, 13959.47
1230.955, 14042.22
1232.033, 14087.91
1233.112, 14098.53
1234.190, 13969.06
1235.268, 14020.50
1236.346, 13999.43
1237.424, 13975.39
1238.501, 14052.29
1239.579, 13943.20
1240.656, 14018.49
1241.733, 14020.18
1242.811, 14055.56
1243.888, 14017.99
1244.964, 14002.96
1246.041, 14060.89
1247.117, 14078.42
1248.194, 14032.46
1249.270, 14069.97
1250.346, 13958.34
1251.422, 13977.59
1252.498, 14053.31
1253.573, 14011.02
1254.649, 14049.87
1255.724, 14057.82
1256.800, 13925.32
1257.875, 14037.08
1258.950, 14043.20
1260.024, 13940.86
1261.099, 14044.25
1262.173, 13956.87
1263.248, 13937.58
1264.322, 13969.53
1265.396, 13948.07
1266.470, 13950.00
1267.544, 13947.00
1268.617, 13883.00
1269.691, 13875.00
1270.764, 14023.00
1271.837, 13881.00
1272.910, 13992.00
1273.983, 14067.00
1275.056, 13987.00
1276.129, 13981.00
1277.201, 13976.00
1278.273, 13889.00
1279.346, 13968.00
1280.418, 14038.00
1281.489, 14046.00
1282.561, 14036.00
1283.633, 14015.49
1284.704, 13987.70
1285.776, 13912.00
1286.847, 13944.00
1287.918, 13898.00
1288.989, 13953.00
1290.059, 14029.00
1291.130, 13928.00
1292.200, 13875.00
1293.271, 14149.00
1294.341, 13986.00
1295.411, 13960.00
1296.481, 13919.00
1297.551, 13853.00
1298.620, 13957.00
1299.690, 13859.00
1300.759, 13841.00
1301.828, 13942.00
1302.897, 13852.00
1303.966, 13910.00
1305.035, 13858.00
1306.103, 13995.00
1307.172, 14043.00
1308.240, 13898.00
1309.308, 13799.00
1310.376, 14003.00
1311.444, 13850.00
1312.512, 14002.00
1313.580, 13984.00
1314.647, 14000.00
1315.714, 13962.00
1316.781, 13986.00
1317.848, 14024.00
1318.915, 13996.00
1319.982, 14068.12
1321.049, 13950.00
1322.115, 14156.00
1323.181, 14066.00
1324.248, 14043.00
1325.314, 13956.00
1326.380, 14084.00
1327.445, 14090.00
1328.511, 13870.00
1329.576, 14044.00
1330.642, 14048.00
1331.707, 13864.00
1332.772, 14206.00
1333.837, 14033.00
1334.902, 14090.00
1335.966, 14116.00
1337.031, 13870.00
1338.095, 14194.00
1339.159, 13949.00
1340.223, 14042.00
1341.287, 13901.00
1342.351, 14055.00
1343.415, 13991.00
1344.478, 14160.00
1345.541, 13882.00
1346.605, 14111.00
1347.668, 14020.00
1348.731, 14103.00
1349.793, 14045.00
1350.856, 14049.00
1351.918, 13957.00
1352.981, 14040.00
1354.043, 14100.00
1355.105, 14030.00
1356.167, 14092.00
1357.229, 14001.00
1358.290, 14014.00
1359.352, 13993.00
1360.413, 14015.00
1361.475, 13991.00
1362.536, 13976.44
1363.597, 14021.00
1364.657, 13961.00
1365.718, 13964.00
1366.779, 14019.00
1367.839, 14010.00
1368.899, 13919.00
1369.959, 13938.00
1371.019, 14111.00
1372.079, 13920.00
1373.139, 13955.00
1374.198, 14060.00
1375.258, 13886.00
1376.317, 13884.00
1377.376, 13951.00
1378.435, 14042.00
1379.494, 14037.15
1380.553, 14043.51
1381.611, 14072.00
1382.670, 13945.00
1383.728, 13948.00
1384.786, 13827.00
1385.844, 13899.00
1386.902, 13884.66
1387.960, 13910.00
1389.017, 13997.00
1390.075, 13926.00
1391.132, 14089.00
1392.189, 13941.00
1393.246, 13864.00
1394.303, 13894.00
1395.360, 13870.00
1396.417, 14035.00
1397.473, 13866.00
1398.529, 13993.00
1399.585, 14002.00
1400.642, 13968.00
1401.697, 14002.00
1402.753, 13935.00
1403.809, 14103.00
1404.864, 13856.00
1405.920, 13886.00
1406.975, 13974.00
1408.030, 13876.00
1409.085, 13982.00
1410.140, 13943.00
1411.194, 14036.00
1412.249, 13823.00
1413.303, 13958.00
1414.358, 13857.00
1415.412, 13954.00
1416.466, 13742.00
1417.520, 13862.00
1418.573, 13974.00
1419.627, 13802.00
1420.680, 13846.00
1421.733, 13954.00
1422.787, 14050.00
1423.840, 13928.00
1424.892, 14016.77
1425.945, 13928.08
1426.998, 14018.00
1428.050, 13848.00
1429.103, 13823.00
1430.155, 13955.00
1431.207, 13834.72
1432.259, 13921.85
1433.310, 13971.91
1434.362, 13986.91
1435.414, 13861.82
1436.465, 13917.63
1437.516, 13900.94
1438.567, 13881.27
1439.618, 13962.54
1440.669, 13857.82
1441.720, 13937.49
1442.770, 13943.55
1443.820, 13983.29
1444.871, 13943.00
1445.921, 13925.00
1446.971, 13850.00
1448.021, 14029.00
1449.070, 14015.00
1450.120, 13830.00
1451.169, 14006.00
1452.219, 13987.00
1453.268, 13973.00
1454.317, 13760.00
1455.366, 13896.00
1456.414, 13955.00
1457.463, 14155.00
1458.511, 13949.00
1459.560, 13925.00
1460.608, 13966.00
1461.656, 14051.00
1462.704, 14063.00
1463.752, 14085.07
1464.799, 13967.00
1465.847, 14043.00
1466.894, 14053.00
1467.941, 13935.00
1468.988, 13962.00
1470.035, 13932.00
1471.082, 14097.00
1472.129, 14065.00
1473.175, 14097.00
1474.222, 13935.00
1475.268, 14018.00
1476.314, 13893.00
1477.360, 14049.00
1478.406, 14043.00
1479.452, 14131.00
1480.498, 14052.00
1481.543, 14039.00
1482.588, 14176.00
1483.633, 14113.00
1484.679, 14103.00
1485.723, 14066.00
1486.768, 13965.00
1487.813, 14019.00
1488.857, 14135.00
1489.902, 14100.00
1490.946, 14093.00
1491.990, 14206.00
1493.034, 14147.00
1494.078, 14285.00
1495.122, 14364.00
1496.165, 14338.00
1497.209, 14306.00
1498.252, 14324.00
1499.295, 14138.00
1500.338, 14226.00
1501.381, 14224.00
1502.424, 14305.00
1503.466, 14396.00
1504.509, 14370.00
1505.551, 14435.16
1506.593, 14413.51
1507.635, 14449.00
1508.677, 14369.00
1509.719, 14303.00
1510.761, 14295.00
1511.802, 14384.00
1512.844, 14353.00
1513.885, 14410.00
1514.926, 14307.00
1515.967, 14509.00
1517.008, 14577.00
1518.049, 14356.00
1519.089, 14484.00
1520.130, 14560.00
1521.170, 14356.00
1522.210, 14419.00
1523.250, 14331.00
1524.290, 14407.00
1525.330, 14497.00
1526.370, 14503.00
1527.409, 14514.00
1528.448, 14473.00
1529.488, 14336.00
1530.527, 14504.00
1531.566, 14533.00
1532.605, 14469.00
1533.643, 14352.00
1534.682, 14401.00
1535.720, 14362.84
1536.759, 14441.99
1537.797, 14484.10
1538.835, 14491.14
1539.873, 14358.08
1540.910, 14405.94
1541.948, 14381.29
1542.986, 14353.66
1544.023, 14426.98
1545.060, 14314.30
1546.097, 14386.02
1547.134, 14384.12
1548.171, 14415.92
1549.208, 14374.77
1550.244, 14356.16
1551.281, 14410.51
1552.317, 14424.46
1553.353, 14374.92
1554.389, 14408.86
1555.425, 14293.65
1556.461, 14309.32
1557.497, 14381.46
1558.532, 14335.59
1559.567, 14370.88
1560.603, 14375.24
1561.638, 14239.17
1562.673, 14389.00
1563.708, 14326.00
##END=



