##NAMES=Augite
##RRUFFID=R061086
##IDEAL CHEMISTRY=(Ca,Mg,Fe^2+^,Fe^3+^)_2_(Si,Al)_2_O_6_
##LOCALITY=Boreslav, Teplitz, Bohemia, Czech Republic
##OWNER=RRUFF
##SOURCE=Michael Scott
##DESCRIPTION=Black to dark green tabular euhedral crystal
##STATUS=The identification of this mineral has been confirmed by X-ray diffraction and chemical analysis
##URL=rruff.info/R061086
##MEASURED CHEMISTRY=(Ca_0.88_Mg_0.83_Fe_0.13_Al_0.08_Na_0.04_Ti_0.03_Cr_0.01_)_Σ=2_(Si_1.89_Al_0.11_)_Σ=2_O_6_
##PIN_ID=M00179
##ORIENTATION=Laser parallel to a* (1 0 0). Fiducial mark perpendicular to laser is parallel to b [0 1 0]
174.7910, 6521.000
176.0210, 6586.000
177.2500, 6648.000
178.4790, 6714.000
179.7080, 6752.000
180.9370, 6667.000
182.1650, 6800.000
183.3940, 6700.000
184.6220, 6670.000
185.8500, 6705.000
187.0780, 6786.000
188.3050, 6763.000
189.5330, 6742.000
190.7600, 6720.000
191.9870, 6792.000
193.2140, 6818.000
194.4410, 6846.000
195.6680, 6770.000
196.8940, 6898.000
198.1200, 6756.000
199.3470, 6782.000
200.5720, 6806.000
201.7980, 6858.000
203.0240, 6795.000
204.2490, 6780.000
205.4740, 6880.000
206.6990, 6799.000
207.9240, 6917.000
209.1490, 7016.000
210.3740, 7124.000
211.5980, 7117.000
212.8220, 7326.000
214.0460, 7280.000
215.2700, 7424.000
216.4930, 7499.000
217.7170, 7479.000
218.9400, 7567.000
220.1630, 7638.000
221.3860, 7718.000
222.6090, 7811.000
223.8320, 7700.000
225.0540, 7734.000
226.2760, 7731.000
227.4980, 7774.000
228.7200, 7703.000
229.9420, 7682.116
231.1630, 7554.000
232.3850, 7550.000
233.6060, 7505.000
234.8270, 7396.000
236.0480, 7499.000
237.2690, 7253.000
238.4890, 7348.000
239.7090, 7224.000
240.9290, 7242.000
242.1490, 7255.000
243.3690, 7166.000
244.5890, 7182.000
245.8080, 7093.000
247.0270, 7149.000
248.2470, 7158.000
249.4650, 7139.000
250.6840, 7119.000
251.9030, 7196.000
253.1210, 7018.000
254.3390, 7016.000
255.5570, 7069.000
256.7750, 6985.000
257.9930, 7067.000
259.2100, 6999.926
260.4280, 6975.961
261.6450, 6887.000
262.8620, 6924.000
264.0790, 6843.563
265.2950, 6862.000
266.5120, 6808.000
267.7280, 6766.000
268.9440, 6773.000
270.1600, 6836.000
271.3760, 6790.000
272.5920, 6819.000
273.8070, 6908.000
275.0220, 6926.000
276.2370, 6943.000
277.4520, 6902.000
278.6670, 6905.000
279.8820, 7049.000
281.0960, 7050.000
282.3100, 7167.000
283.5240, 7167.000
284.7380, 7229.000
285.9520, 7287.000
287.1650, 7396.000
288.3780, 7527.000
289.5920, 7563.000
290.8050, 7603.000
292.0170, 7729.000
293.2300, 7869.000
294.4430, 8022.000
295.6550, 8036.000
296.8670, 8115.000
298.0790, 8283.000
299.2910, 8310.000
300.5020, 8519.000
301.7140, 8717.000
302.9250, 8913.000
304.1360, 8970.000
305.3470, 9220.000
306.5580, 9375.000
307.7680, 9633.000
308.9780, 9959.000
310.1890, 10137.00
311.3990, 10545.00
312.6090, 10650.00
313.8180, 11107.00
315.0280, 11384.00
316.2370, 11775.00
317.4460, 11955.00
318.6550, 12198.00
319.8640, 12469.00
321.0730, 12644.00
322.2810, 12656.00
323.4890, 12876.00
324.6980, 12682.00
325.9060, 12700.00
327.1130, 12504.00
328.3210, 12401.00
329.5280, 12141.00
330.7360, 11912.00
331.9430, 11706.00
333.1500, 11395.00
334.3560, 11164.00
335.5630, 10963.00
336.7690, 10584.00
337.9760, 10491.00
339.1820, 10301.00
340.3870, 10269.00
341.5930, 10155.00
342.7990, 10027.00
344.0040, 9989.000
345.2090, 10086.00
346.4140, 10001.00
347.6190, 9989.000
348.8240, 10061.00
350.0280, 10029.00
351.2330, 9903.000
352.4370, 9899.000
353.6410, 9944.000
354.8440, 9931.000
356.0480, 10125.00
357.2520, 9962.000
358.4550, 10007.00
359.6580, 9811.000
360.8610, 9861.000
362.0640, 9779.000
363.2660, 9895.000
364.4690, 9916.000
365.6710, 9713.000
366.8730, 9754.000
368.0750, 9861.000
369.2770, 9915.000
370.4780, 9883.000
371.6800, 10018.45
372.8810, 10046.70
374.0820, 10278.00
375.2830, 10253.00
376.4830, 10516.00
377.6840, 10781.00
378.8840, 11301.00
380.0840, 11590.00
381.2840, 11954.00
382.4840, 12341.00
383.6840, 12676.00
384.8830, 13154.00
386.0830, 13384.00
387.2820, 13505.00
388.4810, 13790.00
389.6800, 13650.00
390.8780, 13751.00
392.0770, 13617.00
393.2750, 13334.00
394.4730, 12762.00
395.6710, 12452.00
396.8690, 11941.00
398.0660, 11812.00
399.2640, 10944.00
400.4610, 10160.00
401.6580, 9863.000
402.8550, 9218.000
404.0520, 8876.000
405.2490, 8491.000
406.4450, 8240.000
407.6410, 8086.000
408.8370, 7993.000
410.0330, 7795.000
411.2290, 7725.000
412.4240, 7591.000
413.6200, 7556.000
414.8150, 7446.695
416.0100, 7347.277
417.2050, 7317.000
418.4000, 7207.000
419.5940, 7252.000
420.7880, 7180.982
421.9830, 7165.000
423.1770, 7124.000
424.3700, 7152.000
425.5640, 7158.000
426.7580, 7123.000
427.9510, 7059.000
429.1440, 7020.000
430.3370, 6988.000
431.5300, 7007.000
432.7220, 6965.000
433.9150, 6974.000
435.1070, 7009.000
436.2990, 6959.000
437.4910, 6932.000
438.6830, 6955.000
439.8750, 6884.000
441.0660, 6841.000
442.2570, 6874.000
443.4480, 6828.000
444.6390, 6906.000
445.8300, 6904.000
447.0210, 6788.000
448.2110, 6770.000
449.4010, 6881.000
450.5910, 6906.000
451.7810, 6913.000
452.9710, 6880.000
454.1610, 6911.000
455.3500, 6875.000
456.5390, 6948.000
457.7280, 6891.000
458.9170, 6956.000
460.1060, 6951.000
461.2940, 7046.000
462.4830, 6999.000
463.6710, 6898.000
464.8590, 6911.000
466.0470, 6967.000
467.2350, 7043.000
468.4220, 7047.000
469.6090, 6930.000
470.7970, 6916.000
471.9840, 6922.000
473.1700, 6917.000
474.3570, 6854.000
475.5440, 6936.000
476.7300, 6934.000
477.9160, 6943.000
479.1020, 6889.000
480.2880, 7028.000
481.4740, 6959.000
482.6590, 6939.000
483.8440, 7035.000
485.0300, 6895.000
486.2140, 6907.000
487.3990, 6967.000
488.5840, 6892.000
489.7680, 7173.000
490.9530, 7036.782
492.1370, 7079.751
493.3210, 6982.000
494.5040, 7015.000
495.6880, 7123.000
496.8720, 7061.000
498.0550, 7172.000
499.2380, 7120.000
500.4210, 7156.000
501.6040, 7268.000
502.7860, 7270.699
503.9690, 7301.587
505.1510, 7442.000
506.3330, 7298.000
507.5150, 7494.000
508.6970, 7477.000
509.8780, 7628.000
511.0600, 7573.000
512.2410, 7571.000
513.4220, 7727.000
514.6030, 7789.000
515.7840, 7726.000
516.9640, 7847.000
518.1440, 7835.000
519.3250, 7913.000
520.5050, 8002.000
521.6850, 7998.000
522.8640, 7957.000
524.0440, 7878.000
525.2230, 7991.000
526.4020, 7941.000
527.5820, 7995.000
528.7600, 8154.000
529.9390, 8063.000
531.1180, 8171.000
532.2960, 8112.000
533.4740, 8001.000
534.6520, 7941.000
535.8300, 8015.000
537.0080, 7905.000
538.1850, 7904.000
539.3630, 7990.000
540.5400, 7945.000
541.7170, 7850.000
542.8940, 7836.000
544.0700, 7780.878
545.2470, 7822.000
546.4230, 7747.000
547.5990, 7687.000
548.7750, 7753.000
549.9510, 7715.000
551.1270, 7728.000
552.3020, 7691.000
553.4780, 7666.968
554.6530, 7624.000
555.8280, 7606.000
557.0030, 7595.000
558.1770, 7565.000
559.3520, 7591.000
560.5260, 7575.000
561.7000, 7623.000
562.8740, 7559.000
564.0480, 7550.659
565.2220, 7508.000
566.3950, 7468.000
567.5680, 7420.000
568.7420, 7353.000
569.9150, 7350.501
571.0870, 7514.000
572.2600, 7323.000
573.4320, 7365.000
574.6050, 7324.000
575.7770, 7137.000
576.9490, 7198.000
578.1210, 7117.000
579.2920, 7121.000
580.4640, 7231.000
581.6350, 7033.000
582.8060, 7017.000
583.9770, 6880.000
585.1480, 6791.000
586.3190, 6866.000
587.4890, 6791.000
588.6590, 6919.000
589.8290, 6738.000
590.9990, 6645.000
592.1690, 6672.000
593.3390, 6667.000
594.5080, 6589.000
595.6770, 6514.000
596.8470, 6593.000
598.0160, 6569.000
599.1840, 6588.000
600.3530, 6531.000
601.5210, 6643.000
602.6900, 6421.000
603.8580, 6594.000
605.0260, 6533.000
606.1930, 6660.000
607.3610, 6521.000
608.5280, 6626.000
609.6960, 6627.000
610.8630, 6698.000
612.0300, 6677.000
613.1970, 6680.000
614.3630, 6576.000
615.5300, 6592.000
616.6960, 6676.000
617.8620, 6583.000
619.0280, 6782.000
620.1940, 6684.000
621.3590, 6626.000
622.5250, 6737.000
623.6900, 6711.000
624.8550, 6825.000
626.0200, 6869.000
627.1850, 6866.000
628.3490, 6927.000
629.5140, 6968.000
630.6780, 6936.000
631.8420, 7099.000
633.0060, 7098.000
634.1700, 7062.000
635.3330, 7086.000
636.4970, 7226.000
637.6600, 7255.000
638.8230, 7363.000
639.9860, 7528.000
641.1490, 7568.000
642.3110, 7689.000
643.4740, 7833.000
644.6360, 7969.594
645.7980, 8151.000
646.9600, 8346.000
648.1220, 8595.000
649.2840, 8850.000
650.4450, 9116.000
651.6060, 9575.000
652.7670, 9964.000
653.9280, 10446.00
655.0890, 10892.00
656.2500, 11652.00
657.4100, 12182.00
658.5700, 12788.00
659.7300, 13408.00
660.8900, 13852.00
662.0500, 14307.00
663.2100, 14605.00
664.3690, 14563.00
665.5280, 14496.00
666.6880, 14291.00
667.8460, 13970.00
669.0050, 13293.00
670.1640, 12706.00
671.3220, 12087.00
672.4810, 11523.00
673.6390, 10768.00
674.7970, 10441.00
675.9540, 9901.000
677.1120, 9578.000
678.2690, 9203.000
679.4270, 8909.000
680.5840, 8692.000
681.7410, 8429.000
682.8980, 8307.000
684.0540, 8098.000
685.2110, 7927.000
686.3670, 7870.000
687.5230, 7748.000
688.6790, 7699.000
689.8350, 7596.000
690.9900, 7652.000
692.1460, 7620.000
693.3010, 7563.000
694.4560, 7443.000
695.6110, 7381.000
696.7660, 7301.000
697.9210, 7365.000
699.0750, 7368.000
700.2290, 7275.000
701.3840, 7340.000
702.5370, 7337.000
703.6910, 7274.000
704.8450, 7357.000
705.9980, 7204.000
707.1520, 7261.000
708.3050, 7348.000
709.4580, 7324.000
710.6110, 7142.000
711.7630, 7277.000
712.9160, 7175.000
714.0680, 7196.000
715.2200, 7202.000
716.3720, 7223.000
717.5240, 7209.000
718.6760, 7212.151
719.8270, 7175.000
720.9780, 7168.000
722.1300, 7142.000
723.2810, 7129.370
724.4310, 7144.000
725.5820, 7139.000
726.7330, 7133.000
727.8830, 7203.000
729.0330, 7167.000
730.1830, 7161.000
731.3330, 7210.000
732.4830, 7134.000
733.6320, 7209.000
734.7810, 7203.000
735.9310, 7214.000
737.0800, 7257.000
738.2290, 7398.000
739.3770, 7420.000
740.5260, 7342.000
741.6740, 7377.000
742.8220, 7295.000
743.9700, 7498.000
745.1180, 7564.000
746.2660, 7628.000
747.4130, 7631.000
748.5610, 7614.000
749.7080, 7642.000
750.8550, 7731.000
752.0020, 7720.000
753.1490, 7867.000
754.2950, 7880.000
755.4420, 7871.000
756.5880, 7988.000
757.7340, 8052.000
758.8800, 7913.000
760.0250, 8236.000
761.1710, 8188.000
762.3160, 8148.000
763.4620, 8350.000
764.6070, 8263.000
765.7520, 8362.000
766.8960, 8470.000
768.0410, 8515.000
769.1850, 8499.000
770.3300, 8467.000
771.4740, 8467.000
772.6180, 8474.909
773.7610, 8656.000
774.9050, 8550.000
776.0480, 8499.000
777.1920, 8608.000
778.3350, 8522.000
779.4780, 8719.000
780.6200, 8523.000
781.7630, 8540.000
782.9060, 8637.000
784.0480, 8616.000
785.1900, 8664.000
786.3320, 8685.000
787.4740, 8596.000
788.6150, 8469.000
789.7570, 8405.000
790.8980, 8723.000
792.0390, 8564.000
793.1800, 8628.000
794.3210, 8825.000
795.4620, 8625.000
796.6020, 8800.000
797.7420, 8648.000
798.8830, 8798.000
800.0230, 8811.000
801.1620, 8715.000
802.3020, 8841.000
803.4420, 8796.000
804.5810, 8857.000
805.7200, 8883.000
806.8590, 9017.000
807.9980, 9063.000
809.1370, 9171.000
810.2750, 9173.000
811.4140, 9209.959
812.5520, 9249.000
813.6900, 9206.000
814.8280, 9189.000
815.9650, 9136.000
817.1030, 9272.000
818.2400, 9223.000
819.3780, 9389.000
820.5150, 9427.000
821.6520, 9277.000
822.7880, 9291.000
823.9250, 9358.000
825.0610, 9375.000
826.1980, 9279.000
827.3340, 9307.000
828.4700, 9155.000
829.6050, 9321.000
830.7410, 9186.000
831.8760, 9215.000
833.0120, 9330.000
834.1470, 9249.000
835.2820, 9245.000
836.4160, 9268.000
837.5510, 9242.000
838.6860, 9253.000
839.8200, 9178.000
840.9540, 9260.000
842.0880, 9162.000
843.2220, 9292.000
844.3550, 9261.762
845.4890, 9338.000
846.6220, 9297.000
847.7550, 9401.000
848.8880, 9491.000
850.0210, 9527.000
851.1540, 9565.000
852.2860, 9622.000
853.4190, 9650.000
854.5510, 9667.000
855.6830, 9647.000
856.8150, 9687.000
857.9460, 9692.000
859.0780, 9746.000
860.2090, 9741.351
861.3410, 9656.000
862.4720, 9747.000
863.6020, 9696.000
864.7330, 9704.000
865.8640, 9586.000
866.9940, 9522.000
868.1240, 9522.000
869.2540, 9479.000
870.3840, 9559.000
871.5140, 9519.000
872.6440, 9590.000
873.7730, 9508.000
874.9020, 9649.000
876.0320, 9376.000
877.1600, 9468.000
878.2890, 9512.000
879.4180, 9471.000
880.5460, 9586.000
881.6750, 9480.000
882.8030, 9520.000
883.9310, 9583.000
885.0590, 9474.000
886.1860, 9539.000
887.3140, 9536.000
888.4410, 9463.000
889.5680, 9583.000
890.6950, 9448.000
891.8220, 9643.000
892.9490, 9573.000
894.0750, 9567.000
895.2020, 9447.000
896.3280, 9412.000
897.4540, 9438.031
898.5800, 9568.000
899.7050, 9511.000
900.8310, 9524.000
901.9560, 9552.000
903.0820, 9569.000
904.2070, 9565.000
905.3320, 9556.000
906.4560, 9560.643
907.5810, 9546.000
908.7050, 9545.000
909.8300, 9613.000
910.9540, 9591.000
912.0780, 9611.000
913.2010, 9540.000
914.3250, 9598.000
915.4480, 9630.875
916.5720, 9662.000
917.6950, 9706.000
918.8180, 9772.000
919.9410, 9699.000
921.0630, 9923.000
922.1860, 9656.000
923.3080, 9794.000
924.4300, 9800.000
925.5520, 9715.000
926.6740, 9789.000
927.7960, 9747.000
928.9170, 9844.000
930.0390, 9752.000
931.1600, 9748.000
932.2810, 9792.000
933.4020, 9676.000
934.5230, 9785.000
935.6430, 9784.000
936.7640, 9743.000
937.8840, 9765.000
939.0040, 9702.000
940.1240, 9696.000
941.2440, 9695.000
942.3630, 9731.000
943.4830, 9653.000
944.6020, 9569.000
945.7210, 9606.304
946.8400, 9744.000
947.9590, 9644.000
949.0770, 9673.000
950.1960, 9724.000
951.3140, 9703.000
952.4320, 9855.000
953.5500, 9933.000
954.6680, 9915.000
955.7860, 9928.000
956.9030, 9995.000
958.0210, 10064.00
959.1380, 10036.00
960.2550, 10046.00
961.3720, 10172.00
962.4890, 10091.00
963.6050, 10133.00
964.7220, 10271.00
965.8380, 10240.00
966.9540, 10357.00
968.0700, 10491.00
969.1860, 10581.00
970.3010, 10638.00
971.4170, 10623.00
972.5320, 10666.00
973.6470, 10810.00
974.7620, 10771.00
975.8770, 10839.00
976.9910, 10746.00
978.1060, 10900.00
979.2200, 11122.00
980.3340, 11137.00
981.4480, 11339.00
982.5620, 11430.00
983.6760, 11527.00
984.7890, 11697.00
985.9030, 11944.00
987.0160, 12113.00
988.1290, 12423.00
989.2420, 12651.00
990.3550, 13076.00
991.4670, 13280.00
992.5800, 13773.00
993.6920, 14186.00
994.8040, 14705.00
995.9160, 15256.09
997.0280, 15760.00
998.1390, 16464.00
999.2510, 17179.00
1000.362, 17892.00
1001.473, 18778.00
1002.584, 19413.00
1003.695, 19899.00
1004.805, 20493.00
1005.916, 20772.00
1007.026, 21053.00
1008.136, 20960.00
1009.246, 20528.00
1010.356, 20012.00
1011.466, 19368.00
1012.576, 18323.00
1013.685, 17205.00
1014.794, 16334.00
1015.903, 15310.00
1017.012, 14327.00
1018.121, 13819.00
1019.229, 13144.00
1020.338, 12586.00
1021.446, 12163.00
1022.554, 12047.00
1023.662, 11745.00
1024.770, 11417.00
1025.878, 11381.00
1026.985, 11226.00
1028.092, 11190.00
1029.200, 10925.00
1030.307, 11056.00
1031.413, 10842.00
1032.520, 10942.00
1033.627, 11004.00
1034.733, 10978.00
1035.839, 10982.50
1036.945, 10930.41
1038.051, 10850.00
1039.157, 10783.00
1040.262, 10733.45
1041.368, 10556.00
1042.473, 10611.00
1043.578, 10594.00
1044.683, 10488.00
1045.788, 10330.00
1046.893, 10457.00
1047.997, 10227.00
1049.101, 10282.00
1050.205, 10197.00
1051.309, 10095.00
1052.413, 10236.00
1053.517, 9918.000
1054.621, 9958.000
1055.724, 9879.000
1056.827, 9779.000
1057.930, 9755.000
1059.033, 9782.000
1060.136, 9719.000
1061.238, 9705.665
1062.341, 9681.956
1063.443, 9630.000
1064.545, 9608.000
1065.647, 9558.000
1066.749, 9491.000
1067.850, 9427.000
1068.952, 9510.000
1070.053, 9546.000
1071.154, 9543.983
1072.255, 9531.535
1073.356, 9546.000
1074.457, 9474.000
1075.557, 9391.000
1076.658, 9443.000
1077.758, 9459.000
1078.858, 9402.000
1079.958, 9412.000
1081.057, 9374.000
1082.157, 9279.000
1083.256, 9236.000
1084.356, 9340.000
1085.455, 9251.407
1086.554, 9251.635
1087.653, 9234.000
1088.751, 9224.000
1089.850, 9276.000
1090.948, 9361.000
1092.046, 9289.000
1093.144, 9265.644
1094.242, 9145.000
1095.340, 9126.000
1096.437, 9248.000
1097.534, 9257.000
1098.632, 9237.000
1099.729, 9201.000
1100.826, 9258.000
1101.922, 9265.000
1103.019, 9304.000
1104.115, 9311.035
1105.212, 9259.000
1106.308, 9271.000
1107.404, 9288.000
1108.499, 9174.000
1109.595, 9153.000
1110.691, 9019.000
1111.786, 9204.000
1112.881, 9150.000
1113.976, 9322.000
1115.071, 9117.000
1116.166, 9167.000
1117.260, 9017.000
1118.355, 9123.000
1119.449, 9010.000
1120.543, 9058.000
1121.637, 9138.000
1122.731, 9055.000
1123.824, 9017.000
1124.918, 8965.000
1126.011, 8920.000
1127.104, 8945.000
1128.197, 8911.289
1129.290, 8895.583
1130.382, 8900.000
1131.475, 8902.000
1132.567, 8890.000
1133.659, 8990.000
1134.751, 8920.000
1135.843, 8942.000
1136.935, 8847.000
1138.027, 8867.000
1139.118, 8763.000
1140.209, 8705.000
1141.300, 8804.000
1142.391, 8858.000
1143.482, 8848.919
1144.573, 8769.000
1145.663, 8814.000
1146.754, 8822.000
1147.844, 8674.000
1148.934, 8719.000
1150.024, 8734.000
1151.113, 8615.000
1152.203, 8717.000
1153.292, 8738.000
1154.381, 8809.000
1155.470, 8850.000
1156.559, 8791.000
1157.648, 8812.000
1158.737, 8804.000
1159.825, 8720.000
1160.913, 8705.000
1162.001, 8734.000
1163.089, 8805.000
1164.177, 8812.000
1165.265, 8893.000
1166.352, 8752.000
1167.440, 8773.000
1168.527, 8842.000
1169.614, 8794.000
1170.701, 8808.000
1171.788, 8880.000
1172.874, 8791.000
1173.961, 8748.000
1175.047, 8752.000
1176.133, 8849.000
1177.219, 8806.000
1178.305, 8814.000
1179.390, 8732.000
1180.476, 8840.000
1181.561, 8817.000
1182.646, 8812.000
1183.731, 8827.000
1184.816, 8882.000
1185.901, 8854.938
1186.985, 8880.000
1188.070, 8836.000
1189.154, 8810.000
1190.238, 8805.440
1191.322, 8689.000
1192.406, 8860.000
1193.489, 8888.000
1194.573, 8970.000
1195.656, 8908.000
1196.739, 8969.000
1197.822, 8919.000
1198.905, 8896.000
1199.988, 9001.000
1201.070, 8959.000
1202.153, 9007.000
1203.235, 9018.000
1204.317, 8898.000
1205.399, 8938.000
1206.481, 8900.000
1207.562, 8999.000
1208.644, 8904.000
1209.725, 8920.000
1210.806, 8984.000
1211.887, 9099.000
1212.968, 9086.000
1214.049, 8986.000
1215.129, 9068.000
1216.209, 9011.000
1217.290, 8998.000
1218.370, 9036.000
1219.450, 9053.000
1220.529, 8962.000
1221.609, 9139.000
1222.688, 9052.000
1223.768, 8971.000
1224.847, 9098.000
1225.926, 9035.000
1227.005, 9092.000
1228.083, 9121.000
1229.162, 9172.000
1230.240, 9173.000
1231.318, 9184.085
1232.396, 9108.000
1233.474, 9123.000
1234.552, 9217.000
1235.629, 9086.000
1236.707, 9042.000
1237.784, 9140.000
1238.861, 9269.000
1239.938, 8984.000
1241.015, 9187.000
1242.092, 9097.000
1243.168, 9103.000
1244.244, 9127.000
1245.321, 9044.000
1246.397, 9135.000
1247.473, 9239.000
1248.548, 9297.000
1249.624, 9338.960
1250.699, 9358.547
1251.775, 9371.000
1252.850, 9299.000
1253.925, 9284.000
1254.999, 9288.105
1256.074, 9257.657
1257.148, 9274.000
1258.223, 9303.000
1259.297, 9239.000
1260.371, 9381.000
1261.445, 9185.000
1262.519, 9314.000
1263.592, 9275.000
1264.666, 9231.000
1265.739, 9301.000
1266.812, 9225.000
1267.885, 9247.000
1268.958, 9319.000
1270.030, 9242.000
1271.103, 9332.000
1272.175, 9273.000
1273.247, 9395.000
1274.319, 9311.000
1275.391, 9350.000
1276.463, 9454.000
1277.535, 9335.000
1278.606, 9414.000
1279.677, 9290.000
1280.748, 9475.000
1281.819, 9308.000
1282.890, 9362.000
1283.961, 9328.000
1285.031, 9391.000
1286.102, 9427.000
1287.172, 9432.100
1288.242, 9422.000
1289.312, 9465.000
1290.381, 9500.000
1291.451, 9502.000
1292.520, 9537.000
1293.590, 9523.000
1294.659, 9534.000
1295.728, 9445.000
1296.797, 9448.000
1297.865, 9456.000
1298.934, 9479.000
1300.002, 9440.000
1301.070, 9453.000
1302.138, 9479.300
1303.206, 9501.000
1304.274, 9572.000
1305.341, 9547.000
1306.409, 9645.000
1307.476, 9547.000
1308.543, 9655.000
1309.610, 9561.000
1310.677, 9536.000
1311.744, 9669.000
1312.810, 9619.000
1313.877, 9652.000
1314.943, 9726.000
1316.009, 9702.000
1317.075, 9808.000
1318.140, 9663.000
1319.206, 9719.000
1320.272, 9713.000
1321.337, 9665.000
1322.402, 9725.000
1323.467, 9698.849
1324.532, 9645.000
1325.596, 9714.000
1326.661, 9729.000
1327.725, 9759.000
1328.790, 9798.584
1329.854, 9817.000
1330.918, 9855.000
1331.981, 9785.000
1333.045, 9796.000
1334.108, 9901.000
1335.172, 9753.000
1336.235, 9819.000
1337.298, 9672.000
1338.361, 9799.000
1339.423, 9662.000
1340.486, 9805.000
1341.548, 9835.000
1342.611, 9843.000
1343.673, 9927.000
1344.735, 9898.000
1345.796, 9857.000
1346.858, 10002.00
1347.919, 9891.000
1348.981, 9882.000
1350.042, 9942.000
1351.103, 9777.000
1352.164, 9850.000
1353.225, 9852.000
1354.285, 9821.000
1355.346, 9979.000
1356.406, 10018.00
1357.466, 9998.000
1358.526, 9955.000
1359.586, 9943.000
1360.645, 10024.00
1361.705, 9933.000
1362.764, 9987.000
1363.823, 10012.00
1364.882, 9967.458
1365.941, 9990.987
1367.000, 9974.000
1368.059, 9938.000
1369.117, 10037.00
1370.175, 9958.000
1371.233, 9954.000
1372.291, 9882.000
1373.349, 9980.000
1374.407, 9931.000
1375.464, 10043.00
1376.522, 10034.00
1377.579, 10027.00
1378.636, 10066.26
1379.693, 9927.000
1380.750, 10053.00
1381.806, 10068.00
1382.863, 10009.00
1383.919, 10089.00
1384.975, 10101.00
1386.031, 10064.00
1387.087, 9934.000
1388.143, 10146.00
1389.199, 10092.00
1390.254, 9976.000
1391.309, 10092.00
1392.364, 10106.00
1393.419, 10167.00
1394.474, 10078.00
1395.529, 10134.00
1396.583, 10030.00
1397.638, 10193.00
1398.692, 9958.000
1399.746, 10002.00
1400.800, 10130.00
1401.853, 10088.00
1402.907, 10175.00
1403.960, 10007.00
1405.014, 10118.00
1406.067, 9966.000
1407.120, 10213.00
1408.173, 10138.00
1409.225, 10288.00
1410.278, 10198.00
1411.330, 10232.00
1412.383, 10154.00
1413.435, 10127.00
1414.487, 10239.00
1415.538, 10033.00
1416.590, 9989.000
1417.641, 10070.00
1418.693, 10238.00
1419.744, 10142.00
1420.795, 10225.00
1421.846, 10265.00
1422.897, 10226.00
1423.947, 10307.00
1424.998, 10220.00
1426.048, 10321.00
1427.098, 10241.00
1428.148, 10196.00
1429.198, 10109.00
1430.247, 10209.00
1431.297, 10167.00
1432.346, 10245.00
1433.396, 10327.00
1434.445, 10232.00
1435.494, 10314.00
1436.542, 10247.00
1437.591, 10339.00
1438.639, 10273.00
1439.688, 10249.00
1440.736, 10441.00
1441.784, 10248.00
1442.832, 10388.00
1443.880, 10347.00
1444.927, 10401.00
1445.975, 10386.00
1447.022, 10401.00
1448.069, 10403.00
1449.116, 10355.00
1450.163, 10423.00
1451.209, 10380.00
1452.256, 10405.00
1453.302, 10376.00
1454.348, 10431.00
1455.394, 10445.00
1456.440, 10392.00
1457.486, 10527.00
1458.532, 10311.00
1459.577, 10433.00
1460.623, 10461.00
1461.668, 10520.00
1462.713, 10460.00
1463.758, 10590.00
1464.802, 10397.00
1465.847, 10457.00
1466.891, 10451.00
1467.936, 10405.00
1468.980, 10458.00
1470.024, 10369.00
1471.067, 10530.00
1472.111, 10446.00
1473.155, 10439.00
1474.198, 10512.00
1475.241, 10326.00
1476.284, 10451.00
1477.327, 10586.00
1478.370, 10707.00
1479.413, 10596.00
1480.455, 10501.00
1481.497, 10687.00
1482.540, 10455.00
1483.582, 10546.00
1484.624, 10502.00
1485.665, 10650.00
1486.707, 10489.00
1487.748, 10537.00
1488.790, 10471.00
1489.831, 10496.00
1490.872, 10541.00
1491.912, 10671.00
1492.953, 10591.00
1493.994, 10631.00
1495.034, 10506.00
1496.074, 10627.00
1497.114, 10510.00
1498.154, 10617.00
1499.194, 10497.00
1500.234, 10733.00
1501.273, 10577.00
1502.313, 10731.00
1503.352, 10713.00
1504.391, 10717.00
1505.430, 10823.00
1506.468, 10629.00
1507.507, 10654.00
1508.545, 10671.00
1509.584, 10738.00
1510.622, 10604.00
1511.660, 10818.00
1512.698, 10697.00
1513.735, 10887.00
1514.773, 10845.00
1515.810, 10747.00
1516.848, 10756.00
1517.885, 10809.00
1518.922, 10786.00
1519.958, 10733.00
1520.995, 10789.00
1522.032, 10746.00
1523.068, 10700.00
1524.104, 10765.00
1525.140, 10803.00
1526.176, 10771.00
1527.212, 10833.00
1528.248, 10763.00
1529.283, 10888.00
1530.318, 10856.00
1531.353, 10915.00
1532.389, 10934.00
1533.423, 10817.00
1534.458, 10906.00
1535.493, 10783.00
1536.527, 10722.00
1537.561, 10883.00
1538.596, 10883.00
1539.630, 11009.00
1540.663, 10894.00
1541.697, 11031.00
1542.731, 10924.00
1543.764, 10978.00
1544.797, 11064.00
1545.830, 11022.00
1546.863, 10892.00
1547.896, 10992.00
1548.929, 10943.00
1549.961, 10955.00
1550.994, 10985.00
1552.026, 11085.00
1553.058, 11152.00
1554.090, 11097.00
1555.121, 11221.00
1556.153, 11108.00
1557.185, 11056.00
1558.216, 11282.00
1559.247, 11069.00
1560.278, 11054.00
1561.309, 10974.00
1562.340, 10965.00
##END=



