##NAMES=Axinite-(Fe)
##RRUFFID=R060194
##IDEAL CHEMISTRY=Ca_4_Fe^2+^_2_Al_4_[B_2_Si_8_O_30_](OH)_2_
##LOCALITY=near Dalbandi, Baluchistan Province, Pakistan
##OWNER=RRUFF
##SOURCE=Herbert Obodda
##DESCRIPTION=Brown transparent wedge-shaped single crystal
##STATUS=The identification of this mineral has been confirmed by X-ray diffraction and chemical analysis
##URL=rruff.info/R060194
##MEASURED CHEMISTRY=Ca_2.00_(Fe^2+^_0.66_Mg_0.30_Mn_0.04_)Al_2.00_BSi_4.00_O_15_(OH)
##PIN_ID=L01255
##ORIENTATION=Laser parallel to (-1 0 -1). Fiducial mark perpendicular to laser is parallel to -b [0 -1 0]
53.91000, 631.0000
55.14900, 636.0000
56.38700, 654.0000
57.62600, 640.0000
58.86400, 674.0000
60.10300, 682.0000
61.34100, 693.0000
62.57900, 718.0000
63.81700, 773.0000
65.05400, 808.0000
66.29200, 871.0000
67.52900, 986.0000
68.76700, 1291.000
70.00400, 1413.505
71.24100, 1627.479
72.47700, 1849.000
73.71400, 2010.000
74.95100, 2252.000
76.18700, 2417.000
77.42300, 2494.000
78.65900, 2679.000
79.89500, 2996.000
81.13100, 3325.000
82.36700, 3805.000
83.60200, 4444.000
84.83700, 4882.964
86.07200, 5500.000
87.30800, 6051.000
88.54200, 6737.000
89.77700, 7509.000
91.01200, 8511.000
92.24600, 9801.000
93.48000, 10916.00
94.71400, 11474.00
95.94800, 12454.00
97.18200, 12567.00
98.41600, 12841.00
99.64900, 13355.00
100.8830, 14156.00
102.1160, 14735.00
103.3490, 16034.00
104.5820, 17983.00
105.8150, 21805.00
107.0470, 26406.00
108.2800, 31634.00
109.5120, 32934.00
110.7440, 28137.00
111.9760, 24685.00
113.2080, 22526.00
114.4400, 20948.00
115.6710, 20279.00
116.9030, 19181.00
118.1340, 18196.00
119.3650, 17613.00
120.5960, 17257.00
121.8270, 16950.00
123.0580, 16524.00
124.2880, 16171.88
125.5190, 15958.00
126.7490, 15286.00
127.9790, 15017.00
129.2090, 14338.00
130.4390, 14074.00
131.6680, 13786.00
132.8980, 13663.00
134.1270, 13695.00
135.3560, 13845.00
136.5850, 14218.00
137.8140, 14763.00
139.0430, 15552.00
140.2710, 16505.00
141.5000, 17322.00
142.7280, 17019.00
143.9560, 17050.00
145.1840, 17055.00
146.4120, 17144.00
147.6390, 17315.00
148.8670, 17957.00
150.0940, 18769.00
151.3210, 19811.00
152.5490, 20444.00
153.7750, 19840.00
155.0020, 18805.00
156.2290, 18208.00
157.4550, 17908.00
158.6810, 17400.00
159.9080, 17411.00
161.1340, 17336.00
162.3590, 17473.00
163.5850, 18336.00
164.8110, 19235.00
166.0360, 20694.00
167.2610, 22233.00
168.4860, 24439.00
169.7110, 26656.00
170.9360, 28431.00
172.1610, 28274.00
173.3850, 26608.00
174.6100, 24185.00
175.8340, 22142.00
177.0580, 19780.00
178.2820, 18034.00
179.5050, 16309.00
180.7290, 14934.00
181.9520, 14066.00
183.1760, 13257.00
184.3990, 12953.00
185.6220, 12564.00
186.8450, 12387.00
188.0670, 12249.00
189.2900, 12303.00
190.5120, 12589.00
191.7340, 13127.00
192.9560, 13396.00
194.1780, 13795.00
195.4000, 14452.00
196.6220, 14403.00
197.8430, 14534.00
199.0640, 14687.00
200.2860, 15282.00
201.5070, 15855.00
202.7270, 16668.00
203.9480, 17383.00
205.1690, 18160.00
206.3890, 19160.00
207.6090, 20206.00
208.8290, 21335.00
210.0490, 22573.00
211.2690, 23447.00
212.4890, 24289.00
213.7080, 24426.00
214.9280, 24240.00
216.1470, 23543.00
217.3660, 23114.00
218.5850, 22426.00
219.8030, 21472.00
221.0220, 20491.00
222.2400, 19257.00
223.4590, 17964.00
224.6770, 16742.00
225.8950, 15758.00
227.1120, 14978.00
228.3300, 14456.00
229.5480, 13964.00
230.7650, 13788.00
231.9820, 13636.00
233.1990, 13716.00
234.4160, 13633.00
235.6330, 13992.00
236.8490, 14181.00
238.0660, 14805.00
239.2820, 15505.00
240.4980, 15994.00
241.7140, 16360.81
242.9300, 16653.00
244.1460, 16793.00
245.3610, 16957.00
246.5770, 16925.00
247.7920, 17307.00
249.0070, 17592.00
250.2220, 17838.00
251.4370, 18502.00
252.6510, 19288.00
253.8660, 19833.00
255.0800, 20620.00
256.2940, 21100.00
257.5080, 21505.00
258.7220, 22659.00
259.9360, 23455.00
261.1490, 22286.00
262.3630, 21539.00
263.5760, 22327.00
264.7890, 23238.00
266.0020, 24464.00
267.2150, 25935.00
268.4270, 27428.00
269.6400, 28957.00
270.8520, 30562.00
272.0640, 31631.00
273.2760, 32537.00
274.4880, 33033.00
275.7000, 33285.00
276.9120, 32734.00
278.1230, 31709.00
279.3340, 30277.00
280.5450, 28332.00
281.7560, 26622.00
282.9670, 25216.00
284.1780, 23722.00
285.3880, 22700.00
286.5980, 22350.00
287.8090, 22193.00
289.0190, 22016.00
290.2290, 21992.00
291.4380, 22603.00
292.6480, 23016.00
293.8570, 23571.00
295.0670, 24256.00
296.2760, 24908.00
297.4850, 24897.00
298.6930, 25197.00
299.9020, 24909.00
301.1110, 24774.00
302.3190, 24217.00
303.5270, 23697.00
304.7350, 23370.00
305.9430, 22849.00
307.1510, 22857.00
308.3580, 22680.00
309.5660, 23099.00
310.7730, 23063.00
311.9800, 23665.00
313.1870, 24704.00
314.3940, 25856.00
315.6010, 27770.00
316.8070, 29669.00
318.0130, 31803.00
319.2200, 32918.00
320.4260, 32720.00
321.6310, 31938.00
322.8370, 30133.00
324.0430, 27828.00
325.2480, 25800.00
326.4540, 23965.00
327.6590, 22873.00
328.8640, 22016.00
330.0680, 21805.00
331.2730, 21570.00
332.4780, 21638.00
333.6820, 21828.27
334.8860, 22128.00
336.0900, 22809.00
337.2940, 23642.00
338.4980, 24782.00
339.7010, 26372.00
340.9050, 28339.00
342.1080, 30532.00
343.3110, 32563.00
344.5140, 34061.00
345.7170, 33669.00
346.9200, 32123.00
348.1220, 30214.00
349.3240, 28075.00
350.5270, 25684.00
351.7290, 24029.00
352.9310, 22223.00
354.1320, 20767.00
355.3340, 19518.00
356.5350, 17984.00
357.7370, 16945.00
358.9380, 15778.00
360.1390, 15188.00
361.3400, 14816.00
362.5400, 14364.00
363.7410, 13920.00
364.9410, 13909.00
366.1410, 13691.00
367.3410, 13759.00
368.5410, 13887.00
369.7410, 14014.00
370.9400, 14313.00
372.1400, 14623.00
373.3390, 14896.00
374.5380, 15233.00
375.7370, 15149.00
376.9360, 15200.00
378.1350, 15352.00
379.3330, 15043.00
380.5310, 15416.00
381.7300, 15558.00
382.9280, 16292.00
384.1260, 16931.00
385.3230, 17875.00
386.5210, 19555.00
387.7180, 19878.00
388.9160, 20735.00
390.1130, 21433.00
391.3100, 21739.00
392.5060, 21911.00
393.7030, 21500.00
394.9000, 21170.00
396.0960, 20458.00
397.2920, 19531.00
398.4880, 18781.00
399.6840, 18253.00
400.8800, 17535.00
402.0750, 17322.00
403.2710, 17113.00
404.4660, 16782.00
405.6610, 16664.00
406.8560, 16617.00
408.0510, 16526.00
409.2450, 16702.00
410.4400, 17134.00
411.6340, 17463.00
412.8280, 18193.00
414.0220, 19265.00
415.2160, 20242.00
416.4100, 21525.00
417.6030, 22849.00
418.7970, 24121.00
419.9900, 24367.00
421.1830, 25018.00
422.3760, 25305.00
423.5690, 26067.00
424.7610, 27218.00
425.9540, 27918.00
427.1460, 29284.00
428.3380, 30384.00
429.5300, 31156.00
430.7220, 31269.00
431.9140, 30834.00
433.1050, 29632.00
434.2970, 27849.00
435.4880, 25996.00
436.6790, 24411.00
437.8700, 22766.00
439.0610, 21740.00
440.2510, 21099.00
441.4420, 20992.00
442.6320, 21194.00
443.8220, 21907.00
445.0120, 22135.00
446.2020, 21994.00
447.3910, 21157.00
448.5810, 19890.00
449.7700, 18561.00
450.9600, 17607.00
452.1490, 16713.00
453.3370, 16145.00
454.5260, 15620.00
455.7150, 15550.00
456.9030, 15238.00
458.0910, 15300.00
459.2800, 15074.00
460.4670, 14757.00
461.6550, 14775.00
462.8430, 14551.00
464.0300, 14445.00
465.2180, 14471.00
466.4050, 14598.00
467.5920, 14789.00
468.7790, 14906.00
469.9650, 15199.00
471.1520, 15412.00
472.3380, 15645.00
473.5250, 15759.00
474.7110, 15658.00
475.8970, 15702.00
477.0820, 15937.00
478.2680, 16196.03
479.4540, 16668.07
480.6390, 17138.00
481.8240, 17882.00
483.0090, 18663.00
484.1940, 19426.00
485.3780, 19993.00
486.5630, 20014.00
487.7470, 19330.00
488.9320, 18150.00
490.1160, 17059.00
491.3000, 16192.00
492.4830, 15458.00
493.6670, 14842.00
494.8500, 14613.00
496.0340, 14452.00
497.2170, 14323.00
498.4000, 14386.00
499.5820, 14568.00
500.7650, 14677.00
501.9480, 14711.00
503.1300, 15036.00
504.3120, 15025.00
505.4940, 15467.00
506.6760, 15603.00
507.8580, 15649.00
509.0390, 15924.00
510.2210, 15677.00
511.4020, 15880.00
512.5830, 15672.00
513.7640, 15466.00
514.9450, 15384.00
516.1250, 15039.00
517.3060, 14906.00
518.4860, 14851.00
519.6660, 14633.00
520.8460, 14331.00
522.0260, 14195.00
523.2060, 14000.00
524.3850, 13986.00
525.5650, 13819.00
526.7440, 13835.00
527.9230, 13797.00
529.1020, 13921.00
530.2810, 13919.00
531.4590, 13915.00
532.6380, 13986.00
533.8160, 14100.00
534.9940, 14170.00
536.1720, 14259.00
537.3500, 14537.00
538.5270, 14835.00
539.7050, 14909.00
540.8820, 15352.00
542.0590, 15527.00
543.2360, 16069.00
544.4130, 16179.00
545.5900, 16345.00
546.7660, 16632.00
547.9430, 16803.00
549.1190, 16589.00
550.2950, 16611.00
551.4710, 16285.00
552.6470, 16378.00
553.8220, 16392.00
554.9980, 16643.00
556.1730, 17032.00
557.3480, 17294.00
558.5230, 17811.00
559.6980, 18357.00
560.8730, 19148.00
562.0470, 19419.00
563.2220, 19464.00
564.3960, 19076.00
565.5700, 18700.00
566.7440, 18164.00
567.9170, 18048.00
569.0910, 17806.00
570.2640, 17768.00
571.4380, 17888.00
572.6110, 17805.00
573.7840, 18305.00
574.9570, 18082.00
576.1290, 18028.00
577.3020, 17716.00
578.4740, 17472.00
579.6460, 17306.00
580.8180, 16996.00
581.9900, 16790.00
583.1620, 16782.00
584.3330, 16745.00
585.5040, 16882.00
586.6760, 17237.00
587.8470, 17311.00
589.0180, 17468.00
590.1880, 17423.00
591.3590, 17147.00
592.5290, 16864.00
593.7000, 16422.00
594.8700, 15844.00
596.0400, 15465.00
597.2090, 15185.00
598.3790, 15031.00
599.5490, 14906.00
600.7180, 14695.00
601.8870, 14875.00
603.0560, 14757.00
604.2250, 14940.00
605.3940, 15009.00
606.5620, 15383.00
607.7300, 15680.00
608.8990, 15919.00
610.0670, 16368.00
611.2350, 16797.00
612.4020, 17327.00
613.5700, 17665.00
614.7370, 18268.00
615.9050, 18843.00
617.0720, 19243.00
618.2390, 19702.00
619.4060, 20176.00
620.5720, 20331.00
621.7390, 19980.00
622.9050, 19426.00
624.0710, 18779.00
625.2370, 18324.00
626.4030, 17234.00
627.5690, 16580.00
628.7340, 16133.00
629.9000, 15916.00
631.0650, 15652.00
632.2300, 15575.00
633.3950, 15643.12
634.5600, 15711.00
635.7240, 16064.83
636.8890, 16337.00
638.0530, 16759.00
639.2170, 16920.00
640.3810, 17498.00
641.5450, 17980.00
642.7080, 18158.00
643.8720, 18406.00
645.0350, 18438.00
646.1980, 18424.00
647.3610, 18140.00
648.5240, 17722.00
649.6870, 17387.00
650.8490, 16911.00
652.0120, 16483.00
653.1740, 16186.00
654.3360, 15797.00
655.4980, 15594.00
656.6600, 15443.00
657.8210, 15322.28
658.9830, 15415.00
660.1440, 15345.00
661.3050, 15512.00
662.4660, 15713.00
663.6270, 15793.00
664.7870, 16038.00
665.9480, 16411.00
667.1080, 16800.28
668.2680, 17385.00
669.4280, 17941.00
670.5880, 18721.00
671.7480, 19573.00
672.9070, 20806.00
674.0670, 21632.00
675.2260, 22830.00
676.3850, 23662.00
677.5440, 24004.00
678.7030, 23849.00
679.8610, 23276.00
681.0200, 22064.00
682.1780, 21193.00
683.3360, 20009.00
684.4940, 19115.00
685.6520, 18448.00
686.8090, 17938.00
687.9670, 17606.00
689.1240, 17372.00
690.2810, 17420.00
691.4380, 17348.00
692.5950, 17554.00
693.7520, 17507.00
694.9080, 18020.00
696.0650, 18476.00
697.2210, 18807.00
698.3770, 19646.00
699.5330, 20545.00
700.6880, 21708.00
701.8440, 22967.00
702.9990, 25092.00
704.1550, 27133.00
705.3100, 29922.00
706.4650, 33345.00
707.6190, 37175.00
708.7740, 41489.00
709.9290, 46235.00
711.0830, 51237.00
712.2370, 55454.00
713.3910, 57950.00
714.5450, 58998.00
715.6980, 57859.00
716.8520, 54226.00
718.0050, 50139.00
719.1580, 44595.00
720.3110, 39244.00
721.4640, 34739.00
722.6170, 31345.00
723.7700, 28297.00
724.9220, 25741.00
726.0740, 23822.00
727.2260, 22199.00
728.3780, 21143.00
729.5300, 20265.00
730.6810, 19373.00
731.8330, 19024.00
732.9840, 18283.00
734.1350, 18034.00
735.2860, 17693.00
736.4370, 17349.00
737.5880, 17080.00
738.7380, 16827.00
739.8880, 16554.00
741.0390, 16562.00
742.1890, 16629.00
743.3380, 16448.00
744.4880, 16414.00
745.6380, 16281.00
746.7870, 16278.00
747.9360, 16181.00
749.0850, 16077.00
750.2340, 16172.00
751.3830, 16184.00
752.5310, 16243.00
753.6800, 16357.00
754.8280, 16370.00
755.9760, 16582.00
757.1240, 16692.00
758.2720, 16651.00
759.4190, 17031.00
760.5670, 17174.00
761.7140, 17456.00
762.8610, 17771.00
764.0080, 17933.00
765.1550, 18176.00
766.3020, 18304.00
767.4480, 18514.00
768.5950, 18269.00
769.7410, 18208.00
770.8870, 17959.00
772.0330, 17843.00
773.1780, 17532.00
774.3240, 17331.00
775.4690, 16986.00
776.6140, 16718.00
777.7590, 16530.00
778.9040, 16289.00
780.0490, 16109.00
781.1940, 15939.00
782.3380, 15890.00
783.4820, 15826.00
784.6260, 15804.00
785.7700, 15529.00
786.9140, 15698.00
788.0580, 15451.00
789.2010, 15489.00
790.3450, 15542.00
791.4880, 15569.00
792.6310, 15505.00
793.7730, 15529.00
794.9160, 15571.00
796.0590, 15446.00
797.2010, 15469.00
798.3430, 15471.00
799.4850, 15638.00
800.6270, 15580.00
801.7690, 15817.00
802.9100, 15771.00
804.0520, 15600.00
805.1930, 15821.00
806.3340, 15906.00
807.4750, 16106.00
808.6160, 16366.00
809.7560, 16356.00
810.8970, 16707.00
812.0370, 16755.00
813.1770, 16964.00
814.3170, 17012.00
815.4570, 16942.00
816.5960, 17039.00
817.7360, 16841.00
818.8750, 16558.00
820.0140, 16404.00
821.1530, 16334.00
822.2920, 16330.00
823.4310, 16119.00
824.5690, 16105.00
825.7070, 16120.00
826.8460, 16016.00
827.9840, 16044.57
829.1220, 16194.00
830.2590, 16100.00
831.3970, 16074.00
832.5340, 16236.00
833.6710, 16114.00
834.8080, 16367.00
835.9450, 16368.00
837.0820, 16413.00
838.2190, 16448.00
839.3550, 16673.00
840.4910, 16819.00
841.6270, 16730.00
842.7630, 16905.00
843.8990, 16950.00
845.0350, 17076.00
846.1700, 17324.00
847.3060, 17548.00
848.4410, 17749.00
849.5760, 17828.00
850.7100, 18025.00
851.8450, 18309.00
852.9800, 18163.00
854.1140, 18341.00
855.2480, 18540.00
856.3820, 18524.00
857.5160, 18543.00
858.6500, 18608.00
859.7830, 18744.00
860.9170, 18878.00
862.0500, 18911.00
863.1830, 18907.00
864.3160, 18965.00
865.4480, 18976.00
866.5810, 18828.00
867.7130, 19175.00
868.8460, 19291.00
869.9780, 19186.00
871.1100, 19215.00
872.2410, 19260.00
873.3730, 19234.00
874.5050, 19107.00
875.6360, 19232.00
876.7670, 19282.00
877.8980, 19430.00
879.0290, 19434.94
880.1590, 19439.83
881.2900, 19445.00
882.4200, 19366.00
883.5500, 19340.00
884.6800, 19289.00
885.8100, 19338.00
886.9400, 19294.00
888.0690, 19438.53
889.1990, 19393.00
890.3280, 19831.00
891.4570, 19910.00
892.5860, 20274.00
893.7140, 20572.00
894.8430, 20889.00
895.9710, 21426.00
897.1000, 21932.00
898.2280, 22372.00
899.3560, 22799.00
900.4830, 23192.00
901.6110, 23591.00
902.7380, 23939.00
903.8660, 24391.00
904.9930, 24638.00
906.1200, 24727.00
907.2460, 24478.00
908.3730, 24258.00
909.5000, 23785.00
910.6260, 23061.00
911.7520, 22440.00
912.8780, 21951.00
914.0040, 21568.00
915.1290, 20945.00
916.2550, 20771.00
917.3800, 20252.00
918.5050, 20113.00
919.6300, 19916.00
920.7550, 19608.00
921.8800, 19833.00
923.0040, 19947.00
924.1290, 19921.00
925.2530, 20077.00
926.3770, 20266.00
927.5010, 20415.00
928.6250, 20764.00
929.7480, 21398.00
930.8720, 21441.00
931.9950, 21533.00
933.1180, 21817.00
934.2410, 21708.00
935.3640, 21533.00
936.4860, 21596.00
937.6090, 21432.00
938.7310, 21550.00
939.8530, 21670.00
940.9750, 21766.00
942.0970, 22002.00
943.2180, 22505.00
944.3400, 22713.00
945.4610, 23268.00
946.5820, 24070.00
947.7030, 24778.00
948.8240, 25477.00
949.9450, 26517.00
951.0650, 27301.00
952.1860, 28549.00
953.3060, 29760.00
954.4260, 30937.00
955.5460, 32393.00
956.6650, 33957.45
957.7850, 35583.00
958.9040, 37651.00
960.0230, 39852.00
961.1420, 42346.00
962.2610, 44580.00
963.3800, 46793.00
964.4990, 48159.00
965.6170, 48642.00
966.7350, 47717.00
967.8530, 46528.00
968.9710, 44718.00
970.0890, 42703.00
971.2070, 41104.00
972.3240, 40305.00
973.4410, 39871.00
974.5580, 39850.00
975.6750, 40808.00
976.7920, 41651.00
977.9090, 42875.00
979.0250, 43712.00
980.1410, 44164.00
981.2580, 43963.00
982.3740, 42940.00
983.4890, 41562.00
984.6050, 39638.00
985.7200, 37875.00
986.8360, 36541.00
987.9510, 35210.00
989.0660, 34183.00
990.1810, 33123.00
991.2950, 32735.00
992.4100, 31951.00
993.5240, 31661.00
994.6390, 31322.00
995.7530, 31130.00
996.8660, 30940.00
997.9800, 30983.00
999.0940, 30845.00
1000.207, 30744.00
1001.320, 30827.00
1002.433, 30682.00
1003.546, 30314.00
1004.659, 29898.00
1005.772, 29280.00
1006.884, 28391.00
1007.996, 27903.00
1009.108, 27090.00
1010.220, 26115.00
1011.332, 25294.00
1012.444, 24580.00
1013.555, 23894.98
1014.666, 23396.00
1015.777, 22843.00
1016.888, 22433.00
1017.999, 22139.00
1019.110, 21782.00
1020.220, 21570.00
1021.331, 21380.00
1022.441, 21038.00
1023.551, 21037.00
1024.661, 21084.00
1025.770, 20864.00
1026.880, 20703.00
1027.989, 20828.00
1029.098, 20806.00
1030.207, 20941.00
1031.316, 20835.00
1032.425, 20775.00
1033.533, 21048.00
1034.642, 20951.00
1035.750, 21245.00
1036.858, 21461.00
1037.966, 21738.00
1039.073, 21857.00
1040.181, 22134.00
1041.288, 22384.00
1042.396, 22346.00
1043.503, 22778.00
1044.610, 22591.00
1045.716, 22828.00
1046.823, 22635.00
1047.929, 22899.00
1049.036, 22991.50
1050.142, 23086.00
1051.248, 23414.00
1052.353, 23443.00
1053.459, 23887.00
1054.564, 24151.00
1055.670, 24406.00
1056.775, 24758.00
1057.880, 24931.00
1058.985, 24855.00
1060.089, 25153.00
1061.194, 24797.00
1062.298, 24538.00
1063.402, 24348.00
1064.506, 23973.00
1065.610, 23512.00
1066.713, 23114.00
1067.817, 22822.75
1068.920, 22354.00
1070.023, 22286.00
1071.126, 22112.00
1072.229, 21881.00
1073.332, 22063.00
1074.435, 22242.00
1075.537, 22354.00
1076.639, 22655.00
1077.741, 23102.00
1078.843, 23661.00
1079.945, 24549.00
1081.046, 25267.00
1082.148, 26011.00
1083.249, 26470.00
1084.350, 26957.00
1085.451, 26858.00
1086.551, 26470.00
1087.652, 25738.00
1088.752, 24904.00
1089.853, 23957.00
1090.953, 23229.00
1092.053, 22417.00
1093.152, 22082.00
1094.252, 21520.00
1095.351, 21368.00
1096.451, 21070.00
1097.550, 20749.00
1098.649, 20654.00
1099.748, 20553.00
1100.846, 20781.00
1101.945, 20513.00
1103.043, 20569.00
1104.141, 20609.00
1105.239, 20464.00
1106.337, 20604.00
1107.434, 20458.00
1108.532, 20399.00
1109.629, 20340.00
1110.726, 20340.00
1111.823, 20325.00
1112.920, 19972.00
1114.017, 20063.00
1115.113, 20133.00
1116.210, 20236.00
1117.306, 20545.00
1118.402, 20697.00
1119.498, 20842.00
1120.593, 21014.00
1121.689, 21137.00
1122.784, 21447.00
1123.879, 21401.00
1124.974, 20972.00
1126.069, 20608.00
1127.164, 20167.00
1128.259, 19841.00
1129.353, 19656.00
1130.447, 19315.00
1131.541, 19189.42
1132.635, 19074.76
1133.729, 18993.00
1134.822, 18951.00
1135.916, 18991.00
1137.009, 18922.00
1138.102, 18936.00
1139.195, 19026.00
1140.288, 19032.00
1141.380, 18987.00
1142.473, 19009.00
1143.565, 18990.00
1144.657, 18881.00
1145.749, 18830.00
1146.841, 18836.00
1147.932, 18740.00
1149.024, 18921.00
1150.115, 18887.00
1151.206, 18841.00
1152.297, 18732.00
1153.388, 18951.00
1154.479, 18805.00
1155.569, 18763.00
1156.659, 18879.00
1157.750, 18825.00
1158.839, 18953.00
1159.929, 18852.00
1161.019, 18818.00
1162.108, 18826.00
1163.198, 18846.00
1164.287, 18824.54
1165.376, 18932.00
1166.465, 18760.00
1167.553, 18903.00
1168.642, 18774.00
1169.730, 18716.00
1170.818, 18865.00
1171.906, 18758.00
1172.994, 18849.00
1174.082, 18829.00
1175.170, 18836.00
1176.257, 18751.00
1177.344, 18888.00
1178.431, 19052.00
1179.518, 18751.00
1180.605, 18929.00
1181.691, 18758.00
1182.778, 18917.00
1183.864, 18775.00
1184.950, 18902.00
1186.036, 18816.00
1187.122, 18889.00
1188.207, 18802.00
1189.292, 18938.00
1190.378, 18860.00
1191.463, 18775.00
1192.548, 18839.00
1193.632, 18817.42
1194.717, 18934.00
1195.801, 18885.00
1196.886, 18932.00
1197.970, 18943.00
1199.054, 18778.00
1200.137, 18859.00
1201.221, 18895.00
1202.305, 19019.00
1203.388, 18912.00
1204.471, 18968.00
1205.554, 18954.00
1206.637, 18866.00
1207.719, 18995.00
1208.802, 18850.00
1209.884, 19150.00
1210.966, 19094.00
1212.048, 18945.00
1213.130, 19108.00
1214.212, 18995.00
1215.293, 18977.00
1216.374, 19065.00
1217.456, 19075.00
1218.536, 19042.00
1219.617, 18994.00
1220.698, 18871.00
1221.778, 19040.00
1222.859, 19346.00
1223.939, 19205.00
1225.019, 19075.00
1226.099, 19183.00
1227.178, 19073.00
1228.258, 19078.00
1229.337, 19131.00
1230.417, 19040.00
1231.496, 19067.00
1232.574, 19230.00
1233.653, 19176.00
1234.732, 19051.00
1235.810, 19238.00
1236.888, 19136.00
1237.966, 19140.00
1239.044, 19061.00
1240.122, 19243.00
1241.199, 19240.00
1242.277, 19226.00
1243.354, 19275.00
1244.431, 19093.00
1245.508, 19281.00
1246.585, 19235.00
1247.661, 19061.00
1248.738, 19115.00
1249.814, 19218.00
1250.890, 19279.00
1251.966, 19225.00
1253.042, 19280.00
1254.117, 19178.00
1255.193, 19165.00
1256.268, 19194.00
1257.343, 19205.00
1258.418, 19301.00
1259.493, 19266.68
1260.567, 19327.52
1261.642, 19237.00
1262.716, 19340.00
1263.790, 19334.00
1264.864, 19207.00
1265.938, 19235.00
1267.011, 19483.00
1268.085, 19249.00
1269.158, 19347.00
1270.231, 19345.00
1271.304, 19265.00
1272.377, 19283.00
1273.450, 19270.54
1274.522, 19496.00
1275.594, 19285.00
1276.666, 19446.00
1277.738, 19470.00
1278.810, 19362.00
1279.882, 19260.00
1280.953, 19589.00
1282.025, 19499.00
1283.096, 19647.00
1284.167, 19395.00
1285.238, 19485.00
1286.308, 19534.00
1287.379, 19501.00
1288.449, 19490.00
1289.519, 19516.00
1290.589, 19547.35
1291.659, 19498.00
1292.729, 19627.00
1293.798, 19601.00
1294.868, 19557.00
1295.937, 19404.00
1297.006, 19503.00
1298.075, 19530.00
1299.143, 19683.00
1300.212, 19785.00
1301.280, 19443.00
1302.348, 19596.00
1303.416, 19511.00
1304.484, 19576.00
1305.552, 19689.00
1306.620, 19420.00
1307.687, 19403.00
1308.754, 19473.00
1309.821, 19792.00
1310.888, 19554.00
1311.955, 19640.00
1313.021, 19638.00
1314.088, 19628.00
1315.154, 19650.00
1316.220, 19719.00
1317.286, 19652.00
1318.352, 19781.00
1319.417, 19637.00
1320.483, 19633.00
1321.548, 19794.00
1322.613, 19882.00
1323.678, 19613.00
1324.743, 19825.00
1325.807, 19797.00
1326.872, 19777.00
1327.936, 19823.00
1329.000, 19973.00
1330.064, 19855.00
1331.128, 19634.00
1332.191, 19811.00
1333.255, 19796.00
1334.318, 20024.00
1335.381, 19995.00
1336.444, 20018.00
1337.507, 19957.00
1338.569, 19922.00
1339.632, 19986.00
1340.694, 19948.00
1341.756, 19950.00
1342.818, 20087.00
1343.880, 20151.00
1344.941, 19916.00
1346.003, 19984.00
1347.064, 19938.00
1348.125, 19970.00
1349.186, 19988.00
1350.247, 20031.00
1351.308, 20095.00
1352.368, 20140.00
1353.428, 19999.00
1354.489, 20247.00
1355.549, 20143.00
1356.608, 20126.00
1357.668, 20410.00
1358.727, 20106.00
1359.787, 20230.00
1360.846, 20123.00
1361.905, 20275.00
1362.964, 20132.00
1364.022, 20171.00
1365.081, 20210.00
1366.139, 20231.00
1367.197, 20329.00
1368.255, 20221.00
1369.313, 20277.00
1370.371, 20169.00
1371.428, 20255.00
1372.486, 20191.00
1373.543, 20350.00
1374.600, 20137.00
1375.657, 20230.00
1376.713, 20102.00
1377.770, 20381.00
1378.826, 20268.00
1379.882, 20223.00
1380.938, 20224.00
1381.994, 20212.72
1383.050, 20283.00
1384.106, 20285.00
1385.161, 20354.00
1386.216, 20408.00
1387.271, 20331.00
1388.326, 20577.00
1389.381, 20253.00
1390.435, 20327.00
1391.490, 20587.00
1392.544, 20351.00
1393.598, 20596.00
1394.652, 20291.00
1395.705, 20306.00
1396.759, 20193.00
1397.812, 20326.00
1398.866, 20333.00
1399.919, 20445.00
1400.972, 20443.00
1402.024, 20336.00
1403.077, 20351.00
1404.129, 20437.00
1405.181, 20496.00
1406.233, 20388.00
1407.285, 20379.00
1408.337, 20444.00
1409.389, 20444.00
1410.440, 20467.00
1411.491, 20478.66
1412.542, 20455.00
1413.593, 20465.00
1414.644, 20494.52
1415.695, 20461.00
1416.745, 20609.00
1417.795, 20682.00
1418.845, 20747.00
1419.895, 20603.00
1420.945, 20784.00
1421.995, 20674.00
1423.044, 20817.00
1424.093, 20664.00
1425.142, 20807.00
1426.191, 20767.00
1427.240, 20856.00
1428.289, 20682.00
1429.337, 20768.00
1430.385, 20697.00
1431.433, 20738.00
1432.481, 20722.00
1433.529, 21025.00
1434.577, 20827.00
1435.624, 20910.00
1436.672, 20751.00
1437.719, 20983.00
1438.766, 20711.00
1439.812, 21021.00
1440.859, 21048.00
1441.905, 20782.00
1442.952, 21032.00
1443.998, 21094.00
1445.044, 21051.00
1446.090, 21236.00
1447.135, 21004.00
1448.181, 20905.00
1449.226, 21087.00
1450.271, 20983.00
1451.316, 20974.00
1452.361, 21215.00
1453.405, 21211.00
1454.450, 21005.00
1455.494, 20912.00
1456.538, 21249.00
1457.582, 20959.00
1458.626, 21017.00
1459.670, 21263.00
1460.713, 21236.00
1461.757, 21183.00
1462.800, 21385.00
1463.843, 21085.00
1464.886, 21073.00
1465.928, 21148.00
1466.971, 21077.00
1468.013, 21189.00
1469.055, 21264.00
1470.097, 21216.00
1471.139, 21309.00
1472.181, 21240.00
1473.222, 21342.00
1474.263, 21147.00
1475.305, 21244.00
1476.346, 21047.00
1477.386, 21378.00
1478.427, 21217.00
1479.468, 21160.00
1480.508, 21276.00
1481.548, 21193.00
1482.588, 21219.78
1483.628, 21311.00
1484.668, 21241.00
1485.707, 21251.00
1486.747, 21310.00
1487.786, 21191.00
1488.825, 21323.00
1489.864, 21475.00
1490.902, 21270.00
1491.941, 21393.00
1492.979, 21319.00
1494.017, 21354.00
1495.055, 21337.00
1496.093, 21343.00
1497.131, 21374.00
1498.168, 21405.00
1499.206, 21372.00
1500.243, 21482.00
1501.280, 21466.00
1502.317, 21651.00
1503.354, 21369.00
1504.390, 21516.00
1505.426, 21338.00
1506.463, 21338.00
1507.499, 21431.00
1508.535, 21407.00
1509.570, 21426.00
1510.606, 21490.00
1511.641, 21391.00
1512.676, 21434.00
1513.711, 21617.00
1514.746, 21448.00
1515.781, 21470.00
1516.816, 21589.00
1517.850, 21414.00
1518.884, 21529.00
1519.918, 21546.00
1520.952, 21616.00
1521.986, 21758.00
1523.019, 21704.00
1524.053, 21916.00
1525.086, 21854.00
1526.119, 21795.00
1527.152, 21783.00
1528.185, 21774.30
1529.217, 21794.00
1530.250, 21796.00
1531.282, 21830.00
1532.314, 21820.00
1533.346, 21709.00
1534.377, 21721.00
1535.409, 21709.00
1536.440, 21785.00
1537.472, 21903.00
1538.503, 21830.00
1539.534, 21986.00
1540.564, 21809.00
1541.595, 21737.00
1542.625, 21945.00
1543.656, 22033.00
1544.686, 21910.00
1545.716, 21981.00
1546.745, 21948.00
1547.775, 21851.00
1548.804, 22063.00
1549.834, 21969.00
1550.863, 22027.00
1551.892, 22078.00
1552.920, 21941.00
1553.949, 22170.00
1554.977, 22140.00
1556.006, 22329.00
1557.034, 22139.00
1558.062, 21938.00
1559.089, 22190.00
1560.117, 21924.00
1561.144, 21858.00
1562.172, 22135.00
1563.199, 22022.00
1564.226, 22084.11
1565.252, 22176.00
1566.279, 22147.00
1567.305, 22081.00
1568.332, 22220.00
1569.358, 22067.00
1570.384, 22142.00
1571.409, 22167.00
1572.435, 22311.00
##END=



