##NAMES=Axinite-(Fe)
##RRUFFID=R060194
##IDEAL CHEMISTRY=Ca_4_Fe^2+^_2_Al_4_[B_2_Si_8_O_30_](OH)_2_
##LOCALITY=near Dalbandi, Baluchistan Province, Pakistan
##OWNER=RRUFF
##SOURCE=Herbert Obodda
##DESCRIPTION=Brown transparent wedge-shaped single crystal
##STATUS=The identification of this mineral has been confirmed by X-ray diffraction and chemical analysis
##URL=rruff.info/R060194
##MEASURED CHEMISTRY=Ca_2.00_(Fe^2+^_0.66_Mg_0.30_Mn_0.04_)Al_2.00_BSi_4.00_O_15_(OH)
##PIN_ID=L01072
##ORIENTATION=Laser parallel to -c* (0 0 -1). Fiducial mark perpendicular to laser is parallel to a [1 0 0]
53.91000, 837.0000
55.14900, 860.0000
56.38700, 833.0000
57.62600, 815.0000
58.86400, 832.0000
60.10300, 803.0000
61.34100, 817.0000
62.57900, 829.0000
63.81700, 845.0000
65.05400, 876.0000
66.29200, 892.0000
67.52900, 892.0000
68.76700, 998.0000
70.00400, 1181.000
71.24100, 1207.955
72.47700, 1521.000
73.71400, 1395.000
74.95100, 1439.000
76.18700, 1584.000
77.42300, 1776.000
78.65900, 1998.000
79.89500, 2097.000
81.13100, 2207.000
82.36700, 2430.000
83.60200, 2592.000
84.83700, 2963.000
86.07200, 3313.000
87.30800, 3430.000
88.54200, 3623.000
89.77700, 3827.000
91.01200, 4163.000
92.24600, 4540.000
93.48000, 4874.353
94.71400, 5558.000
95.94800, 5732.000
97.18200, 6423.000
98.41600, 7029.000
99.64900, 7979.000
100.8830, 8946.692
102.1160, 10411.00
103.3490, 11305.00
104.5820, 12573.00
105.8150, 14051.00
107.0470, 16208.00
108.2800, 19162.00
109.5120, 24059.00
110.7440, 27883.00
111.9760, 28042.00
113.2080, 26093.00
114.4400, 24006.00
115.6710, 21726.00
116.9030, 19890.00
118.1340, 18440.00
119.3650, 16883.00
120.5960, 15673.00
121.8270, 15134.00
123.0580, 14357.00
124.2880, 13818.00
125.5190, 13216.22
126.7490, 12839.00
127.9790, 12125.00
129.2090, 11619.00
130.4390, 11187.00
131.6680, 11163.00
132.8980, 11178.00
134.1270, 11572.00
135.3560, 12054.00
136.5850, 13034.00
137.8140, 14339.00
139.0430, 16028.00
140.2710, 17979.00
141.5000, 20003.00
142.7280, 21082.00
143.9560, 20845.00
145.1840, 19926.00
146.4120, 18426.00
147.6390, 16905.00
148.8670, 15321.00
150.0940, 14519.00
151.3210, 13770.00
152.5490, 13196.00
153.7750, 12719.00
155.0020, 12121.00
156.2290, 12051.00
157.4550, 11972.00
158.6810, 11752.00
159.9080, 11535.00
161.1340, 11226.00
162.3590, 11206.00
163.5850, 11229.00
164.8110, 11731.00
166.0360, 12064.00
167.2610, 12787.00
168.4860, 13620.00
169.7110, 14460.00
170.9360, 15636.00
172.1610, 16270.00
173.3850, 16521.00
174.6100, 16229.00
175.8340, 15321.00
177.0580, 14535.00
178.2820, 13359.00
179.5050, 12228.00
180.7290, 11126.00
181.9520, 10218.00
183.1760, 9485.000
184.3990, 8824.000
185.6220, 8655.000
186.8450, 8381.000
188.0670, 8230.000
189.2900, 8317.000
190.5120, 8453.000
191.7340, 8563.000
192.9560, 9034.000
194.1780, 9545.000
195.4000, 10167.00
196.6220, 10512.00
197.8430, 10633.00
199.0640, 10585.00
200.2860, 10690.00
201.5070, 11200.00
202.7270, 12086.00
203.9480, 12266.00
205.1690, 13053.00
206.3890, 13518.00
207.6090, 14212.00
208.8290, 15092.00
210.0490, 16234.00
211.2690, 17155.00
212.4890, 18005.00
213.7080, 18350.00
214.9280, 18948.00
216.1470, 18475.00
217.3660, 18174.00
218.5850, 17549.00
219.8030, 17071.00
221.0220, 16227.00
222.2400, 15278.00
223.4590, 14318.00
224.6770, 13169.00
225.8950, 12006.00
227.1120, 11232.00
228.3300, 10425.00
229.5480, 9883.000
230.7650, 9517.000
231.9820, 9247.000
233.1990, 8944.000
234.4160, 8897.000
235.6330, 9004.000
236.8490, 9092.000
238.0660, 9060.000
239.2820, 9227.000
240.4980, 9323.000
241.7140, 9427.000
242.9300, 9569.000
244.1460, 9646.000
245.3610, 9926.000
246.5770, 10175.00
247.7920, 10647.00
249.0070, 11084.00
250.2220, 11805.00
251.4370, 12449.00
252.6510, 13659.00
253.8660, 15268.00
255.0800, 17350.00
256.2940, 19070.00
257.5080, 20500.00
258.7220, 21323.00
259.9360, 22101.00
261.1490, 22588.00
262.3630, 22404.00
263.5760, 22508.00
264.7890, 23747.00
266.0020, 25485.00
267.2150, 27741.00
268.4270, 30017.00
269.6400, 32640.00
270.8520, 35046.00
272.0640, 37213.00
273.2760, 38992.00
274.4880, 40282.00
275.7000, 40658.00
276.9120, 40056.00
278.1230, 39418.00
279.3340, 37516.00
280.5450, 35111.00
281.7560, 32151.00
282.9670, 29045.00
284.1780, 26640.00
285.3880, 24763.00
286.5980, 23586.00
287.8090, 23243.00
289.0190, 22908.00
290.2290, 22898.00
291.4380, 23068.00
292.6480, 23429.00
293.8570, 23914.00
295.0670, 24149.00
296.2760, 24506.00
297.4850, 24871.00
298.6930, 24791.00
299.9020, 24240.00
301.1110, 23636.00
302.3190, 22670.00
303.5270, 21568.00
304.7350, 20577.00
305.9430, 19670.00
307.1510, 19045.00
308.3580, 18529.00
309.5660, 18029.00
310.7730, 17609.00
311.9800, 17092.00
313.1870, 16833.00
314.3940, 16907.00
315.6010, 17266.00
316.8070, 17696.00
318.0130, 18550.00
319.2200, 19329.00
320.4260, 20065.00
321.6310, 20440.00
322.8370, 20208.00
324.0430, 19549.00
325.2480, 18885.00
326.4540, 17689.00
327.6590, 17284.00
328.8640, 17027.00
330.0680, 17413.00
331.2730, 17438.00
332.4780, 17743.00
333.6820, 18125.00
334.8860, 18315.37
336.0900, 18819.16
337.2940, 19201.00
338.4980, 19993.00
339.7010, 21099.00
340.9050, 22223.00
342.1080, 24268.00
343.3110, 26158.00
344.5140, 27878.00
345.7170, 29317.00
346.9200, 29389.00
348.1220, 28522.00
349.3240, 27143.00
350.5270, 25417.00
351.7290, 23831.00
352.9310, 22468.00
354.1320, 21209.00
355.3340, 19899.00
356.5350, 18433.00
357.7370, 16633.00
358.9380, 15056.00
360.1390, 13679.00
361.3400, 12554.00
362.5400, 11767.00
363.7410, 11072.00
364.9410, 10593.00
366.1410, 10188.00
367.3410, 10050.00
368.5410, 9739.000
369.7410, 9689.000
370.9400, 9679.000
372.1400, 9635.000
373.3390, 9634.000
374.5380, 9617.000
375.7370, 9720.000
376.9360, 9916.000
378.1350, 9978.000
379.3330, 10272.00
380.5310, 10632.00
381.7300, 11172.00
382.9280, 11649.00
384.1260, 12204.00
385.3230, 12890.00
386.5210, 13748.00
387.7180, 14513.00
388.9160, 15454.00
390.1130, 16148.00
391.3100, 16246.00
392.5060, 16074.00
393.7030, 15333.00
394.9000, 14240.00
396.0960, 13237.00
397.2920, 12490.00
398.4880, 11902.00
399.6840, 11565.00
400.8800, 11369.00
402.0750, 11643.00
403.2710, 11690.00
404.4660, 12101.00
405.6610, 12490.00
406.8560, 12816.00
408.0510, 13079.00
409.2450, 13639.00
410.4400, 14402.00
411.6340, 15443.00
412.8280, 16539.00
414.0220, 17653.00
415.2160, 19367.00
416.4100, 21466.00
417.6030, 24096.00
418.7970, 26336.00
419.9900, 27892.00
421.1830, 28719.00
422.3760, 29231.00
423.5690, 29944.00
424.7610, 30761.00
425.9540, 31778.00
427.1460, 31803.00
428.3380, 31038.00
429.5300, 29744.00
430.7220, 27792.00
431.9140, 25843.00
433.1050, 24239.00
434.2970, 22563.00
435.4880, 21060.00
436.6790, 20171.00
437.8700, 19703.00
439.0610, 20030.00
440.2510, 20527.00
441.4420, 21832.00
442.6320, 23988.00
443.8220, 27003.00
445.0120, 30715.00
446.2020, 33557.00
447.3910, 33901.00
448.5810, 31891.00
449.7700, 27699.00
450.9600, 23682.00
452.1490, 19889.00
453.3370, 16968.00
454.5260, 14775.00
455.7150, 13278.00
456.9030, 12360.00
458.0910, 11776.00
459.2800, 11197.00
460.4670, 10893.00
461.6550, 10526.00
462.8430, 10291.00
464.0300, 9941.000
465.2180, 9762.000
466.4050, 9736.000
467.5920, 9489.000
468.7790, 9755.000
469.9650, 9696.000
471.1520, 9844.000
472.3380, 9949.000
473.5250, 10192.57
474.7110, 10570.00
475.8970, 10924.00
477.0820, 11415.00
478.2680, 12040.00
479.4540, 12858.00
480.6390, 13595.00
481.8240, 14934.00
483.0090, 16100.00
484.1940, 17307.00
485.3780, 18533.00
486.5630, 19083.00
487.7470, 18698.00
488.9320, 17402.00
490.1160, 15550.00
491.3000, 13722.00
492.4830, 12453.00
493.6670, 11200.00
494.8500, 10716.00
496.0340, 10201.00
497.2170, 9832.000
498.4000, 9756.000
499.5820, 9582.000
500.7650, 9475.000
501.9480, 9589.000
503.1300, 9697.000
504.3120, 9780.000
505.4940, 9966.000
506.6760, 10222.00
507.8580, 10508.00
509.0390, 10823.00
510.2210, 11285.00
511.4020, 11591.00
512.5830, 11913.00
513.7640, 12002.96
514.9450, 12026.23
516.1250, 11896.00
517.3060, 11692.00
518.4860, 11320.00
519.6660, 10821.00
520.8460, 10253.00
522.0260, 10076.00
523.2060, 9833.000
524.3850, 9538.000
525.5650, 9472.000
526.7440, 9223.000
527.9230, 9474.000
529.1020, 9343.000
530.2810, 9322.000
531.4590, 9577.000
532.6380, 9666.000
533.8160, 9795.000
534.9940, 10047.00
536.1720, 9961.000
537.3500, 10130.00
538.5270, 10132.00
539.7050, 10218.00
540.8820, 10039.00
542.0590, 9712.000
543.2360, 9831.000
544.4130, 9575.000
545.5900, 9605.000
546.7660, 9417.000
547.9430, 9330.000
549.1190, 9303.000
550.2950, 9276.000
551.4710, 9217.000
552.6470, 9263.000
553.8220, 9334.000
554.9980, 9448.000
556.1730, 9618.000
557.3480, 9869.000
558.5230, 10149.00
559.6980, 10263.00
560.8730, 10834.00
562.0470, 11193.00
563.2220, 11268.00
564.3960, 11283.00
565.5700, 11312.00
566.7440, 10971.00
567.9170, 10789.00
569.0910, 10686.00
570.2640, 10698.00
571.4380, 10813.00
572.6110, 10827.00
573.7840, 11142.00
574.9570, 11122.00
576.1290, 11265.00
577.3020, 11383.00
578.4740, 11336.00
579.6460, 11329.00
580.8180, 11369.00
581.9900, 11615.00
583.1620, 11837.00
584.3330, 12275.00
585.5040, 12687.00
586.6760, 13245.00
587.8470, 14082.00
589.0180, 14635.00
590.1880, 16272.00
591.3590, 16009.00
592.5290, 15413.00
593.7000, 14603.00
594.8700, 13670.00
596.0400, 12675.00
597.2090, 11860.00
598.3790, 11293.00
599.5490, 10750.00
600.7180, 10251.00
601.8870, 9992.000
603.0560, 9885.000
604.2250, 9696.000
605.3940, 9697.236
606.5620, 9814.000
607.7300, 9831.000
608.8990, 10005.00
610.0670, 10219.00
611.2350, 10299.00
612.4020, 10706.00
613.5700, 11092.00
614.7370, 11388.00
615.9050, 11606.00
617.0720, 11733.00
618.2390, 11814.00
619.4060, 11874.00
620.5720, 11686.00
621.7390, 11624.00
622.9050, 11254.00
624.0710, 11041.00
625.2370, 10713.00
626.4030, 10305.00
627.5690, 10242.00
628.7340, 10108.00
629.9000, 9951.000
631.0650, 10160.00
632.2300, 10286.00
633.3950, 10435.00
634.5600, 10653.00
635.7240, 11146.00
636.8890, 11415.00
638.0530, 12076.00
639.2170, 12769.00
640.3810, 13434.00
641.5450, 13972.00
642.7080, 14612.00
643.8720, 15174.00
645.0350, 15690.00
646.1980, 15558.00
647.3610, 15515.00
648.5240, 14731.00
649.6870, 14361.00
650.8490, 13545.00
652.0120, 12793.00
653.1740, 12101.00
654.3360, 11722.00
655.4980, 11251.00
656.6600, 10875.00
657.8210, 10705.00
658.9830, 10486.00
660.1440, 10358.00
661.3050, 10350.00
662.4660, 10397.00
663.6270, 10484.00
664.7870, 10596.00
665.9480, 10827.00
667.1080, 11230.00
668.2680, 11703.00
669.4280, 12406.00
670.5880, 13028.31
671.7480, 13810.09
672.9070, 14644.00
674.0670, 15547.00
675.2260, 16617.00
676.3850, 17633.00
677.5440, 18582.00
678.7030, 19012.00
679.8610, 18545.00
681.0200, 17732.00
682.1780, 16747.00
683.3360, 15622.00
684.4940, 14413.00
685.6520, 13529.00
686.8090, 12916.00
687.9670, 12419.00
689.1240, 11983.00
690.2810, 11723.00
691.4380, 11811.00
692.5950, 11771.00
693.7520, 11826.00
694.9080, 12252.00
696.0650, 12483.00
697.2210, 12992.00
698.3770, 13477.00
699.5330, 14151.00
700.6880, 15239.00
701.8440, 16295.00
702.9990, 17772.00
704.1550, 19779.00
705.3100, 22108.00
706.4650, 25275.00
707.6190, 28662.00
708.7740, 32893.00
709.9290, 37579.00
711.0830, 42485.00
712.2370, 47737.00
713.3910, 52782.00
714.5450, 56424.00
715.6980, 57465.00
716.8520, 56431.00
718.0050, 53035.00
719.1580, 47625.00
720.3110, 41582.00
721.4640, 35793.00
722.6170, 30986.00
723.7700, 26870.00
724.9220, 23467.00
726.0740, 20995.00
727.2260, 18921.00
728.3780, 17328.00
729.5300, 16110.00
730.6810, 14956.00
731.8330, 14255.00
732.9840, 13533.00
734.1350, 12924.00
735.2860, 12578.00
736.4370, 12298.00
737.5880, 11865.00
738.7380, 11553.00
739.8880, 11375.00
741.0390, 11089.00
742.1890, 10909.00
743.3380, 10772.00
744.4880, 10674.00
745.6380, 10559.58
746.7870, 10481.51
747.9360, 10417.00
749.0850, 10323.00
750.2340, 10300.00
751.3830, 10179.00
752.5310, 10170.00
753.6800, 10105.00
754.8280, 10186.00
755.9760, 10110.00
757.1240, 10103.00
758.2720, 10264.00
759.4190, 10321.00
760.5670, 10317.00
761.7140, 10481.00
762.8610, 10481.00
764.0080, 10551.00
765.1550, 10639.00
766.3020, 10656.00
767.4480, 10732.00
768.5950, 10765.00
769.7410, 10737.00
770.8870, 10759.00
772.0330, 10632.00
773.1780, 10517.00
774.3240, 10438.00
775.4690, 10466.00
776.6140, 10172.00
777.7590, 10094.00
778.9040, 10203.00
780.0490, 9993.000
781.1940, 9942.000
782.3380, 9830.000
783.4820, 9815.000
784.6260, 9708.000
785.7700, 9826.000
786.9140, 9669.000
788.0580, 9742.000
789.2010, 9571.000
790.3450, 9596.000
791.4880, 9557.000
792.6310, 9581.000
793.7730, 9626.000
794.9160, 9546.000
796.0590, 9511.000
797.2010, 9640.000
798.3430, 9680.000
799.4850, 9771.000
800.6270, 9747.000
801.7690, 9680.000
802.9100, 9766.000
804.0520, 9998.000
805.1930, 9902.000
806.3340, 10067.00
807.4750, 10109.00
808.6160, 10259.00
809.7560, 10319.00
810.8970, 10555.00
812.0370, 10743.00
813.1770, 10829.00
814.3170, 10852.00
815.4570, 10861.00
816.5960, 10705.00
817.7360, 10577.00
818.8750, 10438.00
820.0140, 10191.00
821.1530, 10000.00
822.2920, 10015.00
823.4310, 9935.000
824.5690, 9925.000
825.7070, 9799.000
826.8460, 9808.000
827.9840, 9700.000
829.1220, 9839.000
830.2590, 9943.000
831.3970, 9761.000
832.5340, 9777.000
833.6710, 9660.000
834.8080, 9888.000
835.9450, 10050.00
837.0820, 10116.00
838.2190, 10319.00
839.3550, 10342.19
840.4910, 10338.00
841.6270, 10457.00
842.7630, 10528.00
843.8990, 10678.00
845.0350, 11059.00
846.1700, 11182.00
847.3060, 11417.00
848.4410, 11653.00
849.5760, 11894.00
850.7100, 12293.00
851.8450, 12556.00
852.9800, 12798.00
854.1140, 12842.00
855.2480, 13097.00
856.3820, 13153.00
857.5160, 13329.00
858.6500, 13159.00
859.7830, 13190.00
860.9170, 13181.00
862.0500, 13029.00
863.1830, 13126.00
864.3160, 12934.00
865.4480, 12977.00
866.5810, 12852.00
867.7130, 13016.00
868.8460, 12946.00
869.9780, 13091.00
871.1100, 13104.00
872.2410, 13149.00
873.3730, 13278.00
874.5050, 13309.00
875.6360, 13338.00
876.7670, 13655.00
877.8980, 13564.00
879.0290, 13922.00
880.1590, 14063.00
881.2900, 14143.00
882.4200, 14535.00
883.5500, 14699.00
884.6800, 14813.00
885.8100, 15125.00
886.9400, 15516.00
888.0690, 15843.00
889.1990, 16320.00
890.3280, 16928.00
891.4570, 17486.00
892.5860, 18435.00
893.7140, 19286.00
894.8430, 20187.00
895.9710, 21380.00
897.1000, 22336.00
898.2280, 23669.00
899.3560, 24453.00
900.4830, 25260.00
901.6110, 25620.00
902.7380, 25989.00
903.8660, 26043.00
904.9930, 26040.79
906.1200, 25638.00
907.2460, 25461.00
908.3730, 25078.00
909.5000, 24225.00
910.6260, 23456.00
911.7520, 22279.00
912.8780, 21224.00
914.0040, 20136.00
915.1290, 19113.00
916.2550, 18176.00
917.3800, 17205.00
918.5050, 16666.00
919.6300, 15984.00
920.7550, 15375.00
921.8800, 15168.00
923.0040, 14870.00
924.1290, 14779.00
925.2530, 14710.00
926.3770, 14579.00
927.5010, 14964.00
928.6250, 14919.00
929.7480, 15079.00
930.8720, 15506.00
931.9950, 15533.00
933.1180, 15703.00
934.2410, 15325.00
935.3640, 15692.00
936.4860, 15424.00
937.6090, 15252.00
938.7310, 15146.00
939.8530, 14914.00
940.9750, 15019.00
942.0970, 15010.00
943.2180, 15559.00
944.3400, 15455.00
945.4610, 16067.00
946.5820, 16415.00
947.7030, 16931.00
948.8240, 17603.00
949.9450, 18273.00
951.0650, 19102.00
952.1860, 19898.79
953.3060, 20778.00
954.4260, 21706.00
955.5460, 22587.00
956.6650, 23631.00
957.7850, 24627.00
958.9040, 25746.00
960.0230, 27323.00
961.1420, 28959.00
962.2610, 30613.00
963.3800, 32834.00
964.4990, 34293.00
965.6170, 35408.00
966.7350, 36332.00
967.8530, 36418.00
968.9710, 35946.00
970.0890, 35154.00
971.2070, 34826.00
972.3240, 34642.00
973.4410, 35205.00
974.5580, 36437.00
975.6750, 38353.00
976.7920, 41303.00
977.9090, 43714.00
979.0250, 46394.00
980.1410, 49098.00
981.2580, 50300.00
982.3740, 50795.00
983.4890, 49419.00
984.6050, 47417.00
985.7200, 45032.00
986.8360, 41839.00
987.9510, 39411.00
989.0660, 37275.00
990.1810, 35672.00
991.2950, 34700.00
992.4100, 34247.00
993.5240, 33818.00
994.6390, 33747.00
995.7530, 33714.00
996.8660, 33935.00
997.9800, 34146.00
999.0940, 34176.00
1000.207, 34228.00
1001.320, 34434.00
1002.433, 34008.00
1003.546, 33992.00
1004.659, 32875.00
1005.772, 32025.00
1006.884, 30479.00
1007.996, 29126.00
1009.108, 27288.00
1010.220, 25563.00
1011.332, 23844.00
1012.444, 22410.00
1013.555, 20803.00
1014.666, 19513.00
1015.777, 18288.00
1016.888, 17509.00
1017.999, 16751.00
1019.110, 16218.00
1020.220, 15686.27
1021.331, 15154.00
1022.441, 14951.00
1023.551, 14611.00
1024.661, 14443.00
1025.770, 14333.00
1026.880, 14224.00
1027.989, 14072.00
1029.098, 14182.00
1030.207, 14009.00
1031.316, 13977.00
1032.425, 13749.56
1033.533, 13522.00
1034.642, 13277.00
1035.750, 13085.00
1036.858, 13028.00
1037.966, 12948.00
1039.073, 12767.00
1040.181, 12737.00
1041.288, 12645.00
1042.396, 12619.07
1043.503, 12605.00
1044.610, 12623.00
1045.716, 12567.00
1046.823, 12564.00
1047.929, 12533.00
1049.036, 12460.00
1050.142, 12663.00
1051.248, 12591.00
1052.353, 12712.00
1053.459, 12620.00
1054.564, 12650.00
1055.670, 12708.00
1056.775, 12719.00
1057.880, 12820.00
1058.985, 12872.00
1060.089, 12878.00
1061.194, 12742.00
1062.298, 12867.00
1063.402, 12861.00
1064.506, 12720.00
1065.610, 12476.00
1066.713, 12358.00
1067.817, 12317.00
1068.920, 12214.00
1070.023, 12184.00
1071.126, 12116.60
1072.229, 12106.00
1073.332, 12012.00
1074.435, 11981.00
1075.537, 11949.00
1076.639, 12052.00
1077.741, 12147.00
1078.843, 12275.00
1079.945, 12341.00
1081.046, 12513.00
1082.148, 12672.00
1083.249, 12896.00
1084.350, 12818.00
1085.451, 12975.00
1086.551, 13135.00
1087.652, 12931.00
1088.752, 12734.00
1089.853, 12673.00
1090.953, 12332.00
1092.053, 12301.00
1093.152, 12144.00
1094.252, 12134.00
1095.351, 12032.00
1096.451, 11822.00
1097.550, 12059.00
1098.649, 11891.00
1099.748, 12025.00
1100.846, 11933.00
1101.945, 11953.00
1103.043, 12061.00
1104.141, 12160.00
1105.239, 12121.00
1106.337, 12228.00
1107.434, 11957.00
1108.532, 12282.00
1109.629, 11995.00
1110.726, 12158.00
1111.823, 12062.00
1112.920, 11925.00
1114.017, 11861.00
1115.113, 11752.00
1116.210, 11895.00
1117.306, 11799.00
1118.402, 11859.00
1119.498, 11533.00
1120.593, 11723.00
1121.689, 11684.00
1122.784, 11588.00
1123.879, 11680.00
1124.974, 11606.00
1126.069, 11706.00
1127.164, 11528.00
1128.259, 11583.00
1129.353, 11601.00
1130.447, 11506.00
1131.541, 11499.00
1132.635, 11422.00
1133.729, 11416.00
1134.822, 11299.00
1135.916, 11365.00
1137.009, 11355.00
1138.102, 11258.00
1139.195, 11342.00
1140.288, 11394.00
1141.380, 11362.00
1142.473, 11223.00
1143.565, 11265.00
1144.657, 11356.00
1145.749, 11219.00
1146.841, 11302.00
1147.932, 11351.00
1149.024, 11160.00
1150.115, 11400.00
1151.206, 11307.00
1152.297, 11274.00
1153.388, 11152.00
1154.479, 11266.00
1155.569, 11313.00
1156.659, 11422.00
1157.750, 11249.00
1158.839, 11398.00
1159.929, 11231.00
1161.019, 11317.00
1162.108, 11351.00
1163.198, 11293.00
1164.287, 11395.00
1165.376, 11290.00
1166.465, 11199.00
1167.553, 11195.00
1168.642, 11223.00
1169.730, 11159.00
1170.818, 11287.00
1171.906, 11181.00
1172.994, 11308.00
1174.082, 11343.00
1175.170, 11138.00
1176.257, 11198.00
1177.344, 11277.00
1178.431, 11368.00
1179.518, 11287.00
1180.605, 11234.00
1181.691, 11361.00
1182.778, 11236.00
1183.864, 11801.00
1184.950, 11184.00
1186.036, 11510.00
1187.122, 11246.00
1188.207, 11253.00
1189.292, 11185.00
1190.378, 11229.00
1191.463, 11361.00
1192.548, 11295.00
1193.632, 11420.00
1194.717, 11313.00
1195.801, 11325.00
1196.886, 11209.00
1197.970, 11298.00
1199.054, 11287.00
1200.137, 11395.00
1201.221, 11293.00
1202.305, 11286.00
1203.388, 11244.00
1204.471, 11359.00
1205.554, 11314.00
1206.637, 11423.00
1207.719, 11268.00
1208.802, 11425.00
1209.884, 11222.00
1210.966, 11490.00
1212.048, 11373.00
1213.130, 11378.00
1214.212, 11397.00
1215.293, 11306.00
1216.374, 11400.00
1217.456, 11456.00
1218.536, 11434.00
1219.617, 11432.00
1220.698, 11472.00
1221.778, 11418.00
1222.859, 11432.00
1223.939, 11425.00
1225.019, 11366.00
1226.099, 11297.00
1227.178, 11409.00
1228.258, 11527.00
1229.337, 11378.00
1230.417, 11564.00
1231.496, 11372.00
1232.574, 11571.00
1233.653, 11498.00
1234.732, 11487.00
1235.810, 11459.00
1236.888, 11368.00
1237.966, 11601.00
1239.044, 11568.00
1240.122, 11558.00
1241.199, 11478.00
1242.277, 11601.00
1243.354, 11589.00
1244.431, 11421.00
1245.508, 11519.00
1246.585, 11483.00
1247.661, 11477.00
1248.738, 11557.00
1249.814, 11686.00
1250.890, 11557.00
1251.966, 11662.00
1253.042, 11605.00
1254.117, 11631.00
1255.193, 11584.00
1256.268, 11614.00
1257.343, 11578.00
1258.418, 11615.00
1259.493, 11616.74
1260.567, 11619.00
1261.642, 11643.00
1262.716, 11560.00
1263.790, 11572.00
1264.864, 11568.00
1265.938, 11734.00
1267.011, 11637.00
1268.085, 11767.00
1269.158, 11667.00
1270.231, 11613.00
1271.304, 11606.00
1272.377, 11661.00
1273.450, 11615.00
1274.522, 11655.00
1275.594, 11766.00
1276.666, 11628.00
1277.738, 11676.00
1278.810, 11513.00
1279.882, 11702.00
1280.953, 11794.00
1282.025, 11733.00
1283.096, 11811.00
1284.167, 11847.00
1285.238, 11787.00
1286.308, 11752.00
1287.379, 11738.00
1288.449, 11709.00
1289.519, 11825.00
1290.589, 11691.00
1291.659, 11729.00
1292.729, 11828.00
1293.798, 11709.00
1294.868, 11813.00
1295.937, 11644.00
1297.006, 11750.00
1298.075, 11736.00
1299.143, 11710.62
1300.212, 11756.00
1301.280, 11727.00
1302.348, 11759.00
1303.416, 11782.00
1304.484, 11859.00
1305.552, 11898.00
1306.620, 11802.00
1307.687, 11942.00
1308.754, 11916.00
1309.821, 11819.00
1310.888, 11843.00
1311.955, 11915.00
1313.021, 11856.00
1314.088, 11854.00
1315.154, 11957.00
1316.220, 12030.00
1317.286, 11874.00
1318.352, 11907.00
1319.417, 11899.00
1320.483, 11920.00
1321.548, 12100.00
1322.613, 11850.00
1323.678, 12013.00
1324.743, 11859.00
1325.807, 11956.00
1326.872, 11908.00
1327.936, 12002.00
1329.000, 12033.00
1330.064, 12011.00
1331.128, 12046.00
1332.191, 12070.00
1333.255, 12021.00
1334.318, 12068.00
1335.381, 12088.00
1336.444, 12066.00
1337.507, 12206.00
1338.569, 12128.00
1339.632, 12256.00
1340.694, 12064.00
1341.756, 12222.00
1342.818, 12203.00
1343.880, 12150.00
1344.941, 12223.00
1346.003, 12240.00
1347.064, 12148.00
1348.125, 12274.00
1349.186, 12300.00
1350.247, 12210.00
1351.308, 12221.00
1352.368, 12247.00
1353.428, 12352.00
1354.489, 12246.00
1355.549, 12354.00
1356.608, 12169.00
1357.668, 12357.00
1358.727, 12136.00
1359.787, 12377.00
1360.846, 12263.00
1361.905, 12371.00
1362.964, 12455.00
1364.022, 12311.00
1365.081, 12349.00
1366.139, 12264.00
1367.197, 12358.00
1368.255, 12409.00
1369.313, 12441.00
1370.371, 12484.00
1371.428, 12485.00
1372.486, 12482.19
1373.543, 12548.00
1374.600, 12481.00
1375.657, 12418.00
1376.713, 12499.00
1377.770, 12484.00
1378.826, 12493.00
1379.882, 12482.00
1380.938, 12402.00
1381.994, 12339.00
1383.050, 12427.00
1384.106, 12602.00
1385.161, 12433.00
1386.216, 12491.05
1387.271, 12816.00
1388.326, 12392.00
1389.381, 12608.00
1390.435, 12605.00
1391.490, 12594.00
1392.544, 12558.00
1393.598, 12429.00
1394.652, 12457.00
1395.705, 12456.00
1396.759, 12532.00
1397.812, 12622.00
1398.866, 12422.00
1399.919, 12484.00
1400.972, 12543.00
1402.024, 12473.00
1403.077, 12650.00
1404.129, 12555.00
1405.181, 12564.00
1406.233, 12679.00
1407.285, 12631.00
1408.337, 12597.00
1409.389, 12596.00
1410.440, 12564.00
1411.491, 12666.00
1412.542, 12608.00
1413.593, 12618.00
1414.644, 12753.00
1415.695, 12663.00
1416.745, 12665.00
1417.795, 12715.00
1418.845, 12690.00
1419.895, 12683.00
1420.945, 12671.00
1421.995, 12737.00
1423.044, 12794.00
1424.093, 12939.00
1425.142, 12783.00
1426.191, 12744.00
1427.240, 12743.00
1428.289, 12845.00
1429.337, 12876.00
1430.385, 12803.00
1431.433, 12894.00
1432.481, 12855.95
1433.529, 12804.00
1434.577, 12869.00
1435.624, 12790.00
1436.672, 12851.00
1437.719, 12871.00
1438.766, 12821.00
1439.812, 12790.00
1440.859, 12783.00
1441.905, 12895.00
1442.952, 12955.00
1443.998, 12888.00
1445.044, 12895.00
1446.090, 12903.00
1447.135, 12927.19
1448.181, 13000.00
1449.226, 13023.00
1450.271, 12945.00
1451.316, 12967.00
1452.361, 12874.00
1453.405, 12953.00
1454.450, 12887.00
1455.494, 13028.00
1456.538, 12988.00
1457.582, 12933.00
1458.626, 13108.00
1459.670, 13008.00
1460.713, 13090.00
1461.757, 13130.00
1462.800, 12969.00
1463.843, 12988.00
1464.886, 13084.00
1465.928, 13125.00
1466.971, 13220.00
1468.013, 13183.89
1469.055, 13087.00
1470.097, 13153.00
1471.139, 13005.00
1472.181, 13104.00
1473.222, 13080.00
1474.263, 13083.00
1475.305, 13144.00
1476.346, 13166.00
1477.386, 13162.00
1478.427, 13174.00
1479.468, 13177.00
1480.508, 13192.00
1481.548, 13189.14
1482.588, 13185.75
1483.628, 13176.00
1484.668, 13203.00
1485.707, 13180.00
1486.747, 13260.00
1487.786, 13211.00
1488.825, 13339.00
1489.864, 13328.00
1490.902, 13143.00
1491.941, 13228.00
1492.979, 13209.00
1494.017, 13186.00
1495.055, 13226.23
1496.093, 13222.45
1497.131, 13256.00
1498.168, 13256.00
1499.206, 13284.00
1500.243, 13284.44
1501.280, 13312.00
1502.317, 13324.00
1503.354, 13403.00
1504.390, 13375.00
1505.426, 13387.00
1506.463, 13446.00
1507.499, 13433.00
1508.535, 13422.00
1509.570, 13468.00
1510.606, 13289.00
1511.641, 13480.00
1512.676, 13303.00
1513.711, 13430.00
1514.746, 13415.00
1515.781, 13273.00
1516.816, 13479.00
1517.850, 13535.00
1518.884, 13566.00
1519.918, 13456.00
1520.952, 13497.00
1521.986, 13606.00
1523.019, 13468.00
1524.053, 13539.05
1525.086, 13620.00
1526.119, 13528.00
1527.152, 13556.00
1528.185, 13540.00
1529.217, 13606.00
1530.250, 13726.00
1531.282, 13725.00
1532.314, 13668.00
1533.346, 13579.00
1534.377, 13695.00
1535.409, 13518.00
1536.440, 13719.00
1537.472, 13694.00
1538.503, 13532.00
1539.534, 13742.00
1540.564, 13635.00
1541.595, 13636.00
1542.625, 13712.00
1543.656, 13707.00
1544.686, 13785.00
1545.716, 13751.00
1546.745, 13748.00
1547.775, 13781.29
1548.804, 13779.32
1549.834, 13817.00
1550.863, 13845.00
1551.892, 13872.00
1552.920, 13952.00
1553.949, 14023.00
1554.977, 14059.00
1556.006, 13899.00
1557.034, 14084.00
1558.062, 14042.00
1559.089, 13881.00
1560.117, 13933.00
1561.144, 13884.00
1562.172, 13801.00
1563.199, 14044.00
1564.226, 13951.00
1565.252, 13947.00
1566.279, 13963.00
1567.305, 13915.00
1568.332, 13889.00
1569.358, 14050.00
1570.384, 13895.00
1571.409, 13973.00
1572.435, 13965.00
##END=



