##NAMES=Axinite-(Fe)
##RRUFFID=R060194
##IDEAL CHEMISTRY=Ca_4_Fe^2+^_2_Al_4_[B_2_Si_8_O_30_](OH)_2_
##LOCALITY=near Dalbandi, Baluchistan Province, Pakistan
##OWNER=RRUFF
##SOURCE=Herbert Obodda
##DESCRIPTION=Brown transparent wedge-shaped single crystal
##STATUS=The identification of this mineral has been confirmed by X-ray diffraction and chemical analysis
##URL=rruff.info/R060194
##MEASURED CHEMISTRY=Ca_2.00_(Fe^2+^_0.66_Mg_0.30_Mn_0.04_)Al_2.00_BSi_4.00_O_15_(OH)
##PIN_ID=L00952
##ORIENTATION=Laser parallel to (1 1 0). Fiducial mark perpendicular to laser is parallel to -c [0 0 -1]
53.91000, 1005.000
55.14900, 981.0000
56.38700, 1007.000
57.62600, 1005.000
58.86400, 1027.000
60.10300, 1074.000
61.34100, 1131.000
62.57900, 1173.000
63.81700, 1240.000
65.05400, 1365.000
66.29200, 1524.000
67.52900, 1699.000
68.76700, 2130.000
70.00400, 3005.000
71.24100, 3413.000
72.47700, 3300.000
73.71400, 3173.000
74.95100, 3474.000
76.18700, 3929.000
77.42300, 4051.530
78.65900, 4396.654
79.89500, 4668.000
81.13100, 5036.000
82.36700, 5387.000
83.60200, 5972.000
84.83700, 6399.210
86.07200, 6855.278
87.30800, 7414.000
88.54200, 7767.000
89.77700, 8216.000
91.01200, 8656.000
92.24600, 9721.000
93.48000, 9870.179
94.71400, 10843.00
95.94800, 10361.00
97.18200, 10660.00
98.41600, 10494.00
99.64900, 10606.00
100.8830, 10912.00
102.1160, 10959.00
103.3490, 10800.00
104.5820, 10958.00
105.8150, 11636.00
107.0470, 12926.00
108.2800, 16228.00
109.5120, 14887.83
110.7440, 17422.00
111.9760, 13634.00
113.2080, 12398.00
114.4400, 12146.00
115.6710, 12128.00
116.9030, 12387.00
118.1340, 11817.00
119.3650, 11695.00
120.5960, 11224.00
121.8270, 10930.00
123.0580, 10824.00
124.2880, 11133.00
125.5190, 11128.00
126.7490, 10704.00
127.9790, 10525.00
129.2090, 10274.00
130.4390, 10306.00
131.6680, 10260.00
132.8980, 10369.00
134.1270, 10312.00
135.3560, 10154.00
136.5850, 10324.00
137.8140, 10491.00
139.0430, 10907.00
140.2710, 11479.00
141.5000, 11819.00
142.7280, 12263.00
143.9560, 12528.00
145.1840, 13084.00
146.4120, 13648.00
147.6390, 14553.00
148.8670, 15686.00
150.0940, 16960.00
151.3210, 18163.00
152.5490, 18569.00
153.7750, 18305.00
155.0020, 17370.00
156.2290, 16507.00
157.4550, 15458.00
158.6810, 14274.00
159.9080, 13631.00
161.1340, 13087.00
162.3590, 12901.00
163.5850, 13112.00
164.8110, 13426.00
166.0360, 14019.00
167.2610, 14589.00
168.4860, 15230.00
169.7110, 16263.00
170.9360, 17459.00
172.1610, 18172.00
173.3850, 18385.00
174.6100, 17717.00
175.8340, 17002.00
177.0580, 15906.00
178.2820, 14801.00
179.5050, 13764.00
180.7290, 12839.00
181.9520, 12108.59
183.1760, 11501.28
184.3990, 10999.00
185.6220, 10721.00
186.8450, 10507.00
188.0670, 10427.00
189.2900, 10290.00
190.5120, 10398.00
191.7340, 10706.00
192.9560, 11129.00
194.1780, 11283.00
195.4000, 11516.00
196.6220, 11415.00
197.8430, 11394.00
199.0640, 11339.00
200.2860, 11308.00
201.5070, 11821.00
202.7270, 12328.00
203.9480, 12662.00
205.1690, 13356.00
206.3890, 13731.00
207.6090, 14246.00
208.8290, 14854.00
210.0490, 15221.00
211.2690, 15633.79
212.4890, 16155.00
213.7080, 16190.00
214.9280, 16517.00
216.1470, 16573.00
217.3660, 16607.00
218.5850, 16563.00
219.8030, 16335.00
221.0220, 16022.00
222.2400, 15151.00
223.4590, 14349.00
224.6770, 13364.00
225.8950, 12676.00
227.1120, 11897.00
228.3300, 11380.00
229.5480, 10995.00
230.7650, 10694.00
231.9820, 10389.00
233.1990, 10337.00
234.4160, 10257.00
235.6330, 10189.00
236.8490, 10202.00
238.0660, 10235.84
239.2820, 10231.00
240.4980, 10438.00
241.7140, 10562.00
242.9300, 10754.00
244.1460, 10852.00
245.3610, 10977.00
246.5770, 11272.50
247.7920, 11468.00
249.0070, 11998.00
250.2220, 12296.00
251.4370, 12931.00
252.6510, 13593.00
253.8660, 14035.00
255.0800, 14355.00
256.2940, 14565.00
257.5080, 14589.00
258.7220, 15451.00
259.9360, 15200.73
261.1490, 16338.00
262.3630, 15108.00
263.5760, 14858.00
264.7890, 14753.00
266.0020, 15109.00
267.2150, 15223.00
268.4270, 15326.00
269.6400, 15435.00
270.8520, 15518.00
272.0640, 15294.00
273.2760, 15244.00
274.4880, 14940.00
275.7000, 14601.00
276.9120, 14265.00
278.1230, 13978.00
279.3340, 13811.00
280.5450, 13263.00
281.7560, 13132.00
282.9670, 12945.00
284.1780, 12958.00
285.3880, 12796.00
286.5980, 12800.00
287.8090, 12774.00
289.0190, 12567.00
290.2290, 12366.00
291.4380, 12325.00
292.6480, 12253.00
293.8570, 12313.00
295.0670, 12429.00
296.2760, 12603.00
297.4850, 12831.48
298.6930, 13172.00
299.9020, 13431.00
301.1110, 13795.00
302.3190, 14174.00
303.5270, 14423.00
304.7350, 14937.00
305.9430, 15317.00
307.1510, 15608.00
308.3580, 15631.00
309.5660, 15715.00
310.7730, 15605.00
311.9800, 15391.00
313.1870, 15550.00
314.3940, 15574.00
315.6010, 15797.00
316.8070, 16435.00
318.0130, 16951.00
319.2200, 17404.00
320.4260, 17486.00
321.6310, 17146.00
322.8370, 16780.00
324.0430, 16055.00
325.2480, 15328.00
326.4540, 14687.00
327.6590, 14404.00
328.8640, 14113.00
330.0680, 14071.00
331.2730, 14254.00
332.4780, 14315.00
333.6820, 14816.00
334.8860, 15204.00
336.0900, 15799.00
337.2940, 16719.00
338.4980, 17578.00
339.7010, 18676.00
340.9050, 19933.00
342.1080, 21356.00
343.3110, 22631.00
344.5140, 23061.00
345.7170, 22877.00
346.9200, 22228.00
348.1220, 21180.00
349.3240, 19638.00
350.5270, 18265.00
351.7290, 17052.00
352.9310, 15657.00
354.1320, 14678.00
355.3340, 13683.00
356.5350, 12871.00
357.7370, 12264.00
358.9380, 11613.00
360.1390, 11278.00
361.3400, 10974.00
362.5400, 10910.00
363.7410, 10730.00
364.9410, 10621.00
366.1410, 10422.00
367.3410, 10683.00
368.5410, 11128.00
369.7410, 10970.06
370.9400, 11156.00
372.1400, 11101.00
373.3390, 11040.00
374.5380, 11335.00
375.7370, 11212.00
376.9360, 11501.00
378.1350, 11587.00
379.3330, 11867.00
380.5310, 12155.00
381.7300, 12750.00
382.9280, 13296.00
384.1260, 14116.00
385.3230, 15634.00
386.5210, 15937.00
387.7180, 16969.00
388.9160, 18132.00
390.1130, 18203.00
391.3100, 18630.00
392.5060, 18491.00
393.7030, 17825.00
394.9000, 17053.00
396.0960, 16203.00
397.2920, 15529.00
398.4880, 14782.00
399.6840, 14169.00
400.8800, 13619.00
402.0750, 13136.00
403.2710, 12761.00
404.4660, 12454.78
405.6610, 12252.00
406.8560, 12141.00
408.0510, 12121.00
409.2450, 12258.00
410.4400, 12415.00
411.6340, 12588.00
412.8280, 13152.00
414.0220, 13536.00
415.2160, 14545.00
416.4100, 15519.00
417.6030, 16570.00
418.7970, 17314.00
419.9900, 18034.00
421.1830, 18608.00
422.3760, 19153.00
423.5690, 19995.00
424.7610, 20610.00
425.9540, 20867.00
427.1460, 20960.00
428.3380, 20914.00
429.5300, 20370.00
430.7220, 19717.00
431.9140, 18374.00
433.1050, 17100.00
434.2970, 15920.00
435.4880, 14834.00
436.6790, 13993.00
437.8700, 13180.00
439.0610, 12636.00
440.2510, 12215.00
441.4420, 12146.00
442.6320, 12006.00
443.8220, 12034.00
445.0120, 11946.00
446.2020, 11860.54
447.3910, 11750.39
448.5810, 11644.00
449.7700, 11515.00
450.9600, 11457.23
452.1490, 11330.00
453.3370, 11347.00
454.5260, 11355.00
455.7150, 11321.00
456.9030, 11269.00
458.0910, 11226.00
459.2800, 11294.21
460.4670, 11311.75
461.6550, 11497.00
462.8430, 11545.00
464.0300, 11732.00
465.2180, 12061.00
466.4050, 12279.00
467.5920, 12510.00
468.7790, 12691.00
469.9650, 13193.00
471.1520, 13230.00
472.3380, 13757.00
473.5250, 14140.00
474.7110, 14399.00
475.8970, 15067.00
477.0820, 16183.00
478.2680, 17239.00
479.4540, 18619.00
480.6390, 20246.00
481.8240, 21935.00
483.0090, 23876.00
484.1940, 25478.00
485.3780, 26323.00
486.5630, 26048.00
487.7470, 24609.00
488.9320, 22203.00
490.1160, 19853.00
491.3000, 17791.00
492.4830, 16364.00
493.6670, 15117.00
494.8500, 13647.00
496.0340, 13100.00
497.2170, 12781.00
498.4000, 12749.00
499.5820, 12584.00
500.7650, 12623.00
501.9480, 12586.00
503.1300, 12377.00
504.3120, 12408.00
505.4940, 12392.00
506.6760, 12348.00
507.8580, 12189.00
509.0390, 11959.00
510.2210, 11659.00
511.4020, 11449.00
512.5830, 11151.00
513.7640, 11031.00
514.9450, 10686.00
516.1250, 10466.00
517.3060, 10380.00
518.4860, 10294.00
519.6660, 10082.00
520.8460, 10203.00
522.0260, 9982.000
523.2060, 9991.000
524.3850, 10136.00
525.5650, 9979.000
526.7440, 9989.000
527.9230, 10069.00
529.1020, 10088.00
530.2810, 10226.00
531.4590, 10296.00
532.6380, 10387.00
533.8160, 10374.00
534.9940, 10336.00
536.1720, 10418.00
537.3500, 10417.00
538.5270, 10592.00
539.7050, 10507.00
540.8820, 10648.00
542.0590, 10604.00
543.2360, 10777.00
544.4130, 10672.00
545.5900, 10641.00
546.7660, 10817.00
547.9430, 10826.00
549.1190, 10802.00
550.2950, 10688.00
551.4710, 10864.00
552.6470, 10892.00
553.8220, 10978.00
554.9980, 11269.00
556.1730, 11228.00
557.3480, 11508.00
558.5230, 11780.00
559.6980, 12133.00
560.8730, 12280.04
562.0470, 12411.00
563.2220, 12526.00
564.3960, 12570.00
565.5700, 12531.00
566.7440, 12609.00
567.9170, 12376.00
569.0910, 12339.00
570.2640, 12519.00
571.4380, 12511.00
572.6110, 12710.00
573.7840, 12872.00
574.9570, 12985.00
576.1290, 12981.25
577.3020, 12774.00
578.4740, 12829.00
579.6460, 12617.00
580.8180, 12438.00
581.9900, 12269.00
583.1620, 12319.00
584.3330, 12231.00
585.5040, 12400.00
586.6760, 12310.00
587.8470, 12383.00
589.0180, 12390.00
590.1880, 12247.00
591.3590, 12139.00
592.5290, 12025.00
593.7000, 11992.00
594.8700, 11688.00
596.0400, 11574.00
597.2090, 11435.00
598.3790, 11594.00
599.5490, 11422.00
600.7180, 11650.00
601.8870, 11745.00
603.0560, 11975.00
604.2250, 12271.00
605.3940, 12517.00
606.5620, 12934.00
607.7300, 13617.00
608.8990, 14284.00
610.0670, 14885.00
611.2350, 15965.00
612.4020, 16877.00
613.5700, 17785.00
614.7370, 18976.00
615.9050, 19878.00
617.0720, 20985.00
618.2390, 21586.00
619.4060, 22096.00
620.5720, 21739.00
621.7390, 21303.00
622.9050, 20368.00
624.0710, 18882.00
625.2370, 17489.00
626.4030, 16240.00
627.5690, 14968.00
628.7340, 14085.00
629.9000, 13288.00
631.0650, 12575.00
632.2300, 12200.00
633.3950, 11877.14
634.5600, 11961.00
635.7240, 11788.00
636.8890, 11701.00
638.0530, 11984.00
639.2170, 11876.00
640.3810, 12057.00
641.5450, 12276.00
642.7080, 12313.00
643.8720, 12359.00
645.0350, 12454.00
646.1980, 12493.00
647.3610, 12433.00
648.5240, 12216.00
649.6870, 12060.00
650.8490, 11973.00
652.0120, 11943.00
653.1740, 11829.00
654.3360, 11814.00
655.4980, 11725.52
656.6600, 11578.00
657.8210, 11631.00
658.9830, 11514.00
660.1440, 11589.00
661.3050, 11621.00
662.4660, 11805.00
663.6270, 11924.00
664.7870, 12275.00
665.9480, 12609.00
667.1080, 13081.00
668.2680, 13618.02
669.4280, 14232.00
670.5880, 14962.00
671.7480, 15742.00
672.9070, 16702.00
674.0670, 17457.00
675.2260, 18124.00
676.3850, 18786.00
677.5440, 18911.00
678.7030, 18717.00
679.8610, 17930.00
681.0200, 17035.00
682.1780, 16510.00
683.3360, 15544.00
684.4940, 14820.00
685.6520, 14169.00
686.8090, 13718.00
687.9670, 13689.00
689.1240, 13348.00
690.2810, 13440.00
691.4380, 13423.42
692.5950, 13464.10
693.7520, 13647.00
694.9080, 13812.00
696.0650, 14064.00
697.2210, 14400.00
698.3770, 15341.00
699.5330, 15921.00
700.6880, 17040.00
701.8440, 18164.00
702.9990, 19549.00
704.1550, 21487.00
705.3100, 23851.00
706.4650, 26529.00
707.6190, 29399.00
708.7740, 32707.00
709.9290, 36002.00
711.0830, 39121.00
712.2370, 42094.00
713.3910, 43569.00
714.5450, 43873.00
715.6980, 42318.00
716.8520, 39733.00
718.0050, 36179.00
719.1580, 32148.00
720.3110, 28663.00
721.4640, 25441.00
722.6170, 22643.00
723.7700, 20366.00
724.9220, 18737.00
726.0740, 17191.00
727.2260, 16245.00
728.3780, 15305.00
729.5300, 14649.00
730.6810, 14063.00
731.8330, 13663.00
732.9840, 13304.00
734.1350, 13024.00
735.2860, 12652.00
736.4370, 12622.00
737.5880, 12316.00
738.7380, 12306.00
739.8880, 12198.00
741.0390, 12181.00
742.1890, 12022.00
743.3380, 12092.00
744.4880, 11966.00
745.6380, 11973.00
746.7870, 11819.00
747.9360, 11867.00
749.0850, 11864.00
750.2340, 11951.00
751.3830, 12063.00
752.5310, 12140.68
753.6800, 12196.00
754.8280, 12404.00
755.9760, 12558.00
757.1240, 12761.00
758.2720, 12988.00
759.4190, 13173.00
760.5670, 13477.00
761.7140, 13706.00
762.8610, 13956.00
764.0080, 14118.00
765.1550, 14170.00
766.3020, 14496.00
767.4480, 14500.00
768.5950, 14347.00
769.7410, 14322.00
770.8870, 13979.00
772.0330, 13744.00
773.1780, 13495.00
774.3240, 13077.00
775.4690, 12907.00
776.6140, 12660.00
777.7590, 12388.00
778.9040, 12188.00
780.0490, 11863.00
781.1940, 11854.00
782.3380, 11725.00
783.4820, 11543.00
784.6260, 11619.00
785.7700, 11538.00
786.9140, 11428.00
788.0580, 11521.00
789.2010, 11360.00
790.3450, 11380.00
791.4880, 11432.00
792.6310, 11418.00
793.7730, 11438.00
794.9160, 11405.00
796.0590, 11281.00
797.2010, 11503.00
798.3430, 11393.00
799.4850, 11330.00
800.6270, 11402.00
801.7690, 11558.00
802.9100, 11526.00
804.0520, 11644.44
805.1930, 11710.00
806.3340, 11771.00
807.4750, 11850.00
808.6160, 11876.00
809.7560, 12307.00
810.8970, 12476.00
812.0370, 12612.00
813.1770, 12770.00
814.3170, 12789.28
815.4570, 12849.16
816.5960, 12788.00
817.7360, 12795.00
818.8750, 12785.00
820.0140, 12626.00
821.1530, 12676.00
822.2920, 12426.00
823.4310, 12559.00
824.5690, 12426.00
825.7070, 12371.00
826.8460, 12336.00
827.9840, 12299.00
829.1220, 12321.20
830.2590, 12328.00
831.3970, 12404.00
832.5340, 12449.00
833.6710, 12517.00
834.8080, 12541.00
835.9450, 12679.00
837.0820, 12580.00
838.2190, 12727.00
839.3550, 12840.00
840.4910, 12823.00
841.6270, 13094.00
842.7630, 13234.00
843.8990, 13322.00
845.0350, 13331.00
846.1700, 13591.00
847.3060, 13806.00
848.4410, 13953.00
849.5760, 14189.00
850.7100, 14205.00
851.8450, 14384.42
852.9800, 14451.00
854.1140, 14602.00
855.2480, 14740.00
856.3820, 14800.00
857.5160, 14729.00
858.6500, 14930.00
859.7830, 15039.00
860.9170, 14795.00
862.0500, 14957.00
863.1830, 14924.00
864.3160, 14994.00
865.4480, 14929.00
866.5810, 14931.00
867.7130, 14990.00
868.8460, 14854.39
869.9780, 14751.00
871.1100, 14688.00
872.2410, 14509.00
873.3730, 14533.00
874.5050, 14754.00
875.6360, 14588.00
876.7670, 14431.00
877.8980, 14755.00
879.0290, 14640.00
880.1590, 14410.00
881.2900, 14701.00
882.4200, 14718.00
883.5500, 14738.00
884.6800, 14823.00
885.8100, 14952.22
886.9400, 15136.00
888.0690, 15318.00
889.1990, 15531.00
890.3280, 15781.00
891.4570, 16115.00
892.5860, 16630.00
893.7140, 17128.00
894.8430, 17767.00
895.9710, 18339.43
897.1000, 18948.00
898.2280, 19653.00
899.3560, 20240.00
900.4830, 21015.00
901.6110, 21813.00
902.7380, 22375.00
903.8660, 23119.00
904.9930, 23556.00
906.1200, 24073.00
907.2460, 23879.00
908.3730, 23980.00
909.5000, 23221.00
910.6260, 22641.00
911.7520, 21845.00
912.8780, 21155.00
914.0040, 20255.00
915.1290, 19411.00
916.2550, 18630.00
917.3800, 17857.00
918.5050, 17478.00
919.6300, 16978.00
920.7550, 16494.00
921.8800, 16469.00
923.0040, 16210.00
924.1290, 16072.00
925.2530, 16205.00
926.3770, 16211.00
927.5010, 16277.00
928.6250, 16440.61
929.7480, 16648.00
930.8720, 16761.00
931.9950, 16897.00
933.1180, 17041.00
934.2410, 17246.00
935.3640, 17412.00
936.4860, 17523.00
937.6090, 17779.00
938.7310, 18138.00
939.8530, 18369.00
940.9750, 18967.00
942.0970, 19422.00
943.2180, 20266.00
944.3400, 20945.00
945.4610, 21825.00
946.5820, 22986.00
947.7030, 24241.00
948.8240, 25807.00
949.9450, 26986.00
951.0650, 28970.00
952.1860, 30063.00
953.3060, 31971.00
954.4260, 33269.00
955.5460, 35225.00
956.6650, 36934.00
957.7850, 39005.00
958.9040, 41462.00
960.0230, 43689.00
961.1420, 46279.00
962.2610, 48808.00
963.3800, 50670.00
964.4990, 51927.00
965.6170, 51906.00
966.7350, 50826.00
967.8530, 48306.00
968.9710, 45078.00
970.0890, 42533.00
971.2070, 39511.00
972.3240, 37399.00
973.4410, 35959.00
974.5580, 34908.00
975.6750, 34389.00
976.7920, 34325.00
977.9090, 34376.00
979.0250, 34704.00
980.1410, 34418.00
981.2580, 34230.00
982.3740, 33568.00
983.4890, 32708.00
984.6050, 31782.00
985.7200, 30673.00
986.8360, 30146.00
987.9510, 29533.00
989.0660, 29077.00
990.1810, 28938.00
991.2950, 28598.00
992.4100, 28432.00
993.5240, 28119.00
994.6390, 27845.00
995.7530, 27877.00
996.8660, 27596.00
997.9800, 27833.00
999.0940, 27941.00
1000.207, 28238.00
1001.320, 28344.00
1002.433, 28606.00
1003.546, 28276.00
1004.659, 28090.00
1005.772, 27394.00
1006.884, 26558.00
1007.996, 25289.00
1009.108, 24459.00
1010.220, 23339.00
1011.332, 22418.00
1012.444, 21304.00
1013.555, 20491.00
1014.666, 19926.00
1015.777, 19102.00
1016.888, 18582.00
1017.999, 18042.00
1019.110, 17770.00
1020.220, 17640.00
1021.331, 17270.00
1022.441, 17141.00
1023.551, 17215.00
1024.661, 17073.00
1025.770, 16897.00
1026.880, 16850.00
1027.989, 16992.00
1029.098, 16779.00
1030.207, 16891.00
1031.316, 16557.00
1032.425, 16347.00
1033.533, 16314.00
1034.642, 16339.00
1035.750, 15872.00
1036.858, 16070.00
1037.966, 15857.00
1039.073, 15948.00
1040.181, 15901.00
1041.288, 15837.00
1042.396, 15842.00
1043.503, 16114.00
1044.610, 16166.00
1045.716, 16208.00
1046.823, 16316.00
1047.929, 16455.00
1049.036, 16766.00
1050.142, 16916.00
1051.248, 17327.00
1052.353, 17515.00
1053.459, 17839.00
1054.564, 18009.00
1055.670, 18392.00
1056.775, 18484.00
1057.880, 18678.00
1058.985, 18654.00
1060.089, 18617.00
1061.194, 18694.00
1062.298, 18766.00
1063.402, 18373.00
1064.506, 18241.00
1065.610, 17942.00
1066.713, 17453.00
1067.817, 17117.00
1068.920, 16897.00
1070.023, 16730.00
1071.126, 16537.00
1072.229, 16677.00
1073.332, 16681.00
1074.435, 16788.00
1075.537, 16832.00
1076.639, 16946.00
1077.741, 17379.00
1078.843, 17756.00
1079.945, 18014.00
1081.046, 18258.00
1082.148, 18664.00
1083.249, 18748.00
1084.350, 18737.46
1085.451, 18758.00
1086.551, 18390.00
1087.652, 17869.00
1088.752, 17468.00
1089.853, 16913.00
1090.953, 16766.00
1092.053, 16258.00
1093.152, 16057.00
1094.252, 15802.00
1095.351, 15799.00
1096.451, 15595.00
1097.550, 15571.00
1098.649, 15765.00
1099.748, 15988.00
1100.846, 15801.00
1101.945, 16092.00
1103.043, 16137.00
1104.141, 16328.00
1105.239, 16523.00
1106.337, 16586.00
1107.434, 16568.00
1108.532, 16557.00
1109.629, 16589.00
1110.726, 16284.00
1111.823, 16313.00
1112.920, 16025.00
1114.017, 15917.00
1115.113, 15787.00
1116.210, 15640.00
1117.306, 15661.00
1118.402, 15553.00
1119.498, 15809.00
1120.593, 15743.00
1121.689, 15868.00
1122.784, 15621.00
1123.879, 15808.00
1124.974, 15470.00
1126.069, 15463.00
1127.164, 15113.00
1128.259, 14956.00
1129.353, 14800.00
1130.447, 14644.00
1131.541, 14417.00
1132.635, 14269.00
1133.729, 14196.00
1134.822, 14286.00
1135.916, 14175.00
1137.009, 14080.00
1138.102, 14210.00
1139.195, 13955.00
1140.288, 13999.00
1141.380, 13961.00
1142.473, 14112.00
1143.565, 13885.00
1144.657, 13921.00
1145.749, 13880.00
1146.841, 13926.00
1147.932, 13800.00
1149.024, 13832.00
1150.115, 13832.00
1151.206, 13853.00
1152.297, 13893.00
1153.388, 13849.81
1154.479, 13763.00
1155.569, 13792.00
1156.659, 13779.00
1157.750, 13788.00
1158.839, 13717.00
1159.929, 13748.00
1161.019, 13818.00
1162.108, 13969.00
1163.198, 13679.00
1164.287, 13564.00
1165.376, 13865.00
1166.465, 13855.00
1167.553, 13960.00
1168.642, 13745.00
1169.730, 13696.00
1170.818, 13916.00
1171.906, 13916.00
1172.994, 13792.00
1174.082, 13898.00
1175.170, 13754.00
1176.257, 13754.00
1177.344, 13777.00
1178.431, 13783.00
1179.518, 13708.00
1180.605, 13734.00
1181.691, 13758.00
1182.778, 13921.00
1183.864, 13682.00
1184.950, 13725.00
1186.036, 13900.00
1187.122, 13791.00
1188.207, 13916.00
1189.292, 13714.00
1190.378, 13988.00
1191.463, 13666.00
1192.548, 13633.00
1193.632, 13808.00
1194.717, 13759.00
1195.801, 13629.00
1196.886, 13615.79
1197.970, 13818.57
1199.054, 13935.58
1200.137, 13971.40
1201.221, 13682.92
1202.305, 13813.22
1203.388, 13775.68
1204.471, 13731.26
1205.554, 13920.49
1206.637, 13679.18
1207.719, 13864.69
1208.802, 13879.83
1209.884, 13972.94
1210.966, 13897.19
1212.048, 13873.60
1213.130, 14018.92
1214.212, 14070.72
1215.293, 13975.52
1216.374, 14073.59
1217.456, 13826.37
1218.536, 13882.13
1219.617, 14068.63
1220.698, 13981.93
1221.778, 14083.07
1222.859, 14112.68
1223.939, 13817.14
1225.019, 14087.05
1226.099, 14112.42
1227.178, 13886.70
1228.258, 14137.23
1229.337, 13946.12
1230.417, 13912.66
1231.496, 13997.82
1232.574, 13959.31
1233.653, 14115.78
1234.732, 14084.41
1235.810, 14036.26
1236.888, 14061.34
1237.966, 13878.88
1239.044, 14081.46
1240.122, 14021.02
1241.199, 14091.32
1242.277, 14191.25
1243.354, 14064.28
1244.431, 14177.52
1245.508, 13918.25
1246.585, 13970.68
1247.661, 13989.53
1248.738, 14207.62
1249.814, 13950.16
1250.890, 13993.92
1251.966, 14165.93
1253.042, 14158.48
1254.117, 14226.06
1255.193, 14071.52
1256.268, 14125.65
1257.343, 14122.25
1258.418, 14317.61
1259.493, 14356.07
1260.567, 14205.29
1261.642, 14055.31
1262.716, 14264.97
1263.790, 14133.76
1264.864, 14186.44
1265.938, 14049.20
1267.011, 14075.94
1268.085, 14100.09
1269.158, 14208.29
1270.231, 14061.59
1271.304, 14245.54
1272.377, 14238.38
1273.450, 14287.51
1274.522, 14330.38
1275.594, 14116.80
1276.666, 14113.45
1277.738, 14410.90
1278.810, 14249.61
1279.882, 14180.90
1280.953, 14178.02
1282.025, 14485.77
1283.096, 14504.79
1284.167, 14178.67
1285.238, 14472.74
1286.308, 14385.25
1287.379, 14411.15
1288.449, 14395.68
1289.519, 14392.45
1290.589, 14233.46
1291.659, 14279.74
1292.729, 14492.91
1293.798, 14421.54
1294.868, 14543.52
1295.937, 14313.14
1297.006, 14291.90
1298.075, 14326.19
1299.143, 14380.71
1300.212, 14273.47
1301.280, 14489.75
1302.348, 14490.61
1303.416, 14304.80
1304.484, 14321.49
1305.552, 14304.56
1306.620, 14637.66
1307.687, 14489.50
1308.754, 14307.26
1309.821, 14506.54
1310.888, 14583.54
1311.955, 14495.21
1313.021, 14494.73
1314.088, 14327.58
1315.154, 14416.02
1316.220, 14416.56
1317.286, 14561.92
1318.352, 14395.44
1319.417, 14587.96
1320.483, 14429.84
1321.548, 14636.89
1322.613, 14471.36
1323.678, 14637.72
1324.743, 14407.92
1325.807, 14464.85
1326.872, 14544.52
1327.936, 14697.59
1329.000, 14568.43
1330.064, 14738.91
1331.128, 14646.44
1332.191, 14725.11
1333.255, 14708.88
1334.318, 14573.86
1335.381, 14773.88
1336.444, 14668.32
1337.507, 14769.10
1338.569, 14535.67
1339.632, 14708.52
1340.694, 14793.90
1341.756, 14861.25
1342.818, 14852.83
1343.880, 14810.63
1344.941, 14821.42
1346.003, 14743.78
1347.064, 14536.97
1348.125, 14598.14
1349.186, 14740.38
1350.247, 14842.43
1351.308, 14545.00
1352.368, 14788.00
1353.428, 14672.00
1354.489, 14586.00
1355.549, 14785.00
1356.608, 14759.00
1357.668, 14654.00
1358.727, 14790.00
1359.787, 14751.00
1360.846, 14713.66
1361.905, 14670.00
1362.964, 14633.00
1364.022, 14695.00
1365.081, 14678.00
1366.139, 14789.00
1367.197, 14801.00
1368.255, 14663.00
1369.313, 14608.00
1370.371, 14834.00
1371.428, 14751.00
1372.486, 14777.00
1373.543, 14695.00
1374.600, 14784.00
1375.657, 14807.00
1376.713, 14802.00
1377.770, 14751.00
1378.826, 14955.00
1379.882, 15083.00
1380.938, 14942.00
1381.994, 14839.00
1383.050, 15038.00
1384.106, 14895.00
1385.161, 14823.00
1386.216, 14917.00
1387.271, 14854.00
1388.326, 14878.00
1389.381, 14787.00
1390.435, 14804.00
1391.490, 14745.33
1392.544, 14661.00
1393.598, 14697.00
1394.652, 14726.00
1395.705, 14832.00
1396.759, 14710.00
1397.812, 14809.00
1398.866, 14697.00
1399.919, 14751.00
1400.972, 14770.00
1402.024, 14682.00
1403.077, 14678.00
1404.129, 14746.00
1405.181, 14681.00
1406.233, 14553.88
1407.285, 14755.83
1408.337, 14872.00
1409.389, 14906.99
1410.440, 14617.67
1411.491, 14747.12
1412.542, 14708.74
1413.593, 14663.49
1414.644, 14851.88
1415.695, 14609.73
1416.745, 14794.41
1417.795, 14808.71
1418.845, 14900.98
1419.895, 14824.40
1420.945, 14799.97
1421.995, 14944.46
1423.044, 14995.41
1424.093, 14899.38
1425.142, 14996.60
1426.191, 14748.55
1427.240, 14803.48
1428.289, 14989.14
1429.337, 14901.60
1430.385, 15001.91
1431.433, 15030.67
1432.481, 14734.29
1433.529, 15003.37
1434.577, 15027.91
1435.624, 14801.35
1436.672, 15051.05
1437.719, 14859.11
1438.766, 14824.80
1439.812, 14909.12
1440.859, 14869.78
1441.905, 15025.41
1442.952, 14993.21
1443.998, 14944.22
1445.044, 14968.47
1446.090, 14785.18
1447.135, 14986.92
1448.181, 14925.65
1449.226, 14995.11
1450.271, 15094.20
1451.316, 14966.40
1452.361, 15078.81
1453.405, 14818.70
1454.450, 14870.29
1455.494, 14888.31
1456.538, 15105.56
1457.582, 14847.27
1458.626, 14890.19
1459.670, 15061.37
1460.713, 15053.09
1461.757, 15119.84
1462.800, 14964.46
1463.843, 15017.76
1464.886, 15013.53
1465.928, 15208.06
1466.971, 15245.68
1468.013, 15094.06
1469.055, 14943.25
1470.097, 15152.08
1471.139, 15020.04
1472.181, 15071.89
1473.222, 14933.81
1474.263, 14959.72
1475.305, 14983.03
1476.346, 15090.40
1477.386, 14942.87
1478.427, 15125.98
1479.468, 15118.00
1480.508, 15166.30
1481.548, 15208.33
1482.588, 14993.92
1483.628, 14989.74
1484.668, 15286.36
1485.707, 15124.23
1486.747, 15054.70
1487.786, 15050.98
1488.825, 15357.90
1489.864, 15376.09
1490.902, 15049.14
1491.941, 15342.37
1492.979, 15254.05
1494.017, 15279.12
1495.055, 15262.82
1496.093, 15258.76
1497.131, 15098.95
1498.168, 15144.39
1499.206, 15356.73
1500.243, 15284.53
1501.280, 15405.67
1502.317, 15174.46
1503.354, 15152.40
1504.390, 15185.85
1505.426, 15239.55
1506.463, 15131.48
1507.499, 15346.93
1508.535, 15346.97
1509.570, 15160.32
1510.606, 15176.18
1511.641, 15158.42
1512.676, 15490.69
1513.711, 15341.70
1514.746, 15158.63
1515.781, 15357.08
1516.816, 15433.25
1517.850, 15344.09
1518.884, 15342.78
1519.918, 15174.81
1520.952, 15262.42
1521.986, 15262.13
1523.019, 15406.66
1524.053, 15239.36
1525.086, 15431.04
1526.119, 15272.10
1527.152, 15478.32
1528.185, 15311.96
1529.217, 15477.49
1530.250, 15246.86
1531.282, 15302.97
1532.314, 15381.81
1533.346, 15534.05
1534.377, 15404.06
1535.409, 15573.72
1536.440, 15480.41
1537.472, 15558.27
1538.503, 15495.00
1539.534, 15540.00
1540.564, 15618.00
1541.595, 15496.00
1542.625, 15553.00
1543.656, 15559.18
1544.686, 15421.00
1545.716, 15576.00
1546.745, 15618.00
1547.775, 15570.00
1548.804, 15537.00
1549.834, 15628.11
1550.863, 15513.00
1551.892, 15747.00
1552.920, 15830.00
1553.949, 15783.00
1554.977, 15818.00
1556.006, 15908.00
1557.034, 15757.00
1558.062, 15672.00
1559.089, 15445.00
1560.117, 15705.00
1561.144, 15623.00
1562.172, 15589.00
1563.199, 15526.00
1564.226, 15683.00
1565.252, 15604.00
1566.279, 15697.00
1567.305, 15724.00
1568.332, 15657.00
1569.358, 15734.00
1570.384, 15769.00
1571.409, 15812.00
1572.435, 15676.00
##END=



