##NAMES=Axinite-(Fe)
##RRUFFID=R060558
##IDEAL CHEMISTRY=Ca_4_Fe^2+^_2_Al_4_[B_2_Si_8_O_30_](OH)_2_
##LOCALITY=unknown
##OWNER=RRUFF
##SOURCE=Gemological Institute of America
##DESCRIPTION=Brown flattened crystal
##STATUS=The identification of this mineral has been confirmed by X-ray diffraction and chemical analysis
##URL=rruff.info/R060558
##MEASURED CHEMISTRY=Ca_2.00_(Fe^2+^_0.60_Mg_0.35_Mn_0.05_)_Î£=1_Al_2.00_BSi_4.00_O_15_(OH) ; B not measured
##PIN_ID=M01972
##ORIENTATION=Laser parallel to (1 0 1). Fiducial mark perpendicular to laser is parallel to -b [0 -1 0]
97.76500, 6330.000
99.01100, 6596.000
100.2570, 6861.000
101.5030, 7268.000
102.7490, 7763.000
103.9940, 8332.000
105.2390, 9083.000
106.4840, 9436.000
107.7290, 9849.000
108.9740, 9851.000
110.2180, 9280.000
111.4620, 8949.000
112.7060, 8756.000
113.9500, 8758.000
115.1940, 8713.000
116.4370, 8485.000
117.6800, 8370.000
118.9230, 8309.000
120.1660, 8200.000
121.4090, 8101.000
122.6510, 8061.000
123.8940, 7891.000
125.1360, 7632.000
126.3770, 7555.000
127.6190, 7479.000
128.8600, 7423.000
130.1020, 7315.000
131.3430, 7222.000
132.5840, 7230.000
133.8240, 7299.000
135.0650, 7461.000
136.3050, 7683.000
137.5450, 7883.000
138.7850, 8241.000
140.0250, 8638.000
141.2640, 9118.000
142.5030, 9502.000
143.7430, 9838.000
144.9810, 10398.00
146.2200, 10884.00
147.4590, 11447.00
148.6970, 12214.00
149.9350, 12561.00
151.1730, 12825.00
152.4110, 13151.00
153.6480, 12742.00
154.8860, 12668.00
156.1230, 12083.00
157.3600, 11977.00
158.5960, 11666.00
159.8330, 11737.00
161.0690, 11760.00
162.3050, 11947.00
163.5410, 12391.00
164.7770, 12873.00
166.0130, 13481.00
167.2480, 14334.00
168.4830, 14919.00
169.7180, 14991.00
170.9530, 15332.00
172.1880, 14999.00
173.4220, 14171.00
174.6560, 13228.00
175.8900, 12500.00
177.1240, 11284.00
178.3580, 10357.00
179.5910, 9717.000
180.8250, 9153.000
182.0580, 8783.000
183.2900, 8608.000
184.5230, 8582.000
185.7560, 8597.000
186.9880, 8684.845
188.2200, 8792.000
189.4520, 9117.000
190.6830, 9440.000
191.9150, 9879.000
193.1460, 10074.00
194.3770, 10151.00
195.6080, 10077.00
196.8390, 10054.00
198.0700, 9983.000
199.3000, 10129.00
200.5300, 10200.00
201.7600, 10335.00
202.9900, 10733.00
204.2190, 11115.00
205.4490, 11396.00
206.6780, 11819.00
207.9070, 12195.00
209.1360, 12312.00
210.3640, 12600.00
211.5930, 12741.00
212.8210, 12682.00
214.0490, 12574.00
215.2770, 12299.00
216.5040, 12172.00
217.7320, 11722.00
218.9590, 11283.00
220.1860, 11077.00
221.4130, 10366.00
222.6400, 9998.000
223.8660, 9603.000
225.0920, 9292.000
226.3190, 8887.000
227.5450, 8617.000
228.7700, 8473.000
229.9960, 8207.000
231.2210, 8095.000
232.4460, 8065.000
233.6710, 8072.000
234.8960, 8103.000
236.1210, 8254.000
237.3450, 8453.000
238.5690, 8614.000
239.7930, 8706.000
241.0170, 8829.000
242.2410, 9179.000
243.4640, 9411.000
244.6870, 9693.000
245.9100, 9972.000
247.1330, 10191.00
248.3560, 10343.00
249.5780, 10548.00
250.8000, 10724.00
252.0230, 11035.00
253.2440, 10973.00
254.4660, 11060.00
255.6880, 10969.00
256.9090, 11156.00
258.1300, 11106.00
259.3510, 11331.00
260.5720, 11465.00
261.7920, 11534.00
263.0130, 11681.00
264.2330, 12120.00
265.4530, 12317.00
266.6730, 12593.00
267.8920, 12703.00
269.1120, 12931.00
270.3310, 12983.00
271.5500, 12841.00
272.7690, 12643.00
273.9880, 12471.00
275.2060, 12071.00
276.4240, 11830.00
277.6430, 11508.00
278.8600, 11213.00
280.0780, 10850.00
281.2960, 10837.00
282.5130, 10553.00
283.7300, 10540.00
284.9470, 10549.00
286.1640, 10631.00
287.3810, 10602.00
288.5970, 10947.00
289.8130, 11182.00
291.0290, 11482.00
292.2450, 11974.00
293.4610, 12349.00
294.6760, 12883.75
295.8910, 13501.00
297.1060, 14073.00
298.3210, 14691.00
299.5360, 15435.00
300.7510, 15500.00
301.9650, 15764.00
303.1790, 15685.00
304.3930, 15923.00
305.6070, 15689.00
306.8200, 15524.00
308.0340, 14899.00
309.2470, 14430.00
310.4600, 13859.00
311.6730, 13452.00
312.8850, 12825.00
314.0980, 12352.00
315.3100, 12250.00
316.5220, 11857.00
317.7340, 11812.00
318.9460, 11631.00
320.1570, 11439.00
321.3690, 11295.00
322.5800, 10903.00
323.7910, 10628.00
325.0010, 10152.00
326.2120, 10015.00
327.4220, 9763.000
328.6330, 9778.000
329.8430, 9838.000
331.0520, 9622.000
332.2620, 9757.000
333.4720, 10142.00
334.6810, 10367.00
335.8900, 10903.00
337.0990, 11365.00
338.3070, 12074.00
339.5160, 12795.92
340.7240, 13595.00
341.9320, 14357.00
343.1400, 15228.00
344.3480, 15837.00
345.5560, 16104.00
346.7630, 16073.00
347.9700, 16004.00
349.1770, 15273.00
350.3840, 14987.00
351.5910, 14357.00
352.7970, 13794.00
354.0040, 13157.00
355.2100, 12450.00
356.4160, 11680.00
357.6220, 10890.00
358.8270, 10300.00
360.0320, 9610.000
361.2380, 9377.000
362.4430, 8999.000
363.6470, 8840.000
364.8520, 8613.000
366.0560, 8533.000
367.2610, 8611.000
368.4650, 8501.000
369.6690, 8715.000
370.8720, 8798.000
372.0760, 8798.000
373.2790, 8918.000
374.4820, 9006.000
375.6850, 9050.000
376.8880, 9071.000
378.0910, 9173.000
379.2930, 9509.000
380.4950, 9811.000
381.6970, 10351.00
382.8990, 11046.00
384.1010, 11675.00
385.3020, 12558.00
386.5040, 13487.00
387.7050, 14188.00
388.9060, 14992.00
390.1060, 15832.00
391.3070, 15905.00
392.5070, 15953.00
393.7080, 15573.00
394.9080, 15084.00
396.1070, 14478.00
397.3070, 13480.00
398.5070, 12657.00
399.7060, 11958.00
400.9050, 11283.00
402.1040, 10873.00
403.3030, 10576.00
404.5010, 10267.00
405.7000, 10152.00
406.8980, 9845.000
408.0960, 9955.000
409.2940, 10017.00
410.4910, 10208.00
411.6890, 10690.00
412.8860, 11047.00
414.0830, 11433.00
415.2800, 12154.00
416.4770, 12670.00
417.6730, 13251.00
418.8690, 13295.00
420.0660, 13673.00
421.2620, 13786.00
422.4570, 13814.00
423.6530, 14255.00
424.8480, 14516.00
426.0440, 14830.00
427.2390, 15076.00
428.4340, 15118.00
429.6280, 15332.00
430.8230, 15024.00
432.0170, 14680.00
433.2110, 13938.00
434.4050, 13257.00
435.5990, 12474.00
436.7930, 11842.00
437.9860, 11219.00
439.1800, 10645.00
440.3730, 10408.00
441.5660, 10197.00
442.7580, 9968.000
443.9510, 10035.00
445.1430, 9992.000
446.3350, 9777.000
447.5270, 9568.000
448.7190, 9542.000
449.9110, 9170.000
451.1020, 9198.000
452.2930, 9002.000
453.4850, 8980.000
454.6750, 9031.000
455.8660, 8849.000
457.0570, 8999.000
458.2470, 8995.000
459.4370, 8938.000
460.6270, 8984.000
461.8170, 8983.000
463.0070, 9155.000
464.1960, 9213.000
465.3850, 9251.000
466.5750, 9321.000
467.7630, 9615.000
468.9520, 9617.000
470.1410, 9930.000
471.3290, 10063.00
472.5170, 10254.00
473.7050, 10347.00
474.8930, 10704.00
476.0810, 11100.00
477.2680, 11975.00
478.4560, 12779.00
479.6430, 13752.00
480.8300, 14730.00
482.0160, 16008.00
483.2030, 16928.00
484.3890, 17661.00
485.5760, 17818.00
486.7620, 17816.00
487.9480, 16818.00
489.1330, 15632.00
490.3190, 14289.00
491.5040, 12832.00
492.6890, 11537.00
493.8740, 10822.00
495.0590, 10302.00
496.2440, 9794.000
497.4280, 9765.000
498.6120, 9807.000
499.7960, 9738.000
500.9800, 9813.000
502.1640, 9805.000
503.3470, 9971.000
504.5310, 10016.00
505.7140, 9862.000
506.8970, 10037.00
508.0800, 10026.00
509.2620, 9949.000
510.4450, 9837.000
511.6270, 9593.000
512.8090, 9442.000
513.9910, 9209.000
515.1730, 9014.000
516.3550, 8779.000
517.5360, 8763.000
518.7170, 8680.000
519.8980, 8526.000
521.0790, 8341.000
522.2600, 8393.000
523.4400, 8264.000
524.6210, 8259.000
525.8010, 8260.000
526.9810, 8274.000
528.1610, 8285.771
529.3400, 8199.000
530.5200, 8359.000
531.6990, 8379.000
532.8780, 8487.000
534.0570, 8677.000
535.2360, 8743.000
536.4140, 8920.000
537.5930, 8919.000
538.7710, 9029.000
539.9490, 9262.000
541.1270, 9341.000
542.3040, 9512.000
543.4820, 9666.000
544.6590, 9745.000
545.8360, 9853.000
547.0130, 9842.000
548.1900, 9835.000
549.3670, 9635.000
550.5430, 9839.000
551.7190, 9705.000
552.8960, 9738.000
554.0710, 9819.000
555.2470, 9978.000
556.4230, 10097.00
557.5980, 10170.00
558.7730, 10549.00
559.9480, 10825.00
561.1230, 10891.00
562.2980, 10918.00
563.4720, 10850.00
564.6470, 10631.00
565.8210, 10668.00
566.9950, 10508.00
568.1690, 10419.00
569.3420, 10501.00
570.5160, 10545.00
571.6890, 10600.00
572.8620, 10796.00
574.0350, 10894.00
575.2080, 10834.00
576.3800, 11016.00
577.5530, 10945.00
578.7250, 11103.00
579.8970, 11086.00
581.0690, 11125.00
582.2410, 11271.00
583.4120, 11500.00
584.5830, 11698.00
585.7550, 11847.00
586.9260, 12143.00
588.0960, 12124.00
589.2670, 12152.00
590.4380, 12172.00
591.6080, 12005.00
592.7780, 11677.00
593.9480, 11164.00
595.1180, 10855.00
596.2870, 10595.00
597.4570, 10307.00
598.6260, 9975.000
599.7950, 9812.000
600.9640, 9802.000
602.1330, 9887.000
603.3010, 10073.00
604.4700, 10136.00
605.6380, 10417.00
606.8060, 10676.00
607.9740, 11032.00
609.1420, 11425.00
610.3090, 11888.00
611.4760, 12308.00
612.6440, 12848.00
613.8110, 13278.00
614.9770, 13690.00
616.1440, 14214.00
617.3110, 14652.00
618.4770, 14675.00
619.6430, 14714.00
620.8090, 14733.00
621.9750, 14086.00
623.1400, 13552.00
624.3060, 12758.00
625.4710, 11996.00
626.6360, 11320.00
627.8010, 10646.00
628.9660, 10185.00
630.1300, 9786.000
631.2950, 9462.000
632.4590, 9334.000
633.6230, 9225.000
634.7870, 9040.000
635.9510, 9090.000
637.1140, 9001.000
638.2780, 9098.000
639.4410, 9273.000
640.6040, 9325.000
641.7670, 9454.000
642.9290, 9453.000
644.0920, 9386.000
645.2540, 9335.000
646.4160, 9404.000
647.5780, 9297.000
648.7400, 9400.000
649.9020, 9164.000
651.0630, 9246.000
652.2250, 9068.000
653.3860, 9254.000
654.5470, 9104.000
655.7080, 9044.000
656.8680, 9147.000
658.0290, 9023.000
659.1890, 9275.000
660.3490, 9282.000
661.5090, 9464.000
662.6690, 9452.000
663.8280, 9792.000
664.9880, 10084.00
666.1470, 10428.00
667.3060, 10896.00
668.4650, 11262.00
669.6240, 12009.00
670.7820, 12649.00
671.9410, 13487.00
673.0990, 14117.00
674.2570, 14814.00
675.4150, 15250.00
676.5720, 15618.00
677.7300, 15400.00
678.8870, 14998.00
680.0450, 14630.00
681.2020, 13973.00
682.3590, 13243.00
683.5150, 12595.00
684.6720, 11916.00
685.8280, 11581.00
686.9840, 11160.00
688.1400, 10991.00
689.2960, 10841.00
690.4520, 10953.00
691.6070, 10837.00
692.7630, 10904.00
693.9180, 11218.00
695.0730, 11297.00
696.2280, 11774.00
697.3820, 12088.00
698.5370, 12567.00
699.6910, 13231.00
700.8450, 14209.00
701.9990, 15321.00
703.1530, 16873.00
704.3070, 18684.00
705.4600, 20812.00
706.6130, 23335.00
707.7660, 26401.00
708.9190, 29380.00
710.0720, 32058.00
711.2250, 34370.00
712.3770, 36445.00
713.5300, 37608.00
714.6820, 37495.00
715.8340, 36038.00
716.9850, 33433.00
718.1370, 30247.00
719.2880, 26838.00
720.4400, 23717.00
721.5910, 21127.00
722.7420, 18769.00
723.8930, 16863.00
725.0430, 15478.00
726.1940, 14320.00
727.3440, 13329.00
728.4940, 12802.00
729.6440, 12299.00
730.7940, 11751.00
731.9430, 11338.00
733.0930, 11064.00
734.2420, 10975.00
735.3910, 10761.00
736.5400, 10561.00
737.6890, 10417.00
738.8370, 10184.00
739.9860, 10314.00
741.1340, 10122.00
742.2820, 10119.00
743.4300, 9954.000
744.5780, 9791.000
745.7250, 10061.00
746.8730, 9962.000
748.0200, 10031.00
749.1670, 10084.00
750.3140, 10148.00
751.4610, 10179.00
752.6070, 10213.00
753.7540, 10302.00
754.9000, 10539.00
756.0460, 10936.00
757.1920, 11064.00
758.3380, 11342.00
759.4830, 11580.00
760.6280, 11657.00
761.7740, 12062.00
762.9190, 12292.00
764.0640, 12618.00
765.2080, 12871.00
766.3530, 13096.00
767.4970, 13020.00
768.6420, 13074.00
769.7860, 12837.00
770.9300, 12458.00
772.0730, 12114.00
773.2170, 11850.00
774.3600, 11609.00
775.5040, 11210.00
776.6470, 10983.00
777.7900, 10804.00
778.9320, 10420.00
780.0750, 10326.00
781.2170, 10155.00
782.3600, 9947.000
783.5020, 9948.000
784.6440, 9884.000
785.7850, 9860.000
786.9270, 9696.000
788.0680, 9662.000
789.2100, 9522.000
790.3510, 9481.000
791.4920, 9586.000
792.6320, 9543.000
793.7730, 9578.000
794.9130, 9491.000
796.0540, 9551.000
797.1940, 9574.774
798.3340, 9547.000
799.4730, 9645.000
800.6130, 9687.000
801.7520, 9651.000
802.8920, 9618.000
804.0310, 9715.000
805.1700, 9785.000
806.3090, 9951.000
807.4470, 10074.00
808.5860, 10134.00
809.7240, 10429.00
810.8620, 10537.00
812.0000, 10668.00
813.1380, 10681.00
814.2750, 10585.00
815.4130, 10776.00
816.5500, 10568.00
817.6870, 10640.00
818.8240, 10332.00
819.9610, 10226.00
821.0980, 10268.00
822.2340, 10050.00
823.3700, 10041.00
824.5070, 10184.00
825.6430, 10026.00
826.7780, 9992.000
827.9140, 9891.000
829.0500, 9995.000
830.1850, 10009.00
831.3200, 9992.000
832.4550, 10023.00
833.5900, 10115.00
834.7250, 10089.00
835.8590, 10148.00
836.9930, 10167.35
838.1280, 10199.00
839.2620, 10195.00
840.3950, 10351.00
841.5290, 10362.00
842.6630, 10448.00
843.7960, 10588.00
844.9290, 10646.00
846.0620, 10740.00
847.1950, 10691.00
848.3280, 10818.00
849.4600, 10943.00
850.5930, 10879.00
851.7250, 10950.00
852.8570, 10967.00
853.9890, 10863.00
855.1210, 10994.00
856.2520, 11005.00
857.3840, 10994.00
858.5150, 11166.00
859.6460, 10999.00
860.7770, 11074.00
861.9080, 11111.00
863.0380, 11044.00
864.1690, 11084.00
865.2990, 11127.00
866.4290, 11079.00
867.5590, 11109.00
868.6890, 10985.00
869.8190, 11167.00
870.9480, 11188.00
872.0770, 11239.00
873.2070, 11111.00
874.3360, 11131.00
875.4640, 11182.00
876.5930, 11215.00
877.7220, 11271.00
878.8500, 11254.00
879.9780, 11334.00
881.1060, 11291.00
882.2340, 11386.00
883.3620, 11484.00
884.4890, 11417.00
885.6170, 11621.00
886.7440, 11706.00
887.8710, 11778.00
888.9980, 12048.00
890.1240, 12391.00
891.2510, 12648.00
892.3770, 12900.00
893.5040, 13251.00
894.6300, 13493.00
895.7560, 13835.00
896.8810, 14402.00
898.0070, 14632.00
899.1330, 14963.00
900.2580, 15197.00
901.3830, 15610.00
902.5080, 15832.00
903.6330, 15882.00
904.7570, 15838.00
905.8820, 15846.00
907.0060, 15767.00
908.1300, 15563.00
909.2540, 15183.00
910.3780, 14717.00
911.5020, 14303.00
912.6250, 14094.00
913.7490, 13562.00
914.8720, 13385.00
915.9950, 13034.00
917.1180, 12766.00
918.2400, 12572.00
919.3630, 12407.03
920.4850, 12319.43
921.6080, 12246.00
922.7300, 12297.00
923.8520, 12299.00
924.9730, 12409.00
926.0950, 12501.00
927.2160, 12644.00
928.3380, 12837.00
929.4590, 12856.00
930.5800, 13045.00
931.7010, 13190.00
932.8210, 13283.00
933.9420, 13263.00
935.0620, 13380.00
936.1820, 13467.00
937.3020, 13635.00
938.4220, 13642.00
939.5420, 13857.00
940.6610, 14253.00
941.7810, 14417.00
942.9000, 14979.00
944.0190, 15374.00
945.1380, 15934.00
946.2570, 16572.00
947.3750, 17226.00
948.4940, 18167.00
949.6120, 19189.00
950.7300, 19825.00
951.8480, 20824.00
952.9660, 21787.00
954.0830, 22680.00
955.2010, 23819.00
956.3180, 24748.00
957.4350, 26066.00
958.5520, 27292.00
959.6690, 28736.00
960.7860, 30208.00
961.9020, 31734.00
963.0190, 32530.00
964.1350, 32770.00
965.2510, 32628.00
966.3670, 32254.00
967.4830, 30483.00
968.5980, 29353.00
969.7140, 27533.00
970.8290, 26510.00
971.9440, 25635.00
973.0590, 24982.00
974.1740, 24908.00
975.2880, 24949.00
976.4030, 25056.00
977.5170, 25344.00
978.6310, 25211.00
979.7450, 25266.00
980.8590, 24949.00
981.9730, 24210.00
983.0860, 23444.00
984.2000, 22808.00
985.3130, 22141.00
986.4260, 21230.00
987.5390, 20452.00
988.6520, 20207.00
989.7640, 19974.00
990.8770, 19710.00
991.9890, 19569.00
993.1010, 19486.00
994.2130, 19443.00
995.3250, 19873.00
996.4370, 20086.00
997.5480, 20367.00
998.6590, 20826.00
999.7710, 21322.00
1000.882, 22025.00
1001.993, 22185.00
1003.103, 22273.00
1004.214, 22291.00
1005.324, 21883.00
1006.434, 21319.00
1007.545, 20614.00
1008.655, 19788.00
1009.764, 18860.00
1010.874, 17966.00
1011.983, 17264.00
1013.093, 16324.00
1014.202, 15703.00
1015.311, 15202.00
1016.420, 14545.00
1017.528, 14480.00
1018.637, 14049.00
1019.745, 13925.00
1020.854, 13653.00
1021.962, 13655.00
1023.070, 13636.00
1024.177, 13618.00
1025.285, 13640.58
1026.392, 13591.00
1027.500, 13563.12
1028.607, 13565.00
1029.714, 13467.00
1030.821, 13388.00
1031.927, 13334.59
1033.034, 13272.38
1034.140, 13245.00
1035.246, 13189.00
1036.352, 13157.50
1037.458, 13128.00
1038.564, 13125.00
1039.670, 13112.00
1040.775, 13102.00
1041.880, 13228.00
1042.986, 13247.00
1044.090, 13411.00
1045.195, 13364.00
1046.300, 13332.00
1047.404, 13310.00
1048.509, 13454.00
1049.613, 13698.00
1050.717, 13715.00
1051.821, 13990.00
1052.925, 14337.00
1054.028, 14553.00
1055.132, 14532.00
1056.235, 14783.00
1057.338, 14784.00
1058.441, 15032.00
1059.544, 14942.00
1060.647, 15187.00
1061.749, 14850.00
1062.851, 14922.00
1063.954, 14562.00
1065.056, 14520.00
1066.158, 14222.00
1067.259, 14124.00
1068.361, 13785.00
1069.462, 13623.00
1070.564, 13329.00
1071.665, 13484.00
1072.766, 13376.00
1073.867, 13593.00
1074.967, 13599.00
1076.068, 13841.00
1077.168, 14208.00
1078.268, 14535.00
1079.368, 15028.00
1080.468, 15098.00
1081.568, 15655.00
1082.668, 15740.00
1083.767, 15758.00
1084.866, 15771.00
1085.966, 15408.00
1087.065, 15219.00
1088.163, 14803.00
1089.262, 14327.00
1090.361, 13921.00
1091.459, 13726.00
1092.557, 13609.00
1093.655, 13257.00
1094.753, 13270.00
1095.851, 13191.00
1096.949, 13179.00
1098.046, 13179.00
1099.143, 13179.00
1100.241, 13161.00
1101.338, 13289.00
1102.434, 13454.00
1103.531, 13532.00
1104.628, 13614.00
1105.724, 13627.00
1106.820, 13573.00
1107.916, 13645.00
1109.012, 13691.00
1110.108, 13417.00
1111.204, 13386.00
1112.299, 13204.00
1113.395, 13135.00
1114.490, 12882.00
1115.585, 12816.00
1116.680, 12656.00
1117.775, 12582.00
1118.869, 12561.00
1119.964, 12421.00
1121.058, 12422.00
1122.152, 12291.00
1123.246, 12231.00
1124.340, 12196.00
1125.434, 12226.00
1126.527, 12156.00
1127.620, 12000.00
1128.714, 12240.00
1129.807, 11973.00
1130.900, 11994.00
1131.992, 12076.00
1133.085, 11964.00
1134.178, 12011.00
1135.270, 11836.00
1136.362, 12044.00
1137.454, 11917.00
1138.546, 11948.00
1139.638, 11864.00
1140.729, 11815.00
1141.821, 11883.00
1142.912, 11825.00
1144.003, 11932.00
1145.094, 11818.00
1146.185, 11833.00
1147.276, 11847.78
1148.366, 11836.67
1149.456, 11851.00
1150.547, 11863.00
1151.637, 11850.00
1152.727, 11686.07
1153.816, 11830.41
1154.906, 11911.98
1155.995, 11934.15
1157.085, 11718.99
1158.174, 11810.29
1159.263, 11778.77
1160.352, 11742.22
1161.441, 11876.64
1162.529, 11696.00
1163.618, 11827.72
1164.706, 11834.75
1165.794, 11898.84
1166.882, 11839.37
1167.970, 11818.06
1169.058, 11920.36
1170.145, 11954.22
1171.232, 11880.51
1172.320, 11948.24
1173.407, 11763.28
1174.494, 11800.05
1175.580, 11745.00
1176.667, 11793.00
1177.754, 11796.00
1178.840, 11865.00
1179.926, 11782.00
1181.012, 11814.00
1182.098, 11880.00
1183.184, 11848.00
1184.269, 11899.00
1185.355, 12026.00
1186.440, 11894.00
1187.525, 11772.00
1188.610, 11909.00
1189.695, 11884.00
1190.780, 11839.00
1191.864, 11946.00
1192.949, 11846.00
1194.033, 11905.00
1195.117, 11824.00
1196.201, 11903.00
1197.285, 11953.00
1198.369, 11802.00
1199.452, 12004.00
1200.536, 11996.00
1201.619, 11943.00
1202.702, 12019.00
1203.785, 12018.00
1204.868, 11954.00
1205.950, 11935.60
1207.033, 11981.00
1208.115, 11959.02
1209.197, 11972.00
1210.279, 11968.00
1211.361, 12025.00
1212.443, 11982.00
1213.525, 11981.00
1214.606, 11921.00
1215.687, 11896.00
1216.769, 11951.00
1217.850, 11788.00
1218.930, 11964.00
1220.011, 12139.00
1221.092, 11989.00
1222.172, 12031.00
1223.252, 12138.00
1224.333, 12027.00
1225.413, 12147.00
1226.492, 12143.00
1227.572, 12147.00
1228.652, 12155.00
1229.731, 11954.00
1230.810, 12147.00
1231.889, 12126.00
1232.968, 12024.00
1234.047, 12213.00
1235.126, 12221.00
1236.204, 12285.00
1237.283, 12085.00
1238.361, 12086.00
1239.439, 12154.00
1240.517, 12181.00
1241.595, 12164.00
1242.673, 12249.00
1243.750, 12191.00
1244.827, 12227.00
1245.905, 12197.00
1246.982, 12241.00
1248.059, 12271.00
1249.135, 12254.00
1250.212, 12236.00
1251.288, 12241.26
1252.365, 12244.11
1253.441, 12235.00
1254.517, 12268.00
1255.593, 12289.00
1256.669, 12293.74
1257.744, 12331.00
1258.820, 12316.00
1259.895, 12350.00
1260.970, 12292.00
1262.045, 12255.00
1263.120, 12277.00
1264.195, 12427.00
1265.270, 12431.00
1266.344, 12467.00
1267.418, 12525.82
1268.492, 12547.65
1269.566, 12589.00
1270.640, 12601.00
1271.714, 12642.54
1272.788, 12616.00
1273.861, 12623.00
1274.934, 12579.00
1276.007, 12477.00
1277.080, 12539.00
1278.153, 12519.00
1279.226, 12560.00
1280.299, 12466.00
1281.371, 12594.00
1282.443, 12407.00
1283.515, 12526.00
1284.587, 12462.00
1285.659, 12483.00
1286.731, 12587.00
1287.802, 12555.00
1288.874, 12499.00
1289.945, 12582.00
1291.016, 12485.00
1292.087, 12557.00
1293.158, 12619.00
1294.229, 12642.00
1295.299, 12687.00
1296.370, 12682.00
1297.440, 12600.00
1298.510, 12638.00
1299.580, 12636.00
1300.650, 12621.00
1301.720, 12653.00
1302.789, 12625.00
1303.859, 12788.00
1304.928, 12586.00
1305.997, 12727.00
1307.066, 12736.00
1308.135, 12701.00
1309.203, 12779.00
1310.272, 12835.00
1311.340, 12733.00
1312.409, 12775.00
1313.477, 12850.00
1314.545, 12692.00
1315.612, 12941.00
1316.680, 12843.00
1317.748, 12729.00
1318.815, 12909.00
1319.882, 12978.00
1320.949, 12901.00
1322.016, 12887.00
1323.083, 12894.00
1324.150, 12943.00
1325.216, 12961.00
1326.283, 12808.00
1327.349, 12885.00
1328.415, 12810.00
1329.481, 12996.00
1330.547, 12914.00
1331.613, 12940.00
1332.678, 12951.00
1333.744, 12858.00
1334.809, 12913.00
1335.874, 12945.00
1336.939, 12907.00
1338.004, 12798.00
1339.068, 12908.00
1340.133, 13001.00
1341.197, 12890.00
1342.262, 13004.00
1343.326, 12872.00
1344.390, 13068.00
1345.453, 12910.00
1346.517, 13033.00
1347.581, 13063.00
1348.644, 13024.00
1349.707, 12922.00
1350.770, 13109.00
1351.833, 13049.00
1352.896, 12894.00
1353.959, 12981.00
1355.022, 12912.00
1356.084, 12972.00
1357.146, 13050.00
1358.208, 13236.00
1359.270, 13027.00
1360.332, 12952.00
1361.394, 13114.00
1362.455, 13064.00
1363.517, 13220.00
1364.578, 13190.00
1365.639, 13032.00
1366.700, 13180.00
1367.761, 13187.00
1368.822, 13136.00
1369.883, 13219.00
1370.943, 13179.00
1372.003, 13203.00
1373.063, 13334.00
1374.123, 13119.00
1375.183, 13364.00
1376.243, 13249.00
1377.303, 13181.00
1378.362, 13185.00
1379.421, 13165.77
1380.481, 13169.10
1381.540, 13225.00
1382.598, 13241.00
1383.657, 13271.00
1384.716, 13382.00
1385.774, 13480.00
1386.833, 13434.87
1387.891, 13221.00
1388.949, 13379.00
1390.007, 13297.00
1391.065, 13329.00
1392.122, 13289.00
1393.180, 13205.00
1394.237, 13343.00
1395.294, 13350.00
1396.351, 13315.00
1397.408, 13336.00
1398.465, 13152.00
1399.522, 13560.00
1400.578, 13330.00
1401.635, 13529.00
1402.691, 13372.00
1403.747, 13527.00
1404.803, 13237.00
1405.859, 13595.00
1406.914, 13451.00
1407.970, 13483.00
1409.025, 13466.00
1410.081, 13577.00
1411.136, 13501.00
1412.191, 13470.00
1413.245, 13569.00
1414.300, 13401.00
1415.355, 13632.00
1416.409, 13388.00
1417.463, 13377.00
1418.518, 13481.00
1419.572, 13548.00
1420.625, 13556.38
1421.679, 13515.00
1422.733, 13589.00
1423.786, 13568.00
1424.840, 13561.00
1425.893, 13703.00
1426.946, 13715.00
1427.999, 13674.00
1429.051, 13600.00
1430.104, 13542.00
1431.157, 13771.00
1432.209, 13691.00
1433.261, 13769.00
1434.313, 13718.00
1435.365, 13651.00
1436.417, 13772.00
1437.468, 13872.00
1438.520, 13988.00
1439.571, 13927.00
1440.623, 14058.00
1441.674, 14104.00
1442.725, 13927.00
1443.775, 14149.00
1444.826, 14073.00
1445.877, 14130.00
1446.927, 14184.00
1447.977, 14149.00
1449.028, 14206.17
1450.078, 14254.00
1451.127, 14238.00
1452.177, 14264.00
1453.227, 14247.00
1454.276, 14261.00
1455.325, 14310.00
1456.375, 14156.00
1457.424, 14346.00
1458.473, 14245.00
1459.521, 14268.00
1460.570, 14113.00
1461.618, 14270.00
1462.667, 14291.00
1463.715, 14251.00
1464.763, 14155.00
1465.811, 14095.00
1466.859, 14069.00
1467.906, 14061.92
1468.954, 14171.00
1470.001, 14137.00
1471.049, 14142.00
1472.096, 14235.00
1473.143, 14159.00
1474.190, 14186.00
1475.236, 14076.00
1476.283, 14083.88
1477.329, 14187.00
1478.376, 14083.00
1479.422, 13969.00
1480.468, 14004.66
1481.514, 14157.00
1482.559, 14113.00
1483.605, 14153.00
1484.650, 14201.00
1485.696, 14123.00
1486.741, 14147.00
1487.786, 14136.00
1488.831, 14080.00
1489.876, 14129.00
1490.920, 14073.00
1491.965, 14140.00
1493.009, 14099.00
1494.054, 14245.00
1495.098, 14045.00
1496.142, 14273.00
1497.185, 14162.00
1498.229, 14042.00
1499.273, 14137.00
1500.316, 14263.00
1501.359, 14038.00
1502.403, 14316.00
1503.446, 14147.00
1504.489, 14163.00
1505.531, 14338.00
1506.574, 14278.00
1507.616, 14064.00
1508.659, 14186.00
1509.701, 14153.00
1510.743, 14236.00
1511.785, 14260.00
1512.827, 14270.00
1513.868, 14266.00
1514.910, 14229.00
1515.951, 14256.61
1516.993, 14248.00
1518.034, 14301.00
1519.075, 14302.00
1520.116, 14355.00
1521.156, 14480.00
1522.197, 14441.94
1523.237, 14490.14
1524.278, 14417.00
1525.318, 14505.00
1526.358, 14471.00
1527.398, 14498.00
1528.438, 14363.00
1529.477, 14299.00
1530.517, 14578.00
1531.556, 14359.00
1532.596, 14550.00
1533.635, 14380.00
1534.674, 14317.00
1535.712, 14568.00
1536.751, 14557.00
1537.790, 14481.00
1538.828, 14557.00
1539.866, 14627.00
1540.905, 14656.00
1541.943, 14603.00
1542.981, 14630.00
1544.018, 14585.00
1545.056, 14601.00
1546.094, 14616.00
1547.131, 14612.00
1548.168, 14529.00
1549.205, 14659.00
1550.242, 14691.00
1551.279, 14532.00
1552.316, 14618.00
1553.352, 14904.00
1554.389, 14923.00
1555.425, 14836.00
1556.461, 14752.00
1557.497, 14662.00
1558.533, 14795.00
1559.569, 14650.00
1560.605, 14805.00
1561.640, 14744.00
1562.675, 14655.00
1563.711, 14799.00
##END=



