##NAMES=Axinite-(Fe)
##RRUFFID=R060558
##IDEAL CHEMISTRY=Ca_4_Fe^2+^_2_Al_4_[B_2_Si_8_O_30_](OH)_2_
##LOCALITY=unknown
##OWNER=RRUFF
##SOURCE=Gemological Institute of America
##DESCRIPTION=Brown flattened crystal
##STATUS=The identification of this mineral has been confirmed by X-ray diffraction and chemical analysis
##URL=rruff.info/R060558
##MEASURED CHEMISTRY=Ca_2.00_(Fe^2+^_0.60_Mg_0.35_Mn_0.05_)_Î£=1_Al_2.00_BSi_4.00_O_15_(OH) ; B not measured
##PIN_ID=M01972
##ORIENTATION=Laser parallel to (1 0 1). Fiducial mark perpendicular to laser is parallel to -b [0 -1 0]
91.53100, 6204.000
92.77800, 6638.000
94.02500, 6971.000
95.27200, 7055.000
96.51900, 7266.000
97.76500, 7508.000
99.01100, 7773.000
100.2570, 8073.000
101.5030, 8740.000
102.7490, 9507.000
103.9940, 10563.00
105.2390, 11462.00
106.4840, 11939.00
107.7290, 12123.00
108.9740, 11722.00
110.2180, 11021.00
111.4620, 10528.00
112.7060, 10298.00
113.9500, 10183.00
115.1940, 10133.00
116.4370, 9946.000
117.6800, 9834.000
118.9230, 9666.000
120.1660, 9408.000
121.4090, 9258.000
122.6510, 9112.000
123.8940, 8631.000
125.1360, 8482.000
126.3770, 8103.000
127.6190, 7846.000
128.8600, 7621.000
130.1020, 7528.000
131.3430, 7476.000
132.5840, 7480.000
133.8240, 7476.000
135.0650, 7605.000
136.3050, 7786.000
137.5450, 8178.000
138.7850, 8419.000
140.0250, 8671.000
141.2640, 8829.000
142.5030, 9190.000
143.7430, 9327.000
144.9810, 9681.000
146.2200, 10237.00
147.4590, 10899.00
148.6970, 11369.00
149.9350, 11667.00
151.1730, 11796.00
152.4110, 11587.00
153.6480, 11547.00
154.8860, 11516.00
156.1230, 11245.00
157.3600, 11039.00
158.5960, 10905.00
159.8330, 10920.00
161.0690, 11160.00
162.3050, 11755.00
163.5410, 12395.00
164.7770, 13315.00
166.0130, 14598.00
167.2480, 15897.00
168.4830, 16626.00
169.7180, 16351.00
170.9530, 15213.00
172.1880, 14040.00
173.4220, 12894.00
174.6560, 11704.00
175.8900, 10558.00
177.1240, 9617.000
178.3580, 8891.000
179.5910, 8298.000
180.8250, 7984.000
182.0580, 7626.000
183.2900, 7573.000
184.5230, 7677.000
185.7560, 7760.000
186.9880, 7975.000
188.2200, 8415.000
189.4520, 9080.000
190.6830, 9629.000
191.9150, 10153.00
193.1460, 10305.00
194.3770, 10273.00
195.6080, 10002.00
196.8390, 10039.00
198.0700, 10139.00
199.3000, 10393.00
200.5300, 10958.00
201.7600, 11267.00
202.9900, 11907.00
204.2190, 12239.00
205.4490, 12733.00
206.6780, 13177.00
207.9070, 13463.00
209.1360, 13587.00
210.3640, 13796.00
211.5930, 13728.00
212.8210, 13620.00
214.0490, 13215.00
215.2770, 12899.00
216.5040, 12402.00
217.7320, 11844.00
218.9590, 11281.00
220.1860, 10832.00
221.4130, 10195.00
222.6400, 9778.000
223.8660, 9181.000
225.0920, 8931.000
226.3190, 8530.000
227.5450, 8155.000
228.7700, 8155.000
229.9960, 7999.000
231.2210, 7782.000
232.4460, 7701.000
233.6710, 7953.000
234.8960, 8023.000
236.1210, 8196.000
237.3450, 8438.000
238.5690, 8683.000
239.7930, 8936.000
241.0170, 9173.000
242.2410, 9170.000
243.4640, 9232.000
244.6870, 9500.000
245.9100, 9679.000
247.1330, 10077.00
248.3560, 10244.00
249.5780, 10344.00
250.8000, 10375.00
252.0230, 10466.65
253.2440, 10549.00
254.4660, 10520.00
255.6880, 10623.00
256.9090, 10757.85
258.1300, 10873.89
259.3510, 11105.00
260.5720, 11280.00
261.7920, 11481.00
263.0130, 11813.00
264.2330, 12228.00
265.4530, 12543.00
266.6730, 12848.00
267.8920, 13042.00
269.1120, 13100.00
270.3310, 13089.45
271.5500, 12837.00
272.7690, 12712.00
273.9880, 12315.00
275.2060, 11825.00
276.4240, 11542.00
277.6430, 11031.00
278.8600, 10688.00
280.0780, 10228.00
281.2960, 9999.000
282.5130, 9651.000
283.7300, 9645.000
284.9470, 9657.000
286.1640, 9791.000
287.3810, 10030.00
288.5970, 10460.03
289.8130, 11060.00
291.0290, 11683.00
292.2450, 12449.00
293.4610, 13355.00
294.6760, 14160.00
295.8910, 14911.00
297.1060, 15450.70
298.3210, 15968.00
299.5360, 16237.00
300.7510, 16404.00
301.9650, 16519.00
303.1790, 16206.00
304.3930, 16071.00
305.6070, 15574.00
306.8200, 14959.00
308.0340, 14248.00
309.2470, 13368.00
310.4600, 12671.00
311.6730, 12409.00
312.8850, 12079.00
314.0980, 11840.00
315.3100, 12058.00
316.5220, 12070.00
317.7340, 12213.00
318.9460, 11974.00
320.1570, 11626.00
321.3690, 11145.00
322.5800, 10713.00
323.7910, 10363.00
325.0010, 9861.000
326.2120, 9797.000
327.4220, 9409.000
328.6330, 9332.000
329.8430, 9204.000
331.0520, 9222.000
332.2620, 9307.000
333.4720, 9567.000
334.6810, 9815.000
335.8900, 10467.00
337.0990, 11007.00
338.3070, 11896.00
339.5160, 12825.00
340.7240, 13942.00
341.9320, 15025.00
343.1400, 16247.00
344.3480, 16473.00
345.5560, 16616.00
346.7630, 16176.00
347.9700, 15685.00
349.1770, 15470.00
350.3840, 14911.25
351.5910, 14328.06
352.7970, 13812.00
354.0040, 12932.00
355.2100, 12060.00
356.4160, 11203.00
357.6220, 10481.00
358.8270, 9864.000
360.0320, 9294.000
361.2380, 8939.000
362.4430, 8578.000
363.6470, 8405.000
364.8520, 8300.000
366.0560, 8308.000
367.2610, 8350.000
368.4650, 8431.000
369.6690, 8550.000
370.8720, 8835.000
372.0760, 8896.000
373.2790, 9069.000
374.4820, 8983.000
375.6850, 8910.000
376.8880, 8948.000
378.0910, 8877.000
379.2930, 9013.000
380.4950, 9473.000
381.6970, 9893.000
382.8990, 10601.00
384.1010, 11468.00
385.3020, 12426.00
386.5040, 13443.00
387.7050, 14392.00
388.9060, 15160.00
390.1060, 15565.00
391.3070, 15849.00
392.5070, 15388.00
393.7080, 14971.00
394.9080, 14116.00
396.1070, 13278.00
397.3070, 12703.00
398.5070, 12118.00
399.7060, 11542.00
400.9050, 11203.00
402.1040, 10788.00
403.3030, 10536.00
404.5010, 10044.00
405.7000, 9977.000
406.8980, 9735.000
408.0960, 9826.000
409.2940, 9977.000
410.4910, 10311.00
411.6890, 10681.00
412.8860, 11370.00
414.0830, 12239.00
415.2800, 13361.00
416.4770, 14176.00
417.6730, 14755.00
418.8690, 14462.00
420.0660, 14281.00
421.2620, 14112.00
422.4570, 14443.00
423.6530, 14802.00
424.8480, 15313.00
426.0440, 16052.00
427.2390, 16769.00
428.4340, 17036.00
429.6280, 17073.00
430.8230, 16699.00
432.0170, 16006.00
433.2110, 14813.00
434.4050, 13597.00
435.5990, 12793.00
436.7930, 11982.00
437.9860, 11222.00
439.1800, 10758.00
440.3730, 10522.00
441.5660, 10207.00
442.7580, 10438.00
443.9510, 10430.00
445.1430, 10237.00
446.3350, 9995.000
447.5270, 9546.000
448.7190, 9212.000
449.9110, 8942.000
451.1020, 8706.000
452.2930, 8596.000
453.4850, 8469.538
454.6750, 8451.000
455.8660, 8374.000
457.0570, 8383.000
458.2470, 8370.000
459.4370, 8392.000
460.6270, 8392.000
461.8170, 8304.000
463.0070, 8258.000
464.1960, 8404.000
465.3850, 8393.000
466.5750, 8636.000
467.7630, 8789.000
468.9520, 8880.000
470.1410, 9139.000
471.3290, 9146.000
472.5170, 9053.000
473.7050, 9092.000
474.8930, 8874.000
476.0810, 8784.000
477.2680, 8952.000
478.4560, 9267.000
479.6430, 9562.000
480.8300, 9966.000
482.0160, 10298.00
483.2030, 11085.00
484.3890, 11373.00
485.5760, 11398.00
486.7620, 11012.00
487.9480, 10442.00
489.1330, 9736.000
490.3190, 9347.000
491.5040, 8870.000
492.6890, 8578.000
493.8740, 8479.000
495.0590, 8430.000
496.2440, 8483.000
497.4280, 8566.000
498.6120, 8709.000
499.7960, 8866.000
500.9800, 9127.394
502.1640, 9296.479
503.3470, 9652.000
504.5310, 9762.000
505.7140, 9840.000
506.8970, 10142.00
508.0800, 9968.000
509.2620, 10014.00
510.4450, 9869.000
511.6270, 9493.000
512.8090, 9299.000
513.9910, 9123.000
515.1730, 8761.000
516.3550, 8502.000
517.5360, 8429.000
518.7170, 8239.000
519.8980, 8183.000
521.0790, 8027.000
522.2600, 7958.000
523.4400, 8017.000
524.6210, 7830.000
525.8010, 7872.000
526.9810, 7862.000
528.1610, 7857.000
529.3400, 7740.000
530.5200, 7796.000
531.6990, 7808.000
532.8780, 7952.000
534.0570, 8137.000
535.2360, 8291.000
536.4140, 8376.000
537.5930, 8560.000
538.7710, 8910.000
539.9490, 9128.000
541.1270, 9479.000
542.3040, 9753.118
543.4820, 10223.00
544.6590, 10268.00
545.8360, 10445.00
547.0130, 10569.00
548.1900, 10314.00
549.3670, 10058.00
550.5430, 9763.000
551.7190, 9820.000
552.8960, 9646.000
554.0710, 9757.000
555.2470, 9821.000
556.4230, 10151.00
557.5980, 10510.00
558.7730, 10710.00
559.9480, 10977.00
561.1230, 10976.69
562.2980, 11142.00
563.4720, 10787.00
564.6470, 10666.00
565.8210, 10390.00
566.9950, 10287.00
568.1690, 10400.00
569.3420, 10387.00
570.5160, 10538.00
571.6890, 10779.00
572.8620, 10942.00
574.0350, 10978.00
575.2080, 11156.00
576.3800, 11083.00
577.5530, 11057.00
578.7250, 11182.00
579.8970, 11103.00
581.0690, 11288.00
582.2410, 11502.00
583.4120, 11686.00
584.5830, 11958.00
585.7550, 12411.00
586.9260, 12587.00
588.0960, 12757.00
589.2670, 12842.00
590.4380, 12551.00
591.6080, 12144.00
592.7780, 11647.00
593.9480, 11156.00
595.1180, 10501.00
596.2870, 9997.000
597.4570, 9685.000
598.6260, 9394.650
599.7950, 9331.000
600.9640, 9180.000
602.1330, 9277.000
603.3010, 9338.000
604.4700, 9585.000
605.6380, 9487.000
606.8060, 9923.000
607.9740, 10276.00
609.1420, 10372.00
610.3090, 10563.00
611.4760, 10562.00
612.6440, 10688.00
613.8110, 10804.00
614.9770, 10901.00
616.1440, 10859.00
617.3110, 10767.00
618.4770, 10987.00
619.6430, 10771.00
620.8090, 10687.00
621.9750, 10238.00
623.1400, 9960.000
624.3060, 9677.000
625.4710, 9282.000
626.6360, 8949.000
627.8010, 8775.000
628.9660, 8459.000
630.1300, 8460.000
631.2950, 8348.000
632.4590, 8145.000
633.6230, 8274.000
634.7870, 8212.000
635.9510, 8327.000
637.1140, 8389.000
638.2780, 8390.000
639.4410, 8410.000
640.6040, 8609.000
641.7670, 8775.000
642.9290, 8788.000
644.0920, 8749.000
645.2540, 8564.000
646.4160, 8639.000
647.5780, 8634.000
648.7400, 8427.000
649.9020, 8520.000
651.0630, 8393.000
652.2250, 8290.000
653.3860, 8296.000
654.5470, 8182.000
655.7080, 8153.000
656.8680, 8213.000
658.0290, 8274.000
659.1890, 8248.000
660.3490, 8282.000
661.5090, 8511.000
662.6690, 8565.000
663.8280, 8868.000
664.9880, 9033.000
666.1470, 9423.000
667.3060, 9826.000
668.4650, 10360.00
669.6240, 10854.00
670.7820, 11511.00
671.9410, 12310.00
673.0990, 13025.00
674.2570, 13825.00
675.4150, 14268.00
676.5720, 14312.00
677.7300, 14013.00
678.8870, 13593.00
680.0450, 12981.00
681.2020, 12183.00
682.3590, 11389.00
683.5150, 10894.00
684.6720, 10528.00
685.8280, 10133.00
686.9840, 9792.000
688.1400, 9628.000
689.2960, 9552.000
690.4520, 9506.000
691.6070, 9566.000
692.7630, 9598.000
693.9180, 9787.000
695.0730, 9953.000
696.2280, 10325.00
697.3820, 10577.00
698.5370, 11205.00
699.6910, 11670.00
700.8450, 12621.00
701.9990, 13579.00
703.1530, 14549.00
704.3070, 16273.00
705.4600, 18261.00
706.6130, 20592.00
707.7660, 23356.00
708.9190, 26190.00
710.0720, 29100.00
711.2250, 31907.00
712.3770, 33692.00
713.5300, 34388.00
714.6820, 33485.00
715.8340, 31531.00
716.9850, 28939.00
718.1370, 25806.00
719.2880, 22887.00
720.4400, 20195.00
721.5910, 18001.00
722.7420, 16232.00
723.8930, 14755.00
725.0430, 13465.00
726.1940, 12751.00
727.3440, 11993.00
728.4940, 11415.00
729.6440, 10926.00
730.7940, 10571.00
731.9430, 10292.00
733.0930, 10034.00
734.2420, 9769.000
735.3910, 9659.000
736.5400, 9375.000
737.6890, 9430.000
738.8370, 9245.000
739.9860, 9185.000
741.1340, 9144.000
742.2820, 9196.000
743.4300, 8998.000
744.5780, 9070.000
745.7250, 9051.000
746.8730, 9110.000
748.0200, 9167.000
749.1670, 9079.000
750.3140, 9286.000
751.4610, 9326.000
752.6070, 9275.000
753.7540, 9504.000
754.9000, 9628.000
756.0460, 9806.000
757.1920, 10200.00
758.3380, 10456.00
759.4830, 10671.00
760.6280, 10951.00
761.7740, 11309.00
762.9190, 11519.00
764.0640, 12018.00
765.2080, 12388.00
766.3530, 12382.00
767.4970, 12544.00
768.6420, 12386.00
769.7860, 12160.00
770.9300, 11870.00
772.0730, 11616.00
773.2170, 11098.00
774.3600, 10864.00
775.5040, 10482.00
776.6470, 10217.00
777.7900, 9954.000
778.9320, 9765.000
780.0750, 9552.000
781.2170, 9472.000
782.3600, 9343.000
783.5020, 9145.000
784.6440, 9073.000
785.7850, 8872.000
786.9270, 8870.000
788.0680, 8780.000
789.2100, 8660.000
790.3510, 8875.000
791.4920, 8769.000
792.6320, 8812.000
793.7730, 8703.000
794.9130, 8717.000
796.0540, 8693.000
797.1940, 8701.000
798.3340, 8664.986
799.4730, 8671.681
800.6130, 8682.870
801.7520, 8691.000
802.8920, 8738.000
804.0310, 8789.000
805.1700, 8859.000
806.3090, 8965.000
807.4470, 8980.000
808.5860, 9084.000
809.7240, 9282.000
810.8620, 9217.000
812.0000, 9307.000
813.1380, 9232.000
814.2750, 9290.000
815.4130, 9121.000
816.5500, 9112.000
817.6870, 9002.000
818.8240, 8935.000
819.9610, 8922.000
821.0980, 8960.000
822.2340, 8928.000
823.3700, 8896.000
824.5070, 8829.000
825.6430, 8977.000
826.7780, 8763.000
827.9140, 8911.000
829.0500, 8869.000
830.1850, 8907.000
831.3200, 8893.000
832.4550, 9003.000
833.5900, 8988.000
834.7250, 9057.000
835.8590, 9103.000
836.9930, 9038.000
838.1280, 9095.000
839.2620, 9188.000
840.3950, 9313.000
841.5290, 9267.000
842.6630, 9355.000
843.7960, 9449.000
844.9290, 9524.000
846.0620, 9464.000
847.1950, 9640.000
848.3280, 9579.000
849.4600, 9744.000
850.5930, 9744.000
851.7250, 9754.000
852.8570, 9808.000
853.9890, 9806.000
855.1210, 9797.000
856.2520, 9774.000
857.3840, 9750.000
858.5150, 9807.747
859.6460, 9837.000
860.7770, 9918.000
861.9080, 9961.000
863.0380, 9981.000
864.1690, 10114.00
865.2990, 10001.00
866.4290, 10164.00
867.5590, 10072.00
868.6890, 10056.00
869.8190, 10048.00
870.9480, 10081.00
872.0770, 10046.00
873.2070, 10177.00
874.3360, 10065.00
875.4640, 10227.00
876.5930, 10250.00
877.7220, 10252.00
878.8500, 10274.00
879.9780, 10331.00
881.1060, 10266.00
882.2340, 10222.00
883.3620, 10394.00
884.4890, 10392.00
885.6170, 10577.00
886.7440, 10564.00
887.8710, 10604.00
888.9980, 10818.00
890.1240, 10919.00
891.2510, 11222.00
892.3770, 11396.00
893.5040, 11624.00
894.6300, 12101.00
895.7560, 12307.00
896.8810, 12657.00
898.0070, 12904.00
899.1330, 13435.00
900.2580, 13772.00
901.3830, 14165.00
902.5080, 14546.00
903.6330, 14980.00
904.7570, 14900.00
905.8820, 14791.00
907.0060, 14903.00
908.1300, 14540.00
909.2540, 14294.00
910.3780, 13935.00
911.5020, 13273.00
912.6250, 12992.00
913.7490, 12519.00
914.8720, 12304.00
915.9950, 11820.00
917.1180, 11557.00
918.2400, 11337.00
919.3630, 11165.00
920.4850, 11111.00
921.6080, 10866.00
922.7300, 10925.00
923.8520, 10794.00
924.9730, 10861.00
926.0950, 10855.00
927.2160, 10941.00
928.3380, 10870.00
929.4590, 11012.00
930.5800, 11139.00
931.7010, 11106.00
932.8210, 11242.00
933.9420, 11149.00
935.0620, 11139.00
936.1820, 11354.00
937.3020, 11088.00
938.4220, 11355.00
939.5420, 11445.00
940.6610, 11694.00
941.7810, 11686.00
942.9000, 11881.00
944.0190, 12130.00
945.1380, 12342.00
946.2570, 12830.00
947.3750, 13142.00
948.4940, 13588.25
949.6120, 14053.00
950.7300, 14575.00
951.8480, 15105.00
952.9660, 15713.00
954.0830, 16338.00
955.2010, 17234.00
956.3180, 18076.80
957.4350, 19164.00
958.5520, 20160.00
959.6690, 21348.00
960.7860, 22687.00
961.9020, 24055.00
963.0190, 24955.00
964.1350, 25397.00
965.2510, 25249.00
966.3670, 24672.00
967.4830, 23628.00
968.5980, 22651.00
969.7140, 21887.00
970.8290, 21488.00
971.9440, 21070.00
973.0590, 21375.00
974.1740, 21476.00
975.2880, 22081.00
976.4030, 22781.00
977.5170, 23186.00
978.6310, 23554.00
979.7450, 23508.00
980.8590, 23199.00
981.9730, 22415.00
983.0860, 21555.00
984.2000, 21018.00
985.3130, 20049.00
986.4260, 19532.00
987.5390, 18965.00
988.6520, 18751.00
989.7640, 18297.00
990.8770, 18292.00
991.9890, 18266.00
993.1010, 18371.00
994.2130, 18456.00
995.3250, 18804.00
996.4370, 19077.00
997.5480, 19581.00
998.6590, 20285.00
999.7710, 20473.00
1000.882, 21084.00
1001.993, 21252.00
1003.103, 21122.00
1004.214, 20982.00
1005.324, 20671.00
1006.434, 19678.00
1007.545, 19008.00
1008.655, 18105.00
1009.764, 17024.00
1010.874, 16255.00
1011.983, 15320.00
1013.093, 14690.00
1014.202, 14138.00
1015.311, 13664.00
1016.420, 13243.17
1017.528, 12681.00
1018.637, 12676.00
1019.745, 12373.00
1020.854, 12375.00
1021.962, 12463.00
1023.070, 12330.00
1024.177, 12485.00
1025.285, 12503.00
1026.392, 12490.00
1027.500, 12832.00
1028.607, 12648.00
1029.714, 12583.00
1030.821, 12680.00
1031.927, 12426.00
1033.034, 12294.00
1034.140, 12274.00
1035.246, 12214.00
1036.352, 12266.00
1037.458, 12264.00
1038.564, 12177.00
1039.670, 12261.00
1040.775, 12264.00
1041.880, 12420.00
1042.986, 12206.00
1044.090, 12306.00
1045.195, 12077.00
1046.300, 12382.00
1047.404, 12365.00
1048.509, 12497.00
1049.613, 12604.00
1050.717, 12698.00
1051.821, 12871.00
1052.925, 12902.00
1054.028, 13262.00
1055.132, 13194.00
1056.235, 13553.00
1057.338, 13425.00
1058.441, 13386.00
1059.544, 13514.00
1060.647, 13378.00
1061.749, 13222.00
1062.851, 12981.00
1063.954, 12835.00
1065.056, 12644.00
1066.158, 12333.00
1067.259, 12089.00
1068.361, 12122.00
1069.462, 11809.00
1070.564, 11798.00
1071.665, 11775.00
1072.766, 11967.00
1073.867, 12005.00
1074.967, 12273.00
1076.068, 12692.00
1077.168, 12734.00
1078.268, 13026.00
1079.368, 13528.00
1080.468, 14108.00
1081.568, 14370.00
1082.668, 14553.00
1083.767, 14548.00
1084.866, 14465.00
1085.966, 14222.00
1087.065, 13850.00
1088.163, 13321.00
1089.262, 13162.00
1090.361, 12604.00
1091.459, 12301.00
1092.557, 12138.00
1093.655, 11948.00
1094.753, 11797.06
1095.851, 11790.00
1096.949, 11605.00
1098.046, 11557.00
1099.143, 11538.00
1100.241, 11637.00
1101.338, 11537.00
1102.434, 11506.00
1103.531, 11479.00
1104.628, 11453.89
1105.724, 11468.04
1106.820, 11498.00
1107.916, 11451.00
1109.012, 11563.00
1110.108, 11434.00
1111.204, 11175.00
1112.299, 11193.00
1113.395, 11091.00
1114.490, 11006.00
1115.585, 10985.00
1116.680, 10878.00
1117.775, 10746.00
1118.869, 10837.00
1119.964, 10833.00
1121.058, 10811.00
1122.152, 10727.00
1123.246, 10700.00
1124.340, 10730.00
1125.434, 10657.00
1126.527, 10604.00
1127.620, 10564.00
1128.714, 10646.00
1129.807, 10610.00
1130.900, 10533.00
1131.992, 10613.00
1133.085, 10552.00
1134.178, 10511.00
1135.270, 10566.00
1136.362, 10495.00
1137.454, 10476.00
1138.546, 10476.00
1139.638, 10396.00
1140.729, 10496.00
1141.821, 10596.00
1142.912, 10488.00
1144.003, 10392.00
1145.094, 10581.00
1146.185, 10448.00
1147.276, 10363.00
1148.366, 10415.00
1149.456, 10516.00
1150.547, 10506.00
1151.637, 10534.00
1152.727, 10482.00
1153.816, 10556.00
1154.906, 10498.00
1155.995, 10383.00
1157.085, 10421.00
1158.174, 10482.00
1159.263, 10542.00
1160.352, 10562.00
1161.441, 10475.00
1162.529, 10591.00
1163.618, 10470.00
1164.706, 10540.00
1165.794, 10473.00
1166.882, 10610.00
1167.970, 10462.00
1169.058, 10380.00
1170.145, 10419.00
1171.232, 10625.00
1172.320, 10454.00
1173.407, 10624.00
1174.494, 10598.00
1175.580, 10552.00
1176.667, 10588.00
1177.754, 10513.00
1178.840, 10489.00
1179.926, 10511.00
1181.012, 10493.00
1182.098, 10549.00
1183.184, 10641.00
1184.269, 10580.00
1185.355, 10616.00
1186.440, 10504.00
1187.525, 10570.00
1188.610, 10592.00
1189.695, 10658.00
1190.780, 10635.00
1191.864, 10706.00
1192.949, 10559.00
1194.033, 10577.00
1195.117, 10595.00
1196.201, 10608.00
1197.285, 10611.73
1198.369, 10602.81
1199.452, 10620.00
1200.536, 10567.00
1201.619, 10584.00
1202.702, 10564.16
1203.785, 10581.05
1204.868, 10596.00
1205.950, 10633.00
1207.033, 10655.00
1208.115, 10678.00
1209.197, 10561.00
1210.279, 10645.00
1211.361, 10683.00
1212.443, 10811.00
1213.525, 10730.00
1214.606, 10735.00
1215.687, 10741.00
1216.769, 10837.00
1217.850, 10783.00
1218.930, 10798.00
1220.011, 10640.00
1221.092, 10788.00
1222.172, 10738.00
1223.252, 10798.00
1224.333, 10855.00
1225.413, 10690.00
1226.492, 10710.00
1227.572, 10789.00
1228.652, 10824.00
1229.731, 10925.00
1230.810, 10803.00
1231.889, 10802.00
1232.968, 10741.00
1234.047, 10928.00
1235.126, 10891.00
1236.204, 10938.00
1237.283, 10887.00
1238.361, 10883.00
1239.439, 10989.00
1240.517, 10948.00
1241.595, 10891.00
1242.673, 10889.00
1243.750, 11025.00
1244.827, 10940.00
1245.905, 10924.00
1246.982, 10975.00
1248.059, 10875.00
1249.135, 10960.00
1250.212, 10959.00
1251.288, 10898.00
1252.365, 10993.00
1253.441, 11046.00
1254.517, 10974.00
1255.593, 11017.00
1256.669, 10932.00
1257.744, 11072.00
1258.820, 11065.00
1259.895, 10914.00
1260.970, 10922.00
1262.045, 11098.00
1263.120, 11110.00
1264.195, 11101.00
1265.270, 11064.00
1266.344, 11334.00
1267.418, 11182.00
1268.492, 11113.00
1269.566, 11338.00
1270.640, 11220.00
1271.714, 11259.00
1272.788, 11193.00
1273.861, 11175.00
1274.934, 11322.00
1276.007, 11190.00
1277.080, 11128.00
1278.153, 11276.00
1279.226, 11284.00
1280.299, 11239.83
1281.371, 11259.84
1282.443, 11188.00
1283.515, 11203.00
1284.587, 11287.00
1285.659, 11338.00
1286.731, 11318.00
1287.802, 11255.00
1288.874, 11433.00
1289.945, 11291.00
1291.016, 11451.00
1292.087, 11337.00
1293.158, 11383.00
1294.229, 11466.00
1295.299, 11487.00
1296.370, 11454.00
1297.440, 11413.00
1298.510, 11512.00
1299.580, 11391.00
1300.650, 11439.00
1301.720, 11322.00
1302.789, 11318.00
1303.859, 11305.00
1304.928, 11364.00
1305.997, 11470.00
1307.066, 11526.00
1308.135, 11472.00
1309.203, 11424.00
1310.272, 11575.00
1311.340, 11496.00
1312.409, 11542.00
1313.477, 11588.00
1314.545, 11537.00
1315.612, 11510.00
1316.680, 11477.00
1317.748, 11512.00
1318.815, 11580.00
1319.882, 11542.00
1320.949, 11605.00
1322.016, 11546.00
1323.083, 11478.00
1324.150, 11599.00
1325.216, 11572.00
1326.283, 11476.00
1327.349, 11523.00
1328.415, 11430.00
1329.481, 11438.20
1330.547, 11545.00
1331.613, 11475.00
1332.678, 11488.00
1333.744, 11590.00
1334.809, 11496.00
1335.874, 11567.00
1336.939, 11550.00
1338.004, 11440.00
1339.068, 11607.00
1340.133, 11590.00
1341.197, 11565.00
1342.262, 11623.00
1343.326, 11590.19
1344.390, 11602.96
1345.453, 11580.00
1346.517, 11578.00
1347.581, 11576.00
1348.644, 11505.00
1349.707, 11694.00
1350.770, 11732.00
1351.833, 11583.00
1352.896, 11699.00
1353.959, 11664.00
1355.022, 11744.00
1356.084, 11651.00
1357.146, 11684.00
1358.208, 11778.00
1359.270, 11631.00
1360.332, 11865.00
1361.394, 11659.00
1362.455, 11785.00
1363.517, 11773.00
1364.578, 11680.00
1365.639, 11754.00
1366.700, 11857.00
1367.761, 11696.00
1368.822, 11737.00
1369.883, 11872.00
1370.943, 11828.00
1372.003, 11943.00
1373.063, 11864.00
1374.123, 11836.00
1375.183, 11791.49
1376.243, 11896.00
1377.303, 11674.00
1378.362, 11852.00
1379.421, 11932.00
1380.481, 11829.00
1381.540, 11885.00
1382.598, 11837.00
1383.657, 11940.00
1384.716, 11989.00
1385.774, 11819.00
1386.833, 11939.00
1387.891, 11823.00
1388.949, 11788.00
1390.007, 12033.00
1391.065, 11986.00
1392.122, 12072.00
1393.180, 11831.00
1394.237, 11938.00
1395.294, 11938.00
1396.351, 11899.00
1397.408, 12007.00
1398.465, 11950.00
1399.522, 12101.00
1400.578, 11922.00
1401.635, 12063.00
1402.691, 12025.00
1403.747, 12031.00
1404.803, 11934.00
1405.859, 12119.00
1406.914, 11986.00
1407.970, 11983.00
1409.025, 12154.00
1410.081, 12054.00
1411.136, 12064.00
1412.191, 12028.00
1413.245, 12148.00
1414.300, 12026.00
1415.355, 11918.00
1416.409, 12111.00
1417.463, 12042.00
1418.518, 12063.00
1419.572, 12253.00
1420.625, 12116.00
1421.679, 12161.00
1422.733, 12137.00
1423.786, 12165.00
1424.840, 12145.46
1425.893, 12166.00
1426.946, 12112.00
1427.999, 12078.00
1429.051, 12086.00
1430.104, 12324.00
1431.157, 12370.00
1432.209, 12334.00
1433.261, 12348.00
1434.313, 12371.00
1435.365, 12461.00
1436.417, 12486.49
1437.468, 12547.68
1438.520, 12588.00
1439.571, 12647.00
1440.623, 12686.00
1441.674, 12707.00
1442.725, 12683.00
1443.775, 12757.00
1444.826, 12736.00
1445.877, 12776.16
1446.927, 12788.00
1447.977, 12846.00
1449.028, 12850.00
1450.078, 12889.00
1451.127, 12945.00
1452.177, 13039.00
1453.227, 13074.46
1454.276, 12988.00
1455.325, 13107.00
1456.375, 13033.00
1457.424, 12883.00
1458.473, 12981.00
1459.521, 12890.00
1460.570, 12842.00
1461.618, 12879.00
1462.667, 12935.00
1463.715, 12946.00
1464.763, 12794.00
1465.811, 12810.00
1466.859, 12674.00
1467.906, 12615.00
1468.954, 12584.00
1470.001, 12566.00
1471.049, 12670.00
1472.096, 12645.00
1473.143, 12578.00
1474.190, 12695.00
1475.236, 12591.00
1476.283, 12686.00
1477.329, 12747.00
1478.376, 12576.00
1479.422, 12514.00
1480.468, 12623.00
1481.514, 12645.00
1482.559, 12540.00
1483.605, 12654.00
1484.650, 12552.00
1485.696, 12481.00
1486.741, 12629.00
1487.786, 12470.00
1488.831, 12521.00
1489.876, 12484.00
1490.920, 12503.00
1491.965, 12525.00
1493.009, 12410.00
1494.054, 12460.00
1495.098, 12543.00
1496.142, 12527.00
1497.185, 12456.00
1498.229, 12462.00
1499.273, 12485.00
1500.316, 12542.00
1501.359, 12457.00
1502.403, 12605.00
1503.446, 12493.00
1504.489, 12508.00
1505.531, 12578.00
1506.574, 12469.00
1507.616, 12495.00
1508.659, 12477.00
1509.701, 12602.00
1510.743, 12695.00
1511.785, 12648.00
1512.827, 12530.00
1513.868, 12665.00
1514.910, 12562.00
1515.951, 12572.00
1516.993, 12626.00
1518.034, 12728.00
1519.075, 12572.00
1520.116, 12628.00
1521.156, 12788.00
1522.197, 12680.00
1523.237, 12689.00
1524.278, 12699.00
1525.318, 12789.00
1526.358, 12766.00
1527.398, 12797.00
1528.438, 12741.00
1529.477, 12776.25
1530.517, 12826.00
1531.556, 12820.00
1532.596, 12829.00
1533.635, 12851.00
1534.674, 12900.00
1535.712, 12902.00
1536.751, 12942.00
1537.790, 12661.00
1538.828, 12730.00
1539.866, 12773.00
1540.905, 12918.00
1541.943, 12979.00
1542.981, 12917.00
1544.018, 12987.00
1545.056, 13030.00
1546.094, 12880.00
1547.131, 12956.00
1548.168, 12860.00
1549.205, 12948.00
1550.242, 12991.00
1551.279, 13048.00
1552.316, 13046.08
1553.352, 13078.00
1554.389, 13007.00
1555.425, 13021.00
1556.461, 12995.00
1557.497, 12916.00
1558.533, 12873.00
1559.569, 12978.00
1560.605, 13009.00
1561.640, 13015.00
1562.675, 12924.00
1563.711, 13051.00
##END=



