##NAMES=Axinite-(Fe)
##RRUFFID=R060183
##IDEAL CHEMISTRY=Ca_4_Fe^2+^_2_Al_4_[B_2_Si_8_O_30_](OH)_2_
##LOCALITY=Skagit Bluffs, near Manning Park, British Columbia, Canada
##OWNER=RRUFF
##SOURCE=Lloyd Twaites
##DESCRIPTION=Light-pink transparent axe-head-shaped single crystal
##STATUS=The identification of this mineral has been confirmed by X-ray diffraction and chemical analysis
##URL=rruff.info/R060183
##MEASURED CHEMISTRY=Ca_2.00_(Fe^2+^_0.58_Mn_0.23_Mg_0.19_)Al_2.00_B_1.00_Si_4.00_O_15_(OH)
##PIN_ID=L01002
##ORIENTATION=Laser parallel to (-1 0 -1). Fiducial mark perpendicular to laser is parallel to b [0 1 0]
52.67100, 692.0000
53.91000, 687.0000
55.14900, 692.0000
56.38700, 648.0000
57.62600, 662.0000
58.86400, 663.0000
60.10300, 677.0000
61.34100, 708.0000
62.57900, 716.0000
63.81700, 722.0000
65.05400, 728.0000
66.29200, 764.0000
67.52900, 832.0000
68.76700, 966.0000
70.00400, 1042.851
71.24100, 1162.518
72.47700, 1286.000
73.71400, 1375.000
74.95100, 1531.000
76.18700, 1587.010
77.42300, 1751.000
78.65900, 1848.000
79.89500, 1960.000
81.13100, 2215.000
82.36700, 2566.000
83.60200, 2883.714
84.83700, 3498.000
86.07200, 3825.000
87.30800, 4320.000
88.54200, 5062.579
89.77700, 6179.000
91.01200, 6875.000
92.24600, 8289.000
93.48000, 9581.000
94.71400, 10730.00
95.94800, 11927.00
97.18200, 12484.00
98.41600, 12894.00
99.64900, 13581.00
100.8830, 14396.00
102.1160, 14538.00
103.3490, 14788.00
104.5820, 14970.00
105.8150, 15765.00
107.0470, 16787.00
108.2800, 16593.48
109.5120, 16189.17
110.7440, 16141.00
111.9760, 14397.00
113.2080, 13187.00
114.4400, 12539.00
115.6710, 12238.00
116.9030, 11727.00
118.1340, 11321.00
119.3650, 11067.00
120.5960, 10748.00
121.8270, 10567.00
123.0580, 10992.00
124.2880, 10992.00
125.5190, 11056.00
126.7490, 10881.00
127.9790, 10699.00
129.2090, 10461.00
130.4390, 10024.00
131.6680, 9657.000
132.8980, 9307.000
134.1270, 9250.000
135.3560, 9430.000
136.5850, 9807.000
137.8140, 10071.00
139.0430, 10677.00
140.2710, 10788.00
141.5000, 10907.00
142.7280, 10865.00
143.9560, 11291.00
145.1840, 11903.00
146.4120, 12922.00
147.6390, 14402.00
148.8670, 15625.00
150.0940, 16407.00
151.3210, 16227.00
152.5490, 15201.00
153.7750, 13649.00
155.0020, 12922.00
156.2290, 12413.00
157.4550, 12019.00
158.6810, 11550.00
159.9080, 11143.00
161.1340, 10632.00
162.3590, 10763.00
163.5850, 11258.00
164.8110, 12161.00
166.0360, 13352.00
167.2610, 14791.00
168.4860, 16985.00
169.7110, 18682.00
170.9360, 19615.00
172.1610, 19073.00
173.3850, 17715.00
174.6100, 16348.00
175.8340, 14832.00
177.0580, 13725.00
178.2820, 12456.00
179.5050, 11203.00
180.7290, 10285.00
181.9520, 9350.000
183.1760, 8708.000
184.3990, 8135.000
185.6220, 7733.000
186.8450, 7654.000
188.0670, 7560.000
189.2900, 7704.000
190.5120, 8054.000
191.7340, 8528.000
192.9560, 8988.000
194.1780, 9141.000
195.4000, 9158.000
196.6220, 8936.000
197.8430, 9023.000
199.0640, 9150.000
200.2860, 9604.000
201.5070, 10504.00
202.7270, 11521.00
203.9480, 12242.00
205.1690, 13219.00
206.3890, 14116.00
207.6090, 15009.00
208.8290, 15756.00
210.0490, 16245.00
211.2690, 16532.00
212.4890, 16882.00
213.7080, 17004.00
214.9280, 16938.00
216.1470, 17330.00
217.3660, 17655.00
218.5850, 17421.00
219.8030, 16558.00
221.0220, 15408.00
222.2400, 13854.00
223.4590, 12119.00
224.6770, 10947.00
225.8950, 9824.000
227.1120, 9206.000
228.3300, 8848.000
229.5480, 8524.000
230.7650, 8420.000
231.9820, 8580.000
233.1990, 8684.000
234.4160, 9151.000
235.6330, 9519.000
236.8490, 10145.00
238.0660, 10836.00
239.2820, 11608.00
240.4980, 12149.00
241.7140, 12879.00
242.9300, 13173.00
244.1460, 13505.00
245.3610, 13501.00
246.5770, 13503.00
247.7920, 13513.00
249.0070, 13373.00
250.2220, 13617.00
251.4370, 13798.00
252.6510, 14455.00
253.8660, 14946.00
255.0800, 15132.00
256.2940, 15041.00
257.5080, 15153.00
258.7220, 15500.00
259.9360, 15986.00
261.1490, 15471.00
262.3630, 15861.00
263.5760, 16225.00
264.7890, 17056.00
266.0020, 17614.00
267.2150, 18204.00
268.4270, 18972.00
269.6400, 19604.00
270.8520, 20348.00
272.0640, 20870.00
273.2760, 20941.00
274.4880, 21193.00
275.7000, 20692.00
276.9120, 19871.00
278.1230, 19004.00
279.3340, 18203.00
280.5450, 16960.00
281.7560, 16093.00
282.9670, 15471.00
284.1780, 15015.00
285.3880, 14502.00
286.5980, 14253.00
287.8090, 14081.00
289.0190, 13743.00
290.2290, 13537.00
291.4380, 13403.00
292.6480, 13261.95
293.8570, 13195.00
295.0670, 13179.00
296.2760, 13126.00
297.4850, 13174.00
298.6930, 13339.00
299.9020, 13612.03
301.1110, 13855.00
302.3190, 14482.00
303.5270, 15133.00
304.7350, 15833.00
305.9430, 16204.00
307.1510, 16332.00
308.3580, 15943.00
309.5660, 15587.00
310.7730, 15109.00
311.9800, 15312.00
313.1870, 15877.00
314.3940, 16870.00
315.6010, 18404.00
316.8070, 20169.00
318.0130, 21438.00
319.2200, 22063.00
320.4260, 22104.00
321.6310, 21196.00
322.8370, 20087.00
324.0430, 18901.00
325.2480, 18279.00
326.4540, 17914.00
327.6590, 17736.00
328.8640, 17831.00
330.0680, 17614.00
331.2730, 17584.00
332.4780, 17626.00
333.6820, 18099.00
334.8860, 18776.00
336.0900, 19800.00
337.2940, 21291.00
338.4980, 22875.00
339.7010, 24725.00
340.9050, 26153.00
342.1080, 27146.00
343.3110, 27305.00
344.5140, 26284.00
345.7170, 24765.00
346.9200, 23298.00
348.1220, 21896.00
349.3240, 20849.00
350.5270, 19611.00
351.7290, 18441.00
352.9310, 16566.00
354.1320, 14779.00
355.3340, 13020.00
356.5350, 11431.00
357.7370, 10317.00
358.9380, 9484.000
360.1390, 8914.000
361.3400, 8556.000
362.5400, 8104.000
363.7410, 7944.000
364.9410, 7914.000
366.1410, 7826.000
367.3410, 7907.000
368.5410, 8306.000
369.7410, 8504.000
370.9400, 8866.000
372.1400, 9108.000
373.3390, 9360.000
374.5380, 9310.000
375.7370, 9426.000
376.9360, 9476.000
378.1350, 9803.000
379.3330, 10197.00
380.5310, 10678.00
381.7300, 11370.00
382.9280, 12385.00
384.1260, 13725.00
385.3230, 15116.00
386.5210, 16363.00
387.7180, 17630.00
388.9160, 18482.00
390.1130, 19108.00
391.3100, 19486.00
392.5060, 19123.00
393.7030, 18462.00
394.9000, 17022.00
396.0960, 15649.00
397.2920, 14443.00
398.4880, 13365.00
399.6840, 12847.00
400.8800, 12257.00
402.0750, 11799.00
403.2710, 11310.00
404.4660, 10906.00
405.6610, 10748.00
406.8560, 10673.00
408.0510, 10731.00
409.2450, 11177.00
410.4400, 11774.00
411.6340, 12659.00
412.8280, 13598.00
414.0220, 15299.00
415.2160, 16766.00
416.4100, 18307.00
417.6030, 19626.00
418.7970, 21023.00
419.9900, 22236.00
421.1830, 23063.00
422.3760, 23839.84
423.5690, 25938.00
424.7610, 24645.00
425.9540, 25014.00
427.1460, 24912.00
428.3380, 22945.00
429.5300, 21807.00
430.7220, 20177.00
431.9140, 18722.00
433.1050, 17008.00
434.2970, 16879.00
435.4880, 14980.00
436.6790, 14086.00
437.8700, 13374.00
439.0610, 13905.00
440.2510, 13248.00
441.4420, 13675.00
442.6320, 14441.00
443.8220, 14633.00
445.0120, 14138.00
446.2020, 13348.00
447.3910, 12153.00
448.5810, 11067.00
449.7700, 10479.00
450.9600, 9970.000
452.1490, 9850.000
453.3370, 9786.000
454.5260, 9499.000
455.7150, 9492.000
456.9030, 9285.000
458.0910, 9080.000
459.2800, 8684.000
460.4670, 8351.000
461.6550, 8166.000
462.8430, 8090.000
464.0300, 8193.000
465.2180, 8518.000
466.4050, 8719.000
467.5920, 9237.000
468.7790, 9570.000
469.9650, 9944.000
471.1520, 10328.00
472.3380, 10394.00
473.5250, 10844.00
474.7110, 11231.00
475.8970, 12200.00
477.0820, 13528.00
478.2680, 15223.00
479.4540, 17348.00
480.6390, 19850.00
481.8240, 23029.00
483.0090, 25729.00
484.1940, 27017.00
485.3780, 26547.00
486.5630, 23834.00
487.7470, 20363.00
488.9320, 17138.00
490.1160, 14655.00
491.3000, 12646.00
492.4830, 11327.00
493.6670, 10308.00
494.8500, 9719.000
496.0340, 9270.000
497.2170, 8976.000
498.4000, 8840.000
499.5820, 8579.000
500.7650, 8550.000
501.9480, 8464.000
503.1300, 8323.000
504.3120, 8412.000
505.4940, 8274.000
506.6760, 8133.000
507.8580, 8140.000
509.0390, 8043.000
510.2210, 7930.000
511.4020, 7741.000
512.5830, 7522.000
513.7640, 7353.000
514.9450, 7028.000
516.1250, 6839.000
517.3060, 6661.000
518.4860, 6300.000
519.6660, 6235.000
520.8460, 6076.000
522.0260, 5978.000
523.2060, 5974.000
524.3850, 5825.000
525.5650, 5947.000
526.7440, 5919.000
527.9230, 5926.000
529.1020, 6042.000
530.2810, 6161.000
531.4590, 6193.000
532.6380, 6412.000
533.8160, 6451.000
534.9940, 6533.000
536.1720, 6562.000
537.3500, 6553.000
538.5270, 6528.000
539.7050, 6616.000
540.8820, 6618.000
542.0590, 6684.000
543.2360, 6751.000
544.4130, 6846.000
545.5900, 6772.000
546.7660, 6834.000
547.9430, 6949.000
549.1190, 7043.000
550.2950, 7124.000
551.4710, 7369.000
552.6470, 7605.000
553.8220, 7991.000
554.9980, 8447.000
556.1730, 8960.000
557.3480, 9494.000
558.5230, 10157.00
559.6980, 10498.00
560.8730, 10756.00
562.0470, 10935.00
563.2220, 11010.00
564.3960, 10921.00
565.5700, 11085.00
566.7440, 11391.00
567.9170, 11755.00
569.0910, 12351.00
570.2640, 13069.00
571.4380, 13462.00
572.6110, 14065.00
573.7840, 14125.00
574.9570, 14035.00
576.1290, 13588.00
577.3020, 12917.00
578.4740, 12179.00
579.6460, 11335.00
580.8180, 10838.00
581.9900, 10236.00
583.1620, 9861.000
584.3330, 9573.000
585.5040, 9485.000
586.6760, 9280.000
587.8470, 9123.000
589.0180, 8950.000
590.1880, 8690.000
591.3590, 8342.000
592.5290, 8112.000
593.7000, 7651.000
594.8700, 7326.000
596.0400, 7232.000
597.2090, 7077.000
598.3790, 7078.000
599.5490, 7101.017
600.7180, 7083.000
601.8870, 7305.000
603.0560, 7488.000
604.2250, 7680.000
605.3940, 8163.000
606.5620, 8578.000
607.7300, 9311.000
608.8990, 10013.00
610.0670, 10856.00
611.2350, 11899.00
612.4020, 13159.00
613.5700, 14610.00
614.7370, 15628.00
615.9050, 17197.00
617.0720, 18567.00
618.2390, 19332.00
619.4060, 19832.00
620.5720, 19428.00
621.7390, 18292.00
622.9050, 16444.00
624.0710, 14501.00
625.2370, 12517.00
626.4030, 10944.00
627.5690, 9819.000
628.7340, 8880.000
629.9000, 8236.000
631.0650, 7736.000
632.2300, 7534.000
633.3950, 7260.000
634.5600, 7264.000
635.7240, 7314.000
636.8890, 7463.000
638.0530, 7642.000
639.2170, 7756.000
640.3810, 8152.000
641.5450, 8370.000
642.7080, 8592.000
643.8720, 8642.000
645.0350, 8635.000
646.1980, 8600.000
647.3610, 8169.000
648.5240, 8050.000
649.6870, 7754.000
650.8490, 7509.000
652.0120, 7234.000
653.1740, 7029.000
654.3360, 6883.174
655.4980, 6760.000
656.6600, 6701.000
657.8210, 6668.000
658.9830, 6680.000
660.1440, 6888.000
661.3050, 6962.000
662.4660, 7273.000
663.6270, 7524.000
664.7870, 7935.000
665.9480, 8290.000
667.1080, 8904.000
668.2680, 9586.000
669.4280, 10483.00
670.5880, 11806.00
671.7480, 12913.00
672.9070, 14513.00
674.0670, 16213.00
675.2260, 17765.00
676.3850, 18775.00
677.5440, 19303.00
678.7030, 18958.00
679.8610, 17897.00
681.0200, 16706.00
682.1780, 15163.00
683.3360, 13636.00
684.4940, 12578.00
685.6520, 11656.00
686.8090, 10956.00
687.9670, 10487.00
689.1240, 10080.00
690.2810, 9996.000
691.4380, 9851.000
692.5950, 10033.00
693.7520, 10191.00
694.9080, 10516.00
696.0650, 10817.00
697.2210, 11511.00
698.3770, 12192.00
699.5330, 13091.00
700.6880, 14463.00
701.8440, 16105.00
702.9990, 17950.00
704.1550, 20680.00
705.3100, 23458.00
706.4650, 27021.00
707.6190, 31721.00
708.7740, 36309.00
709.9290, 42021.00
711.0830, 47697.00
712.2370, 52767.00
713.3910, 57235.00
714.5450, 59447.00
715.6980, 58756.00
716.8520, 55564.00
718.0050, 51401.00
719.1580, 45105.00
720.3110, 39288.00
721.4640, 33296.00
722.6170, 28382.00
723.7700, 23862.00
724.9220, 20533.00
726.0740, 17788.00
727.2260, 15763.00
728.3780, 13911.00
729.5300, 12559.00
730.6810, 11563.00
731.8330, 10600.00
732.9840, 9917.000
734.1350, 9247.000
735.2860, 8882.000
736.4370, 8286.000
737.5880, 8137.000
738.7380, 7834.000
739.8880, 7592.000
741.0390, 7445.000
742.1890, 7246.000
743.3380, 7151.000
744.4880, 7037.000
745.6380, 6999.000
746.7870, 7118.000
747.9360, 7250.000
749.0850, 7221.000
750.2340, 7359.000
751.3830, 7434.000
752.5310, 7650.000
753.6800, 7985.000
754.8280, 8071.000
755.9760, 8258.000
757.1240, 8469.000
758.2720, 8520.000
759.4190, 8657.000
760.5670, 8785.000
761.7140, 8761.000
762.8610, 8795.000
764.0080, 8761.000
765.1550, 8765.000
766.3020, 8656.000
767.4480, 8589.000
768.5950, 8499.000
769.7410, 8064.000
770.8870, 7758.000
772.0330, 7291.000
773.1780, 7071.000
774.3240, 6877.000
775.4690, 6501.000
776.6140, 6372.000
777.7590, 6179.000
778.9040, 5898.000
780.0490, 5864.000
781.1940, 5695.000
782.3380, 5533.000
783.4820, 5562.000
784.6260, 5421.000
785.7700, 5441.000
786.9140, 5273.000
788.0580, 5281.000
789.2010, 5129.000
790.3450, 5154.000
791.4880, 5162.000
792.6310, 5127.000
793.7730, 5028.000
794.9160, 5074.000
796.0590, 5012.000
797.2010, 5011.000
798.3430, 4993.342
799.4850, 5043.012
800.6270, 4990.000
801.7690, 5163.000
802.9100, 5280.000
804.0520, 5300.000
805.1930, 5421.000
806.3340, 5640.000
807.4750, 5797.000
808.6160, 6068.000
809.7560, 6369.000
810.8970, 6745.000
812.0370, 6979.000
813.1770, 7112.000
814.3170, 7244.000
815.4570, 7120.000
816.5960, 6903.000
817.7360, 6830.000
818.8750, 6679.000
820.0140, 6423.000
821.1530, 6233.000
822.2920, 6210.000
823.4310, 6099.000
824.5690, 6075.000
825.7070, 6069.000
826.8460, 5941.000
827.9840, 6033.000
829.1220, 6060.000
830.2590, 6009.000
831.3970, 6088.000
832.5340, 6139.000
833.6710, 6144.000
834.8080, 6239.000
835.9450, 6363.000
837.0820, 6464.856
838.2190, 6544.000
839.3550, 6780.000
840.4910, 6864.000
841.6270, 7077.000
842.7630, 7257.000
843.8990, 7443.819
845.0350, 7667.000
846.1700, 7842.000
847.3060, 8033.000
848.4410, 8165.000
849.5760, 8323.000
850.7100, 8518.000
851.8450, 8664.000
852.9800, 8718.000
854.1140, 8731.000
855.2480, 8713.000
856.3820, 8709.000
857.5160, 8840.000
858.6500, 8864.000
859.7830, 8960.000
860.9170, 9104.000
862.0500, 9190.000
863.1830, 9355.000
864.3160, 9291.000
865.4480, 9488.000
866.5810, 9703.000
867.7130, 9649.000
868.8460, 9651.000
869.9780, 9915.000
871.1100, 9981.000
872.2410, 10009.00
873.3730, 10130.00
874.5050, 10235.15
875.6360, 10358.18
876.7670, 10530.00
877.8980, 10661.00
879.0290, 10854.00
880.1590, 11022.00
881.2900, 11221.00
882.4200, 11455.82
883.5500, 11694.00
884.6800, 11970.00
885.8100, 12314.00
886.9400, 12625.00
888.0690, 13124.00
889.1990, 13693.00
890.3280, 14306.00
891.4570, 15128.50
892.5860, 15760.00
893.7140, 16931.00
894.8430, 17998.00
895.9710, 18944.00
897.1000, 20134.00
898.2280, 21016.00
899.3560, 22186.00
900.4830, 22925.00
901.6110, 23588.00
902.7380, 24132.00
903.8660, 24029.74
904.9930, 23146.00
906.1200, 23205.00
907.2460, 21605.00
908.3730, 20464.00
909.5000, 19541.00
910.6260, 18686.00
911.7520, 17873.00
912.8780, 17093.00
914.0040, 16287.00
915.1290, 15500.00
916.2550, 14933.00
917.3800, 14393.00
918.5050, 13960.05
919.6300, 13796.00
920.7550, 13368.00
921.8800, 13251.00
923.0040, 13130.00
924.1290, 13028.00
925.2530, 13059.00
926.3770, 13200.00
927.5010, 13418.00
928.6250, 13502.00
929.7480, 13728.00
930.8720, 13908.00
931.9950, 13986.00
933.1180, 13847.00
934.2410, 13824.00
935.3640, 13867.00
936.4860, 14067.00
937.6090, 14254.00
938.7310, 14561.00
939.8530, 15230.00
940.9750, 15677.00
942.0970, 16449.00
943.2180, 17515.00
944.3400, 18448.00
945.4610, 19804.00
946.5820, 21509.00
947.7030, 23022.00
948.8240, 24922.00
949.9450, 26566.00
951.0650, 28347.00
952.1860, 29961.00
953.3060, 31313.00
954.4260, 32991.00
955.5460, 34595.00
956.6650, 36396.00
957.7850, 38276.00
958.9040, 40683.00
960.0230, 43754.00
961.1420, 45643.00
962.2610, 47801.00
963.3800, 48786.00
964.4990, 48716.00
965.6170, 47352.00
966.7350, 44934.00
967.8530, 42336.00
968.9710, 39996.00
970.0890, 37727.00
971.2070, 36258.00
972.3240, 35332.00
973.4410, 35208.00
974.5580, 35757.00
975.6750, 36623.00
976.7920, 37913.00
977.9090, 38618.00
979.0250, 39490.00
980.1410, 39702.00
981.2580, 39211.00
982.3740, 38421.00
983.4890, 37195.00
984.6050, 36156.00
985.7200, 34923.00
986.8360, 34017.00
987.9510, 33124.00
989.0660, 32589.00
990.1810, 31673.00
991.2950, 30970.00
992.4100, 30082.00
993.5240, 29253.00
994.6390, 28693.00
995.7530, 27883.00
996.8660, 27186.00
997.9800, 26833.00
999.0940, 26357.00
1000.207, 26089.00
1001.320, 25671.00
1002.433, 25189.00
1003.546, 24593.11
1004.659, 23947.00
1005.772, 23083.00
1006.884, 22127.00
1007.996, 21080.00
1009.108, 19770.00
1010.220, 18623.00
1011.332, 17518.00
1012.444, 16476.00
1013.555, 15334.00
1014.666, 14559.00
1015.777, 13584.00
1016.888, 12893.00
1017.999, 12339.00
1019.110, 11751.00
1020.220, 11428.00
1021.331, 11097.00
1022.441, 10614.00
1023.551, 10478.00
1024.661, 10266.00
1025.770, 10108.00
1026.880, 9804.000
1027.989, 9764.000
1029.098, 9599.000
1030.207, 9643.000
1031.316, 9680.000
1032.425, 9473.000
1033.533, 9549.000
1034.642, 9426.000
1035.750, 9548.000
1036.858, 9749.000
1037.966, 9821.103
1039.073, 10028.00
1040.181, 10180.00
1041.288, 10330.00
1042.396, 10519.00
1043.503, 10686.00
1044.610, 10730.00
1045.716, 10884.00
1046.823, 10823.00
1047.929, 11289.00
1049.036, 11467.00
1050.142, 11928.00
1051.248, 12175.00
1052.353, 12565.00
1053.459, 13051.00
1054.564, 13453.00
1055.670, 13780.00
1056.775, 14081.00
1057.880, 14081.00
1058.985, 14013.00
1060.089, 13824.00
1061.194, 13504.00
1062.298, 13262.00
1063.402, 12646.49
1064.506, 12017.00
1065.610, 11390.00
1066.713, 10915.00
1067.817, 10472.00
1068.920, 10111.00
1070.023, 9898.000
1071.126, 9911.000
1072.229, 9793.000
1073.332, 9901.652
1074.435, 9998.162
1075.537, 10246.00
1076.639, 10449.00
1077.741, 10731.00
1078.843, 11230.00
1079.945, 11571.00
1081.046, 11996.00
1082.148, 12308.00
1083.249, 12483.00
1084.350, 12186.00
1085.451, 11878.00
1086.551, 11306.00
1087.652, 10717.00
1088.752, 10159.00
1089.853, 9528.000
1090.953, 9116.000
1092.053, 8833.000
1093.152, 8426.000
1094.252, 8284.000
1095.351, 8247.000
1096.451, 8061.000
1097.550, 8114.000
1098.649, 8212.000
1099.748, 8210.000
1100.846, 8294.000
1101.945, 8391.000
1103.043, 8528.000
1104.141, 8619.000
1105.239, 8659.000
1106.337, 8676.000
1107.434, 8560.000
1108.532, 8498.000
1109.629, 8254.000
1110.726, 8169.000
1111.823, 7997.000
1112.920, 7839.000
1114.017, 7650.000
1115.113, 7558.000
1116.210, 7462.000
1117.306, 7463.000
1118.402, 7320.000
1119.498, 7242.000
1120.593, 7271.000
1121.689, 7193.000
1122.784, 7080.000
1123.879, 7162.000
1124.974, 6947.717
1126.069, 6947.000
1127.164, 6641.000
1128.259, 6387.000
1129.353, 6283.000
1130.447, 6189.000
1131.541, 6029.000
1132.635, 5968.000
1133.729, 5874.000
1134.822, 5796.000
1135.916, 5811.000
1137.009, 5765.000
1138.102, 5675.000
1139.195, 5611.000
1140.288, 5696.000
1141.380, 5636.000
1142.473, 5554.000
1143.565, 5454.000
1144.657, 5527.000
1145.749, 5546.000
1146.841, 5474.000
1147.932, 5518.000
1149.024, 5362.000
1150.115, 5391.000
1151.206, 5380.000
1152.297, 5360.000
1153.388, 5331.000
1154.479, 5278.000
1155.569, 5299.000
1156.659, 5251.124
1157.750, 5284.000
1158.839, 5214.000
1159.929, 5184.000
1161.019, 5205.000
1162.108, 5258.000
1163.198, 5130.000
1164.287, 5229.000
1165.376, 5106.000
1166.465, 5062.000
1167.553, 5119.000
1168.642, 5143.000
1169.730, 5090.000
1170.818, 5118.000
1171.906, 5107.000
1172.994, 5048.000
1174.082, 5077.000
1175.170, 5075.000
1176.257, 5060.000
1177.344, 5085.000
1178.431, 5051.681
1179.518, 5032.000
1180.605, 4999.000
1181.691, 4990.000
1182.778, 4960.000
1183.864, 5014.000
1184.950, 4995.000
1186.036, 4988.000
1187.122, 5003.000
1188.207, 4971.000
1189.292, 4940.000
1190.378, 4967.000
1191.463, 4957.000
1192.548, 4919.000
1193.632, 5071.000
1194.717, 4975.000
1195.801, 4979.000
1196.886, 5023.000
1197.970, 4978.000
1199.054, 4998.000
1200.137, 5013.000
1201.221, 4986.000
1202.305, 4992.509
1203.388, 4915.000
1204.471, 4962.000
1205.554, 4893.000
1206.637, 4858.000
1207.719, 4887.000
1208.802, 4884.000
1209.884, 4887.000
1210.966, 4928.000
1212.048, 4937.000
1213.130, 4873.000
1214.212, 4891.000
1215.293, 4845.000
1216.374, 4927.000
1217.456, 4810.000
1218.536, 4822.000
1219.617, 4856.000
1220.698, 4805.000
1221.778, 4807.000
1222.859, 4876.000
1223.939, 4850.000
1225.019, 4804.000
1226.099, 4881.000
1227.178, 4853.000
1228.258, 4775.000
1229.337, 4808.000
1230.417, 4857.000
1231.496, 4816.000
1232.574, 4904.000
1233.653, 4882.000
1234.732, 4792.000
1235.810, 4792.000
1236.888, 4826.000
1237.966, 4774.000
1239.044, 4812.000
1240.122, 4829.000
1241.199, 4739.000
1242.277, 4718.000
1243.354, 4788.000
1244.431, 4734.000
1245.508, 4790.000
1246.585, 4791.000
1247.661, 4790.000
1248.738, 4790.193
1249.814, 4790.000
1250.890, 4737.000
1251.966, 4768.000
1253.042, 4713.000
1254.117, 4755.000
1255.193, 4804.000
1256.268, 4741.000
1257.343, 4746.000
1258.418, 4826.000
1259.493, 4780.000
1260.567, 4806.000
1261.642, 4850.000
1262.716, 4752.000
1263.790, 4742.000
1264.864, 4797.000
1265.938, 4870.000
1267.011, 4808.000
1268.085, 4689.000
1269.158, 4733.000
1270.231, 4746.000
1271.304, 4721.000
1272.377, 4815.000
1273.450, 4809.000
1274.522, 4782.000
1275.594, 4817.000
1276.666, 4709.000
1277.738, 4758.000
1278.810, 4799.000
1279.882, 4760.000
1280.953, 4880.000
1282.025, 4846.000
1283.096, 4847.000
1284.167, 4744.000
1285.238, 4848.000
1286.308, 4902.000
1287.379, 4793.000
1288.449, 4764.000
1289.519, 4861.000
1290.589, 4816.000
1291.659, 4935.000
1292.729, 4755.000
1293.798, 4846.000
1294.868, 4741.000
1295.937, 4815.000
1297.006, 4814.000
1298.075, 4821.000
1299.143, 4827.102
1300.212, 4681.000
1301.280, 4789.000
1302.348, 4765.000
1303.416, 4728.000
1304.484, 4821.000
1305.552, 4822.000
1306.620, 4769.000
1307.687, 4701.000
1308.754, 4725.000
1309.821, 4708.000
1310.888, 4756.000
1311.955, 4687.000
1313.021, 4788.000
1314.088, 4711.000
1315.154, 4751.000
1316.220, 4730.000
1317.286, 4732.000
1318.352, 4734.000
1319.417, 4750.000
1320.483, 4796.000
1321.548, 4944.000
1322.613, 4853.962
1323.678, 4841.102
1324.743, 4790.000
1325.807, 4696.000
1326.872, 4779.000
1327.936, 4784.000
1329.000, 4848.000
1330.064, 4761.000
1331.128, 4716.000
1332.191, 4798.000
1333.255, 4742.162
1334.318, 4833.000
1335.381, 4764.000
1336.444, 4869.000
1337.507, 4919.000
1338.569, 4798.000
1339.632, 4861.000
1340.694, 4861.000
1341.756, 4817.000
1342.818, 4909.000
1343.880, 4798.000
1344.941, 5010.000
1346.003, 4932.186
1347.064, 4939.371
1348.125, 4888.000
1349.186, 4932.000
1350.247, 4914.000
1351.308, 4973.000
1352.368, 4793.000
1353.428, 4837.000
1354.489, 4947.000
1355.549, 4848.000
1356.608, 4947.000
1357.668, 4971.000
1358.727, 4936.000
1359.787, 5056.000
1360.846, 4936.000
1361.905, 4963.000
1362.964, 4916.000
1364.022, 4908.000
1365.081, 4983.000
1366.139, 5008.000
1367.197, 4903.000
1368.255, 4975.000
1369.313, 4877.000
1370.371, 4904.000
1371.428, 4956.000
1372.486, 4970.000
1373.543, 4943.000
1374.600, 4937.000
1375.657, 4943.000
1376.713, 5001.000
1377.770, 4968.000
1378.826, 5022.000
1379.882, 4980.000
1380.938, 4995.000
1381.994, 4939.000
1383.050, 4969.000
1384.106, 4865.000
1385.161, 5011.000
1386.216, 4886.000
1387.271, 5042.000
1388.326, 4952.000
1389.381, 5008.000
1390.435, 4937.000
1391.490, 4986.000
1392.544, 4852.000
1393.598, 4895.000
1394.652, 4959.000
1395.705, 4938.000
1396.759, 4988.000
1397.812, 4978.000
1398.866, 4973.000
1399.919, 4967.000
1400.972, 4962.179
1402.024, 4968.966
1403.077, 4965.000
1404.129, 4980.000
1405.181, 5004.000
1406.233, 4998.000
1407.285, 4936.000
1408.337, 4989.000
1409.389, 5039.000
1410.440, 4965.000
1411.491, 5076.000
1412.542, 5071.000
1413.593, 5040.000
1414.644, 5020.000
1415.695, 5048.000
1416.745, 5058.000
1417.795, 5023.000
1418.845, 5008.000
1419.895, 5094.000
1420.945, 5091.000
1421.995, 5108.000
1423.044, 5075.000
1424.093, 5126.000
1425.142, 5139.000
1426.191, 5205.000
1427.240, 5070.000
1428.289, 5169.000
1429.337, 5064.000
1430.385, 5228.000
1431.433, 5152.000
1432.481, 5155.000
1433.529, 5124.000
1434.577, 5101.000
1435.624, 5118.000
1436.672, 5101.000
1437.719, 5054.000
1438.766, 5158.000
1439.812, 5115.000
1440.859, 5217.000
1441.905, 5131.000
1442.952, 5070.000
1443.998, 5169.000
1445.044, 5203.000
1446.090, 5184.000
1447.135, 5159.000
1448.181, 5216.000
1449.226, 5086.000
1450.271, 5133.000
1451.316, 5158.000
1452.361, 5122.000
1453.405, 5090.000
1454.450, 5177.000
1455.494, 5135.000
1456.538, 5102.000
1457.582, 5178.000
1458.626, 5198.000
1459.670, 5223.000
1460.713, 5157.000
1461.757, 5241.000
1462.800, 5093.000
1463.843, 5136.000
1464.886, 5136.000
1465.928, 5182.000
1466.971, 5177.000
1468.013, 5185.000
1469.055, 5212.000
1470.097, 5175.000
1471.139, 5254.000
1472.181, 5189.000
1473.222, 5169.000
1474.263, 5205.000
1475.305, 5159.000
1476.346, 5239.000
1477.386, 5256.000
1478.427, 5249.000
1479.468, 5195.000
1480.508, 5283.000
1481.548, 5268.000
1482.588, 5320.000
1483.628, 5335.000
1484.668, 5370.000
1485.707, 5369.507
1486.747, 5364.926
1487.786, 5330.000
1488.825, 5355.000
1489.864, 5285.000
1490.902, 5323.000
1491.941, 5304.000
1492.979, 5311.000
1494.017, 5278.000
1495.055, 5350.000
1496.093, 5372.000
1497.131, 5367.000
1498.168, 5316.000
1499.206, 5348.000
1500.243, 5299.000
1501.280, 5411.000
1502.317, 5373.000
1503.354, 5384.000
1504.390, 5399.000
1505.426, 5417.000
1506.463, 5443.000
1507.499, 5380.000
1508.535, 5360.000
1509.570, 5407.000
1510.606, 5523.000
1511.641, 5460.763
1512.676, 5483.000
1513.711, 5430.000
1514.746, 5396.000
1515.781, 5435.000
1516.816, 5502.000
1517.850, 5388.000
1518.884, 5487.000
1519.918, 5614.000
1520.952, 5596.000
1521.986, 5499.000
1523.019, 5557.000
1524.053, 5494.000
1525.086, 5627.000
1526.119, 5617.000
1527.152, 5587.000
1528.185, 5576.000
1529.217, 5558.000
1530.250, 5619.000
1531.282, 5599.000
1532.314, 5650.000
1533.346, 5659.000
1534.377, 5606.000
1535.409, 5585.000
1536.440, 5641.000
1537.472, 5657.000
1538.503, 5728.000
1539.534, 5660.000
1540.564, 5649.000
1541.595, 5593.000
1542.625, 5608.588
1543.656, 5664.000
1544.686, 5667.000
1545.716, 5664.000
1546.745, 5725.000
1547.775, 5632.000
1548.804, 5740.000
1549.834, 5738.000
1550.863, 5803.000
1551.892, 5830.000
1552.920, 5924.000
1553.949, 5831.000
1554.977, 5960.000
1556.006, 5881.000
1557.034, 5722.000
1558.062, 5799.000
1559.089, 5747.000
1560.117, 5791.000
1561.144, 5735.000
1562.172, 5906.000
1563.199, 5731.000
1564.226, 5863.000
1565.252, 5852.000
1566.279, 5793.000
1567.305, 5770.000
1568.332, 5733.000
1569.358, 5932.000
1570.384, 5864.000
1571.409, 5906.000
##END=



