##NAMES=Axinite-(Fe)
##RRUFFID=R060558
##IDEAL CHEMISTRY=Ca_4_Fe^2+^_2_Al_4_[B_2_Si_8_O_30_](OH)_2_
##LOCALITY=unknown
##OWNER=RRUFF
##SOURCE=Gemological Institute of America
##DESCRIPTION=Brown flattened crystal
##STATUS=The identification of this mineral has been confirmed by X-ray diffraction and chemical analysis
##URL=rruff.info/R060558
##MEASURED CHEMISTRY=Ca_2.00_(Fe^2+^_0.60_Mg_0.35_Mn_0.05_)_Î£=1_Al_2.00_BSi_4.00_O_15_(OH) ; B not measured
##PIN_ID=M00962
##ORIENTATION=Laser parallel to a* (1 0 0). Fiducial mark perpendicular to laser is parallel to b [0 1 0]
130.1020, 16710.00
131.3430, 16964.00
132.5840, 16949.00
133.8240, 16958.00
135.0650, 17124.00
136.3050, 17443.00
137.5450, 17720.00
138.7850, 18035.00
140.0250, 18144.00
141.2640, 18264.00
142.5030, 18329.00
143.7430, 18334.00
144.9810, 18339.00
146.2200, 18493.00
147.4590, 18707.00
148.6970, 19012.00
149.9350, 18974.00
151.1730, 19740.00
152.4110, 19561.00
153.6480, 19812.00
154.8860, 20113.00
156.1230, 19933.00
157.3600, 19796.00
158.5960, 19602.00
159.8330, 19621.00
161.0690, 19654.00
162.3050, 19646.00
163.5410, 19817.00
164.7770, 20525.00
166.0130, 20895.00
167.2480, 21129.00
168.4830, 21993.00
169.7180, 22267.00
170.9530, 22056.00
172.1880, 21751.00
173.4220, 21322.00
174.6560, 20930.00
175.8900, 20435.00
177.1240, 20082.00
178.3580, 19779.00
179.5910, 19351.00
180.8250, 19048.00
182.0580, 18949.00
183.2900, 18752.00
184.5230, 18819.00
185.7560, 18816.00
186.9880, 19058.00
188.2200, 19114.00
189.4520, 19406.00
190.6830, 19676.00
191.9150, 19960.00
193.1460, 20095.00
194.3770, 20250.00
195.6080, 20148.00
196.8390, 20117.00
198.0700, 20199.00
199.3000, 20272.00
200.5300, 20419.00
201.7600, 20677.00
202.9900, 21252.00
204.2190, 21589.00
205.4490, 22040.00
206.6780, 22568.00
207.9070, 22925.00
209.1360, 23243.33
210.3640, 23582.00
211.5930, 23605.00
212.8210, 23863.00
214.0490, 23730.00
215.2770, 23709.00
216.5040, 23518.00
217.7320, 23228.00
218.9590, 23027.00
220.1860, 22446.00
221.4130, 22020.00
222.6400, 21591.00
223.8660, 21327.00
225.0920, 20915.00
226.3190, 20758.00
227.5450, 20481.00
228.7700, 20437.00
229.9960, 20265.00
231.2210, 20075.00
232.4460, 20226.00
233.6710, 20055.00
234.8960, 20116.00
236.1210, 20404.00
237.3450, 20265.00
238.5690, 20573.00
239.7930, 20620.00
241.0170, 20645.00
242.2410, 20826.00
243.4640, 20905.00
244.6870, 21119.00
245.9100, 21210.00
247.1330, 21309.00
248.3560, 21878.00
249.5780, 21861.00
250.8000, 21989.00
252.0230, 22446.00
253.2440, 22594.00
254.4660, 22667.00
255.6880, 22800.00
256.9090, 22852.00
258.1300, 22858.00
259.3510, 23060.00
260.5720, 23215.00
261.7920, 23448.00
263.0130, 23538.00
264.2330, 23963.00
265.4530, 24404.00
266.6730, 24557.00
267.8920, 24868.00
269.1120, 24945.00
270.3310, 25196.00
271.5500, 25301.00
272.7690, 25465.00
273.9880, 25061.00
275.2060, 24900.00
276.4240, 24684.00
277.6430, 24539.00
278.8600, 23889.00
280.0780, 23692.00
281.2960, 23410.00
282.5130, 23122.00
283.7300, 22852.00
284.9470, 22881.00
286.1640, 22742.00
287.3810, 22705.00
288.5970, 22961.00
289.8130, 23150.00
291.0290, 23322.00
292.2450, 23787.00
293.4610, 24169.00
294.6760, 24407.00
295.8910, 24902.00
297.1060, 24832.00
298.3210, 25333.00
299.5360, 25469.00
300.7510, 25502.00
301.9650, 25482.00
303.1790, 25399.00
304.3930, 25486.00
305.6070, 25390.00
306.8200, 25204.00
308.0340, 24964.00
309.2470, 24883.00
310.4600, 24656.00
311.6730, 24604.00
312.8850, 24574.00
314.0980, 24793.00
315.3100, 25337.00
316.5220, 25587.00
317.7340, 26139.00
318.9460, 26266.00
320.1570, 26321.00
321.3690, 25916.00
322.5800, 25520.00
323.7910, 24886.00
325.0010, 24339.00
326.2120, 24050.00
327.4220, 23676.00
328.6330, 23414.00
329.8430, 23363.00
331.0520, 23285.40
332.2620, 23298.00
333.4720, 23512.00
334.6810, 23803.00
335.8900, 24159.00
337.0990, 24297.00
338.3070, 24912.00
339.5160, 25497.00
340.7240, 26261.00
341.9320, 27110.00
343.1400, 27750.00
344.3480, 28330.00
345.5560, 28202.00
346.7630, 27655.00
347.9700, 27337.00
349.1770, 26964.00
350.3840, 26640.00
351.5910, 26144.00
352.7970, 25888.00
354.0040, 25441.00
355.2100, 24844.00
356.4160, 24471.00
357.6220, 23792.00
358.8270, 23330.00
360.0320, 23220.00
361.2380, 22969.00
362.4430, 22835.00
363.6470, 22823.00
364.8520, 22497.00
366.0560, 22340.00
367.2610, 22501.00
368.4650, 22378.00
369.6690, 22617.00
370.8720, 22708.00
372.0760, 22783.00
373.2790, 22863.81
374.4820, 22825.00
375.6850, 22964.00
376.8880, 22862.00
378.0910, 23012.00
379.2930, 22965.00
380.4950, 23284.00
381.6970, 23573.00
382.8990, 23687.00
384.1010, 24119.00
385.3020, 24798.00
386.5040, 25198.00
387.7050, 25631.00
388.9060, 26200.00
390.1060, 26258.00
391.3070, 26378.00
392.5070, 26340.00
393.7080, 26142.00
394.9080, 25843.00
396.1070, 25482.00
397.3070, 25079.00
398.5070, 24973.00
399.7060, 24799.00
400.9050, 24477.00
402.1040, 24188.00
403.3030, 24194.00
404.5010, 24330.00
405.7000, 24324.00
406.8980, 23887.00
408.0960, 24192.00
409.2940, 24199.00
410.4910, 24336.00
411.6890, 24580.00
412.8860, 24961.00
414.0830, 25498.00
415.2800, 25927.00
416.4770, 26364.00
417.6730, 26760.00
418.8690, 27287.00
420.0660, 27612.00
421.2620, 28129.00
422.4570, 28559.00
423.6530, 29278.00
424.8480, 29519.00
426.0440, 29888.00
427.2390, 30485.00
428.4340, 30367.00
429.6280, 30307.00
430.8230, 30260.00
432.0170, 29662.00
433.2110, 28834.00
434.4050, 27986.00
435.5990, 27300.00
436.7930, 26643.00
437.9860, 26270.00
439.1800, 26008.00
440.3730, 25906.00
441.5660, 26132.00
442.7580, 25982.00
443.9510, 26234.00
445.1430, 26163.00
446.3350, 26449.00
447.5270, 25957.00
448.7190, 25414.00
449.9110, 25259.00
451.1020, 24778.00
452.2930, 24711.00
453.4850, 24545.00
454.6750, 24587.00
455.8660, 24421.00
457.0570, 24609.00
458.2470, 24181.00
459.4370, 24427.00
460.6270, 24397.00
461.8170, 24450.00
463.0070, 24381.00
464.1960, 24474.00
465.3850, 24449.00
466.5750, 24560.00
467.7630, 24676.85
468.9520, 24814.00
470.1410, 24918.00
471.3290, 25200.00
472.5170, 25224.00
473.7050, 25495.00
474.8930, 25201.00
476.0810, 25346.00
477.2680, 25511.00
478.4560, 25795.00
479.6430, 26025.00
480.8300, 26430.00
482.0160, 26907.00
483.2030, 27512.00
484.3890, 27761.00
485.5760, 28073.00
486.7620, 27894.00
487.9480, 27480.00
489.1330, 26843.00
490.3190, 26478.00
491.5040, 25913.00
492.6890, 25612.00
493.8740, 25569.00
495.0590, 25298.00
496.2440, 24981.00
497.4280, 25343.00
498.6120, 25086.00
499.7960, 25456.00
500.9800, 25186.00
502.1640, 25458.00
503.3470, 25401.00
504.5310, 25296.00
505.7140, 25522.00
506.8970, 25488.00
508.0800, 25528.00
509.2620, 25604.00
510.4450, 25695.00
511.6270, 25619.00
512.8090, 25749.00
513.9910, 25722.00
515.1730, 25586.00
516.3550, 25853.00
517.5360, 25738.00
518.7170, 25676.00
519.8980, 25622.00
521.0790, 25493.00
522.2600, 25655.00
523.4400, 25427.00
524.6210, 25536.00
525.8010, 25591.00
526.9810, 25533.00
528.1610, 25692.00
529.3400, 25673.00
530.5200, 25697.00
531.6990, 25841.00
532.8780, 25784.00
534.0570, 25779.00
535.2360, 26094.00
536.4140, 26023.00
537.5930, 26170.00
538.7710, 26200.00
539.9490, 26290.00
541.1270, 26531.00
542.3040, 26704.00
543.4820, 26850.00
544.6590, 27033.00
545.8360, 27191.00
547.0130, 27226.00
548.1900, 26914.00
549.3670, 26929.00
550.5430, 26996.00
551.7190, 26730.00
552.8960, 26824.00
554.0710, 26906.00
555.2470, 26820.00
556.4230, 27224.00
557.5980, 27043.00
558.7730, 27477.00
559.9480, 27401.00
561.1230, 27843.00
562.2980, 27898.00
563.4720, 27825.00
564.6470, 27944.00
565.8210, 27638.00
566.9950, 27648.00
568.1690, 27941.00
569.3420, 27883.00
570.5160, 28104.00
571.6890, 28413.00
572.8620, 28235.00
574.0350, 28465.00
575.2080, 28703.00
576.3800, 28605.00
577.5530, 28371.00
578.7250, 28472.00
579.8970, 28260.00
581.0690, 28245.00
582.2410, 28633.00
583.4120, 28286.00
584.5830, 28586.00
585.7550, 28602.00
586.9260, 28892.00
588.0960, 29008.00
589.2670, 29341.00
590.4380, 29202.00
591.6080, 29184.00
592.7780, 28886.00
593.9480, 28490.00
595.1180, 28220.00
596.2870, 28037.00
597.4570, 27789.00
598.6260, 27611.00
599.7950, 27558.00
600.9640, 27610.00
602.1330, 27690.00
603.3010, 27842.00
604.4700, 27849.00
605.6380, 27996.96
606.8060, 28095.06
607.9740, 28206.00
609.1420, 28387.00
610.3090, 28440.00
611.4760, 28720.00
612.6440, 28984.00
613.8110, 29048.00
614.9770, 29239.00
616.1440, 29291.00
617.3110, 29424.00
618.4770, 29519.00
619.6430, 29530.00
620.8090, 29319.00
621.9750, 29145.00
623.1400, 29034.00
624.3060, 28859.00
625.4710, 28618.00
626.6360, 28385.00
627.8010, 28214.00
628.9660, 28094.00
630.1300, 27991.00
631.2950, 28146.00
632.4590, 27917.00
633.6230, 28094.00
634.7870, 28097.00
635.9510, 28024.00
637.1140, 28319.00
638.2780, 28332.00
639.4410, 28639.00
640.6040, 28617.00
641.7670, 28731.00
642.9290, 28909.00
644.0920, 29036.00
645.2540, 29046.39
646.4160, 29029.00
647.5780, 29046.00
648.7400, 28875.00
649.9020, 28896.00
651.0630, 28804.00
652.2250, 28815.00
653.3860, 28627.00
654.5470, 28562.00
655.7080, 28539.00
656.8680, 28442.00
658.0290, 28701.00
659.1890, 28807.00
660.3490, 28635.00
661.5090, 28901.00
662.6690, 28872.00
663.8280, 28836.00
664.9880, 29156.00
666.1470, 29475.00
667.3060, 29645.00
668.4650, 29983.76
669.6240, 30319.26
670.7820, 30565.00
671.9410, 31085.00
673.0990, 31416.00
674.2570, 31854.00
675.4150, 32295.00
676.5720, 32665.00
677.7300, 32716.00
678.8870, 32486.00
680.0450, 32153.00
681.2020, 31516.00
682.3590, 31172.00
683.5150, 30735.00
684.6720, 30468.97
685.8280, 30085.00
686.9840, 30146.00
688.1400, 30012.00
689.2960, 29990.00
690.4520, 30148.00
691.6070, 29988.00
692.7630, 29836.00
693.9180, 30217.00
695.0730, 30338.00
696.2280, 30401.00
697.3820, 30676.00
698.5370, 30910.00
699.6910, 31144.00
700.8450, 31794.00
701.9990, 32245.00
703.1530, 32972.00
704.3070, 33755.00
705.4600, 34764.00
706.6130, 35723.00
707.7660, 37464.00
708.9190, 38922.00
710.0720, 41010.00
711.2250, 42437.00
712.3770, 43998.00
713.5300, 45097.00
714.6820, 45067.00
715.8340, 44512.00
716.9850, 43063.00
718.1370, 41053.00
719.2880, 39445.00
720.4400, 37538.00
721.5910, 35880.00
722.7420, 34954.00
723.8930, 34043.00
725.0430, 33425.00
726.1940, 32700.00
727.3440, 32233.00
728.4940, 31800.00
729.6440, 31751.00
730.7940, 31511.00
731.9430, 31314.00
733.0930, 31140.00
734.2420, 30806.00
735.3910, 30908.00
736.5400, 30675.00
737.6890, 30856.00
738.8370, 30717.00
739.9860, 30909.00
741.1340, 30807.00
742.2820, 31027.00
743.4300, 30862.00
744.5780, 30749.00
745.7250, 30789.00
746.8730, 30894.00
748.0200, 30847.00
749.1670, 30806.00
750.3140, 31100.00
751.4610, 31241.00
752.6070, 31120.00
753.7540, 31013.00
754.9000, 31168.00
756.0460, 31174.00
757.1920, 31314.00
758.3380, 31530.00
759.4830, 31686.00
760.6280, 31947.00
761.7740, 32011.00
762.9190, 32326.00
764.0640, 32301.00
765.2080, 32533.00
766.3530, 32755.00
767.4970, 32690.00
768.6420, 32810.00
769.7860, 32727.00
770.9300, 32453.00
772.0730, 32540.00
773.2170, 32278.00
774.3600, 32189.00
775.5040, 32076.00
776.6470, 31861.00
777.7900, 31829.00
778.9320, 31585.00
780.0750, 31882.00
781.2170, 31711.00
782.3600, 31821.00
783.5020, 31658.00
784.6440, 31610.00
785.7850, 31672.00
786.9270, 31526.00
788.0680, 31645.00
789.2100, 31595.00
790.3510, 31597.00
791.4920, 31660.00
792.6320, 31696.00
793.7730, 31776.00
794.9130, 31731.00
796.0540, 31809.00
797.1940, 31698.00
798.3340, 31657.00
799.4730, 31908.00
800.6130, 31748.00
801.7520, 31929.00
802.8920, 31711.00
804.0310, 31920.00
805.1700, 32095.00
806.3090, 31969.00
807.4470, 32378.00
808.5860, 32048.00
809.7240, 32206.00
810.8620, 32178.00
812.0000, 32465.00
813.1380, 32230.00
814.2750, 32409.00
815.4130, 32287.00
816.5500, 32306.00
817.6870, 32467.00
818.8240, 32435.00
819.9610, 32387.00
821.0980, 32260.00
822.2340, 32357.00
823.3700, 32567.00
824.5070, 32415.00
825.6430, 32525.00
826.7780, 32449.00
827.9140, 32575.00
829.0500, 32563.93
830.1850, 32611.00
831.3200, 32591.00
832.4550, 32636.00
833.5900, 32668.00
834.7250, 32693.00
835.8590, 32724.91
836.9930, 32771.92
838.1280, 32768.00
839.2620, 32890.00
840.3950, 32905.00
841.5290, 32999.68
842.6630, 33076.64
843.7960, 33162.00
844.9290, 33214.00
846.0620, 33375.00
847.1950, 33408.00
848.3280, 33416.00
849.4600, 33511.00
850.5930, 33478.30
851.7250, 33727.00
852.8570, 33498.00
853.9890, 33734.00
855.1210, 33867.00
856.2520, 33824.00
857.3840, 33971.00
858.5150, 33875.00
859.6460, 34224.00
860.7770, 34269.00
861.9080, 34132.00
863.0380, 34350.00
864.1690, 34247.00
865.2990, 34251.00
866.4290, 34115.00
867.5590, 34545.00
868.6890, 34693.00
869.8190, 34413.00
870.9480, 34378.00
872.0770, 34352.00
873.2070, 34636.00
874.3360, 34628.00
875.4640, 34978.00
876.5930, 34636.00
877.7220, 35008.00
878.8500, 34887.00
879.9780, 34768.00
881.1060, 34944.00
882.2340, 34788.00
883.3620, 35191.00
884.4890, 34966.00
885.6170, 35094.00
886.7440, 35332.00
887.8710, 35445.00
888.9980, 35059.00
890.1240, 35567.00
891.2510, 35662.00
892.3770, 35910.00
893.5040, 36255.00
894.6300, 36544.00
895.7560, 36994.00
896.8810, 37139.00
898.0070, 37482.00
899.1330, 37853.00
900.2580, 38344.00
901.3830, 38818.00
902.5080, 39272.00
903.6330, 39788.00
904.7570, 40240.00
905.8820, 40285.00
907.0060, 40091.00
908.1300, 40204.00
909.2540, 39850.00
910.3780, 39139.00
911.5020, 38864.00
912.6250, 38546.00
913.7490, 38095.00
914.8720, 37848.43
915.9950, 37474.48
917.1180, 37237.00
918.2400, 36944.00
919.3630, 36619.00
920.4850, 36644.00
921.6080, 36135.00
922.7300, 36326.00
923.8520, 36158.00
924.9730, 36124.00
926.0950, 36236.00
927.2160, 36089.00
928.3380, 36313.00
929.4590, 36112.00
930.5800, 36387.00
931.7010, 36691.00
932.8210, 36630.00
933.9420, 36581.00
935.0620, 36526.00
936.1820, 36612.00
937.3020, 36704.00
938.4220, 36862.00
939.5420, 36904.00
940.6610, 36754.00
941.7810, 36939.00
942.9000, 37179.00
944.0190, 37527.00
945.1380, 37857.00
946.2570, 37970.00
947.3750, 37893.00
948.4940, 38551.00
949.6120, 38765.00
950.7300, 39271.00
951.8480, 39603.00
952.9660, 40042.00
954.0830, 40282.00
955.2010, 40815.00
956.3180, 41329.00
957.4350, 42105.00
958.5520, 42923.00
959.6690, 43756.00
960.7860, 44470.00
961.9020, 45540.00
963.0190, 46463.00
964.1350, 47269.00
965.2510, 47212.82
966.3670, 47459.00
967.4830, 46545.00
968.5980, 45649.00
969.7140, 44999.00
970.8290, 44631.91
971.9440, 44435.00
973.0590, 44450.00
974.1740, 44646.00
975.2880, 45069.00
976.4030, 45483.00
977.5170, 46285.00
978.6310, 46566.00
979.7450, 46481.00
980.8590, 46502.00
981.9730, 46175.00
983.0860, 45797.00
984.2000, 45305.00
985.3130, 44637.00
986.4260, 44195.00
987.5390, 43935.00
988.6520, 43728.00
989.7640, 43688.00
990.8770, 43464.00
991.9890, 43448.00
993.1010, 43209.00
994.2130, 43317.00
995.3250, 43240.00
996.4370, 43337.00
997.5480, 43267.00
998.6590, 43716.00
999.7710, 43535.00
1000.882, 43669.00
1001.993, 43931.00
1003.103, 43871.00
1004.214, 43602.00
1005.324, 43200.00
1006.434, 43118.00
1007.545, 42489.00
1008.655, 42006.00
1009.764, 41417.00
1010.874, 41312.00
1011.983, 40922.00
1013.093, 40296.00
1014.202, 39862.00
1015.311, 39866.00
1016.420, 39514.00
1017.528, 39329.00
1018.637, 39043.00
1019.745, 39260.00
1020.854, 39136.00
1021.962, 38711.00
1023.070, 38765.00
1024.177, 39152.00
1025.285, 39322.00
1026.392, 38967.00
1027.500, 39250.00
1028.607, 39121.00
1029.714, 39146.00
1030.821, 39190.00
1031.927, 39117.00
1033.034, 39354.00
1034.140, 39288.00
1035.246, 39146.00
1036.352, 39293.00
1037.458, 39246.00
1038.564, 39294.00
1039.670, 39398.00
1040.775, 39566.00
1041.880, 39435.00
1042.986, 39390.00
1044.090, 39217.00
1045.195, 39412.00
1046.300, 39520.00
1047.404, 39652.00
1048.509, 39732.00
1049.613, 39884.17
1050.717, 39664.00
1051.821, 40089.00
1052.925, 40120.00
1054.028, 40037.00
1055.132, 40310.02
1056.235, 40743.00
1057.338, 40443.00
1058.441, 40528.00
1059.544, 40318.00
1060.647, 40307.00
1061.749, 40285.00
1062.851, 40362.00
1063.954, 40213.00
1065.056, 40208.00
1066.158, 40154.00
1067.259, 39953.00
1068.361, 39931.00
1069.462, 40080.00
1070.564, 40183.00
1071.665, 40139.00
1072.766, 39945.00
1073.867, 40207.00
1074.967, 40475.00
1076.068, 40637.00
1077.168, 40366.00
1078.268, 40693.00
1079.368, 40932.00
1080.468, 41158.00
1081.568, 41449.00
1082.668, 41601.00
1083.767, 41624.00
1084.866, 41620.00
1085.966, 41743.00
1087.065, 41627.00
1088.163, 41528.00
1089.262, 41118.00
1090.361, 41073.00
1091.459, 40551.00
1092.557, 40844.00
1093.655, 40775.00
1094.753, 40573.00
1095.851, 40698.00
1096.949, 40412.00
1098.046, 40653.00
1099.143, 40637.00
1100.241, 40359.00
1101.338, 40423.00
1102.434, 40410.00
1103.531, 40392.00
1104.628, 40822.00
1105.724, 40621.00
1106.820, 40656.00
1107.916, 40732.00
1109.012, 40593.00
1110.108, 40558.00
1111.204, 40673.00
1112.299, 40761.00
1113.395, 40928.00
1114.490, 40754.00
1115.585, 40884.00
1116.680, 40606.00
1117.775, 40689.00
1118.869, 40597.00
1119.964, 40681.00
1121.058, 40805.00
1122.152, 40918.00
1123.246, 40736.00
1124.340, 40752.00
1125.434, 40753.00
1126.527, 40786.00
1127.620, 40759.00
1128.714, 41139.00
1129.807, 40934.00
1130.900, 41094.00
1131.992, 41294.00
1133.085, 40767.00
1134.178, 40999.00
1135.270, 40992.00
1136.362, 40916.00
1137.454, 41057.00
1138.546, 41047.91
1139.638, 41425.00
1140.729, 41109.00
1141.821, 41290.00
1142.912, 41219.00
1144.003, 41122.00
1145.094, 41231.00
1146.185, 41283.00
1147.276, 41382.00
1148.366, 41456.00
1149.456, 41478.00
1150.547, 41462.23
1151.637, 41555.00
1152.727, 41381.00
1153.816, 41259.00
1154.906, 41273.00
1155.995, 41502.00
1157.085, 41356.00
1158.174, 41655.00
1159.263, 41861.00
1160.352, 41638.00
1161.441, 41557.00
1162.529, 41886.00
1163.618, 41999.00
1164.706, 41770.00
1165.794, 41596.00
1166.882, 41604.00
1167.970, 41863.00
1169.058, 41954.00
1170.145, 41883.00
1171.232, 41982.00
1172.320, 41997.00
1173.407, 42054.00
1174.494, 42074.00
1175.580, 42090.00
1176.667, 41917.00
1177.754, 42136.00
1178.840, 41979.00
1179.926, 42253.00
1181.012, 42352.00
1182.098, 41995.00
1183.184, 42086.00
1184.269, 42277.00
1185.355, 42347.00
1186.440, 42123.00
1187.525, 42594.00
1188.610, 42342.00
1189.695, 42087.00
1190.780, 42330.00
1191.864, 42565.00
1192.949, 42537.00
1194.033, 42377.00
1195.117, 42376.00
1196.201, 42647.00
1197.285, 42797.00
1198.369, 42489.00
1199.452, 42713.00
1200.536, 42631.00
1201.619, 42474.00
1202.702, 42779.00
1203.785, 42743.00
1204.868, 42526.00
1205.950, 42467.00
1207.033, 42869.00
1208.115, 42845.00
1209.197, 42817.00
1210.279, 43064.00
1211.361, 43036.00
1212.443, 43071.00
1213.525, 43254.00
1214.606, 43123.00
1215.687, 43209.00
1216.769, 43090.00
1217.850, 42821.00
1218.930, 43319.00
1220.011, 43081.00
1221.092, 43408.00
1222.172, 43221.00
1223.252, 43276.00
1224.333, 43238.00
1225.413, 43336.00
1226.492, 43383.00
1227.572, 43390.20
1228.652, 43372.00
1229.731, 43409.00
1230.810, 43483.00
1231.889, 43442.00
1232.968, 43478.00
1234.047, 43691.00
1235.126, 43560.00
1236.204, 43602.00
1237.283, 43504.00
1238.361, 43757.00
1239.439, 43832.00
1240.517, 43595.00
1241.595, 43668.00
1242.673, 43585.04
1243.750, 43844.00
1244.827, 43547.00
1245.905, 43905.00
1246.982, 44065.00
1248.059, 43915.00
1249.135, 43932.00
1250.212, 44118.00
1251.288, 44048.00
1252.365, 44191.00
1253.441, 44126.00
1254.517, 44176.00
1255.593, 44214.00
1256.669, 44100.00
1257.744, 44281.00
1258.820, 44268.94
1259.895, 44293.95
1260.970, 44401.00
1262.045, 44335.00
1263.120, 44419.00
1264.195, 44394.00
1265.270, 44421.00
1266.344, 44745.00
1267.418, 44356.00
1268.492, 44557.00
1269.566, 45073.00
1270.640, 44595.00
1271.714, 44660.00
1272.788, 44695.00
1273.861, 44408.00
1274.934, 44753.00
1276.007, 44735.00
1277.080, 44405.00
1278.153, 44450.00
1279.226, 44556.00
1280.299, 44672.00
1281.371, 44780.00
1282.443, 44604.00
1283.515, 44749.00
1284.587, 44604.00
1285.659, 44912.00
1286.731, 44985.00
1287.802, 45049.00
1288.874, 45079.00
1289.945, 45174.00
1291.016, 45199.00
1292.087, 45242.00
1293.158, 45315.00
1294.229, 45320.00
1295.299, 45361.00
1296.370, 45424.18
1297.440, 45355.00
1298.510, 45493.00
1299.580, 45464.00
1300.650, 45376.00
1301.720, 45421.00
1302.789, 45543.00
1303.859, 45574.00
1304.928, 45441.00
1305.997, 45968.00
1307.066, 46154.00
1308.135, 45954.00
1309.203, 45625.00
1310.272, 45758.00
1311.340, 45931.00
1312.409, 45798.00
1313.477, 45777.00
1314.545, 45890.00
1315.612, 46011.00
1316.680, 46070.00
1317.748, 45981.00
1318.815, 46119.00
1319.882, 46221.00
1320.949, 46213.00
1322.016, 46019.00
1323.083, 46109.00
1324.150, 46086.00
1325.216, 46062.00
1326.283, 46385.00
1327.349, 46211.00
1328.415, 46298.00
1329.481, 46688.00
1330.547, 46407.00
1331.613, 46308.00
1332.678, 46392.00
1333.744, 46509.00
1334.809, 46731.00
1335.874, 46778.50
1336.939, 46807.42
1338.004, 46872.00
1339.068, 46776.00
1340.133, 46628.00
1341.197, 46642.00
1342.262, 46671.00
1343.326, 46857.00
1344.390, 46818.00
1345.453, 46846.00
1346.517, 46826.00
1347.581, 46996.00
1348.644, 46910.00
1349.707, 47073.00
1350.770, 47085.00
1351.833, 46808.00
1352.896, 47075.00
1353.959, 47011.00
1355.022, 46787.00
1356.084, 46987.00
1357.146, 47378.00
1358.208, 47375.00
1359.270, 47270.00
1360.332, 47222.00
1361.394, 47226.00
1362.455, 47178.00
1363.517, 47391.00
1364.578, 47206.00
1365.639, 47328.00
1366.700, 47382.00
1367.761, 47277.00
1368.822, 47456.00
1369.883, 47491.00
1370.943, 47741.00
1372.003, 47472.00
1373.063, 47465.00
1374.123, 47554.00
1375.183, 47528.00
1376.243, 47677.00
1377.303, 47410.00
1378.362, 47365.00
1379.421, 47545.00
1380.481, 47641.00
1381.540, 47575.00
1382.598, 47999.00
1383.657, 47761.00
1384.716, 47846.00
1385.774, 47960.00
1386.833, 47708.00
1387.891, 48000.00
1388.949, 47915.00
1390.007, 48295.00
1391.065, 48261.00
1392.122, 48277.00
1393.180, 48383.98
1394.237, 48048.00
1395.294, 48349.00
1396.351, 48192.00
1397.408, 48063.00
1398.465, 48128.00
1399.522, 48191.00
1400.578, 48437.00
1401.635, 48241.00
1402.691, 48451.00
1403.747, 48072.00
1404.803, 48533.00
1405.859, 48481.00
1406.914, 48257.00
1407.970, 48526.00
1409.025, 48475.00
1410.081, 48356.00
1411.136, 48717.00
1412.191, 48569.00
1413.245, 48662.00
1414.300, 48685.00
1415.355, 49013.00
1416.409, 48653.00
1417.463, 48780.00
1418.518, 48854.00
1419.572, 48724.00
1420.625, 48583.00
1421.679, 48783.00
1422.733, 48832.00
1423.786, 49191.00
1424.840, 48966.00
1425.893, 48910.00
1426.946, 49133.00
1427.999, 49008.00
1429.051, 49259.00
1430.104, 48958.00
1431.157, 49235.00
1432.209, 48867.00
1433.261, 49270.00
1434.313, 49320.00
1435.365, 49247.00
1436.417, 49335.00
1437.468, 49283.00
1438.520, 49205.00
1439.571, 49157.00
1440.623, 49409.00
1441.674, 49339.00
1442.725, 49446.00
1443.775, 49550.00
1444.826, 49434.00
1445.877, 49459.00
1446.927, 49533.00
1447.977, 49889.00
1449.028, 49590.00
1450.078, 49780.00
1451.127, 49782.00
1452.177, 49690.00
1453.227, 49736.00
1454.276, 49941.00
1455.325, 49947.00
1456.375, 49897.00
1457.424, 49813.00
1458.473, 49826.00
1459.521, 50070.00
1460.570, 50029.00
1461.618, 50059.00
1462.667, 50403.00
1463.715, 50167.00
1464.763, 50266.00
1465.811, 50019.00
1466.859, 50094.00
1467.906, 50198.00
1468.954, 50313.00
1470.001, 49927.00
1471.049, 50316.00
1472.096, 50068.00
1473.143, 50175.00
1474.190, 50315.00
1475.236, 50564.00
1476.283, 50293.00
1477.329, 50304.00
1478.376, 50317.00
1479.422, 50264.53
1480.468, 50539.00
1481.514, 50341.00
1482.559, 50538.00
1483.605, 50607.00
1484.650, 50434.00
1485.696, 50695.00
1486.741, 50459.00
1487.786, 50647.00
1488.831, 50468.00
1489.876, 50645.00
1490.920, 50597.00
1491.965, 50739.00
1493.009, 50652.00
1494.054, 50631.00
1495.098, 50564.00
1496.142, 50872.00
1497.185, 50728.00
1498.229, 50441.00
1499.273, 50928.00
1500.316, 50908.00
1501.359, 50533.00
1502.403, 50808.00
1503.446, 50863.00
1504.489, 50678.00
1505.531, 51169.00
1506.574, 51087.00
1507.616, 51090.00
1508.659, 51140.00
1509.701, 50877.00
1510.743, 51167.00
1511.785, 51331.00
1512.827, 51181.00
1513.868, 51177.00
1514.910, 50968.00
1515.951, 51059.80
1516.993, 51112.53
1518.034, 51257.00
1519.075, 51344.00
1520.116, 51537.00
1521.156, 51602.00
1522.197, 51462.00
1523.237, 51615.00
1524.278, 51526.00
1525.318, 51677.00
1526.358, 51671.00
1527.398, 51769.00
1528.438, 51699.00
1529.477, 51869.00
1530.517, 51865.00
1531.556, 52018.00
1532.596, 51774.00
1533.635, 51855.00
1534.674, 51968.00
1535.712, 52038.00
1536.751, 51554.00
1537.790, 51977.00
1538.828, 51816.00
1539.866, 52138.00
1540.905, 52243.00
1541.943, 51894.00
1542.981, 52057.00
1544.018, 52182.00
1545.056, 52123.00
1546.094, 52435.00
1547.131, 52116.00
1548.168, 52308.00
1549.205, 52327.00
1550.242, 52648.00
1551.279, 52132.00
1552.316, 52141.00
1553.352, 52284.00
1554.389, 52564.00
1555.425, 52525.00
1556.461, 52415.00
1557.497, 52513.00
1558.533, 52534.00
1559.569, 52657.00
1560.605, 52643.00
1561.640, 52472.00
1562.675, 52801.00
1563.711, 52934.00
##END=



