##NAMES=Axinite-(Fe)
##RRUFFID=R060183
##IDEAL CHEMISTRY=Ca_4_Fe^2+^_2_Al_4_[B_2_Si_8_O_30_](OH)_2_
##LOCALITY=Skagit Bluffs, near Manning Park, British Columbia, Canada
##OWNER=RRUFF
##SOURCE=Lloyd Twaites
##DESCRIPTION=Light-pink transparent axe-head-shaped single crystal
##STATUS=The identification of this mineral has been confirmed by X-ray diffraction and chemical analysis
##URL=rruff.info/R060183
##MEASURED CHEMISTRY=Ca_2.00_(Fe^2+^_0.58_Mn_0.23_Mg_0.19_)Al_2.00_B_1.00_Si_4.00_O_15_(OH)
##PIN_ID=L00798
##ORIENTATION=Laser parallel to -b* (0 -1 0). Fiducial mark perpendicular to laser is parallel to -c [0 0 -1]
52.67100, 920.0000
53.91000, 910.0000
55.14900, 875.0000
56.38700, 832.0000
57.62600, 821.0000
58.86400, 817.0000
60.10300, 847.0000
61.34100, 848.0000
62.57900, 844.0000
63.81700, 846.0000
65.05400, 820.0000
66.29200, 883.0000
67.52900, 906.0000
68.76700, 1002.000
70.00400, 1044.774
71.24100, 1195.000
72.47700, 1198.000
73.71400, 1278.000
74.95100, 1432.000
76.18700, 1659.000
77.42300, 1838.000
78.65900, 1888.000
79.89500, 2052.000
81.13100, 2177.000
82.36700, 2529.000
83.60200, 2948.000
84.83700, 3374.000
86.07200, 3694.000
87.30800, 4111.000
88.54200, 4712.000
89.77700, 5435.000
91.01200, 6283.000
92.24600, 7255.000
93.48000, 8368.000
94.71400, 9063.000
95.94800, 9590.000
97.18200, 9912.000
98.41600, 9825.000
99.64900, 10314.00
100.8830, 10599.00
102.1160, 11005.00
103.3490, 11314.00
104.5820, 11955.00
105.8150, 12569.00
107.0470, 13322.00
108.2800, 13984.00
109.5120, 13434.00
110.7440, 11247.00
111.9760, 9641.000
113.2080, 8770.000
114.4400, 8291.000
115.6710, 8062.000
116.9030, 7962.000
118.1340, 7725.000
119.3650, 7689.000
120.5960, 7664.000
121.8270, 7693.000
123.0580, 7851.000
124.2880, 7996.000
125.5190, 7703.000
126.7490, 7805.000
127.9790, 7579.000
129.2090, 7356.000
130.4390, 7218.000
131.6680, 7052.000
132.8980, 6972.000
134.1270, 7048.000
135.3560, 7137.000
136.5850, 7398.000
137.8140, 7864.000
139.0430, 8049.000
140.2710, 8369.000
141.5000, 8430.000
142.7280, 8615.000
143.9560, 8964.000
145.1840, 9415.000
146.4120, 10533.00
147.6390, 11719.00
148.8670, 12572.00
150.0940, 13025.00
151.3210, 13089.00
152.5490, 13211.00
153.7750, 13490.00
155.0020, 13967.00
156.2290, 14288.00
157.4550, 13755.00
158.6810, 13367.00
159.9080, 12999.00
161.1340, 13157.00
162.3590, 13632.00
163.5850, 14417.00
164.8110, 15712.00
166.0360, 17567.00
167.2610, 19974.00
168.4860, 22004.00
169.7110, 22915.00
170.9360, 22227.00
172.1610, 20476.00
173.3850, 18283.00
174.6100, 16028.00
175.8340, 14017.00
177.0580, 12421.00
178.2820, 10938.00
179.5050, 9580.000
180.7290, 8749.000
181.9520, 8088.000
183.1760, 7728.000
184.3990, 7490.000
185.6220, 7452.000
186.8450, 7314.000
188.0670, 7622.000
189.2900, 7924.000
190.5120, 8590.000
191.7340, 9139.000
192.9560, 9517.000
194.1780, 9709.000
195.4000, 9880.000
196.6220, 10082.00
197.8430, 10667.00
199.0640, 11584.00
200.2860, 12888.00
201.5070, 14215.00
202.7270, 16096.00
203.9480, 17474.00
205.1690, 18835.00
206.3890, 19892.00
207.6090, 20647.00
208.8290, 20800.00
210.0490, 20942.00
211.2690, 20077.00
212.4890, 19086.00
213.7080, 17763.00
214.9280, 16499.00
216.1470, 14874.00
217.3660, 13711.00
218.5850, 12621.00
219.8030, 11539.00
221.0220, 10580.00
222.2400, 9734.000
223.4590, 9035.000
224.6770, 8380.000
225.8950, 8122.000
227.1120, 7828.000
228.3300, 7480.000
229.5480, 7219.000
230.7650, 7136.000
231.9820, 7182.000
233.1990, 7401.000
234.4160, 7602.000
235.6330, 7920.629
236.8490, 8348.000
238.0660, 8779.000
239.2820, 9467.000
240.4980, 10123.00
241.7140, 10994.00
242.9300, 11687.00
244.1460, 12289.00
245.3610, 12701.40
246.5770, 13053.00
247.7920, 13090.00
249.0070, 13094.00
250.2220, 12881.00
251.4370, 12834.00
252.6510, 12797.00
253.8660, 12307.00
255.0800, 12002.00
256.2940, 11683.00
257.5080, 11401.00
258.7220, 11417.02
259.9360, 11442.21
261.1490, 11708.00
262.3630, 11969.00
263.5760, 12465.00
264.7890, 13083.00
266.0020, 13915.00
267.2150, 14607.00
268.4270, 15520.00
269.6400, 16083.00
270.8520, 16808.00
272.0640, 17177.00
273.2760, 17076.00
274.4880, 16559.00
275.7000, 15948.00
276.9120, 15135.00
278.1230, 14215.00
279.3340, 13335.00
280.5450, 12554.00
281.7560, 12219.00
282.9670, 11863.00
284.1780, 11635.00
285.3880, 11812.00
286.5980, 12145.00
287.8090, 12832.00
289.0190, 13614.00
290.2290, 14751.00
291.4380, 15910.00
292.6480, 17228.00
293.8570, 19030.00
295.0670, 20434.00
296.2760, 21830.00
297.4850, 23136.00
298.6930, 24574.00
299.9020, 25674.00
301.1110, 26816.00
302.3190, 27838.00
303.5270, 28754.00
304.7350, 29321.00
305.9430, 28600.00
307.1510, 26620.00
308.3580, 24567.00
309.5660, 22335.00
310.7730, 20185.00
311.9800, 18799.00
313.1870, 17639.00
314.3940, 16988.00
315.6010, 16631.00
316.8070, 16463.00
318.0130, 16172.00
319.2200, 15568.00
320.4260, 14661.00
321.6310, 13600.00
322.8370, 12441.00
324.0430, 11662.00
325.2480, 11093.00
326.4540, 10738.00
327.6590, 10505.00
328.8640, 10269.00
330.0680, 9994.000
331.2730, 9969.000
332.4780, 9901.000
333.6820, 10096.00
334.8860, 10265.00
336.0900, 10972.00
337.2940, 11793.00
338.4980, 12808.00
339.7010, 14016.00
340.9050, 15224.00
342.1080, 16831.00
343.3110, 18066.00
344.5140, 18776.00
345.7170, 19626.00
346.9200, 20405.00
348.1220, 21481.00
349.3240, 22505.00
350.5270, 22969.00
351.7290, 22379.00
352.9310, 20639.00
354.1320, 18446.00
355.3340, 16081.00
356.5350, 14308.00
357.7370, 12516.00
358.9380, 11236.00
360.1390, 10026.00
361.3400, 9296.000
362.5400, 8765.000
363.7410, 8363.000
364.9410, 8007.000
366.1410, 7970.000
367.3410, 7804.000
368.5410, 7851.000
369.7410, 7943.000
370.9400, 8014.000
372.1400, 8101.000
373.3390, 7940.000
374.5380, 8147.000
375.7370, 8355.000
376.9360, 8662.000
378.1350, 9072.000
379.3330, 9754.000
380.5310, 10684.00
381.7300, 11766.00
382.9280, 13304.00
384.1260, 14969.00
385.3230, 16610.13
386.5210, 18562.00
387.7180, 19803.00
388.9160, 20686.00
390.1130, 21101.00
391.3100, 21089.00
392.5060, 20737.00
393.7030, 19648.00
394.9000, 18272.00
396.0960, 16668.00
397.2920, 15333.00
398.4880, 14115.00
399.6840, 13273.00
400.8800, 12309.00
402.0750, 11692.00
403.2710, 11009.00
404.4660, 10634.00
405.6610, 10509.00
406.8560, 10471.00
408.0510, 10673.00
409.2450, 10985.00
410.4400, 11656.00
411.6340, 12278.00
412.8280, 13539.00
414.0220, 14879.00
415.2160, 15982.00
416.4100, 16952.00
417.6030, 17137.00
418.7970, 17229.00
419.9900, 17598.00
421.1830, 18537.00
422.3760, 19464.00
423.5690, 20566.00
424.7610, 21882.00
425.9540, 22765.00
427.1460, 23244.00
428.3380, 23537.00
429.5300, 22638.00
430.7220, 21196.00
431.9140, 19440.00
433.1050, 17925.00
434.2970, 15843.00
435.4880, 14603.00
436.6790, 13681.00
437.8700, 13173.00
439.0610, 13019.00
440.2510, 13183.00
441.4420, 13416.00
442.6320, 13631.00
443.8220, 13389.00
445.0120, 13057.00
446.2020, 11938.00
447.3910, 11106.00
448.5810, 10420.00
449.7700, 9760.000
450.9600, 9318.000
452.1490, 8974.000
453.3370, 8853.000
454.5260, 8653.000
455.7150, 8656.000
456.9030, 8311.000
458.0910, 8280.000
459.2800, 8103.000
460.4670, 8048.000
461.6550, 8078.000
462.8430, 8133.000
464.0300, 8202.000
465.2180, 8433.000
466.4050, 8671.000
467.5920, 8961.000
468.7790, 9070.000
469.9650, 9216.000
471.1520, 9250.000
472.3380, 9036.000
473.5250, 9043.000
474.7110, 9081.000
475.8970, 9403.977
477.0820, 9764.000
478.2680, 10459.00
479.4540, 11102.00
480.6390, 11986.00
481.8240, 12991.00
483.0090, 13625.00
484.1940, 13545.00
485.3780, 12975.00
486.5630, 11880.00
487.7470, 10649.00
488.9320, 9749.000
490.1160, 9103.000
491.3000, 8525.000
492.4830, 8250.000
493.6670, 7968.000
494.8500, 7928.000
496.0340, 8100.000
497.2170, 8152.000
498.4000, 8484.000
499.5820, 8740.000
500.7650, 9026.000
501.9480, 9519.000
503.1300, 9826.000
504.3120, 10284.00
505.4940, 10536.00
506.6760, 11078.00
507.8580, 11209.00
509.0390, 11420.00
510.2210, 11457.00
511.4020, 11434.00
512.5830, 11149.00
513.7640, 10851.00
514.9450, 10349.00
516.1250, 9724.000
517.3060, 9290.000
518.4860, 9005.000
519.6660, 8682.000
520.8460, 8240.000
522.0260, 7941.000
523.2060, 7877.000
524.3850, 7642.000
525.5650, 7705.000
526.7440, 7568.000
527.9230, 7520.000
529.1020, 7562.000
530.2810, 7708.000
531.4590, 7777.000
532.6380, 7957.000
533.8160, 8230.000
534.9940, 8409.000
536.1720, 8746.000
537.3500, 9142.000
538.5270, 9495.000
539.7050, 9999.000
540.8820, 10534.00
542.0590, 10973.00
543.2360, 11295.00
544.4130, 11438.00
545.5900, 11612.00
546.7660, 11355.00
547.9430, 11242.00
549.1190, 10964.00
550.2950, 10813.00
551.4710, 10630.00
552.6470, 10766.00
553.8220, 11003.00
554.9980, 11344.00
556.1730, 11908.00
557.3480, 12558.00
558.5230, 12975.00
559.6980, 13107.00
560.8730, 13047.00
562.0470, 12783.00
563.2220, 12574.00
564.3960, 12277.00
565.5700, 12225.00
566.7440, 12434.00
567.9170, 12534.00
569.0910, 12885.00
570.2640, 13446.00
571.4380, 13538.00
572.6110, 13675.00
573.7840, 13821.00
574.9570, 13951.00
576.1290, 13955.00
577.3020, 13970.00
578.4740, 14370.00
579.6460, 14768.90
580.8180, 15218.00
581.9900, 16128.00
583.1620, 17107.00
584.3330, 18187.00
585.5040, 19164.00
586.6760, 19825.00
587.8470, 20026.00
589.0180, 19419.00
590.1880, 18515.00
591.3590, 17073.00
592.5290, 15593.00
593.7000, 14102.00
594.8700, 13020.00
596.0400, 12055.00
597.2090, 11428.00
598.3790, 10948.00
599.5490, 10708.00
600.7180, 10610.00
601.8870, 10622.00
603.0560, 10671.00
604.2250, 10993.00
605.3940, 11462.00
606.5620, 11569.00
607.7300, 12015.00
608.8990, 12154.00
610.0670, 12241.00
611.2350, 12175.00
612.4020, 12220.00
613.5700, 11997.00
614.7370, 11898.00
615.9050, 11572.00
617.0720, 11659.00
618.2390, 11233.00
619.4060, 10984.00
620.5720, 10441.00
621.7390, 10186.00
622.9050, 9467.000
624.0710, 9124.000
625.2370, 8695.000
626.4030, 8193.000
627.5690, 8032.000
628.7340, 7742.000
629.9000, 7683.000
631.0650, 7598.000
632.2300, 7534.000
633.3950, 7562.000
634.5600, 7617.000
635.7240, 7771.000
636.8890, 7815.425
638.0530, 8015.000
639.2170, 8003.000
640.3810, 8181.000
641.5450, 8304.000
642.7080, 8220.000
643.8720, 8295.000
645.0350, 8186.000
646.1980, 8086.000
647.3610, 7858.000
648.5240, 7678.000
649.6870, 7624.000
650.8490, 7513.000
652.0120, 7432.000
653.1740, 7475.000
654.3360, 7562.000
655.4980, 7511.000
656.6600, 7567.000
657.8210, 7647.000
658.9830, 7758.000
660.1440, 7979.000
661.3050, 8335.000
662.4660, 8499.000
663.6270, 9042.000
664.7870, 9413.000
665.9480, 10199.00
667.1080, 11002.00
668.2680, 11871.00
669.4280, 13185.00
670.5880, 14560.00
671.7480, 16068.00
672.9070, 17524.00
674.0670, 19066.00
675.2260, 20030.00
676.3850, 20455.00
677.5440, 20240.00
678.7030, 19257.00
679.8610, 17919.00
681.0200, 16383.00
682.1780, 15133.00
683.3360, 13711.00
684.4940, 12698.00
685.6520, 12073.00
686.8090, 11516.00
687.9670, 11166.00
689.1240, 10978.00
690.2810, 10832.27
691.4380, 10988.00
692.5950, 11031.00
693.7520, 11431.00
694.9080, 11950.00
696.0650, 12586.00
697.2210, 13352.00
698.3770, 14397.00
699.5330, 15846.00
700.6880, 17655.00
701.8440, 19646.00
702.9990, 22401.00
704.1550, 26012.00
705.3100, 29910.00
706.4650, 34517.00
707.6190, 39667.00
708.7740, 45084.00
709.9290, 50451.00
711.0830, 55386.00
712.2370, 58306.00
713.3910, 59077.00
714.5450, 57449.00
715.6980, 53605.00
716.8520, 48376.00
718.0050, 42572.00
719.1580, 36680.00
720.3110, 31631.00
721.4640, 27284.00
722.6170, 23650.00
723.7700, 20708.00
724.9220, 18517.00
726.0740, 16737.00
727.2260, 15055.00
728.3780, 14020.00
729.5300, 12978.00
730.6810, 12338.00
731.8330, 11693.00
732.9840, 11308.00
734.1350, 10782.00
735.2860, 10500.00
736.4370, 10153.00
737.5880, 9900.000
738.7380, 9585.000
739.8880, 9397.000
741.0390, 9237.000
742.1890, 9130.000
743.3380, 9019.000
744.4880, 8931.000
745.6380, 8961.000
746.7870, 8994.000
747.9360, 8981.571
749.0850, 8936.000
750.2340, 9064.000
751.3830, 9161.000
752.5310, 9288.000
753.6800, 9436.000
754.8280, 9668.000
755.9760, 10022.00
757.1240, 10400.00
758.2720, 10912.00
759.4190, 11460.00
760.5670, 11889.00
761.7140, 12529.00
762.8610, 13089.00
764.0080, 13301.00
765.1550, 13794.00
766.3020, 14039.00
767.4480, 13949.00
768.5950, 13699.00
769.7410, 13250.00
770.8870, 12600.00
772.0330, 12114.00
773.1780, 11538.00
774.3240, 10892.00
775.4690, 10358.00
776.6140, 10046.00
777.7590, 9424.000
778.9040, 9229.000
780.0490, 9009.000
781.1940, 8611.000
782.3380, 8515.000
783.4820, 8346.000
784.6260, 8174.000
785.7700, 8157.000
786.9140, 7890.000
788.0580, 7751.000
789.2010, 7750.000
790.3450, 7630.000
791.4880, 7610.000
792.6310, 7611.000
793.7730, 7538.000
794.9160, 7498.000
796.0590, 7550.000
797.2010, 7486.000
798.3430, 7422.000
799.4850, 7409.000
800.6270, 7498.000
801.7690, 7396.000
802.9100, 7600.000
804.0520, 7568.000
805.1930, 7631.000
806.3340, 7759.000
807.4750, 7790.319
808.6160, 7931.828
809.7560, 7945.000
810.8970, 8064.000
812.0370, 8120.000
813.1770, 7910.000
814.3170, 7867.000
815.4570, 7701.000
816.5960, 7675.000
817.7360, 7488.000
818.8750, 7519.000
820.0140, 7389.000
821.1530, 7418.000
822.2920, 7331.000
823.4310, 7322.000
824.5690, 7295.000
825.7070, 7228.000
826.8460, 7183.000
827.9840, 7294.000
829.1220, 7253.000
830.2590, 7374.000
831.3970, 7388.000
832.5340, 7365.000
833.6710, 7338.000
834.8080, 7409.000
835.9450, 7446.000
837.0820, 7460.000
838.2190, 7529.205
839.3550, 7561.477
840.4910, 7633.000
841.6270, 7683.000
842.7630, 7728.000
843.8990, 7846.000
845.0350, 7918.000
846.1700, 7941.000
847.3060, 7996.000
848.4410, 8038.000
849.5760, 8150.000
850.7100, 8227.000
851.8450, 8272.000
852.9800, 8476.000
854.1140, 8404.000
855.2480, 8523.000
856.3820, 8432.000
857.5160, 8574.000
858.6500, 8642.000
859.7830, 8808.000
860.9170, 8837.000
862.0500, 8954.000
863.1830, 9039.000
864.3160, 9083.000
865.4480, 9110.000
866.5810, 9258.000
867.7130, 9163.000
868.8460, 9274.000
869.9780, 9204.000
871.1100, 9348.000
872.2410, 9264.000
873.3730, 9253.000
874.5050, 9343.000
875.6360, 9380.000
876.7670, 9452.000
877.8980, 9402.000
879.0290, 9518.826
880.1590, 9625.082
881.2900, 9739.000
882.4200, 9872.000
883.5500, 10076.00
884.6800, 10272.38
885.8100, 10526.00
886.9400, 10813.00
888.0690, 11171.00
889.1990, 11594.00
890.3280, 12081.00
891.4570, 12644.00
892.5860, 13344.00
893.7140, 14077.00
894.8430, 15194.00
895.9710, 15956.00
897.1000, 16893.00
898.2280, 17846.00
899.3560, 18517.00
900.4830, 19245.00
901.6110, 19743.00
902.7380, 19936.00
903.8660, 19969.00
904.9930, 19442.00
906.1200, 18657.00
907.2460, 18094.00
908.3730, 17204.00
909.5000, 16104.00
910.6260, 15249.00
911.7520, 14490.00
912.8780, 13566.00
914.0040, 12871.00
915.1290, 12348.00
916.2550, 11906.00
917.3800, 11382.00
918.5050, 10978.00
919.6300, 10783.00
920.7550, 10724.00
921.8800, 10572.00
923.0040, 10564.00
924.1290, 10438.00
925.2530, 10522.00
926.3770, 10424.00
927.5010, 10602.00
928.6250, 10683.00
929.7480, 10685.00
930.8720, 10545.00
931.9950, 10568.00
933.1180, 10593.00
934.2410, 10638.00
935.3640, 10582.94
936.4860, 10326.00
937.6090, 10505.00
938.7310, 10415.00
939.8530, 10451.00
940.9750, 10714.00
942.0970, 10933.00
943.2180, 11089.00
944.3400, 11419.00
945.4610, 11711.00
946.5820, 12045.00
947.7030, 12545.00
948.8240, 13085.00
949.9450, 13656.00
951.0650, 14247.00
952.1860, 15164.00
953.3060, 16255.00
954.4260, 17343.00
955.5460, 18830.00
956.6650, 20546.00
957.7850, 22731.00
958.9040, 24737.00
960.0230, 26891.00
961.1420, 29169.00
962.2610, 30384.00
963.3800, 31252.00
964.4990, 31472.00
965.6170, 30807.00
966.7350, 29776.00
967.8530, 28611.00
968.9710, 27971.00
970.0890, 27569.00
971.2070, 27912.00
972.3240, 28503.00
973.4410, 29509.00
974.5580, 31201.00
975.6750, 32756.00
976.7920, 34279.00
977.9090, 35010.00
979.0250, 35507.00
980.1410, 35563.00
981.2580, 34565.00
982.3740, 33265.00
983.4890, 32050.00
984.6050, 30670.00
985.7200, 29794.00
986.8360, 28790.00
987.9510, 28117.00
989.0660, 27628.00
990.1810, 27544.00
991.2950, 27852.00
992.4100, 27821.00
993.5240, 28107.00
994.6390, 28636.00
995.7530, 29237.00
996.8660, 29647.00
997.9800, 30471.00
999.0940, 30837.00
1000.207, 31174.00
1001.320, 31228.00
1002.433, 31188.00
1003.546, 30639.00
1004.659, 29775.00
1005.772, 28347.00
1006.884, 26841.00
1007.996, 24997.00
1009.108, 23125.00
1010.220, 21432.00
1011.332, 19772.00
1012.444, 18329.00
1013.555, 16992.00
1014.666, 15859.00
1015.777, 15063.00
1016.888, 14236.00
1017.999, 13659.00
1019.110, 13207.00
1020.220, 12968.00
1021.331, 12730.00
1022.441, 12509.00
1023.551, 12488.00
1024.661, 12638.00
1025.770, 12450.00
1026.880, 12556.00
1027.989, 12320.00
1029.098, 12188.00
1030.207, 12051.00
1031.316, 11980.00
1032.425, 11894.24
1033.533, 11742.00
1034.642, 11788.00
1035.750, 11810.00
1036.858, 11778.00
1037.966, 11903.00
1039.073, 12052.00
1040.181, 12101.00
1041.288, 12304.00
1042.396, 12234.00
1043.503, 12264.00
1044.610, 12407.00
1045.716, 12609.00
1046.823, 12943.00
1047.929, 13223.00
1049.036, 13522.00
1050.142, 14071.00
1051.248, 14639.00
1052.353, 15122.00
1053.459, 15413.00
1054.564, 15675.00
1055.670, 16143.00
1056.775, 16049.00
1057.880, 15945.00
1058.985, 15547.00
1060.089, 15040.00
1061.194, 14315.00
1062.298, 13608.00
1063.402, 13110.00
1064.506, 12443.00
1065.610, 12063.00
1066.713, 11564.00
1067.817, 11254.00
1068.920, 11149.00
1070.023, 10927.00
1071.126, 10969.00
1072.229, 10950.00
1073.332, 11168.00
1074.435, 11460.00
1075.537, 11905.00
1076.639, 12433.00
1077.741, 13156.00
1078.843, 13844.00
1079.945, 14494.00
1081.046, 15061.00
1082.148, 15315.00
1083.249, 15548.00
1084.350, 15062.00
1085.451, 14525.00
1086.551, 13989.00
1087.652, 13183.00
1088.752, 12473.00
1089.853, 11663.00
1090.953, 11399.00
1092.053, 10964.00
1093.152, 10741.00
1094.252, 10426.00
1095.351, 10342.00
1096.451, 10220.00
1097.550, 10132.00
1098.649, 10168.00
1099.748, 10140.00
1100.846, 9993.000
1101.945, 10074.00
1103.043, 10106.00
1104.141, 9931.000
1105.239, 9948.000
1106.337, 9889.000
1107.434, 9719.000
1108.532, 9657.000
1109.629, 9566.000
1110.726, 9403.927
1111.823, 9260.390
1112.920, 9107.000
1114.017, 8924.000
1115.113, 8777.000
1116.210, 8689.000
1117.306, 8619.000
1118.402, 8427.000
1119.498, 8466.000
1120.593, 8254.000
1121.689, 8342.000
1122.784, 8294.000
1123.879, 8362.000
1124.974, 8181.000
1126.069, 8082.000
1127.164, 8150.000
1128.259, 7949.000
1129.353, 7856.000
1130.447, 7878.000
1131.541, 7823.000
1132.635, 7860.000
1133.729, 7730.000
1134.822, 7802.000
1135.916, 7664.000
1137.009, 7646.000
1138.102, 7805.000
1139.195, 7662.000
1140.288, 7610.000
1141.380, 7556.000
1142.473, 7624.000
1143.565, 7437.000
1144.657, 7530.000
1145.749, 7542.000
1146.841, 7494.000
1147.932, 7546.000
1149.024, 7576.000
1150.115, 7587.000
1151.206, 7587.000
1152.297, 7529.000
1153.388, 7512.000
1154.479, 7508.000
1155.569, 7468.000
1156.659, 7454.895
1157.750, 7444.387
1158.839, 7426.000
1159.929, 7412.000
1161.019, 7436.000
1162.108, 7391.000
1163.198, 7354.000
1164.287, 7399.000
1165.376, 7398.000
1166.465, 7362.000
1167.553, 7298.000
1168.642, 7405.000
1169.730, 7370.000
1170.818, 7387.000
1171.906, 7309.000
1172.994, 7256.000
1174.082, 7372.000
1175.170, 7231.000
1176.257, 7337.000
1177.344, 7280.000
1178.431, 7383.000
1179.518, 7439.000
1180.605, 7385.182
1181.691, 7336.000
1182.778, 7297.000
1183.864, 7394.000
1184.950, 7334.000
1186.036, 7417.000
1187.122, 7388.000
1188.207, 7346.000
1189.292, 7312.000
1190.378, 7392.000
1191.463, 7327.000
1192.548, 7380.000
1193.632, 7305.000
1194.717, 7361.000
1195.801, 7352.000
1196.886, 7269.000
1197.970, 7402.000
1199.054, 7323.000
1200.137, 7394.000
1201.221, 7376.000
1202.305, 7375.000
1203.388, 7290.000
1204.471, 7239.000
1205.554, 7294.000
1206.637, 7237.000
1207.719, 7278.000
1208.802, 7301.000
1209.884, 7273.000
1210.966, 7398.000
1212.048, 7319.000
1213.130, 7303.177
1214.212, 7282.215
1215.293, 7199.000
1216.374, 7238.000
1217.456, 7220.000
1218.536, 7356.000
1219.617, 7270.000
1220.698, 7340.000
1221.778, 7232.000
1222.859, 7212.000
1223.939, 7267.000
1225.019, 7273.000
1226.099, 7222.000
1227.178, 7186.000
1228.258, 7251.000
1229.337, 7248.000
1230.417, 7342.000
1231.496, 7265.000
1232.574, 7309.000
1233.653, 7272.000
1234.732, 7269.000
1235.810, 7227.000
1236.888, 7285.000
1237.966, 7276.000
1239.044, 7314.000
1240.122, 7338.000
1241.199, 7397.000
1242.277, 7282.000
1243.354, 7326.000
1244.431, 7279.000
1245.508, 7335.000
1246.585, 7232.000
1247.661, 7333.000
1248.738, 7197.000
1249.814, 7181.000
1250.890, 7335.000
1251.966, 7282.000
1253.042, 7225.000
1254.117, 7216.000
1255.193, 7176.000
1256.268, 7211.000
1257.343, 7262.000
1258.418, 7231.000
1259.493, 7281.000
1260.567, 7222.000
1261.642, 7249.000
1262.716, 7261.164
1263.790, 7245.000
1264.864, 7276.000
1265.938, 7283.000
1267.011, 7250.000
1268.085, 7264.000
1269.158, 7236.000
1270.231, 7247.000
1271.304, 7270.000
1272.377, 7250.000
1273.450, 7337.000
1274.522, 7280.000
1275.594, 7326.000
1276.666, 7232.000
1277.738, 7230.000
1278.810, 7336.000
1279.882, 7302.000
1280.953, 7305.000
1282.025, 7259.000
1283.096, 7233.000
1284.167, 7308.000
1285.238, 7303.000
1286.308, 7275.000
1287.379, 7205.000
1288.449, 7256.000
1289.519, 7287.000
1290.589, 7340.000
1291.659, 7252.000
1292.729, 7156.000
1293.798, 7237.000
1294.868, 7322.000
1295.937, 7312.000
1297.006, 7349.097
1298.075, 7256.000
1299.143, 7308.000
1300.212, 7289.000
1301.280, 7191.000
1302.348, 7262.000
1303.416, 7246.000
1304.484, 7207.000
1305.552, 7272.000
1306.620, 7210.000
1307.687, 7179.000
1308.754, 7177.000
1309.821, 7199.000
1310.888, 7208.000
1311.955, 7183.000
1313.021, 7232.000
1314.088, 7355.000
1315.154, 7250.000
1316.220, 7306.000
1317.286, 7223.000
1318.352, 7318.000
1319.417, 7368.000
1320.483, 7319.000
1321.548, 7356.000
1322.613, 7405.000
1323.678, 7323.000
1324.743, 7305.000
1325.807, 7262.000
1326.872, 7382.000
1327.936, 7316.000
1329.000, 7416.000
1330.064, 7439.000
1331.128, 7405.000
1332.191, 7313.000
1333.255, 7351.000
1334.318, 7376.000
1335.381, 7486.000
1336.444, 7436.000
1337.507, 7445.000
1338.569, 7365.000
1339.632, 7436.000
1340.694, 7271.000
1341.756, 7339.000
1342.818, 7379.000
1343.880, 7427.000
1344.941, 7454.913
1346.003, 7474.755
1347.064, 7488.462
1348.125, 7493.365
1349.186, 7495.000
1350.247, 7494.000
1351.308, 7489.243
1352.368, 7419.000
1353.428, 7469.000
1354.489, 7459.000
1355.549, 7438.000
1356.608, 7480.000
1357.668, 7581.000
1358.727, 7486.000
1359.787, 7450.000
1360.846, 7608.000
1361.905, 7532.000
1362.964, 7602.000
1364.022, 7576.000
1365.081, 7597.000
1366.139, 7599.000
1367.197, 7547.000
1368.255, 7562.000
1369.313, 7504.000
1370.371, 7545.000
1371.428, 7499.000
1372.486, 7603.000
1373.543, 7448.000
1374.600, 7383.000
1375.657, 7558.000
1376.713, 7512.000
1377.770, 7547.000
1378.826, 7628.000
1379.882, 7584.000
1380.938, 7556.000
1381.994, 7596.000
1383.050, 7535.000
1384.106, 7502.000
1385.161, 7550.000
1386.216, 7547.000
1387.271, 7521.000
1388.326, 7496.000
1389.381, 7568.000
1390.435, 7537.000
1391.490, 7538.000
1392.544, 7584.000
1393.598, 7569.000
1394.652, 7541.000
1395.705, 7637.000
1396.759, 7589.572
1397.812, 7565.000
1398.866, 7571.000
1399.919, 7496.000
1400.972, 7477.000
1402.024, 7567.000
1403.077, 7542.000
1404.129, 7529.000
1405.181, 7575.000
1406.233, 7478.000
1407.285, 7510.000
1408.337, 7540.000
1409.389, 7503.000
1410.440, 7615.000
1411.491, 7574.000
1412.542, 7617.000
1413.593, 7514.000
1414.644, 7667.000
1415.695, 7649.000
1416.745, 7713.000
1417.795, 7542.000
1418.845, 7748.000
1419.895, 7606.000
1420.945, 7632.000
1421.995, 7597.000
1423.044, 7671.000
1424.093, 7581.000
1425.142, 7748.000
1426.191, 7839.000
1427.240, 7707.000
1428.289, 7813.000
1429.337, 7639.000
1430.385, 7636.000
1431.433, 7790.000
1432.481, 7653.000
1433.529, 7915.000
1434.577, 7680.000
1435.624, 7648.000
1436.672, 7739.000
1437.719, 7804.000
1438.766, 7714.000
1439.812, 7799.000
1440.859, 7678.000
1441.905, 7718.000
1442.952, 7753.000
1443.998, 7765.000
1445.044, 7744.180
1446.090, 7734.489
1447.135, 7667.000
1448.181, 7651.000
1449.226, 7612.000
1450.271, 7529.000
1451.316, 7675.000
1452.361, 7741.000
1453.405, 7676.000
1454.450, 7640.000
1455.494, 7805.000
1456.538, 7735.000
1457.582, 7749.000
1458.626, 7675.000
1459.670, 7705.000
1460.713, 7732.000
1461.757, 7658.000
1462.800, 7787.000
1463.843, 7829.000
1464.886, 7756.000
1465.928, 7750.000
1466.971, 7747.000
1468.013, 7782.000
1469.055, 7781.045
1470.097, 7805.000
1471.139, 7783.000
1472.181, 7790.000
1473.222, 7789.977
1474.263, 7767.000
1475.305, 7779.000
1476.346, 7770.725
1477.386, 7749.000
1478.427, 7792.000
1479.468, 7771.000
1480.508, 7788.000
1481.548, 7765.000
1482.588, 7798.924
1483.628, 7837.000
1484.668, 7848.000
1485.707, 7831.000
1486.747, 7811.000
1487.786, 7861.000
1488.825, 7817.000
1489.864, 7906.000
1490.902, 7803.000
1491.941, 7876.000
1492.979, 7832.000
1494.017, 7915.000
1495.055, 7893.000
1496.093, 7974.000
1497.131, 7916.000
1498.168, 7949.000
1499.206, 7869.000
1500.243, 7896.000
1501.280, 7807.000
1502.317, 7977.000
1503.354, 7704.866
1504.390, 7904.140
1505.426, 8020.927
1506.463, 8059.671
1507.499, 7786.572
1508.535, 7916.140
1509.570, 7884.326
1510.606, 7845.907
1511.641, 8032.138
1512.676, 7804.385
1513.711, 7987.054
1514.746, 8005.888
1515.781, 8099.706
1516.816, 8031.157
1517.850, 8012.746
1518.884, 8156.756
1519.918, 8210.832
1520.952, 8123.581
1521.986, 8222.154
1523.019, 7988.708
1524.053, 8046.614
1525.086, 8230.213
1526.119, 8151.115
1527.152, 8252.646
1528.185, 8285.385
1529.217, 8005.474
1530.250, 8269.282
1531.282, 8297.944
1532.314, 8085.172
1533.346, 8126.000
1534.377, 8011.000
1535.409, 8102.000
1536.440, 8105.000
1537.472, 8050.000
1538.503, 8276.000
1539.534, 8156.000
1540.564, 8176.000
1541.595, 8149.000
1542.625, 8146.000
1543.656, 8203.000
1544.686, 8070.000
1545.716, 8153.000
1546.745, 8269.000
1547.775, 8111.000
1548.804, 8077.000
1549.834, 8154.000
1550.863, 8204.000
1551.892, 8215.000
1552.920, 8296.000
1553.949, 8348.000
1554.977, 8431.000
1556.006, 8318.000
1557.034, 8162.000
1558.062, 8286.000
1559.089, 8341.000
1560.117, 8239.000
1561.144, 8294.000
1562.172, 8166.000
1563.199, 8248.000
1564.226, 8199.000
1565.252, 8271.000
1566.279, 8270.000
1567.305, 8307.000
1568.332, 8250.000
1569.358, 8219.000
1570.384, 8311.000
1571.409, 8292.000
##END=



