##NAMES=Axinite-(Fe)
##RRUFFID=R060558
##IDEAL CHEMISTRY=Ca_4_Fe^2+^_2_Al_4_[B_2_Si_8_O_30_](OH)_2_
##LOCALITY=unknown
##OWNER=RRUFF
##SOURCE=Gemological Institute of America
##DESCRIPTION=Brown flattened crystal
##STATUS=The identification of this mineral has been confirmed by X-ray diffraction and chemical analysis
##URL=rruff.info/R060558
##MEASURED CHEMISTRY=Ca_2.00_(Fe^2+^_0.60_Mg_0.35_Mn_0.05_)_Î£=1_Al_2.00_BSi_4.00_O_15_(OH) ; B not measured
##PIN_ID=M00962
##ORIENTATION=Laser parallel to a* (1 0 0). Fiducial mark perpendicular to laser is parallel to b [0 1 0]
99.01100, 6054.000
100.2570, 6636.000
101.5030, 7310.000
102.7490, 8109.000
103.9940, 9225.000
105.2390, 10457.00
106.4840, 11345.00
107.7290, 12076.00
108.9740, 11849.00
110.2180, 10740.00
111.4620, 9842.000
112.7060, 9150.000
113.9500, 8695.000
115.1940, 8242.000
116.4370, 7994.000
117.6800, 7793.000
118.9230, 7670.000
120.1660, 7355.000
121.4090, 7513.000
122.6510, 7385.000
123.8940, 7034.000
125.1360, 6601.000
126.3770, 6463.000
127.6190, 6312.000
128.8600, 6222.000
130.1020, 6060.000
131.3430, 5952.000
132.5840, 5909.000
133.8240, 5807.000
135.0650, 5855.000
136.3050, 6086.000
137.5450, 6443.000
138.7850, 6678.000
140.0250, 6832.000
141.2640, 7097.000
142.5030, 7159.000
143.7430, 7333.000
144.9810, 7755.000
146.2200, 7933.000
147.4590, 8354.000
148.6970, 8658.000
149.9350, 9229.000
151.1730, 9661.000
152.4110, 10153.00
153.6480, 10533.00
154.8860, 10940.00
156.1230, 11215.00
157.3600, 11449.00
158.5960, 11525.00
159.8330, 11924.00
161.0690, 12082.00
162.3050, 12178.00
163.5410, 12545.00
164.7770, 13159.00
166.0130, 14289.00
167.2480, 15631.00
168.4830, 16759.00
169.7180, 17568.00
170.9530, 17506.00
172.1880, 16508.00
173.4220, 15084.00
174.6560, 13686.00
175.8900, 11930.00
177.1240, 10695.00
178.3580, 9441.000
179.5910, 8578.000
180.8250, 8020.000
182.0580, 7605.000
183.2900, 7363.000
184.5230, 7223.000
185.7560, 7249.856
186.9880, 7556.000
188.2200, 7780.000
189.4520, 8364.000
190.6830, 9131.000
191.9150, 9905.000
193.1460, 10411.00
194.3770, 10843.00
195.6080, 10984.00
196.8390, 10829.00
198.0700, 10815.00
199.3000, 10898.00
200.5300, 11263.00
201.7600, 11728.00
202.9900, 12418.00
204.2190, 13241.00
205.4490, 13928.00
206.6780, 14939.00
207.9070, 15553.00
209.1360, 16428.00
210.3640, 16820.37
211.5930, 17377.00
212.8210, 17317.00
214.0490, 16963.00
215.2770, 16810.00
216.5040, 15990.28
217.7320, 14986.00
218.9590, 14223.00
220.1860, 13295.00
221.4130, 12489.00
222.6400, 11589.00
223.8660, 10708.00
225.0920, 10171.00
226.3190, 9415.000
227.5450, 9070.000
228.7700, 8708.000
229.9960, 8404.000
231.2210, 8068.000
232.4460, 8060.000
233.6710, 7996.000
234.8960, 7949.000
236.1210, 8146.000
237.3450, 8289.000
238.5690, 8604.000
239.7930, 8772.000
241.0170, 9222.000
242.2410, 9436.000
243.4640, 9771.000
244.6870, 10146.00
245.9100, 10521.00
247.1330, 10889.00
248.3560, 11234.00
249.5780, 11509.00
250.8000, 11834.00
252.0230, 12089.00
253.2440, 12251.00
254.4660, 12200.00
255.6880, 12315.00
256.9090, 12420.00
258.1300, 12467.00
259.3510, 12799.00
260.5720, 13158.00
261.7920, 13229.00
263.0130, 13962.34
264.2330, 14462.82
265.4530, 15291.00
266.6730, 15788.00
267.8920, 16356.00
269.1120, 16830.00
270.3310, 17079.00
271.5500, 17199.00
272.7690, 16933.00
273.9880, 16577.00
275.2060, 16089.00
276.4240, 15448.00
277.6430, 14469.00
278.8600, 13853.00
280.0780, 12900.00
281.2960, 12222.00
282.5130, 11625.00
283.7300, 11393.00
284.9470, 11095.00
286.1640, 11359.00
287.3810, 11433.00
288.5970, 11929.00
289.8130, 12598.00
291.0290, 13684.00
292.2450, 14959.00
293.4610, 16191.00
294.6760, 17624.00
295.8910, 18674.00
297.1060, 20023.00
298.3210, 21021.00
299.5360, 21827.00
300.7510, 22191.00
301.9650, 22335.00
303.1790, 22131.00
304.3930, 21916.00
305.6070, 21343.00
306.8200, 20570.00
308.0340, 19670.00
309.2470, 18604.00
310.4600, 17718.00
311.6730, 16770.00
312.8850, 16183.00
314.0980, 15536.00
315.3100, 15495.00
316.5220, 15624.00
317.7340, 15764.00
318.9460, 15499.00
320.1570, 15157.02
321.3690, 14697.00
322.5800, 13857.00
323.7910, 12784.00
325.0010, 11658.00
326.2120, 10956.00
327.4220, 10217.00
328.6330, 9818.000
329.8430, 9532.000
331.0520, 9527.000
332.2620, 9556.000
333.4720, 9768.000
334.6810, 10139.00
335.8900, 10590.00
337.0990, 11409.00
338.3070, 12348.00
339.5160, 13236.00
340.7240, 14480.00
341.9320, 16034.00
343.1400, 17348.00
344.3480, 18708.00
345.5560, 19279.00
346.7630, 19430.00
347.9700, 19354.00
349.1770, 18772.00
350.3840, 18580.00
351.5910, 18269.00
352.7970, 17766.00
354.0040, 16996.00
355.2100, 16055.00
356.4160, 14436.00
357.6220, 13054.00
358.8270, 11899.00
360.0320, 10796.00
361.2380, 9725.000
362.4430, 8994.000
363.6470, 8506.000
364.8520, 8122.000
366.0560, 7911.000
367.2610, 7779.000
368.4650, 7742.000
369.6690, 7706.000
370.8720, 7761.000
372.0760, 7667.000
373.2790, 7851.000
374.4820, 7788.000
375.6850, 7969.000
376.8880, 7959.000
378.0910, 8115.000
379.2930, 8450.000
380.4950, 8778.000
381.6970, 9359.000
382.8990, 9960.000
384.1010, 10860.00
385.3020, 11918.00
386.5040, 13034.00
387.7050, 14118.00
388.9060, 15007.00
390.1060, 15895.00
391.3070, 16468.00
392.5070, 16742.00
393.7080, 16680.00
394.9080, 15880.00
396.1070, 15333.00
397.3070, 14234.00
398.5070, 13171.00
399.7060, 12063.00
400.9050, 11347.00
402.1040, 10779.00
403.3030, 10276.00
404.5010, 9949.000
405.7000, 9717.000
406.8980, 9642.000
408.0960, 9408.000
409.2940, 9451.000
410.4910, 9930.000
411.6890, 10188.00
412.8860, 10758.00
414.0830, 11383.00
415.2800, 12400.00
416.4770, 13513.00
417.6730, 14444.00
418.8690, 15235.00
420.0660, 15700.00
421.2620, 15939.00
422.4570, 16385.00
423.6530, 16907.00
424.8480, 17851.00
426.0440, 18970.00
427.2390, 20267.00
428.4340, 21464.00
429.6280, 22328.00
430.8230, 22545.00
432.0170, 22173.00
433.2110, 20665.00
434.4050, 18995.00
435.5990, 17312.00
436.7930, 15820.00
437.9860, 14094.00
439.1800, 12995.00
440.3730, 12225.00
441.5660, 11941.00
442.7580, 11718.00
443.9510, 11783.00
445.1430, 11755.00
446.3350, 11346.00
447.5270, 10937.00
448.7190, 10447.00
449.9110, 9873.000
451.1020, 9176.000
452.2930, 8694.000
453.4850, 8308.000
454.6750, 8211.000
455.8660, 8035.000
457.0570, 7940.000
458.2470, 7805.000
459.4370, 7842.000
460.6270, 7826.000
461.8170, 7689.000
463.0070, 7878.000
464.1960, 7802.000
465.3850, 7843.000
466.5750, 7881.000
467.7630, 8309.000
468.9520, 8299.000
470.1410, 8505.000
471.3290, 8639.000
472.5170, 8575.000
473.7050, 8734.000
474.8930, 8620.000
476.0810, 8486.000
477.2680, 8580.000
478.4560, 8489.000
479.6430, 8728.000
480.8300, 8957.000
482.0160, 9224.000
483.2030, 9701.000
484.3890, 9946.000
485.5760, 10257.00
486.7620, 10218.00
487.9480, 10059.00
489.1330, 9599.000
490.3190, 9096.000
491.5040, 8530.000
492.6890, 8110.000
493.8740, 7860.000
495.0590, 7683.000
496.2440, 7619.000
497.4280, 7533.000
498.6120, 7703.000
499.7960, 7647.000
500.9800, 7814.000
502.1640, 7939.000
503.3470, 8100.000
504.5310, 8232.000
505.7140, 8366.000
506.8970, 8552.000
508.0800, 8659.000
509.2620, 8781.000
510.4450, 8778.000
511.6270, 8918.000
512.8090, 9014.000
513.9910, 9002.000
515.1730, 8851.000
516.3550, 8824.000
517.5360, 8887.000
518.7170, 8682.000
519.8980, 8620.000
521.0790, 8392.000
522.2600, 8228.000
523.4400, 8165.000
524.6210, 8088.000
525.8010, 8049.000
526.9810, 7942.000
528.1610, 7864.000
529.3400, 7867.000
530.5200, 7853.000
531.6990, 8031.000
532.8780, 8150.000
534.0570, 8332.000
535.2360, 8535.000
536.4140, 8793.000
537.5930, 9112.371
538.7710, 9389.000
539.9490, 9912.000
541.1270, 10308.00
542.3040, 10875.00
543.4820, 11480.00
544.6590, 11743.00
545.8360, 12083.00
547.0130, 12270.00
548.1900, 12219.00
549.3670, 11884.00
550.5430, 11493.00
551.7190, 11034.00
552.8960, 10739.00
554.0710, 10544.00
555.2470, 10472.00
556.4230, 10596.00
557.5980, 10744.00
558.7730, 10986.00
559.9480, 11245.00
561.1230, 11538.00
562.2980, 11642.00
563.4720, 11598.00
564.6470, 11312.00
565.8210, 11125.00
566.9950, 11124.00
568.1690, 10913.00
569.3420, 11109.00
570.5160, 11337.00
571.6890, 11430.00
572.8620, 11591.00
574.0350, 11810.00
575.2080, 11899.00
576.3800, 12157.00
577.5530, 12081.00
578.7250, 12174.00
579.8970, 12255.00
581.0690, 12456.00
582.2410, 12582.00
583.4120, 13073.00
584.5830, 13563.00
585.7550, 14184.00
586.9260, 14882.00
588.0960, 15557.00
589.2670, 15716.00
590.4380, 15902.00
591.6080, 15512.00
592.7780, 14806.00
593.9480, 13727.00
595.1180, 12630.00
596.2870, 11780.00
597.4570, 10873.00
598.6260, 10437.00
599.7950, 9973.000
600.9640, 9626.000
602.1330, 9674.000
603.3010, 9543.000
604.4700, 9628.000
605.6380, 9715.000
606.8060, 9989.000
607.9740, 10082.00
609.1420, 10317.00
610.3090, 10650.00
611.4760, 10773.00
612.6440, 10863.00
613.8110, 10837.00
614.9770, 10874.00
616.1440, 10838.00
617.3110, 10679.00
618.4770, 10531.79
619.6430, 10307.00
620.8090, 10039.00
621.9750, 9746.000
623.1400, 9429.000
624.3060, 9265.000
625.4710, 8933.000
626.6360, 8767.000
627.8010, 8609.000
628.9660, 8384.000
630.1300, 8228.000
631.2950, 8196.000
632.4590, 8098.000
633.6230, 8124.000
634.7870, 8217.000
635.9510, 8180.000
637.1140, 8269.000
638.2780, 8499.000
639.4410, 8698.000
640.6040, 8844.000
641.7670, 8931.000
642.9290, 9037.000
644.0920, 9143.000
645.2540, 9252.000
646.4160, 9311.000
647.5780, 9008.000
648.7400, 8990.000
649.9020, 8906.000
651.0630, 8668.000
652.2250, 8509.000
653.3860, 8451.000
654.5470, 8350.000
655.7080, 8280.000
656.8680, 8320.000
658.0290, 8317.000
659.1890, 8375.102
660.3490, 8548.000
661.5090, 8601.000
662.6690, 8793.000
663.8280, 9051.490
664.9880, 9348.000
666.1470, 9834.000
667.3060, 10411.00
668.4650, 11010.00
669.6240, 11752.53
670.7820, 12426.00
671.9410, 13452.00
673.0990, 14380.00
674.2570, 15445.00
675.4150, 16287.00
676.5720, 16863.00
677.7300, 17045.00
678.8870, 16591.00
680.0450, 15855.00
681.2020, 14739.00
682.3590, 13834.00
683.5150, 12876.00
684.6720, 11986.00
685.8280, 11378.00
686.9840, 10887.00
688.1400, 10547.00
689.2960, 10201.00
690.4520, 10167.00
691.6070, 10251.00
692.7630, 10319.00
693.9180, 10365.00
695.0730, 10670.00
696.2280, 10933.00
697.3820, 11411.00
698.5370, 11924.00
699.6910, 12631.00
700.8450, 13540.00
701.9990, 14777.00
703.1530, 16445.00
704.3070, 18375.00
705.4600, 20947.00
706.6130, 23712.00
707.7660, 27106.00
708.9190, 31036.00
710.0720, 34814.00
711.2250, 38632.00
712.3770, 42145.00
713.5300, 44482.00
714.6820, 45204.00
715.8340, 44191.00
716.9850, 41194.00
718.1370, 37237.00
719.2880, 32801.00
720.4400, 28722.00
721.5910, 24704.00
722.7420, 21620.00
723.8930, 19189.00
725.0430, 17382.00
726.1940, 15695.00
727.3440, 14496.00
728.4940, 13537.00
729.6440, 12801.00
730.7940, 12222.00
731.9430, 11557.00
733.0930, 11368.00
734.2420, 10829.00
735.3910, 10641.00
736.5400, 10309.00
737.6890, 10202.00
738.8370, 10055.00
739.9860, 9971.000
741.1340, 9771.000
742.2820, 9634.000
743.4300, 9621.000
744.5780, 9568.000
745.7250, 9636.000
746.8730, 9603.000
748.0200, 9618.360
749.1670, 9637.000
750.3140, 9654.000
751.4610, 9770.000
752.6070, 9823.000
753.7540, 10049.00
754.9000, 10182.00
756.0460, 10525.00
757.1920, 10705.00
758.3380, 11197.00
759.4830, 11497.00
760.6280, 11919.00
761.7740, 12295.00
762.9190, 12867.00
764.0640, 13471.00
765.2080, 13676.00
766.3530, 14263.00
767.4970, 14329.00
768.6420, 14481.00
769.7860, 14196.00
770.9300, 13859.00
772.0730, 13341.00
773.2170, 12725.00
774.3600, 12483.00
775.5040, 11770.00
776.6470, 11313.00
777.7900, 10801.00
778.9320, 10470.00
780.0750, 10150.52
781.2170, 9920.000
782.3600, 9702.000
783.5020, 9507.364
784.6440, 9379.463
785.7850, 9223.000
786.9270, 9196.000
788.0680, 9123.000
789.2100, 9085.000
790.3510, 8949.000
791.4920, 8860.000
792.6320, 8996.000
793.7730, 8732.000
794.9130, 8923.000
796.0540, 8764.000
797.1940, 8801.000
798.3340, 8732.000
799.4730, 8754.000
800.6130, 8807.000
801.7520, 8865.000
802.8920, 8862.576
804.0310, 8909.338
805.1700, 8880.000
806.3090, 8939.000
807.4470, 8978.000
808.5860, 8952.000
809.7240, 9163.000
810.8620, 9212.000
812.0000, 9194.000
813.1380, 9239.000
814.2750, 9178.000
815.4130, 9081.000
816.5500, 8988.000
817.6870, 8930.000
818.8240, 8859.000
819.9610, 8802.324
821.0980, 8738.000
822.2340, 8709.000
823.3700, 8646.000
824.5070, 8611.000
825.6430, 8629.000
826.7780, 8610.000
827.9140, 8653.000
829.0500, 8448.000
830.1850, 8543.000
831.3200, 8556.000
832.4550, 8678.000
833.5900, 8562.000
834.7250, 8580.000
835.8590, 8644.000
836.9930, 8750.000
838.1280, 8593.000
839.2620, 8785.000
840.3950, 8687.000
841.5290, 8707.000
842.6630, 8831.000
843.7960, 8884.000
844.9290, 8898.000
846.0620, 8935.000
847.1950, 9021.000
848.3280, 8979.000
849.4600, 9083.000
850.5930, 9055.000
851.7250, 9184.000
852.8570, 9277.000
853.9890, 9130.000
855.1210, 9150.000
856.2520, 9307.000
857.3840, 9220.000
858.5150, 9226.000
859.6460, 9260.000
860.7770, 9299.000
861.9080, 9320.000
863.0380, 9372.000
864.1690, 9465.000
865.2990, 9459.000
866.4290, 9493.000
867.5590, 9547.000
868.6890, 9485.000
869.8190, 9669.000
870.9480, 9583.000
872.0770, 9645.000
873.2070, 9796.000
874.3360, 9843.000
875.4640, 9864.000
876.5930, 9877.000
877.7220, 10088.00
878.8500, 9987.000
879.9780, 10055.00
881.1060, 9975.000
882.2340, 10047.77
883.3620, 10251.00
884.4890, 10192.00
885.6170, 10279.00
886.7440, 10340.00
887.8710, 10326.00
888.9980, 10608.00
890.1240, 10707.00
891.2510, 11035.00
892.3770, 11360.00
893.5040, 11448.00
894.6300, 11814.00
895.7560, 12262.00
896.8810, 12561.00
898.0070, 13252.00
899.1330, 13571.00
900.2580, 14282.00
901.3830, 14730.00
902.5080, 15311.00
903.6330, 15522.85
904.7570, 15656.00
905.8820, 15706.00
907.0060, 15694.00
908.1300, 15550.00
909.2540, 14998.00
910.3780, 14282.00
911.5020, 13735.00
912.6250, 13293.00
913.7490, 12784.00
914.8720, 12259.00
915.9950, 11695.00
917.1180, 11520.00
918.2400, 11241.00
919.3630, 11024.00
920.4850, 10925.00
921.6080, 10775.00
922.7300, 10561.00
923.8520, 10457.00
924.9730, 10499.00
926.0950, 10556.00
927.2160, 10568.00
928.3380, 10635.37
929.4590, 10617.00
930.5800, 10735.00
931.7010, 10734.00
932.8210, 10748.00
933.9420, 10501.00
935.0620, 10755.00
936.1820, 10688.00
937.3020, 10735.00
938.4220, 10861.00
939.5420, 10924.00
940.6610, 10915.00
941.7810, 11143.00
942.9000, 11343.00
944.0190, 11474.00
945.1380, 11766.00
946.2570, 11952.00
947.3750, 12172.00
948.4940, 12582.00
949.6120, 13005.00
950.7300, 13477.00
951.8480, 14091.00
952.9660, 14823.00
954.0830, 15577.00
955.2010, 16438.00
956.3180, 17637.00
957.4350, 18946.00
958.5520, 20404.00
959.6690, 22122.00
960.7860, 23874.00
961.9020, 25806.00
963.0190, 27256.00
964.1350, 28244.00
965.2510, 28765.00
966.3670, 28999.00
967.4830, 27515.00
968.5980, 27025.00
969.7140, 25653.00
970.8290, 24993.00
971.9440, 24740.00
973.0590, 24663.00
974.1740, 25304.00
975.2880, 26049.00
976.4030, 26995.00
977.5170, 28024.00
978.6310, 29232.00
979.7450, 29597.00
980.8590, 29298.00
981.9730, 29007.00
983.0860, 27836.00
984.2000, 26605.00
985.3130, 25265.00
986.4260, 24018.00
987.5390, 22668.00
988.6520, 22250.00
989.7640, 21377.00
990.8770, 21105.00
991.9890, 21096.00
993.1010, 20903.00
994.2130, 21049.00
995.3250, 21208.00
996.4370, 21527.00
997.5480, 21942.00
998.6590, 22422.00
999.7710, 22762.00
1000.882, 23393.00
1001.993, 23627.00
1003.103, 23597.00
1004.214, 23566.00
1005.324, 23021.00
1006.434, 22408.00
1007.545, 21342.00
1008.655, 20215.00
1009.764, 19236.00
1010.874, 18022.00
1011.983, 16937.00
1013.093, 16012.00
1014.202, 15120.00
1015.311, 14354.00
1016.420, 13695.00
1017.528, 13314.00
1018.637, 12898.00
1019.745, 12572.00
1020.854, 12283.00
1021.962, 12127.33
1023.070, 12048.00
1024.177, 12049.00
1025.285, 12109.00
1026.392, 12302.00
1027.500, 12488.00
1028.607, 12516.00
1029.714, 12581.00
1030.821, 12564.00
1031.927, 12657.00
1033.034, 12445.00
1034.140, 12505.00
1035.246, 12451.00
1036.352, 12504.00
1037.458, 12215.00
1038.564, 12266.00
1039.670, 12214.00
1040.775, 12231.00
1041.880, 12311.00
1042.986, 12238.00
1044.090, 12255.00
1045.195, 12256.00
1046.300, 12162.00
1047.404, 12345.00
1048.509, 12337.00
1049.613, 12423.00
1050.717, 12606.00
1051.821, 12672.00
1052.925, 12877.00
1054.028, 13130.00
1055.132, 13293.00
1056.235, 13307.00
1057.338, 13424.00
1058.441, 13431.00
1059.544, 13368.00
1060.647, 13445.00
1061.749, 13002.00
1062.851, 13064.00
1063.954, 12742.00
1065.056, 12443.00
1066.158, 12148.00
1067.259, 11944.20
1068.361, 11697.00
1069.462, 11626.00
1070.564, 11520.00
1071.665, 11468.00
1072.766, 11557.00
1073.867, 11674.00
1074.967, 11970.00
1076.068, 12426.00
1077.168, 12718.00
1078.268, 13385.00
1079.368, 13907.00
1080.468, 14432.00
1081.568, 15163.00
1082.668, 15818.00
1083.767, 15730.00
1084.866, 15924.00
1085.966, 15760.00
1087.065, 15069.00
1088.163, 14654.00
1089.262, 14076.00
1090.361, 13348.00
1091.459, 12814.00
1092.557, 12495.00
1093.655, 12095.00
1094.753, 11840.00
1095.851, 11733.00
1096.949, 11579.00
1098.046, 11463.00
1099.143, 11394.32
1100.241, 11169.00
1101.338, 11266.00
1102.434, 11209.00
1103.531, 11125.00
1104.628, 11268.00
1105.724, 11123.00
1106.820, 11129.00
1107.916, 11017.00
1109.012, 10954.00
1110.108, 10899.00
1111.204, 10777.00
1112.299, 10705.00
1113.395, 10592.00
1114.490, 10468.00
1115.585, 10495.00
1116.680, 10352.00
1117.775, 10349.00
1118.869, 10108.00
1119.964, 10196.00
1121.058, 10220.00
1122.152, 10040.00
1123.246, 10247.00
1124.340, 10113.00
1125.434, 10117.00
1126.527, 9948.000
1127.620, 10004.00
1128.714, 9960.000
1129.807, 10067.00
1130.900, 9959.000
1131.992, 9988.000
1133.085, 10019.00
1134.178, 9881.000
1135.270, 9949.000
1136.362, 9829.000
1137.454, 9955.000
1138.546, 9821.000
1139.638, 9833.000
1140.729, 9885.000
1141.821, 9946.000
1142.912, 9830.000
1144.003, 9868.000
1145.094, 9844.000
1146.185, 9848.000
1147.276, 9902.000
1148.366, 9986.000
1149.456, 9958.279
1150.547, 9973.000
1151.637, 9915.000
1152.727, 9955.000
1153.816, 9889.000
1154.906, 9796.000
1155.995, 9849.000
1157.085, 9755.000
1158.174, 9904.000
1159.263, 9880.000
1160.352, 9739.000
1161.441, 9935.000
1162.529, 9846.000
1163.618, 9868.000
1164.706, 9710.000
1165.794, 9931.000
1166.882, 9892.000
1167.970, 10060.00
1169.058, 9785.000
1170.145, 9778.000
1171.232, 9869.000
1172.320, 9800.000
1173.407, 9935.000
1174.494, 9919.000
1175.580, 9829.000
1176.667, 9798.000
1177.754, 9800.000
1178.840, 9760.000
1179.926, 9800.000
1181.012, 9926.000
1182.098, 9685.000
1183.184, 9992.000
1184.269, 9757.000
1185.355, 9924.000
1186.440, 9946.000
1187.525, 9973.000
1188.610, 9850.000
1189.695, 9833.000
1190.780, 9872.000
1191.864, 9867.000
1192.949, 9906.000
1194.033, 9887.000
1195.117, 9859.000
1196.201, 9951.000
1197.285, 9969.000
1198.369, 9938.000
1199.452, 9948.000
1200.536, 9838.000
1201.619, 9959.000
1202.702, 9856.000
1203.785, 9903.000
1204.868, 9951.000
1205.950, 9925.000
1207.033, 9987.000
1208.115, 9968.000
1209.197, 10023.00
1210.279, 10012.50
1211.361, 9832.000
1212.443, 9955.000
1213.525, 9972.000
1214.606, 9861.000
1215.687, 9922.000
1216.769, 9798.000
1217.850, 9930.000
1218.930, 9830.000
1220.011, 10009.00
1221.092, 9941.000
1222.172, 9949.000
1223.252, 9977.000
1224.333, 10025.00
1225.413, 9973.000
1226.492, 9979.000
1227.572, 10054.00
1228.652, 10077.00
1229.731, 9985.000
1230.810, 9982.000
1231.889, 10067.00
1232.968, 9991.000
1234.047, 10020.00
1235.126, 9870.000
1236.204, 10034.00
1237.283, 9998.000
1238.361, 10060.00
1239.439, 10028.00
1240.517, 10037.00
1241.595, 9986.000
1242.673, 9901.000
1243.750, 9918.000
1244.827, 9902.379
1245.905, 9934.000
1246.982, 9940.000
1248.059, 9977.000
1249.135, 9994.000
1250.212, 9968.000
1251.288, 9890.000
1252.365, 10030.00
1253.441, 9901.000
1254.517, 10084.00
1255.593, 10030.00
1256.669, 10031.00
1257.744, 10187.00
1258.820, 10070.00
1259.895, 10011.00
1260.970, 10121.00
1262.045, 10260.00
1263.120, 10173.00
1264.195, 10044.00
1265.270, 10148.00
1266.344, 10122.00
1267.418, 10179.00
1268.492, 10126.00
1269.566, 10165.00
1270.640, 10150.00
1271.714, 10169.00
1272.788, 10154.00
1273.861, 10129.63
1274.934, 10274.00
1276.007, 10102.00
1277.080, 10092.00
1278.153, 10154.00
1279.226, 9971.000
1280.299, 10134.00
1281.371, 10149.00
1282.443, 10166.00
1283.515, 10181.00
1284.587, 10149.00
1285.659, 10057.00
1286.731, 10101.50
1287.802, 10121.00
1288.874, 10121.00
1289.945, 10177.00
1291.016, 10162.00
1292.087, 10169.00
1293.158, 10154.00
1294.229, 10221.00
1295.299, 10186.00
1296.370, 10127.00
1297.440, 10314.00
1298.510, 10088.00
1299.580, 10251.00
1300.650, 10175.00
1301.720, 10224.00
1302.789, 10284.00
1303.859, 10158.00
1304.928, 10290.00
1305.997, 10286.00
1307.066, 10155.00
1308.135, 10174.00
1309.203, 10184.00
1310.272, 10271.00
1311.340, 10280.00
1312.409, 10170.00
1313.477, 10276.00
1314.545, 10428.00
1315.612, 10192.00
1316.680, 10271.00
1317.748, 10356.00
1318.815, 10261.00
1319.882, 10289.00
1320.949, 10379.00
1322.016, 10358.00
1323.083, 10302.00
1324.150, 10304.00
1325.216, 10423.00
1326.283, 10358.00
1327.349, 10272.00
1328.415, 10438.00
1329.481, 10292.00
1330.547, 10414.00
1331.613, 10482.00
1332.678, 10455.00
1333.744, 10506.00
1334.809, 10376.00
1335.874, 10472.00
1336.939, 10301.00
1338.004, 10391.00
1339.068, 10408.00
1340.133, 10379.00
1341.197, 10510.00
1342.262, 10538.00
1343.326, 10500.00
1344.390, 10499.00
1345.453, 10454.00
1346.517, 10532.00
1347.581, 10488.00
1348.644, 10508.01
1349.707, 10576.00
1350.770, 10512.00
1351.833, 10485.00
1352.896, 10456.00
1353.959, 10618.00
1355.022, 10590.00
1356.084, 10547.00
1357.146, 10529.00
1358.208, 10433.00
1359.270, 10581.00
1360.332, 10565.00
1361.394, 10505.00
1362.455, 10437.00
1363.517, 10639.00
1364.578, 10587.00
1365.639, 10573.00
1366.700, 10615.00
1367.761, 10535.00
1368.822, 10567.00
1369.883, 10638.00
1370.943, 10637.00
1372.003, 10506.00
1373.063, 10598.00
1374.123, 10664.00
1375.183, 10709.00
1376.243, 10485.00
1377.303, 10602.00
1378.362, 10549.00
1379.421, 10702.00
1380.481, 10626.00
1381.540, 10671.00
1382.598, 10731.00
1383.657, 10687.00
1384.716, 10627.00
1385.774, 10599.00
1386.833, 10573.00
1387.891, 10655.00
1388.949, 10710.00
1390.007, 10605.00
1391.065, 10569.00
1392.122, 10665.00
1393.180, 10688.00
1394.237, 10685.00
1395.294, 10714.14
1396.351, 10771.00
1397.408, 10673.00
1398.465, 10650.00
1399.522, 10557.00
1400.578, 10540.06
1401.635, 10677.00
1402.691, 10556.00
1403.747, 10572.00
1404.803, 10690.00
1405.859, 10614.00
1406.914, 10817.00
1407.970, 10847.00
1409.025, 10661.00
1410.081, 10742.00
1411.136, 10844.00
1412.191, 10788.00
1413.245, 10719.00
1414.300, 10787.00
1415.355, 10786.00
1416.409, 10861.00
1417.463, 10904.00
1418.518, 10921.64
1419.572, 10929.89
1420.625, 10973.00
1421.679, 10897.00
1422.733, 10922.00
1423.786, 10908.00
1424.840, 10788.00
1425.893, 10918.00
1426.946, 10847.00
1427.999, 10860.00
1429.051, 11008.00
1430.104, 10973.00
1431.157, 10970.00
1432.209, 10942.00
1433.261, 10982.00
1434.313, 10973.00
1435.365, 10983.93
1436.417, 11033.00
1437.468, 11007.00
1438.520, 11037.00
1439.571, 11049.00
1440.623, 11057.78
1441.674, 11080.48
1442.725, 11091.00
1443.775, 11097.00
1444.826, 11106.20
1445.877, 11077.00
1446.927, 11096.00
1447.977, 11087.00
1449.028, 11122.00
1450.078, 11073.00
1451.127, 11100.00
1452.177, 11092.00
1453.227, 11037.00
1454.276, 11136.00
1455.325, 11025.00
1456.375, 11085.00
1457.424, 11162.00
1458.473, 11023.00
1459.521, 11147.00
1460.570, 11192.00
1461.618, 11184.00
1462.667, 11127.00
1463.715, 11079.00
1464.763, 11080.00
1465.811, 11053.62
1466.859, 11080.00
1467.906, 11085.00
1468.954, 11099.00
1470.001, 11104.51
1471.049, 11091.17
1472.096, 11109.00
1473.143, 11051.00
1474.190, 11050.18
1475.236, 11018.00
1476.283, 11070.00
1477.329, 11137.00
1478.376, 11195.00
1479.422, 11146.57
1480.468, 11146.00
1481.514, 11020.00
1482.559, 11071.00
1483.605, 11009.00
1484.650, 11037.00
1485.696, 11108.00
1486.741, 11065.00
1487.786, 11025.00
1488.831, 11073.20
1489.876, 11048.00
1490.920, 11119.00
1491.965, 11165.00
1493.009, 11190.00
1494.054, 11072.00
1495.098, 11018.00
1496.142, 11235.00
1497.185, 11107.00
1498.229, 11134.00
1499.273, 11188.00
1500.316, 11194.00
1501.359, 11230.63
1502.403, 11245.98
1503.446, 11278.00
1504.489, 11266.00
1505.531, 11278.00
1506.574, 11280.00
1507.616, 11236.23
1508.659, 11147.00
1509.701, 11179.00
1510.743, 11191.00
1511.785, 11244.00
1512.827, 11282.00
1513.868, 11070.00
1514.910, 11289.00
1515.951, 11159.00
1516.993, 11252.00
1518.034, 11240.00
1519.075, 11308.00
1520.116, 11113.00
1521.156, 11352.00
1522.197, 11335.00
1523.237, 11160.00
1524.278, 11338.00
1525.318, 11150.00
1526.358, 11314.00
1527.398, 11210.00
1528.438, 11252.00
1529.477, 11339.00
1530.517, 11361.00
1531.556, 11365.00
1532.596, 11390.00
1533.635, 11340.00
1534.674, 11246.00
1535.712, 11324.00
1536.751, 11402.00
1537.790, 11258.00
1538.828, 11311.00
1539.866, 11297.00
1540.905, 11273.00
1541.943, 11422.00
1542.981, 11398.00
1544.018, 11424.00
1545.056, 11526.00
1546.094, 11387.00
1547.131, 11479.00
1548.168, 11395.00
1549.205, 11401.00
1550.242, 11495.00
1551.279, 11397.00
1552.316, 11324.00
1553.352, 11393.00
1554.389, 11514.00
1555.425, 11509.00
1556.461, 11598.00
1557.497, 11450.00
1558.533, 11525.00
1559.569, 11475.00
1560.605, 11539.00
1561.640, 11360.00
1562.675, 11364.00
1563.711, 11539.00
##END=



