##NAMES=Axinite-(Fe)
##RRUFFID=R060194
##IDEAL CHEMISTRY=Ca_4_Fe^2+^_2_Al_4_[B_2_Si_8_O_30_](OH)_2_
##LOCALITY=near Dalbandi, Baluchistan Province, Pakistan
##OWNER=RRUFF
##SOURCE=Herbert Obodda
##DESCRIPTION=Brown transparent wedge-shaped single crystal
##STATUS=The identification of this mineral has been confirmed by X-ray diffraction and chemical analysis
##URL=rruff.info/R060194
##MEASURED CHEMISTRY=Ca_2.00_(Fe^2+^_0.66_Mg_0.30_Mn_0.04_)Al_2.00_BSi_4.00_O_15_(OH)
##PIN_ID=L01072
##ORIENTATION=Laser parallel to -c* (0 0 -1). Fiducial mark perpendicular to laser is parallel to a [1 0 0]
53.91000, 1230.000
55.14900, 1159.000
56.38700, 1168.000
57.62600, 1164.000
58.86400, 1165.000
60.10300, 1155.000
61.34100, 1159.000
62.57900, 1192.000
63.81700, 1225.000
65.05400, 1206.000
66.29200, 1218.000
67.52900, 1215.000
68.76700, 1280.000
70.00400, 1498.000
71.24100, 1778.000
72.47700, 1910.000
73.71400, 1856.000
74.95100, 1789.000
76.18700, 1990.000
77.42300, 2288.000
78.65900, 2472.000
79.89500, 2582.000
81.13100, 2719.000
82.36700, 2953.000
83.60200, 3297.000
84.83700, 3671.000
86.07200, 3947.293
87.30800, 4345.448
88.54200, 4617.000
89.77700, 5113.000
91.01200, 5546.000
92.24600, 5972.000
93.48000, 6820.000
94.71400, 7366.000
95.94800, 7826.000
97.18200, 8668.000
98.41600, 9571.000
99.64900, 10478.00
100.8830, 11847.00
102.1160, 13393.00
103.3490, 14369.00
104.5820, 15711.00
105.8150, 17074.00
107.0470, 19155.00
108.2800, 21317.00
109.5120, 24871.00
110.7440, 27646.00
111.9760, 26241.00
113.2080, 23444.00
114.4400, 20750.00
115.6710, 18027.00
116.9030, 16220.00
118.1340, 14811.00
119.3650, 13530.00
120.5960, 12614.00
121.8270, 11820.00
123.0580, 11221.00
124.2880, 10915.00
125.5190, 10607.00
126.7490, 10242.00
127.9790, 9613.000
129.2090, 9315.000
130.4390, 9138.000
131.6680, 9060.000
132.8980, 9030.000
134.1270, 8865.000
135.3560, 9075.000
136.5850, 9392.000
137.8140, 10078.00
139.0430, 10811.00
140.2710, 11632.00
141.5000, 12539.00
142.7280, 13148.00
143.9560, 13510.00
145.1840, 13928.00
146.4120, 14032.00
147.6390, 14297.00
148.8670, 14962.00
150.0940, 15958.00
151.3210, 16998.00
152.5490, 18594.00
153.7750, 20293.00
155.0020, 21586.00
156.2290, 20359.00
157.4550, 18055.00
158.6810, 16720.00
159.9080, 15729.00
161.1340, 14552.00
162.3590, 13894.00
163.5850, 13674.00
164.8110, 14134.00
166.0360, 14660.00
167.2610, 15312.00
168.4860, 16286.00
169.7110, 17593.00
170.9360, 19146.00
172.1610, 21167.00
173.3850, 22407.00
174.6100, 23026.00
175.8340, 22460.00
177.0580, 21125.00
178.2820, 19306.00
179.5050, 17162.00
180.7290, 15316.00
181.9520, 13748.00
183.1760, 12542.00
184.3990, 11670.00
185.6220, 11195.00
186.8450, 10947.79
188.0670, 11058.54
189.2900, 11425.00
190.5120, 12232.00
191.7340, 13167.00
192.9560, 14592.00
194.1780, 16083.00
195.4000, 17957.00
196.6220, 19150.00
197.8430, 18731.00
199.0640, 18011.00
200.2860, 17394.00
201.5070, 17493.00
202.7270, 18070.00
203.9480, 19395.00
205.1690, 20612.00
206.3890, 21842.00
207.6090, 23199.00
208.8290, 24177.00
210.0490, 24541.00
211.2690, 24376.00
212.4890, 24000.00
213.7080, 23574.00
214.9280, 22843.00
216.1470, 22329.00
217.3660, 21526.00
218.5850, 21265.00
219.8030, 20348.00
221.0220, 19925.00
222.2400, 18865.00
223.4590, 17677.00
224.6770, 16296.00
225.8950, 14726.00
227.1120, 13459.00
228.3300, 12524.00
229.5480, 11601.00
230.7650, 10993.00
231.9820, 10764.00
233.1990, 10449.00
234.4160, 10291.00
235.6330, 10314.00
236.8490, 10454.00
238.0660, 10697.00
239.2820, 10950.00
240.4980, 11419.00
241.7140, 11982.00
242.9300, 12436.00
244.1460, 12804.00
245.3610, 13096.00
246.5770, 13106.00
247.7920, 13204.00
249.0070, 13467.00
250.2220, 13789.00
251.4370, 14244.64
252.6510, 14697.00
253.8660, 15459.00
255.0800, 16340.00
256.2940, 17190.00
257.5080, 17890.00
258.7220, 18076.00
259.9360, 18553.00
261.1490, 18933.00
262.3630, 18429.00
263.5760, 18197.00
264.7890, 18889.00
266.0020, 19992.00
267.2150, 21321.00
268.4270, 22669.00
269.6400, 24092.00
270.8520, 25782.00
272.0640, 27461.00
273.2760, 28201.00
274.4880, 28662.00
275.7000, 28727.00
276.9120, 28281.00
278.1230, 27112.00
279.3340, 25860.00
280.5450, 24440.00
281.7560, 22744.00
282.9670, 21284.00
284.1780, 20143.00
285.3880, 19268.00
286.5980, 18590.22
287.8090, 18328.00
289.0190, 17944.00
290.2290, 17853.00
291.4380, 17948.00
292.6480, 18049.00
293.8570, 18272.00
295.0670, 18710.00
296.2760, 19066.00
297.4850, 19687.00
298.6930, 20384.00
299.9020, 21045.00
301.1110, 21812.00
302.3190, 22561.00
303.5270, 23679.00
304.7350, 24459.00
305.9430, 25332.00
307.1510, 26693.00
308.3580, 27525.00
309.5660, 27744.00
310.7730, 27311.00
311.9800, 26594.00
313.1870, 25124.00
314.3940, 24667.00
315.6010, 24183.00
316.8070, 24362.00
318.0130, 25091.00
319.2200, 26281.00
320.4260, 27241.00
321.6310, 27570.00
322.8370, 26948.00
324.0430, 25509.00
325.2480, 23724.00
326.4540, 22004.00
327.6590, 20486.00
328.8640, 19415.00
330.0680, 18681.00
331.2730, 18104.00
332.4780, 17904.00
333.6820, 17822.00
334.8860, 17907.00
336.0900, 18150.00
337.2940, 18931.00
338.4980, 20026.00
339.7010, 21236.00
340.9050, 23378.00
342.1080, 25547.00
343.3110, 28341.00
344.5140, 30806.00
345.7170, 32620.00
346.9200, 33398.00
348.1220, 32503.00
349.3240, 31272.00
350.5270, 29405.00
351.7290, 27948.00
352.9310, 26698.00
354.1320, 25564.00
355.3340, 24249.00
356.5350, 22420.00
357.7370, 20156.00
358.9380, 18157.00
360.1390, 16194.00
361.3400, 14712.00
362.5400, 13549.00
363.7410, 12866.00
364.9410, 12202.00
366.1410, 11815.00
367.3410, 11617.00
368.5410, 11359.00
369.7410, 11265.00
370.9400, 11474.00
372.1400, 11434.00
373.3390, 11756.00
374.5380, 11796.13
375.7370, 11935.98
376.9360, 12083.00
378.1350, 12218.00
379.3330, 12545.00
380.5310, 12736.00
381.7300, 13093.00
382.9280, 13682.00
384.1260, 14733.00
385.3230, 16049.00
386.5210, 17581.00
387.7180, 19713.00
388.9160, 21810.00
390.1130, 23950.00
391.3100, 25860.00
392.5060, 26869.00
393.7030, 26795.00
394.9000, 25525.00
396.0960, 23703.00
397.2920, 21569.00
398.4880, 19663.00
399.6840, 18018.00
400.8800, 16539.00
402.0750, 16012.00
403.2710, 15508.00
404.4660, 15108.00
405.6610, 14612.00
406.8560, 14399.00
408.0510, 14268.00
409.2450, 14287.00
410.4400, 14684.00
411.6340, 15467.00
412.8280, 16586.00
414.0220, 18360.00
415.2160, 20684.00
416.4100, 23591.00
417.6030, 27106.00
418.7970, 30423.00
419.9900, 32651.00
421.1830, 32344.00
422.3760, 30920.00
423.5690, 29161.00
424.7610, 28217.00
425.9540, 28108.00
427.1460, 27875.00
428.3380, 27940.00
429.5300, 28077.00
430.7220, 27708.00
431.9140, 26246.00
433.1050, 24670.00
434.2970, 22667.00
435.4880, 20521.00
436.6790, 18935.00
437.8700, 17249.00
439.0610, 16369.00
440.2510, 15801.00
441.4420, 15672.00
442.6320, 16231.00
443.8220, 16852.00
445.0120, 17889.00
446.2020, 18878.00
447.3910, 19036.00
448.5810, 18596.00
449.7700, 17110.00
450.9600, 15485.00
452.1490, 14029.00
453.3370, 13147.00
454.5260, 12362.00
455.7150, 11689.00
456.9030, 11431.00
458.0910, 11199.00
459.2800, 11067.00
460.4670, 10948.00
461.6550, 10872.00
462.8430, 10908.00
464.0300, 10938.00
465.2180, 11130.00
466.4050, 11409.00
467.5920, 11736.00
468.7790, 12006.00
469.9650, 12550.00
471.1520, 13014.00
472.3380, 13501.00
473.5250, 13797.00
474.7110, 13959.00
475.8970, 14035.00
477.0820, 14655.00
478.2680, 15529.00
479.4540, 16539.00
480.6390, 18072.00
481.8240, 20492.00
483.0090, 23321.00
484.1940, 26202.00
485.3780, 29754.00
486.5630, 32103.00
487.7470, 33058.00
488.9320, 31174.00
490.1160, 27495.00
491.3000, 23752.00
492.4830, 20049.00
493.6670, 17312.00
494.8500, 15477.00
496.0340, 14297.00
497.2170, 14042.00
498.4000, 13550.00
499.5820, 13123.00
500.7650, 13341.00
501.9480, 13517.00
503.1300, 13870.00
504.3120, 14046.00
505.4940, 14343.00
506.6760, 14807.00
507.8580, 15112.00
509.0390, 15447.00
510.2210, 15515.00
511.4020, 15500.00
512.5830, 15211.00
513.7640, 15106.00
514.9450, 14258.00
516.1250, 13911.00
517.3060, 13040.00
518.4860, 12527.00
519.6660, 11836.00
520.8460, 11501.00
522.0260, 11033.00
523.2060, 10734.00
524.3850, 10596.00
525.5650, 10396.00
526.7440, 10237.00
527.9230, 10242.00
529.1020, 10063.00
530.2810, 10047.00
531.4590, 10183.00
532.6380, 10327.00
533.8160, 10302.00
534.9940, 10513.00
536.1720, 10440.00
537.3500, 10525.00
538.5270, 10667.00
539.7050, 10620.00
540.8820, 10536.00
542.0590, 10496.00
543.2360, 10472.05
544.4130, 10610.00
545.5900, 10458.00
546.7660, 10529.00
547.9430, 10552.00
549.1190, 10425.00
550.2950, 10475.00
551.4710, 10364.00
552.6470, 10476.00
553.8220, 10412.00
554.9980, 10508.00
556.1730, 10619.00
557.3480, 10744.00
558.5230, 11160.00
559.6980, 11529.00
560.8730, 11920.00
562.0470, 12273.14
563.2220, 12626.41
564.3960, 12924.00
565.5700, 13273.00
566.7440, 13521.00
567.9170, 14007.21
569.0910, 14250.00
570.2640, 14983.00
571.4380, 15663.00
572.6110, 16187.00
573.7840, 17055.00
574.9570, 17388.00
576.1290, 17604.00
577.3020, 17192.00
578.4740, 16720.00
579.6460, 16143.00
580.8180, 15308.00
581.9900, 15158.00
583.1620, 14538.00
584.3330, 14686.00
585.5040, 14673.00
586.6760, 15102.00
587.8470, 15651.00
589.0180, 16322.00
590.1880, 16828.00
591.3590, 17129.00
592.5290, 17072.00
593.7000, 16579.00
594.8700, 15965.00
596.0400, 14763.00
597.2090, 13992.00
598.3790, 13163.00
599.5490, 12623.00
600.7180, 12132.00
601.8870, 11922.00
603.0560, 11748.00
604.2250, 11745.00
605.3940, 11762.00
606.5620, 11799.00
607.7300, 12121.00
608.8990, 12395.00
610.0670, 12887.00
611.2350, 13626.00
612.4020, 14233.00
613.5700, 15091.00
614.7370, 15589.00
615.9050, 16386.00
617.0720, 17053.00
618.2390, 17563.90
619.4060, 18049.00
620.5720, 18247.00
621.7390, 18234.00
622.9050, 17739.00
624.0710, 16970.00
625.2370, 15878.00
626.4030, 14656.00
627.5690, 13523.00
628.7340, 12700.00
629.9000, 12118.00
631.0650, 11582.00
632.2300, 11356.00
633.3950, 11113.00
634.5600, 11045.00
635.7240, 10927.00
636.8890, 11207.00
638.0530, 11448.00
639.2170, 11447.00
640.3810, 11745.00
641.5450, 12096.00
642.7080, 12430.00
643.8720, 12556.00
645.0350, 12864.00
646.1980, 12869.00
647.3610, 12796.00
648.5240, 12621.00
649.6870, 12195.00
650.8490, 12234.00
652.0120, 11594.00
653.1740, 11420.00
654.3360, 11191.00
655.4980, 10942.00
656.6600, 10819.00
657.8210, 10708.00
658.9830, 10670.19
660.1440, 10758.00
661.3050, 10749.00
662.4660, 10843.00
663.6270, 10974.28
664.7870, 11095.00
665.9480, 11400.00
667.1080, 11600.00
668.2680, 11892.00
669.4280, 12370.00
670.5880, 13090.00
671.7480, 13662.00
672.9070, 14585.00
674.0670, 15633.00
675.2260, 16445.00
676.3850, 17613.00
677.5440, 18294.00
678.7030, 18670.00
679.8610, 18594.00
681.0200, 17986.00
682.1780, 17243.00
683.3360, 16162.00
684.4940, 15171.00
685.6520, 14312.00
686.8090, 13737.00
687.9670, 13120.00
689.1240, 12795.00
690.2810, 12799.00
691.4380, 12693.00
692.5950, 12698.65
693.7520, 12827.00
694.9080, 12973.00
696.0650, 13318.00
697.2210, 13745.00
698.3770, 14081.00
699.5330, 14765.00
700.6880, 15666.00
701.8440, 16472.00
702.9990, 17899.00
704.1550, 19502.00
705.3100, 21421.00
706.4650, 24178.00
707.6190, 27196.00
708.7740, 30989.00
709.9290, 35062.00
711.0830, 40087.00
712.2370, 45128.00
713.3910, 49963.00
714.5450, 53493.00
715.6980, 55558.00
716.8520, 54603.00
718.0050, 51276.00
719.1580, 46813.00
720.3110, 41357.00
721.4640, 36145.00
722.6170, 31515.00
723.7700, 27628.00
724.9220, 24180.00
726.0740, 22124.00
727.2260, 19934.00
728.3780, 18410.00
729.5300, 17276.00
730.6810, 16263.00
731.8330, 15420.00
732.9840, 14841.00
734.1350, 14605.00
735.2860, 14032.00
736.4370, 13664.00
737.5880, 13486.00
738.7380, 13208.00
739.8880, 12893.00
741.0390, 12727.00
742.1890, 12609.00
743.3380, 12608.00
744.4880, 12492.00
745.6380, 12393.00
746.7870, 12256.00
747.9360, 12262.54
749.0850, 12389.00
750.2340, 12362.00
751.3830, 12416.00
752.5310, 12633.00
753.6800, 12739.00
754.8280, 13011.00
755.9760, 13114.00
757.1240, 13397.00
758.2720, 13794.00
759.4190, 14222.00
760.5670, 14774.00
761.7140, 15225.00
762.8610, 15818.00
764.0080, 16458.00
765.1550, 17284.00
766.3020, 17879.00
767.4480, 18276.00
768.5950, 18460.00
769.7410, 18725.00
770.8870, 18723.00
772.0330, 17979.00
773.1780, 17643.00
774.3240, 16694.00
775.4690, 15896.00
776.6140, 15152.00
777.7590, 14624.00
778.9040, 14171.00
780.0490, 13802.00
781.1940, 13272.00
782.3380, 13043.00
783.4820, 12699.00
784.6260, 12563.00
785.7700, 12303.00
786.9140, 12294.00
788.0580, 12014.00
789.2010, 11918.00
790.3450, 11836.00
791.4880, 11693.00
792.6310, 11641.00
793.7730, 11608.00
794.9160, 11508.00
796.0590, 11475.00
797.2010, 11511.00
798.3430, 11419.00
799.4850, 11345.00
800.6270, 11514.00
801.7690, 11483.00
802.9100, 11574.00
804.0520, 11520.00
805.1930, 11649.00
806.3340, 11740.00
807.4750, 11789.00
808.6160, 12109.00
809.7560, 12393.00
810.8970, 12583.00
812.0370, 13087.00
813.1770, 13297.00
814.3170, 13501.00
815.4570, 13496.00
816.5960, 13699.00
817.7360, 13628.00
818.8750, 13252.00
820.0140, 12996.00
821.1530, 12864.00
822.2920, 12760.00
823.4310, 12478.00
824.5690, 12313.00
825.7070, 12037.00
826.8460, 12084.00
827.9840, 12066.00
829.1220, 12002.00
830.2590, 12021.00
831.3970, 12006.00
832.5340, 12085.00
833.6710, 12061.00
834.8080, 12082.00
835.9450, 12232.00
837.0820, 12192.00
838.2190, 12311.00
839.3550, 12389.00
840.4910, 12464.00
841.6270, 12625.00
842.7630, 12845.00
843.8990, 12956.00
845.0350, 13203.00
846.1700, 13401.00
847.3060, 13627.00
848.4410, 13945.00
849.5760, 14088.00
850.7100, 14337.00
851.8450, 14523.00
852.9800, 14674.00
854.1140, 14722.00
855.2480, 14696.00
856.3820, 14660.00
857.5160, 14629.00
858.6500, 14544.00
859.7830, 14486.00
860.9170, 14553.00
862.0500, 14496.00
863.1830, 14422.00
864.3160, 14348.00
865.4480, 14336.00
866.5810, 14474.00
867.7130, 14452.00
868.8460, 14672.00
869.9780, 14651.00
871.1100, 14491.00
872.2410, 14859.00
873.3730, 14592.00
874.5050, 14635.00
875.6360, 14857.00
876.7670, 14870.00
877.8980, 14946.00
879.0290, 15101.00
880.1590, 15340.00
881.2900, 15354.00
882.4200, 15520.00
883.5500, 15565.00
884.6800, 15825.00
885.8100, 16064.00
886.9400, 16365.00
888.0690, 16542.00
889.1990, 17057.00
890.3280, 17550.00
891.4570, 18178.00
892.5860, 18901.00
893.7140, 19772.76
894.8430, 20677.00
895.9710, 21847.00
897.1000, 23021.00
898.2280, 24307.00
899.3560, 25242.00
900.4830, 26711.00
901.6110, 27685.00
902.7380, 28913.00
903.8660, 29832.00
904.9930, 31169.00
906.1200, 32322.00
907.2460, 33364.00
908.3730, 34183.00
909.5000, 34823.00
910.6260, 34771.37
911.7520, 34367.44
912.8780, 33601.00
914.0040, 32248.00
915.1290, 30363.00
916.2550, 28325.00
917.3800, 26292.00
918.5050, 24800.00
919.6300, 23063.00
920.7550, 22071.00
921.8800, 20737.00
923.0040, 19904.00
924.1290, 19395.00
925.2530, 19021.00
926.3770, 18605.00
927.5010, 18443.00
928.6250, 18549.00
929.7480, 18673.00
930.8720, 18759.00
931.9950, 18939.00
933.1180, 19984.00
934.2410, 19550.00
935.3640, 19712.00
936.4860, 19483.00
937.6090, 18987.00
938.7310, 19112.00
939.8530, 19424.00
940.9750, 19587.00
942.0970, 20036.00
943.2180, 20527.00
944.3400, 21359.00
945.4610, 21926.00
946.5820, 23195.00
947.7030, 24290.00
948.8240, 25912.00
949.9450, 27206.00
951.0650, 29034.00
952.1860, 31144.00
953.3060, 32767.00
954.4260, 34679.00
955.5460, 36510.00
956.6650, 38223.00
957.7850, 40083.00
958.9040, 42134.00
960.0230, 44607.00
961.1420, 47615.00
962.2610, 50857.00
963.3800, 54121.00
964.4990, 57492.00
965.6170, 59173.00
966.7350, 59472.00
967.8530, 58886.00
968.9710, 56493.00
970.0890, 53258.00
971.2070, 49483.00
972.3240, 46157.00
973.4410, 43900.00
974.5580, 42427.00
975.6750, 41944.00
976.7920, 42166.00
977.9090, 43094.00
979.0250, 44295.00
980.1410, 45424.00
981.2580, 46296.00
982.3740, 46674.00
983.4890, 45709.00
984.6050, 44046.00
985.7200, 43096.00
986.8360, 41259.00
987.9510, 40000.00
989.0660, 39324.00
990.1810, 38873.00
991.2950, 38447.00
992.4100, 38536.00
993.5240, 38745.00
994.6390, 38847.00
995.7530, 38430.00
996.8660, 38401.00
997.9800, 38426.00
999.0940, 38554.00
1000.207, 39114.00
1001.320, 39764.00
1002.433, 40452.00
1003.546, 41221.00
1004.659, 41752.00
1005.772, 41752.00
1006.884, 41594.00
1007.996, 40595.00
1009.108, 38845.00
1010.220, 36336.00
1011.332, 34088.00
1012.444, 31606.00
1013.555, 29271.00
1014.666, 26792.00
1015.777, 25137.00
1016.888, 23353.00
1017.999, 21941.00
1019.110, 21039.00
1020.220, 20157.00
1021.331, 19426.00
1022.441, 19113.00
1023.551, 18706.00
1024.661, 18578.00
1025.770, 18668.00
1026.880, 18508.00
1027.989, 18751.00
1029.098, 18698.00
1030.207, 18729.00
1031.316, 18662.00
1032.425, 18237.00
1033.533, 17939.00
1034.642, 17395.00
1035.750, 16975.00
1036.858, 16625.00
1037.966, 16273.00
1039.073, 16160.00
1040.181, 15737.00
1041.288, 15808.00
1042.396, 15712.00
1043.503, 15660.00
1044.610, 15749.00
1045.716, 15731.00
1046.823, 15731.00
1047.929, 15727.00
1049.036, 15734.00
1050.142, 15835.00
1051.248, 15901.88
1052.353, 15953.00
1053.459, 16062.00
1054.564, 16247.01
1055.670, 16457.00
1056.775, 16648.00
1057.880, 16902.00
1058.985, 17030.00
1060.089, 17047.00
1061.194, 16963.00
1062.298, 17118.00
1063.402, 16928.00
1064.506, 16918.00
1065.610, 16799.00
1066.713, 16475.00
1067.817, 16413.00
1068.920, 16010.00
1070.023, 15738.00
1071.126, 15676.00
1072.229, 15517.00
1073.332, 15487.00
1074.435, 15518.00
1075.537, 15558.00
1076.639, 15717.00
1077.741, 16090.00
1078.843, 16092.00
1079.945, 16460.00
1081.046, 16941.00
1082.148, 17545.00
1083.249, 17834.00
1084.350, 18387.00
1085.451, 18461.00
1086.551, 18489.00
1087.652, 18161.00
1088.752, 17894.00
1089.853, 17072.00
1090.953, 16723.00
1092.053, 16261.00
1093.152, 15816.00
1094.252, 15533.00
1095.351, 15398.97
1096.451, 15414.00
1097.550, 15429.00
1098.649, 15131.00
1099.748, 15312.00
1100.846, 15349.00
1101.945, 15586.00
1103.043, 15912.00
1104.141, 16042.00
1105.239, 16125.00
1106.337, 16427.00
1107.434, 16622.00
1108.532, 16755.00
1109.629, 16800.00
1110.726, 16548.00
1111.823, 16482.00
1112.920, 16291.00
1114.017, 15965.00
1115.113, 15831.00
1116.210, 15523.00
1117.306, 15265.00
1118.402, 15089.00
1119.498, 14950.00
1120.593, 14852.00
1121.689, 14598.00
1122.784, 14513.00
1123.879, 14575.00
1124.974, 14310.00
1126.069, 14294.00
1127.164, 14132.00
1128.259, 14070.26
1129.353, 14014.89
1130.447, 14008.00
1131.541, 13867.00
1132.635, 13859.00
1133.729, 13701.00
1134.822, 13766.00
1135.916, 13710.52
1137.009, 13730.00
1138.102, 13659.00
1139.195, 13653.00
1140.288, 13560.00
1141.380, 13626.00
1142.473, 13499.00
1143.565, 13650.00
1144.657, 13625.00
1145.749, 13566.00
1146.841, 13497.00
1147.932, 13484.00
1149.024, 13400.00
1150.115, 13338.00
1151.206, 13497.00
1152.297, 13521.00
1153.388, 13388.00
1154.479, 13464.28
1155.569, 13245.00
1156.659, 13335.00
1157.750, 13469.00
1158.839, 13227.00
1159.929, 13308.00
1161.019, 13398.00
1162.108, 13424.00
1163.198, 13212.00
1164.287, 13165.00
1165.376, 13254.00
1166.465, 13229.00
1167.553, 13213.00
1168.642, 13281.00
1169.730, 13241.00
1170.818, 13198.00
1171.906, 13320.00
1172.994, 13339.00
1174.082, 13385.00
1175.170, 13243.00
1176.257, 13249.00
1177.344, 13254.00
1178.431, 13257.00
1179.518, 13300.00
1180.605, 13205.00
1181.691, 13183.00
1182.778, 13342.00
1183.864, 13263.00
1184.950, 13369.00
1186.036, 13221.00
1187.122, 13022.00
1188.207, 13347.00
1189.292, 13347.00
1190.378, 13235.00
1191.463, 13193.00
1192.548, 13379.00
1193.632, 13250.00
1194.717, 13332.00
1195.801, 13311.00
1196.886, 13330.00
1197.970, 13301.00
1199.054, 13245.00
1200.137, 13684.00
1201.221, 13358.00
1202.305, 13444.00
1203.388, 13463.00
1204.471, 13242.00
1205.554, 13271.00
1206.637, 13367.00
1207.719, 13428.00
1208.802, 13184.00
1209.884, 13343.00
1210.966, 13402.00
1212.048, 13204.00
1213.130, 13361.00
1214.212, 13446.00
1215.293, 13338.00
1216.374, 13236.00
1217.456, 13428.00
1218.536, 13285.00
1219.617, 13296.00
1220.698, 13414.00
1221.778, 13369.00
1222.859, 13310.00
1223.939, 13321.00
1225.019, 13379.00
1226.099, 13331.00
1227.178, 13390.00
1228.258, 13299.00
1229.337, 13283.00
1230.417, 13316.46
1231.496, 13468.00
1232.574, 13345.00
1233.653, 13433.00
1234.732, 13398.00
1235.810, 13415.00
1236.888, 13427.00
1237.966, 13496.00
1239.044, 13339.00
1240.122, 13557.00
1241.199, 13498.00
1242.277, 13359.00
1243.354, 13517.00
1244.431, 13338.00
1245.508, 13437.00
1246.585, 13454.00
1247.661, 13550.00
1248.738, 13497.00
1249.814, 13471.00
1250.890, 13650.00
1251.966, 13562.00
1253.042, 13563.00
1254.117, 13578.00
1255.193, 13536.00
1256.268, 13505.00
1257.343, 14005.00
1258.418, 13833.43
1259.493, 14214.00
1260.567, 13906.00
1261.642, 13497.00
1262.716, 13607.00
1263.790, 13635.00
1264.864, 13450.00
1265.938, 13643.00
1267.011, 13612.00
1268.085, 13536.00
1269.158, 13670.00
1270.231, 13597.00
1271.304, 13669.00
1272.377, 13725.00
1273.450, 13603.00
1274.522, 13631.00
1275.594, 13724.00
1276.666, 13660.00
1277.738, 13787.00
1278.810, 13699.00
1279.882, 13794.00
1280.953, 13730.00
1282.025, 13787.00
1283.096, 13736.00
1284.167, 13816.00
1285.238, 14065.00
1286.308, 13956.83
1287.379, 13715.00
1288.449, 13909.00
1289.519, 13823.00
1290.589, 13802.00
1291.659, 13778.00
1292.729, 13902.00
1293.798, 13910.00
1294.868, 13761.00
1295.937, 13950.00
1297.006, 13872.62
1298.075, 13876.80
1299.143, 13861.00
1300.212, 13862.00
1301.280, 13872.95
1302.348, 13894.83
1303.416, 13908.00
1304.484, 13933.00
1305.552, 13967.00
1306.620, 13923.00
1307.687, 13873.00
1308.754, 13941.00
1309.821, 13927.00
1310.888, 13908.97
1311.955, 13904.00
1313.021, 13868.00
1314.088, 13942.00
1315.154, 13927.00
1316.220, 13843.00
1317.286, 14002.00
1318.352, 13950.00
1319.417, 13877.00
1320.483, 13955.00
1321.548, 13975.00
1322.613, 13888.00
1323.678, 14101.00
1324.743, 14054.00
1325.807, 14103.00
1326.872, 13908.00
1327.936, 14059.00
1329.000, 14059.00
1330.064, 14116.00
1331.128, 14087.00
1332.191, 14128.00
1333.255, 14125.67
1334.318, 14093.00
1335.381, 14122.00
1336.444, 14077.00
1337.507, 14071.00
1338.569, 14076.00
1339.632, 14147.00
1340.694, 14059.00
1341.756, 14079.00
1342.818, 14236.00
1343.880, 14336.00
1344.941, 14208.00
1346.003, 14341.00
1347.064, 14378.00
1348.125, 14347.00
1349.186, 14275.00
1350.247, 14195.00
1351.308, 14247.00
1352.368, 14241.31
1353.428, 14319.00
1354.489, 14332.00
1355.549, 14396.00
1356.608, 14423.00
1357.668, 14363.00
1358.727, 14463.00
1359.787, 14532.00
1360.846, 14293.00
1361.905, 14444.00
1362.964, 14382.00
1364.022, 14521.00
1365.081, 14506.00
1366.139, 14430.00
1367.197, 14449.00
1368.255, 14424.69
1369.313, 14433.00
1370.371, 14459.00
1371.428, 14394.00
1372.486, 14492.00
1373.543, 14527.00
1374.600, 14502.00
1375.657, 14551.00
1376.713, 14589.00
1377.770, 14569.00
1378.826, 14443.00
1379.882, 14541.00
1380.938, 14476.00
1381.994, 14535.00
1383.050, 14656.00
1384.106, 14765.00
1385.161, 14665.00
1386.216, 14516.00
1387.271, 14655.00
1388.326, 14707.00
1389.381, 14476.00
1390.435, 14725.00
1391.490, 14560.00
1392.544, 14628.00
1393.598, 14814.00
1394.652, 14445.00
1395.705, 14591.00
1396.759, 14599.00
1397.812, 14768.00
1398.866, 14676.00
1399.919, 14702.00
1400.972, 14696.00
1402.024, 14861.00
1403.077, 14778.34
1404.129, 14770.00
1405.181, 14689.00
1406.233, 14860.00
1407.285, 14812.00
1408.337, 14698.00
1409.389, 14685.00
1410.440, 14902.00
1411.491, 14933.00
1412.542, 14841.00
1413.593, 14673.00
1414.644, 14667.00
1415.695, 14924.00
1416.745, 14898.00
1417.795, 14990.00
1418.845, 14965.00
1419.895, 14988.20
1420.945, 14841.00
1421.995, 15016.00
1423.044, 14940.00
1424.093, 14961.00
1425.142, 15002.00
1426.191, 15050.00
1427.240, 14980.00
1428.289, 14960.00
1429.337, 15027.00
1430.385, 15102.00
1431.433, 15149.00
1432.481, 15124.00
1433.529, 15107.18
1434.577, 15110.31
1435.624, 15089.72
1436.672, 15069.00
1437.719, 15078.00
1438.766, 15032.00
1439.812, 15045.00
1440.859, 14979.00
1441.905, 15014.00
1442.952, 15120.00
1443.998, 14983.00
1445.044, 15050.00
1446.090, 15356.00
1447.135, 15205.00
1448.181, 15179.00
1449.226, 15219.00
1450.271, 15165.00
1451.316, 15083.00
1452.361, 15251.00
1453.405, 15195.00
1454.450, 15219.01
1455.494, 15284.00
1456.538, 15262.00
1457.582, 15306.00
1458.626, 15396.00
1459.670, 15442.00
1460.713, 15395.77
1461.757, 15342.00
1462.800, 15268.00
1463.843, 15306.00
1464.886, 15253.00
1465.928, 15303.00
1466.971, 15252.00
1468.013, 15239.00
1469.055, 15390.00
1470.097, 15338.00
1471.139, 15392.00
1472.181, 15337.00
1473.222, 15406.00
1474.263, 15361.00
1475.305, 15456.00
1476.346, 15536.00
1477.386, 15372.00
1478.427, 15467.00
1479.468, 15470.00
1480.508, 15478.00
1481.548, 15502.00
1482.588, 15382.00
1483.628, 15565.00
1484.668, 15339.00
1485.707, 15515.00
1486.747, 15607.00
1487.786, 15596.00
1488.825, 15592.00
1489.864, 15622.00
1490.902, 15648.00
1491.941, 15640.32
1492.979, 15636.76
1494.017, 15628.00
1495.055, 15583.00
1496.093, 15558.00
1497.131, 15506.00
1498.168, 15540.48
1499.206, 15597.00
1500.243, 15583.00
1501.280, 15686.00
1502.317, 15638.00
1503.354, 15754.00
1504.390, 15736.00
1505.426, 15761.00
1506.463, 15874.00
1507.499, 15847.00
1508.535, 15856.00
1509.570, 15822.00
1510.606, 15959.00
1511.641, 15767.00
1512.676, 15724.00
1513.711, 15810.00
1514.746, 16036.00
1515.781, 15808.00
1516.816, 15864.00
1517.850, 16004.00
1518.884, 15944.00
1519.918, 15929.00
1520.952, 15869.00
1521.986, 15883.00
1523.019, 15999.00
1524.053, 16045.00
1525.086, 16065.58
1526.119, 16192.00
1527.152, 16103.00
1528.185, 16111.00
1529.217, 16138.00
1530.250, 16071.00
1531.282, 16143.00
1532.314, 16166.00
1533.346, 16139.00
1534.377, 16177.00
1535.409, 16346.00
1536.440, 16256.00
1537.472, 16076.00
1538.503, 16236.00
1539.534, 16153.00
1540.564, 16225.00
1541.595, 16404.00
1542.625, 16191.00
1543.656, 16382.00
1544.686, 16214.00
1545.716, 16262.00
1546.745, 16172.00
1547.775, 16325.00
1548.804, 16203.00
1549.834, 16423.00
1550.863, 16521.00
1551.892, 16318.00
1552.920, 16415.00
1553.949, 16512.00
1554.977, 16437.00
1556.006, 16616.00
1557.034, 16487.00
1558.062, 16474.00
1559.089, 16393.00
1560.117, 16495.00
1561.144, 16368.00
1562.172, 16525.00
1563.199, 16412.00
1564.226, 16367.00
1565.252, 16578.00
1566.279, 16503.00
1567.305, 16517.00
1568.332, 16453.00
1569.358, 16454.00
1570.384, 17596.00
1571.409, 16815.00
1572.435, 16749.00
##END=



