##NAMES=Axinite-(Fe)
##RRUFFID=R060183
##IDEAL CHEMISTRY=Ca_4_Fe^2+^_2_Al_4_[B_2_Si_8_O_30_](OH)_2_
##LOCALITY=Skagit Bluffs, near Manning Park, British Columbia, Canada
##OWNER=RRUFF
##SOURCE=Lloyd Twaites
##DESCRIPTION=Light-pink transparent axe-head-shaped single crystal
##STATUS=The identification of this mineral has been confirmed by X-ray diffraction and chemical analysis
##URL=rruff.info/R060183
##MEASURED CHEMISTRY=Ca_2.00_(Fe^2+^_0.58_Mn_0.23_Mg_0.19_)Al_2.00_B_1.00_Si_4.00_O_15_(OH)
##PIN_ID=L00943
##ORIENTATION=Laser parallel to c* (0 0 1). Fiducial mark perpendicular to laser is parallel to a [1 0 0]
52.67100, 550.0000
53.91000, 536.0000
55.14900, 520.0000
56.38700, 528.0000
57.62600, 518.0000
58.86400, 528.0000
60.10300, 538.0000
61.34100, 535.0000
62.57900, 541.0000
63.81700, 550.0000
65.05400, 556.0000
66.29200, 585.0000
67.52900, 633.0000
68.76700, 694.0000
70.00400, 748.8117
71.24100, 791.0636
72.47700, 905.0000
73.71400, 908.0000
74.95100, 1029.000
76.18700, 1165.000
77.42300, 1207.000
78.65900, 1241.000
79.89500, 1343.000
81.13100, 1461.000
82.36700, 1697.000
83.60200, 1934.000
84.83700, 2153.000
86.07200, 2198.000
87.30800, 2279.000
88.54200, 2459.000
89.77700, 2702.000
91.01200, 3102.000
92.24600, 3532.000
93.48000, 3898.000
94.71400, 4143.000
95.94800, 4710.000
97.18200, 5045.000
98.41600, 5720.000
99.64900, 6371.000
100.8830, 7220.000
102.1160, 7946.000
103.3490, 8869.000
104.5820, 9870.000
105.8150, 11255.00
107.0470, 12783.00
108.2800, 14780.00
109.5120, 14865.00
110.7440, 12333.00
111.9760, 10064.00
113.2080, 8583.000
114.4400, 7381.000
115.6710, 6886.000
116.9030, 6175.000
118.1340, 5604.000
119.3650, 5232.000
120.5960, 5005.000
121.8270, 4778.000
123.0580, 4771.000
124.2880, 4908.000
125.5190, 4893.000
126.7490, 4823.454
127.9790, 4667.000
129.2090, 4693.000
130.4390, 4713.000
131.6680, 4824.000
132.8980, 4775.000
134.1270, 4754.000
135.3560, 5007.000
136.5850, 5238.000
137.8140, 5589.000
139.0430, 6088.000
140.2710, 6928.000
141.5000, 7510.000
142.7280, 8399.000
143.9560, 9571.000
145.1840, 11248.00
146.4120, 13224.00
147.6390, 15765.00
148.8670, 18478.00
150.0940, 20339.00
151.3210, 21636.00
152.5490, 24069.00
153.7750, 18432.00
155.0020, 15242.00
156.2290, 13602.00
157.4550, 12513.00
158.6810, 11723.00
159.9080, 11164.00
161.1340, 10978.00
162.3590, 11154.00
163.5850, 11747.00
164.8110, 12626.00
166.0360, 13825.00
167.2610, 15588.00
168.4860, 17977.00
169.7110, 20076.00
170.9360, 21792.00
172.1610, 22209.00
173.3850, 21364.00
174.6100, 19856.00
175.8340, 18410.00
177.0580, 16933.00
178.2820, 15428.00
179.5050, 13831.00
180.7290, 12512.00
181.9520, 11405.00
183.1760, 10692.25
184.3990, 10209.00
185.6220, 10076.00
186.8450, 10260.00
188.0670, 10678.00
189.2900, 11542.00
190.5120, 13062.00
191.7340, 14565.00
192.9560, 15783.00
194.1780, 15765.00
195.4000, 14834.00
196.6220, 13735.00
197.8430, 13042.00
199.0640, 12642.00
200.2860, 12914.00
201.5070, 13502.00
202.7270, 14581.00
203.9480, 15270.00
205.1690, 15710.00
206.3890, 16159.00
207.6090, 16253.00
208.8290, 16332.00
210.0490, 15977.00
211.2690, 15391.00
212.4890, 14659.00
213.7080, 14052.00
214.9280, 13178.00
216.1470, 12843.00
217.3660, 12089.00
218.5850, 11628.00
219.8030, 11089.00
221.0220, 10003.00
222.2400, 9216.000
223.4590, 8326.000
224.6770, 7720.000
225.8950, 7151.000
227.1120, 6622.000
228.3300, 6235.000
229.5480, 6094.000
230.7650, 6033.000
231.9820, 5910.000
233.1990, 5951.000
234.4160, 6106.000
235.6330, 6120.000
236.8490, 6527.000
238.0660, 6826.000
239.2820, 7258.000
240.4980, 7825.000
241.7140, 8428.000
242.9300, 9042.000
244.1460, 9703.000
245.3610, 10182.00
246.5770, 10689.00
247.7920, 10865.00
249.0070, 11068.00
250.2220, 11223.00
251.4370, 11522.00
252.6510, 11792.00
253.8660, 11816.00
255.0800, 11632.00
256.2940, 11221.00
257.5080, 10956.00
258.7220, 10907.33
259.9360, 10781.80
261.1490, 10943.00
262.3630, 10979.00
263.5760, 11183.00
264.7890, 11630.00
266.0020, 12147.00
267.2150, 12949.00
268.4270, 13635.00
269.6400, 14432.00
270.8520, 15368.00
272.0640, 15974.00
273.2760, 16165.00
274.4880, 16033.00
275.7000, 15626.00
276.9120, 15191.00
278.1230, 14665.00
279.3340, 14160.00
280.5450, 13816.00
281.7560, 13907.00
282.9670, 13543.00
284.1780, 13342.00
285.3880, 13048.00
286.5980, 12715.00
287.8090, 12558.00
289.0190, 12065.00
290.2290, 11733.00
291.4380, 11509.00
292.6480, 11624.00
293.8570, 11806.00
295.0670, 12163.00
296.2760, 12781.00
297.4850, 13840.00
298.6930, 15262.00
299.9020, 16817.00
301.1110, 18732.00
302.3190, 20958.00
303.5270, 23366.00
304.7350, 25263.00
305.9430, 26326.00
307.1510, 25830.00
308.3580, 23989.00
309.5660, 21266.00
310.7730, 18514.00
311.9800, 16268.00
313.1870, 14346.00
314.3940, 12783.00
315.6010, 11769.00
316.8070, 10913.00
318.0130, 10464.00
319.2200, 10107.00
320.4260, 9628.000
321.6310, 9329.000
322.8370, 9188.000
324.0430, 8967.000
325.2480, 8974.000
326.4540, 9045.000
327.6590, 9230.000
328.8640, 9344.000
330.0680, 9281.000
331.2730, 9187.000
332.4780, 9265.000
333.6820, 9561.000
334.8860, 9992.000
336.0900, 10689.00
337.2940, 11677.00
338.4980, 12812.00
339.7010, 14246.00
340.9050, 15871.00
342.1080, 17391.00
343.3110, 18246.00
344.5140, 18243.00
345.7170, 18127.00
346.9200, 18302.00
348.1220, 18585.00
349.3240, 19127.00
350.5270, 19086.00
351.7290, 18267.00
352.9310, 16641.00
354.1320, 14702.00
355.3340, 12881.00
356.5350, 11226.00
357.7370, 9831.000
358.9380, 8885.000
360.1390, 7979.000
361.3400, 7363.000
362.5400, 6968.000
363.7410, 6741.000
364.9410, 6425.000
366.1410, 6371.000
367.3410, 6365.000
368.5410, 6246.000
369.7410, 6358.000
370.9400, 6405.000
372.1400, 6447.000
373.3390, 6596.000
374.5380, 6770.000
375.7370, 6951.000
376.9360, 7185.000
378.1350, 7770.000
379.3330, 8326.000
380.5310, 9257.000
381.7300, 10285.00
382.9280, 11844.00
384.1260, 13398.00
385.3230, 15653.00
386.5210, 18164.00
387.7180, 20863.00
388.9160, 23261.00
390.1130, 24686.00
391.3100, 24636.00
392.5060, 23731.00
393.7030, 21734.00
394.9000, 19445.00
396.0960, 16848.00
397.2920, 14726.00
398.4880, 12866.00
399.6840, 11315.67
400.8800, 10198.00
402.0750, 9155.000
403.2710, 8450.000
404.4660, 8023.000
405.6610, 7782.000
406.8560, 7870.000
408.0510, 8297.000
409.2450, 8661.000
410.4400, 9389.000
411.6340, 10577.00
412.8280, 11858.00
414.0220, 13456.00
415.2160, 14812.00
416.4100, 15365.00
417.6030, 15119.00
418.7970, 14080.00
419.9900, 13360.00
421.1830, 12803.00
422.3760, 12282.00
423.5690, 11958.00
424.7610, 11601.00
425.9540, 11225.00
427.1460, 10871.00
428.3380, 10393.00
429.5300, 10104.00
430.7220, 9521.000
431.9140, 9099.000
433.1050, 8600.000
434.2970, 7989.000
435.4880, 7569.000
436.6790, 7014.000
437.8700, 6656.000
439.0610, 6326.000
440.2510, 6038.000
441.4420, 5902.000
442.6320, 5852.000
443.8220, 5750.000
445.0120, 5776.000
446.2020, 5707.000
447.3910, 5765.000
448.5810, 5692.000
449.7700, 5741.000
450.9600, 5895.000
452.1490, 5896.000
453.3370, 5911.000
454.5260, 6049.000
455.7150, 6039.000
456.9030, 6087.000
458.0910, 6161.000
459.2800, 6242.000
460.4670, 6427.000
461.6550, 6469.000
462.8430, 6810.000
464.0300, 7077.000
465.2180, 7424.000
466.4050, 7860.000
467.5920, 8250.864
468.7790, 8822.000
469.9650, 9181.000
471.1520, 9734.000
472.3380, 10246.00
473.5250, 11080.00
474.7110, 12509.00
475.8970, 14074.00
477.0820, 16563.00
478.2680, 19841.00
479.4540, 24166.00
480.6390, 29122.00
481.8240, 35213.00
483.0090, 40390.00
484.1940, 43385.00
485.3780, 42015.00
486.5630, 37368.00
487.7470, 31543.00
488.9320, 26006.00
490.1160, 21494.00
491.3000, 17758.00
492.4830, 14847.00
493.6670, 12702.00
494.8500, 11210.00
496.0340, 10234.00
497.2170, 9796.000
498.4000, 9306.000
499.5820, 9141.000
500.7650, 9090.000
501.9480, 8983.000
503.1300, 9159.000
504.3120, 9146.000
505.4940, 8945.000
506.6760, 8665.000
507.8580, 8335.000
509.0390, 7972.000
510.2210, 7404.000
511.4020, 7123.000
512.5830, 6498.000
513.7640, 6033.000
514.9450, 5736.000
516.1250, 5380.000
517.3060, 5155.000
518.4860, 5055.000
519.6660, 4918.000
520.8460, 4826.370
522.0260, 4673.000
523.2060, 4731.000
524.3850, 4702.000
525.5650, 4721.000
526.7440, 4950.000
527.9230, 4984.000
529.1020, 5163.000
530.2810, 5296.000
531.4590, 5396.000
532.6380, 5569.000
533.8160, 5681.000
534.9940, 5680.000
536.1720, 5741.000
537.3500, 5686.000
538.5270, 5622.000
539.7050, 5370.000
540.8820, 5304.000
542.0590, 5111.000
543.2360, 4969.000
544.4130, 4992.000
545.5900, 4947.000
546.7660, 4851.000
547.9430, 4816.000
549.1190, 4837.000
550.2950, 4849.000
551.4710, 5017.000
552.6470, 4980.000
553.8220, 5203.000
554.9980, 5255.000
556.1730, 5439.000
557.3480, 5658.000
558.5230, 5877.000
559.6980, 6041.307
560.8730, 6234.000
562.0470, 6375.000
563.2220, 6492.000
564.3960, 6645.000
565.5700, 6882.111
566.7440, 7037.000
567.9170, 7400.000
569.0910, 7675.000
570.2640, 7941.000
571.4380, 8317.000
572.6110, 8526.000
573.7840, 8686.107
574.9570, 8803.909
576.1290, 8827.000
577.3020, 8815.000
578.4740, 8716.000
579.6460, 8595.000
580.8180, 8617.000
581.9900, 8704.000
583.1620, 9002.000
584.3330, 9147.000
585.5040, 9568.000
586.6760, 9936.000
587.8470, 10074.00
589.0180, 9903.000
590.1880, 9783.000
591.3590, 9253.000
592.5290, 8734.000
593.7000, 8105.000
594.8700, 7669.000
596.0400, 7415.000
597.2090, 6949.000
598.3790, 6878.000
599.5490, 6921.000
600.7180, 6894.000
601.8870, 6938.000
603.0560, 7229.000
604.2250, 7654.000
605.3940, 8113.000
606.5620, 8734.000
607.7300, 9582.000
608.8990, 10627.00
610.0670, 11934.00
611.2350, 13246.00
612.4020, 14785.00
613.5700, 16063.00
614.7370, 17596.00
615.9050, 19115.00
617.0720, 20635.00
618.2390, 21602.00
619.4060, 22181.00
620.5720, 21338.00
621.7390, 19936.00
622.9050, 17783.00
624.0710, 15509.00
625.2370, 13284.00
626.4030, 11269.00
627.5690, 9708.000
628.7340, 8418.000
629.9000, 7550.000
631.0650, 6802.000
632.2300, 6245.000
633.3950, 5969.000
634.5600, 5664.000
635.7240, 5460.000
636.8890, 5440.000
638.0530, 5432.000
639.2170, 5388.000
640.3810, 5331.000
641.5450, 5378.000
642.7080, 5466.000
643.8720, 5443.000
645.0350, 5507.000
646.1980, 5411.000
647.3610, 5404.000
648.5240, 5457.000
649.6870, 5416.000
650.8490, 5360.000
652.0120, 5324.000
653.1740, 5319.000
654.3360, 5330.779
655.4980, 5373.231
656.6600, 5439.465
657.8210, 5530.000
658.9830, 5646.000
660.1440, 5786.000
661.3050, 5950.000
662.4660, 6127.000
663.6270, 6470.000
664.7870, 6735.000
665.9480, 7281.000
667.1080, 7852.000
668.2680, 8640.000
669.4280, 9491.000
670.5880, 10593.00
671.7480, 11948.00
672.9070, 13179.00
674.0670, 14871.00
675.2260, 16263.00
676.3850, 17213.00
677.5440, 17746.00
678.7030, 17282.00
679.8610, 16291.00
681.0200, 15184.00
682.1780, 14011.00
683.3360, 12829.00
684.4940, 11910.00
685.6520, 11090.30
686.8090, 10408.00
687.9670, 9939.000
689.1240, 9641.852
690.2810, 9543.326
691.4380, 9571.000
692.5950, 9755.000
693.7520, 9968.000
694.9080, 10487.00
696.0650, 10889.00
697.2210, 11589.00
698.3770, 12512.00
699.5330, 13633.00
700.6880, 15183.00
701.8440, 16864.56
702.9990, 18901.00
704.1550, 21593.00
705.3100, 25248.00
706.4650, 29411.00
707.6190, 34121.00
708.7740, 40093.00
709.9290, 46010.00
711.0830, 52212.00
712.2370, 58061.00
713.3910, 62036.00
714.5450, 63729.00
715.6980, 62122.00
716.8520, 59044.00
718.0050, 53442.00
719.1580, 47177.00
720.3110, 40926.00
721.4640, 34934.00
722.6170, 29616.00
723.7700, 25174.00
724.9220, 21629.00
726.0740, 18866.00
727.2260, 16605.00
728.3780, 14554.00
729.5300, 13213.00
730.6810, 12070.00
731.8330, 11169.00
732.9840, 10436.00
734.1350, 9702.000
735.2860, 9357.000
736.4370, 8854.000
737.5880, 8659.000
738.7380, 8315.000
739.8880, 7958.000
741.0390, 7870.000
742.1890, 7734.000
743.3380, 7556.000
744.4880, 7520.000
745.6380, 7478.000
746.7870, 7569.000
747.9360, 7581.000
749.0850, 7683.079
750.2340, 7744.000
751.3830, 7940.000
752.5310, 8097.000
753.6800, 8271.000
754.8280, 8510.000
755.9760, 8960.000
757.1240, 9531.000
758.2720, 10006.00
759.4190, 10552.00
760.5670, 11222.00
761.7140, 11931.00
762.8610, 12600.00
764.0080, 13343.00
765.1550, 13727.00
766.3020, 14004.00
767.4480, 13921.00
768.5950, 13564.00
769.7410, 12979.00
770.8870, 12235.00
772.0330, 11553.00
773.1780, 10799.00
774.3240, 9811.000
775.4690, 9258.000
776.6140, 8565.000
777.7590, 8119.000
778.9040, 7699.000
780.0490, 7241.000
781.1940, 6948.400
782.3380, 6662.000
783.4820, 6428.000
784.6260, 6151.000
785.7700, 5984.000
786.9140, 5823.893
788.0580, 5766.000
789.2010, 5629.000
790.3450, 5586.000
791.4880, 5587.000
792.6310, 5445.000
793.7730, 5438.000
794.9160, 5438.000
796.0590, 5332.000
797.2010, 5377.000
798.3430, 5284.000
799.4850, 5428.000
800.6270, 5378.000
801.7690, 5456.000
802.9100, 5471.000
804.0520, 5717.000
805.1930, 5854.000
806.3340, 6177.000
807.4750, 6527.000
808.6160, 7059.000
809.7560, 7564.000
810.8970, 8126.000
812.0370, 8512.000
813.1770, 8845.000
814.3170, 8781.000
815.4570, 8740.000
816.5960, 8322.000
817.7360, 7978.000
818.8750, 7677.000
820.0140, 7272.000
821.1530, 6958.000
822.2920, 6825.000
823.4310, 6453.000
824.5690, 6443.000
825.7070, 6201.000
826.8460, 6198.000
827.9840, 6059.000
829.1220, 6139.000
830.2590, 6068.000
831.3970, 6121.000
832.5340, 6083.000
833.6710, 6097.000
834.8080, 6046.000
835.9450, 6120.000
837.0820, 6178.000
838.2190, 6286.000
839.3550, 6374.000
840.4910, 6510.000
841.6270, 6590.000
842.7630, 6688.000
843.8990, 6833.937
845.0350, 6962.000
846.1700, 7091.000
847.3060, 7190.000
848.4410, 7256.000
849.5760, 7256.000
850.7100, 7237.564
851.8450, 7208.000
852.9800, 7103.000
854.1140, 6932.000
855.2480, 6844.000
856.3820, 6718.000
857.5160, 6605.000
858.6500, 6527.000
859.7830, 6489.000
860.9170, 6437.000
862.0500, 6387.000
863.1830, 6433.000
864.3160, 6456.000
865.4480, 6429.000
866.5810, 6522.000
867.7130, 6443.000
868.8460, 6499.000
869.9780, 6576.000
871.1100, 6564.000
872.2410, 6674.000
873.3730, 6601.000
874.5050, 6749.000
875.6360, 6783.000
876.7670, 6941.000
877.8980, 6976.000
879.0290, 7124.000
880.1590, 7236.000
881.2900, 7488.000
882.4200, 7638.000
883.5500, 7861.000
884.6800, 8246.000
885.8100, 8533.000
886.9400, 8901.000
888.0690, 9247.000
889.1990, 9799.000
890.3280, 10425.02
891.4570, 11198.00
892.5860, 11996.00
893.7140, 12921.00
894.8430, 13959.00
895.9710, 14599.00
897.1000, 15709.00
898.2280, 16466.00
899.3560, 16864.00
900.4830, 17100.00
901.6110, 17178.00
902.7380, 16955.00
903.8660, 16583.00
904.9930, 16259.00
906.1200, 15919.00
907.2460, 15381.00
908.3730, 15090.00
909.5000, 14708.00
910.6260, 14030.00
911.7520, 13480.00
912.8780, 13017.00
914.0040, 12678.00
915.1290, 12273.00
916.2550, 11816.00
917.3800, 11494.00
918.5050, 11194.00
919.6300, 11229.00
920.7550, 11217.00
921.8800, 11137.00
923.0040, 11171.00
924.1290, 11420.00
925.2530, 11848.00
926.3770, 12108.00
927.5010, 12404.00
928.6250, 12858.00
929.7480, 13239.00
930.8720, 13370.00
931.9950, 13677.00
933.1180, 13923.00
934.2410, 14093.00
935.3640, 14243.00
936.4860, 14526.00
937.6090, 15157.00
938.7310, 15955.00
939.8530, 16241.00
940.9750, 17337.00
942.0970, 18381.00
943.2180, 19874.00
944.3400, 21549.00
945.4610, 23670.00
946.5820, 25813.00
947.7030, 28174.00
948.8240, 30562.00
949.9450, 33383.00
951.0650, 35906.00
952.1860, 38165.00
953.3060, 40081.00
954.4260, 41681.00
955.5460, 43282.00
956.6650, 45291.00
957.7850, 47391.00
958.9040, 50346.00
960.0230, 52454.00
961.1420, 55271.00
962.2610, 57441.00
963.3800, 58422.00
964.4990, 57675.00
965.6170, 55650.00
966.7350, 52261.00
967.8530, 48075.00
968.9710, 44131.00
970.0890, 40504.00
971.2070, 37800.00
972.3240, 35626.00
973.4410, 33870.00
974.5580, 33124.00
975.6750, 32462.00
976.7920, 32477.00
977.9090, 32139.00
979.0250, 32083.00
980.1410, 31496.00
981.2580, 30954.00
982.3740, 29517.00
983.4890, 28242.00
984.6050, 26690.00
985.7200, 25575.00
986.8360, 24427.00
987.9510, 23484.50
989.0660, 22838.00
990.1810, 22049.00
991.2950, 21633.00
992.4100, 21244.00
993.5240, 21052.00
994.6390, 21151.00
995.7530, 21544.00
996.8660, 21994.00
997.9800, 22833.00
999.0940, 23515.00
1000.207, 24680.00
1001.320, 25763.00
1002.433, 26887.00
1003.546, 27765.00
1004.659, 28485.00
1005.772, 28248.00
1006.884, 27939.00
1007.996, 26298.00
1009.108, 25061.00
1010.220, 23031.00
1011.332, 21493.00
1012.444, 19401.00
1013.555, 17710.00
1014.666, 16222.00
1015.777, 14884.00
1016.888, 13814.00
1017.999, 12879.49
1019.110, 12124.35
1020.220, 11636.00
1021.331, 11019.00
1022.441, 10889.00
1023.551, 10473.00
1024.661, 10272.00
1025.770, 9923.000
1026.880, 9816.000
1027.989, 9627.000
1029.098, 9441.000
1030.207, 9026.000
1031.316, 8897.000
1032.425, 8688.000
1033.533, 8541.000
1034.642, 8288.000
1035.750, 8024.000
1036.858, 7944.000
1037.966, 7885.000
1039.073, 7700.000
1040.181, 7821.000
1041.288, 7789.000
1042.396, 7684.000
1043.503, 7964.000
1044.610, 7775.000
1045.716, 7925.000
1046.823, 7901.000
1047.929, 7901.000
1049.036, 8283.000
1050.142, 8304.000
1051.248, 8550.000
1052.353, 8656.000
1053.459, 8966.000
1054.564, 9317.000
1055.670, 9487.000
1056.775, 9534.000
1057.880, 9687.000
1058.985, 9798.000
1060.089, 9647.000
1061.194, 9517.000
1062.298, 9463.000
1063.402, 9268.000
1064.506, 9071.000
1065.610, 8920.000
1066.713, 8645.000
1067.817, 8505.000
1068.920, 8390.000
1070.023, 8243.000
1071.126, 8424.000
1072.229, 8416.000
1073.332, 8533.000
1074.435, 8653.000
1075.537, 9031.000
1076.639, 9367.000
1077.741, 9778.000
1078.843, 10202.00
1079.945, 10881.00
1081.046, 11344.00
1082.148, 11576.00
1083.249, 11752.00
1084.350, 11620.00
1085.451, 11285.00
1086.551, 10748.00
1087.652, 10257.00
1088.752, 9752.000
1089.853, 9399.000
1090.953, 9014.000
1092.053, 8746.000
1093.152, 8624.000
1094.252, 8665.000
1095.351, 8659.000
1096.451, 8820.000
1097.550, 8876.000
1098.649, 9240.000
1099.748, 9456.000
1100.846, 10007.00
1101.945, 10487.00
1103.043, 10864.00
1104.141, 11094.00
1105.239, 11375.00
1106.337, 11459.00
1107.434, 11525.00
1108.532, 11219.00
1109.629, 11080.00
1110.726, 10622.00
1111.823, 10219.00
1112.920, 9740.000
1114.017, 9336.000
1115.113, 8980.371
1116.210, 8574.000
1117.306, 8335.000
1118.402, 8055.000
1119.498, 7801.000
1120.593, 7592.344
1121.689, 7364.331
1122.784, 7193.000
1123.879, 6996.000
1124.974, 6814.000
1126.069, 6696.000
1127.164, 6483.000
1128.259, 6501.000
1129.353, 6387.000
1130.447, 6280.000
1131.541, 6145.000
1132.635, 6138.000
1133.729, 5981.000
1134.822, 6010.000
1135.916, 5938.000
1137.009, 5861.000
1138.102, 5746.000
1139.195, 5601.000
1140.288, 5584.000
1141.380, 5535.000
1142.473, 5555.000
1143.565, 5506.000
1144.657, 5460.000
1145.749, 5358.000
1146.841, 5405.000
1147.932, 5242.000
1149.024, 5231.000
1150.115, 5236.000
1151.206, 5178.000
1152.297, 5134.000
1153.388, 5118.000
1154.479, 5070.000
1155.569, 5121.000
1156.659, 5043.000
1157.750, 5062.000
1158.839, 4979.000
1159.929, 4968.000
1161.019, 5006.000
1162.108, 4902.000
1163.198, 4888.000
1164.287, 4850.000
1165.376, 4868.000
1166.465, 4901.000
1167.553, 4837.000
1168.642, 4947.000
1169.730, 4778.000
1170.818, 4762.000
1171.906, 4801.000
1172.994, 4735.000
1174.082, 4808.000
1175.170, 4766.000
1176.257, 4798.000
1177.344, 4688.000
1178.431, 4730.000
1179.518, 4662.000
1180.605, 4669.000
1181.691, 4665.000
1182.778, 4681.000
1183.864, 4677.000
1184.950, 4670.000
1186.036, 4675.000
1187.122, 4652.000
1188.207, 4633.000
1189.292, 4597.000
1190.378, 4676.000
1191.463, 4677.000
1192.548, 4638.000
1193.632, 4588.000
1194.717, 4680.000
1195.801, 4549.000
1196.886, 4628.000
1197.970, 4574.000
1199.054, 4632.000
1200.137, 4636.000
1201.221, 4531.000
1202.305, 4599.000
1203.388, 4551.000
1204.471, 4578.000
1205.554, 4583.000
1206.637, 4557.000
1207.719, 4576.451
1208.802, 4577.672
1209.884, 4563.000
1210.966, 4579.000
1212.048, 4534.000
1213.130, 4485.000
1214.212, 4461.000
1215.293, 4525.000
1216.374, 4455.000
1217.456, 4494.000
1218.536, 4498.000
1219.617, 4397.000
1220.698, 4422.000
1221.778, 4423.000
1222.859, 4415.000
1223.939, 4436.000
1225.019, 4463.000
1226.099, 4461.000
1227.178, 4449.000
1228.258, 4471.000
1229.337, 4398.000
1230.417, 4407.000
1231.496, 4471.000
1232.574, 4390.000
1233.653, 4430.000
1234.732, 4384.000
1235.810, 4357.000
1236.888, 4459.000
1237.966, 4372.000
1239.044, 4398.000
1240.122, 4350.000
1241.199, 4383.000
1242.277, 4426.000
1243.354, 4350.000
1244.431, 4393.000
1245.508, 4372.000
1246.585, 4388.000
1247.661, 4349.000
1248.738, 4356.000
1249.814, 4419.000
1250.890, 4366.000
1251.966, 4466.000
1253.042, 4414.000
1254.117, 4405.000
1255.193, 4350.000
1256.268, 4371.000
1257.343, 4372.000
1258.418, 4395.000
1259.493, 4382.894
1260.567, 4376.000
1261.642, 4359.000
1262.716, 4388.000
1263.790, 4381.000
1264.864, 4379.000
1265.938, 4446.000
1267.011, 4388.000
1268.085, 4406.000
1269.158, 4423.000
1270.231, 4361.000
1271.304, 4391.000
1272.377, 4420.000
1273.450, 4297.000
1274.522, 4420.000
1275.594, 4388.000
1276.666, 4443.000
1277.738, 4409.000
1278.810, 4390.000
1279.882, 4449.000
1280.953, 4355.000
1282.025, 4459.000
1283.096, 4429.000
1284.167, 4446.000
1285.238, 4366.000
1286.308, 4314.000
1287.379, 4406.000
1288.449, 4367.000
1289.519, 4389.000
1290.589, 4390.000
1291.659, 4429.000
1292.729, 4398.175
1293.798, 4322.000
1294.868, 4363.000
1295.937, 4334.000
1297.006, 4360.000
1298.075, 4412.000
1299.143, 4439.000
1300.212, 4370.000
1301.280, 4307.000
1302.348, 4294.000
1303.416, 4252.000
1304.484, 4271.000
1305.552, 4250.000
1306.620, 4326.000
1307.687, 4237.000
1308.754, 4324.000
1309.821, 4282.000
1310.888, 4330.000
1311.955, 4255.000
1313.021, 4246.000
1314.088, 4243.000
1315.154, 4153.000
1316.220, 4228.000
1317.286, 4276.000
1318.352, 4223.000
1319.417, 4284.000
1320.483, 4237.000
1321.548, 4242.000
1322.613, 4315.000
1323.678, 4293.000
1324.743, 4289.000
1325.807, 4287.000
1326.872, 4337.000
1327.936, 4247.000
1329.000, 4318.000
1330.064, 4334.000
1331.128, 4286.000
1332.191, 4274.000
1333.255, 4308.000
1334.318, 4381.000
1335.381, 4333.000
1336.444, 4335.000
1337.507, 4297.000
1338.569, 4334.000
1339.632, 4393.000
1340.694, 4400.000
1341.756, 4348.000
1342.818, 4335.000
1343.880, 4299.000
1344.941, 4410.000
1346.003, 4381.000
1347.064, 4438.000
1348.125, 4401.000
1349.186, 4483.000
1350.247, 4344.000
1351.308, 4347.000
1352.368, 4331.000
1353.428, 4414.000
1354.489, 4332.000
1355.549, 4381.000
1356.608, 4428.000
1357.668, 4332.000
1358.727, 4401.000
1359.787, 4483.000
1360.846, 4397.000
1361.905, 4451.000
1362.964, 4392.000
1364.022, 4438.000
1365.081, 4421.000
1366.139, 4425.000
1367.197, 4455.000
1368.255, 4475.000
1369.313, 4432.000
1370.371, 4485.000
1371.428, 4441.000
1372.486, 4383.000
1373.543, 4418.000
1374.600, 4393.000
1375.657, 4400.265
1376.713, 4488.000
1377.770, 4424.000
1378.826, 4390.000
1379.882, 4395.000
1380.938, 4492.000
1381.994, 4465.000
1383.050, 4501.000
1384.106, 4458.000
1385.161, 4401.000
1386.216, 4450.000
1387.271, 4445.000
1388.326, 4423.000
1389.381, 4419.000
1390.435, 4448.000
1391.490, 4418.000
1392.544, 4430.000
1393.598, 4362.000
1394.652, 4482.000
1395.705, 4449.000
1396.759, 4561.000
1397.812, 4548.837
1398.866, 4566.000
1399.919, 4508.000
1400.972, 4471.000
1402.024, 4390.000
1403.077, 4500.000
1404.129, 4385.000
1405.181, 4472.000
1406.233, 4420.000
1407.285, 4483.000
1408.337, 4438.000
1409.389, 4490.000
1410.440, 4452.000
1411.491, 4461.000
1412.542, 4450.000
1413.593, 4468.000
1414.644, 4493.000
1415.695, 4536.000
1416.745, 4435.000
1417.795, 4569.000
1418.845, 4469.000
1419.895, 4484.000
1420.945, 4513.000
1421.995, 4507.000
1423.044, 4522.147
1424.093, 4530.917
1425.142, 4534.000
1426.191, 4546.000
1427.240, 4556.000
1428.289, 4567.000
1429.337, 4581.390
1430.385, 4522.000
1431.433, 4579.000
1432.481, 4618.000
1433.529, 4551.000
1434.577, 4596.000
1435.624, 4548.000
1436.672, 4645.000
1437.719, 4589.000
1438.766, 4622.000
1439.812, 4557.000
1440.859, 4571.000
1441.905, 4592.000
1442.952, 4576.000
1443.998, 4557.000
1445.044, 4612.000
1446.090, 4565.000
1447.135, 4553.000
1448.181, 4563.000
1449.226, 4674.000
1450.271, 4650.013
1451.316, 4598.000
1452.361, 4665.000
1453.405, 4631.000
1454.450, 4596.000
1455.494, 4525.000
1456.538, 4602.000
1457.582, 4601.000
1458.626, 4549.000
1459.670, 4533.000
1460.713, 4562.000
1461.757, 4544.000
1462.800, 4607.000
1463.843, 4612.000
1464.886, 4608.000
1465.928, 4710.000
1466.971, 4620.000
1468.013, 4602.000
1469.055, 4748.000
1470.097, 4609.000
1471.139, 4622.000
1472.181, 4587.000
1473.222, 4627.000
1474.263, 4623.000
1475.305, 4626.000
1476.346, 4697.000
1477.386, 4683.000
1478.427, 4641.000
1479.468, 4705.000
1480.508, 4753.000
1481.548, 4701.000
1482.588, 4694.000
1483.628, 4719.000
1484.668, 4731.000
1485.707, 4686.000
1486.747, 4794.000
1487.786, 4699.000
1488.825, 4700.000
1489.864, 4746.000
1490.902, 4719.000
1491.941, 4745.000
1492.979, 4748.000
1494.017, 4716.000
1495.055, 4739.000
1496.093, 4721.000
1497.131, 4772.000
1498.168, 4844.000
1499.206, 4724.000
1500.243, 4738.000
1501.280, 4851.000
1502.317, 4828.000
1503.354, 4881.000
1504.390, 4846.000
1505.426, 4737.000
1506.463, 4803.000
1507.499, 4712.000
1508.535, 4817.000
1509.570, 4777.000
1510.606, 4843.000
1511.641, 4795.000
1512.676, 4739.000
1513.711, 4962.000
1514.746, 4839.000
1515.781, 4801.000
1516.816, 4895.000
1517.850, 4868.000
1518.884, 4912.000
1519.918, 4986.000
1520.952, 4948.000
1521.986, 4990.000
1523.019, 4829.000
1524.053, 4970.000
1525.086, 4845.000
1526.119, 4893.000
1527.152, 4887.000
1528.185, 5047.000
1529.217, 4951.000
1530.250, 4942.000
1531.282, 4918.000
1532.314, 5104.000
1533.346, 5054.000
1534.377, 4966.000
1535.409, 5067.000
1536.440, 5000.000
1537.472, 4945.000
1538.503, 4999.000
1539.534, 4971.000
1540.564, 5032.000
1541.595, 5008.000
1542.625, 5030.000
1543.656, 5003.000
1544.686, 5054.000
1545.716, 5056.000
1546.745, 5027.000
1547.775, 5029.000
1548.804, 5066.000
1549.834, 5124.000
1550.863, 5081.000
1551.892, 5224.000
1552.920, 5215.000
1553.949, 5137.000
1554.977, 5350.000
1556.006, 5257.000
1557.034, 5156.000
1558.062, 5153.000
1559.089, 5086.000
1560.117, 5098.000
1561.144, 5047.000
1562.172, 5118.000
1563.199, 5185.000
1564.226, 5134.000
1565.252, 5119.000
1566.279, 5169.000
1567.305, 5252.000
1568.332, 5215.000
1569.358, 5167.000
1570.384, 5178.000
1571.409, 5307.000
##END=



