##NAMES=Axinite-(Fe)
##RRUFFID=R060194
##IDEAL CHEMISTRY=Ca_4_Fe^2+^_2_Al_4_[B_2_Si_8_O_30_](OH)_2_
##LOCALITY=near Dalbandi, Baluchistan Province, Pakistan
##OWNER=RRUFF
##SOURCE=Herbert Obodda
##DESCRIPTION=Brown transparent wedge-shaped single crystal
##STATUS=The identification of this mineral has been confirmed by X-ray diffraction and chemical analysis
##URL=rruff.info/R060194
##MEASURED CHEMISTRY=Ca_2.00_(Fe^2+^_0.66_Mg_0.30_Mn_0.04_)Al_2.00_BSi_4.00_O_15_(OH)
##PIN_ID=L00952
##ORIENTATION=Laser parallel to (1 1 0). Fiducial mark perpendicular to laser is parallel to -c [0 0 -1]
53.91000, 1144.000
55.14900, 1106.000
56.38700, 1126.000
57.62600, 1115.000
58.86400, 1156.000
60.10300, 1205.000
61.34100, 1250.000
62.57900, 1284.000
63.81700, 1363.000
65.05400, 1464.000
66.29200, 1584.000
67.52900, 1769.000
68.76700, 2055.000
70.00400, 2538.000
71.24100, 3011.000
72.47700, 3127.000
73.71400, 3285.000
74.95100, 3603.000
76.18700, 4056.000
77.42300, 4453.000
78.65900, 4688.000
79.89500, 4782.000
81.13100, 5242.000
82.36700, 5565.000
83.60200, 6216.000
84.83700, 6572.633
86.07200, 6956.516
87.30800, 7417.000
88.54200, 7730.000
89.77700, 8080.000
91.01200, 8622.000
92.24600, 9239.000
93.48000, 9979.000
94.71400, 10080.00
95.94800, 10268.00
97.18200, 10336.00
98.41600, 10231.00
99.64900, 10227.00
100.8830, 10350.00
102.1160, 10443.00
103.3490, 10338.00
104.5820, 10450.00
105.8150, 10945.00
107.0470, 11721.00
108.2800, 14169.00
109.5120, 13440.77
110.7440, 16314.00
111.9760, 12994.00
113.2080, 11672.00
114.4400, 11281.00
115.6710, 11379.00
116.9030, 11384.00
118.1340, 11062.00
119.3650, 10729.00
120.5960, 10455.00
121.8270, 10221.00
123.0580, 10142.00
124.2880, 9999.097
125.5190, 9907.662
126.7490, 9879.000
127.9790, 9787.000
129.2090, 9727.000
130.4390, 9687.000
131.6680, 9669.000
132.8980, 9773.000
134.1270, 9675.000
135.3560, 9676.000
136.5850, 9830.000
137.8140, 10064.00
139.0430, 10303.00
140.2710, 10963.00
141.5000, 11549.00
142.7280, 11901.56
143.9560, 12574.00
145.1840, 13070.00
146.4120, 13849.00
147.6390, 15138.00
148.8670, 16692.00
150.0940, 18288.00
151.3210, 19559.00
152.5490, 20488.00
153.7750, 19985.00
155.0020, 18336.00
156.2290, 17036.00
157.4550, 15742.00
158.6810, 14560.00
159.9080, 13811.00
161.1340, 13298.99
162.3590, 13019.00
163.5850, 13155.00
164.8110, 13623.00
166.0360, 14285.00
167.2610, 15066.00
168.4860, 15886.00
169.7110, 17330.00
170.9360, 18428.00
172.1610, 19543.00
173.3850, 19753.00
174.6100, 19198.00
175.8340, 18390.00
177.0580, 16900.00
178.2820, 15644.00
179.5050, 14074.00
180.7290, 13070.00
181.9520, 12036.00
183.1760, 11201.00
184.3990, 10527.00
185.6220, 10406.00
186.8450, 10061.00
188.0670, 9962.000
189.2900, 9878.000
190.5120, 10154.00
191.7340, 10379.00
192.9560, 10741.00
194.1780, 10918.00
195.4000, 11245.00
196.6220, 11016.00
197.8430, 10839.00
199.0640, 10912.00
200.2860, 10978.00
201.5070, 11428.00
202.7270, 11829.00
203.9480, 12535.00
205.1690, 12926.00
206.3890, 13450.00
207.6090, 14086.00
208.8290, 14840.00
210.0490, 15375.00
211.2690, 16069.00
212.4890, 16461.00
213.7080, 16736.00
214.9280, 16956.00
216.1470, 17215.00
217.3660, 17143.00
218.5850, 17037.00
219.8030, 16787.00
221.0220, 16090.00
222.2400, 15391.00
223.4590, 14274.00
224.6770, 13294.00
225.8950, 12440.00
227.1120, 11586.00
228.3300, 11014.00
229.5480, 10502.00
230.7650, 10143.00
231.9820, 9924.000
233.1990, 9759.000
234.4160, 9606.000
235.6330, 9462.000
236.8490, 9568.000
238.0660, 9672.000
239.2820, 9646.000
240.4980, 9862.000
241.7140, 9921.000
242.9300, 10104.00
244.1460, 10398.69
245.3610, 10663.88
246.5770, 11089.00
247.7920, 11453.00
249.0070, 11918.00
250.2220, 12477.00
251.4370, 13017.00
252.6510, 13863.00
253.8660, 14582.00
255.0800, 14684.00
256.2940, 14944.00
257.5080, 14976.00
258.7220, 15077.83
259.9360, 15256.46
261.1490, 15133.21
262.3630, 15251.00
263.5760, 15188.34
264.7890, 15072.00
266.0020, 15308.00
267.2150, 15432.00
268.4270, 15616.00
269.6400, 15843.00
270.8520, 15576.00
272.0640, 15502.00
273.2760, 15449.00
274.4880, 14983.00
275.7000, 14634.00
276.9120, 14243.00
278.1230, 13793.00
279.3340, 13624.00
280.5450, 13232.00
281.7560, 13202.00
282.9670, 13205.00
284.1780, 13095.00
285.3880, 12993.03
286.5980, 12944.00
287.8090, 12674.00
289.0190, 12506.00
290.2290, 12287.00
291.4380, 12084.00
292.6480, 11963.00
293.8570, 12030.00
295.0670, 12042.00
296.2760, 12273.00
297.4850, 12399.00
298.6930, 12923.00
299.9020, 13429.00
301.1110, 13806.00
302.3190, 14521.00
303.5270, 14874.00
304.7350, 15718.00
305.9430, 16113.00
307.1510, 16408.00
308.3580, 16764.00
309.5660, 16635.00
310.7730, 16620.00
311.9800, 16104.00
313.1870, 16143.00
314.3940, 16102.00
315.6010, 16506.00
316.8070, 17056.00
318.0130, 17429.00
319.2200, 17548.00
320.4260, 17767.00
321.6310, 17103.00
322.8370, 16497.00
324.0430, 15682.00
325.2480, 15101.00
326.4540, 14482.00
327.6590, 14177.00
328.8640, 13863.00
330.0680, 13899.00
331.2730, 13961.00
332.4780, 14230.00
333.6820, 14663.00
334.8860, 15166.00
336.0900, 16183.00
337.2940, 16934.00
338.4980, 18183.00
339.7010, 19421.00
340.9050, 20832.00
342.1080, 22475.00
343.3110, 23615.00
344.5140, 24114.00
345.7170, 23933.00
346.9200, 22921.00
348.1220, 21575.00
349.3240, 20101.00
350.5270, 18505.00
351.7290, 16870.00
352.9310, 15688.00
354.1320, 14485.00
355.3340, 13309.00
356.5350, 12425.00
357.7370, 11563.00
358.9380, 11030.00
360.1390, 10645.00
361.3400, 10409.00
362.5400, 9992.000
363.7410, 9866.000
364.9410, 9809.000
366.1410, 9618.000
367.3410, 9646.000
368.5410, 9834.000
369.7410, 9817.000
370.9400, 10089.00
372.1400, 10214.00
373.3390, 10251.00
374.5380, 10381.00
375.7370, 10469.00
376.9360, 10587.00
378.1350, 10767.00
379.3330, 11251.00
380.5310, 11570.00
381.7300, 12209.00
382.9280, 13118.00
384.1260, 13948.00
385.3230, 14982.00
386.5210, 15975.00
387.7180, 17080.00
388.9160, 18332.00
390.1130, 19015.00
391.3100, 19130.00
392.5060, 19175.00
393.7030, 18507.00
394.9000, 17475.00
396.0960, 16615.00
397.2920, 15426.00
398.4880, 14534.00
399.6840, 13633.00
400.8800, 13127.00
402.0750, 12510.00
403.2710, 12138.00
404.4660, 11604.00
405.6610, 11465.00
406.8560, 11270.00
408.0510, 11143.00
409.2450, 11347.00
410.4400, 11507.00
411.6340, 11663.00
412.8280, 12194.00
414.0220, 13034.00
415.2160, 14019.00
416.4100, 15051.00
417.6030, 17234.00
418.7970, 19319.00
419.9900, 19159.00
421.1830, 18716.00
422.3760, 19349.00
423.5690, 20191.00
424.7610, 20832.00
425.9540, 21391.00
427.1460, 21339.00
428.3380, 21092.00
429.5300, 20426.00
430.7220, 19363.00
431.9140, 17993.00
433.1050, 16505.00
434.2970, 15189.00
435.4880, 14155.00
436.6790, 13105.00
437.8700, 12291.00
439.0610, 11820.00
440.2510, 11207.00
441.4420, 11090.00
442.6320, 10946.00
443.8220, 11031.00
445.0120, 10929.00
446.2020, 10806.00
447.3910, 10587.00
448.5810, 10493.00
449.7700, 10403.00
450.9600, 10293.00
452.1490, 10190.00
453.3370, 10356.00
454.5260, 10242.00
455.7150, 10326.00
456.9030, 10397.00
458.0910, 10440.00
459.2800, 10532.00
460.4670, 10601.00
461.6550, 10709.00
462.8430, 10857.00
464.0300, 11045.00
465.2180, 11269.00
466.4050, 11505.00
467.5920, 11960.00
468.7790, 12433.00
469.9650, 12720.00
471.1520, 13140.00
472.3380, 13364.00
473.5250, 13721.00
474.7110, 14306.00
475.8970, 15389.00
477.0820, 16593.00
478.2680, 18251.00
479.4540, 20241.00
480.6390, 22295.00
481.8240, 24999.00
483.0090, 27742.00
484.1940, 29905.00
485.3780, 31051.00
486.5630, 30132.00
487.7470, 27831.00
488.9320, 24512.00
490.1160, 21589.00
491.3000, 18708.00
492.4830, 16402.00
493.6670, 14845.00
494.8500, 13666.00
496.0340, 12778.00
497.2170, 12357.00
498.4000, 12016.00
499.5820, 11899.00
500.7650, 11767.00
501.9480, 11566.00
503.1300, 11505.00
504.3120, 11477.00
505.4940, 11293.00
506.6760, 11242.00
507.8580, 11000.00
509.0390, 10817.00
510.2210, 10630.00
511.4020, 10333.00
512.5830, 9912.000
513.7640, 9698.000
514.9450, 9464.000
516.1250, 9398.000
517.3060, 9071.000
518.4860, 8939.000
519.6660, 9010.000
520.8460, 8821.000
522.0260, 8753.000
523.2060, 8738.000
524.3850, 8827.000
525.5650, 8762.000
526.7440, 8790.000
527.9230, 8779.000
529.1020, 8845.000
530.2810, 8938.000
531.4590, 8955.000
532.6380, 9081.000
533.8160, 9083.000
534.9940, 9264.000
536.1720, 9264.000
537.3500, 9313.000
538.5270, 9264.000
539.7050, 9277.000
540.8820, 9273.105
542.0590, 9272.000
543.2360, 9258.000
544.4130, 9298.000
545.5900, 9296.000
546.7660, 9382.000
547.9430, 9310.000
549.1190, 9309.000
550.2950, 9465.000
551.4710, 9451.000
552.6470, 9651.000
553.8220, 9715.000
554.9980, 9852.000
556.1730, 10285.00
557.3480, 10410.00
558.5230, 10731.00
559.6980, 11165.00
560.8730, 11375.00
562.0470, 11392.00
563.2220, 11557.00
564.3960, 11411.00
565.5700, 11322.96
566.7440, 11266.00
567.9170, 11226.54
569.0910, 11115.00
570.2640, 11257.00
571.4380, 11230.00
572.6110, 11319.00
573.7840, 11615.00
574.9570, 11701.00
576.1290, 11552.00
577.3020, 11564.00
578.4740, 11433.00
579.6460, 11326.00
580.8180, 11327.00
581.9900, 11190.00
583.1620, 11096.00
584.3330, 11071.00
585.5040, 11172.00
586.6760, 11180.00
587.8470, 11183.00
589.0180, 11323.00
590.1880, 11274.00
591.3590, 11037.00
592.5290, 10937.00
593.7000, 10678.00
594.8700, 10574.69
596.0400, 10527.00
597.2090, 10369.00
598.3790, 10390.00
599.5490, 10359.00
600.7180, 10593.00
601.8870, 10704.00
603.0560, 10905.00
604.2250, 11295.00
605.3940, 11810.00
606.5620, 12381.00
607.7300, 13063.00
608.8990, 13759.00
610.0670, 14844.00
611.2350, 16026.00
612.4020, 17410.00
613.5700, 18803.00
614.7370, 20076.00
615.9050, 21432.00
617.0720, 22689.00
618.2390, 23694.00
619.4060, 24379.00
620.5720, 24204.00
621.7390, 23493.00
622.9050, 22125.00
624.0710, 20176.00
625.2370, 18403.00
626.4030, 16467.00
627.5690, 15055.00
628.7340, 13799.00
629.9000, 12846.00
631.0650, 12127.00
632.2300, 11626.00
633.3950, 11155.00
634.5600, 10899.00
635.7240, 10894.00
636.8890, 10849.00
638.0530, 10780.00
639.2170, 11017.00
640.3810, 11142.00
641.5450, 11096.00
642.7080, 11450.00
643.8720, 11556.00
645.0350, 11701.00
646.1980, 11570.00
647.3610, 11436.00
648.5240, 11330.00
649.6870, 11208.53
650.8490, 11096.12
652.0120, 10970.00
653.1740, 10868.00
654.3360, 10787.13
655.4980, 10684.75
656.6600, 10655.00
657.8210, 10547.00
658.9830, 10498.00
660.1440, 10508.00
661.3050, 10596.00
662.4660, 10774.00
663.6270, 10996.00
664.7870, 11351.17
665.9480, 11631.00
667.1080, 12237.00
668.2680, 12893.00
669.4280, 13437.00
670.5880, 14680.00
671.7480, 15549.00
672.9070, 16613.00
674.0670, 17758.00
675.2260, 18660.00
676.3850, 19421.00
677.5440, 19274.00
678.7030, 18875.00
679.8610, 18180.00
681.0200, 17169.00
682.1780, 16038.00
683.3360, 15036.00
684.4940, 14261.00
685.6520, 13585.00
686.8090, 13100.00
687.9670, 12731.00
689.1240, 12408.00
690.2810, 12382.00
691.4380, 12367.00
692.5950, 12690.00
693.7520, 12857.00
694.9080, 13285.00
696.0650, 13614.00
697.2210, 14228.00
698.3770, 14880.00
699.5330, 15868.00
700.6880, 17073.00
701.8440, 18569.00
702.9990, 20502.00
704.1550, 22950.58
705.3100, 25706.00
706.4650, 29121.00
707.6190, 32822.00
708.7740, 37083.00
709.9290, 41030.00
711.0830, 45307.00
712.2370, 48539.00
713.3910, 50392.00
714.5450, 50148.00
715.6980, 48467.00
716.8520, 44496.00
718.0050, 40396.00
719.1580, 35515.00
720.3110, 30762.00
721.4640, 26797.00
722.6170, 23613.00
723.7700, 20756.00
724.9220, 18832.00
726.0740, 16974.00
727.2260, 15813.00
728.3780, 14772.00
729.5300, 13941.00
730.6810, 13533.00
731.8330, 12730.00
732.9840, 12388.00
734.1350, 11967.00
735.2860, 11672.00
736.4370, 11424.00
737.5880, 11199.00
738.7380, 11019.00
739.8880, 10902.06
741.0390, 10863.00
742.1890, 10767.00
743.3380, 10767.00
744.4880, 10755.00
745.6380, 10728.00
746.7870, 10628.00
747.9360, 10592.00
749.0850, 10682.00
750.2340, 10749.00
751.3830, 10844.00
752.5310, 10920.00
753.6800, 11077.00
754.8280, 11148.00
755.9760, 11336.00
757.1240, 11571.00
758.2720, 11745.00
759.4190, 12118.00
760.5670, 12314.00
761.7140, 12651.00
762.8610, 12949.00
764.0080, 13347.00
765.1550, 13531.00
766.3020, 13528.00
767.4480, 13634.00
768.5950, 13480.00
769.7410, 13181.00
770.8870, 12898.00
772.0330, 12475.00
773.1780, 12210.07
774.3240, 11871.00
775.4690, 11621.00
776.6140, 11230.00
777.7590, 10991.00
778.9040, 10930.00
780.0490, 10562.00
781.1940, 10403.00
782.3380, 10182.00
783.4820, 10129.00
784.6260, 10109.00
785.7700, 9989.000
786.9140, 10007.00
788.0580, 9979.000
789.2010, 9753.000
790.3450, 9881.000
791.4880, 9864.000
792.6310, 9808.000
793.7730, 9974.000
794.9160, 9966.058
796.0590, 9926.703
797.2010, 10132.00
798.3430, 9807.000
799.4850, 9924.000
800.6270, 9861.000
801.7690, 9857.000
802.9100, 9897.000
804.0520, 9972.245
805.1930, 10171.00
806.3340, 10268.00
807.4750, 10484.00
808.6160, 10754.00
809.7560, 10791.00
810.8970, 11179.00
812.0370, 11441.00
813.1770, 11537.00
814.3170, 11756.00
815.4570, 11782.00
816.5960, 11819.00
817.7360, 11600.00
818.8750, 11938.00
820.0140, 11785.00
821.1530, 11679.00
822.2920, 11832.00
823.4310, 11851.00
824.5690, 11515.00
825.7070, 10884.00
826.8460, 10949.00
827.9840, 10931.00
829.1220, 10953.00
830.2590, 10965.14
831.3970, 10879.00
832.5340, 11016.00
833.6710, 11018.00
834.8080, 11139.00
835.9450, 11189.00
837.0820, 11338.00
838.2190, 11390.00
839.3550, 11386.00
840.4910, 11542.00
841.6270, 11678.00
842.7630, 11834.00
843.8990, 12008.00
845.0350, 12188.00
846.1700, 12361.00
847.3060, 12690.00
848.4410, 12848.00
849.5760, 13046.00
850.7100, 13228.00
851.8450, 13326.00
852.9800, 13411.00
854.1140, 13505.00
855.2480, 13725.00
856.3820, 13696.00
857.5160, 13749.00
858.6500, 13926.00
859.7830, 13942.00
860.9170, 13945.00
862.0500, 13961.00
863.1830, 13945.00
864.3160, 13957.00
865.4480, 13725.00
866.5810, 13791.00
867.7130, 13671.00
868.8460, 13428.00
869.9780, 13411.00
871.1100, 13379.00
872.2410, 13377.00
873.3730, 13193.00
874.5050, 13162.00
875.6360, 13232.00
876.7670, 13126.00
877.8980, 13195.00
879.0290, 13216.00
880.1590, 13251.00
881.2900, 13310.00
882.4200, 13207.00
883.5500, 13347.00
884.6800, 13388.00
885.8100, 13534.00
886.9400, 13839.00
888.0690, 14098.00
889.1990, 14317.00
890.3280, 14682.00
891.4570, 15082.35
892.5860, 15538.00
893.7140, 16092.00
894.8430, 16738.00
895.9710, 17433.00
897.1000, 18070.00
898.2280, 18986.00
899.3560, 19596.00
900.4830, 20280.00
901.6110, 21212.00
902.7380, 21685.00
903.8660, 22376.00
904.9930, 22810.00
906.1200, 23023.00
907.2460, 23013.00
908.3730, 22482.00
909.5000, 21721.00
910.6260, 21105.00
911.7520, 20412.00
912.8780, 19557.00
914.0040, 18627.00
915.1290, 17748.00
916.2550, 17094.00
917.3800, 16551.00
918.5050, 15930.00
919.6300, 15404.00
920.7550, 14919.00
921.8800, 14892.00
923.0040, 14734.00
924.1290, 14700.00
925.2530, 14781.00
926.3770, 15098.00
927.5010, 15296.00
928.6250, 15363.00
929.7480, 15645.25
930.8720, 15725.00
931.9950, 16040.00
933.1180, 16213.00
934.2410, 16376.00
935.3640, 16648.00
936.4860, 16931.00
937.6090, 16956.00
938.7310, 17537.00
939.8530, 18019.00
940.9750, 18414.00
942.0970, 19186.00
943.2180, 20068.00
944.3400, 20995.00
945.4610, 22449.00
946.5820, 24020.00
947.7030, 25386.00
948.8240, 27236.00
949.9450, 29253.00
951.0650, 31138.00
952.1860, 33221.00
953.3060, 34879.00
954.4260, 36783.00
955.5460, 38809.00
956.6650, 41185.00
957.7850, 43515.00
958.9040, 46398.00
960.0230, 49308.00
961.1420, 52694.00
962.2610, 55725.00
963.3800, 57724.00
964.4990, 59043.00
965.6170, 58693.00
966.7350, 56985.00
967.8530, 54217.00
968.9710, 50530.00
970.0890, 46569.00
971.2070, 42980.00
972.3240, 40558.00
973.4410, 38353.00
974.5580, 37184.32
975.6750, 36565.39
976.7920, 36208.00
977.9090, 36450.00
979.0250, 36253.00
980.1410, 35767.00
981.2580, 35421.00
982.3740, 34555.00
983.4890, 33382.00
984.6050, 32549.00
985.7200, 31305.00
986.8360, 30487.00
987.9510, 29877.00
989.0660, 29122.00
990.1810, 28910.00
991.2950, 28282.00
992.4100, 28082.00
993.5240, 27962.00
994.6390, 27312.00
995.7530, 27269.00
996.8660, 27127.00
997.9800, 27267.00
999.0940, 27657.00
1000.207, 27869.00
1001.320, 28252.00
1002.433, 28311.00
1003.546, 28199.00
1004.659, 28072.00
1005.772, 27243.00
1006.884, 26289.00
1007.996, 25010.00
1009.108, 24241.00
1010.220, 22753.00
1011.332, 21462.00
1012.444, 20429.00
1013.555, 19377.00
1014.666, 18686.00
1015.777, 17927.73
1016.888, 17518.00
1017.999, 16761.00
1019.110, 16316.00
1020.220, 15790.00
1021.331, 15774.00
1022.441, 15449.00
1023.551, 15288.00
1024.661, 15275.00
1025.770, 15231.00
1026.880, 15124.00
1027.989, 15068.00
1029.098, 14908.00
1030.207, 14747.74
1031.316, 14557.00
1032.425, 14361.00
1033.533, 14221.00
1034.642, 14039.00
1035.750, 13957.70
1036.858, 13732.00
1037.966, 13819.00
1039.073, 13895.00
1040.181, 13844.00
1041.288, 13697.00
1042.396, 13752.00
1043.503, 13983.00
1044.610, 13996.00
1045.716, 14254.00
1046.823, 14374.00
1047.929, 14670.00
1049.036, 14910.75
1050.142, 15255.00
1051.248, 15496.00
1052.353, 15764.00
1053.459, 16130.79
1054.564, 16429.38
1055.670, 16785.00
1056.775, 16954.00
1057.880, 17418.00
1058.985, 17323.00
1060.089, 17333.00
1061.194, 17412.00
1062.298, 17190.00
1063.402, 16974.00
1064.506, 16736.00
1065.610, 16289.00
1066.713, 15967.00
1067.817, 15635.00
1068.920, 15265.00
1070.023, 14958.00
1071.126, 14919.00
1072.229, 14840.00
1073.332, 14710.00
1074.435, 14845.00
1075.537, 15197.00
1076.639, 15258.00
1077.741, 15669.00
1078.843, 16103.00
1079.945, 16558.00
1081.046, 16847.00
1082.148, 17336.00
1083.249, 17582.00
1084.350, 17403.00
1085.451, 17343.00
1086.551, 16836.00
1087.652, 16316.00
1088.752, 15786.00
1089.853, 15150.00
1090.953, 14698.00
1092.053, 14416.00
1093.152, 14028.00
1094.252, 13922.00
1095.351, 13746.00
1096.451, 13724.00
1097.550, 13635.00
1098.649, 13673.00
1099.748, 13888.00
1100.846, 14035.00
1101.945, 14222.00
1103.043, 14425.00
1104.141, 14638.00
1105.239, 14818.72
1106.337, 15044.00
1107.434, 15110.00
1108.532, 15110.00
1109.629, 15063.00
1110.726, 14815.00
1111.823, 14705.00
1112.920, 14481.00
1114.017, 14003.00
1115.113, 14093.00
1116.210, 13877.00
1117.306, 13644.00
1118.402, 13635.00
1119.498, 13456.00
1120.593, 13307.00
1121.689, 13294.00
1122.784, 13559.00
1123.879, 13219.00
1124.974, 13133.00
1126.069, 12812.00
1127.164, 12794.00
1128.259, 12557.00
1129.353, 12285.00
1130.447, 12263.00
1131.541, 12153.00
1132.635, 12198.00
1133.729, 12034.00
1134.822, 11943.00
1135.916, 11837.00
1137.009, 11875.00
1138.102, 11839.00
1139.195, 11801.00
1140.288, 11779.11
1141.380, 11728.00
1142.473, 11691.00
1143.565, 11679.00
1144.657, 11644.00
1145.749, 11543.00
1146.841, 11451.00
1147.932, 11569.00
1149.024, 11400.00
1150.115, 11558.00
1151.206, 11378.00
1152.297, 11417.00
1153.388, 11453.00
1154.479, 11470.00
1155.569, 11409.00
1156.659, 11464.43
1157.750, 11311.00
1158.839, 11476.00
1159.929, 11489.00
1161.019, 11411.00
1162.108, 11486.00
1163.198, 11347.00
1164.287, 11289.00
1165.376, 11398.00
1166.465, 11394.00
1167.553, 11411.00
1168.642, 11370.00
1169.730, 11343.00
1170.818, 11409.00
1171.906, 11515.00
1172.994, 11326.00
1174.082, 11459.00
1175.170, 11359.00
1176.257, 11411.00
1177.344, 11429.00
1178.431, 11427.00
1179.518, 11415.00
1180.605, 11350.00
1181.691, 11176.00
1182.778, 11380.00
1183.864, 11503.00
1184.950, 11303.00
1186.036, 11332.00
1187.122, 11309.00
1188.207, 11283.00
1189.292, 11274.99
1190.378, 11400.00
1191.463, 11250.00
1192.548, 11283.00
1193.632, 11327.00
1194.717, 11196.00
1195.801, 11162.00
1196.886, 11336.00
1197.970, 11223.00
1199.054, 11263.00
1200.137, 11326.00
1201.221, 11441.00
1202.305, 11360.00
1203.388, 11348.00
1204.471, 11233.00
1205.554, 11299.00
1206.637, 11357.00
1207.719, 11190.00
1208.802, 11167.00
1209.884, 11218.00
1210.966, 11176.00
1212.048, 11422.00
1213.130, 11428.00
1214.212, 11356.00
1215.293, 11444.00
1216.374, 11360.00
1217.456, 11294.00
1218.536, 11274.00
1219.617, 11173.20
1220.698, 11373.18
1221.778, 11487.38
1222.859, 11520.40
1223.939, 11229.12
1225.019, 11356.61
1226.099, 11316.27
1227.178, 11269.05
1228.258, 11455.47
1229.337, 11211.36
1230.417, 11394.08
1231.496, 11406.41
1232.574, 11496.72
1233.653, 11418.18
1234.732, 11391.79
1235.810, 11534.31
1236.888, 11583.30
1237.966, 11485.31
1239.044, 11580.58
1240.122, 11330.56
1241.199, 11383.53
1242.277, 11567.23
1243.354, 11477.73
1244.431, 11576.08
1245.508, 11602.88
1246.585, 11304.55
1247.661, 11571.67
1248.738, 11594.24
1249.814, 11365.73
1250.890, 11613.47
1251.966, 11419.57
1253.042, 11383.31
1254.117, 11465.68
1255.193, 11424.38
1256.268, 11578.05
1257.343, 11543.89
1258.418, 11492.95
1259.493, 11515.25
1260.567, 11330.00
1261.642, 11529.79
1262.716, 11466.56
1263.790, 11534.07
1264.864, 11631.21
1265.938, 11501.46
1267.011, 11611.91
1268.085, 11349.85
1269.158, 11399.49
1270.231, 11415.56
1271.304, 11630.86
1272.377, 11370.62
1273.450, 11411.59
1274.522, 11580.82
1275.594, 11570.58
1276.666, 11635.38
1277.738, 11478.06
1278.810, 11529.40
1279.882, 11523.23
1280.953, 11715.81
1282.025, 11751.48
1283.096, 11597.92
1284.167, 11445.16
1285.238, 11652.05
1286.308, 11518.05
1287.379, 11567.96
1288.449, 11427.94
1289.519, 11451.90
1290.589, 11473.27
1291.659, 11578.69
1292.729, 11429.22
1293.798, 11610.39
1294.868, 11600.45
1295.937, 11646.81
1297.006, 11686.91
1298.075, 11470.55
1299.143, 11464.42
1300.212, 11759.11
1301.280, 11595.04
1302.348, 11523.56
1303.416, 11517.90
1304.484, 11822.88
1305.552, 11839.12
1306.620, 11510.24
1307.687, 11801.53
1308.754, 11711.27
1309.821, 11734.40
1310.888, 11716.16
1311.955, 11710.17
1313.021, 11548.41
1314.088, 11591.92
1315.154, 11802.32
1316.220, 11728.18
1317.286, 11847.39
1318.352, 11614.24
1319.417, 11590.24
1320.483, 11621.76
1321.548, 11673.53
1322.613, 11563.51
1323.678, 11777.03
1324.743, 11775.13
1325.807, 11586.55
1326.872, 11600.48
1327.936, 11580.79
1329.000, 11911.13
1330.064, 11760.20
1331.128, 11575.20
1332.191, 11771.72
1333.255, 11845.96
1334.318, 11754.87
1335.381, 11751.63
1336.444, 11581.72
1337.507, 11667.40
1338.569, 11665.18
1339.632, 11807.78
1340.694, 11638.55
1341.756, 11828.30
1342.818, 11667.43
1343.880, 11871.72
1344.941, 11703.43
1346.003, 11867.04
1347.064, 11705.00
1348.125, 11735.00
1349.186, 11798.00
1350.247, 11746.00
1351.308, 11679.00
1352.368, 11636.11
1353.428, 11831.94
1354.489, 11941.98
1355.549, 11970.85
1356.608, 11675.42
1357.668, 11798.75
1358.727, 11754.26
1359.787, 11702.89
1360.846, 11885.16
1361.905, 11636.90
1362.964, 11815.47
1364.022, 11823.65
1365.081, 11909.82
1366.139, 11827.12
1367.197, 11796.58
1368.255, 11934.96
1369.313, 11979.80
1370.371, 11877.67
1371.428, 11968.79
1372.486, 11714.63
1373.543, 11763.46
1374.600, 11943.02
1375.657, 11849.37
1376.713, 11943.58
1377.770, 11966.25
1378.826, 11663.77
1379.882, 11926.75
1380.938, 11945.19
1381.994, 11712.54
1383.050, 11956.14
1384.106, 11758.10
1385.161, 11717.70
1386.216, 11795.94
1387.271, 11750.50
1388.326, 11900.05
1389.381, 11861.75
1390.435, 11806.68
1391.490, 11824.84
1392.544, 11635.46
1393.598, 11831.11
1394.652, 11763.76
1395.705, 11827.14
1396.759, 11920.15
1397.812, 11786.27
1398.866, 11892.59
1399.919, 11626.41
1400.972, 11671.92
1402.024, 11683.86
1403.077, 11895.04
1404.129, 11630.67
1405.181, 11667.52
1406.233, 11832.62
1407.285, 11818.27
1408.337, 11878.94
1409.389, 11717.50
1410.440, 11764.72
1411.491, 11754.42
1412.542, 11942.88
1413.593, 11974.44
1414.644, 11816.76
1415.695, 11659.88
1416.745, 11862.64
1417.795, 11724.54
1418.845, 11770.33
1419.895, 11626.19
1420.945, 11646.04
1421.995, 11663.29
1423.044, 11764.60
1424.093, 11611.01
1425.142, 11788.07
1426.191, 11774.02
1427.240, 11816.27
1428.289, 11852.26
1429.337, 11631.79
1430.385, 11621.56
1431.433, 11912.13
1432.481, 11743.95
1433.529, 11809.57
1434.577, 11579.48
1435.624, 11825.63
1436.672, 11630.15
1437.719, 11592.31
1438.766, 11673.10
1439.812, 11630.22
1440.859, 11782.31
1441.905, 11746.57
1442.952, 11694.05
1443.998, 11714.77
1445.044, 11527.94
1446.090, 11726.14
1447.135, 11661.34
1448.181, 11727.27
1449.226, 11822.83
1450.271, 11691.50
1451.316, 11800.37
1452.361, 11536.74
1453.405, 11584.80
1454.450, 11599.29
1455.494, 11813.01
1456.538, 11551.19
1457.582, 11590.59
1458.626, 11758.24
1459.670, 11746.43
1460.713, 11809.65
1461.757, 11650.75
1462.800, 11700.52
1463.843, 11692.77
1464.886, 11883.77
1465.928, 11917.87
1466.971, 11762.74
1468.013, 11608.40
1469.055, 11813.71
1470.097, 11678.14
1471.139, 11726.47
1472.181, 11584.88
1473.222, 11607.27
1474.263, 11627.06
1475.305, 11730.92
1476.346, 11579.86
1477.386, 11759.46
1478.427, 11747.96
1479.468, 11792.74
1480.508, 11831.26
1481.548, 11613.34
1482.588, 11605.64
1483.628, 11898.75
1484.668, 11733.11
1485.707, 11660.06
1486.747, 11652.83
1487.786, 11956.24
1488.825, 11970.92
1489.864, 11640.46
1490.902, 11930.18
1491.941, 11838.36
1492.979, 11859.91
1494.017, 11840.10
1495.055, 11832.54
1496.093, 11669.21
1497.131, 11711.15
1498.168, 11919.99
1499.206, 11844.29
1500.243, 11961.92
1501.280, 11727.21
1502.317, 11701.64
1503.354, 11731.59
1504.390, 11781.79
1505.426, 11670.21
1506.463, 11882.16
1507.499, 11878.70
1508.535, 11688.55
1509.570, 11700.91
1510.606, 11679.65
1511.641, 12008.43
1512.676, 11855.94
1513.711, 11669.37
1514.746, 11864.33
1515.781, 11937.00
1516.816, 11844.35
1517.850, 11839.54
1518.884, 11668.07
1519.918, 11752.19
1520.952, 11748.40
1521.986, 11889.45
1523.019, 11718.64
1524.053, 11906.84
1525.086, 11744.40
1526.119, 11947.13
1527.152, 11777.28
1528.185, 11939.33
1529.217, 11705.21
1530.250, 11757.83
1531.282, 11833.18
1532.314, 11981.94
1533.346, 11848.46
1534.377, 12014.63
1535.409, 11917.84
1536.440, 11930.00
1537.472, 11874.00
1538.503, 11931.00
1539.534, 11893.00
1540.564, 11982.00
1541.595, 11954.00
1542.625, 11882.00
1543.656, 11914.00
1544.686, 11907.00
1545.716, 11962.00
1546.745, 11982.00
1547.775, 11770.00
1548.804, 11873.00
1549.834, 11821.00
1550.863, 11935.00
1551.892, 12018.00
1552.920, 12183.00
1553.949, 12041.00
1554.977, 12338.00
1556.006, 12220.00
1557.034, 12092.00
1558.062, 11951.00
1559.089, 11973.00
1560.117, 11986.00
1561.144, 11882.00
1562.172, 11905.00
1563.199, 11928.00
1564.226, 11922.00
1565.252, 12008.00
1566.279, 12005.00
1567.305, 12072.00
1568.332, 11964.00
1569.358, 11940.00
1570.384, 11962.00
1571.409, 12077.00
1572.435, 12087.00
##END=



