##NAMES=Axinite-(Fe)
##RRUFFID=R060558
##IDEAL CHEMISTRY=Ca_4_Fe^2+^_2_Al_4_[B_2_Si_8_O_30_](OH)_2_
##LOCALITY=unknown
##OWNER=RRUFF
##SOURCE=Gemological Institute of America
##DESCRIPTION=Brown flattened crystal
##STATUS=The identification of this mineral has been confirmed by X-ray diffraction and chemical analysis
##URL=rruff.info/R060558
##MEASURED CHEMISTRY=Ca_2.00_(Fe^2+^_0.60_Mg_0.35_Mn_0.05_)_Î£=1_Al_2.00_BSi_4.00_O_15_(OH) ; B not measured
##PIN_ID=M00962
##ORIENTATION=Laser parallel to a* (1 0 0). Fiducial mark perpendicular to laser is parallel to b [0 1 0]
102.7490, 3579.000
103.9940, 3902.000
105.2390, 4228.000
106.4840, 4747.000
107.7290, 5031.000
108.9740, 4959.000
110.2180, 4751.000
111.4620, 4711.000
112.7060, 4822.000
113.9500, 4923.000
115.1940, 4914.000
116.4370, 4782.000
117.6800, 4691.000
118.9230, 4597.000
120.1660, 4365.000
121.4090, 4392.000
122.6510, 4267.000
123.8940, 4069.000
125.1360, 3874.000
126.3770, 3787.000
127.6190, 3809.000
128.8600, 3805.000
130.1020, 3805.000
131.3430, 3847.000
132.5840, 3896.000
133.8240, 4036.052
135.0650, 4239.000
136.3050, 4422.000
137.5450, 4681.000
138.7850, 4984.000
140.0250, 4973.000
141.2640, 4993.000
142.5030, 4889.000
143.7430, 4905.000
144.9810, 4910.000
146.2200, 4917.000
147.4590, 5071.000
148.6970, 5146.000
149.9350, 5369.000
151.1730, 5521.000
152.4110, 5454.000
153.6480, 5444.000
154.8860, 5227.000
156.1230, 5066.000
157.3600, 4935.000
158.5960, 4732.000
159.8330, 4556.000
161.0690, 4584.000
162.3050, 4621.000
163.5410, 4636.000
164.7770, 4750.000
166.0130, 4972.000
167.2480, 5145.000
168.4830, 5529.000
169.7180, 5685.000
170.9530, 5786.000
172.1880, 5661.000
173.4220, 5643.000
174.6560, 5451.000
175.8900, 5181.000
177.1240, 4920.000
178.3580, 4620.000
179.5910, 4390.000
180.8250, 4193.000
182.0580, 4081.000
183.2900, 3921.000
184.5230, 3883.493
185.7560, 3931.675
186.9880, 3957.278
188.2200, 3884.000
189.4520, 3929.000
190.6830, 4026.000
191.9150, 4132.000
193.1460, 4310.000
194.3770, 4294.000
195.6080, 4241.000
196.8390, 4295.000
198.0700, 4463.061
199.3000, 4670.847
200.5300, 4963.000
201.7600, 5291.000
202.9900, 5664.000
204.2190, 6001.000
205.4490, 6482.000
206.6780, 7007.000
207.9070, 7259.000
209.1360, 7654.000
210.3640, 7940.000
211.5930, 8211.000
212.8210, 8390.000
214.0490, 8437.000
215.2770, 8435.000
216.5040, 8328.000
217.7320, 7988.000
218.9590, 7616.000
220.1860, 7179.000
221.4130, 6655.000
222.6400, 6234.000
223.8660, 5786.000
225.0920, 5389.000
226.3190, 5007.000
227.5450, 4838.000
228.7700, 4694.000
229.9960, 4545.000
231.2210, 4410.000
232.4460, 4346.000
233.6710, 4410.000
234.8960, 4303.000
236.1210, 4457.000
237.3450, 4619.000
238.5690, 4583.000
239.7930, 4598.000
241.0170, 4587.000
242.2410, 4605.930
243.4640, 4740.000
244.6870, 4716.000
245.9100, 4803.000
247.1330, 4984.000
248.3560, 5235.000
249.5780, 5571.000
250.8000, 5982.000
252.0230, 6180.000
253.2440, 6532.000
254.4660, 6712.000
255.6880, 6836.000
256.9090, 6839.000
258.1300, 6852.000
259.3510, 7216.000
260.5720, 7332.000
261.7920, 7345.000
263.0130, 7569.000
264.2330, 7760.000
265.4530, 8084.000
266.6730, 8557.000
267.8920, 8752.000
269.1120, 8989.000
270.3310, 9126.775
271.5500, 9203.000
272.7690, 9104.000
273.9880, 8860.000
275.2060, 8546.000
276.4240, 8209.000
277.6430, 7749.000
278.8600, 7325.000
280.0780, 7081.000
281.2960, 6727.000
282.5130, 6657.000
283.7300, 6341.000
284.9470, 6329.000
286.1640, 6255.000
287.3810, 6183.000
288.5970, 6132.000
289.8130, 6019.000
291.0290, 6034.000
292.2450, 6034.000
293.4610, 5982.000
294.6760, 5832.000
295.8910, 5782.000
297.1060, 5851.000
298.3210, 5696.000
299.5360, 5704.000
300.7510, 5648.000
301.9650, 5550.000
303.1790, 5580.000
304.3930, 5724.000
305.6070, 5786.000
306.8200, 5929.000
308.0340, 6067.000
309.2470, 6285.000
310.4600, 6627.000
311.6730, 6987.000
312.8850, 7437.999
314.0980, 7945.000
315.3100, 8509.000
316.5220, 9238.000
317.7340, 9889.000
318.9460, 9929.000
320.1570, 9998.000
321.3690, 9631.000
322.5800, 9074.000
323.7910, 8604.000
325.0010, 8195.000
326.2120, 7752.000
327.4220, 7392.000
328.6330, 7110.000
329.8430, 7008.000
331.0520, 7004.000
332.2620, 7124.000
333.4720, 7234.000
334.6810, 7488.000
335.8900, 7835.000
337.0990, 8209.000
338.3070, 8797.000
339.5160, 9489.000
340.7240, 10169.00
341.9320, 10775.00
343.1400, 11444.00
344.3480, 11184.00
345.5560, 10967.00
346.7630, 10313.00
347.9700, 9637.000
349.1770, 8868.000
350.3840, 8017.000
351.5910, 7342.000
352.7970, 6737.000
354.0040, 6256.000
355.2100, 5814.000
356.4160, 5584.000
357.6220, 5250.000
358.8270, 5032.000
360.0320, 4815.000
361.2380, 4796.000
362.4430, 4696.000
363.6470, 4616.008
364.8520, 4722.000
366.0560, 4565.000
367.2610, 4506.000
368.4650, 4592.000
369.6690, 4663.000
370.8720, 4647.000
372.0760, 4736.000
373.2790, 4771.000
374.4820, 4781.000
375.6850, 4895.000
376.8880, 4921.000
378.0910, 4976.000
379.2930, 5135.000
380.4950, 5320.000
381.6970, 5609.000
382.8990, 5841.000
384.1010, 6182.000
385.3020, 6570.000
386.5040, 6845.000
387.7050, 7045.000
388.9060, 7232.000
390.1060, 7219.000
391.3070, 7102.000
392.5070, 6867.000
393.7080, 6666.000
394.9080, 6376.000
396.1070, 6005.000
397.3070, 5936.000
398.5070, 5795.000
399.7060, 5757.000
400.9050, 5701.000
402.1040, 5696.000
403.3030, 5689.000
404.5010, 5634.000
405.7000, 5568.000
406.8980, 5603.000
408.0960, 5628.000
409.2940, 5669.000
410.4910, 5891.000
411.6890, 6155.000
412.8860, 6358.000
414.0830, 6836.000
415.2800, 7416.000
416.4770, 7983.000
417.6730, 8503.000
418.8690, 9141.000
420.0660, 9632.000
421.2620, 10353.00
422.4570, 11047.00
423.6530, 11671.00
424.8480, 11860.00
426.0440, 12038.00
427.2390, 11872.00
428.4340, 11501.00
429.6280, 10999.00
430.8230, 10214.00
432.0170, 9431.000
433.2110, 8623.000
434.4050, 7853.000
435.5990, 7441.000
436.7930, 7052.982
437.9860, 6924.000
439.1800, 6813.000
440.3730, 6936.000
441.5660, 7162.000
442.7580, 7367.000
443.9510, 7665.000
445.1430, 7597.000
446.3350, 7358.000
447.5270, 6921.000
448.7190, 6438.000
449.9110, 6085.000
451.1020, 5840.000
452.2930, 5437.000
453.4850, 5229.000
454.6750, 5069.000
455.8660, 5008.000
457.0570, 5052.000
458.2470, 4878.000
459.4370, 4969.000
460.6270, 4839.000
461.8170, 4807.000
463.0070, 4970.000
464.1960, 4892.000
465.3850, 5004.000
466.5750, 5039.000
467.7630, 5188.000
468.9520, 5253.000
470.1410, 5342.000
471.3290, 5434.000
472.5170, 5623.000
473.7050, 5672.000
474.8930, 5804.000
476.0810, 6119.000
477.2680, 6450.000
478.4560, 6846.000
479.6430, 7233.000
480.8300, 7906.000
482.0160, 8498.000
483.2030, 9155.000
484.3890, 9617.000
485.5760, 9550.000
486.7620, 9125.000
487.9480, 8461.000
489.1330, 7878.000
490.3190, 7275.000
491.5040, 6636.000
492.6890, 6037.000
493.8740, 5672.000
495.0590, 5446.000
496.2440, 5306.000
497.4280, 5237.000
498.6120, 5088.000
499.7960, 5004.757
500.9800, 5051.000
502.1640, 4876.000
503.3470, 4897.000
504.5310, 4956.000
505.7140, 4910.000
506.8970, 4892.000
508.0800, 4830.000
509.2620, 4878.000
510.4450, 4820.000
511.6270, 4827.000
512.8090, 4830.000
513.9910, 4881.000
515.1730, 4855.708
516.3550, 4824.000
517.5360, 4813.000
518.7170, 4783.000
519.8980, 4722.000
521.0790, 4717.000
522.2600, 4698.000
523.4400, 4605.000
524.6210, 4569.000
525.8010, 4585.000
526.9810, 4512.000
528.1610, 4612.000
529.3400, 4583.000
530.5200, 4639.000
531.6990, 4563.000
532.8780, 4800.000
534.0570, 4733.000
535.2360, 4837.000
536.4140, 4780.000
537.5930, 4765.000
538.7710, 4759.000
539.9490, 4896.000
541.1270, 4732.000
542.3040, 4844.000
543.4820, 4768.000
544.6590, 4790.000
545.8360, 4831.000
547.0130, 4866.000
548.1900, 4867.510
549.3670, 4863.000
550.5430, 4898.000
551.7190, 4853.000
552.8960, 4927.000
554.0710, 4987.000
555.2470, 5133.000
556.4230, 5307.000
557.5980, 5467.000
558.7730, 5696.000
559.9480, 5905.000
561.1230, 5976.000
562.2980, 6072.000
563.4720, 6113.000
564.6470, 6113.000
565.8210, 6098.000
566.9950, 6146.000
568.1690, 6202.000
569.3420, 6322.000
570.5160, 6474.000
571.6890, 6702.000
572.8620, 6669.000
574.0350, 6673.000
575.2080, 6771.000
576.3800, 6644.000
577.5530, 6546.000
578.7250, 6298.000
579.8970, 5963.000
581.0690, 5890.000
582.2410, 5793.000
583.4120, 5698.000
584.5830, 5612.000
585.7550, 5628.000
586.9260, 5565.000
588.0960, 5590.000
589.2670, 5559.000
590.4380, 5545.000
591.6080, 5469.000
592.7780, 5181.000
593.9480, 5166.000
595.1180, 5099.000
596.2870, 4981.000
597.4570, 5024.000
598.6260, 4876.000
599.7950, 5001.000
600.9640, 5035.000
602.1330, 4976.000
603.3010, 5154.000
604.4700, 5160.000
605.6380, 5337.000
606.8060, 5480.000
607.9740, 5598.000
609.1420, 5849.000
610.3090, 6024.000
611.4760, 6334.000
612.6440, 6522.000
613.8110, 6883.000
614.9770, 7039.000
616.1440, 7307.000
617.3110, 7522.000
618.4770, 7768.000
619.6430, 7792.000
620.8090, 7690.000
621.9750, 7407.000
623.1400, 7092.000
624.3060, 6630.000
625.4710, 6349.000
626.6360, 6035.000
627.8010, 5805.000
628.9660, 5565.000
630.1300, 5334.000
631.2950, 5330.000
632.4590, 5312.000
633.6230, 5238.000
634.7870, 5369.000
635.9510, 5344.000
637.1140, 5494.000
638.2780, 5595.000
639.4410, 5685.000
640.6040, 5837.000
641.7670, 5917.000
642.9290, 6035.000
644.0920, 6113.000
645.2540, 6147.000
646.4160, 5985.000
647.5780, 5782.000
648.7400, 5743.000
649.9020, 5565.000
651.0630, 5376.000
652.2250, 5351.666
653.3860, 5379.678
654.5470, 5389.516
655.7080, 5382.156
656.8680, 5306.102
658.0290, 5318.756
659.1890, 5295.866
660.3490, 5271.519
661.5090, 5296.671
662.6690, 5350.000
663.8280, 5369.000
664.9880, 5513.000
666.1470, 5667.000
667.3060, 5888.000
668.4650, 6231.000
669.6240, 6439.000
670.7820, 6800.000
671.9410, 7196.000
673.0990, 7529.000
674.2570, 7953.000
675.4150, 8220.000
676.5720, 8441.000
677.7300, 8357.000
678.8870, 8118.000
680.0450, 7837.000
681.2020, 7315.000
682.3590, 7043.000
683.5150, 6697.000
684.6720, 6432.000
685.8280, 6137.000
686.9840, 5995.000
688.1400, 5816.000
689.2960, 5841.000
690.4520, 5775.000
691.6070, 5809.000
692.7630, 5896.000
693.9180, 5926.000
695.0730, 5993.000
696.2280, 6174.000
697.3820, 6358.000
698.5370, 6605.000
699.6910, 6915.000
700.8450, 7336.000
701.9990, 7790.000
703.1530, 8405.000
704.3070, 9154.000
705.4600, 10113.00
706.6130, 11312.00
707.7660, 12463.00
708.9190, 14038.00
710.0720, 15434.00
711.2250, 17058.00
712.3770, 18150.00
713.5300, 18666.00
714.6820, 18613.00
715.8340, 17655.00
716.9850, 16238.00
718.1370, 14550.00
719.2880, 13089.00
720.4400, 11454.00
721.5910, 10184.00
722.7420, 9167.000
723.8930, 8429.000
725.0430, 7758.000
726.1940, 7191.000
727.3440, 6898.000
728.4940, 6549.000
729.6440, 6353.000
730.7940, 6067.000
731.9430, 5913.000
733.0930, 5730.000
734.2420, 5614.312
735.3910, 5515.941
736.5400, 5474.000
737.6890, 5425.000
738.8370, 5389.000
739.9860, 5462.000
741.1340, 5373.000
742.2820, 5278.000
743.4300, 5186.000
744.5780, 5340.000
745.7250, 5298.000
746.8730, 5255.000
748.0200, 5194.000
749.1670, 5222.000
750.3140, 5301.000
751.4610, 5329.000
752.6070, 5255.000
753.7540, 5390.000
754.9000, 5397.000
756.0460, 5404.000
757.1920, 5479.000
758.3380, 5490.000
759.4830, 5453.000
760.6280, 5480.000
761.7740, 5583.000
762.9190, 5636.000
764.0640, 5692.000
765.2080, 5744.000
766.3530, 5748.691
767.4970, 5762.000
768.6420, 5699.000
769.7860, 5584.000
770.9300, 5453.000
772.0730, 5587.000
773.2170, 5565.000
774.3600, 5398.000
775.5040, 5307.000
776.6470, 5352.000
777.7900, 5348.000
778.9320, 5230.000
780.0750, 5222.000
781.2170, 5195.995
782.3600, 5120.000
783.5020, 5181.000
784.6440, 5185.000
785.7850, 5196.620
786.9270, 5133.000
788.0680, 5203.000
789.2100, 5136.000
790.3510, 5178.000
791.4920, 5174.000
792.6320, 5121.000
793.7730, 5053.000
794.9130, 5034.000
796.0540, 5182.000
797.1940, 5094.000
798.3340, 5117.000
799.4730, 5201.000
800.6130, 5171.000
801.7520, 5171.000
802.8920, 5151.000
804.0310, 5163.000
805.1700, 5185.276
806.3090, 5215.262
807.4470, 5257.000
808.5860, 5314.000
809.7240, 5365.000
810.8620, 5426.000
812.0000, 5428.000
813.1380, 5515.000
814.2750, 5438.000
815.4130, 5559.000
816.5500, 5553.000
817.6870, 5460.000
818.8240, 5492.000
819.9610, 5512.000
821.0980, 5422.000
822.2340, 5466.000
823.3700, 5451.000
824.5070, 5357.000
825.6430, 5454.000
826.7780, 5391.000
827.9140, 5446.000
829.0500, 5459.000
830.1850, 5440.000
831.3200, 5479.000
832.4550, 5361.000
833.5900, 5522.000
834.7250, 5526.000
835.8590, 5628.000
836.9930, 5550.000
838.1280, 5528.000
839.2620, 5644.000
840.3950, 5632.000
841.5290, 5749.000
842.6630, 5789.000
843.7960, 5863.000
844.9290, 5977.000
846.0620, 6060.000
847.1950, 6158.000
848.3280, 6224.000
849.4600, 6366.000
850.5930, 6331.000
851.7250, 6455.000
852.8570, 6449.000
853.9890, 6551.000
855.1210, 6579.960
856.2520, 6643.788
857.3840, 6685.044
858.5150, 6704.921
859.6460, 6639.429
860.7770, 6684.173
861.9080, 6684.740
863.0380, 6683.484
864.1690, 6743.744
865.2990, 6690.658
866.4290, 6749.932
867.5590, 6764.354
868.6890, 6799.303
869.8190, 6789.801
870.9480, 6794.018
872.0770, 6842.701
873.2070, 6866.772
874.3360, 6852.144
875.4640, 6888.376
876.5930, 6833.727
877.7220, 6858.837
878.8500, 6918.349
879.9780, 6905.945
881.1060, 6889.000
882.2340, 6943.697
883.3620, 6992.000
884.4890, 7102.000
885.6170, 7208.000
886.7440, 7296.000
887.8710, 7387.000
888.9980, 7544.000
890.1240, 7687.000
891.2510, 8006.000
892.3770, 8372.000
893.5040, 8694.000
894.6300, 9022.000
895.7560, 9453.000
896.8810, 9963.000
898.0070, 10526.00
899.1330, 11080.00
900.2580, 11787.00
901.3830, 12477.00
902.5080, 13139.00
903.6330, 13892.00
904.7570, 14251.00
905.8820, 14291.00
907.0060, 14309.00
908.1300, 14077.00
909.2540, 13472.00
910.3780, 12957.00
911.5020, 12396.00
912.6250, 11391.00
913.7490, 10834.00
914.8720, 10135.00
915.9950, 9597.000
917.1180, 9145.000
918.2400, 8691.000
919.3630, 8286.000
920.4850, 8032.000
921.6080, 7815.000
922.7300, 7544.000
923.8520, 7491.000
924.9730, 7498.000
926.0950, 7421.000
927.2160, 7352.000
928.3380, 7275.000
929.4590, 7277.000
930.5800, 7368.000
931.7010, 7433.000
932.8210, 7359.000
933.9420, 7478.000
935.0620, 7423.000
936.1820, 7590.000
937.3020, 7568.000
938.4220, 7647.000
939.5420, 7758.000
940.6610, 7814.000
941.7810, 8068.000
942.9000, 8236.000
944.0190, 8388.000
945.1380, 8775.000
946.2570, 9190.000
947.3750, 9555.000
948.4940, 9846.000
949.6120, 10311.00
950.7300, 10905.00
951.8480, 11464.00
952.9660, 12065.00
954.0830, 12488.00
955.2010, 13112.00
956.3180, 13820.00
957.4350, 14480.00
958.5520, 15521.00
959.6690, 16499.00
960.7860, 17532.00
961.9020, 18604.00
963.0190, 19358.00
964.1350, 19529.00
965.2510, 19555.00
966.3670, 19252.00
967.4830, 18636.00
968.5980, 17884.00
969.7140, 16813.00
970.8290, 16112.00
971.9440, 16047.00
973.0590, 15837.00
974.1740, 15920.00
975.2880, 16132.00
976.4030, 16629.00
977.5170, 17256.00
978.6310, 17468.00
979.7450, 17758.00
980.8590, 17208.00
981.9730, 16972.00
983.0860, 16296.00
984.2000, 15852.00
985.3130, 15253.00
986.4260, 14981.00
987.5390, 14711.00
988.6520, 14433.00
989.7640, 14466.00
990.8770, 14166.00
991.9890, 14141.00
993.1010, 13860.00
994.2130, 13842.00
995.3250, 13563.00
996.4370, 13473.00
997.5480, 13303.00
998.6590, 13386.00
999.7710, 13515.00
1000.882, 13363.00
1001.993, 13169.00
1003.103, 12871.00
1004.214, 12460.00
1005.324, 11963.00
1006.434, 11548.00
1007.545, 11034.00
1008.655, 10531.00
1009.764, 10037.00
1010.874, 9605.000
1011.983, 9263.000
1013.093, 8875.000
1014.202, 8451.000
1015.311, 8198.000
1016.420, 7978.000
1017.528, 7902.000
1018.637, 7726.000
1019.745, 7592.000
1020.854, 7495.000
1021.962, 7491.000
1023.070, 7442.000
1024.177, 7380.000
1025.285, 7433.000
1026.392, 7337.000
1027.500, 7359.000
1028.607, 7384.000
1029.714, 7330.000
1030.821, 7270.000
1031.927, 7227.000
1033.034, 7227.000
1034.140, 7167.000
1035.246, 7090.000
1036.352, 7100.000
1037.458, 7129.000
1038.564, 7080.704
1039.670, 7028.000
1040.775, 7055.000
1041.880, 7009.000
1042.986, 7023.000
1044.090, 7109.000
1045.195, 7122.000
1046.300, 7115.000
1047.404, 7103.000
1048.509, 7201.000
1049.613, 7324.000
1050.717, 7301.000
1051.821, 7274.000
1052.925, 7446.000
1054.028, 7360.707
1055.132, 7571.974
1056.235, 7711.034
1057.338, 7780.744
1058.441, 7635.284
1059.544, 7720.320
1060.647, 7684.040
1061.749, 7657.000
1062.851, 7893.000
1063.954, 7632.000
1065.056, 7583.000
1066.158, 7524.000
1067.259, 7340.000
1068.361, 7348.000
1069.462, 7238.000
1070.564, 7109.000
1071.665, 7138.000
1072.766, 7065.000
1073.867, 7076.000
1074.967, 7097.000
1076.068, 7220.000
1077.168, 7272.000
1078.268, 7408.000
1079.368, 7471.000
1080.468, 7484.000
1081.568, 7730.000
1082.668, 7821.000
1083.767, 7777.000
1084.866, 7750.000
1085.966, 7831.000
1087.065, 7577.000
1088.163, 7493.000
1089.262, 7278.000
1090.361, 7170.000
1091.459, 7055.000
1092.557, 6947.186
1093.655, 6983.000
1094.753, 6813.000
1095.851, 6886.000
1096.949, 6864.000
1098.046, 6724.000
1099.143, 6897.000
1100.241, 6798.000
1101.338, 6892.000
1102.434, 6891.000
1103.531, 6936.000
1104.628, 6955.549
1105.724, 6912.000
1106.820, 6964.000
1107.916, 7002.000
1109.012, 6994.748
1110.108, 6897.000
1111.204, 6967.000
1112.299, 6887.000
1113.395, 6910.000
1114.490, 6919.000
1115.585, 6775.000
1116.680, 6818.000
1117.775, 6769.000
1118.869, 6746.000
1119.964, 6763.000
1121.058, 6664.000
1122.152, 6698.560
1123.246, 6715.000
1124.340, 6697.000
1125.434, 6727.000
1126.527, 6694.000
1127.620, 6720.000
1128.714, 6747.000
1129.807, 6712.467
1130.900, 6586.000
1131.992, 6666.000
1133.085, 6654.000
1134.178, 6627.000
1135.270, 6681.000
1136.362, 6762.000
1137.454, 6712.000
1138.546, 6526.000
1139.638, 6720.000
1140.729, 6584.000
1141.821, 6664.000
1142.912, 6678.000
1144.003, 6714.000
1145.094, 6693.000
1146.185, 6714.000
1147.276, 6642.000
1148.366, 6727.000
1149.456, 6727.000
1150.547, 6682.000
1151.637, 6575.000
1152.727, 6766.000
1153.816, 6626.000
1154.906, 6657.000
1155.995, 6636.000
1157.085, 6754.000
1158.174, 6751.000
1159.263, 6777.000
1160.352, 6696.000
1161.441, 6730.000
1162.529, 6683.000
1163.618, 6819.000
1164.706, 6640.000
1165.794, 6718.000
1166.882, 6556.000
1167.970, 6584.000
1169.058, 6595.000
1170.145, 6786.000
1171.232, 6746.000
1172.320, 6715.000
1173.407, 6732.000
1174.494, 6696.000
1175.580, 6736.000
1176.667, 6750.000
1177.754, 6776.000
1178.840, 6713.000
1179.926, 6649.000
1181.012, 6762.000
1182.098, 6661.000
1183.184, 6801.000
1184.269, 6740.000
1185.355, 6746.000
1186.440, 6741.000
1187.525, 6748.000
1188.610, 6855.000
1189.695, 6782.000
1190.780, 6881.000
1191.864, 6868.000
1192.949, 6691.000
1194.033, 6723.000
1195.117, 6875.000
1196.201, 6748.000
1197.285, 6820.000
1198.369, 6844.000
1199.452, 6884.000
1200.536, 6826.000
1201.619, 6834.000
1202.702, 6872.000
1203.785, 6875.000
1204.868, 6759.000
1205.950, 6905.000
1207.033, 6818.000
1208.115, 6817.000
1209.197, 6947.000
1210.279, 6878.000
1211.361, 6922.000
1212.443, 6797.000
1213.525, 6954.000
1214.606, 6853.000
1215.687, 6849.000
1216.769, 6857.000
1217.850, 6833.181
1218.930, 6859.000
1220.011, 6876.000
1221.092, 6906.000
1222.172, 6976.000
1223.252, 6819.000
1224.333, 6942.000
1225.413, 6863.000
1226.492, 6932.000
1227.572, 6863.000
1228.652, 6867.000
1229.731, 6944.000
1230.810, 7017.000
1231.889, 6981.000
1232.968, 7019.000
1234.047, 6929.000
1235.126, 6934.958
1236.204, 6999.000
1237.283, 6892.000
1238.361, 7042.000
1239.439, 7032.000
1240.517, 7059.000
1241.595, 7080.000
1242.673, 7000.000
1243.750, 6980.000
1244.827, 7020.000
1245.905, 6950.000
1246.982, 7039.000
1248.059, 6854.000
1249.135, 7019.000
1250.212, 7128.000
1251.288, 7094.000
1252.365, 6996.000
1253.441, 7081.000
1254.517, 7060.000
1255.593, 7123.000
1256.669, 7057.000
1257.744, 7116.000
1258.820, 7095.000
1259.895, 7026.000
1260.970, 7072.000
1262.045, 7075.000
1263.120, 7049.000
1264.195, 7018.000
1265.270, 7186.000
1266.344, 7084.000
1267.418, 7140.000
1268.492, 7126.000
1269.566, 7090.000
1270.640, 7146.000
1271.714, 7191.000
1272.788, 7208.000
1273.861, 7190.000
1274.934, 7139.000
1276.007, 7147.000
1277.080, 7199.000
1278.153, 7235.000
1279.226, 7190.000
1280.299, 7227.418
1281.371, 7210.000
1282.443, 7228.000
1283.515, 7210.000
1284.587, 7200.000
1285.659, 7232.000
1286.731, 7226.707
1287.802, 7263.000
1288.874, 7259.000
1289.945, 7232.000
1291.016, 7256.000
1292.087, 7134.000
1293.158, 7361.000
1294.229, 7335.000
1295.299, 7373.000
1296.370, 7286.000
1297.440, 7311.000
1298.510, 7293.000
1299.580, 7245.000
1300.650, 7304.000
1301.720, 7299.000
1302.789, 7356.000
1303.859, 7290.000
1304.928, 7320.000
1305.997, 7322.000
1307.066, 7369.000
1308.135, 7354.000
1309.203, 7312.000
1310.272, 7344.000
1311.340, 7379.000
1312.409, 7389.000
1313.477, 7422.000
1314.545, 7407.292
1315.612, 7371.000
1316.680, 7364.000
1317.748, 7367.000
1318.815, 7330.000
1319.882, 7339.153
1320.949, 7333.415
1322.016, 7360.000
1323.083, 7351.000
1324.150, 7412.000
1325.216, 7455.000
1326.283, 7404.000
1327.349, 7473.000
1328.415, 7365.000
1329.481, 7511.000
1330.547, 7447.000
1331.613, 7540.000
1332.678, 7427.000
1333.744, 7470.000
1334.809, 7512.000
1335.874, 7526.000
1336.939, 7585.000
1338.004, 7496.000
1339.068, 7488.000
1340.133, 7599.000
1341.197, 7482.000
1342.262, 7525.000
1343.326, 7470.000
1344.390, 7590.000
1345.453, 7456.000
1346.517, 7589.000
1347.581, 7682.000
1348.644, 7559.000
1349.707, 7513.000
1350.770, 7506.000
1351.833, 7530.000
1352.896, 7511.000
1353.959, 7545.000
1355.022, 7620.000
1356.084, 7640.000
1357.146, 7554.000
1358.208, 7643.000
1359.270, 7628.000
1360.332, 7581.000
1361.394, 7690.000
1362.455, 7638.000
1363.517, 7718.000
1364.578, 7666.000
1365.639, 7783.000
1366.700, 7594.000
1367.761, 7604.000
1368.822, 7610.000
1369.883, 7712.000
1370.943, 7580.000
1372.003, 7627.000
1373.063, 7695.000
1374.123, 7696.000
1375.183, 7668.000
1376.243, 7709.000
1377.303, 7629.000
1378.362, 7704.000
1379.421, 7732.000
1380.481, 7650.000
1381.540, 7670.000
1382.598, 7786.000
1383.657, 7609.000
1384.716, 7760.000
1385.774, 7705.000
1386.833, 7655.000
1387.891, 7671.000
1388.949, 7639.147
1390.007, 7768.000
1391.065, 7693.000
1392.122, 7665.000
1393.180, 7820.000
1394.237, 7735.000
1395.294, 7779.000
1396.351, 7737.000
1397.408, 7817.000
1398.465, 7752.000
1399.522, 7814.000
1400.578, 7836.000
1401.635, 7831.000
1402.691, 7873.000
1403.747, 7786.000
1404.803, 7879.000
1405.859, 7776.000
1406.914, 7924.000
1407.970, 7956.000
1409.025, 7888.000
1410.081, 7831.000
1411.136, 7821.000
1412.191, 7959.000
1413.245, 7965.000
1414.300, 7905.000
1415.355, 7887.000
1416.409, 7908.000
1417.463, 7833.000
1418.518, 7882.000
1419.572, 7959.000
1420.625, 7955.000
1421.679, 7956.000
1422.733, 7948.000
1423.786, 7985.000
1424.840, 7922.000
1425.893, 7981.000
1426.946, 8015.000
1427.999, 7932.000
1429.051, 8003.000
1430.104, 8017.000
1431.157, 8134.000
1432.209, 8026.000
1433.261, 8218.000
1434.313, 8107.000
1435.365, 8004.000
1436.417, 8184.000
1437.468, 8077.000
1438.520, 8140.000
1439.571, 8160.000
1440.623, 8225.000
1441.674, 8150.000
1442.725, 8199.000
1443.775, 8092.000
1444.826, 8202.000
1445.877, 8139.000
1446.927, 8172.000
1447.977, 8149.000
1449.028, 8146.755
1450.078, 8199.000
1451.127, 8163.000
1452.177, 8208.000
1453.227, 8234.727
1454.276, 8212.000
1455.325, 8246.000
1456.375, 8169.000
1457.424, 8172.000
1458.473, 8108.000
1459.521, 8131.203
1460.570, 8172.000
1461.618, 8200.000
1462.667, 8176.000
1463.715, 8235.000
1464.763, 8220.000
1465.811, 8190.000
1466.859, 8210.000
1467.906, 8194.597
1468.954, 8225.000
1470.001, 8190.000
1471.049, 8148.000
1472.096, 8132.527
1473.143, 8133.152
1474.190, 8162.000
1475.236, 8132.000
1476.283, 8137.503
1477.329, 8186.000
1478.376, 8142.000
1479.422, 8145.000
1480.468, 8200.000
1481.514, 8334.000
1482.559, 8265.000
1483.605, 8184.000
1484.650, 8299.000
1485.696, 8189.000
1486.741, 8239.000
1487.786, 8274.000
1488.831, 8258.000
1489.876, 8277.000
1490.920, 8236.000
1491.965, 8291.000
1493.009, 8307.000
1494.054, 8351.000
1495.098, 8276.000
1496.142, 8369.000
1497.185, 8311.000
1498.229, 8261.000
1499.273, 8277.000
1500.316, 8266.000
1501.359, 8322.000
1502.403, 8292.000
1503.446, 8363.000
1504.489, 8353.000
1505.531, 8339.000
1506.574, 8351.000
1507.616, 8337.000
1508.659, 8314.000
1509.701, 8400.000
1510.743, 8361.000
1511.785, 8358.000
1512.827, 8383.000
1513.868, 8462.000
1514.910, 8347.000
1515.951, 8448.000
1516.993, 8445.000
1518.034, 8407.000
1519.075, 8391.000
1520.116, 8494.000
1521.156, 8419.000
1522.197, 8355.000
1523.237, 8563.000
1524.278, 8480.000
1525.318, 8442.000
1526.358, 8589.000
1527.398, 8537.000
1528.438, 8476.000
1529.477, 8549.000
1530.517, 8533.000
1531.556, 8481.000
1532.596, 8510.000
1533.635, 8494.000
1534.674, 8496.000
1535.712, 8547.000
1536.751, 8510.000
1537.790, 8498.000
1538.828, 8532.000
1539.866, 8566.000
1540.905, 8549.000
1541.943, 8657.000
1542.981, 8597.000
1544.018, 8584.000
1545.056, 8709.000
1546.094, 8676.000
1547.131, 8614.000
1548.168, 8731.000
1549.205, 8655.000
1550.242, 8587.000
1551.279, 8714.000
1552.316, 8775.000
1553.352, 8725.000
1554.389, 8602.000
1555.425, 8667.081
1556.461, 8807.000
1557.497, 8680.000
1558.533, 8682.000
1559.569, 8648.000
1560.605, 8636.000
1561.640, 8789.000
1562.675, 8674.000
1563.711, 8769.000
##END=



