##NAMES=Axinite-(Fe)
##RRUFFID=R060183
##IDEAL CHEMISTRY=Ca_4_Fe^2+^_2_Al_4_[B_2_Si_8_O_30_](OH)_2_
##LOCALITY=Skagit Bluffs, near Manning Park, British Columbia, Canada
##OWNER=RRUFF
##SOURCE=Lloyd Twaites
##DESCRIPTION=Light-pink transparent axe-head-shaped single crystal
##STATUS=The identification of this mineral has been confirmed by X-ray diffraction and chemical analysis
##URL=rruff.info/R060183
##MEASURED CHEMISTRY=Ca_2.00_(Fe^2+^_0.58_Mn_0.23_Mg_0.19_)Al_2.00_B_1.00_Si_4.00_O_15_(OH)
##PIN_ID=L00943
##ORIENTATION=Laser parallel to c* (0 0 1). Fiducial mark perpendicular to laser is parallel to a [1 0 0]
52.67100, 1272.000
53.91000, 1185.000
55.14900, 1213.000
56.38700, 1207.000
57.62600, 1183.000
58.86400, 1167.000
60.10300, 1152.404
61.34100, 1130.228
62.57900, 1122.000
63.81700, 1116.000
65.05400, 1107.000
66.29200, 1155.000
67.52900, 1207.000
68.76700, 1409.000
70.00400, 1488.720
71.24100, 1558.513
72.47700, 1798.000
73.71400, 1748.000
74.95100, 1949.000
76.18700, 2214.000
77.42300, 2444.000
78.65900, 2447.000
79.89500, 2616.000
81.13100, 2951.000
82.36700, 3906.000
83.60200, 4001.000
84.83700, 4660.000
86.07200, 4862.000
87.30800, 5139.000
88.54200, 5677.000
89.77700, 6395.000
91.01200, 7574.000
92.24600, 8585.666
93.48000, 10270.00
94.71400, 11235.00
95.94800, 13043.00
97.18200, 14606.00
98.41600, 16042.00
99.64900, 18382.00
100.8830, 20791.00
102.1160, 22207.00
103.3490, 23992.00
104.5820, 26296.00
105.8150, 29400.00
107.0470, 33248.00
108.2800, 38779.00
109.5120, 42412.00
110.7440, 37269.00
111.9760, 30935.00
113.2080, 26433.00
114.4400, 22918.00
115.6710, 20426.00
116.9030, 18067.00
118.1340, 16234.00
119.3650, 14919.00
120.5960, 13945.00
121.8270, 12995.00
123.0580, 12603.00
124.2880, 12051.92
125.5190, 11996.00
126.7490, 11554.00
127.9790, 11326.00
129.2090, 11241.00
130.4390, 11611.00
131.6680, 11682.00
132.8980, 12159.00
134.1270, 12705.00
135.3560, 13954.00
136.5850, 15371.00
137.8140, 16813.00
139.0430, 18422.00
140.2710, 19042.00
141.5000, 18678.00
142.7280, 17730.00
143.9560, 16968.00
145.1840, 16681.00
146.4120, 16555.00
147.6390, 17024.00
148.8670, 17216.00
150.0940, 17465.00
151.3210, 17388.00
152.5490, 16858.00
153.7750, 15155.00
155.0020, 13991.00
156.2290, 12823.00
157.4550, 12092.00
158.6810, 11639.00
159.9080, 11384.00
161.1340, 11364.00
162.3590, 11880.86
163.5850, 12557.00
164.8110, 13671.00
166.0360, 14897.00
167.2610, 16377.00
168.4860, 18346.00
169.7110, 20093.00
170.9360, 21262.00
172.1610, 21277.00
173.3850, 19808.00
174.6100, 17957.00
175.8340, 16252.00
177.0580, 14444.00
178.2820, 12942.00
179.5050, 11735.00
180.7290, 10786.00
181.9520, 9825.000
183.1760, 9300.000
184.3990, 9081.000
185.6220, 9011.000
186.8450, 8969.000
188.0670, 9231.000
189.2900, 9360.000
190.5120, 10034.00
191.7340, 10665.00
192.9560, 11359.00
194.1780, 11847.00
195.4000, 11991.00
196.6220, 12093.00
197.8430, 12379.00
199.0640, 12805.00
200.2860, 13651.00
201.5070, 15045.00
202.7270, 16658.00
203.9480, 17996.00
205.1690, 19298.00
206.3890, 20198.00
207.6090, 21222.00
208.8290, 21885.00
210.0490, 22177.00
211.2690, 22431.00
212.4890, 22407.00
213.7080, 22367.00
214.9280, 22115.00
216.1470, 21801.00
217.3660, 21195.00
218.5850, 20863.00
219.8030, 19637.00
221.0220, 18286.00
222.2400, 16110.00
223.4590, 15834.00
224.6770, 13727.00
225.8950, 11336.00
227.1120, 10387.00
228.3300, 9707.000
229.5480, 9326.000
230.7650, 9073.000
231.9820, 9229.000
233.1990, 9358.814
234.4160, 9798.000
235.6330, 10174.00
236.8490, 10928.00
238.0660, 11519.00
239.2820, 12145.00
240.4980, 12778.00
241.7140, 13493.00
242.9300, 13758.00
244.1460, 14101.00
245.3610, 14153.00
246.5770, 14236.00
247.7920, 14477.00
249.0070, 14916.06
250.2220, 15342.00
251.4370, 16239.00
252.6510, 17239.00
253.8660, 18403.00
255.0800, 19099.00
256.2940, 19680.00
257.5080, 19778.00
258.7220, 20496.00
259.9360, 21595.00
261.1490, 20332.00
262.3630, 20314.00
263.5760, 21107.00
264.7890, 22334.00
266.0020, 24036.00
267.2150, 26000.00
268.4270, 27708.00
269.6400, 30191.00
270.8520, 32288.00
272.0640, 34277.00
273.2760, 35676.00
274.4880, 36595.00
275.7000, 36464.00
276.9120, 35806.00
278.1230, 33878.00
279.3340, 32072.00
280.5450, 29388.00
281.7560, 27080.00
282.9670, 25811.00
284.1780, 24398.00
285.3880, 23573.00
286.5980, 22933.00
287.8090, 22560.00
289.0190, 22543.00
290.2290, 22282.00
291.4380, 22028.00
292.6480, 22047.00
293.8570, 22042.00
295.0670, 21796.00
296.2760, 21743.00
297.4850, 21322.00
298.6930, 20980.00
299.9020, 20545.00
301.1110, 20177.00
302.3190, 20204.00
303.5270, 20117.00
304.7350, 20453.00
305.9430, 20824.00
307.1510, 20842.00
308.3580, 20607.00
309.5660, 20527.00
310.7730, 20758.00
311.9800, 21614.00
313.1870, 22818.00
314.3940, 25063.00
315.6010, 27474.00
316.8070, 30074.00
318.0130, 32543.00
319.2200, 33545.00
320.4260, 33849.00
321.6310, 32533.00
322.8370, 30601.00
324.0430, 28691.00
325.2480, 26615.00
326.4540, 25571.00
327.6590, 24626.00
328.8640, 24317.00
330.0680, 23920.00
331.2730, 23642.00
332.4780, 23668.00
333.6820, 23952.00
334.8860, 24610.00
336.0900, 25887.00
337.2940, 27654.00
338.4980, 29867.00
339.7010, 32185.00
340.9050, 34315.00
342.1080, 35971.00
343.3110, 36248.00
344.5140, 35462.00
345.7170, 33187.00
346.9200, 30598.00
348.1220, 28013.00
349.3240, 25681.00
350.5270, 24070.00
351.7290, 22274.00
352.9310, 20256.00
354.1320, 18105.00
355.3340, 16106.00
356.5350, 14105.00
357.7370, 12634.00
358.9380, 11382.00
360.1390, 10449.00
361.3400, 9873.000
362.5400, 9368.000
363.7410, 9059.000
364.9410, 8978.000
366.1410, 8819.000
367.3410, 8846.000
368.5410, 9058.000
369.7410, 9136.000
370.9400, 9537.000
372.1400, 9774.000
373.3390, 10045.00
374.5380, 10103.00
375.7370, 10172.00
376.9360, 10526.00
378.1350, 10944.00
379.3330, 11301.00
380.5310, 11713.00
381.7300, 12887.00
382.9280, 13856.00
384.1260, 14969.00
385.3230, 16367.00
386.5210, 17597.00
387.7180, 18681.00
388.9160, 19044.00
390.1130, 19025.00
391.3100, 18335.00
392.5060, 17662.00
393.7030, 16346.00
394.9000, 15189.00
396.0960, 14228.00
397.2920, 13376.57
398.4880, 12659.00
399.6840, 12233.00
400.8800, 11823.00
402.0750, 11570.19
403.2710, 11574.00
404.4660, 11512.00
405.6610, 11746.00
406.8560, 12170.00
408.0510, 12793.00
409.2450, 13789.00
410.4400, 15049.00
411.6340, 16735.00
412.8280, 18977.00
414.0220, 22003.00
415.2160, 24693.00
416.4100, 27175.00
417.6030, 28465.00
418.7970, 28345.00
419.9900, 28165.00
421.1830, 27951.00
422.3760, 27842.00
423.5690, 27600.00
424.7610, 27366.00
425.9540, 26944.00
427.1460, 25973.00
428.3380, 25222.00
429.5300, 23994.15
430.7220, 22700.00
431.9140, 21265.00
433.1050, 19866.00
434.2970, 18487.00
435.4880, 17493.00
436.6790, 16985.00
437.8700, 16857.00
439.0610, 17263.00
440.2510, 18253.00
441.4420, 19508.00
442.6320, 20951.00
443.8220, 21760.00
445.0120, 20837.09
446.2020, 20340.00
447.3910, 17892.00
448.5810, 15723.00
449.7700, 13850.00
450.9600, 12243.00
452.1490, 11061.00
453.3370, 10284.00
454.5260, 9788.000
455.7150, 9364.000
456.9030, 8862.000
458.0910, 8727.000
459.2800, 8259.000
460.4670, 8212.000
461.6550, 8202.000
462.8430, 8116.000
464.0300, 8191.000
465.2180, 8375.000
466.4050, 8569.000
467.5920, 8897.000
468.7790, 9402.000
469.9650, 9591.000
471.1520, 9736.000
472.3380, 9908.000
473.5250, 10117.00
474.7110, 10115.00
475.8970, 10720.00
477.0820, 11179.00
478.2680, 12115.00
479.4540, 13055.00
480.6390, 14448.00
481.8240, 15947.00
483.0090, 17526.00
484.1940, 18787.00
485.3780, 18941.00
486.5630, 17835.00
487.7470, 15899.00
488.9320, 13993.00
490.1160, 12391.00
491.3000, 11066.00
492.4830, 10086.00
493.6670, 9489.000
494.8500, 9283.000
496.0340, 8956.000
497.2170, 9045.000
498.4000, 9100.000
499.5820, 9387.000
500.7650, 9446.000
501.9480, 9730.000
503.1300, 10025.00
504.3120, 10461.00
505.4940, 10783.00
506.6760, 11095.00
507.8580, 11410.00
509.0390, 11737.00
510.2210, 11837.00
511.4020, 11705.00
512.5830, 11442.00
513.7640, 11086.00
514.9450, 10546.00
516.1250, 9784.000
517.3060, 9291.000
518.4860, 8678.000
519.6660, 8227.000
520.8460, 7874.000
522.0260, 7637.000
523.2060, 7417.000
524.3850, 7240.023
525.5650, 7097.000
526.7440, 7039.000
527.9230, 6999.000
529.1020, 7008.000
530.2810, 7032.000
531.4590, 7064.125
532.6380, 7192.000
533.8160, 7199.000
534.9940, 7346.000
536.1720, 7466.000
537.3500, 7409.000
538.5270, 7415.000
539.7050, 7454.000
540.8820, 7368.000
542.0590, 7328.000
543.2360, 7533.000
544.4130, 7480.000
545.5900, 7539.000
546.7660, 7567.000
547.9430, 7637.000
549.1190, 7633.000
550.2950, 7666.000
551.4710, 7873.000
552.6470, 8103.000
553.8220, 8376.000
554.9980, 8675.000
556.1730, 9095.000
557.3480, 9585.000
558.5230, 10219.00
559.6980, 10681.00
560.8730, 11159.00
562.0470, 11454.00
563.2220, 11690.00
564.3960, 11882.00
565.5700, 12445.00
566.7440, 12894.00
567.9170, 13717.00
569.0910, 14494.00
570.2640, 15568.00
571.4380, 16439.00
572.6110, 16866.00
573.7840, 17145.00
574.9570, 17025.00
576.1290, 16417.00
577.3020, 15405.00
578.4740, 14515.00
579.6460, 13619.00
580.8180, 12857.00
581.9900, 12216.00
583.1620, 11898.00
584.3330, 11583.00
585.5040, 11625.00
586.6760, 11647.00
587.8470, 11689.00
589.0180, 11486.00
590.1880, 10953.00
591.3590, 10653.00
592.5290, 10030.00
593.7000, 9297.000
594.8700, 8837.000
596.0400, 8412.000
597.2090, 7969.000
598.3790, 7712.000
599.5490, 7475.000
600.7180, 7356.000
601.8870, 7381.000
603.0560, 7362.000
604.2250, 7512.000
605.3940, 7713.202
606.5620, 7944.286
607.7300, 8412.000
608.8990, 8669.000
610.0670, 9327.000
611.2350, 9914.000
612.4020, 10531.00
613.5700, 11274.00
614.7370, 11866.00
615.9050, 12386.00
617.0720, 12796.00
618.2390, 13016.00
619.4060, 13137.00
620.5720, 13081.00
621.7390, 12644.00
622.9050, 11781.00
624.0710, 10705.00
625.2370, 9921.000
626.4030, 9124.000
627.5690, 8629.000
628.7340, 8234.000
629.9000, 8040.000
631.0650, 7866.000
632.2300, 7826.000
633.3950, 7973.000
634.5600, 8289.000
635.7240, 8662.000
636.8890, 9223.000
638.0530, 9670.466
639.2170, 10133.00
640.3810, 10655.00
641.5450, 11136.00
642.7080, 11395.00
643.8720, 11572.00
645.0350, 11334.00
646.1980, 11118.00
647.3610, 10751.00
648.5240, 10232.00
649.6870, 9732.000
650.8490, 9047.000
652.0120, 8535.000
653.1740, 8047.000
654.3360, 7790.000
655.4980, 7439.000
656.6600, 7311.000
657.8210, 7054.000
658.9830, 7052.000
660.1440, 6974.000
661.3050, 7146.000
662.4660, 7209.000
663.6270, 7275.000
664.7870, 7576.000
665.9480, 7939.000
667.1080, 8278.000
668.2680, 8745.000
669.4280, 9448.000
670.5880, 10114.00
671.7480, 10937.00
672.9070, 12097.00
674.0670, 13147.00
675.2260, 14321.00
676.3850, 14863.00
677.5440, 15380.00
678.7030, 15364.00
679.8610, 14606.00
681.0200, 13874.00
682.1780, 12640.00
683.3360, 11927.00
684.4940, 10939.00
685.6520, 10353.00
686.8090, 9876.000
687.9670, 9433.000
689.1240, 9384.000
690.2810, 9168.000
691.4380, 9195.000
692.5950, 9331.000
693.7520, 9510.000
694.9080, 9768.000
696.0650, 10171.00
697.2210, 10815.00
698.3770, 11513.00
699.5330, 12607.00
700.6880, 13653.00
701.8440, 15168.00
702.9990, 17042.00
704.1550, 19482.00
705.3100, 22465.00
706.4650, 25852.00
707.6190, 29968.00
708.7740, 34732.00
709.9290, 40154.00
711.0830, 45507.00
712.2370, 50668.00
713.3910, 53901.00
714.5450, 56761.00
715.6980, 56101.00
716.8520, 53873.00
718.0050, 49403.00
719.1580, 44022.00
720.3110, 38211.00
721.4640, 32903.00
722.6170, 28224.00
723.7700, 24494.00
724.9220, 21058.00
726.0740, 18529.00
727.2260, 16251.00
728.3780, 14737.00
729.5300, 13398.00
730.6810, 12336.00
731.8330, 11515.00
732.9840, 10859.00
734.1350, 10184.00
735.2860, 9773.000
736.4370, 9321.000
737.5880, 9011.000
738.7380, 8625.000
739.8880, 8568.000
741.0390, 8334.000
742.1890, 8171.000
743.3380, 7909.000
744.4880, 7907.000
745.6380, 7872.000
746.7870, 7797.000
747.9360, 7773.000
749.0850, 7766.644
750.2340, 7778.891
751.3830, 7837.000
752.5310, 7891.000
753.6800, 8047.000
754.8280, 8180.000
755.9760, 8461.000
757.1240, 8449.000
758.2720, 8696.000
759.4190, 8886.000
760.5670, 9021.000
761.7140, 9244.000
762.8610, 9503.000
764.0080, 9608.000
765.1550, 9876.000
766.3020, 9777.000
767.4480, 9871.000
768.5950, 9746.000
769.7410, 9515.000
770.8870, 9275.000
772.0330, 8991.000
773.1780, 8686.960
774.3240, 8322.000
775.4690, 8045.000
776.6140, 7764.000
777.7590, 7492.000
778.9040, 7339.000
780.0490, 7110.000
781.1940, 7009.000
782.3380, 6855.000
783.4820, 6756.721
784.6260, 6684.416
785.7700, 6631.000
786.9140, 6549.000
788.0580, 6537.000
789.2010, 6436.000
790.3450, 6501.000
791.4880, 6427.000
792.6310, 6333.000
793.7730, 6244.000
794.9160, 6419.000
796.0590, 6191.000
797.2010, 6272.000
798.3430, 6170.000
799.4850, 6344.000
800.6270, 6222.000
801.7690, 6426.000
802.9100, 6347.000
804.0520, 6612.000
805.1930, 6639.000
806.3340, 6915.000
807.4750, 7146.000
808.6160, 7354.000
809.7560, 7648.000
810.8970, 7748.000
812.0370, 8035.000
813.1770, 8208.000
814.3170, 8211.000
815.4570, 8086.000
816.5960, 7956.000
817.7360, 7684.000
818.8750, 7569.000
820.0140, 7180.000
821.1530, 7096.000
822.2920, 6886.000
823.4310, 6885.000
824.5690, 6823.000
825.7070, 6779.000
826.8460, 6783.830
827.9840, 6640.000
829.1220, 6776.000
830.2590, 6717.000
831.3970, 6693.000
832.5340, 6823.000
833.6710, 6783.000
834.8080, 6991.000
835.9450, 7042.000
837.0820, 7146.000
838.2190, 7283.000
839.3550, 7394.000
840.4910, 7682.000
841.6270, 8260.000
842.7630, 8367.000
843.8990, 8566.000
845.0350, 8370.000
846.1700, 8551.000
847.3060, 8710.000
848.4410, 9005.000
849.5760, 9131.000
850.7100, 9181.000
851.8450, 9372.000
852.9800, 9378.000
854.1140, 9403.513
855.2480, 9411.000
856.3820, 9359.000
857.5160, 9428.000
858.6500, 9390.000
859.7830, 9428.000
860.9170, 9409.000
862.0500, 9488.000
863.1830, 9503.000
864.3160, 9635.000
865.4480, 9660.000
866.5810, 9694.000
867.7130, 9701.000
868.8460, 9919.000
869.9780, 10023.00
871.1100, 10006.00
872.2410, 10124.00
873.3730, 10151.00
874.5050, 10429.00
875.6360, 10520.00
876.7670, 10620.00
877.8980, 10701.00
879.0290, 10881.38
880.1590, 11355.00
881.2900, 11180.00
882.4200, 11427.00
883.5500, 11422.00
884.6800, 11955.00
885.8100, 12078.00
886.9400, 12592.00
888.0690, 12993.00
889.1990, 13834.00
890.3280, 14336.00
891.4570, 15329.00
892.5860, 16347.00
893.7140, 17255.27
894.8430, 18391.00
895.9710, 19465.00
897.1000, 20439.00
898.2280, 21683.00
899.3560, 22502.00
900.4830, 22904.00
901.6110, 23423.00
902.7380, 23552.00
903.8660, 23350.00
904.9930, 23079.00
906.1200, 22346.00
907.2460, 21740.00
908.3730, 20957.00
909.5000, 20326.00
910.6260, 19356.00
911.7520, 18915.00
912.8780, 17962.00
914.0040, 17082.00
915.1290, 16509.00
916.2550, 15755.00
917.3800, 15240.00
918.5050, 14821.00
919.6300, 14386.97
920.7550, 14141.00
921.8800, 13934.00
923.0040, 13849.00
924.1290, 13993.00
925.2530, 13818.00
926.3770, 14131.00
927.5010, 14474.00
928.6250, 14612.00
929.7480, 14827.69
930.8720, 15025.00
931.9950, 15006.00
933.1180, 14911.00
934.2410, 14790.00
935.3640, 14726.00
936.4860, 14784.36
937.6090, 14819.18
938.7310, 15032.00
939.8530, 15366.00
940.9750, 15820.03
942.0970, 16620.00
943.2180, 17164.00
944.3400, 17913.00
945.4610, 18955.00
946.5820, 19848.00
947.7030, 21473.00
948.8240, 23302.00
949.9450, 24849.00
951.0650, 26843.00
952.1860, 28100.50
953.3060, 29607.30
954.4260, 30827.00
955.5460, 32413.00
956.6650, 34105.00
957.7850, 35887.00
958.9040, 38224.00
960.0230, 40767.00
961.1420, 42908.00
962.2610, 45150.00
963.3800, 46163.10
964.4990, 46380.08
965.6170, 46751.00
966.7350, 45022.00
967.8530, 43050.00
968.9710, 41307.00
970.0890, 39377.00
971.2070, 38715.00
972.3240, 38485.00
973.4410, 38587.00
974.5580, 39564.00
975.6750, 40959.00
976.7920, 42471.00
977.9090, 44174.00
979.0250, 44877.00
980.1410, 45675.00
981.2580, 44848.00
982.3740, 43622.00
983.4890, 41668.00
984.6050, 39967.00
985.7200, 38430.00
986.8360, 36795.00
987.9510, 35667.00
989.0660, 34738.00
990.1810, 34294.00
991.2950, 33136.00
992.4100, 32086.00
993.5240, 30900.00
994.6390, 30340.00
995.7530, 29434.00
996.8660, 28929.00
997.9800, 28544.00
999.0940, 28082.00
1000.207, 27760.00
1001.320, 27195.00
1002.433, 27051.00
1003.546, 26658.00
1004.659, 26861.00
1005.772, 25217.00
1006.884, 24088.00
1007.996, 23604.00
1009.108, 21770.42
1010.220, 20385.00
1011.332, 18786.00
1012.444, 17519.00
1013.555, 16134.00
1014.666, 15203.00
1015.777, 14351.00
1016.888, 13416.00
1017.999, 12697.00
1019.110, 12093.00
1020.220, 11773.00
1021.331, 11389.00
1022.441, 11141.00
1023.551, 10913.00
1024.661, 10756.00
1025.770, 10533.00
1026.880, 10316.00
1027.989, 10217.00
1029.098, 10079.00
1030.207, 9842.000
1031.316, 9629.000
1032.425, 9617.000
1033.533, 9573.000
1034.642, 9276.000
1035.750, 9101.000
1036.858, 9176.000
1037.966, 9041.000
1039.073, 9099.000
1040.181, 9267.000
1041.288, 9150.000
1042.396, 9309.000
1043.503, 9272.000
1044.610, 9381.000
1045.716, 9361.000
1046.823, 9345.000
1047.929, 9277.000
1049.036, 9271.000
1050.142, 9363.000
1051.248, 9421.000
1052.353, 9580.000
1053.459, 9727.000
1054.564, 9816.000
1055.670, 9893.975
1056.775, 9943.342
1057.880, 9933.000
1058.985, 9958.000
1060.089, 9872.000
1061.194, 9812.000
1062.298, 9729.000
1063.402, 9521.000
1064.506, 9428.000
1065.610, 9115.000
1066.713, 8981.000
1067.817, 8851.000
1068.920, 8799.000
1070.023, 8802.000
1071.126, 8750.000
1072.229, 8916.000
1073.332, 8887.000
1074.435, 9107.000
1075.537, 9298.000
1076.639, 9719.000
1077.741, 9915.000
1078.843, 10495.00
1079.945, 10859.00
1081.046, 11322.00
1082.148, 11602.00
1083.249, 11893.00
1084.350, 11677.00
1085.451, 11622.00
1086.551, 11409.00
1087.652, 10940.00
1088.752, 10372.00
1089.853, 10153.00
1090.953, 9711.019
1092.053, 9707.000
1093.152, 9130.000
1094.252, 9107.000
1095.351, 9011.000
1096.451, 8917.000
1097.550, 8948.000
1098.649, 9131.000
1099.748, 9215.000
1100.846, 9390.000
1101.945, 9662.000
1103.043, 9677.000
1104.141, 9786.000
1105.239, 9941.000
1106.337, 9975.000
1107.434, 9867.000
1108.532, 9868.000
1109.629, 9584.000
1110.726, 9575.000
1111.823, 9266.000
1112.920, 9112.000
1114.017, 8914.000
1115.113, 8655.000
1116.210, 8398.000
1117.306, 8240.000
1118.402, 8174.000
1119.498, 8012.000
1120.593, 7865.000
1121.689, 7713.000
1122.784, 7579.000
1123.879, 7582.000
1124.974, 7484.000
1126.069, 7356.000
1127.164, 7344.000
1128.259, 7156.000
1129.353, 7049.000
1130.447, 7061.000
1131.541, 7015.000
1132.635, 6999.000
1133.729, 6938.000
1134.822, 6907.618
1135.916, 6874.000
1137.009, 6832.000
1138.102, 6806.000
1139.195, 6773.745
1140.288, 6737.332
1141.380, 6691.000
1142.473, 6681.000
1143.565, 6660.000
1144.657, 6661.000
1145.749, 6628.000
1146.841, 6588.000
1147.932, 6551.000
1149.024, 6409.000
1150.115, 6531.000
1151.206, 6484.000
1152.297, 6398.000
1153.388, 6479.000
1154.479, 6373.000
1155.569, 6403.000
1156.659, 6337.000
1157.750, 6321.000
1158.839, 6355.447
1159.929, 6352.428
1161.019, 6420.000
1162.108, 6355.000
1163.198, 6373.000
1164.287, 6233.000
1165.376, 6285.000
1166.465, 6295.000
1167.553, 6116.000
1168.642, 6224.000
1169.730, 6175.000
1170.818, 6280.000
1171.906, 6107.000
1172.994, 6198.000
1174.082, 6196.000
1175.170, 6244.000
1176.257, 6233.000
1177.344, 6217.981
1178.431, 6115.000
1179.518, 6121.000
1180.605, 6147.000
1181.691, 6016.000
1182.778, 6086.000
1183.864, 6245.000
1184.950, 6125.000
1186.036, 6110.000
1187.122, 6086.000
1188.207, 6088.000
1189.292, 6064.279
1190.378, 6047.000
1191.463, 6059.000
1192.548, 6076.000
1193.632, 6138.000
1194.717, 6087.000
1195.801, 5987.000
1196.886, 6037.000
1197.970, 6114.000
1199.054, 5988.000
1200.137, 6190.000
1201.221, 6140.000
1202.305, 6021.000
1203.388, 6072.000
1204.471, 6063.000
1205.554, 6017.000
1206.637, 6062.000
1207.719, 6038.000
1208.802, 5987.000
1209.884, 5987.000
1210.966, 6013.456
1212.048, 6046.000
1213.130, 6077.000
1214.212, 5966.000
1215.293, 5923.000
1216.374, 5999.000
1217.456, 5941.000
1218.536, 5973.000
1219.617, 5928.000
1220.698, 5935.000
1221.778, 6041.000
1222.859, 6019.000
1223.939, 6017.367
1225.019, 5977.000
1226.099, 5950.000
1227.178, 5957.000
1228.258, 5909.000
1229.337, 5985.000
1230.417, 5890.000
1231.496, 5999.000
1232.574, 5930.000
1233.653, 5889.000
1234.732, 5875.000
1235.810, 5893.000
1236.888, 5951.000
1237.966, 5949.000
1239.044, 5949.000
1240.122, 5918.000
1241.199, 5975.000
1242.277, 5960.000
1243.354, 5937.000
1244.431, 5884.000
1245.508, 5913.000
1246.585, 5948.000
1247.661, 5980.000
1248.738, 5983.000
1249.814, 5857.000
1250.890, 5957.000
1251.966, 5859.000
1253.042, 6005.000
1254.117, 6021.000
1255.193, 5972.000
1256.268, 5891.000
1257.343, 5977.000
1258.418, 5954.000
1259.493, 5896.000
1260.567, 5860.000
1261.642, 5946.000
1262.716, 5981.000
1263.790, 6002.000
1264.864, 6012.000
1265.938, 5955.000
1267.011, 5980.000
1268.085, 5944.000
1269.158, 5928.505
1270.231, 6044.000
1271.304, 5923.000
1272.377, 5962.000
1273.450, 6020.000
1274.522, 5936.000
1275.594, 5951.000
1276.666, 5980.000
1277.738, 6001.000
1278.810, 6020.000
1279.882, 6029.155
1280.953, 5963.000
1282.025, 6013.000
1283.096, 6004.000
1284.167, 5942.000
1285.238, 6091.000
1286.308, 5970.000
1287.379, 6038.000
1288.449, 6020.000
1289.519, 6049.000
1290.589, 5938.000
1291.659, 6025.000
1292.729, 5969.000
1293.798, 5967.000
1294.868, 5962.000
1295.937, 6028.000
1297.006, 5981.000
1298.075, 5934.000
1299.143, 5984.000
1300.212, 5903.000
1301.280, 6114.204
1302.348, 6006.923
1303.416, 6001.941
1304.484, 5964.000
1305.552, 5915.000
1306.620, 5999.000
1307.687, 6007.000
1308.754, 5957.000
1309.821, 5888.000
1310.888, 5867.000
1311.955, 5911.000
1313.021, 5932.000
1314.088, 5942.000
1315.154, 5882.000
1316.220, 5965.000
1317.286, 6023.000
1318.352, 5982.000
1319.417, 6044.000
1320.483, 5992.000
1321.548, 5902.000
1322.613, 6022.000
1323.678, 6003.000
1324.743, 5988.000
1325.807, 6114.000
1326.872, 6025.000
1327.936, 6139.000
1329.000, 6094.000
1330.064, 6060.637
1331.128, 6122.000
1332.191, 6026.000
1333.255, 6096.000
1334.318, 6199.000
1335.381, 6065.000
1336.444, 5989.000
1337.507, 6046.000
1338.569, 6138.000
1339.632, 6108.000
1340.694, 6079.000
1341.756, 6077.000
1342.818, 6113.000
1343.880, 6059.000
1344.941, 6185.000
1346.003, 6111.000
1347.064, 6135.000
1348.125, 6278.000
1349.186, 6210.000
1350.247, 6178.000
1351.308, 6227.000
1352.368, 6126.000
1353.428, 6281.000
1354.489, 6285.000
1355.549, 6196.000
1356.608, 6202.000
1357.668, 6206.000
1358.727, 6249.000
1359.787, 6250.000
1360.846, 6295.000
1361.905, 6285.270
1362.964, 6265.000
1364.022, 6288.000
1365.081, 6221.000
1366.139, 6261.000
1367.197, 6198.000
1368.255, 6321.000
1369.313, 6264.000
1370.371, 6341.000
1371.428, 6309.000
1372.486, 6358.000
1373.543, 6344.541
1374.600, 6341.000
1375.657, 6305.564
1376.713, 6349.000
1377.770, 6326.000
1378.826, 6282.000
1379.882, 6270.000
1380.938, 6365.000
1381.994, 6266.000
1383.050, 6331.000
1384.106, 6240.000
1385.161, 6286.000
1386.216, 6339.000
1387.271, 6405.000
1388.326, 6342.000
1389.381, 6350.000
1390.435, 6311.000
1391.490, 6320.000
1392.544, 6314.000
1393.598, 6254.000
1394.652, 6394.000
1395.705, 6417.000
1396.759, 6306.000
1397.812, 6248.000
1398.866, 6339.000
1399.919, 6376.000
1400.972, 6388.000
1402.024, 6425.128
1403.077, 6401.622
1404.129, 6430.000
1405.181, 6363.000
1406.233, 6327.000
1407.285, 6340.000
1408.337, 6372.000
1409.389, 6398.000
1410.440, 6417.691
1411.491, 6449.619
1412.542, 6442.000
1413.593, 6477.000
1414.644, 6447.000
1415.695, 6393.000
1416.745, 6507.000
1417.795, 6494.000
1418.845, 6529.000
1419.895, 6402.000
1420.945, 6498.000
1421.995, 6496.000
1423.044, 6459.000
1424.093, 6524.000
1425.142, 6558.000
1426.191, 6459.000
1427.240, 6487.000
1428.289, 6578.000
1429.337, 6582.000
1430.385, 6504.000
1431.433, 6531.000
1432.481, 6527.000
1433.529, 6566.000
1434.577, 6481.000
1435.624, 6555.000
1436.672, 6574.000
1437.719, 6462.000
1438.766, 6552.000
1439.812, 6520.000
1440.859, 6591.000
1441.905, 6473.608
1442.952, 6626.586
1443.998, 6713.122
1445.044, 6736.787
1446.090, 6509.279
1447.135, 6606.108
1448.181, 6572.958
1449.226, 6534.477
1450.271, 6676.955
1451.316, 6485.979
1452.361, 6625.587
1453.405, 6633.230
1454.450, 6701.272
1455.494, 6638.529
1456.538, 6616.181
1457.582, 6724.658
1458.626, 6760.695
1459.670, 6682.897
1460.713, 6754.775
1461.757, 6559.229
1462.800, 6598.351
1463.843, 6638.000
1464.886, 6654.000
1465.928, 6728.000
1466.971, 6699.000
1468.013, 6615.000
1469.055, 6721.000
1470.097, 6724.000
1471.139, 6657.000
1472.181, 6717.000
1473.222, 6618.000
1474.263, 6713.000
1475.305, 6664.000
1476.346, 6661.000
1477.386, 6653.000
1478.427, 6654.725
1479.468, 6747.000
1480.508, 6716.000
1481.548, 6742.000
1482.588, 6837.000
1483.628, 6806.000
1484.668, 6775.000
1485.707, 6862.000
1486.747, 6805.000
1487.786, 6756.000
1488.825, 6689.000
1489.864, 6888.000
1490.902, 6883.000
1491.941, 6800.752
1492.979, 6960.121
1494.017, 7053.049
1495.055, 7083.108
1496.093, 6861.992
1497.131, 6965.215
1498.168, 6938.451
1499.206, 6906.365
1500.243, 7055.230
1501.280, 6870.640
1502.317, 7016.635
1503.354, 7030.667
1504.390, 7105.088
1505.426, 7048.726
1506.463, 7032.766
1507.499, 7147.624
1508.535, 7190.043
1509.570, 7118.618
1510.606, 7196.878
1511.641, 7007.705
1512.676, 7053.202
1513.711, 7199.949
1514.746, 7135.099
1515.781, 7215.744
1516.816, 7240.976
1517.850, 7014.377
1518.884, 7225.726
1519.918, 7247.675
1520.952, 7075.157
1521.986, 7271.498
1523.019, 7125.782
1524.053, 7210.000
1525.086, 7142.000
1526.119, 7094.000
1527.152, 7181.000
1528.185, 7129.000
1529.217, 7223.000
1530.250, 7228.000
1531.282, 7261.000
1532.314, 7307.000
1533.346, 7241.000
1534.377, 7328.000
1535.409, 7291.000
1536.440, 7329.000
1537.472, 7218.000
1538.503, 7235.000
1539.534, 7266.000
1540.564, 7274.000
1541.595, 7320.000
1542.625, 7223.394
1543.656, 7380.424
1544.686, 7471.009
1545.716, 7498.723
1546.745, 7275.259
1547.775, 7376.139
1548.804, 7347.033
1549.834, 7312.602
1550.863, 7459.126
1551.892, 7272.194
1552.920, 7415.843
1553.949, 7427.533
1554.977, 7499.615
1556.006, 7440.918
1557.034, 7422.612
1558.062, 7535.129
1559.089, 7575.204
1560.117, 7501.447
1561.144, 7577.363
1562.172, 7385.857
1563.199, 7429.017
1564.226, 7573.426
1565.252, 7506.235
1566.279, 7397.000
1567.305, 7444.000
1568.332, 7366.000
1569.358, 7471.000
1570.384, 7514.000
1571.409, 7675.000
##END=



