##NAMES=Axinite-(Fe)
##RRUFFID=R060194
##IDEAL CHEMISTRY=Ca_4_Fe^2+^_2_Al_4_[B_2_Si_8_O_30_](OH)_2_
##LOCALITY=near Dalbandi, Baluchistan Province, Pakistan
##OWNER=RRUFF
##SOURCE=Herbert Obodda
##DESCRIPTION=Brown transparent wedge-shaped single crystal
##STATUS=The identification of this mineral has been confirmed by X-ray diffraction and chemical analysis
##URL=rruff.info/R060194
##MEASURED CHEMISTRY=Ca_2.00_(Fe^2+^_0.66_Mg_0.30_Mn_0.04_)Al_2.00_BSi_4.00_O_15_(OH)
##PIN_ID=L01072
##ORIENTATION=Laser parallel to -c* (0 0 -1). Fiducial mark perpendicular to laser is parallel to a [1 0 0]
53.91000, 788.0000
55.14900, 763.0000
56.38700, 767.0000
57.62600, 760.0000
58.86400, 774.0000
60.10300, 775.0000
61.34100, 760.0000
62.57900, 795.0000
63.81700, 776.0000
65.05400, 849.0000
66.29200, 832.0000
67.52900, 857.0000
68.76700, 978.0000
70.00400, 1173.000
71.24100, 1437.000
72.47700, 1481.000
73.71400, 1419.000
74.95100, 1429.000
76.18700, 1604.000
77.42300, 1884.000
78.65900, 2042.000
79.89500, 2143.000
81.13100, 2274.000
82.36700, 2539.000
83.60200, 2745.000
84.83700, 3237.000
86.07200, 3731.000
87.30800, 3846.000
88.54200, 4160.000
89.77700, 4671.000
91.01200, 5211.000
92.24600, 5695.000
93.48000, 6710.000
94.71400, 7290.000
95.94800, 8019.000
97.18200, 9133.000
98.41600, 10424.60
99.64900, 12248.00
100.8830, 13426.00
102.1160, 14704.00
103.3490, 15949.00
104.5820, 17258.00
105.8150, 18672.00
107.0470, 20682.00
108.2800, 23241.00
109.5120, 26805.00
110.7440, 27955.00
111.9760, 24748.00
113.2080, 20986.00
114.4400, 17954.00
115.6710, 15719.00
116.9030, 14445.00
118.1340, 13486.00
119.3650, 12646.00
120.5960, 11800.00
121.8270, 11117.00
123.0580, 10763.00
124.2880, 10357.00
125.5190, 10096.00
126.7490, 9596.000
127.9790, 9062.000
129.2090, 8802.000
130.4390, 8758.000
131.6680, 8908.000
132.8980, 8959.000
134.1270, 9349.000
135.3560, 9659.000
136.5850, 10458.00
137.8140, 11241.00
139.0430, 12313.00
140.2710, 13278.00
141.5000, 14231.00
142.7280, 14651.00
143.9560, 14660.00
145.1840, 14482.00
146.4120, 14365.00
147.6390, 14564.00
148.8670, 15308.00
150.0940, 16036.00
151.3210, 16878.00
152.5490, 17763.00
153.7750, 18179.00
155.0020, 17336.00
156.2290, 16574.00
157.4550, 15460.00
158.6810, 14619.00
159.9080, 13725.00
161.1340, 13424.00
162.3590, 13278.00
163.5850, 13561.00
164.8110, 14111.00
166.0360, 14823.00
167.2610, 15940.00
168.4860, 16936.00
169.7110, 18419.00
170.9360, 19645.00
172.1610, 20966.00
173.3850, 21404.00
174.6100, 20641.00
175.8340, 19515.00
177.0580, 17632.00
178.2820, 15798.00
179.5050, 14124.00
180.7290, 12524.00
181.9520, 11461.00
183.1760, 10683.00
184.3990, 10464.00
185.6220, 10534.00
186.8450, 10650.00
188.0670, 11211.00
189.2900, 11820.71
190.5120, 12547.00
191.7340, 13758.00
192.9560, 14903.00
194.1780, 16395.00
195.4000, 17607.00
196.6220, 18145.00
197.8430, 17455.00
199.0640, 16957.00
200.2860, 16956.00
201.5070, 17524.00
202.7270, 19066.00
203.9480, 20666.00
205.1690, 22305.00
206.3890, 23460.00
207.6090, 24418.00
208.8290, 24952.00
210.0490, 24908.00
211.2690, 24304.00
212.4890, 23531.00
213.7080, 22730.00
214.9280, 22032.00
216.1470, 21189.00
217.3660, 20137.00
218.5850, 19643.00
219.8030, 18662.00
221.0220, 17881.00
222.2400, 16242.00
223.4590, 14953.00
224.6770, 13657.00
225.8950, 12480.00
227.1120, 11526.00
228.3300, 10842.00
229.5480, 10334.00
230.7650, 9983.000
231.9820, 9743.000
233.1990, 9684.000
234.4160, 9676.000
235.6330, 9745.000
236.8490, 9996.000
238.0660, 10473.00
239.2820, 11028.00
240.4980, 11606.00
241.7140, 12071.00
242.9300, 12398.00
244.1460, 12642.00
245.3610, 12713.00
246.5770, 13114.00
247.7920, 13225.00
249.0070, 13498.00
250.2220, 14032.00
251.4370, 14524.00
252.6510, 15310.00
253.8660, 16218.00
255.0800, 17169.00
256.2940, 17788.00
257.5080, 18477.00
258.7220, 18655.00
259.9360, 19035.00
261.1490, 19381.00
262.3630, 19174.00
263.5760, 19848.00
264.7890, 20974.00
266.0020, 22617.00
267.2150, 24266.00
268.4270, 25871.00
269.6400, 27610.00
270.8520, 29165.00
272.0640, 30499.00
273.2760, 31336.00
274.4880, 31617.00
275.7000, 30985.00
276.9120, 30124.00
278.1230, 28384.00
279.3340, 26441.00
280.5450, 24775.00
281.7560, 22741.00
282.9670, 21009.00
284.1780, 19780.00
285.3880, 19122.00
286.5980, 18737.00
287.8090, 18702.00
289.0190, 18341.00
290.2290, 18702.00
291.4380, 19013.00
292.6480, 19380.00
293.8570, 19815.00
295.0670, 20375.00
296.2760, 20938.00
297.4850, 21546.79
298.6930, 22211.98
299.9020, 22842.00
301.1110, 23559.00
302.3190, 24256.00
303.5270, 25040.00
304.7350, 25790.00
305.9430, 26580.00
307.1510, 27380.00
308.3580, 27610.00
309.5660, 27368.00
310.7730, 26421.00
311.9800, 25766.00
313.1870, 24717.00
314.3940, 24138.00
315.6010, 24376.00
316.8070, 25157.00
318.0130, 26256.00
319.2200, 27656.00
320.4260, 28052.00
321.6310, 27412.00
322.8370, 26061.00
324.0430, 23999.00
325.2480, 22114.00
326.4540, 20403.00
327.6590, 19302.00
328.8640, 18489.00
330.0680, 18342.00
331.2730, 18178.00
332.4780, 18196.00
333.6820, 18060.00
334.8860, 18404.00
336.0900, 19079.00
337.2940, 19941.00
338.4980, 21501.00
339.7010, 23045.00
340.9050, 25167.00
342.1080, 27890.00
343.3110, 30532.00
344.5140, 32513.00
345.7170, 33490.00
346.9200, 33373.00
348.1220, 31645.00
349.3240, 29686.00
350.5270, 28371.00
351.7290, 27457.00
352.9310, 26420.00
354.1320, 25393.00
355.3340, 23762.00
356.5350, 21382.00
357.7370, 18827.00
358.9380, 16776.00
360.1390, 14879.00
361.3400, 13500.00
362.5400, 12578.00
363.7410, 11864.00
364.9410, 11337.00
366.1410, 11119.00
367.3410, 10937.00
368.5410, 10764.00
369.7410, 10935.00
370.9400, 10788.00
372.1400, 11025.00
373.3390, 11210.00
374.5380, 11361.00
375.7370, 11462.00
376.9360, 11444.00
378.1350, 11742.00
379.3330, 12082.00
380.5310, 12565.00
381.7300, 13244.00
382.9280, 14451.00
384.1260, 15687.00
385.3230, 17116.00
386.5210, 18901.00
387.7180, 20713.00
388.9160, 22720.00
390.1130, 24170.00
391.3100, 25062.00
392.5060, 25039.00
393.7030, 23796.00
394.9000, 22025.00
396.0960, 20113.00
397.2920, 18268.00
398.4880, 16591.00
399.6840, 15638.00
400.8800, 14897.00
402.0750, 14506.00
403.2710, 14067.88
404.4660, 13957.00
405.6610, 13857.00
406.8560, 14015.00
408.0510, 14343.00
409.2450, 14879.00
410.4400, 16031.00
411.6340, 17455.00
412.8280, 19223.00
414.0220, 21417.00
415.2160, 24585.00
416.4100, 28172.00
417.6030, 31453.00
418.7970, 34572.00
419.9900, 35162.00
421.1830, 33655.00
422.3760, 31318.00
423.5690, 29850.00
424.7610, 29704.00
425.9540, 29216.00
427.1460, 29422.00
428.3380, 29320.00
429.5300, 28534.00
430.7220, 27376.00
431.9140, 25312.00
433.1050, 23156.00
434.2970, 20989.00
435.4880, 19186.00
436.6790, 17752.00
437.8700, 16851.00
439.0610, 16499.00
440.2510, 16526.00
441.4420, 17567.00
442.6320, 18547.00
443.8220, 19949.00
445.0120, 21162.00
446.2020, 21444.00
447.3910, 20621.00
448.5810, 18703.00
449.7700, 16775.00
450.9600, 14734.00
452.1490, 13394.00
453.3370, 12238.00
454.5260, 11713.00
455.7150, 11063.00
456.9030, 10715.00
458.0910, 10598.00
459.2800, 10837.00
460.4670, 10442.00
461.6550, 10439.00
462.8430, 10522.00
464.0300, 10535.00
465.2180, 10690.00
466.4050, 10858.00
467.5920, 11211.00
468.7790, 11434.00
469.9650, 11707.00
471.1520, 12218.00
472.3380, 12647.00
473.5250, 13018.00
474.7110, 13519.00
475.8970, 13782.00
477.0820, 14755.00
478.2680, 15925.00
479.4540, 17412.00
480.6390, 19361.00
481.8240, 21608.00
483.0090, 24233.00
484.1940, 26483.00
485.3780, 28227.00
486.5630, 29004.00
487.7470, 27879.00
488.9320, 25326.00
490.1160, 21402.00
491.3000, 18217.00
492.4830, 15807.00
493.6670, 14161.00
494.8500, 13207.00
496.0340, 12584.00
497.2170, 12301.00
498.4000, 12131.00
499.5820, 12342.00
500.7650, 12562.00
501.9480, 12825.00
503.1300, 13104.00
504.3120, 13573.00
505.4940, 13964.00
506.6760, 14242.00
507.8580, 14459.00
509.0390, 14708.00
510.2210, 14779.00
511.4020, 14680.00
512.5830, 14576.00
513.7640, 14037.00
514.9450, 13550.00
516.1250, 12922.00
517.3060, 12410.00
518.4860, 11632.00
519.6660, 11174.00
520.8460, 10797.00
522.0260, 10433.00
523.2060, 10108.00
524.3850, 9894.000
525.5650, 9839.000
526.7440, 9848.000
527.9230, 9780.000
529.1020, 9834.000
530.2810, 9731.000
531.4590, 9832.000
532.6380, 9917.000
533.8160, 10087.00
534.9940, 10250.00
536.1720, 10283.00
537.3500, 10317.14
538.5270, 10118.00
539.7050, 10191.00
540.8820, 10094.00
542.0590, 9895.000
543.2360, 10040.00
544.4130, 9923.000
545.5900, 9878.000
546.7660, 9901.000
547.9430, 9919.000
549.1190, 9993.000
550.2950, 9875.000
551.4710, 9880.000
552.6470, 9787.000
553.8220, 9857.000
554.9980, 10169.00
556.1730, 10325.00
557.3480, 10557.00
558.5230, 10883.00
559.6980, 11295.00
560.8730, 11529.00
562.0470, 12051.00
563.2220, 12377.00
564.3960, 12628.00
565.5700, 12875.00
566.7440, 13187.00
567.9170, 13396.00
569.0910, 14112.00
570.2640, 14932.00
571.4380, 15390.00
572.6110, 16129.00
573.7840, 16627.00
574.9570, 16770.00
576.1290, 16732.00
577.3020, 16223.00
578.4740, 15737.00
579.6460, 15148.00
580.8180, 14892.00
581.9900, 14722.20
583.1620, 14568.00
584.3330, 14844.00
585.5040, 15338.00
586.6760, 15823.00
587.8470, 16639.00
589.0180, 17094.00
590.1880, 17756.00
591.3590, 17615.00
592.5290, 17218.00
593.7000, 16273.00
594.8700, 15199.00
596.0400, 14049.00
597.2090, 13167.00
598.3790, 12407.00
599.5490, 11814.00
600.7180, 11589.00
601.8870, 11223.00
603.0560, 11159.00
604.2250, 11066.00
605.3940, 11123.00
606.5620, 11202.00
607.7300, 11707.00
608.8990, 11874.00
610.0670, 12303.00
611.2350, 12781.00
612.4020, 13242.00
613.5700, 13934.00
614.7370, 14503.00
615.9050, 14993.00
617.0720, 15228.00
618.2390, 15447.00
619.4060, 15488.00
620.5720, 15347.00
621.7390, 15059.00
622.9050, 14572.00
624.0710, 13591.00
625.2370, 12805.00
626.4030, 12070.00
627.5690, 11447.00
628.7340, 11032.00
629.9000, 10700.00
631.0650, 10529.00
632.2300, 10444.00
633.3950, 10422.00
634.5600, 10494.00
635.7240, 10581.00
636.8890, 10797.96
638.0530, 11126.00
639.2170, 11405.00
640.3810, 11764.00
641.5450, 12209.00
642.7080, 12476.00
643.8720, 12629.00
645.0350, 12704.09
646.1980, 12664.58
647.3610, 12493.00
648.5240, 12269.00
649.6870, 11914.00
650.8490, 11410.00
652.0120, 11150.00
653.1740, 10816.00
654.3360, 10503.00
655.4980, 10402.00
656.6600, 10159.00
657.8210, 10223.00
658.9830, 10061.00
660.1440, 10132.00
661.3050, 10165.00
662.4660, 10250.61
663.6270, 10460.00
664.7870, 10640.00
665.9480, 10915.00
667.1080, 11307.00
668.2680, 11902.00
669.4280, 12362.00
670.5880, 13034.00
671.7480, 13978.00
672.9070, 14739.00
674.0670, 15654.00
675.2260, 16531.00
676.3850, 17430.00
677.5440, 17785.00
678.7030, 17727.00
679.8610, 17510.00
681.0200, 16501.00
682.1780, 15376.00
683.3360, 14471.00
684.4940, 13697.94
685.6520, 12938.00
686.8090, 12512.00
687.9670, 12153.00
689.1240, 11985.00
690.2810, 11866.00
691.4380, 11868.00
692.5950, 11963.40
693.7520, 12133.97
694.9080, 12454.00
696.0650, 12812.00
697.2210, 13336.00
698.3770, 14006.00
699.5330, 14743.00
700.6880, 15758.00
701.8440, 17087.00
702.9990, 18647.00
704.1550, 20720.00
705.3100, 23450.00
706.4650, 26613.00
707.6190, 30338.00
708.7740, 34801.00
709.9290, 39401.00
711.0830, 44445.00
712.2370, 49130.00
713.3910, 52689.00
714.5450, 54996.00
715.6980, 54741.00
716.8520, 51715.00
718.0050, 47378.00
719.1580, 41956.00
720.3110, 36708.00
721.4640, 31513.00
722.6170, 27677.00
723.7700, 24460.00
724.9220, 21678.00
726.0740, 19585.00
727.2260, 18069.00
728.3780, 16987.00
729.5300, 15722.00
730.6810, 14912.00
731.8330, 14390.00
732.9840, 13763.00
734.1350, 13435.00
735.2860, 13029.00
736.4370, 12577.00
737.5880, 12296.00
738.7380, 12187.00
739.8880, 12124.00
741.0390, 11975.00
742.1890, 11863.40
743.3380, 11710.00
744.4880, 11620.00
745.6380, 11581.00
746.7870, 11521.00
747.9360, 11517.63
749.0850, 11566.00
750.2340, 11555.00
751.3830, 11681.00
752.5310, 11745.00
753.6800, 12012.00
754.8280, 12097.00
755.9760, 12487.00
757.1240, 12745.00
758.2720, 13199.00
759.4190, 13581.00
760.5670, 14182.00
761.7140, 14705.00
762.8610, 15324.00
764.0080, 15904.00
765.1550, 16734.00
766.3020, 17140.00
767.4480, 17392.00
768.5950, 17440.00
769.7410, 17126.00
770.8870, 16820.00
772.0330, 16216.00
773.1780, 15818.00
774.3240, 15000.00
775.4690, 14541.00
776.6140, 13913.00
777.7590, 13342.00
778.9040, 12763.00
780.0490, 12546.00
781.1940, 12264.00
782.3380, 11994.00
783.4820, 11790.00
784.6260, 11584.00
785.7700, 11389.00
786.9140, 11281.00
788.0580, 11222.00
789.2010, 10979.00
790.3450, 10997.00
791.4880, 10907.00
792.6310, 10770.00
793.7730, 10758.00
794.9160, 10810.00
796.0590, 10808.00
797.2010, 10803.00
798.3430, 10696.00
799.4850, 10715.00
800.6270, 10767.00
801.7690, 10768.00
802.9100, 10804.00
804.0520, 10876.00
805.1930, 10956.00
806.3340, 11277.00
807.4750, 11467.00
808.6160, 11734.00
809.7560, 11869.00
810.8970, 12138.00
812.0370, 12347.00
813.1770, 12669.00
814.3170, 12663.00
815.4570, 12613.00
816.5960, 12571.00
817.7360, 12421.00
818.8750, 12112.00
820.0140, 11873.00
821.1530, 11614.00
822.2920, 11465.00
823.4310, 11463.00
824.5690, 11179.00
825.7070, 11244.00
826.8460, 11188.00
827.9840, 11089.00
829.1220, 11244.00
830.2590, 11108.00
831.3970, 11109.00
832.5340, 11176.00
833.6710, 11220.00
834.8080, 11170.00
835.9450, 11377.00
837.0820, 11368.00
838.2190, 11580.00
839.3550, 11712.00
840.4910, 11812.00
841.6270, 11885.00
842.7630, 12131.00
843.8990, 12548.00
845.0350, 12670.00
846.1700, 12848.00
847.3060, 12927.00
848.4410, 13274.00
849.5760, 13603.00
850.7100, 13796.00
851.8450, 14052.00
852.9800, 14027.00
854.1140, 14184.00
855.2480, 14043.00
856.3820, 13967.00
857.5160, 14052.00
858.6500, 13894.00
859.7830, 13730.00
860.9170, 14000.00
862.0500, 13865.00
863.1830, 13959.00
864.3160, 13824.00
865.4480, 13909.00
866.5810, 14030.00
867.7130, 13904.00
868.8460, 13930.00
869.9780, 14049.00
871.1100, 14145.00
872.2410, 14047.00
873.3730, 14139.00
874.5050, 14269.00
875.6360, 14514.00
876.7670, 14430.00
877.8980, 14638.00
879.0290, 14819.00
880.1590, 15040.00
881.2900, 15106.00
882.4200, 15373.00
883.5500, 15583.00
884.6800, 15863.00
885.8100, 16029.00
886.9400, 16305.00
888.0690, 16812.00
889.1990, 17323.21
890.3280, 18152.00
891.4570, 18820.00
892.5860, 19749.00
893.7140, 20885.00
894.8430, 21834.00
895.9710, 23270.00
897.1000, 24569.00
898.2280, 26001.00
899.3560, 26899.00
900.4830, 28240.00
901.6110, 29214.00
902.7380, 30254.00
903.8660, 31074.00
904.9930, 32065.00
906.1200, 32763.00
907.2460, 33600.00
908.3730, 33987.00
909.5000, 34460.00
910.6260, 33665.00
911.7520, 32795.00
912.8780, 31838.00
914.0040, 30191.00
915.1290, 28458.00
916.2550, 26366.00
917.3800, 24347.00
918.5050, 22953.00
919.6300, 21509.00
920.7550, 20522.00
921.8800, 19433.00
923.0040, 18755.00
924.1290, 18186.00
925.2530, 18057.00
926.3770, 17781.00
927.5010, 17782.00
928.6250, 17735.00
929.7480, 17893.00
930.8720, 17990.00
931.9950, 17989.00
933.1180, 18153.00
934.2410, 18146.00
935.3640, 18126.00
936.4860, 18008.00
937.6090, 17967.00
938.7310, 18145.00
939.8530, 18281.00
940.9750, 18653.00
942.0970, 19103.00
943.2180, 19481.00
944.3400, 20152.00
945.4610, 20964.00
946.5820, 22263.00
947.7030, 23158.00
948.8240, 24627.00
949.9450, 26339.00
951.0650, 27734.00
952.1860, 29271.00
953.3060, 30763.00
954.4260, 32326.00
955.5460, 33970.00
956.6650, 35544.00
957.7850, 37434.00
958.9040, 39565.00
960.0230, 42354.00
961.1420, 45015.00
962.2610, 47794.00
963.3800, 50839.00
964.4990, 52523.00
965.6170, 53410.00
966.7350, 53018.00
967.8530, 51162.00
968.9710, 48871.00
970.0890, 45846.00
971.2070, 43504.00
972.3240, 41761.00
973.4410, 40646.00
974.5580, 40443.00
975.6750, 41052.00
976.7920, 42807.00
977.9090, 44296.00
979.0250, 45838.00
980.1410, 47053.00
981.2580, 47435.00
982.3740, 46971.00
983.4890, 45674.00
984.6050, 43889.00
985.7200, 41921.00
986.8360, 40613.00
987.9510, 39693.00
989.0660, 38966.00
990.1810, 39303.00
991.2950, 39046.00
992.4100, 39690.00
993.5240, 39409.00
994.6390, 39549.00
995.7530, 39329.00
996.8660, 39267.00
997.9800, 39559.00
999.0940, 39782.00
1000.207, 40243.00
1001.320, 41142.00
1002.433, 41469.00
1003.546, 41690.00
1004.659, 41901.00
1005.772, 41670.00
1006.884, 40724.00
1007.996, 38901.00
1009.108, 36527.00
1010.220, 34270.00
1011.332, 31489.00
1012.444, 28882.00
1013.555, 26720.00
1014.666, 24988.00
1015.777, 23109.00
1016.888, 21742.00
1017.999, 20556.00
1019.110, 19408.00
1020.220, 18922.00
1021.331, 18353.00
1022.441, 17986.00
1023.551, 17911.00
1024.661, 17701.00
1025.770, 17985.00
1026.880, 17937.00
1027.989, 17928.00
1029.098, 17922.00
1030.207, 17991.00
1031.316, 17729.00
1032.425, 17406.00
1033.533, 16645.00
1034.642, 16399.00
1035.750, 15957.00
1036.858, 15724.00
1037.966, 15383.15
1039.073, 15143.00
1040.181, 14857.00
1041.288, 14805.00
1042.396, 14791.00
1043.503, 14733.00
1044.610, 14769.00
1045.716, 14551.00
1046.823, 14750.00
1047.929, 14703.00
1049.036, 14904.00
1050.142, 14944.00
1051.248, 15086.00
1052.353, 15217.00
1053.459, 15358.00
1054.564, 15629.00
1055.670, 15624.00
1056.775, 15970.00
1057.880, 15905.00
1058.985, 15845.00
1060.089, 16216.00
1061.194, 15902.00
1062.298, 16007.00
1063.402, 15816.00
1064.506, 15611.00
1065.610, 15492.00
1066.713, 15175.00
1067.817, 14926.00
1068.920, 14781.00
1070.023, 14544.00
1071.126, 14431.00
1072.229, 14414.00
1073.332, 14406.00
1074.435, 14412.00
1075.537, 14530.00
1076.639, 14622.00
1077.741, 14809.00
1078.843, 15251.00
1079.945, 15565.00
1081.046, 15948.00
1082.148, 16412.00
1083.249, 16761.00
1084.350, 16942.00
1085.451, 16880.00
1086.551, 16957.00
1087.652, 16596.00
1088.752, 16106.00
1089.853, 15490.00
1090.953, 15293.00
1092.053, 14847.00
1093.152, 14489.00
1094.252, 14227.00
1095.351, 14269.00
1096.451, 14170.00
1097.550, 14189.00
1098.649, 14213.00
1099.748, 14265.54
1100.846, 14459.00
1101.945, 14527.00
1103.043, 14672.00
1104.141, 14947.00
1105.239, 15121.00
1106.337, 15260.00
1107.434, 15187.00
1108.532, 15366.00
1109.629, 15170.00
1110.726, 15040.00
1111.823, 14981.00
1112.920, 14752.00
1114.017, 14564.00
1115.113, 14269.00
1116.210, 14212.00
1117.306, 13993.00
1118.402, 13911.00
1119.498, 13613.00
1120.593, 13565.00
1121.689, 13627.00
1122.784, 13402.00
1123.879, 13322.00
1124.974, 13291.00
1126.069, 13156.00
1127.164, 13276.00
1128.259, 13234.00
1129.353, 13083.00
1130.447, 12976.00
1131.541, 12757.00
1132.635, 12848.00
1133.729, 12812.00
1134.822, 12885.00
1135.916, 12702.00
1137.009, 12505.00
1138.102, 12734.00
1139.195, 12772.00
1140.288, 12593.00
1141.380, 12672.00
1142.473, 12596.00
1143.565, 12662.00
1144.657, 12592.00
1145.749, 12559.00
1146.841, 12694.00
1147.932, 12628.00
1149.024, 12459.00
1150.115, 12582.00
1151.206, 12571.00
1152.297, 12453.00
1153.388, 12435.00
1154.479, 12533.00
1155.569, 12544.00
1156.659, 12521.00
1157.750, 12590.00
1158.839, 12403.00
1159.929, 12446.00
1161.019, 12617.00
1162.108, 12598.00
1163.198, 12363.00
1164.287, 12374.00
1165.376, 12469.00
1166.465, 12495.00
1167.553, 12442.00
1168.642, 12388.00
1169.730, 12455.00
1170.818, 12454.00
1171.906, 12379.00
1172.994, 12413.00
1174.082, 12471.00
1175.170, 12283.00
1176.257, 12290.00
1177.344, 12563.00
1178.431, 12409.00
1179.518, 12474.00
1180.605, 12464.00
1181.691, 12521.00
1182.778, 12434.83
1183.864, 12451.22
1184.950, 12459.29
1186.036, 12425.00
1187.122, 12468.00
1188.207, 12487.00
1189.292, 12467.00
1190.378, 12595.00
1191.463, 12644.00
1192.548, 12633.28
1193.632, 12588.00
1194.717, 12620.00
1195.801, 12518.00
1196.886, 12510.00
1197.970, 12455.00
1199.054, 12462.00
1200.137, 12556.00
1201.221, 12413.00
1202.305, 12596.00
1203.388, 12518.00
1204.471, 12387.00
1205.554, 12567.00
1206.637, 12699.00
1207.719, 12593.00
1208.802, 12489.00
1209.884, 12455.00
1210.966, 12542.00
1212.048, 12454.00
1213.130, 12675.00
1214.212, 12492.00
1215.293, 12610.00
1216.374, 12569.00
1217.456, 12566.00
1218.536, 12414.00
1219.617, 12569.00
1220.698, 12489.00
1221.778, 12617.00
1222.859, 12555.00
1223.939, 12513.00
1225.019, 12507.00
1226.099, 12450.00
1227.178, 12563.00
1228.258, 12459.00
1229.337, 12618.00
1230.417, 12604.00
1231.496, 12581.00
1232.574, 12595.00
1233.653, 12571.00
1234.732, 12604.00
1235.810, 12635.00
1236.888, 12628.99
1237.966, 12589.00
1239.044, 12649.00
1240.122, 12662.00
1241.199, 12684.00
1242.277, 12769.00
1243.354, 12632.00
1244.431, 12626.00
1245.508, 12789.00
1246.585, 12748.00
1247.661, 12509.00
1248.738, 12785.00
1249.814, 12685.00
1250.890, 12851.00
1251.966, 12773.00
1253.042, 12766.00
1254.117, 12786.00
1255.193, 12791.00
1256.268, 12804.00
1257.343, 12791.00
1258.418, 12706.00
1259.493, 12873.00
1260.567, 12590.00
1261.642, 12704.00
1262.716, 12733.00
1263.790, 13006.00
1264.864, 12924.30
1265.938, 13096.00
1267.011, 12927.00
1268.085, 12862.00
1269.158, 13011.00
1270.231, 12903.00
1271.304, 12916.00
1272.377, 13021.00
1273.450, 12787.00
1274.522, 12863.00
1275.594, 12936.00
1276.666, 12921.00
1277.738, 12959.84
1278.810, 13044.00
1279.882, 12976.00
1280.953, 13006.00
1282.025, 13047.00
1283.096, 12982.00
1284.167, 12906.00
1285.238, 12926.00
1286.308, 12971.00
1287.379, 12968.00
1288.449, 12872.00
1289.519, 13076.00
1290.589, 12952.00
1291.659, 13033.00
1292.729, 13121.00
1293.798, 13050.00
1294.868, 13128.42
1295.937, 13123.63
1297.006, 13168.00
1298.075, 13096.00
1299.143, 13104.00
1300.212, 13006.00
1301.280, 13019.00
1302.348, 12951.00
1303.416, 13048.00
1304.484, 13003.00
1305.552, 13042.00
1306.620, 12882.00
1307.687, 13231.00
1308.754, 13093.00
1309.821, 13076.00
1310.888, 13191.00
1311.955, 13073.00
1313.021, 13222.00
1314.088, 13095.00
1315.154, 12976.00
1316.220, 13257.00
1317.286, 13207.00
1318.352, 13214.00
1319.417, 13267.00
1320.483, 13214.00
1321.548, 13111.00
1322.613, 13239.00
1323.678, 13067.00
1324.743, 13326.00
1325.807, 13154.00
1326.872, 13221.00
1327.936, 13249.00
1329.000, 13206.00
1330.064, 13311.00
1331.128, 13284.00
1332.191, 13175.00
1333.255, 13324.00
1334.318, 13377.00
1335.381, 13443.00
1336.444, 13349.00
1337.507, 13390.00
1338.569, 13426.34
1339.632, 13418.00
1340.694, 13505.00
1341.756, 13520.00
1342.818, 13513.00
1343.880, 13361.00
1344.941, 13424.00
1346.003, 13537.00
1347.064, 13385.00
1348.125, 13605.00
1349.186, 13501.00
1350.247, 13498.00
1351.308, 13486.00
1352.368, 13502.00
1353.428, 13527.00
1354.489, 13531.00
1355.549, 13470.00
1356.608, 13799.00
1357.668, 13552.00
1358.727, 13703.00
1359.787, 13537.00
1360.846, 13724.00
1361.905, 13687.00
1362.964, 13626.00
1364.022, 13667.00
1365.081, 13669.72
1366.139, 13629.00
1367.197, 13759.00
1368.255, 13737.00
1369.313, 13793.98
1370.371, 13823.39
1371.428, 13782.00
1372.486, 13812.00
1373.543, 13804.00
1374.600, 13710.00
1375.657, 13775.00
1376.713, 13787.00
1377.770, 13785.00
1378.826, 13876.00
1379.882, 13782.00
1380.938, 13703.00
1381.994, 13667.00
1383.050, 13780.00
1384.106, 13783.00
1385.161, 13839.00
1386.216, 13822.59
1387.271, 13827.00
1388.326, 13779.00
1389.381, 13759.00
1390.435, 13799.00
1391.490, 13835.00
1392.544, 13931.00
1393.598, 13910.00
1394.652, 13703.00
1395.705, 13865.00
1396.759, 13724.00
1397.812, 13892.00
1398.866, 13891.00
1399.919, 13993.00
1400.972, 13951.00
1402.024, 13847.00
1403.077, 13778.00
1404.129, 13709.00
1405.181, 13756.44
1406.233, 13955.00
1407.285, 13892.00
1408.337, 13897.00
1409.389, 13933.00
1410.440, 13892.00
1411.491, 14119.00
1412.542, 14018.00
1413.593, 14137.00
1414.644, 13935.00
1415.695, 14256.00
1416.745, 14244.00
1417.795, 14058.00
1418.845, 14050.00
1419.895, 14055.00
1420.945, 14156.00
1421.995, 14161.00
1423.044, 14092.00
1424.093, 14157.00
1425.142, 14326.00
1426.191, 14132.00
1427.240, 14196.00
1428.289, 14280.00
1429.337, 14152.00
1430.385, 14242.00
1431.433, 14310.00
1432.481, 14159.00
1433.529, 14339.00
1434.577, 14350.00
1435.624, 14200.00
1436.672, 14396.00
1437.719, 14315.00
1438.766, 14296.00
1439.812, 14141.00
1440.859, 14263.00
1441.905, 14272.00
1442.952, 14474.00
1443.998, 14398.00
1445.044, 14455.00
1446.090, 14367.00
1447.135, 14292.00
1448.181, 14318.00
1449.226, 14310.00
1450.271, 14235.00
1451.316, 14284.00
1452.361, 14293.00
1453.405, 14279.00
1454.450, 14383.00
1455.494, 14463.00
1456.538, 14652.00
1457.582, 14496.00
1458.626, 14641.00
1459.670, 15018.00
1460.713, 14492.00
1461.757, 15357.00
1462.800, 14945.00
1463.843, 14406.00
1464.886, 14551.00
1465.928, 14465.00
1466.971, 14559.00
1468.013, 14410.00
1469.055, 14549.00
1470.097, 14560.00
1471.139, 14620.00
1472.181, 14541.00
1473.222, 14550.00
1474.263, 14656.00
1475.305, 14531.00
1476.346, 14575.00
1477.386, 14634.00
1478.427, 14619.00
1479.468, 14669.00
1480.508, 14515.00
1481.548, 14683.00
1482.588, 14569.00
1483.628, 14626.00
1484.668, 14638.00
1485.707, 14857.00
1486.747, 14697.00
1487.786, 14819.00
1488.825, 14769.00
1489.864, 14685.00
1490.902, 14677.00
1491.941, 14846.00
1492.979, 14768.00
1494.017, 14807.00
1495.055, 14937.00
1496.093, 14921.00
1497.131, 14824.00
1498.168, 14992.00
1499.206, 15014.00
1500.243, 14776.00
1501.280, 14890.00
1502.317, 15028.00
1503.354, 15049.00
1504.390, 14903.00
1505.426, 15047.00
1506.463, 14808.00
1507.499, 14935.00
1508.535, 14963.00
1509.570, 14966.00
1510.606, 14907.00
1511.641, 15052.00
1512.676, 14906.00
1513.711, 14913.00
1514.746, 14973.00
1515.781, 15127.00
1516.816, 15087.00
1517.850, 15100.00
1518.884, 15161.00
1519.918, 15235.00
1520.952, 15211.00
1521.986, 15273.00
1523.019, 15251.00
1524.053, 15177.00
1525.086, 15226.00
1526.119, 15194.00
1527.152, 15250.00
1528.185, 15192.00
1529.217, 15153.00
1530.250, 15400.00
1531.282, 15339.00
1532.314, 15317.00
1533.346, 15187.00
1534.377, 15337.00
1535.409, 15282.13
1536.440, 15335.73
1537.472, 15275.00
1538.503, 15430.00
1539.534, 15327.00
1540.564, 15310.00
1541.595, 15453.00
1542.625, 15434.00
1543.656, 15564.00
1544.686, 15444.00
1545.716, 15358.00
1546.745, 15450.00
1547.775, 15558.00
1548.804, 15412.00
1549.834, 15390.00
1550.863, 15471.00
1551.892, 15490.00
1552.920, 15408.00
1553.949, 15619.00
1554.977, 15770.00
1556.006, 15712.00
1557.034, 15600.00
1558.062, 15561.00
1559.089, 15572.00
1560.117, 15596.00
1561.144, 15548.00
1562.172, 15736.00
1563.199, 15573.00
1564.226, 15543.00
1565.252, 15572.00
1566.279, 15717.00
1567.305, 15760.00
1568.332, 15716.00
1569.358, 15812.00
1570.384, 15802.00
1571.409, 15651.00
1572.435, 15718.00
##END=



