##NAMES=Axinite-(Fe)
##RRUFFID=R060194
##IDEAL CHEMISTRY=Ca_4_Fe^2+^_2_Al_4_[B_2_Si_8_O_30_](OH)_2_
##LOCALITY=near Dalbandi, Baluchistan Province, Pakistan
##OWNER=RRUFF
##SOURCE=Herbert Obodda
##DESCRIPTION=Brown transparent wedge-shaped single crystal
##STATUS=The identification of this mineral has been confirmed by X-ray diffraction and chemical analysis
##URL=rruff.info/R060194
##MEASURED CHEMISTRY=Ca_2.00_(Fe^2+^_0.66_Mg_0.30_Mn_0.04_)Al_2.00_BSi_4.00_O_15_(OH)
##PIN_ID=L00599
##ORIENTATION=Laser parallel to (0 -1 -1). Fiducial mark perpendicular to laser is parallel to a [1 0 0]
53.91000, 880.0000
55.14900, 893.0000
56.38700, 884.0000
57.62600, 930.0000
58.86400, 909.0000
60.10300, 961.0000
61.34100, 984.0000
62.57900, 1020.000
63.81700, 1074.000
65.05400, 1120.000
66.29200, 1218.000
67.52900, 1344.000
68.76700, 1656.000
70.00400, 1812.362
71.24100, 2028.142
72.47700, 2275.000
73.71400, 2417.000
74.95100, 2610.000
76.18700, 2745.000
77.42300, 2757.000
78.65900, 2866.000
79.89500, 2877.000
81.13100, 3084.999
82.36700, 3306.000
83.60200, 3554.000
84.83700, 3899.000
86.07200, 4221.000
87.30800, 4410.000
88.54200, 4550.000
89.77700, 5096.000
91.01200, 5512.000
92.24600, 6325.000
93.48000, 7260.000
94.71400, 7807.000
95.94800, 8875.000
97.18200, 9807.000
98.41600, 11201.00
99.64900, 12528.00
100.8830, 14409.00
102.1160, 15428.00
103.3490, 16738.00
104.5820, 18912.00
105.8150, 21914.00
107.0470, 25462.00
108.2800, 29640.00
109.5120, 32110.00
110.7440, 29884.00
111.9760, 26499.00
113.2080, 23620.00
114.4400, 20589.00
115.6710, 17703.00
116.9030, 14777.00
118.1340, 12692.00
119.3650, 11108.00
120.5960, 9819.000
121.8270, 9188.000
123.0580, 8708.000
124.2880, 8511.000
125.5190, 8334.000
126.7490, 8030.000
127.9790, 8092.000
129.2090, 8002.000
130.4390, 8315.000
131.6680, 8645.000
132.8980, 9127.000
134.1270, 9496.000
135.3560, 10222.00
136.5850, 10978.00
137.8140, 12117.00
139.0430, 13229.00
140.2710, 14420.00
141.5000, 14993.00
142.7280, 15327.00
143.9560, 15057.00
145.1840, 14810.00
146.4120, 14184.00
147.6390, 14341.00
148.8670, 14517.00
150.0940, 14767.00
151.3210, 15007.00
152.5490, 15151.00
153.7750, 14656.00
155.0020, 14418.00
156.2290, 14079.00
157.4550, 13846.00
158.6810, 13738.00
159.9080, 13711.00
161.1340, 14019.00
162.3590, 14572.00
163.5850, 14975.00
164.8110, 15749.00
166.0360, 17045.00
167.2610, 18253.00
168.4860, 19809.00
169.7110, 21072.00
170.9360, 22203.00
172.1610, 22384.00
173.3850, 22153.00
174.6100, 20985.00
175.8340, 19401.00
177.0580, 17584.00
178.2820, 15420.00
179.5050, 13700.00
180.7290, 12286.00
181.9520, 11222.00
183.1760, 10437.00
184.3990, 9963.000
185.6220, 9699.000
186.8450, 9715.512
188.0670, 9897.000
189.2900, 10526.00
190.5120, 11220.00
191.7340, 12284.00
192.9560, 13418.00
194.1780, 14311.00
195.4000, 14897.00
196.6220, 15347.00
197.8430, 15815.00
199.0640, 16033.00
200.2860, 16581.00
201.5070, 17733.00
202.7270, 18801.00
203.9480, 20453.00
205.1690, 21601.00
206.3890, 23202.00
207.6090, 24232.00
208.8290, 24993.00
210.0490, 25283.00
211.2690, 25000.00
212.4890, 24621.00
213.7080, 23637.00
214.9280, 22717.00
216.1470, 21344.00
217.3660, 19844.00
218.5850, 18529.00
219.8030, 17086.00
221.0220, 15629.00
222.2400, 14702.00
223.4590, 13637.00
224.6770, 12486.00
225.8950, 11716.00
227.1120, 11122.00
228.3300, 10588.00
229.5480, 10164.08
230.7650, 9715.000
231.9820, 9583.000
233.1990, 9367.000
234.4160, 9218.000
235.6330, 9321.000
236.8490, 9347.000
238.0660, 9637.000
239.2820, 9946.000
240.4980, 10318.00
241.7140, 10567.00
242.9300, 10881.00
244.1460, 11269.00
245.3610, 11666.00
246.5770, 12247.00
247.7920, 12659.00
249.0070, 13153.00
250.2220, 13806.00
251.4370, 14342.00
252.6510, 15048.00
253.8660, 15768.00
255.0800, 16343.00
256.2940, 16672.00
257.5080, 17139.00
258.7220, 18026.00
259.9360, 19213.00
261.1490, 19255.00
262.3630, 19141.00
263.5760, 19727.00
264.7890, 20995.00
266.0020, 22620.00
267.2150, 24249.00
268.4270, 26373.00
269.6400, 28038.00
270.8520, 29555.00
272.0640, 30921.00
273.2760, 31840.00
274.4880, 32457.00
275.7000, 32144.00
276.9120, 31208.00
278.1230, 29706.00
279.3340, 27945.00
280.5450, 26060.00
281.7560, 24180.00
282.9670, 22414.00
284.1780, 21081.00
285.3880, 20179.00
286.5980, 19497.00
287.8090, 19367.00
289.0190, 19571.00
290.2290, 19996.00
291.4380, 20661.00
292.6480, 21623.00
293.8570, 22604.00
295.0670, 23979.00
296.2760, 25005.00
297.4850, 26431.00
298.6930, 27357.00
299.9020, 28443.00
301.1110, 29098.00
302.3190, 29577.00
303.5270, 30000.00
304.7350, 30556.00
305.9430, 30863.00
307.1510, 30927.00
308.3580, 30701.00
309.5660, 30131.00
310.7730, 28994.00
311.9800, 27822.00
313.1870, 26787.00
314.3940, 25859.00
315.6010, 25500.00
316.8070, 25757.00
318.0130, 25796.00
319.2200, 25661.00
320.4260, 25349.00
321.6310, 24346.00
322.8370, 22676.00
324.0430, 21035.00
325.2480, 19453.00
326.4540, 17830.00
327.6590, 16780.00
328.8640, 16064.00
330.0680, 15670.00
331.2730, 15330.00
332.4780, 15098.00
333.6820, 14836.00
334.8860, 14875.00
336.0900, 15362.00
337.2940, 15944.00
338.4980, 17014.72
339.7010, 17922.00
340.9050, 19927.00
342.1080, 21716.00
343.3110, 23755.00
344.5140, 25619.00
345.7170, 26412.00
346.9200, 26950.00
348.1220, 26966.00
349.3240, 26536.00
350.5270, 26307.00
351.7290, 25573.00
352.9310, 24847.00
354.1320, 23715.00
355.3340, 21992.00
356.5350, 20153.00
357.7370, 18067.00
358.9380, 16019.00
360.1390, 14144.00
361.3400, 12747.00
362.5400, 11828.00
363.7410, 10826.00
364.9410, 10272.00
366.1410, 9995.000
367.3410, 9721.000
368.5410, 9465.000
369.7410, 9354.000
370.9400, 9297.000
372.1400, 9264.000
373.3390, 9300.156
374.5380, 9373.000
375.7370, 9482.000
376.9360, 9547.000
378.1350, 9706.000
379.3330, 10156.00
380.5310, 10581.00
381.7300, 11105.00
382.9280, 11844.00
384.1260, 12735.00
385.3230, 14073.00
386.5210, 15442.00
387.7180, 16979.00
388.9160, 18521.00
390.1130, 19431.00
391.3100, 20350.00
392.5060, 20263.00
393.7030, 19595.00
394.9000, 18251.00
396.0960, 17075.00
397.2920, 15902.00
398.4880, 14796.00
399.6840, 13684.00
400.8800, 12864.00
402.0750, 12337.00
403.2710, 12017.00
404.4660, 11851.35
405.6610, 11913.00
406.8560, 12217.00
408.0510, 12793.00
409.2450, 13570.00
410.4400, 14648.00
411.6340, 16127.00
412.8280, 17761.00
414.0220, 20296.00
415.2160, 23239.00
416.4100, 26279.00
417.6030, 29021.00
418.7970, 29645.00
419.9900, 29682.00
421.1830, 28650.00
422.3760, 27841.00
423.5690, 27152.00
424.7610, 26509.00
425.9540, 27228.00
427.1460, 28127.00
428.3380, 28677.00
429.5300, 29502.00
430.7220, 29463.00
431.9140, 28385.00
433.1050, 26949.00
434.2970, 25277.00
435.4880, 22719.00
436.6790, 20505.00
437.8700, 18450.00
439.0610, 17232.00
440.2510, 16423.00
441.4420, 16160.00
442.6320, 16419.00
443.8220, 16858.00
445.0120, 16912.00
446.2020, 16818.00
447.3910, 16216.00
448.5810, 15062.00
449.7700, 13776.00
450.9600, 12435.00
452.1490, 11333.00
453.3370, 10552.00
454.5260, 10003.00
455.7150, 9575.000
456.9030, 9120.000
458.0910, 8947.000
459.2800, 8812.000
460.4670, 8704.000
461.6550, 8587.000
462.8430, 8530.000
464.0300, 8519.000
465.2180, 8442.000
466.4050, 8521.000
467.5920, 8506.000
468.7790, 8655.000
469.9650, 8781.000
471.1520, 9030.000
472.3380, 9299.000
473.5250, 9570.000
474.7110, 10182.00
475.8970, 10684.00
477.0820, 11440.00
478.2680, 12330.00
479.4540, 13440.00
480.6390, 14863.00
481.8240, 16246.00
483.0090, 18054.00
484.1940, 19534.00
485.3780, 20506.00
486.5630, 20378.00
487.7470, 19391.00
488.9320, 17726.00
490.1160, 15991.00
491.3000, 14366.00
492.4830, 12849.00
493.6670, 11900.00
494.8500, 11210.00
496.0340, 10913.00
497.2170, 10803.00
498.4000, 10925.00
499.5820, 11237.00
500.7650, 11465.00
501.9480, 12030.00
503.1300, 12405.00
504.3120, 13219.00
505.4940, 13731.00
506.6760, 14216.00
507.8580, 14849.00
509.0390, 15368.00
510.2210, 15730.00
511.4020, 15807.00
512.5830, 15885.00
513.7640, 15284.00
514.9450, 14711.00
516.1250, 13908.00
517.3060, 13190.00
518.4860, 12351.00
519.6660, 11673.00
520.8460, 10956.00
522.0260, 10461.00
523.2060, 10145.00
524.3850, 9753.000
525.5650, 9584.000
526.7440, 9461.000
527.9230, 9304.000
529.1020, 9331.000
530.2810, 9419.000
531.4590, 9478.000
532.6380, 9705.000
533.8160, 9795.000
534.9940, 10161.00
536.1720, 10215.00
537.3500, 10526.00
538.5270, 10769.00
539.7050, 10939.00
540.8820, 11349.00
542.0590, 11823.00
543.2360, 12221.00
544.4130, 12505.00
545.5900, 12785.00
546.7660, 12876.73
547.9430, 12976.00
549.1190, 12796.00
550.2950, 12644.00
551.4710, 12296.00
552.6470, 11971.00
553.8220, 11597.00
554.9980, 11743.00
556.1730, 11565.00
557.3480, 11948.00
558.5230, 12285.00
559.6980, 12609.00
560.8730, 12973.00
562.0470, 13094.00
563.2220, 13248.00
564.3960, 13206.00
565.5700, 13256.00
566.7440, 13271.00
567.9170, 13359.00
569.0910, 13506.00
570.2640, 13881.00
571.4380, 14279.00
572.6110, 15004.00
573.7840, 15168.00
574.9570, 15450.00
576.1290, 15471.00
577.3020, 15464.00
578.4740, 15130.00
579.6460, 15162.00
580.8180, 15017.00
581.9900, 14968.00
583.1620, 15103.00
584.3330, 16002.00
585.5040, 16594.00
586.6760, 17385.00
587.8470, 18410.00
589.0180, 18959.00
590.1880, 19303.00
591.3590, 19083.00
592.5290, 18343.00
593.7000, 17311.00
594.8700, 16038.00
596.0400, 14772.00
597.2090, 13442.00
598.3790, 12516.00
599.5490, 11795.00
600.7180, 11128.00
601.8870, 10728.00
603.0560, 10382.00
604.2250, 10221.00
605.3940, 10091.00
606.5620, 10136.00
607.7300, 10109.00
608.8990, 10209.00
610.0670, 10341.00
611.2350, 10456.00
612.4020, 10635.00
613.5700, 10829.00
614.7370, 10979.00
615.9050, 11058.00
617.0720, 11280.00
618.2390, 11217.00
619.4060, 11206.67
620.5720, 11249.00
621.7390, 10969.00
622.9050, 10730.00
624.0710, 10508.00
625.2370, 10068.00
626.4030, 9894.000
627.5690, 9531.000
628.7340, 9355.000
629.9000, 9288.000
631.0650, 9146.000
632.2300, 9303.000
633.3950, 9360.000
634.5600, 9408.000
635.7240, 9630.000
636.8890, 9859.000
638.0530, 10147.15
639.2170, 10684.00
640.3810, 10864.00
641.5450, 11316.00
642.7080, 11688.00
643.8720, 11894.00
645.0350, 11874.00
646.1980, 11865.00
647.3610, 11640.00
648.5240, 11551.00
649.6870, 10962.00
650.8490, 10662.00
652.0120, 10344.00
653.1740, 9897.000
654.3360, 9814.000
655.4980, 9559.000
656.6600, 9428.000
657.8210, 9444.000
658.9830, 9234.000
660.1440, 9398.000
661.3050, 9462.000
662.4660, 9565.000
663.6270, 9636.000
664.7870, 10034.00
665.9480, 10303.00
667.1080, 10653.00
668.2680, 11167.00
669.4280, 11875.00
670.5880, 12669.00
671.7480, 13572.00
672.9070, 14573.00
674.0670, 15614.00
675.2260, 16576.00
676.3850, 17280.00
677.5440, 17656.00
678.7030, 17512.00
679.8610, 17227.00
681.0200, 16279.00
682.1780, 15653.00
683.3360, 14325.00
684.4940, 13318.00
685.6520, 12628.00
686.8090, 11979.00
687.9670, 11729.00
689.1240, 11419.00
690.2810, 11244.00
691.4380, 11263.00
692.5950, 11338.00
693.7520, 11574.00
694.9080, 11819.00
696.0650, 12209.00
697.2210, 12868.00
698.3770, 13479.00
699.5330, 14367.00
700.6880, 15483.00
701.8440, 17082.00
702.9990, 19010.00
704.1550, 21456.00
705.3100, 24528.00
706.4650, 28335.00
707.6190, 32514.00
708.7740, 37497.00
709.9290, 42784.00
711.0830, 48034.00
712.2370, 52844.00
713.3910, 57075.00
714.5450, 58068.00
715.6980, 57634.00
716.8520, 54574.00
718.0050, 50372.00
719.1580, 44820.00
720.3110, 39202.00
721.4640, 33849.00
722.6170, 29295.00
723.7700, 25688.00
724.9220, 22890.00
726.0740, 20283.00
727.2260, 18452.00
728.3780, 17175.00
729.5300, 15912.00
730.6810, 14943.00
731.8330, 14267.00
732.9840, 13433.00
734.1350, 13005.00
735.2860, 12674.00
736.4370, 12192.00
737.5880, 12054.00
738.7380, 11642.00
739.8880, 11412.00
741.0390, 11351.00
742.1890, 11162.00
743.3380, 11005.00
744.4880, 11007.00
745.6380, 10946.00
746.7870, 10881.00
747.9360, 10879.00
749.0850, 10913.00
750.2340, 10966.00
751.3830, 10950.00
752.5310, 11163.00
753.6800, 11217.00
754.8280, 11620.00
755.9760, 11917.00
757.1240, 12392.00
758.2720, 12874.28
759.4190, 13262.00
760.5670, 13972.00
761.7140, 14689.00
762.8610, 15307.00
764.0080, 16150.00
765.1550, 16840.00
766.3020, 17421.00
767.4480, 17785.00
768.5950, 17794.00
769.7410, 17554.00
770.8870, 17280.00
772.0330, 16691.00
773.1780, 15969.00
774.3240, 15153.00
775.4690, 14551.00
776.6140, 13602.00
777.7590, 12966.00
778.9040, 12575.00
780.0490, 12017.00
781.1940, 11603.00
782.3380, 11542.00
783.4820, 11232.00
784.6260, 10868.00
785.7700, 10799.00
786.9140, 10426.00
788.0580, 10297.00
789.2010, 10276.00
790.3450, 10193.00
791.4880, 10050.00
792.6310, 9986.000
793.7730, 9936.000
794.9160, 9806.000
796.0590, 9820.617
797.2010, 9866.000
798.3430, 9818.000
799.4850, 9813.000
800.6270, 9815.000
801.7690, 9881.000
802.9100, 9940.705
804.0520, 10017.64
805.1930, 10153.00
806.3340, 10254.00
807.4750, 10417.00
808.6160, 10630.00
809.7560, 10774.00
810.8970, 10928.00
812.0370, 11188.00
813.1770, 11239.00
814.3170, 11412.00
815.4570, 11223.00
816.5960, 10823.00
817.7360, 10764.00
818.8750, 10445.00
820.0140, 10324.00
821.1530, 10166.00
822.2920, 9952.000
823.4310, 9828.000
824.5690, 9690.000
825.7070, 9708.000
826.8460, 9598.000
827.9840, 9698.000
829.1220, 9553.000
830.2590, 9662.000
831.3970, 9665.000
832.5340, 9653.000
833.6710, 9625.000
834.8080, 9716.000
835.9450, 9920.000
837.0820, 9956.000
838.2190, 9987.000
839.3550, 10013.00
840.4910, 10124.00
841.6270, 10306.00
842.7630, 10342.00
843.8990, 10412.00
845.0350, 10446.00
846.1700, 10713.00
847.3060, 10952.00
848.4410, 11026.00
849.5760, 11052.00
850.7100, 11152.00
851.8450, 11407.00
852.9800, 11529.00
854.1140, 11536.00
855.2480, 11524.00
856.3820, 11624.00
857.5160, 11564.00
858.6500, 11546.00
859.7830, 11545.00
860.9170, 11581.14
862.0500, 11619.16
863.1830, 11704.00
864.3160, 11726.00
865.4480, 11776.00
866.5810, 11790.00
867.7130, 11859.00
868.8460, 11835.00
869.9780, 11857.00
871.1100, 11767.00
872.2410, 11921.00
873.3730, 11809.00
874.5050, 11986.00
875.6360, 12055.00
876.7670, 12039.00
877.8980, 12225.00
879.0290, 12319.00
880.1590, 12376.00
881.2900, 12566.51
882.4200, 12625.00
883.5500, 12850.00
884.6800, 13014.00
885.8100, 13085.00
886.9400, 13435.00
888.0690, 13766.00
889.1990, 14182.00
890.3280, 14750.00
891.4570, 15323.00
892.5860, 15948.00
893.7140, 16665.00
894.8430, 17300.00
895.9710, 18432.00
897.1000, 19057.00
898.2280, 19875.00
899.3560, 20576.00
900.4830, 20736.00
901.6110, 20838.00
902.7380, 21252.00
903.8660, 21295.00
904.9930, 21666.00
906.1200, 21725.00
907.2460, 21919.00
908.3730, 22016.00
909.5000, 22084.00
910.6260, 22070.00
911.7520, 21548.00
912.8780, 20974.00
914.0040, 20285.00
915.1290, 19157.00
916.2550, 18144.00
917.3800, 17200.00
918.5050, 16417.00
919.6300, 15717.00
920.7550, 15201.83
921.8800, 14765.00
923.0040, 14560.00
924.1290, 14466.00
925.2530, 14496.00
926.3770, 14473.00
927.5010, 14646.00
928.6250, 14749.00
929.7480, 14996.00
930.8720, 15271.00
931.9950, 15447.00
933.1180, 15460.00
934.2410, 15361.00
935.3640, 15163.00
936.4860, 14881.00
937.6090, 14686.00
938.7310, 14642.00
939.8530, 14451.00
940.9750, 14504.00
942.0970, 14818.00
943.2180, 14966.00
944.3400, 15105.00
945.4610, 15744.00
946.5820, 16046.00
947.7030, 16705.00
948.8240, 17277.00
949.9450, 18120.00
951.0650, 19028.00
952.1860, 19870.00
953.3060, 20753.00
954.4260, 21808.00
955.5460, 23371.00
956.6650, 24656.00
957.7850, 26171.00
958.9040, 27909.00
960.0230, 30082.00
961.1420, 32450.00
962.2610, 34527.00
963.3800, 36636.00
964.4990, 38079.00
965.6170, 38959.00
966.7350, 38925.00
967.8530, 37670.00
968.9710, 36192.00
970.0890, 34826.00
971.2070, 33665.00
972.3240, 33016.00
973.4410, 32922.00
974.5580, 33651.00
975.6750, 34790.00
976.7920, 36254.00
977.9090, 37963.00
979.0250, 39643.00
980.1410, 40544.00
981.2580, 40861.00
982.3740, 40776.00
983.4890, 39331.00
984.6050, 37918.00
985.7200, 36144.00
986.8360, 34580.00
987.9510, 33723.00
989.0660, 32681.00
990.1810, 32205.00
991.2950, 31819.00
992.4100, 32127.00
993.5240, 32413.00
994.6390, 32620.00
995.7530, 32648.00
996.8660, 33179.00
997.9800, 33347.00
999.0940, 34181.00
1000.207, 34891.00
1001.320, 35474.00
1002.433, 36167.00
1003.546, 36605.00
1004.659, 36896.00
1005.772, 36315.00
1006.884, 35413.00
1007.996, 34018.00
1009.108, 31842.00
1010.220, 29791.00
1011.332, 27276.00
1012.444, 24977.00
1013.555, 22937.00
1014.666, 21256.00
1015.777, 19749.27
1016.888, 18588.00
1017.999, 17598.00
1019.110, 16830.00
1020.220, 16411.00
1021.331, 15991.00
1022.441, 15721.00
1023.551, 15799.00
1024.661, 15766.00
1025.770, 16005.00
1026.880, 16300.00
1027.989, 16479.00
1029.098, 16506.00
1030.207, 16376.00
1031.316, 16169.00
1032.425, 15778.00
1033.533, 15369.00
1034.642, 14821.00
1035.750, 14538.00
1036.858, 14403.00
1037.966, 14102.00
1039.073, 14038.00
1040.181, 13852.00
1041.288, 13919.00
1042.396, 13781.00
1043.503, 13623.00
1044.610, 13835.00
1045.716, 13759.00
1046.823, 13703.00
1047.929, 13803.00
1049.036, 13859.00
1050.142, 14055.00
1051.248, 14285.00
1052.353, 14356.00
1053.459, 14655.00
1054.564, 14975.00
1055.670, 15123.00
1056.775, 15083.00
1057.880, 15344.00
1058.985, 15276.00
1060.089, 14928.00
1061.194, 14821.00
1062.298, 14715.00
1063.402, 14430.00
1064.506, 14096.00
1065.610, 13736.00
1066.713, 13475.00
1067.817, 13398.00
1068.920, 13030.00
1070.023, 12842.00
1071.126, 12642.00
1072.229, 12757.00
1073.332, 12694.00
1074.435, 12928.00
1075.537, 13031.00
1076.639, 13517.00
1077.741, 13933.00
1078.843, 14498.00
1079.945, 15214.00
1081.046, 15814.00
1082.148, 16522.00
1083.249, 17322.00
1084.350, 17664.00
1085.451, 17814.00
1086.551, 17441.00
1087.652, 16957.00
1088.752, 16297.00
1089.853, 15626.00
1090.953, 14861.00
1092.053, 14063.00
1093.152, 13747.00
1094.252, 13370.00
1095.351, 12950.00
1096.451, 12743.00
1097.550, 12582.00
1098.649, 12345.00
1099.748, 12327.00
1100.846, 12416.00
1101.945, 12546.00
1103.043, 12529.00
1104.141, 12522.00
1105.239, 12581.00
1106.337, 12704.00
1107.434, 12539.00
1108.532, 12524.00
1109.629, 12445.00
1110.726, 12273.00
1111.823, 12086.00
1112.920, 11923.00
1114.017, 11806.00
1115.113, 11491.00
1116.210, 11499.00
1117.306, 11374.00
1118.402, 11165.00
1119.498, 11422.00
1120.593, 11283.00
1121.689, 11170.00
1122.784, 11095.00
1123.879, 11132.00
1124.974, 11000.00
1126.069, 10888.00
1127.164, 10671.00
1128.259, 10772.00
1129.353, 10635.00
1130.447, 10500.00
1131.541, 10544.00
1132.635, 10402.00
1133.729, 10474.00
1134.822, 10366.00
1135.916, 10387.00
1137.009, 10433.00
1138.102, 10268.00
1139.195, 10293.00
1140.288, 10356.00
1141.380, 10245.00
1142.473, 10144.00
1143.565, 10138.00
1144.657, 10211.00
1145.749, 10316.00
1146.841, 10306.56
1147.932, 10323.19
1149.024, 10321.00
1150.115, 10259.00
1151.206, 10212.00
1152.297, 10153.00
1153.388, 10090.00
1154.479, 10102.22
1155.569, 10080.00
1156.659, 10119.00
1157.750, 10042.00
1158.839, 10011.00
1159.929, 9990.000
1161.019, 10009.00
1162.108, 10019.00
1163.198, 9989.000
1164.287, 10025.49
1165.376, 10121.00
1166.465, 10050.43
1167.553, 10079.00
1168.642, 10051.00
1169.730, 9997.000
1170.818, 9963.000
1171.906, 10025.00
1172.994, 9960.000
1174.082, 10084.00
1175.170, 10026.50
1176.257, 9934.000
1177.344, 9965.000
1178.431, 9930.000
1179.518, 9891.000
1180.605, 9861.000
1181.691, 9988.000
1182.778, 9895.000
1183.864, 9923.000
1184.950, 9933.000
1186.036, 9903.000
1187.122, 9917.000
1188.207, 9914.000
1189.292, 9890.000
1190.378, 9976.000
1191.463, 9965.557
1192.548, 9876.000
1193.632, 10010.00
1194.717, 9971.000
1195.801, 9976.000
1196.886, 9884.000
1197.970, 10026.00
1199.054, 9920.000
1200.137, 9909.000
1201.221, 9990.000
1202.305, 9811.000
1203.388, 9897.000
1204.471, 9989.000
1205.554, 9862.000
1206.637, 9877.000
1207.719, 9785.000
1208.802, 9718.000
1209.884, 9802.000
1210.966, 9847.000
1212.048, 9842.000
1213.130, 9832.000
1214.212, 9782.000
1215.293, 9896.000
1216.374, 9780.000
1217.456, 9760.000
1218.536, 9874.000
1219.617, 9911.000
1220.698, 9810.000
1221.778, 9943.000
1222.859, 9775.000
1223.939, 9842.000
1225.019, 9843.000
1226.099, 9819.000
1227.178, 9790.000
1228.258, 9813.000
1229.337, 9833.000
1230.417, 9847.000
1231.496, 9774.000
1232.574, 9732.000
1233.653, 9780.000
1234.732, 9883.000
1235.810, 9793.000
1236.888, 9794.000
1237.966, 9838.000
1239.044, 9797.000
1240.122, 9937.000
1241.199, 9857.000
1242.277, 9942.000
1243.354, 9877.000
1244.431, 9874.000
1245.508, 9800.000
1246.585, 9900.000
1247.661, 9839.411
1248.738, 9851.000
1249.814, 9812.000
1250.890, 9884.000
1251.966, 9897.000
1253.042, 9938.000
1254.117, 9894.000
1255.193, 9886.000
1256.268, 9879.944
1257.343, 9862.758
1258.418, 9859.000
1259.493, 9839.000
1260.567, 9853.000
1261.642, 9816.000
1262.716, 9872.000
1263.790, 9873.000
1264.864, 9813.000
1265.938, 9891.000
1267.011, 9823.000
1268.085, 9872.000
1269.158, 9820.000
1270.231, 9843.000
1271.304, 9847.000
1272.377, 9936.000
1273.450, 9853.000
1274.522, 10000.00
1275.594, 9925.000
1276.666, 9926.000
1277.738, 9833.000
1278.810, 10008.00
1279.882, 10027.00
1280.953, 10027.00
1282.025, 10045.00
1283.096, 9981.000
1284.167, 10004.00
1285.238, 9925.000
1286.308, 9881.000
1287.379, 9928.000
1288.449, 9993.000
1289.519, 9988.000
1290.589, 10043.00
1291.659, 10033.66
1292.729, 10020.28
1293.798, 9993.000
1294.868, 9961.000
1295.937, 9899.000
1297.006, 9850.000
1298.075, 9878.000
1299.143, 9915.000
1300.212, 9877.000
1301.280, 9864.000
1302.348, 9782.000
1303.416, 9940.000
1304.484, 9938.000
1305.552, 9908.000
1306.620, 9840.000
1307.687, 9796.000
1308.754, 9932.000
1309.821, 9816.000
1310.888, 9886.000
1311.955, 9826.000
1313.021, 9804.000
1314.088, 9785.000
1315.154, 9778.609
1316.220, 9813.401
1317.286, 9801.000
1318.352, 9893.000
1319.417, 9919.000
1320.483, 9925.000
1321.548, 9995.000
1322.613, 9979.232
1323.678, 9968.000
1324.743, 9965.000
1325.807, 10001.00
1326.872, 9973.000
1327.936, 9993.353
1329.000, 10033.81
1330.064, 10023.00
1331.128, 10062.00
1332.191, 10110.00
1333.255, 9989.000
1334.318, 10134.00
1335.381, 9996.000
1336.444, 10091.00
1337.507, 10218.00
1338.569, 10074.00
1339.632, 10021.00
1340.694, 10060.00
1341.756, 10045.00
1342.818, 10144.00
1343.880, 10161.00
1344.941, 10076.00
1346.003, 10038.00
1347.064, 10055.00
1348.125, 10106.00
1349.186, 10004.00
1350.247, 10122.00
1351.308, 10093.00
1352.368, 10187.00
1353.428, 10163.00
1354.489, 10100.00
1355.549, 10125.00
1356.608, 10246.00
1357.668, 10291.00
1358.727, 10259.00
1359.787, 10184.00
1360.846, 10257.00
1361.905, 10134.00
1362.964, 10239.00
1364.022, 10177.00
1365.081, 10181.00
1366.139, 10257.00
1367.197, 10223.00
1368.255, 10186.00
1369.313, 10189.72
1370.371, 10184.58
1371.428, 10156.00
1372.486, 10182.00
1373.543, 10223.00
1374.600, 10163.00
1375.657, 10224.00
1376.713, 10188.00
1377.770, 10039.00
1378.826, 10246.00
1379.882, 10234.00
1380.938, 10326.00
1381.994, 10193.00
1383.050, 10261.00
1384.106, 10304.00
1385.161, 10191.00
1386.216, 10304.00
1387.271, 10340.00
1388.326, 10218.00
1389.381, 10228.00
1390.435, 10242.00
1391.490, 10190.00
1392.544, 10176.00
1393.598, 10193.00
1394.652, 10275.00
1395.705, 10198.00
1396.759, 10252.00
1397.812, 10230.00
1398.866, 10098.00
1399.919, 10292.00
1400.972, 10178.00
1402.024, 10279.00
1403.077, 10286.00
1404.129, 10272.00
1405.181, 10264.00
1406.233, 10258.58
1407.285, 10434.00
1408.337, 10283.00
1409.389, 10292.00
1410.440, 10397.00
1411.491, 10221.00
1412.542, 10338.00
1413.593, 10316.00
1414.644, 10322.00
1415.695, 10375.00
1416.745, 10430.00
1417.795, 10334.00
1418.845, 10399.00
1419.895, 10404.00
1420.945, 10471.00
1421.995, 10392.00
1423.044, 10404.00
1424.093, 10322.00
1425.142, 10406.00
1426.191, 10394.00
1427.240, 10506.00
1428.289, 10509.00
1429.337, 10365.00
1430.385, 10446.00
1431.433, 10449.00
1432.481, 10543.00
1433.529, 10501.31
1434.577, 10398.00
1435.624, 10453.00
1436.672, 10386.00
1437.719, 10426.00
1438.766, 10445.03
1439.812, 10409.00
1440.859, 10509.00
1441.905, 10536.00
1442.952, 10581.25
1443.998, 10528.00
1445.044, 10565.00
1446.090, 10561.00
1447.135, 10464.00
1448.181, 10508.00
1449.226, 10341.00
1450.271, 10503.00
1451.316, 10566.00
1452.361, 10467.00
1453.405, 10564.00
1454.450, 10465.00
1455.494, 10575.00
1456.538, 10590.00
1457.582, 10547.00
1458.626, 10605.00
1459.670, 10575.00
1460.713, 10652.00
1461.757, 10525.00
1462.800, 10466.00
1463.843, 10553.00
1464.886, 10467.00
1465.928, 10483.00
1466.971, 10691.00
1468.013, 10507.00
1469.055, 10431.00
1470.097, 10579.00
1471.139, 10576.00
1472.181, 10496.00
1473.222, 10577.00
1474.263, 10640.00
1475.305, 10580.00
1476.346, 10614.30
1477.386, 10667.00
1478.427, 10579.00
1479.468, 10605.00
1480.508, 10605.00
1481.548, 10640.00
1482.588, 10596.00
1483.628, 10658.00
1484.668, 10487.00
1485.707, 10656.00
1486.747, 10564.00
1487.786, 10555.00
1488.825, 10576.00
1489.864, 10634.00
1490.902, 10617.00
1491.941, 10617.00
1492.979, 10565.00
1494.017, 10614.00
1495.055, 10659.00
1496.093, 10736.00
1497.131, 10642.00
1498.168, 10592.00
1499.206, 10640.00
1500.243, 10649.00
1501.280, 10628.00
1502.317, 10681.00
1503.354, 10667.00
1504.390, 10680.93
1505.426, 10636.00
1506.463, 10703.00
1507.499, 10744.00
1508.535, 10767.09
1509.570, 10701.00
1510.606, 10751.00
1511.641, 10687.00
1512.676, 10622.00
1513.711, 10752.00
1514.746, 10651.00
1515.781, 10693.00
1516.816, 10741.00
1517.850, 10686.00
1518.884, 10771.00
1519.918, 10762.00
1520.952, 10619.00
1521.986, 10892.00
1523.019, 10779.00
1524.053, 10692.00
1525.086, 10795.00
1526.119, 10795.00
1527.152, 10766.00
1528.185, 10817.00
1529.217, 10684.00
1530.250, 10916.00
1531.282, 10731.00
1532.314, 10872.00
1533.346, 10872.00
1534.377, 10899.00
1535.409, 10822.00
1536.440, 10839.00
1537.472, 10860.00
1538.503, 10883.00
1539.534, 10985.00
1540.564, 10932.06
1541.595, 10942.04
1542.625, 10875.00
1543.656, 10889.00
1544.686, 10882.00
1545.716, 10884.00
1546.745, 11024.00
1547.775, 10902.00
1548.804, 10995.00
1549.834, 10822.00
1550.863, 10935.00
1551.892, 10932.00
1552.920, 11058.00
1553.949, 11220.00
1554.977, 11141.00
1556.006, 10975.00
1557.034, 11043.00
1558.062, 10991.00
1559.089, 10854.00
1560.117, 10964.00
1561.144, 11065.00
1562.172, 10774.00
1563.199, 10969.00
1564.226, 10915.00
1565.252, 10791.00
1566.279, 10962.00
1567.305, 10900.00
1568.332, 10919.00
1569.358, 10827.00
1570.384, 10966.00
1571.409, 10849.00
1572.435, 11016.00
##END=



