##NAMES=Axinite-(Fe)
##RRUFFID=R060558
##IDEAL CHEMISTRY=Ca_4_Fe^2+^_2_Al_4_[B_2_Si_8_O_30_](OH)_2_
##LOCALITY=unknown
##OWNER=RRUFF
##SOURCE=Gemological Institute of America
##DESCRIPTION=Brown flattened crystal
##STATUS=The identification of this mineral has been confirmed by X-ray diffraction and chemical analysis
##URL=rruff.info/R060558
##MEASURED CHEMISTRY=Ca_2.00_(Fe^2+^_0.60_Mg_0.35_Mn_0.05_)_Î£=1_Al_2.00_BSi_4.00_O_15_(OH) ; B not measured
##PIN_ID=M01160
##ORIENTATION=Laser parallel to b* (0 1 0). Fiducial mark perpendicular to laser is parallel to -c [0 0 -1]
89.03600, 1999.000
90.28400, 2365.000
91.53100, 2709.000
92.77800, 3250.000
94.02500, 3754.000
95.27200, 4584.000
96.51900, 5458.000
97.76500, 6663.000
99.01100, 7807.000
100.2570, 8868.000
101.5030, 9888.000
102.7490, 11097.00
103.9940, 12676.00
105.2390, 14145.00
106.4840, 15130.00
107.7290, 15554.00
108.9740, 15256.00
110.2180, 13958.00
111.4620, 12286.00
112.7060, 10617.00
113.9500, 9302.000
115.1940, 8153.809
116.4370, 7155.749
117.6800, 6429.000
118.9230, 5788.000
120.1660, 5328.000
121.4090, 5075.000
122.6510, 4805.000
123.8940, 4481.000
125.1360, 4105.000
126.3770, 3970.000
127.6190, 3918.000
128.8600, 3911.000
130.1020, 4016.000
131.3430, 4142.000
132.5840, 4407.000
133.8240, 4707.334
135.0650, 4985.000
136.3050, 5522.000
137.5450, 6083.000
138.7850, 6619.000
140.0250, 6968.000
141.2640, 7189.000
142.5030, 7367.000
143.7430, 7349.000
144.9810, 7354.000
146.2200, 7464.000
147.4590, 7275.000
148.6970, 7474.000
149.9350, 7589.000
151.1730, 7919.000
152.4110, 7886.000
153.6480, 8058.000
154.8860, 7804.000
156.1230, 7685.000
157.3600, 7668.000
158.5960, 7548.000
159.8330, 7570.000
161.0690, 7894.000
162.3050, 8086.000
163.5410, 8224.000
164.7770, 8627.000
166.0130, 8960.000
167.2480, 9609.000
168.4830, 9990.000
169.7180, 10376.00
170.9530, 10533.00
172.1880, 10376.00
173.4220, 10041.00
174.6560, 9391.000
175.8900, 8599.000
177.1240, 7752.000
178.3580, 6776.000
179.5910, 6096.000
180.8250, 5489.000
182.0580, 5134.000
183.2900, 5102.000
184.5230, 5098.000
185.7560, 5220.000
186.9880, 5417.000
188.2200, 5882.000
189.4520, 6510.000
190.6830, 7027.000
191.9150, 7606.000
193.1460, 8297.000
194.3770, 8720.000
195.6080, 9009.000
196.8390, 9136.000
198.0700, 9277.000
199.3000, 9459.000
200.5300, 9830.000
201.7600, 10345.00
202.9900, 11134.00
204.2190, 11782.00
205.4490, 12309.00
206.6780, 12657.00
207.9070, 12923.00
209.1360, 12765.00
210.3640, 12330.00
211.5930, 12159.00
212.8210, 11628.00
214.0490, 11248.00
215.2770, 10570.00
216.5040, 9965.000
217.7320, 9223.000
218.9590, 8584.000
220.1860, 7938.000
221.4130, 7228.000
222.6400, 6706.000
223.8660, 6102.000
225.0920, 5670.000
226.3190, 5219.000
227.5450, 4828.000
228.7700, 4643.000
229.9960, 4538.000
231.2210, 4399.000
232.4460, 4352.000
233.6710, 4341.000
234.8960, 4399.000
236.1210, 4573.000
237.3450, 4734.000
238.5690, 4895.744
239.7930, 5146.000
241.0170, 5334.000
242.2410, 5510.000
243.4640, 5835.000
244.6870, 5900.000
245.9100, 6294.000
247.1330, 6438.000
248.3560, 6761.000
249.5780, 7123.000
250.8000, 7491.000
252.0230, 7988.000
253.2440, 8372.000
254.4660, 8840.000
255.6880, 9219.000
256.9090, 9554.000
258.1300, 9903.000
259.3510, 10600.00
260.5720, 11085.00
261.7920, 11713.00
263.0130, 12339.00
264.2330, 13484.00
265.4530, 14378.00
266.6730, 15412.00
267.8920, 16414.00
269.1120, 17341.00
270.3310, 18041.00
271.5500, 18209.00
272.7690, 18307.00
273.9880, 17942.00
275.2060, 17368.00
276.4240, 16524.00
277.6430, 15362.00
278.8600, 14126.00
280.0780, 12973.00
281.2960, 12141.00
282.5130, 11199.00
283.7300, 10617.00
284.9470, 10290.00
286.1640, 9927.000
287.3810, 10008.00
288.5970, 10267.00
289.8130, 10449.00
291.0290, 10931.00
292.2450, 11402.00
293.4610, 11935.00
294.6760, 12352.00
295.8910, 13072.00
297.1060, 13525.00
298.3210, 14043.00
299.5360, 14352.00
300.7510, 14851.00
301.9650, 14926.00
303.1790, 15500.00
304.3930, 15637.00
305.6070, 15745.00
306.8200, 15602.00
308.0340, 15490.00
309.2470, 15074.00
310.4600, 14621.00
311.6730, 14206.00
312.8850, 13840.00
314.0980, 13408.00
315.3100, 13335.00
316.5220, 13157.00
317.7340, 13323.00
318.9460, 13158.00
320.1570, 13039.00
321.3690, 12510.00
322.5800, 11791.00
323.7910, 10842.00
325.0010, 9968.000
326.2120, 9241.000
327.4220, 8837.000
328.6330, 8217.000
329.8430, 8198.000
331.0520, 8050.000
332.2620, 8102.000
333.4720, 8280.000
334.6810, 8376.000
335.8900, 9056.000
337.0990, 9733.000
338.3070, 10265.00
339.5160, 11438.00
340.7240, 12438.00
341.9320, 13628.00
343.1400, 14857.00
344.3480, 15751.00
345.5560, 16363.00
346.7630, 16396.00
347.9700, 16029.00
349.1770, 15600.00
350.3840, 15101.00
351.5910, 14549.00
352.7970, 13643.00
354.0040, 13121.00
355.2100, 11891.00
356.4160, 10612.00
357.6220, 9243.000
358.8270, 8347.000
360.0320, 7333.000
361.2380, 6403.000
362.4430, 5825.000
363.6470, 5392.000
364.8520, 4978.385
366.0560, 4745.563
367.2610, 4611.000
368.4650, 4489.000
369.6690, 4477.000
370.8720, 4462.000
372.0760, 4491.000
373.2790, 4477.000
374.4820, 4495.000
375.6850, 4575.000
376.8880, 4823.000
378.0910, 4971.000
379.2930, 5293.000
380.4950, 5679.000
381.6970, 6201.134
382.8990, 6921.000
384.1010, 7586.000
385.3020, 8435.000
386.5040, 9417.000
387.7050, 10157.00
388.9060, 11153.00
390.1060, 11747.00
391.3070, 11974.00
392.5070, 11833.00
393.7080, 11345.00
394.9080, 10498.00
396.1070, 9500.000
397.3070, 8625.000
398.5070, 7869.000
399.7060, 7330.000
400.9050, 6909.000
402.1040, 6718.000
403.3030, 6550.000
404.5010, 6600.000
405.7000, 6747.000
406.8980, 7184.000
408.0960, 7620.000
409.2940, 8480.000
410.4910, 9531.000
411.6890, 10593.00
412.8860, 11739.00
414.0830, 13454.00
415.2800, 15495.00
416.4770, 17026.00
417.6730, 18066.00
418.8690, 18519.00
420.0660, 17939.00
421.2620, 16963.00
422.4570, 15844.00
423.6530, 14774.00
424.8480, 14118.00
426.0440, 13560.00
427.2390, 13349.00
428.4340, 13182.00
429.6280, 12798.00
430.8230, 12308.17
432.0170, 11905.00
433.2110, 11022.00
434.4050, 10134.00
435.5990, 9266.000
436.7930, 8682.000
437.9860, 8279.000
439.1800, 7997.000
440.3730, 7870.000
441.5660, 8036.000
442.7580, 8193.000
443.9510, 8536.000
445.1430, 8534.000
446.3350, 8398.000
447.5270, 8061.000
448.7190, 7319.000
449.9110, 6440.000
451.1020, 5779.000
452.2930, 5165.000
453.4850, 4691.876
454.6750, 4293.000
455.8660, 4070.000
457.0570, 3899.000
458.2470, 3811.000
459.4370, 3717.000
460.6270, 3723.000
461.8170, 3653.000
463.0070, 3686.000
464.1960, 3731.000
465.3850, 3685.000
466.5750, 3888.000
467.7630, 3850.000
468.9520, 3910.000
470.1410, 4120.000
471.3290, 4316.000
472.5170, 4495.000
473.7050, 4762.000
474.8930, 5211.000
476.0810, 5787.000
477.2680, 6567.000
478.4560, 7457.000
479.6430, 8425.000
480.8300, 9532.000
482.0160, 10738.00
483.2030, 11943.00
484.3890, 13008.00
485.5760, 13517.00
486.7620, 13581.00
487.9480, 12611.00
489.1330, 11313.00
490.3190, 9729.000
491.5040, 8213.000
492.6890, 6893.000
493.8740, 5934.000
495.0590, 5423.000
496.2440, 5097.000
497.4280, 4951.000
498.6120, 4948.000
499.7960, 5033.000
500.9800, 5111.000
502.1640, 5299.000
503.3470, 5544.000
504.5310, 5827.000
505.7140, 6067.000
506.8970, 6211.000
508.0800, 6373.000
509.2620, 6440.000
510.4450, 6363.000
511.6270, 6206.000
512.8090, 6032.000
513.9910, 5665.000
515.1730, 5381.000
516.3550, 5041.000
517.5360, 4702.000
518.7170, 4391.000
519.8980, 4167.000
521.0790, 3991.000
522.2600, 3764.000
523.4400, 3638.000
524.6210, 3523.000
525.8010, 3542.000
526.9810, 3458.000
528.1610, 3440.000
529.3400, 3420.000
530.5200, 3455.000
531.6990, 3518.000
532.8780, 3574.000
534.0570, 3703.000
535.2360, 3809.000
536.4140, 3826.000
537.5930, 3868.000
538.7710, 3893.000
539.9490, 3902.000
541.1270, 3912.000
542.3040, 3984.000
543.4820, 3975.316
544.6590, 3904.000
545.8360, 3988.000
547.0130, 3975.000
548.1900, 3954.000
549.3670, 3842.000
550.5430, 3778.000
551.7190, 3833.000
552.8960, 3804.000
554.0710, 3918.000
555.2470, 3938.000
556.4230, 3986.000
557.5980, 4274.000
558.7730, 4332.000
559.9480, 4549.000
561.1230, 4684.000
562.2980, 4785.000
563.4720, 4874.000
564.6470, 4933.000
565.8210, 5063.000
566.9950, 5298.000
568.1690, 5409.000
569.3420, 5681.000
570.5160, 5852.000
571.6890, 6123.000
572.8620, 6272.000
574.0350, 6387.770
575.2080, 6494.130
576.3800, 6519.000
577.5530, 6514.000
578.7250, 6492.000
579.8970, 6333.000
581.0690, 6407.000
582.2410, 6520.000
583.4120, 6825.000
584.5830, 7142.000
585.7550, 7436.000
586.9260, 7912.000
588.0960, 8213.000
589.2670, 8263.000
590.4380, 8252.000
591.6080, 8117.000
592.7780, 7643.000
593.9480, 7015.000
595.1180, 6393.000
596.2870, 5638.000
597.4570, 5148.000
598.6260, 4728.000
599.7950, 4340.000
600.9640, 4165.000
602.1330, 3986.000
603.3010, 3872.000
604.4700, 3800.000
605.6380, 3760.000
606.8060, 3867.000
607.9740, 3890.000
609.1420, 4000.000
610.3090, 4090.000
611.4760, 4231.000
612.6440, 4400.000
613.8110, 4579.000
614.9770, 4658.000
616.1440, 4808.000
617.3110, 4801.000
618.4770, 4777.000
619.6430, 4818.000
620.8090, 4587.000
621.9750, 4577.000
623.1400, 4359.000
624.3060, 4133.000
625.4710, 3870.000
626.6360, 3668.000
627.8010, 3543.000
628.9660, 3373.000
630.1300, 3320.000
631.2950, 3326.000
632.4590, 3417.000
633.6230, 3419.000
634.7870, 3487.000
635.9510, 3656.000
637.1140, 3801.000
638.2780, 4041.000
639.4410, 4169.000
640.6040, 4477.000
641.7670, 4574.000
642.9290, 4689.000
644.0920, 4715.000
645.2540, 4754.000
646.4160, 4681.000
647.5780, 4534.000
648.7400, 4335.000
649.9020, 4111.000
651.0630, 3968.000
652.2250, 3698.000
653.3860, 3564.000
654.5470, 3527.000
655.7080, 3368.000
656.8680, 3353.000
658.0290, 3285.000
659.1890, 3317.000
660.3490, 3245.000
661.5090, 3350.000
662.6690, 3393.000
663.8280, 3590.000
664.9880, 3694.000
666.1470, 3940.000
667.3060, 4207.000
668.4650, 4576.000
669.6240, 4973.000
670.7820, 5355.000
671.9410, 5755.000
673.0990, 6362.000
674.2570, 6829.000
675.4150, 7146.000
676.5720, 7287.398
677.7300, 7288.436
678.8870, 7110.000
680.0450, 6860.000
681.2020, 6379.000
682.3590, 5879.000
683.5150, 5441.000
684.6720, 4961.000
685.8280, 4763.000
686.9840, 4477.000
688.1400, 4348.000
689.2960, 4282.000
690.4520, 4291.000
691.6070, 4336.000
692.7630, 4422.000
693.9180, 4601.000
695.0730, 4836.000
696.2280, 5106.000
697.3820, 5352.000
698.5370, 5783.000
699.6910, 6498.000
700.8450, 7209.000
701.9990, 8223.000
703.1530, 9512.000
704.3070, 11187.00
705.4600, 13070.00
706.6130, 15354.00
707.7660, 18059.00
708.9190, 20930.00
710.0720, 23836.00
711.2250, 26637.00
712.3770, 29015.00
713.5300, 30557.00
714.6820, 30888.00
715.8340, 29675.00
716.9850, 27792.00
718.1370, 24677.00
719.2880, 21386.00
720.4400, 18079.00
721.5910, 15555.00
722.7420, 13100.00
723.8930, 11163.00
725.0430, 9750.000
726.1940, 8634.000
727.3440, 7579.000
728.4940, 6828.000
729.6440, 6292.000
730.7940, 5843.000
731.9430, 5411.000
733.0930, 5222.000
734.2420, 4942.000
735.3910, 4771.000
736.5400, 4609.000
737.6890, 4427.000
738.8370, 4233.000
739.9860, 4153.000
741.1340, 4120.000
742.2820, 3951.000
743.4300, 3955.000
744.5780, 3926.000
745.7250, 3861.000
746.8730, 3927.000
748.0200, 4004.000
749.1670, 3908.000
750.3140, 4013.000
751.4610, 4064.000
752.6070, 4194.000
753.7540, 4313.000
754.9000, 4438.000
756.0460, 4724.000
757.1920, 4926.000
758.3380, 5139.000
759.4830, 5527.000
760.6280, 5829.000
761.7740, 6159.000
762.9190, 6550.000
764.0640, 6894.000
765.2080, 7138.000
766.3530, 7388.000
767.4970, 7573.000
768.6420, 7403.000
769.7860, 7298.000
770.9300, 6915.000
772.0730, 6653.000
773.2170, 6163.000
774.3600, 5762.000
775.5040, 5400.000
776.6470, 5099.000
777.7900, 4839.000
778.9320, 4386.000
780.0750, 4329.000
781.2170, 3990.000
782.3600, 3804.000
783.5020, 3817.000
784.6440, 3702.000
785.7850, 3532.000
786.9270, 3525.000
788.0680, 3407.000
789.2100, 3439.000
790.3510, 3352.000
791.4920, 3356.000
792.6320, 3275.000
793.7730, 3242.000
794.9130, 3245.000
796.0540, 3152.000
797.1940, 3189.000
798.3340, 3166.419
799.4730, 3167.431
800.6130, 3210.000
801.7520, 3252.000
802.8920, 3360.000
804.0310, 3515.000
805.1700, 3538.000
806.3090, 3728.000
807.4470, 3824.000
808.5860, 4096.000
809.7240, 4195.000
810.8620, 4338.000
812.0000, 4422.000
813.1380, 4523.000
814.2750, 4520.000
815.4130, 4442.000
816.5500, 4310.000
817.6870, 4195.000
818.8240, 3986.000
819.9610, 3815.000
821.0980, 3647.000
822.2340, 3526.000
823.3700, 3520.000
824.5070, 3353.000
825.6430, 3411.000
826.7780, 3315.000
827.9140, 3324.000
829.0500, 3371.000
830.1850, 3432.000
831.3200, 3394.000
832.4550, 3339.000
833.5900, 3411.000
834.7250, 3514.000
835.8590, 3498.000
836.9930, 3634.000
838.1280, 3735.000
839.2620, 3739.000
840.3950, 3821.000
841.5290, 3948.000
842.6630, 4016.000
843.7960, 4157.000
844.9290, 4264.000
846.0620, 4438.000
847.1950, 4553.000
848.3280, 4618.000
849.4600, 4764.000
850.5930, 4816.000
851.7250, 4822.000
852.8570, 4811.000
853.9890, 4905.000
855.1210, 4848.000
856.2520, 4864.000
857.3840, 4752.000
858.5150, 4722.000
859.6460, 4689.000
860.7770, 4690.000
861.9080, 4663.000
863.0380, 4584.000
864.1690, 4680.000
865.2990, 4722.000
866.4290, 4642.000
867.5590, 4648.000
868.6890, 4569.000
869.8190, 4587.000
870.9480, 4689.000
872.0770, 4700.000
873.2070, 4781.000
874.3360, 4862.000
875.4640, 4932.000
876.5930, 4995.000
877.7220, 5145.000
878.8500, 5133.000
879.9780, 5256.000
881.1060, 5381.000
882.2340, 5528.000
883.3620, 5565.000
884.4890, 5840.000
885.6170, 6024.000
886.7440, 6167.000
887.8710, 6500.000
888.9980, 6819.000
890.1240, 7206.000
891.2510, 7647.000
892.3770, 8146.000
893.5040, 8728.000
894.6300, 9281.000
895.7560, 9920.000
896.8810, 10421.00
898.0070, 11130.00
899.1330, 11513.00
900.2580, 11978.00
901.3830, 12340.00
902.5080, 12557.00
903.6330, 12861.00
904.7570, 12925.00
905.8820, 13185.00
907.0060, 13197.00
908.1300, 13466.00
909.2540, 13250.00
910.3780, 13030.00
911.5020, 12677.00
912.6250, 12055.00
913.7490, 11276.00
914.8720, 10417.00
915.9950, 9883.000
917.1180, 9045.000
918.2400, 8258.000
919.3630, 7881.000
920.4850, 7351.000
921.6080, 7040.000
922.7300, 6841.000
923.8520, 6686.000
924.9730, 6675.000
926.0950, 6620.000
927.2160, 6599.000
928.3380, 6691.000
929.4590, 6736.000
930.5800, 6854.000
931.7010, 6817.000
932.8210, 6910.000
933.9420, 6824.000
935.0620, 6787.000
936.1820, 6773.000
937.3020, 6783.000
938.4220, 6729.000
939.5420, 6817.000
940.6610, 7077.000
941.7810, 7107.000
942.9000, 7445.000
944.0190, 7724.000
945.1380, 8220.000
946.2570, 8808.000
947.3750, 9382.000
948.4940, 9997.000
949.6120, 10731.00
950.7300, 11550.00
951.8480, 12233.00
952.9660, 12948.00
954.0830, 13818.00
955.2010, 14418.00
956.3180, 15216.00
957.4350, 16112.00
958.5520, 16992.00
959.6690, 18239.00
960.7860, 19311.00
961.9020, 20523.00
963.0190, 21979.00
964.1350, 21871.28
965.2510, 21859.00
966.3670, 21363.00
967.4830, 20555.00
968.5980, 19746.00
969.7140, 18845.00
970.8290, 18098.00
971.9440, 17888.00
973.0590, 17916.00
974.1740, 18474.00
975.2880, 19298.00
976.4030, 19991.00
977.5170, 20743.00
978.6310, 21348.00
979.7450, 21704.00
980.8590, 21327.00
981.9730, 20731.00
983.0860, 20007.00
984.2000, 18971.00
985.3130, 18144.00
986.4260, 17296.00
987.5390, 16758.00
988.6520, 16329.00
989.7640, 16267.00
990.8770, 16043.00
991.9890, 16135.00
993.1010, 16073.00
994.2130, 16342.00
995.3250, 16581.00
996.4370, 16745.00
997.5480, 17177.00
998.6590, 17557.00
999.7710, 18180.00
1000.882, 18726.00
1001.993, 19033.00
1003.103, 19461.00
1004.214, 19622.00
1005.324, 19150.00
1006.434, 18628.00
1007.545, 17614.00
1008.655, 16152.00
1009.764, 14857.00
1010.874, 13330.00
1011.983, 11971.00
1013.093, 10693.00
1014.202, 9633.000
1015.311, 8763.000
1016.420, 7910.000
1017.528, 7389.000
1018.637, 6930.000
1019.745, 6559.000
1020.854, 6382.000
1021.962, 6088.000
1023.070, 6058.000
1024.177, 5966.000
1025.285, 5991.000
1026.392, 6044.000
1027.500, 6027.000
1028.607, 5962.000
1029.714, 5838.306
1030.821, 5809.000
1031.927, 5444.000
1033.034, 5253.000
1034.140, 4974.000
1035.246, 4807.000
1036.352, 4662.000
1037.458, 4500.273
1038.564, 4383.000
1039.670, 4294.000
1040.775, 4212.000
1041.880, 4165.000
1042.986, 4120.000
1044.090, 4055.000
1045.195, 4055.000
1046.300, 4052.000
1047.404, 4118.000
1048.509, 4095.000
1049.613, 4156.000
1050.717, 4225.000
1051.821, 4236.000
1052.925, 4287.000
1054.028, 4350.000
1055.132, 4306.000
1056.235, 4383.000
1057.338, 4342.000
1058.441, 4314.000
1059.544, 4347.000
1060.647, 4281.000
1061.749, 4229.000
1062.851, 4245.000
1063.954, 4150.000
1065.056, 4135.000
1066.158, 4082.000
1067.259, 3908.000
1068.361, 3992.000
1069.462, 3839.000
1070.564, 3857.000
1071.665, 3921.000
1072.766, 3952.000
1073.867, 3938.000
1074.967, 4131.000
1076.068, 4144.000
1077.168, 4376.000
1078.268, 4555.000
1079.368, 4797.000
1080.468, 4969.000
1081.568, 5199.000
1082.668, 5409.000
1083.767, 5412.000
1084.866, 5366.000
1085.966, 5246.000
1087.065, 5095.000
1088.163, 4959.000
1089.262, 4656.000
1090.361, 4495.000
1091.459, 4302.000
1092.557, 4102.000
1093.655, 4129.000
1094.753, 3969.000
1095.851, 3896.000
1096.949, 3891.000
1098.046, 3940.000
1099.143, 4038.000
1100.241, 4081.000
1101.338, 4069.000
1102.434, 4234.000
1103.531, 4257.000
1104.628, 4369.000
1105.724, 4455.000
1106.820, 4421.000
1107.916, 4397.000
1109.012, 4301.000
1110.108, 4251.000
1111.204, 4238.000
1112.299, 4131.000
1113.395, 4062.000
1114.490, 3937.000
1115.585, 3785.000
1116.680, 3680.000
1117.775, 3598.000
1118.869, 3535.000
1119.964, 3477.000
1121.058, 3416.444
1122.152, 3451.000
1123.246, 3334.000
1124.340, 3327.000
1125.434, 3336.000
1126.527, 3243.000
1127.620, 3190.000
1128.714, 3213.000
1129.807, 3196.000
1130.900, 3136.000
1131.992, 3111.000
1133.085, 3098.000
1134.178, 3075.000
1135.270, 3077.000
1136.362, 3052.000
1137.454, 3067.000
1138.546, 3038.000
1139.638, 3041.529
1140.729, 3022.000
1141.821, 3014.000
1142.912, 3013.000
1144.003, 2944.000
1145.094, 2937.000
1146.185, 2897.000
1147.276, 2961.000
1148.366, 2899.000
1149.456, 2915.000
1150.547, 2915.000
1151.637, 2895.000
1152.727, 2885.000
1153.816, 2891.000
1154.906, 2867.000
1155.995, 2865.000
1157.085, 2919.000
1158.174, 2862.000
1159.263, 2866.000
1160.352, 2822.000
1161.441, 2780.000
1162.529, 2828.000
1163.618, 2830.000
1164.706, 2812.000
1165.794, 2777.000
1166.882, 2780.000
1167.970, 2806.000
1169.058, 2823.000
1170.145, 2825.357
1171.232, 2815.866
1172.320, 2819.000
1173.407, 2783.000
1174.494, 2747.000
1175.580, 2750.000
1176.667, 2780.000
1177.754, 2765.000
1178.840, 2783.000
1179.926, 2764.000
1181.012, 2691.000
1182.098, 2699.000
1183.184, 2740.000
1184.269, 2697.000
1185.355, 2735.000
1186.440, 2760.000
1187.525, 2733.000
1188.610, 2760.000
1189.695, 2729.000
1190.780, 2760.000
1191.864, 2808.000
1192.949, 2776.000
1194.033, 2734.000
1195.117, 2748.000
1196.201, 2780.000
1197.285, 2675.000
1198.369, 2743.000
1199.452, 2679.000
1200.536, 2727.000
1201.619, 2740.000
1202.702, 2763.000
1203.785, 2725.000
1204.868, 2700.000
1205.950, 2694.000
1207.033, 2757.000
1208.115, 2692.000
1209.197, 2758.000
1210.279, 2671.000
1211.361, 2648.000
1212.443, 2720.000
1213.525, 2713.000
1214.606, 2647.000
1215.687, 2707.000
1216.769, 2692.000
1217.850, 2737.000
1218.930, 2711.000
1220.011, 2662.000
1221.092, 2706.000
1222.172, 2634.000
1223.252, 2689.000
1224.333, 2706.000
1225.413, 2673.000
1226.492, 2676.000
1227.572, 2683.000
1228.652, 2679.000
1229.731, 2642.000
1230.810, 2675.000
1231.889, 2721.000
1232.968, 2687.000
1234.047, 2677.000
1235.126, 2697.000
1236.204, 2748.000
1237.283, 2670.000
1238.361, 2616.000
1239.439, 2677.000
1240.517, 2718.000
1241.595, 2675.000
1242.673, 2631.000
1243.750, 2708.000
1244.827, 2691.000
1245.905, 2721.000
1246.982, 2680.000
1248.059, 2698.000
1249.135, 2646.000
1250.212, 2687.000
1251.288, 2642.000
1252.365, 2714.000
1253.441, 2677.000
1254.517, 2637.000
1255.593, 2686.000
1256.669, 2602.000
1257.744, 2685.000
1258.820, 2669.000
1259.895, 2643.000
1260.970, 2711.000
1262.045, 2649.000
1263.120, 2697.000
1264.195, 2664.000
1265.270, 2716.000
1266.344, 2688.000
1267.418, 2649.000
1268.492, 2652.000
1269.566, 2730.000
1270.640, 2624.000
1271.714, 2746.000
1272.788, 2748.000
1273.861, 2718.000
1274.934, 2654.000
1276.007, 2762.000
1277.080, 2642.000
1278.153, 2707.000
1279.226, 2688.000
1280.299, 2695.000
1281.371, 2698.000
1282.443, 2677.779
1283.515, 2665.000
1284.587, 2650.000
1285.659, 2643.000
1286.731, 2641.000
1287.802, 2695.000
1288.874, 2679.000
1289.945, 2658.000
1291.016, 2671.000
1292.087, 2646.000
1293.158, 2694.000
1294.229, 2643.000
1295.299, 2684.000
1296.370, 2606.000
1297.440, 2631.000
1298.510, 2626.000
1299.580, 2649.000
1300.650, 2660.000
1301.720, 2591.000
1302.789, 2648.000
1303.859, 2623.000
1304.928, 2661.000
1305.997, 2659.000
1307.066, 2618.000
1308.135, 2618.000
1309.203, 2617.000
1310.272, 2678.000
1311.340, 2641.000
1312.409, 2699.000
1313.477, 2654.000
1314.545, 2619.000
1315.612, 2620.000
1316.680, 2693.000
1317.748, 2676.000
1318.815, 2648.000
1319.882, 2584.000
1320.949, 2690.000
1322.016, 2634.000
1323.083, 2673.000
1324.150, 2676.000
1325.216, 2623.000
1326.283, 2661.000
1327.349, 2733.000
1328.415, 2703.000
1329.481, 2692.000
1330.547, 2660.000
1331.613, 2693.000
1332.678, 2675.000
1333.744, 2701.000
1334.809, 2673.000
1335.874, 2770.000
1336.939, 2683.000
1338.004, 2730.000
1339.068, 2725.000
1340.133, 2691.000
1341.197, 2737.000
1342.262, 2647.000
1343.326, 2758.000
1344.390, 2732.000
1345.453, 2752.000
1346.517, 2699.000
1347.581, 2747.000
1348.644, 2719.000
1349.707, 2733.000
1350.770, 2729.000
1351.833, 2676.000
1352.896, 2699.000
1353.959, 2742.000
1355.022, 2797.000
1356.084, 2683.000
1357.146, 2782.000
1358.208, 2720.000
1359.270, 2693.000
1360.332, 2806.000
1361.394, 2778.000
1362.455, 2776.000
1363.517, 2780.000
1364.578, 2761.945
1365.639, 2731.000
1366.700, 2755.000
1367.761, 2757.000
1368.822, 2779.000
1369.883, 2771.000
1370.943, 2835.000
1372.003, 2804.758
1373.063, 2842.000
1374.123, 2765.000
1375.183, 2769.000
1376.243, 2736.000
1377.303, 2806.000
1378.362, 2735.000
1379.421, 2777.000
1380.481, 2754.000
1381.540, 2730.000
1382.598, 2760.000
1383.657, 2740.000
1384.716, 2798.000
1385.774, 2782.000
1386.833, 2782.000
1387.891, 2736.000
1388.949, 2741.000
1390.007, 2742.000
1391.065, 2759.000
1392.122, 2745.527
1393.180, 2739.000
1394.237, 2734.000
1395.294, 2718.000
1396.351, 2733.000
1397.408, 2792.000
1398.465, 2771.000
1399.522, 2781.000
1400.578, 2768.000
1401.635, 2775.000
1402.691, 2691.000
1403.747, 2705.000
1404.803, 2728.000
1405.859, 2803.000
1406.914, 2794.000
1407.970, 2769.000
1409.025, 2796.000
1410.081, 2733.000
1411.136, 2808.000
1412.191, 2753.000
1413.245, 2802.000
1414.300, 2797.000
1415.355, 2776.000
1416.409, 2817.000
1417.463, 2781.000
1418.518, 2872.000
1419.572, 2822.000
1420.625, 2889.000
1421.679, 2842.000
1422.733, 2841.000
1423.786, 2784.000
1424.840, 2857.000
1425.893, 2780.000
1426.946, 2805.000
1427.999, 2881.000
1429.051, 2814.000
1430.104, 2871.000
1431.157, 2848.000
1432.209, 2867.000
1433.261, 2770.000
1434.313, 2787.000
1435.365, 2779.000
1436.417, 2823.000
1437.468, 2811.000
1438.520, 2825.000
1439.571, 2856.000
1440.623, 2832.000
1441.674, 2813.000
1442.725, 2802.000
1443.775, 2820.000
1444.826, 2825.000
1445.877, 2814.000
1446.927, 2848.000
1447.977, 2823.000
1449.028, 2795.000
1450.078, 2810.000
1451.127, 2850.000
1452.177, 2781.000
1453.227, 2842.000
1454.276, 2808.000
1455.325, 2871.000
1456.375, 2895.000
1457.424, 2871.826
1458.473, 2848.000
1459.521, 2819.000
1460.570, 2865.000
1461.618, 2800.000
1462.667, 2873.000
1463.715, 2787.000
1464.763, 2853.000
1465.811, 2749.000
1466.859, 2854.000
1467.906, 2871.000
1468.954, 2842.000
1470.001, 2842.000
1471.049, 2773.000
1472.096, 2844.000
1473.143, 2883.000
1474.190, 2821.000
1475.236, 2868.000
1476.283, 2834.000
1477.329, 2902.000
1478.376, 2866.000
1479.422, 2789.000
1480.468, 2958.000
1481.514, 2936.000
1482.559, 2870.000
1483.605, 2922.000
1484.650, 2868.000
1485.696, 2872.000
1486.741, 2888.000
1487.786, 2893.000
1488.831, 2935.000
1489.876, 2861.000
1490.920, 2860.000
1491.965, 2877.000
1493.009, 2891.000
1494.054, 2878.000
1495.098, 2908.000
1496.142, 2928.000
1497.185, 2897.000
1498.229, 2935.000
1499.273, 2917.000
1500.316, 2900.000
1501.359, 2865.000
1502.403, 2886.000
1503.446, 2923.000
1504.489, 2953.000
1505.531, 2926.000
1506.574, 2974.000
1507.616, 2925.000
1508.659, 2935.000
1509.701, 2921.000
1510.743, 2930.000
1511.785, 2900.000
1512.827, 2908.648
1513.868, 2968.000
1514.910, 2912.000
1515.951, 2926.000
1516.993, 2928.000
1518.034, 2884.000
1519.075, 2943.000
1520.116, 2946.000
1521.156, 2967.000
1522.197, 2893.000
1523.237, 3009.000
1524.278, 2956.000
1525.318, 2928.000
1526.358, 2965.000
1527.398, 2961.000
1528.438, 3026.000
1529.477, 3003.000
1530.517, 2923.000
1531.556, 2976.000
1532.596, 2934.000
1533.635, 2987.000
1534.674, 2920.000
1535.712, 3005.000
1536.751, 3019.000
1537.790, 2989.000
1538.828, 3037.000
1539.866, 2945.000
1540.905, 2965.000
1541.943, 2962.000
1542.981, 3030.000
1544.018, 3004.000
1545.056, 3032.000
1546.094, 2978.000
1547.131, 3028.000
1548.168, 3068.000
1549.205, 3014.000
1550.242, 3025.000
1551.279, 2985.000
1552.316, 3044.000
1553.352, 3109.000
1554.389, 3071.000
1555.425, 3155.000
1556.461, 3052.000
1557.497, 3042.000
1558.533, 2998.000
1559.569, 3033.000
1560.605, 3083.000
1561.640, 2984.000
1562.675, 3074.000
1563.711, 3106.000
##END=



