##NAMES=Azurite
##RRUFFID=R050497
##IDEAL CHEMISTRY=Cu^2+^_3_(CO_3_)_2_(OH)_2_
##LOCALITY=Tsumeb mine, Tsumeb, Otavi District, Oshikoto, Namibia
##OWNER=RRUFF
##SOURCE=Marcus Origlieri
##DESCRIPTION=Blue prismatic single crystal
##STATUS=The identification of this mineral has been confirmed by X-ray diffraction and chemical analysis
##URL=rruff.info/R050497
##MEASURED CHEMISTRY=Cu_3.00_(CO_3_)_2_(OH)_2_
##PIN_ID=L01397
##ORIENTATION=Laser parallel to (-1 0 -1). Fiducial mark perpendicular to laser is parallel to -b [0 -1 0]
52.67100, 419.0000
53.91000, 421.0000
55.14900, 412.0000
56.38700, 424.0000
57.62600, 422.0000
58.86400, 425.0000
60.10300, 426.0000
61.34100, 437.0000
62.57900, 439.0000
63.81700, 459.0000
65.05400, 447.0000
66.29200, 472.0000
67.52900, 504.0000
68.76700, 530.0000
70.00400, 601.0000
71.24100, 709.0000
72.47700, 747.0000
73.71400, 693.0000
74.95100, 698.0000
76.18700, 794.0000
77.42300, 857.0000
78.65900, 863.0000
79.89500, 844.0000
81.13100, 974.0000
82.36700, 1093.000
83.60200, 1298.000
84.83700, 1341.000
86.07200, 1186.000
87.30800, 1029.000
88.54200, 1042.000
89.77700, 1039.000
91.01200, 1082.000
92.24600, 1198.000
93.48000, 1266.000
94.71400, 1219.000
95.94800, 1215.000
97.18200, 1197.000
98.41600, 1143.000
99.64900, 1155.000
100.8830, 1223.000
102.1160, 1172.000
103.3490, 1177.000
104.5820, 1185.000
105.8150, 1285.000
107.0470, 1535.000
108.2800, 1792.000
109.5120, 2245.000
110.7440, 2776.000
111.9760, 2724.000
113.2080, 2379.000
114.4400, 1970.000
115.6710, 1732.000
116.9030, 1641.000
118.1340, 1511.000
119.3650, 1471.000
120.5960, 1364.000
121.8270, 1392.000
123.0580, 1499.000
124.2880, 1689.000
125.5190, 1754.000
126.7490, 1975.000
127.9790, 2534.000
129.2090, 3825.000
130.4390, 6182.000
131.6680, 7470.000
132.8980, 6088.000
134.1270, 4131.000
135.3560, 3158.000
136.5850, 2651.000
137.8140, 2567.000
139.0430, 2806.000
140.2710, 3331.000
141.5000, 4217.000
142.7280, 5047.000
143.9560, 4979.000
145.1840, 3916.000
146.4120, 2799.000
147.6390, 2213.000
148.8670, 1877.000
150.0940, 1719.000
151.3210, 1728.000
152.5490, 1888.000
153.7750, 2024.000
155.0020, 1887.000
156.2290, 1668.000
157.4550, 1444.000
158.6810, 1326.000
159.9080, 1352.000
161.1340, 1290.000
162.3590, 1422.000
163.5850, 1517.000
164.8110, 1606.000
166.0360, 1847.000
167.2610, 2172.000
168.4860, 2688.000
169.7110, 3318.000
170.9360, 3703.000
172.1610, 3256.000
173.3850, 2637.000
174.6100, 2111.000
175.8340, 1907.000
177.0580, 1856.000
178.2820, 1902.000
179.5050, 1830.000
180.7290, 1641.000
181.9520, 1449.000
183.1760, 1389.000
184.3990, 1330.000
185.6220, 1329.000
186.8450, 1423.000
188.0670, 1496.000
189.2900, 1581.000
190.5120, 1653.000
191.7340, 1839.000
192.9560, 2054.000
194.1780, 2086.000
195.4000, 2023.000
196.6220, 1918.000
197.8430, 1806.000
199.0640, 1698.000
200.2860, 1741.000
201.5070, 1713.000
202.7270, 1709.000
203.9480, 1709.000
205.1690, 1592.000
206.3890, 1324.000
207.6090, 1219.000
208.8290, 1244.000
210.0490, 1220.000
211.2690, 1224.000
212.4890, 1210.000
213.7080, 1255.000
214.9280, 1205.000
216.1470, 1261.000
217.3660, 1187.000
218.5850, 1194.000
219.8030, 1148.000
221.0220, 1146.000
222.2400, 1174.000
223.4590, 1131.000
224.6770, 1153.000
225.8950, 1151.000
227.1120, 1157.102
228.3300, 1202.000
229.5480, 1206.000
230.7650, 1248.000
231.9820, 1307.000
233.1990, 1364.000
234.4160, 1471.000
235.6330, 1561.000
236.8490, 1662.000
238.0660, 1591.000
239.2820, 1508.000
240.4980, 1478.000
241.7140, 1476.000
242.9300, 1537.000
244.1460, 1627.000
245.3610, 1736.000
246.5770, 1968.000
247.7920, 2122.000
249.0070, 1956.000
250.2220, 1798.000
251.4370, 1712.000
252.6510, 1743.000
253.8660, 1778.000
255.0800, 1737.000
256.2940, 1919.000
257.5080, 2110.000
258.7220, 2491.000
259.9360, 3027.000
261.1490, 3642.000
262.3630, 4138.000
263.5760, 4615.000
264.7890, 4900.000
266.0020, 4578.000
267.2150, 4075.000
268.4270, 3611.000
269.6400, 3228.000
270.8520, 3138.000
272.0640, 3140.000
273.2760, 3302.000
274.4880, 3613.000
275.7000, 4251.000
276.9120, 4758.000
278.1230, 5467.000
279.3340, 6079.000
280.5450, 6376.000
281.7560, 6241.000
282.9670, 5749.000
284.1780, 5141.000
285.3880, 4369.000
286.5980, 3766.000
287.8090, 3285.000
289.0190, 2862.000
290.2290, 2561.000
291.4380, 2247.000
292.6480, 2082.000
293.8570, 1993.000
295.0670, 1871.000
296.2760, 1772.000
297.4850, 1702.000
298.6930, 1645.420
299.9020, 1624.000
301.1110, 1589.000
302.3190, 1574.000
303.5270, 1567.000
304.7350, 1580.000
305.9430, 1558.000
307.1510, 1544.000
308.3580, 1520.000
309.5660, 1520.728
310.7730, 1499.000
311.9800, 1531.000
313.1870, 1539.000
314.3940, 1560.000
315.6010, 1530.000
316.8070, 1616.000
318.0130, 1628.000
319.2200, 1608.000
320.4260, 1682.000
321.6310, 1679.000
322.8370, 1755.000
324.0430, 1781.000
325.2480, 1887.000
326.4540, 1921.000
327.6590, 2065.000
328.8640, 2134.000
330.0680, 2130.000
331.2730, 2187.000
332.4780, 2197.000
333.6820, 2200.000
334.8860, 2130.000
336.0900, 2105.000
337.2940, 2083.000
338.4980, 2083.000
339.7010, 2083.000
340.9050, 2078.000
342.1080, 2095.000
343.3110, 2152.000
344.5140, 2175.000
345.7170, 2245.000
346.9200, 2318.000
348.1220, 2380.000
349.3240, 2385.000
350.5270, 2545.000
351.7290, 2621.000
352.9310, 2718.000
354.1320, 2921.000
355.3340, 2982.000
356.5350, 3211.000
357.7370, 3403.000
358.9380, 3561.000
360.1390, 3841.000
361.3400, 4107.000
362.5400, 4296.000
363.7410, 4640.000
364.9410, 4989.000
366.1410, 5333.000
367.3410, 5781.000
368.5410, 6274.637
369.7410, 6788.000
370.9400, 7467.000
372.1400, 8164.000
373.3390, 8973.000
374.5380, 9876.000
375.7370, 10807.00
376.9360, 11696.00
378.1350, 12937.00
379.3330, 13871.00
380.5310, 14788.00
381.7300, 15522.00
382.9280, 16292.00
384.1260, 16629.00
385.3230, 17071.00
386.5210, 17141.00
387.7180, 17611.00
388.9160, 18393.00
390.1130, 19164.00
391.3100, 20889.00
392.5060, 23083.00
393.7030, 26408.00
394.9000, 31264.00
396.0960, 36728.00
397.2920, 43305.00
398.4880, 49591.00
399.6840, 52751.00
400.8800, 51670.00
402.0750, 47056.00
403.2710, 40281.00
404.4660, 33780.00
405.6610, 28166.00
406.8560, 23490.00
408.0510, 20171.00
409.2450, 17284.00
410.4400, 15104.00
411.6340, 13020.00
412.8280, 11668.00
414.0220, 10149.00
415.2160, 9032.000
416.4100, 8006.000
417.6030, 7231.000
418.7970, 6615.000
419.9900, 6003.000
421.1830, 5662.000
422.3760, 5160.000
423.5690, 4818.000
424.7610, 4499.000
425.9540, 4246.000
427.1460, 4032.000
428.3380, 3853.000
429.5300, 3603.000
430.7220, 3416.000
431.9140, 3259.000
433.1050, 3115.000
434.2970, 3009.000
435.4880, 2810.000
436.6790, 2658.000
437.8700, 2565.000
439.0610, 2462.000
440.2510, 2315.000
441.4420, 2260.000
442.6320, 2100.000
443.8220, 2044.000
445.0120, 2002.000
446.2020, 1928.000
447.3910, 1860.000
448.5810, 1857.000
449.7700, 1779.000
450.9600, 1726.000
452.1490, 1705.000
453.3370, 1676.000
454.5260, 1660.000
455.7150, 1695.000
456.9030, 1652.000
458.0910, 1641.068
459.2800, 1650.000
460.4670, 1585.000
461.6550, 1575.000
462.8430, 1551.000
464.0300, 1558.000
465.2180, 1560.000
466.4050, 1516.000
467.5920, 1498.000
468.7790, 1483.000
469.9650, 1464.644
471.1520, 1455.915
472.3380, 1452.000
473.5250, 1437.000
474.7110, 1440.000
475.8970, 1426.000
477.0820, 1417.060
478.2680, 1409.580
479.4540, 1400.000
480.6390, 1390.000
481.8240, 1391.000
483.0090, 1385.000
484.1940, 1347.000
485.3780, 1360.000
486.5630, 1353.000
487.7470, 1324.000
488.9320, 1331.000
490.1160, 1304.000
491.3000, 1288.000
492.4830, 1269.000
493.6670, 1243.000
494.8500, 1284.000
496.0340, 1241.000
497.2170, 1303.000
498.4000, 1252.000
499.5820, 1237.000
500.7650, 1266.000
501.9480, 1231.000
503.1300, 1253.000
504.3120, 1213.000
505.4940, 1205.000
506.6760, 1249.000
507.8580, 1246.000
509.0390, 1233.000
510.2210, 1190.000
511.4020, 1207.000
512.5830, 1230.000
513.7640, 1219.000
514.9450, 1224.000
516.1250, 1263.000
517.3060, 1228.000
518.4860, 1200.000
519.6660, 1250.000
520.8460, 1264.000
522.0260, 1300.000
523.2060, 1329.352
524.3850, 1336.000
525.5650, 1389.000
526.7440, 1404.000
527.9230, 1443.000
529.1020, 1500.000
530.2810, 1558.967
531.4590, 1642.000
532.6380, 1728.000
533.8160, 1824.000
534.9940, 1946.000
536.1720, 2022.000
537.3500, 2212.000
538.5270, 2250.000
539.7050, 2246.000
540.8820, 2155.000
542.0590, 2074.000
543.2360, 1934.000
544.4130, 1802.000
545.5900, 1702.000
546.7660, 1505.000
547.9430, 1417.000
549.1190, 1340.000
550.2950, 1254.000
551.4710, 1214.269
552.6470, 1231.000
553.8220, 1156.000
554.9980, 1126.000
556.1730, 1121.000
557.3480, 1078.000
558.5230, 1064.000
559.6980, 1081.000
560.8730, 1083.000
562.0470, 1027.000
563.2220, 1044.000
564.3960, 1020.000
565.5700, 1009.000
566.7440, 993.0000
567.9170, 1011.000
569.0910, 1006.000
570.2640, 999.6431
571.4380, 1002.000
572.6110, 988.0000
573.7840, 1010.000
574.9570, 1010.000
576.1290, 1016.000
577.3020, 992.0000
578.4740, 966.0000
579.6460, 962.0000
580.8180, 956.5494
581.9900, 1004.000
583.1620, 964.0000
584.3330, 982.0000
585.5040, 983.0000
586.6760, 968.0000
587.8470, 989.0000
589.0180, 969.0000
590.1880, 955.0000
591.3590, 956.0000
592.5290, 952.0000
593.7000, 966.0000
594.8700, 983.0000
596.0400, 974.0000
597.2090, 961.0000
598.3790, 941.0000
599.5490, 945.0000
600.7180, 997.0000
601.8870, 1013.000
603.0560, 937.0000
604.2250, 988.0000
605.3940, 962.0000
606.5620, 971.0000
607.7300, 970.0000
608.8990, 991.0000
610.0670, 971.0000
611.2350, 1012.000
612.4020, 944.0000
613.5700, 972.0000
614.7370, 991.0000
615.9050, 930.0000
617.0720, 947.0000
618.2390, 973.0000
619.4060, 967.0000
620.5720, 992.0000
621.7390, 983.0000
622.9050, 934.0000
624.0710, 941.0000
625.2370, 934.0000
626.4030, 934.0000
627.5690, 942.0000
628.7340, 930.0000
629.9000, 940.0000
631.0650, 935.9160
632.2300, 946.0000
633.3950, 936.0000
634.5600, 945.0000
635.7240, 953.0000
636.8890, 950.0000
638.0530, 930.0000
639.2170, 951.0000
640.3810, 937.0000
641.5450, 953.0000
642.7080, 972.0000
643.8720, 948.0000
645.0350, 935.0000
646.1980, 971.0000
647.3610, 953.0000
648.5240, 944.0000
649.6870, 943.0000
650.8490, 942.0000
652.0120, 950.0000
653.1740, 962.0000
654.3360, 934.0000
655.4980, 922.0000
656.6600, 926.0000
657.8210, 910.0000
658.9830, 910.0000
660.1440, 895.0000
661.3050, 902.1404
662.4660, 907.0000
663.6270, 919.0000
664.7870, 903.0000
665.9480, 912.0000
667.1080, 938.0000
668.2680, 916.0000
669.4280, 885.0000
670.5880, 937.0000
671.7480, 898.0000
672.9070, 903.0000
674.0670, 926.0000
675.2260, 916.0000
676.3850, 904.0000
677.5440, 916.0000
678.7030, 902.8449
679.8610, 894.0000
681.0200, 891.0000
682.1780, 891.0000
683.3360, 881.9250
684.4940, 887.5859
685.6520, 895.0000
686.8090, 893.0000
687.9670, 900.0000
689.1240, 897.3368
690.2810, 902.4305
691.4380, 915.0000
692.5950, 913.0000
693.7520, 922.0000
694.9080, 932.0000
696.0650, 937.0000
697.2210, 931.0000
698.3770, 903.0000
699.5330, 928.0000
700.6880, 924.0000
701.8440, 900.0000
702.9990, 925.0000
704.1550, 899.0000
705.3100, 945.0000
706.4650, 946.0000
707.6190, 946.0000
708.7740, 934.0000
709.9290, 953.0000
711.0830, 932.0000
712.2370, 986.0000
713.3910, 940.0000
714.5450, 984.0000
715.6980, 991.0000
716.8520, 1003.000
718.0050, 1014.000
719.1580, 1048.000
720.3110, 1050.000
721.4640, 1087.000
722.6170, 1048.000
723.7700, 1113.000
724.9220, 1158.000
726.0740, 1155.000
727.2260, 1213.000
728.3780, 1262.000
729.5300, 1277.000
730.6810, 1382.000
731.8330, 1467.000
732.9840, 1502.000
734.1350, 1605.000
735.2860, 1700.000
736.4370, 1808.000
737.5880, 1932.000
738.7380, 2016.000
739.8880, 2045.000
741.0390, 2046.000
742.1890, 2136.000
743.3380, 2115.000
744.4880, 2138.000
745.6380, 2163.000
746.7870, 2215.491
747.9360, 2279.000
749.0850, 2388.000
750.2340, 2544.000
751.3830, 2700.000
752.5310, 2941.000
753.6800, 3161.000
754.8280, 3467.000
755.9760, 3914.000
757.1240, 4272.000
758.2720, 4654.000
759.4190, 5047.000
760.5670, 5470.000
761.7140, 5800.000
762.8610, 6010.000
764.0080, 5891.000
765.1550, 5719.000
766.3020, 5320.000
767.4480, 4948.000
768.5950, 4366.000
769.7410, 3992.000
770.8870, 3532.000
772.0330, 3234.000
773.1780, 2896.000
774.3240, 2553.000
775.4690, 2392.000
776.6140, 2245.000
777.7590, 2058.000
778.9040, 1900.000
780.0490, 1800.000
781.1940, 1677.000
782.3380, 1581.000
783.4820, 1526.000
784.6260, 1531.000
785.7700, 1415.000
786.9140, 1380.000
788.0580, 1311.000
789.2010, 1257.000
790.3450, 1246.000
791.4880, 1164.000
792.6310, 1169.000
793.7730, 1191.000
794.9160, 1173.000
796.0590, 1113.000
797.2010, 1145.000
798.3430, 1120.000
799.4850, 1164.000
800.6270, 1151.000
801.7690, 1132.000
802.9100, 1119.000
804.0520, 1096.000
805.1930, 1091.000
806.3340, 1095.000
807.4750, 1070.000
808.6160, 1078.000
809.7560, 1062.000
810.8970, 1035.000
812.0370, 1062.000
813.1770, 1049.000
814.3170, 1059.000
815.4570, 1069.000
816.5960, 1116.000
817.7360, 1194.000
818.8750, 1231.000
820.0140, 1290.000
821.1530, 1285.000
822.2920, 1426.000
823.4310, 1461.000
824.5690, 1490.000
825.7070, 1603.000
826.8460, 1705.000
827.9840, 1792.000
829.1220, 1851.000
830.2590, 1927.000
831.3970, 1995.000
832.5340, 2206.000
833.6710, 2332.000
834.8080, 2625.000
835.9450, 2816.000
837.0820, 2938.000
838.2190, 3113.000
839.3550, 3174.000
840.4910, 3119.000
841.6270, 3032.000
842.7630, 2827.000
843.8990, 2543.000
845.0350, 2296.000
846.1700, 2105.000
847.3060, 1879.000
848.4410, 1717.000
849.5760, 1608.000
850.7100, 1530.000
851.8450, 1428.000
852.9800, 1358.000
854.1140, 1305.000
855.2480, 1223.000
856.3820, 1155.000
857.5160, 1166.000
858.6500, 1113.000
859.7830, 1092.000
860.9170, 1050.000
862.0500, 1037.000
863.1830, 1063.000
864.3160, 1044.000
865.4480, 1011.000
866.5810, 1014.000
867.7130, 985.0000
868.8460, 999.0000
869.9780, 974.0000
871.1100, 975.0000
872.2410, 982.0000
873.3730, 974.0000
874.5050, 981.0000
875.6360, 992.0000
876.7670, 989.6571
877.8980, 994.0000
879.0290, 990.0000
880.1590, 990.0000
881.2900, 978.0000
882.4200, 984.0000
883.5500, 981.6047
884.6800, 1013.000
885.8100, 979.0000
886.9400, 995.0000
888.0690, 983.0000
889.1990, 968.0000
890.3280, 957.0000
891.4570, 958.5248
892.5860, 965.0000
893.7140, 967.0000
894.8430, 973.0000
895.9710, 978.0000
897.1000, 997.0000
898.2280, 993.0000
899.3560, 1007.000
900.4830, 970.0000
901.6110, 949.0000
902.7380, 978.0000
903.8660, 1001.000
904.9930, 1004.000
906.1200, 997.0000
907.2460, 986.0000
908.3730, 990.0000
909.5000, 991.1169
910.6260, 970.0000
911.7520, 1009.000
912.8780, 1018.000
914.0040, 1036.000
915.1290, 1007.000
916.2550, 1005.000
917.3800, 992.0000
918.5050, 996.0000
919.6300, 1012.000
920.7550, 1031.000
921.8800, 1033.022
923.0040, 979.0000
924.1290, 1037.000
925.2530, 1036.000
926.3770, 1023.000
927.5010, 1063.000
928.6250, 1095.000
929.7480, 1088.000
930.8720, 1122.000
931.9950, 1122.000
933.1180, 1165.000
934.2410, 1205.000
935.3640, 1192.000
936.4860, 1216.000
937.6090, 1236.000
938.7310, 1214.000
939.8530, 1208.646
940.9750, 1168.000
942.0970, 1146.000
943.2180, 1115.000
944.3400, 1058.000
945.4610, 1098.000
946.5820, 1094.000
947.7030, 1031.000
948.8240, 1042.000
949.9450, 1018.000
951.0650, 1038.000
952.1860, 1028.000
953.3060, 1000.000
954.4260, 994.0000
955.5460, 994.0000
956.6650, 954.0000
957.7850, 958.0000
958.9040, 934.0000
960.0230, 973.0000
961.1420, 958.0000
962.2610, 978.0000
963.3800, 960.0000
964.4990, 950.0000
965.6170, 982.0000
966.7350, 973.0000
967.8530, 965.0000
968.9710, 966.0000
970.0890, 1000.000
971.2070, 981.0000
972.3240, 967.0000
973.4410, 1013.000
974.5580, 956.0000
975.6750, 993.0000
976.7920, 985.0000
977.9090, 974.0000
979.0250, 954.0000
980.1410, 981.0000
981.2580, 975.0000
982.3740, 991.0000
983.4890, 991.7665
984.6050, 983.0000
985.7200, 979.0000
986.8360, 971.0000
987.9510, 942.0000
989.0660, 964.0000
990.1810, 953.0000
991.2950, 943.0000
992.4100, 983.0000
993.5240, 954.0000
994.6390, 900.0000
995.7530, 935.0000
996.8660, 952.0000
997.9800, 964.0000
999.0940, 966.0000
1000.207, 964.5371
1001.320, 962.2935
1002.433, 945.0000
1003.546, 949.0000
1004.659, 935.0000
1005.772, 931.0000
1006.884, 930.0000
1007.996, 920.0000
1009.108, 929.0000
1010.220, 940.0000
1011.332, 937.0000
1012.444, 931.0000
1013.555, 933.0000
1014.666, 930.7324
1015.777, 934.0000
1016.888, 933.0000
1017.999, 918.0000
1019.110, 922.0000
1020.220, 919.0000
1021.331, 921.6331
1022.441, 934.0000
1023.551, 927.0000
1024.661, 926.0000
1025.770, 913.0000
1026.880, 910.0000
1027.989, 908.2130
1029.098, 915.0000
1030.207, 912.0000
1031.316, 913.0000
1032.425, 926.0000
1033.533, 924.0000
1034.642, 941.0000
1035.750, 933.0000
1036.858, 920.0000
1037.966, 958.0000
1039.073, 904.0000
1040.181, 934.0000
1041.288, 966.0000
1042.396, 933.0000
1043.503, 913.0000
1044.610, 931.0000
1045.716, 927.0000
1046.823, 936.0000
1047.929, 942.0000
1049.036, 955.0000
1050.142, 920.0000
1051.248, 925.0000
1052.353, 994.0000
1053.459, 978.0000
1054.564, 951.0000
1055.670, 981.0000
1056.775, 960.0000
1057.880, 983.0000
1058.985, 969.0000
1060.089, 985.0000
1061.194, 1002.000
1062.298, 1021.000
1063.402, 1000.000
1064.506, 1013.000
1065.610, 992.0000
1066.713, 1000.000
1067.817, 1014.000
1068.920, 1052.000
1070.023, 1059.000
1071.126, 1078.000
1072.229, 1094.966
1073.332, 1102.000
1074.435, 1129.000
1075.537, 1105.000
1076.639, 1139.000
1077.741, 1183.000
1078.843, 1182.000
1079.945, 1271.000
1081.046, 1283.000
1082.148, 1362.000
1083.249, 1418.000
1084.350, 1507.000
1085.451, 1585.000
1086.551, 1714.000
1087.652, 1887.000
1088.752, 2191.000
1089.853, 2497.000
1090.953, 2986.000
1092.053, 3569.000
1093.152, 4327.000
1094.252, 5295.000
1095.351, 5908.000
1096.451, 6140.000
1097.550, 5535.000
1098.649, 4509.000
1099.748, 3600.000
1100.846, 2917.000
1101.945, 2428.000
1103.043, 2091.000
1104.141, 1844.000
1105.239, 1674.000
1106.337, 1514.000
1107.434, 1389.000
1108.532, 1341.000
1109.629, 1310.000
1110.726, 1212.000
1111.823, 1158.000
1112.920, 1147.000
1114.017, 1127.000
1115.113, 1074.000
1116.210, 1047.000
1117.306, 1061.000
1118.402, 1046.000
1119.498, 1019.000
1120.593, 1024.000
1121.689, 1008.000
1122.784, 1003.000
1123.879, 990.0000
1124.974, 997.0000
1126.069, 1005.000
1127.164, 974.0000
1128.259, 960.0000
1129.353, 979.0000
1130.447, 953.0000
1131.541, 952.0000
1132.635, 923.0000
1133.729, 907.0000
1134.822, 943.0000
1135.916, 951.0000
1137.009, 927.0000
1138.102, 928.0000
1139.195, 931.0000
1140.288, 917.0000
1141.380, 934.0000
1142.473, 902.0000
1143.565, 908.0000
1144.657, 915.0000
1145.749, 906.0000
1146.841, 904.0000
1147.932, 908.0000
1149.024, 896.0000
1150.115, 890.0000
1151.206, 887.8206
1152.297, 900.0000
1153.388, 888.0000
1154.479, 898.0000
1155.569, 917.0000
1156.659, 897.0000
1157.750, 895.0000
1158.839, 908.0000
1159.929, 916.0000
1161.019, 893.0000
1162.108, 903.0000
1163.198, 910.0000
1164.287, 900.0000
1165.376, 905.0000
1166.465, 907.4021
1167.553, 930.0000
1168.642, 911.0000
1169.730, 915.0000
1170.818, 908.0000
1171.906, 939.0000
1172.994, 902.0000
1174.082, 930.0000
1175.170, 911.0000
1176.257, 899.0000
1177.344, 913.0000
1178.431, 922.0000
1179.518, 905.0000
1180.605, 898.0000
1181.691, 902.0000
1182.778, 882.0000
1183.864, 909.0000
1184.950, 895.0000
1186.036, 884.0000
1187.122, 905.0000
1188.207, 912.0000
1189.292, 875.0000
1190.378, 895.0000
1191.463, 895.0000
1192.548, 886.0000
1193.632, 899.0000
1194.717, 900.0000
1195.801, 893.0000
1196.886, 898.4624
1197.970, 889.0000
1199.054, 895.0000
1200.137, 884.0000
1201.221, 878.0000
1202.305, 887.0000
1203.388, 888.0000
1204.471, 891.0000
1205.554, 897.0000
1206.637, 889.0000
1207.719, 876.0000
1208.802, 871.0000
1209.884, 867.0000
1210.966, 870.4333
1212.048, 867.0000
1213.130, 888.0000
1214.212, 906.0000
1215.293, 921.0000
1216.374, 886.0000
1217.456, 880.0000
1218.536, 927.0000
1219.617, 878.0000
1220.698, 900.0000
1221.778, 879.0000
1222.859, 886.0000
1223.939, 902.0000
1225.019, 883.0000
1226.099, 870.0000
1227.178, 881.0000
1228.258, 889.0000
1229.337, 868.0000
1230.417, 888.0000
1231.496, 888.0000
1232.574, 859.0000
1233.653, 889.0000
1234.732, 879.0000
1235.810, 905.0000
1236.888, 873.0000
1237.966, 868.0000
1239.044, 883.0000
1240.122, 896.0000
1241.199, 900.0000
1242.277, 886.0000
1243.354, 882.0000
1244.431, 905.0000
1245.508, 871.0000
1246.585, 893.0000
1247.661, 869.0000
1248.738, 884.0000
1249.814, 897.0000
1250.890, 907.0000
1251.966, 894.0000
1253.042, 894.0000
1254.117, 898.5985
1255.193, 889.1447
1256.268, 904.0000
1257.343, 893.0000
1258.418, 889.0000
1259.493, 919.0000
1260.567, 933.0000
1261.642, 890.0000
1262.716, 907.0000
1263.790, 911.0000
1264.864, 887.0000
1265.938, 887.0000
1267.011, 913.0000
1268.085, 879.0000
1269.158, 910.0000
1270.231, 881.0000
1271.304, 911.0000
1272.377, 879.0000
1273.450, 900.0000
1274.522, 928.0000
1275.594, 911.0000
1276.666, 940.0000
1277.738, 908.0000
1278.810, 894.0000
1279.882, 932.0000
1280.953, 898.0000
1282.025, 909.0000
1283.096, 914.0000
1284.167, 912.0000
1285.238, 913.0000
1286.308, 917.1526
1287.379, 941.0000
1288.449, 920.0000
1289.519, 928.0000
1290.589, 920.0000
1291.659, 901.0000
1292.729, 904.0000
1293.798, 927.0000
1294.868, 917.0000
1295.937, 920.0000
1297.006, 886.0000
1298.075, 924.0000
1299.143, 883.0000
1300.212, 951.0000
1301.280, 919.0000
1302.348, 941.0000
1303.416, 934.0000
1304.484, 907.0000
1305.552, 906.0000
1306.620, 909.0000
1307.687, 902.5248
1308.754, 913.2621
1309.821, 910.0000
1310.888, 925.0000
1311.955, 933.0000
1313.021, 923.0000
1314.088, 932.0000
1315.154, 883.0000
1316.220, 927.0000
1317.286, 891.0000
1318.352, 869.0000
1319.417, 895.0000
1320.483, 910.0000
1321.548, 899.0000
1322.613, 919.0000
1323.678, 914.0000
1324.743, 925.0000
1325.807, 934.0000
1326.872, 925.0000
1327.936, 917.0000
1329.000, 934.0000
1330.064, 900.0000
1331.128, 942.0000
1332.191, 920.0000
1333.255, 920.0000
1334.318, 909.0000
1335.381, 905.0000
1336.444, 935.0000
1337.507, 933.0000
1338.569, 966.0000
1339.632, 933.0000
1340.694, 927.0000
1341.756, 958.0000
1342.818, 908.0000
1343.880, 930.0000
1344.941, 942.0000
1346.003, 950.0000
1347.064, 952.6276
1348.125, 923.0000
1349.186, 954.0000
1350.247, 938.0000
1351.308, 955.0000
1352.368, 918.0000
1353.428, 919.0000
1354.489, 971.0000
1355.549, 946.0000
1356.608, 932.0000
1357.668, 955.0000
1358.727, 930.0000
1359.787, 952.0000
1360.846, 960.0000
1361.905, 960.0000
1362.964, 948.0000
1364.022, 964.0000
1365.081, 954.0000
1366.139, 998.0000
1367.197, 992.8195
1368.255, 991.7266
1369.313, 987.0000
1370.371, 985.0000
1371.428, 988.4852
1372.486, 991.4760
1373.543, 989.0000
1374.600, 1007.000
1375.657, 991.0000
1376.713, 1002.000
1377.770, 1031.000
1378.826, 1063.000
1379.882, 1049.000
1380.938, 1092.000
1381.994, 1098.000
1383.050, 1142.000
1384.106, 1097.000
1385.161, 1093.000
1386.216, 1142.000
1387.271, 1107.000
1388.326, 1118.000
1389.381, 1109.000
1390.435, 1103.000
1391.490, 1142.000
1392.544, 1136.000
1393.598, 1155.000
1394.652, 1142.000
1395.705, 1171.000
1396.759, 1209.000
1397.812, 1230.946
1398.866, 1268.270
1399.919, 1296.000
1400.972, 1341.000
1402.024, 1349.000
1403.077, 1392.000
1404.129, 1449.353
1405.181, 1508.042
1406.233, 1592.000
1407.285, 1671.000
1408.337, 1774.000
1409.389, 1874.000
1410.440, 2021.000
1411.491, 2168.000
1412.542, 2341.000
1413.593, 2632.000
1414.644, 3051.000
1415.695, 3478.000
1416.745, 4043.000
1417.795, 4618.000
1418.845, 5144.000
1419.895, 5369.000
1420.945, 5272.000
1421.995, 5202.000
1423.044, 5271.000
1424.093, 5568.000
1425.142, 6274.000
1426.191, 7447.000
1427.240, 9114.000
1428.289, 11417.00
1429.337, 13266.00
1430.385, 14349.00
1431.433, 13387.00
1432.481, 11111.00
1433.529, 8922.000
1434.577, 6858.000
1435.624, 5375.000
1436.672, 4370.000
1437.719, 3592.000
1438.766, 2965.000
1439.812, 2550.000
1440.859, 2307.000
1441.905, 2107.000
1442.952, 1863.000
1443.998, 1754.000
1445.044, 1624.000
1446.090, 1533.000
1447.135, 1481.000
1448.181, 1445.000
1449.226, 1415.897
1450.271, 1432.000
1451.316, 1417.000
1452.361, 1444.000
1453.405, 1481.000
1454.450, 1576.000
1455.494, 1837.000
1456.538, 2194.000
1457.582, 2569.000
1458.626, 2946.000
1459.670, 2961.000
1460.713, 2555.000
1461.757, 2142.000
1462.800, 1710.000
1463.843, 1537.000
1464.886, 1336.000
1465.928, 1242.000
1466.971, 1217.000
1468.013, 1157.000
1469.055, 1134.000
1470.097, 1092.000
1471.139, 1083.000
1472.181, 1070.000
1473.222, 1054.000
1474.263, 1054.000
1475.305, 1034.000
1476.346, 1002.000
1477.386, 1045.000
1478.427, 1019.000
1479.468, 1015.000
1480.508, 1051.000
1481.548, 1019.000
1482.588, 1025.000
1483.628, 1040.000
1484.668, 1036.000
1485.707, 1033.486
1486.747, 1026.000
1487.786, 1025.000
1488.825, 1015.000
1489.864, 1030.000
1490.902, 1022.000
1491.941, 1019.000
1492.979, 1040.000
1494.017, 999.0000
1495.055, 1032.000
1496.093, 1037.000
1497.131, 998.0000
1498.168, 1047.000
1499.206, 1030.000
1500.243, 1012.000
1501.280, 1016.000
1502.317, 1036.000
1503.354, 1060.000
1504.390, 1082.000
1505.426, 1020.000
1506.463, 1061.000
1507.499, 1077.000
1508.535, 1057.000
1509.570, 1088.000
1510.606, 1079.000
1511.641, 1042.000
1512.676, 1095.000
1513.711, 1092.000
1514.746, 1105.000
1515.781, 1089.000
1516.816, 1107.000
1517.850, 1107.000
1518.884, 1133.000
1519.918, 1115.000
1520.952, 1174.000
1521.986, 1154.000
1523.019, 1148.000
1524.053, 1174.000
1525.086, 1141.000
1526.119, 1147.000
1527.152, 1125.000
1528.185, 1168.000
1529.217, 1161.000
1530.250, 1172.000
1531.282, 1188.000
1532.314, 1152.000
1533.346, 1158.000
1534.377, 1202.000
1535.409, 1153.000
1536.440, 1182.000
1537.472, 1176.000
1538.503, 1185.000
1539.534, 1173.269
1540.564, 1157.000
1541.595, 1143.000
1542.625, 1153.000
1543.656, 1155.000
1544.686, 1124.000
1545.716, 1131.000
1546.745, 1153.000
1547.775, 1133.000
1548.804, 1152.000
1549.834, 1153.000
1550.863, 1164.000
1551.892, 1159.000
1552.920, 1169.000
1553.949, 1219.000
1554.977, 1239.000
1556.006, 1246.000
1557.034, 1230.000
1558.062, 1207.000
1559.089, 1222.000
1560.117, 1206.000
1561.144, 1234.000
1562.172, 1303.000
1563.199, 1336.000
1564.226, 1348.000
1565.252, 1424.000
1566.279, 1452.000
1567.305, 1552.000
1568.332, 1672.000
1569.358, 1830.000
1570.384, 2049.000
1571.409, 2433.000
##END=



