##NAMES=Azurite
##RRUFFID=R050497
##IDEAL CHEMISTRY=Cu^2+^_3_(CO_3_)_2_(OH)_2_
##LOCALITY=Tsumeb mine, Tsumeb, Otavi District, Oshikoto, Namibia
##OWNER=RRUFF
##SOURCE=Marcus Origlieri
##DESCRIPTION=Blue prismatic single crystal
##STATUS=The identification of this mineral has been confirmed by X-ray diffraction and chemical analysis
##URL=rruff.info/R050497
##MEASURED CHEMISTRY=Cu_3.00_(CO_3_)_2_(OH)_2_
##PIN_ID=L01223
##ORIENTATION=Laser parallel to -a* (-1 0 0). Fiducial mark perpendicular to laser is parallel to b [0 1 0]
52.67100, 422.0000
53.91000, 436.0000
55.14900, 441.0000
56.38700, 428.0000
57.62600, 448.0000
58.86400, 451.0000
60.10300, 476.0000
61.34100, 481.0000
62.57900, 515.0000
63.81700, 538.0000
65.05400, 545.0000
66.29200, 588.0000
67.52900, 641.0000
68.76700, 696.0000
70.00400, 836.0000
71.24100, 1008.000
72.47700, 1041.000
73.71400, 1074.000
74.95100, 1099.000
76.18700, 1294.000
77.42300, 1378.000
78.65900, 1461.000
79.89500, 1722.000
81.13100, 1965.000
82.36700, 2156.000
83.60200, 2210.000
84.83700, 2042.000
86.07200, 1894.000
87.30800, 1779.000
88.54200, 1764.000
89.77700, 1840.000
91.01200, 1962.000
92.24600, 2045.000
93.48000, 2094.000
94.71400, 2018.000
95.94800, 1994.000
97.18200, 1987.000
98.41600, 1974.663
99.64900, 1966.000
100.8830, 2021.000
102.1160, 2037.000
103.3490, 2105.000
104.5820, 2277.000
105.8150, 2498.000
107.0470, 2868.000
108.2800, 3494.000
109.5120, 4387.000
110.7440, 4677.000
111.9760, 3716.000
113.2080, 2936.000
114.4400, 2516.000
115.6710, 2428.000
116.9030, 2417.000
118.1340, 2264.000
119.3650, 2204.000
120.5960, 2209.000
121.8270, 2423.000
123.0580, 2750.000
124.2880, 3034.000
125.5190, 3361.000
126.7490, 3879.000
127.9790, 5181.000
129.2090, 6462.000
130.4390, 6318.000
131.6680, 4953.000
132.8980, 3911.000
134.1270, 3423.000
135.3560, 3476.000
136.5850, 3745.000
137.8140, 4115.000
139.0430, 4985.000
140.2710, 6054.000
141.5000, 6789.000
142.7280, 6004.000
143.9560, 4837.000
145.1840, 3796.000
146.4120, 3178.000
147.6390, 2836.000
148.8670, 2616.000
150.0940, 2592.000
151.3210, 2575.000
152.5490, 2648.000
153.7750, 2534.000
155.0020, 2398.000
156.2290, 2341.000
157.4550, 2370.000
158.6810, 2559.000
159.9080, 2801.000
161.1340, 3216.000
162.3590, 3923.000
163.5850, 4916.000
164.8110, 5887.000
166.0360, 7410.000
167.2610, 9820.000
168.4860, 11764.00
169.7110, 11736.00
170.9360, 9532.000
172.1610, 6781.000
173.3850, 4966.000
174.6100, 3918.000
175.8340, 3360.000
177.0580, 3006.000
178.2820, 2756.000
179.5050, 2547.000
180.7290, 2425.000
181.9520, 2359.000
183.1760, 2411.000
184.3990, 2451.000
185.6220, 2597.000
186.8450, 2797.000
188.0670, 3047.000
189.2900, 3349.000
190.5120, 3661.000
191.7340, 3773.000
192.9560, 3728.000
194.1780, 3472.000
195.4000, 3160.000
196.6220, 2847.000
197.8430, 2659.000
199.0640, 2520.000
200.2860, 2428.000
201.5070, 2451.000
202.7270, 2474.000
203.9480, 2464.000
205.1690, 2301.000
206.3890, 2103.000
207.6090, 1937.000
208.8290, 1923.000
210.0490, 2018.000
211.2690, 1951.000
212.4890, 1978.000
213.7080, 1977.000
214.9280, 1983.000
216.1470, 1923.000
217.3660, 1861.000
218.5850, 1832.000
219.8030, 1874.000
221.0220, 1815.000
222.2400, 1871.000
223.4590, 1929.000
224.6770, 1902.000
225.8950, 1969.000
227.1120, 1962.000
228.3300, 2083.000
229.5480, 2226.000
230.7650, 2265.000
231.9820, 2412.000
233.1990, 2616.000
234.4160, 2883.000
235.6330, 3172.000
236.8490, 3490.000
238.0660, 4001.000
239.2820, 4831.000
240.4980, 5967.000
241.7140, 7451.000
242.9300, 9454.000
244.1460, 12582.00
245.3610, 15333.00
246.5770, 15123.00
247.7920, 12234.00
249.0070, 8481.000
250.2220, 5994.000
251.4370, 4598.000
252.6510, 3895.000
253.8660, 3302.000
255.0800, 3099.000
256.2940, 2953.000
257.5080, 2909.000
258.7220, 3027.000
259.9360, 3380.000
261.1490, 3930.000
262.3630, 3958.000
263.5760, 3925.000
264.7890, 3902.000
266.0020, 4011.583
267.2150, 3599.000
268.4270, 4241.000
269.6400, 4179.000
270.8520, 4295.000
272.0640, 4965.000
273.2760, 5871.000
274.4880, 6720.000
275.7000, 7884.000
276.9120, 9106.000
278.1230, 10043.00
279.3340, 10336.00
280.5450, 10090.00
281.7560, 9169.000
282.9670, 8150.000
284.1780, 6987.000
285.3880, 5928.000
286.5980, 5113.000
287.8090, 4393.000
289.0190, 3916.000
290.2290, 3488.000
291.4380, 3164.000
292.6480, 2878.000
293.8570, 2601.000
295.0670, 2481.000
296.2760, 2363.000
297.4850, 2180.000
298.6930, 2098.000
299.9020, 2107.000
301.1110, 2055.000
302.3190, 1979.000
303.5270, 1922.000
304.7350, 1899.000
305.9430, 1922.000
307.1510, 1876.000
308.3580, 1882.000
309.5660, 1884.444
310.7730, 1860.000
311.9800, 1888.000
313.1870, 1872.000
314.3940, 1859.000
315.6010, 1875.000
316.8070, 1917.000
318.0130, 1920.000
319.2200, 1992.000
320.4260, 2025.000
321.6310, 2107.000
322.8370, 2184.000
324.0430, 2219.000
325.2480, 2267.000
326.4540, 2344.000
327.6590, 2394.000
328.8640, 2480.000
330.0680, 2474.000
331.2730, 2509.000
332.4780, 2460.000
333.6820, 2402.000
334.8860, 2391.000
336.0900, 2392.000
337.2940, 2338.000
338.4980, 2387.000
339.7010, 2378.000
340.9050, 2433.000
342.1080, 2501.000
343.3110, 2532.000
344.5140, 2580.000
345.7170, 2687.000
346.9200, 2747.000
348.1220, 2808.000
349.3240, 2972.000
350.5270, 3054.000
351.7290, 3244.000
352.9310, 3418.000
354.1320, 3546.000
355.3340, 3868.000
356.5350, 4109.000
357.7370, 4473.000
358.9380, 4779.000
360.1390, 5146.000
361.3400, 5528.000
362.5400, 6012.000
363.7410, 6504.000
364.9410, 7034.000
366.1410, 7644.000
367.3410, 8341.000
368.5410, 9165.000
369.7410, 10124.00
370.9400, 11185.00
372.1400, 12315.00
373.3390, 13628.00
374.5380, 15192.00
375.7370, 16798.00
376.9360, 18251.00
378.1350, 19913.00
379.3330, 21191.00
380.5310, 22332.00
381.7300, 23101.00
382.9280, 23294.00
384.1260, 23440.00
385.3230, 23348.00
386.5210, 23158.00
387.7180, 23236.00
388.9160, 24012.00
390.1130, 25357.00
391.3100, 27728.00
392.5060, 30817.00
393.7030, 34993.00
394.9000, 39977.00
396.0960, 45224.00
397.2920, 49836.00
398.4880, 51652.00
399.6840, 50292.00
400.8800, 46470.00
402.0750, 41095.00
403.2710, 35597.00
404.4660, 31735.00
405.6610, 28502.00
406.8560, 25971.00
408.0510, 23943.00
409.2450, 21675.00
410.4400, 19565.00
411.6340, 17250.00
412.8280, 15259.00
414.0220, 13357.00
415.2160, 11789.00
416.4100, 10685.00
417.6030, 9610.000
418.7970, 8746.000
419.9900, 8038.000
421.1830, 7285.000
422.3760, 6937.000
423.5690, 6379.000
424.7610, 6088.000
425.9540, 5824.000
427.1460, 5418.000
428.3380, 5063.000
429.5300, 4919.000
430.7220, 4666.000
431.9140, 4320.000
433.1050, 4214.000
434.2970, 3941.000
435.4880, 3752.000
436.6790, 3498.000
437.8700, 3337.000
439.0610, 3167.000
440.2510, 3032.000
441.4420, 2877.000
442.6320, 2791.000
443.8220, 2672.000
445.0120, 2631.000
446.2020, 2467.000
447.3910, 2436.000
448.5810, 2304.000
449.7700, 2290.000
450.9600, 2258.000
452.1490, 2232.000
453.3370, 2212.000
454.5260, 2179.891
455.7150, 2172.000
456.9030, 2117.000
458.0910, 2124.000
459.2800, 2083.638
460.4670, 2165.000
461.6550, 2067.000
462.8430, 2098.000
464.0300, 2113.000
465.2180, 2093.000
466.4050, 2086.000
467.5920, 2040.000
468.7790, 2062.000
469.9650, 2026.000
471.1520, 1916.000
472.3380, 1952.000
473.5250, 1971.000
474.7110, 1891.000
475.8970, 1896.000
477.0820, 1901.000
478.2680, 1832.000
479.4540, 1820.000
480.6390, 1779.000
481.8240, 1868.000
483.0090, 1802.000
484.1940, 1831.000
485.3780, 1800.000
486.5630, 1762.000
487.7470, 1810.000
488.9320, 1775.000
490.1160, 1783.000
491.3000, 1698.000
492.4830, 1730.000
493.6670, 1754.000
494.8500, 1683.000
496.0340, 1730.000
497.2170, 1688.000
498.4000, 1687.000
499.5820, 1637.000
500.7650, 1681.000
501.9480, 1638.000
503.1300, 1644.000
504.3120, 1569.000
505.4940, 1544.070
506.6760, 1601.860
507.8580, 1628.827
509.0390, 1626.637
510.2210, 1507.910
511.4020, 1539.663
512.5830, 1511.115
513.7640, 1480.094
514.9450, 1533.026
516.1250, 1431.268
517.3060, 1482.868
518.4860, 1398.000
519.6660, 1400.000
520.8460, 1412.000
522.0260, 1404.000
523.2060, 1391.000
524.3850, 1357.000
525.5650, 1387.000
526.7440, 1385.000
527.9230, 1348.000
529.1020, 1363.000
530.2810, 1343.000
531.4590, 1345.000
532.6380, 1345.000
533.8160, 1296.000
534.9940, 1362.000
536.1720, 1380.000
537.3500, 1376.000
538.5270, 1343.000
539.7050, 1358.000
540.8820, 1361.000
542.0590, 1373.000
543.2360, 1358.438
544.4130, 1362.000
545.5900, 1327.000
546.7660, 1313.000
547.9430, 1305.000
549.1190, 1309.000
550.2950, 1271.000
551.4710, 1290.000
552.6470, 1238.000
553.8220, 1198.000
554.9980, 1257.000
556.1730, 1222.000
557.3480, 1234.000
558.5230, 1243.000
559.6980, 1202.000
560.8730, 1239.000
562.0470, 1184.000
563.2220, 1198.000
564.3960, 1191.000
565.5700, 1183.000
566.7440, 1187.000
567.9170, 1191.000
569.0910, 1163.000
570.2640, 1186.000
571.4380, 1203.000
572.6110, 1169.000
573.7840, 1139.000
574.9570, 1173.000
576.1290, 1217.000
577.3020, 1166.000
578.4740, 1165.000
579.6460, 1149.000
580.8180, 1137.024
581.9900, 1141.758
583.1620, 1125.000
584.3330, 1148.000
585.5040, 1128.000
586.6760, 1126.000
587.8470, 1129.000
589.0180, 1159.000
590.1880, 1128.000
591.3590, 1137.000
592.5290, 1109.000
593.7000, 1142.000
594.8700, 1132.000
596.0400, 1162.000
597.2090, 1122.000
598.3790, 1123.000
599.5490, 1116.000
600.7180, 1095.000
601.8870, 1092.000
603.0560, 1105.000
604.2250, 1102.000
605.3940, 1075.000
606.5620, 1091.000
607.7300, 1133.000
608.8990, 1067.000
610.0670, 1106.000
611.2350, 1078.000
612.4020, 1083.000
613.5700, 1112.000
614.7370, 1032.000
615.9050, 1050.000
617.0720, 1062.000
618.2390, 1026.000
619.4060, 1067.000
620.5720, 1068.000
621.7390, 1073.000
622.9050, 1084.221
624.0710, 1069.000
625.2370, 1072.000
626.4030, 1074.000
627.5690, 1039.000
628.7340, 1045.000
629.9000, 1044.000
631.0650, 1042.545
632.2300, 1051.000
633.3950, 1068.000
634.5600, 1064.000
635.7240, 1093.000
636.8890, 1090.418
638.0530, 1058.000
639.2170, 1097.000
640.3810, 1076.845
641.5450, 1080.259
642.7080, 1086.000
643.8720, 1060.000
645.0350, 1059.000
646.1980, 1065.000
647.3610, 1063.000
648.5240, 1065.383
649.6870, 1085.000
650.8490, 1062.000
652.0120, 1081.000
653.1740, 1068.000
654.3360, 1080.000
655.4980, 1053.000
656.6600, 1037.000
657.8210, 1043.000
658.9830, 1051.000
660.1440, 1034.000
661.3050, 1063.000
662.4660, 1049.000
663.6270, 1047.000
664.7870, 1056.000
665.9480, 1068.000
667.1080, 1040.000
668.2680, 1037.000
669.4280, 1050.000
670.5880, 1078.000
671.7480, 1058.000
672.9070, 1048.000
674.0670, 1051.000
675.2260, 1041.636
676.3850, 1076.000
677.5440, 1052.000
678.7030, 1036.000
679.8610, 1067.000
681.0200, 1095.000
682.1780, 1073.000
683.3360, 1068.000
684.4940, 1073.000
685.6520, 1089.000
686.8090, 1079.000
687.9670, 1106.356
689.1240, 1101.053
690.2810, 1140.000
691.4380, 1103.000
692.5950, 1089.000
693.7520, 1091.000
694.9080, 1132.000
696.0650, 1116.000
697.2210, 1148.000
698.3770, 1149.000
699.5330, 1155.000
700.6880, 1154.000
701.8440, 1163.323
702.9990, 1197.000
704.1550, 1178.000
705.3100, 1204.000
706.4650, 1206.438
707.6190, 1246.000
708.7740, 1256.000
709.9290, 1266.000
711.0830, 1320.000
712.2370, 1385.000
713.3910, 1343.000
714.5450, 1383.000
715.6980, 1406.000
716.8520, 1486.000
718.0050, 1534.000
719.1580, 1659.000
720.3110, 1681.000
721.4640, 1786.000
722.6170, 1874.000
723.7700, 2016.033
724.9220, 2246.000
726.0740, 2378.000
727.2260, 2627.000
728.3780, 2870.000
729.5300, 3239.000
730.6810, 3629.000
731.8330, 4101.000
732.9840, 4532.000
734.1350, 4964.000
735.2860, 5303.000
736.4370, 5442.000
737.5880, 5383.000
738.7380, 4968.000
739.8880, 4656.000
741.0390, 4099.000
742.1890, 3747.000
743.3380, 3345.000
744.4880, 3046.000
745.6380, 2820.000
746.7870, 2650.000
747.9360, 2498.000
749.0850, 2437.000
750.2340, 2380.000
751.3830, 2338.000
752.5310, 2354.000
753.6800, 2471.000
754.8280, 2614.000
755.9760, 2768.000
757.1240, 2959.000
758.2720, 3124.000
759.4190, 3268.000
760.5670, 3457.000
761.7140, 3535.000
762.8610, 3486.000
764.0080, 3380.000
765.1550, 3182.000
766.3020, 3032.000
767.4480, 2764.000
768.5950, 2561.000
769.7410, 2356.000
770.8870, 2158.000
772.0330, 1977.000
773.1780, 1917.000
774.3240, 1758.000
775.4690, 1639.000
776.6140, 1647.000
777.7590, 1533.070
778.9040, 1546.000
780.0490, 1435.000
781.1940, 1373.000
782.3380, 1340.000
783.4820, 1321.000
784.6260, 1247.000
785.7700, 1261.000
786.9140, 1273.000
788.0580, 1222.000
789.2010, 1256.000
790.3450, 1237.000
791.4880, 1216.000
792.6310, 1188.000
793.7730, 1186.357
794.9160, 1210.000
796.0590, 1191.000
797.2010, 1227.000
798.3430, 1253.000
799.4850, 1227.000
800.6270, 1246.000
801.7690, 1199.000
802.9100, 1252.000
804.0520, 1232.000
805.1930, 1262.000
806.3340, 1322.000
807.4750, 1335.000
808.6160, 1486.000
809.7560, 1635.000
810.8970, 1889.000
812.0370, 2240.000
813.1770, 2549.000
814.3170, 3013.000
815.4570, 3248.000
816.5960, 3155.000
817.7360, 2816.000
818.8750, 2449.000
820.0140, 2192.000
821.1530, 2053.000
822.2920, 1887.000
823.4310, 1869.000
824.5690, 1773.000
825.7070, 1741.000
826.8460, 1733.000
827.9840, 1716.000
829.1220, 1667.000
830.2590, 1737.000
831.3970, 1698.000
832.5340, 1736.000
833.6710, 1654.000
834.8080, 1606.000
835.9450, 1555.000
837.0820, 1500.000
838.2190, 1436.000
839.3550, 1375.000
840.4910, 1363.000
841.6270, 1355.000
842.7630, 1276.000
843.8990, 1276.000
845.0350, 1244.000
846.1700, 1239.000
847.3060, 1216.000
848.4410, 1178.000
849.5760, 1161.000
850.7100, 1129.000
851.8450, 1139.000
852.9800, 1119.000
854.1140, 1099.000
855.2480, 1131.000
856.3820, 1070.000
857.5160, 1078.000
858.6500, 1109.000
859.7830, 1097.000
860.9170, 1054.000
862.0500, 1050.000
863.1830, 1053.735
864.3160, 1077.000
865.4480, 1068.000
866.5810, 1096.000
867.7130, 1076.000
868.8460, 1087.000
869.9780, 1111.000
871.1100, 1107.000
872.2410, 1099.000
873.3730, 1129.000
874.5050, 1119.000
875.6360, 1138.997
876.7670, 1139.000
877.8980, 1157.000
879.0290, 1168.000
880.1590, 1144.000
881.2900, 1164.000
882.4200, 1171.000
883.5500, 1186.000
884.6800, 1153.000
885.8100, 1141.000
886.9400, 1188.000
888.0690, 1166.000
889.1990, 1192.000
890.3280, 1159.000
891.4570, 1176.000
892.5860, 1169.000
893.7140, 1176.000
894.8430, 1194.000
895.9710, 1177.000
897.1000, 1218.000
898.2280, 1195.000
899.3560, 1189.000
900.4830, 1203.000
901.6110, 1181.000
902.7380, 1213.000
903.8660, 1213.000
904.9930, 1213.000
906.1200, 1203.000
907.2460, 1221.273
908.3730, 1261.000
909.5000, 1247.000
910.6260, 1280.000
911.7520, 1277.000
912.8780, 1308.000
914.0040, 1321.000
915.1290, 1327.000
916.2550, 1311.000
917.3800, 1346.000
918.5050, 1377.000
919.6300, 1422.000
920.7550, 1459.689
921.8800, 1512.000
923.0040, 1553.000
924.1290, 1596.000
925.2530, 1661.000
926.3770, 1776.000
927.5010, 1930.000
928.6250, 1973.000
929.7480, 2142.000
930.8720, 2311.000
931.9950, 2422.000
933.1180, 2587.000
934.2410, 2655.000
935.3640, 2709.000
936.4860, 2742.000
937.6090, 2689.000
938.7310, 2654.000
939.8530, 2555.000
940.9750, 2425.000
942.0970, 2273.000
943.2180, 2150.000
944.3400, 2025.000
945.4610, 1916.000
946.5820, 1803.000
947.7030, 1721.000
948.8240, 1593.000
949.9450, 1549.000
951.0650, 1491.000
952.1860, 1403.000
953.3060, 1455.000
954.4260, 1380.000
955.5460, 1407.000
956.6650, 1337.000
957.7850, 1307.000
958.9040, 1346.000
960.0230, 1230.000
961.1420, 1228.000
962.2610, 1230.000
963.3800, 1198.000
964.4990, 1226.000
965.6170, 1219.000
966.7350, 1166.000
967.8530, 1204.000
968.9710, 1180.000
970.0890, 1196.000
971.2070, 1167.000
972.3240, 1156.000
973.4410, 1152.000
974.5580, 1149.000
975.6750, 1158.000
976.7920, 1142.000
977.9090, 1131.000
979.0250, 1147.000
980.1410, 1128.000
981.2580, 1130.000
982.3740, 1105.000
983.4890, 1117.000
984.6050, 1087.000
985.7200, 1074.000
986.8360, 1080.000
987.9510, 1067.000
989.0660, 1073.000
990.1810, 1073.000
991.2950, 1084.000
992.4100, 1069.000
993.5240, 1084.000
994.6390, 1056.000
995.7530, 1056.000
996.8660, 1051.000
997.9800, 1049.000
999.0940, 1074.000
1000.207, 1037.000
1001.320, 1067.000
1002.433, 1002.000
1003.546, 988.0000
1004.659, 1011.000
1005.772, 984.0000
1006.884, 996.0000
1007.996, 1013.000
1009.108, 1016.000
1010.220, 993.0000
1011.332, 1020.000
1012.444, 981.0000
1013.555, 1015.000
1014.666, 994.0000
1015.777, 1021.000
1016.888, 961.0000
1017.999, 960.0000
1019.110, 980.0000
1020.220, 987.0000
1021.331, 978.0000
1022.441, 985.0000
1023.551, 977.4590
1024.661, 1004.000
1025.770, 970.0000
1026.880, 948.0000
1027.989, 956.0000
1029.098, 982.0000
1030.207, 1000.000
1031.316, 991.0000
1032.425, 975.0000
1033.533, 1008.000
1034.642, 995.0000
1035.750, 995.0000
1036.858, 1006.000
1037.966, 1013.000
1039.073, 1002.000
1040.181, 1002.000
1041.288, 1021.000
1042.396, 1008.000
1043.503, 990.0000
1044.610, 1027.000
1045.716, 1004.000
1046.823, 1056.000
1047.929, 1004.000
1049.036, 1026.000
1050.142, 1011.000
1051.248, 1035.000
1052.353, 1039.000
1053.459, 1068.000
1054.564, 1037.000
1055.670, 1041.000
1056.775, 1079.000
1057.880, 1070.000
1058.985, 1088.000
1060.089, 1105.000
1061.194, 1105.000
1062.298, 1118.000
1063.402, 1128.000
1064.506, 1101.000
1065.610, 1141.000
1066.713, 1162.000
1067.817, 1141.000
1068.920, 1218.000
1070.023, 1267.000
1071.126, 1287.000
1072.229, 1304.000
1073.332, 1368.000
1074.435, 1388.000
1075.537, 1425.000
1076.639, 1438.000
1077.741, 1472.000
1078.843, 1581.000
1079.945, 1618.000
1081.046, 1764.000
1082.148, 1864.000
1083.249, 1979.000
1084.350, 2217.000
1085.451, 2400.000
1086.551, 2779.000
1087.652, 3320.000
1088.752, 3965.000
1089.853, 4905.000
1090.953, 6229.000
1092.053, 7687.000
1093.152, 9522.000
1094.252, 10681.00
1095.351, 11107.00
1096.451, 9777.000
1097.550, 7948.000
1098.649, 6166.000
1099.748, 4863.000
1100.846, 3921.000
1101.945, 3213.000
1103.043, 2730.000
1104.141, 2392.000
1105.239, 2112.000
1106.337, 1932.000
1107.434, 1729.000
1108.532, 1633.000
1109.629, 1587.000
1110.726, 1479.000
1111.823, 1393.000
1112.920, 1368.000
1114.017, 1278.000
1115.113, 1240.000
1116.210, 1233.000
1117.306, 1206.000
1118.402, 1175.000
1119.498, 1157.000
1120.593, 1139.000
1121.689, 1116.951
1122.784, 1098.000
1123.879, 1083.000
1124.974, 1061.855
1126.069, 1050.000
1127.164, 1028.000
1128.259, 1017.321
1129.353, 1004.512
1130.447, 997.0000
1131.541, 983.0000
1132.635, 977.0000
1133.729, 967.0000
1134.822, 961.1024
1135.916, 950.0000
1137.009, 947.0000
1138.102, 932.0000
1139.195, 914.0000
1140.288, 924.0000
1141.380, 915.0000
1142.473, 901.0000
1143.565, 911.0000
1144.657, 895.0000
1145.749, 945.0000
1146.841, 913.0000
1147.932, 917.0000
1149.024, 925.0000
1150.115, 882.0000
1151.206, 906.0000
1152.297, 908.0000
1153.388, 897.0000
1154.479, 912.0000
1155.569, 910.0000
1156.659, 908.0000
1157.750, 921.0000
1158.839, 902.0000
1159.929, 905.0000
1161.019, 900.0000
1162.108, 901.8284
1163.198, 907.8784
1164.287, 913.0000
1165.376, 924.0000
1166.465, 928.0000
1167.553, 939.0000
1168.642, 935.0000
1169.730, 934.0444
1170.818, 936.9934
1171.906, 920.0000
1172.994, 935.0000
1174.082, 924.0000
1175.170, 918.0000
1176.257, 931.0000
1177.344, 920.0000
1178.431, 943.0000
1179.518, 961.0000
1180.605, 918.0000
1181.691, 908.0000
1182.778, 913.0000
1183.864, 956.0000
1184.950, 922.0000
1186.036, 943.0000
1187.122, 935.0000
1188.207, 951.0000
1189.292, 946.5516
1190.378, 932.0000
1191.463, 933.0000
1192.548, 920.0000
1193.632, 904.0000
1194.717, 915.0000
1195.801, 890.0000
1196.886, 925.0000
1197.970, 909.0000
1199.054, 910.0000
1200.137, 928.0000
1201.221, 914.0000
1202.305, 898.0000
1203.388, 925.0000
1204.471, 896.0000
1205.554, 935.0000
1206.637, 925.0000
1207.719, 904.0000
1208.802, 882.0000
1209.884, 894.0000
1210.966, 891.0000
1212.048, 874.0000
1213.130, 895.0000
1214.212, 922.0000
1215.293, 914.0000
1216.374, 910.0000
1217.456, 891.0000
1218.536, 909.0000
1219.617, 900.0000
1220.698, 901.0000
1221.778, 889.0000
1222.859, 874.0000
1223.939, 919.0000
1225.019, 911.0000
1226.099, 908.0000
1227.178, 934.0000
1228.258, 903.0000
1229.337, 900.0000
1230.417, 926.0000
1231.496, 931.0000
1232.574, 916.0000
1233.653, 916.0000
1234.732, 929.0000
1235.810, 910.0000
1236.888, 890.0000
1237.966, 926.0000
1239.044, 922.0000
1240.122, 919.0000
1241.199, 924.8831
1242.277, 888.0000
1243.354, 915.0000
1244.431, 899.0000
1245.508, 897.0000
1246.585, 929.0000
1247.661, 921.0000
1248.738, 897.0000
1249.814, 903.0000
1250.890, 910.0000
1251.966, 897.0000
1253.042, 910.0000
1254.117, 917.0000
1255.193, 910.0000
1256.268, 911.0000
1257.343, 911.0000
1258.418, 904.1326
1259.493, 886.0000
1260.567, 902.0000
1261.642, 894.0000
1262.716, 912.0000
1263.790, 918.0000
1264.864, 912.0000
1265.938, 908.0000
1267.011, 938.0000
1268.085, 913.0000
1269.158, 938.0000
1270.231, 934.0000
1271.304, 911.0000
1272.377, 933.0000
1273.450, 948.0000
1274.522, 953.0000
1275.594, 935.0000
1276.666, 896.0000
1277.738, 933.0000
1278.810, 922.0000
1279.882, 943.0000
1280.953, 965.0000
1282.025, 951.0000
1283.096, 953.0000
1284.167, 939.0000
1285.238, 939.0000
1286.308, 936.0000
1287.379, 935.6616
1288.449, 972.0000
1289.519, 935.0000
1290.589, 966.0000
1291.659, 953.0000
1292.729, 927.0000
1293.798, 922.0000
1294.868, 963.0000
1295.937, 908.0000
1297.006, 974.0000
1298.075, 950.0000
1299.143, 956.0000
1300.212, 924.0000
1301.280, 953.0000
1302.348, 942.0000
1303.416, 972.0000
1304.484, 960.0000
1305.552, 952.0000
1306.620, 974.0000
1307.687, 939.0000
1308.754, 964.0000
1309.821, 918.0000
1310.888, 932.0000
1311.955, 920.0000
1313.021, 919.0000
1314.088, 944.0000
1315.154, 965.0000
1316.220, 920.0000
1317.286, 948.0000
1318.352, 934.0000
1319.417, 960.0000
1320.483, 945.0000
1321.548, 938.0000
1322.613, 940.0000
1323.678, 948.0000
1324.743, 955.0000
1325.807, 955.0000
1326.872, 930.0000
1327.936, 964.0000
1329.000, 941.0000
1330.064, 953.0000
1331.128, 940.0000
1332.191, 940.0000
1333.255, 946.9088
1334.318, 951.6899
1335.381, 955.0000
1336.444, 960.0000
1337.507, 956.0000
1338.569, 957.6777
1339.632, 938.0000
1340.694, 950.0000
1341.756, 970.0000
1342.818, 958.0000
1343.880, 932.0000
1344.941, 961.0000
1346.003, 969.0000
1347.064, 945.0000
1348.125, 977.0000
1349.186, 918.0000
1350.247, 983.0000
1351.308, 975.0000
1352.368, 1073.000
1353.428, 1031.806
1354.489, 977.0000
1355.549, 968.0000
1356.608, 960.0000
1357.668, 924.0000
1358.727, 954.0000
1359.787, 944.0000
1360.846, 945.0000
1361.905, 968.0000
1362.964, 963.3268
1364.022, 962.0000
1365.081, 974.0000
1366.139, 972.0000
1367.197, 972.0000
1368.255, 973.0000
1369.313, 989.0000
1370.371, 987.0000
1371.428, 1016.000
1372.486, 1030.000
1373.543, 987.0000
1374.600, 1041.000
1375.657, 1027.000
1376.713, 1091.000
1377.770, 1063.000
1378.826, 1104.000
1379.882, 1136.000
1380.938, 1116.000
1381.994, 1175.000
1383.050, 1195.000
1384.106, 1201.000
1385.161, 1176.000
1386.216, 1239.000
1387.271, 1198.000
1388.326, 1194.000
1389.381, 1234.000
1390.435, 1247.000
1391.490, 1258.000
1392.544, 1225.000
1393.598, 1272.000
1394.652, 1308.000
1395.705, 1348.000
1396.759, 1402.000
1397.812, 1419.000
1398.866, 1412.000
1399.919, 1493.000
1400.972, 1511.000
1402.024, 1659.000
1403.077, 1713.000
1404.129, 1768.000
1405.181, 1922.000
1406.233, 1959.000
1407.285, 2174.000
1408.337, 2235.000
1409.389, 2384.000
1410.440, 2678.000
1411.491, 3000.000
1412.542, 3438.000
1413.593, 4091.058
1414.644, 4637.000
1415.695, 5682.000
1416.745, 6736.000
1417.795, 7764.000
1418.845, 8210.000
1419.895, 8255.000
1420.945, 7952.000
1421.995, 7639.000
1423.044, 7953.000
1424.093, 8769.000
1425.142, 10514.00
1426.191, 13232.00
1427.240, 16701.00
1428.289, 20193.00
1429.337, 22958.00
1430.385, 21655.00
1431.433, 18391.00
1432.481, 14442.00
1433.529, 11065.00
1434.577, 8413.000
1435.624, 6645.000
1436.672, 5282.000
1437.719, 4343.000
1438.766, 3658.000
1439.812, 3098.000
1440.859, 2777.000
1441.905, 2459.000
1442.952, 2297.000
1443.998, 2100.000
1445.044, 1984.000
1446.090, 1914.000
1447.135, 1837.000
1448.181, 1826.000
1449.226, 1817.000
1450.271, 1878.000
1451.316, 1956.000
1452.361, 2124.000
1453.405, 2352.000
1454.450, 2856.000
1455.494, 3647.000
1456.538, 4732.000
1457.582, 6098.000
1458.626, 6377.000
1459.670, 5780.000
1460.713, 4353.000
1461.757, 3342.000
1462.800, 2522.000
1463.843, 2055.000
1464.886, 1804.000
1465.928, 1578.000
1466.971, 1453.000
1468.013, 1375.000
1469.055, 1259.000
1470.097, 1273.000
1471.139, 1247.000
1472.181, 1184.000
1473.222, 1232.000
1474.263, 1163.000
1475.305, 1160.000
1476.346, 1179.000
1477.386, 1143.000
1478.427, 1128.000
1479.468, 1123.000
1480.508, 1133.000
1481.548, 1152.000
1482.588, 1157.000
1483.628, 1152.446
1484.668, 1141.000
1485.707, 1126.000
1486.747, 1131.000
1487.786, 1104.000
1488.825, 1095.000
1489.864, 1105.000
1490.902, 1132.000
1491.941, 1093.000
1492.979, 1106.000
1494.017, 1085.000
1495.055, 1110.000
1496.093, 1108.000
1497.131, 1081.000
1498.168, 1098.000
1499.206, 1105.000
1500.243, 1076.000
1501.280, 1114.000
1502.317, 1137.000
1503.354, 1145.000
1504.390, 1134.000
1505.426, 1100.000
1506.463, 1104.000
1507.499, 1116.000
1508.535, 1123.000
1509.570, 1135.000
1510.606, 1120.000
1511.641, 1139.000
1512.676, 1151.000
1513.711, 1170.000
1514.746, 1128.000
1515.781, 1151.000
1516.816, 1161.000
1517.850, 1148.000
1518.884, 1210.000
1519.918, 1194.000
1520.952, 1193.000
1521.986, 1220.000
1523.019, 1240.000
1524.053, 1213.000
1525.086, 1216.000
1526.119, 1234.000
1527.152, 1231.000
1528.185, 1252.000
1529.217, 1242.000
1530.250, 1238.000
1531.282, 1272.000
1532.314, 1214.000
1533.346, 1238.000
1534.377, 1212.000
1535.409, 1246.000
1536.440, 1257.000
1537.472, 1228.000
1538.503, 1277.000
1539.534, 1250.000
1540.564, 1236.000
1541.595, 1295.000
1542.625, 1229.000
1543.656, 1203.000
1544.686, 1224.000
1545.716, 1207.000
1546.745, 1190.000
1547.775, 1214.000
1548.804, 1224.000
1549.834, 1227.000
1550.863, 1263.097
1551.892, 1283.000
1552.920, 1325.000
1553.949, 1359.000
1554.977, 1385.000
1556.006, 1414.000
1557.034, 1321.000
1558.062, 1291.000
1559.089, 1310.000
1560.117, 1379.000
1561.144, 1375.000
1562.172, 1451.000
1563.199, 1495.094
1564.226, 1637.000
1565.252, 1658.000
1566.279, 1775.000
1567.305, 1973.000
1568.332, 2161.000
1569.358, 2433.000
1570.384, 2883.000
1571.409, 3556.000
##END=



