##NAMES=Baddeleyite
##RRUFFID=R060016
##IDEAL CHEMISTRY=Zr^4+^O_2_
##LOCALITY=Wet Loo, Myanmar
##OWNER=RRUFF
##SOURCE=American Museum of Natural History
##DESCRIPTION=Brown crystal fragment
##STATUS=The identification of this mineral has been confirmed by X-ray diffraction and chemical analysis
##URL=rruff.info/R060016
##MEASURED CHEMISTRY=(Zr_0.99_Ti_0.01_)_Î£=1_O_2_
##PIN_ID=M01376
##ORIENTATION=Laser parallel to c* (0 0 1). Fiducial mark perpendicular to laser is parallel to -a [-1 0 0]
135.7070, 9727.000
136.9380, 9695.000
138.1700, 9810.000
139.4010, 9773.000
140.6330, 9850.000
141.8640, 10011.00
143.0950, 10038.33
144.3250, 10105.00
145.5560, 10219.00
146.7860, 10224.00
148.0160, 10308.00
149.2470, 10458.00
150.4760, 10490.00
151.7060, 10589.00
152.9360, 10614.00
154.1650, 10651.00
155.3950, 10730.00
156.6240, 10862.00
157.8530, 11110.00
159.0820, 11109.00
160.3100, 11371.00
161.5390, 11335.00
162.7670, 11791.00
163.9950, 12185.00
165.2230, 12894.00
166.4510, 13832.00
167.6790, 14752.00
168.9060, 15695.00
170.1340, 16350.00
171.3610, 17666.00
172.5880, 19365.00
173.8150, 21568.00
175.0420, 23724.00
176.2690, 25199.00
177.4950, 26296.00
178.7210, 26326.00
179.9470, 25836.00
181.1730, 24871.00
182.3990, 23433.00
183.6250, 22664.00
184.8500, 23877.00
186.0760, 26078.00
187.3010, 28841.00
188.5260, 30971.00
189.7510, 31981.00
190.9750, 31830.00
192.2000, 29474.00
193.4240, 25527.00
194.6490, 21437.00
195.8730, 17561.00
197.0970, 15276.00
198.3200, 13745.00
199.5440, 12892.00
200.7670, 12373.00
201.9910, 12085.00
203.2140, 11912.00
204.4370, 11858.00
205.6590, 11561.00
206.8820, 11493.00
208.1050, 11502.00
209.3270, 11490.00
210.5490, 11712.00
211.7710, 11815.00
212.9930, 11796.00
214.2150, 12154.00
215.4360, 12115.00
216.6570, 12558.00
217.8790, 12852.00
219.1000, 13085.00
220.3210, 13435.00
221.5410, 13474.00
222.7620, 13313.00
223.9820, 13109.00
225.2030, 12637.00
226.4230, 12180.00
227.6430, 11987.00
228.8620, 11649.00
230.0820, 11443.00
231.3010, 11337.00
232.5210, 11386.00
233.7400, 11304.00
234.9590, 11349.00
236.1780, 11447.00
237.3960, 11344.00
238.6150, 11360.00
239.8330, 11441.00
241.0510, 11308.00
242.2690, 11319.00
243.4870, 11443.00
244.7050, 11228.00
245.9230, 11441.00
247.1400, 11459.00
248.3570, 11488.00
249.5740, 11413.00
250.7910, 11476.00
252.0080, 11532.00
253.2240, 11566.00
254.4410, 11582.00
255.6570, 11577.00
256.8730, 11598.00
258.0890, 11612.73
259.3050, 11646.69
260.5210, 11652.00
261.7360, 11758.00
262.9510, 11784.00
264.1670, 11897.00
265.3820, 11738.00
266.5960, 11835.00
267.8110, 11810.00
269.0260, 11938.00
270.2400, 11705.00
271.4540, 11939.00
272.6680, 11839.00
273.8820, 11809.00
275.0960, 11905.00
276.3090, 11964.00
277.5230, 12133.00
278.7360, 11889.00
279.9490, 12019.00
281.1620, 12145.00
282.3750, 12149.00
283.5880, 12306.00
284.8000, 12056.00
286.0120, 12393.00
287.2240, 12339.00
288.4360, 12389.00
289.6480, 12604.00
290.8600, 12471.00
292.0710, 12885.00
293.2830, 12779.00
294.4940, 13193.00
295.7050, 13056.00
296.9160, 13530.00
298.1260, 13463.00
299.3370, 13852.00
300.5470, 14035.00
301.7580, 14234.00
302.9680, 14522.00
304.1770, 14656.00
305.3870, 14929.00
306.5970, 14809.00
307.8060, 14853.00
309.0150, 14782.00
310.2250, 14537.00
311.4340, 14203.00
312.6420, 14125.00
313.8510, 14028.00
315.0590, 14091.00
316.2680, 13981.00
317.4760, 14084.00
318.6840, 14458.00
319.8920, 14725.00
321.0990, 15297.00
322.3070, 15640.00
323.5140, 16576.00
324.7210, 17327.00
325.9280, 18439.00
327.1350, 19259.00
328.3420, 20682.00
329.5490, 21796.00
330.7550, 23169.00
331.9610, 23709.00
333.1670, 24015.00
334.3730, 23368.00
335.5790, 22044.00
336.7840, 20877.00
337.9900, 19913.00
339.1950, 19371.00
340.4000, 19121.00
341.6050, 19175.00
342.8100, 19485.00
344.0150, 20308.00
345.2190, 20675.00
346.4230, 20905.00
347.6280, 20743.00
348.8320, 19941.00
350.0350, 18996.00
351.2390, 17771.00
352.4430, 16675.00
353.6460, 15767.00
354.8490, 14869.00
356.0520, 14547.00
357.2550, 14113.00
358.4580, 13763.00
359.6600, 13486.00
360.8630, 13309.00
362.0650, 13260.00
363.2670, 13236.00
364.4690, 13098.00
365.6710, 12975.00
366.8720, 13001.00
368.0740, 12968.00
369.2750, 13078.00
370.4760, 13159.00
371.6770, 13116.00
372.8780, 13256.00
374.0780, 13424.00
375.2790, 13648.00
376.4790, 13689.00
377.6790, 13787.00
378.8790, 14066.00
380.0790, 14119.00
381.2790, 14257.00
382.4780, 14236.00
383.6780, 14120.00
384.8770, 13949.00
386.0760, 13743.00
387.2750, 13464.00
388.4730, 13519.00
389.6720, 13272.00
390.8700, 12994.00
392.0690, 13054.00
393.2670, 12902.00
394.4650, 13060.00
395.6620, 12911.00
396.8600, 12712.00
398.0570, 12639.00
399.2550, 12773.00
400.4520, 12802.00
401.6490, 12755.00
402.8450, 12765.00
404.0420, 12876.00
405.2390, 12830.00
406.4350, 12844.40
407.6310, 12775.00
408.8270, 12779.00
410.0230, 12798.00
411.2190, 12724.00
412.4140, 12690.00
413.6090, 12782.00
414.8050, 12808.00
416.0000, 12800.00
417.1940, 12877.00
418.3890, 12823.00
419.5840, 12934.00
420.7780, 12992.00
421.9720, 12938.00
423.1660, 12969.00
424.3600, 13054.00
425.5540, 13016.00
426.7480, 13127.00
427.9410, 13029.00
429.1340, 13064.00
430.3270, 13305.00
431.5200, 13284.00
432.7130, 13317.00
433.9060, 13351.00
435.0980, 13445.00
436.2900, 13611.00
437.4830, 13771.00
438.6750, 13704.00
439.8660, 13674.00
441.0580, 13944.00
442.2500, 14190.00
443.4410, 14160.00
444.6320, 14207.00
445.8230, 14523.00
447.0140, 14681.00
448.2050, 15085.00
449.3950, 15184.00
450.5860, 15491.00
451.7760, 15876.00
452.9660, 16232.00
454.1560, 16943.00
455.3450, 17329.00
456.5350, 18346.00
457.7240, 19076.00
458.9140, 20367.00
460.1030, 22037.00
461.2920, 23913.00
462.4810, 26289.00
463.6690, 29646.00
464.8580, 33378.00
466.0460, 37863.00
467.2340, 42798.00
468.4220, 47711.00
469.6100, 52953.00
470.7970, 58282.00
471.9850, 63148.00
473.1720, 65535.00
474.3590, 65535.00
475.5460, 65136.00
476.7330, 60881.00
477.9200, 54584.00
479.1060, 47059.00
480.2930, 40375.00
481.4790, 34516.00
482.6650, 29780.00
483.8510, 26569.00
485.0370, 24085.00
486.2220, 22125.00
487.4080, 20921.00
488.5930, 19792.00
489.7780, 19039.00
490.9630, 18645.00
492.1480, 18254.00
493.3320, 17883.00
494.5170, 17654.00
495.7010, 17490.00
496.8850, 17521.00
498.0690, 17568.00
499.2530, 17421.61
500.4360, 17445.00
501.6200, 17178.00
502.8030, 17093.00
503.9860, 16870.00
505.1690, 16203.00
506.3520, 15922.00
507.5350, 15607.00
508.7170, 15354.00
509.9000, 15272.00
511.0820, 15058.00
512.2640, 14814.00
513.4460, 14876.00
514.6270, 14730.00
515.8090, 14635.00
516.9900, 14590.00
518.1710, 14478.00
519.3530, 14495.11
520.5330, 14518.95
521.7140, 14538.00
522.8950, 14684.00
524.0750, 14736.00
525.2550, 14886.00
526.4350, 15188.00
527.6150, 15356.00
528.7950, 15674.00
529.9750, 15855.00
531.1540, 16266.00
532.3340, 16544.00
533.5130, 16980.00
534.6920, 17356.00
535.8700, 17987.00
537.0490, 18230.00
538.2280, 18220.00
539.4060, 17892.00
540.5840, 17889.00
541.7620, 17448.00
542.9400, 17294.00
544.1180, 16890.00
545.2950, 17082.00
546.4720, 17248.00
547.6500, 17693.00
548.8270, 18122.00
550.0040, 18610.00
551.1800, 19206.00
552.3570, 19714.00
553.5330, 20330.00
554.7090, 20901.00
555.8850, 21299.00
557.0610, 21331.00
558.2370, 21093.00
559.4130, 20403.00
560.5880, 19484.00
561.7630, 18758.00
562.9380, 17759.00
564.1130, 16929.00
565.2880, 16576.00
566.4630, 15923.00
567.6370, 15508.00
568.8120, 15289.00
569.9860, 15121.00
571.1600, 15051.00
572.3330, 14882.00
573.5070, 14759.00
574.6810, 14830.00
575.8540, 14522.00
577.0270, 14421.00
578.2000, 14421.00
579.3730, 14433.00
580.5460, 14424.00
581.7180, 14379.00
582.8910, 14335.00
584.0630, 14252.00
585.2350, 14265.00
586.4070, 14283.00
587.5780, 14416.00
588.7500, 14350.00
589.9210, 14270.00
591.0930, 14228.00
592.2640, 14504.00
593.4350, 14501.00
594.6050, 14702.00
595.7760, 14646.00
596.9460, 14631.00
598.1170, 14559.00
599.2870, 14763.00
600.4570, 14919.00
601.6260, 15147.00
602.7960, 15069.00
603.9650, 15419.00
605.1350, 15589.00
606.3040, 15857.00
607.4730, 16338.00
608.6420, 16431.00
609.8100, 16922.00
610.9790, 16992.00
612.1470, 17362.00
613.3150, 17637.00
614.4830, 17712.00
615.6510, 17759.55
616.8190, 17855.00
617.9860, 17478.00
619.1540, 17124.00
620.3210, 16730.00
621.4880, 16587.00
622.6550, 16079.00
623.8220, 15982.00
624.9880, 15681.00
626.1550, 15664.00
627.3210, 15453.00
628.4870, 15307.00
629.6530, 15319.00
630.8190, 15345.00
631.9840, 15408.00
633.1500, 15462.00
634.3150, 15374.00
635.4800, 15552.00
636.6450, 15580.00
637.8100, 15455.00
638.9740, 15502.00
640.1390, 15268.00
641.3030, 15579.00
642.4670, 15264.00
643.6310, 15289.00
644.7950, 15125.00
645.9590, 15171.00
647.1220, 15200.00
648.2850, 15051.00
649.4490, 15044.00
650.6120, 14990.00
651.7740, 14973.23
652.9370, 14945.00
654.1000, 15035.00
655.2620, 14999.00
656.4240, 15107.00
657.5860, 15076.00
658.7480, 15034.00
659.9100, 15039.00
661.0710, 15029.12
662.2330, 15208.00
663.3940, 15046.00
664.5550, 15105.00
665.7160, 15120.00
666.8770, 15055.00
668.0370, 15119.00
669.1980, 14956.00
670.3580, 15136.00
671.5180, 15128.00
672.6780, 15282.00
673.8380, 15119.00
674.9970, 15225.00
676.1570, 15352.00
677.3160, 15212.00
678.4750, 15469.00
679.6340, 15302.00
680.7930, 15462.00
681.9520, 15421.00
683.1100, 15504.00
684.2680, 15344.00
685.4270, 15536.00
686.5850, 15491.00
687.7420, 15478.00
688.9000, 15541.00
690.0580, 15466.00
691.2150, 15537.00
692.3720, 15473.00
693.5290, 15450.00
694.6860, 15552.00
695.8430, 15627.00
696.9990, 15635.33
698.1560, 15845.00
699.3120, 15687.00
700.4680, 15776.00
701.6240, 15797.00
702.7800, 15958.00
703.9350, 15953.00
705.0900, 15914.00
706.2460, 15962.00
707.4010, 15961.00
708.5560, 15966.00
709.7110, 16075.00
710.8650, 16057.00
712.0200, 15887.00
713.1740, 16167.00
714.3280, 16052.00
715.4820, 15933.00
716.6360, 16004.00
717.7890, 15884.00
718.9430, 15738.00
720.0960, 15764.00
721.2490, 15787.00
722.4020, 15645.00
723.5550, 15757.00
724.7080, 15716.00
725.8600, 15689.00
727.0130, 15708.00
728.1650, 15755.00
729.3170, 15723.00
730.4690, 15718.00
731.6200, 15571.00
732.7720, 15618.00
733.9230, 15702.00
735.0740, 15713.00
736.2250, 15816.00
737.3760, 15884.00
738.5270, 15756.00
739.6780, 15696.00
740.8280, 15770.00
741.9780, 15848.00
743.1280, 15772.00
744.2780, 15937.00
745.4280, 15830.00
746.5770, 15975.00
747.7270, 15918.00
748.8760, 15881.00
750.0250, 15939.00
751.1740, 15909.72
752.3230, 16083.00
753.4720, 15970.00
754.6200, 16051.00
755.7680, 16158.00
756.9160, 16018.00
758.0640, 15979.00
759.2120, 15864.00
760.3600, 15865.00
761.5070, 15932.00
762.6550, 15878.00
763.8020, 15879.00
764.9490, 15846.00
766.0960, 15926.00
767.2420, 15837.00
768.3890, 15917.00
769.5350, 15883.00
770.6810, 15852.00
771.8270, 15661.00
772.9730, 15753.00
774.1190, 15839.00
775.2640, 15564.00
776.4100, 15652.00
777.5550, 15797.00
778.7000, 15727.00
779.8450, 15733.00
780.9900, 15648.00
782.1340, 15679.00
783.2790, 15553.00
784.4230, 15601.00
785.5670, 15630.00
786.7110, 15667.00
787.8550, 15546.00
788.9980, 15760.00
790.1420, 15655.00
791.2850, 15593.00
792.4280, 15657.00
793.5710, 15610.00
794.7140, 15612.00
795.8560, 15704.00
796.9990, 15615.00
798.1410, 15748.00
799.2830, 15619.00
800.4250, 15769.00
801.5670, 15694.00
802.7090, 15753.00
803.8500, 15698.00
804.9920, 15720.08
806.1330, 15692.00
807.2740, 15741.00
808.4150, 15760.00
809.5550, 15730.00
810.6960, 15703.00
811.8360, 15738.70
812.9760, 15628.00
814.1160, 15783.00
815.2560, 15733.00
816.3960, 15720.00
817.5350, 15782.00
818.6750, 15664.00
819.8140, 15835.00
820.9530, 15811.00
822.0920, 15852.00
823.2310, 15722.00
824.3690, 15674.00
825.5080, 15701.00
826.6460, 15583.00
827.7840, 15625.00
828.9220, 15816.00
830.0600, 15638.00
831.1970, 15809.00
832.3350, 15807.00
833.4720, 15753.00
834.6090, 15774.00
835.7460, 15763.00
836.8830, 15798.00
838.0190, 15768.00
839.1560, 15774.00
840.2920, 15695.00
841.4280, 15805.00
842.5640, 15846.00
843.7000, 15944.00
844.8360, 15921.21
845.9710, 15911.00
847.1070, 15884.00
848.2420, 15803.00
849.3770, 15841.00
850.5120, 16105.00
851.6460, 15787.00
852.7810, 15717.00
853.9150, 16060.00
855.0490, 15849.00
856.1830, 15952.00
857.3170, 16098.00
858.4510, 16097.00
859.5840, 15970.00
860.7180, 15968.00
861.8510, 15966.00
862.9840, 16080.00
864.1170, 16081.00
865.2500, 16053.00
866.3820, 16003.00
867.5150, 16021.00
868.6470, 16079.00
869.7790, 16028.00
870.9110, 16066.81
872.0430, 16091.00
873.1740, 16108.00
874.3060, 16027.00
875.4370, 16088.00
876.5680, 16038.00
877.6990, 16122.00
878.8300, 16102.58
879.9600, 16004.00
881.0910, 16076.00
882.2210, 16044.00
883.3510, 15984.00
884.4810, 16123.00
885.6110, 15972.00
886.7410, 15966.00
887.8700, 15878.00
888.9990, 16094.00
890.1290, 16148.00
891.2580, 16054.00
892.3860, 16111.00
893.5150, 16177.00
894.6440, 16138.00
895.7720, 16218.00
896.9000, 16209.00
898.0280, 16247.00
899.1560, 16167.00
900.2840, 16120.00
901.4110, 16284.00
902.5390, 16147.00
903.6660, 16239.00
904.7930, 16221.00
905.9200, 16338.00
907.0470, 16315.00
908.1730, 16314.00
909.3000, 16253.00
910.4260, 16263.00
911.5520, 16047.00
912.6780, 16387.00
913.8030, 16497.00
914.9290, 16374.00
916.0540, 16314.00
917.1800, 16418.00
918.3050, 16364.00
919.4300, 16352.00
920.5550, 16227.00
921.6790, 16488.00
922.8040, 16394.00
923.9280, 16543.00
925.0520, 16345.00
926.1760, 16541.00
927.3000, 16415.00
928.4230, 16469.00
929.5470, 16489.00
930.6700, 16543.00
931.7930, 16576.00
932.9160, 16569.19
934.0390, 16564.73
935.1620, 16551.00
936.2840, 16547.74
937.4070, 16516.00
938.5290, 16530.00
939.6510, 16503.00
940.7730, 16479.00
941.8940, 16599.00
943.0160, 16503.00
944.1370, 16700.00
945.2580, 16527.00
946.3800, 16612.00
947.5000, 16642.00
948.6210, 16598.00
949.7420, 16717.00
950.8620, 16439.00
951.9820, 16689.00
953.1020, 16571.00
954.2220, 16608.00
955.3420, 16801.00
956.4620, 16670.00
957.5810, 16846.00
958.7000, 16694.00
959.8190, 16624.00
960.9380, 16711.00
962.0570, 16610.00
963.1760, 16715.00
964.2940, 16666.00
965.4120, 16672.00
966.5300, 16896.00
967.6480, 16778.00
968.7660, 16808.00
969.8840, 17023.00
971.0010, 16804.00
972.1190, 16753.00
973.2360, 16893.00
974.3530, 16805.00
975.4690, 16829.00
976.5860, 16959.00
977.7030, 16897.00
978.8190, 16902.00
979.9350, 16756.00
981.0510, 16907.00
982.1670, 16980.00
983.2830, 17153.00
984.3980, 16885.00
985.5130, 16960.00
986.6290, 16956.00
987.7440, 16813.00
988.8590, 16952.00
989.9730, 17149.00
991.0880, 16855.00
992.2020, 17103.00
993.3160, 17118.00
994.4300, 17128.00
995.5440, 17138.00
996.6580, 17146.18
997.7720, 17100.42
998.8850, 17162.00
999.9980, 17004.00
1001.111, 17005.00
1002.224, 16984.00
1003.337, 17168.00
1004.450, 17231.00
1005.562, 17180.00
1006.674, 17225.00
1007.786, 17189.00
1008.898, 17257.00
1010.010, 17148.00
1011.122, 17250.00
1012.233, 17161.00
1013.344, 17197.00
1014.455, 17299.00
1015.566, 17156.00
1016.677, 17162.00
1017.788, 17182.00
1018.898, 17142.00
1020.009, 17280.00
1021.119, 17303.00
1022.229, 17358.00
1023.339, 17266.00
1024.448, 17313.00
1025.558, 17348.00
1026.667, 17275.00
1027.776, 17270.00
1028.885, 17247.00
1029.994, 17250.00
1031.103, 17336.00
1032.211, 17311.47
1033.320, 17368.88
1034.428, 17351.00
1035.536, 17437.00
1036.644, 17499.00
1037.751, 17507.00
1038.859, 17526.00
1039.966, 17499.00
1041.074, 17476.00
1042.181, 17533.00
1043.288, 17648.00
1044.394, 17595.60
1045.501, 17624.66
1046.607, 17568.00
1047.713, 17578.00
1048.820, 17585.00
1049.925, 17569.00
1051.031, 17618.00
1052.137, 17624.00
1053.242, 17581.00
1054.348, 17590.00
1055.453, 17554.00
1056.558, 17502.00
1057.662, 17557.00
1058.767, 17549.00
1059.871, 17590.00
1060.976, 17625.24
1062.080, 17662.00
1063.184, 17697.00
1064.288, 17682.00
1065.391, 17705.00
1066.495, 17793.00
1067.598, 17827.00
1068.701, 18016.00
1069.804, 17796.00
1070.907, 17744.00
1072.010, 17606.00
1073.112, 17881.00
1074.214, 17709.00
1075.317, 17848.00
1076.419, 17753.00
1077.521, 17673.00
1078.622, 17901.00
1079.724, 17936.00
1080.825, 17879.00
1081.926, 17844.00
1083.027, 17897.00
1084.128, 17851.00
1085.229, 18047.00
1086.329, 17952.00
1087.430, 17935.00
1088.530, 17840.00
1089.630, 18007.00
1090.730, 17899.00
1091.830, 17833.00
1092.929, 17957.00
1094.029, 17908.00
1095.128, 17955.00
1096.227, 17896.00
1097.326, 17890.00
1098.425, 18051.00
1099.523, 18051.00
1100.622, 18183.00
1101.720, 18147.46
1102.818, 18013.00
1103.916, 18062.00
1105.014, 18084.00
1106.111, 18056.00
1107.209, 18105.00
1108.306, 18089.00
1109.403, 18068.00
1110.500, 18094.00
1111.597, 18104.00
1112.694, 17943.00
1113.790, 18160.00
1114.887, 17974.00
1115.983, 18196.00
1117.079, 18264.00
1118.174, 18268.00
1119.270, 18354.00
1120.366, 18250.00
1121.461, 18233.00
1122.556, 18301.00
1123.651, 18173.00
1124.746, 18180.00
1125.841, 18330.00
1126.935, 18218.00
1128.030, 18311.00
1129.124, 18476.00
1130.218, 18452.00
1131.312, 18508.93
1132.405, 18331.00
1133.499, 18457.00
1134.592, 18451.00
1135.686, 18325.00
1136.779, 18375.00
1137.871, 18512.00
1138.964, 18621.00
1140.057, 18460.00
1141.149, 18465.00
1142.241, 18407.00
1143.334, 18513.00
1144.425, 18482.00
1145.517, 18619.00
1146.609, 18611.50
1147.700, 18617.00
1148.791, 18645.00
1149.883, 18685.00
1150.974, 18724.52
1152.064, 18732.13
1153.155, 18719.00
1154.245, 18686.00
1155.336, 18709.00
1156.426, 18557.00
1157.516, 18511.00
1158.606, 18705.00
1159.695, 18282.00
1160.785, 18638.00
1161.874, 18355.00
1162.963, 18631.00
1164.052, 18692.00
1165.141, 18803.00
1166.230, 18635.00
1167.318, 18712.00
1168.406, 18771.00
1169.495, 18974.00
1170.583, 18762.00
1171.670, 18883.00
1172.758, 18711.00
1173.846, 18724.00
1174.933, 18688.00
1176.020, 18940.00
1177.107, 18969.00
1178.194, 18862.00
1179.281, 18864.00
1180.367, 18889.00
1181.454, 18825.00
1182.540, 19025.00
1183.626, 18752.00
1184.712, 18775.00
1185.798, 19038.00
1186.883, 18968.00
1187.969, 18923.00
1189.054, 18970.00
1190.139, 18997.00
1191.224, 18887.00
1192.309, 18833.00
1193.393, 18854.00
1194.478, 18833.07
1195.562, 18906.00
1196.646, 18946.00
1197.730, 18986.00
1198.814, 19006.35
1199.897, 18976.00
1200.981, 19025.00
1202.064, 18964.00
1203.147, 18978.00
1204.230, 18820.00
1205.313, 19191.00
1206.396, 18957.00
1207.478, 19187.00
1208.560, 19161.00
1209.642, 19315.00
1210.724, 19229.00
1211.806, 19244.00
1212.888, 19238.00
1213.969, 19176.00
1215.051, 19288.00
1216.132, 19378.00
1217.213, 19294.00
1218.294, 19202.00
1219.374, 19301.00
1220.455, 19168.00
1221.535, 19217.00
1222.616, 19128.00
1223.696, 19285.00
1224.775, 19276.00
1225.855, 19144.00
1226.935, 19359.00
1228.014, 19512.00
1229.093, 19299.00
1230.172, 19369.00
1231.251, 19381.00
1232.330, 19421.00
1233.408, 19412.00
1234.487, 19442.00
1235.565, 19498.00
1236.643, 19463.00
1237.721, 19488.00
1238.799, 19439.00
1239.876, 19482.00
1240.954, 19429.00
1242.031, 19497.00
1243.108, 19488.00
1244.185, 19412.00
1245.262, 19463.00
1246.338, 19521.00
1247.415, 19501.00
1248.491, 19611.00
1249.567, 19245.00
1250.643, 19581.00
1251.719, 19290.00
1252.795, 19510.00
1253.870, 19702.00
1254.945, 19577.00
1256.021, 19626.00
1257.096, 19794.00
1258.170, 19413.00
1259.245, 19562.00
1260.320, 19661.00
1261.394, 19721.00
1262.468, 19582.00
1263.542, 19733.00
1264.616, 19640.00
1265.690, 19695.00
1266.763, 19684.00
1267.836, 19804.00
1268.910, 19845.00
1269.983, 19836.00
1271.055, 19874.26
1272.128, 19859.22
1273.201, 19863.00
1274.273, 19810.00
1275.345, 19806.00
1276.417, 19741.00
1277.489, 19714.00
1278.561, 19812.00
1279.632, 19904.00
1280.704, 19806.00
1281.775, 19898.00
1282.846, 19732.00
1283.917, 19691.00
1284.988, 20007.00
1286.058, 19923.00
1287.129, 20031.00
1288.199, 19884.00
1289.269, 19844.00
1290.339, 19856.00
1291.409, 20082.00
1292.478, 20218.00
1293.548, 20160.07
1294.617, 19894.00
1295.686, 20096.00
1296.755, 19947.00
1297.824, 20009.00
1298.893, 20068.00
1299.961, 19810.00
1301.029, 20000.00
1302.097, 20118.00
1303.165, 20009.00
1304.233, 20025.00
1305.301, 20129.00
1306.368, 19952.00
1307.436, 20252.00
1308.503, 20177.00
1309.570, 20007.00
1310.637, 20145.00
1311.703, 20081.00
1312.770, 20193.00
1313.836, 20285.00
1314.902, 20211.00
1315.968, 20163.00
1317.034, 20140.00
1318.100, 20393.00
1319.165, 20154.00
1320.231, 20249.00
1321.296, 20374.00
1322.361, 20211.00
1323.426, 20165.00
1324.491, 20380.00
1325.555, 20269.00
1326.620, 20214.00
1327.684, 20314.00
1328.748, 20444.00
1329.812, 20341.00
1330.875, 20369.00
1331.939, 20404.00
1333.002, 20369.26
1334.066, 20402.32
1335.129, 20363.00
1336.192, 20413.00
1337.254, 20385.00
1338.317, 20370.00
1339.379, 20475.00
1340.442, 20452.00
1341.504, 20433.00
1342.566, 20438.00
1343.628, 20527.00
1344.689, 20515.00
1345.751, 20744.00
1346.812, 20438.00
1347.873, 20622.00
1348.934, 20449.00
1349.995, 20522.00
1351.055, 20651.00
1352.116, 20616.00
1353.176, 20572.00
1354.236, 20602.00
1355.296, 20637.00
1356.356, 20645.00
1357.416, 20515.00
1358.475, 20584.00
1359.535, 20566.00
1360.594, 20699.00
1361.653, 20594.00
1362.712, 20527.00
1363.770, 20539.00
1364.829, 20585.00
1365.887, 20607.38
1366.945, 20588.00
1368.003, 20719.00
1369.061, 20750.00
1370.119, 20774.00
1371.177, 20730.00
1372.234, 20497.00
1373.291, 20939.00
1374.348, 20727.00
1375.405, 20579.00
1376.462, 20817.00
1377.518, 20663.00
1378.575, 20803.00
1379.631, 20774.00
1380.687, 20786.00
1381.743, 20885.00
1382.799, 20884.00
1383.854, 20830.00
1384.910, 20901.00
1385.965, 20833.00
1387.020, 20866.00
1388.075, 20983.00
1389.130, 21032.00
1390.184, 21021.00
1391.239, 20918.00
1392.293, 20887.00
1393.347, 20832.13
1394.401, 20781.00
1395.455, 20810.00
1396.509, 20892.00
1397.562, 20859.24
1398.615, 20990.00
1399.669, 20912.00
1400.722, 20969.00
1401.774, 21088.00
1402.827, 21145.00
1403.879, 20990.00
1404.932, 21122.00
1405.984, 21045.00
1407.036, 21141.00
1408.088, 20925.00
1409.139, 21038.00
1410.191, 21013.00
1411.242, 21102.00
1412.294, 20990.00
1413.345, 21061.00
1414.395, 21061.00
1415.446, 21093.00
1416.497, 21065.00
1417.547, 21034.00
1418.597, 21063.79
1419.647, 21056.00
1420.697, 21093.00
1421.747, 21080.00
1422.796, 21086.14
1423.846, 21283.00
1424.895, 21107.00
1425.944, 21301.00
1426.993, 21212.00
1428.042, 21288.00
1429.090, 21133.00
1430.139, 21263.00
1431.187, 21284.00
1432.235, 21522.00
1433.283, 21511.00
1434.331, 21251.00
1435.378, 21408.00
1436.426, 21280.00
1437.473, 21387.00
1438.520, 21512.00
1439.567, 21285.00
1440.614, 21287.00
1441.661, 21298.00
1442.707, 21386.00
1443.753, 21275.00
1444.799, 21338.00
1445.845, 21283.00
1446.891, 21496.00
1447.937, 21530.00
1448.982, 21570.00
1450.028, 21577.00
1451.073, 21575.15
1452.118, 21532.00
1453.163, 21544.00
1454.207, 21467.00
1455.252, 21454.00
1456.296, 21477.00
1457.340, 21524.00
1458.384, 21449.00
1459.428, 21425.00
1460.472, 21516.00
1461.515, 21632.00
1462.559, 21618.00
1463.602, 21569.00
1464.645, 21598.00
1465.688, 21596.00
1466.731, 21476.00
1467.773, 21577.78
1468.816, 21616.00
1469.858, 21718.00
1470.900, 21655.00
1471.942, 21754.00
1472.983, 21722.00
1474.025, 21716.00
1475.066, 21744.00
1476.108, 21856.00
1477.149, 21800.17
1478.190, 21787.00
1479.230, 21768.00
1480.271, 21663.00
1481.311, 21674.00
1482.352, 21653.41
1483.392, 21613.00
1484.432, 21683.00
1485.472, 21575.00
1486.511, 21625.00
1487.551, 21814.00
1488.590, 21914.00
1489.629, 21722.00
1490.668, 21717.00
1491.707, 21868.00
1492.745, 21654.00
1493.784, 21833.00
1494.822, 21914.00
1495.860, 21644.00
1496.898, 21664.00
1497.936, 21807.00
1498.974, 21738.00
1500.011, 21746.00
1501.049, 21781.00
1502.086, 21771.00
1503.123, 21759.00
1504.160, 21700.00
1505.196, 21672.00
1506.233, 21759.00
1507.269, 21832.00
1508.305, 21818.00
1509.341, 21980.00
1510.377, 21829.00
1511.413, 21785.00
1512.449, 21788.00
1513.484, 21876.00
1514.519, 21878.71
1515.554, 21904.48
1516.589, 21934.00
1517.624, 21928.00
1518.658, 21856.00
1519.693, 21848.00
1520.727, 22020.00
1521.761, 21893.00
1522.795, 21974.00
1523.829, 22054.00
1524.862, 21894.00
1525.896, 21897.00
1526.929, 22146.00
1527.962, 22074.00
1528.995, 22075.00
1530.028, 21985.00
1531.060, 22108.00
1532.093, 22140.00
1533.125, 22177.00
1534.157, 21987.00
1535.189, 22232.00
1536.221, 22041.00
1537.253, 22330.00
1538.284, 21963.00
1539.316, 22040.00
1540.347, 22048.00
1541.378, 22022.00
1542.408, 22176.00
1543.439, 22001.00
1544.470, 22113.00
1545.500, 21958.00
1546.530, 22042.00
1547.560, 22293.00
1548.590, 21985.00
1549.620, 22234.00
1550.649, 22189.00
1551.679, 22285.00
1552.708, 22067.00
1553.737, 22166.00
1554.766, 22161.00
1555.794, 22108.00
1556.823, 22157.00
1557.851, 22200.00
1558.879, 22399.00
1559.907, 22036.00
1560.935, 22135.00
1561.963, 22023.00
##END=



