##NAMES=Baddeleyite
##RRUFFID=R060078
##IDEAL CHEMISTRY=Zr^4+^O_2_
##LOCALITY=Wetloo mine, Mogok, Burma
##OWNER=RRUFF
##SOURCE=Marcus Origlieri
##DESCRIPTION=Dark brown fragment
##STATUS=The identification of this mineral has been confirmed by X-ray diffraction and chemical analysis
##URL=rruff.info/R060078
##MEASURED CHEMISTRY=(Zr_0.99_Hf_0.01_)_Î£=1_O_2_
##PIN_ID=L01986
##ORIENTATION=Laser parallel to a* (1 0 0). Fiducial mark perpendicular to laser is parallel to -b [0 -1 0]
72.47700, 7042.000
73.71400, 7413.000
74.95100, 7853.000
76.18700, 8242.000
77.42300, 8163.000
78.65900, 8291.000
79.89500, 8338.000
81.13100, 8390.000
82.36700, 8538.000
83.60200, 8713.000
84.83700, 8616.000
86.07200, 8452.000
87.30800, 8770.000
88.54200, 8816.000
89.77700, 9037.000
91.01200, 9457.000
92.24600, 9546.000
93.48000, 9831.000
94.71400, 10091.00
95.94800, 10555.00
97.18200, 10809.00
98.41600, 11041.00
99.64900, 11016.00
100.8830, 11280.00
102.1160, 11780.00
103.3490, 12532.00
104.5820, 13702.00
105.8150, 15063.00
107.0470, 15813.00
108.2800, 16027.00
109.5120, 14953.00
110.7440, 12921.00
111.9760, 11444.00
113.2080, 10780.00
114.4400, 10659.00
115.6710, 10885.00
116.9030, 10642.00
118.1340, 10629.00
119.3650, 10464.00
120.5960, 9991.000
121.8270, 9707.000
123.0580, 9701.000
124.2880, 9646.000
125.5190, 9406.000
126.7490, 9375.000
127.9790, 9375.000
129.2090, 9446.000
130.4390, 9457.000
131.6680, 9467.000
132.8980, 9408.000
134.1270, 9374.000
135.3560, 9387.000
136.5850, 9453.000
137.8140, 9590.000
139.0430, 9617.000
140.2710, 9714.000
141.5000, 9594.000
142.7280, 9403.000
143.9560, 9576.000
145.1840, 9466.000
146.4120, 9547.000
147.6390, 9648.000
148.8670, 9639.000
150.0940, 9728.000
151.3210, 9842.000
152.5490, 9972.000
153.7750, 9939.000
155.0020, 9931.000
156.2290, 9927.000
157.4550, 10040.00
158.6810, 10019.00
159.9080, 10154.00
161.1340, 10319.00
162.3590, 10672.00
163.5850, 11111.00
164.8110, 11682.00
166.0360, 12502.00
167.2610, 13265.00
168.4860, 14764.00
169.7110, 16878.00
170.9360, 19209.00
172.1610, 20318.00
173.3850, 20350.00
174.6100, 21422.00
175.8340, 23359.00
177.0580, 26684.00
178.2820, 31552.00
179.5050, 38462.00
180.7290, 44822.00
181.9520, 46893.00
183.1760, 44079.00
184.3990, 36795.00
185.6220, 28825.00
186.8450, 24844.00
188.0670, 24101.00
189.2900, 25546.00
190.5120, 28983.00
191.7340, 34785.00
192.9560, 41249.00
194.1780, 43643.00
195.4000, 39920.00
196.6220, 31514.00
197.8430, 22679.00
199.0640, 17335.00
200.2860, 14795.00
201.5070, 13758.00
202.7270, 12783.00
203.9480, 12142.00
205.1690, 11331.00
206.3890, 10946.00
207.6090, 10722.00
208.8290, 10550.00
210.0490, 10585.00
211.2690, 10732.00
212.4890, 11018.00
213.7080, 11307.00
214.9280, 11534.00
216.1470, 11471.00
217.3660, 11508.00
218.5850, 11598.00
219.8030, 11730.00
221.0220, 12046.00
222.2400, 12621.00
223.4590, 13327.00
224.6770, 13654.00
225.8950, 13491.00
227.1120, 12823.83
228.3300, 11776.00
229.5480, 10921.00
230.7650, 10570.00
231.9820, 10321.00
233.1990, 10169.00
234.4160, 10083.00
235.6330, 9935.000
236.8490, 10064.00
238.0660, 10003.00
239.2820, 9886.000
240.4980, 9903.000
241.7140, 9810.000
242.9300, 9950.000
244.1460, 9762.000
245.3610, 9770.000
246.5770, 10011.00
247.7920, 9795.000
249.0070, 9888.000
250.2220, 9875.000
251.4370, 9866.000
252.6510, 9936.000
253.8660, 9907.000
255.0800, 10030.00
256.2940, 9953.000
257.5080, 10072.00
258.7220, 10283.00
259.9360, 10713.00
261.1490, 10392.00
262.3630, 10465.00
263.5760, 10011.00
264.7890, 9904.000
266.0020, 9971.000
267.2150, 9992.000
268.4270, 9969.000
269.6400, 10160.00
270.8520, 10129.00
272.0640, 10171.00
273.2760, 10131.00
274.4880, 10213.00
275.7000, 10309.00
276.9120, 10312.00
278.1230, 10373.16
279.3340, 10438.98
280.5450, 10456.00
281.7560, 10529.00
282.9670, 10636.00
284.1780, 10602.00
285.3880, 10652.00
286.5980, 10816.00
287.8090, 10896.00
289.0190, 11014.00
290.2290, 11119.00
291.4380, 11305.00
292.6480, 11379.00
293.8570, 11623.00
295.0670, 11976.00
296.2760, 12167.00
297.4850, 12636.00
298.6930, 13047.00
299.9020, 13449.00
301.1110, 13801.00
302.3190, 14434.00
303.5270, 14880.00
304.7350, 15668.00
305.9430, 16271.00
307.1510, 17193.00
308.3580, 17955.00
309.5660, 18356.00
310.7730, 17948.02
311.9800, 18716.00
313.1870, 16445.00
314.3940, 15383.00
315.6010, 14568.00
316.8070, 14049.00
318.0130, 13452.00
319.2200, 13185.00
320.4260, 13153.00
321.6310, 13060.00
322.8370, 13134.00
324.0430, 13381.00
325.2480, 13710.00
326.4540, 13944.00
327.6590, 14108.00
328.8640, 14195.00
330.0680, 14113.00
331.2730, 14641.00
332.4780, 14758.00
333.6820, 15229.00
334.8860, 15724.00
336.0900, 16315.00
337.2940, 16595.00
338.4980, 16918.00
339.7010, 17351.00
340.9050, 18252.00
342.1080, 18979.00
343.3110, 19787.00
344.5140, 20992.00
345.7170, 22812.00
346.9200, 24926.00
348.1220, 27269.00
349.3240, 29120.00
350.5270, 29669.00
351.7290, 28577.00
352.9310, 25774.00
354.1320, 22240.00
355.3340, 19483.00
356.5350, 17374.00
357.7370, 15889.00
358.9380, 15019.00
360.1390, 14355.00
361.3400, 13941.00
362.5400, 13698.00
363.7410, 13670.00
364.9410, 13738.00
366.1410, 13777.00
367.3410, 14089.00
368.5410, 14552.00
369.7410, 15289.00
370.9400, 15943.00
372.1400, 16987.00
373.3390, 18266.00
374.5380, 20027.00
375.7370, 21630.00
376.9360, 23588.00
378.1350, 25269.74
379.3330, 27041.00
380.5310, 28835.00
381.7300, 30701.00
382.9280, 32544.00
384.1260, 34028.00
385.3230, 34879.00
386.5210, 34548.00
387.7180, 32690.00
388.9160, 29547.00
390.1130, 26237.00
391.3100, 22704.00
392.5060, 20026.00
393.7030, 18291.00
394.9000, 16415.00
396.0960, 15390.00
397.2920, 14528.00
398.4880, 13820.00
399.6840, 13423.00
400.8800, 12996.00
402.0750, 12608.00
403.2710, 12468.00
404.4660, 12322.00
405.6610, 12023.00
406.8560, 11914.00
408.0510, 11862.00
409.2450, 11745.00
410.4400, 11435.00
411.6340, 11509.00
412.8280, 11339.63
414.0220, 11470.00
415.2160, 11235.00
416.4100, 11153.00
417.6030, 11192.00
418.7970, 11261.00
419.9900, 11203.00
421.1830, 11121.00
422.3760, 11090.00
423.5690, 11059.00
424.7610, 10991.00
425.9540, 11097.00
427.1460, 11207.00
428.3380, 11151.00
429.5300, 11131.00
430.7220, 11097.00
431.9140, 11161.00
433.1050, 11346.00
434.2970, 11234.00
435.4880, 11378.00
436.6790, 11348.00
437.8700, 11299.00
439.0610, 11448.00
440.2510, 11381.00
441.4420, 11524.34
442.6320, 11899.00
443.8220, 11755.00
445.0120, 11870.05
446.2020, 11927.00
447.3910, 11771.00
448.5810, 12181.00
449.7700, 12290.00
450.9600, 12431.00
452.1490, 12811.00
453.3370, 12987.00
454.5260, 13136.00
455.7150, 13602.00
456.9030, 14000.00
458.0910, 14535.00
459.2800, 15230.00
460.4670, 16177.00
461.6550, 17179.00
462.8430, 18471.00
464.0300, 20198.00
465.2180, 22256.00
466.4050, 24586.00
467.5920, 27496.51
468.7790, 31141.00
469.9650, 34382.00
471.1520, 38590.00
472.3380, 43029.00
473.5250, 48478.00
474.7110, 54071.00
475.8970, 58578.00
477.0820, 60840.00
478.2680, 59072.00
479.4540, 53242.00
480.6390, 45564.00
481.8240, 37975.00
483.0090, 31440.00
484.1940, 26687.00
485.3780, 23406.00
486.5630, 20767.00
487.7470, 19169.00
488.9320, 17890.00
490.1160, 17194.00
491.3000, 16814.00
492.4830, 16207.00
493.6670, 16047.00
494.8500, 15988.00
496.0340, 16008.00
497.2170, 15975.00
498.4000, 15993.00
499.5820, 16207.00
500.7650, 16756.00
501.9480, 16906.00
503.1300, 17159.00
504.3120, 16844.00
505.4940, 16193.00
506.6760, 15432.00
507.8580, 14655.00
509.0390, 14055.00
510.2210, 13456.00
511.4020, 13021.00
512.5830, 12899.00
513.7640, 12632.00
514.9450, 12531.00
516.1250, 12373.00
517.3060, 12187.00
518.4860, 12168.00
519.6660, 12082.00
520.8460, 12097.00
522.0260, 12086.00
523.2060, 11999.00
524.3850, 12022.00
525.5650, 11907.00
526.7440, 11977.37
527.9230, 12013.00
529.1020, 12117.00
530.2810, 12316.00
531.4590, 12431.00
532.6380, 12438.00
533.8160, 12642.00
534.9940, 12638.00
536.1720, 12796.00
537.3500, 12934.00
538.5270, 13087.00
539.7050, 13209.00
540.8820, 13345.00
542.0590, 13225.00
543.2360, 13343.00
544.4130, 13143.00
545.5900, 13404.00
546.7660, 13623.00
547.9430, 13779.00
549.1190, 14106.00
550.2950, 14384.00
551.4710, 15039.00
552.6470, 15426.00
553.8220, 15974.00
554.9980, 16612.00
556.1730, 17138.00
557.3480, 17754.00
558.5230, 18216.00
559.6980, 18175.00
560.8730, 17763.00
562.0470, 17085.00
563.2220, 16162.00
564.3960, 15301.00
565.5700, 14578.00
566.7440, 13874.00
567.9170, 13473.00
569.0910, 13237.00
570.2640, 12831.00
571.4380, 12780.00
572.6110, 12604.00
573.7840, 12412.00
574.9570, 12433.00
576.1290, 12101.00
577.3020, 12410.00
578.4740, 12184.00
579.6460, 12140.00
580.8180, 12168.00
581.9900, 12077.00
583.1620, 12151.00
584.3330, 12104.00
585.5040, 12142.00
586.6760, 12314.00
587.8470, 12220.00
589.0180, 12370.00
590.1880, 12382.00
591.3590, 12357.00
592.5290, 12518.00
593.7000, 12675.00
594.8700, 12868.00
596.0400, 13144.00
597.2090, 13293.00
598.3790, 13546.00
599.5490, 13894.00
600.7180, 14330.00
601.8870, 14809.00
603.0560, 15476.00
604.2250, 16276.00
605.3940, 16924.00
606.5620, 18017.00
607.7300, 19236.00
608.8990, 20543.00
610.0670, 21533.00
611.2350, 23222.00
612.4020, 24469.00
613.5700, 25970.00
614.7370, 27110.00
615.9050, 28371.00
617.0720, 28886.00
618.2390, 28388.00
619.4060, 27140.00
620.5720, 25488.00
621.7390, 23309.00
622.9050, 21453.00
624.0710, 19745.00
625.2370, 18475.00
626.4030, 17306.00
627.5690, 16401.00
628.7340, 15896.00
629.9000, 15488.00
631.0650, 15191.00
632.2300, 14827.00
633.3950, 14676.00
634.5600, 14568.00
635.7240, 14465.00
636.8890, 14449.00
638.0530, 14309.00
639.2170, 14155.00
640.3810, 14057.00
641.5450, 13602.00
642.7080, 13462.00
643.8720, 13236.00
645.0350, 13048.00
646.1980, 12886.39
647.3610, 12747.92
648.5240, 12578.00
649.6870, 12526.00
650.8490, 12441.00
652.0120, 12327.00
653.1740, 12329.00
654.3360, 12186.00
655.4980, 12287.00
656.6600, 12230.00
657.8210, 12128.00
658.9830, 12122.00
660.1440, 12082.43
661.3050, 12150.00
662.4660, 12107.00
663.6270, 12089.00
664.7870, 12201.00
665.9480, 12156.00
667.1080, 12101.00
668.2680, 12142.00
669.4280, 12017.00
670.5880, 12139.00
671.7480, 12062.00
672.9070, 12146.00
674.0670, 12163.00
675.2260, 12105.00
676.3850, 12064.00
677.5440, 12170.00
678.7030, 12036.00
679.8610, 12025.00
681.0200, 12152.00
682.1780, 12105.00
683.3360, 12177.00
684.4940, 12127.00
685.6520, 12200.00
686.8090, 12062.00
687.9670, 12137.00
689.1240, 12138.00
690.2810, 12218.00
691.4380, 12331.00
692.5950, 12298.00
693.7520, 12344.63
694.9080, 12223.00
696.0650, 12355.00
697.2210, 12339.00
698.3770, 12386.00
699.5330, 12428.00
700.6880, 12539.00
701.8440, 12514.00
702.9990, 12403.00
704.1550, 12431.00
705.3100, 12564.00
706.4650, 12513.00
707.6190, 12647.00
708.7740, 12483.00
709.9290, 12699.00
711.0830, 12731.00
712.2370, 12833.00
713.3910, 12802.00
714.5450, 12777.68
715.6980, 12749.00
716.8520, 12596.00
718.0050, 12665.00
719.1580, 12480.00
720.3110, 12587.00
721.4640, 12521.00
722.6170, 12384.00
723.7700, 12354.00
724.9220, 12287.00
726.0740, 12223.00
727.2260, 12327.00
728.3780, 12078.36
729.5300, 12260.36
730.6810, 12356.63
731.8330, 12371.77
732.9840, 12062.83
734.1350, 12172.39
735.2860, 12114.23
736.4370, 12049.19
737.5880, 12066.00
738.7380, 12314.00
739.8880, 12202.00
741.0390, 12070.00
742.1890, 12263.00
743.3380, 12506.00
744.4880, 12250.00
745.6380, 12238.00
746.7870, 12524.00
747.9360, 12463.00
749.0850, 12611.00
750.2340, 12563.00
751.3830, 12718.00
752.5310, 12610.00
753.6800, 12748.00
754.8280, 12556.00
755.9760, 13013.00
757.1240, 13086.00
758.2720, 12807.00
759.4190, 12537.00
760.5670, 12509.00
761.7140, 12379.00
762.8610, 12260.00
764.0080, 12197.00
765.1550, 12097.00
766.3020, 12099.00
767.4480, 12086.00
768.5950, 11924.00
769.7410, 11825.00
770.8870, 11757.00
772.0330, 11682.00
773.1780, 11809.00
774.3240, 11672.00
775.4690, 11797.00
776.6140, 11588.00
777.7590, 11605.00
778.9040, 11524.00
780.0490, 11444.00
781.1940, 11542.00
782.3380, 11437.00
783.4820, 11318.00
784.6260, 11543.00
785.7700, 11357.00
786.9140, 11285.00
788.0580, 11295.00
789.2010, 11205.53
790.3450, 11361.00
791.4880, 11195.00
792.6310, 11265.00
793.7730, 11345.00
794.9160, 11314.00
796.0590, 11346.00
797.2010, 11355.24
798.3430, 11254.00
799.4850, 11367.00
800.6270, 11341.00
801.7690, 11367.00
802.9100, 11254.00
804.0520, 11201.00
805.1930, 11160.00
806.3340, 11132.06
807.4750, 11137.87
808.6160, 11164.00
809.7560, 11131.00
810.8970, 11214.00
812.0370, 11113.00
813.1770, 11382.00
814.3170, 11146.00
815.4570, 11237.00
816.5960, 11086.00
817.7360, 11292.00
818.8750, 11183.00
820.0140, 11187.00
821.1530, 11164.00
822.2920, 11146.74
823.4310, 11180.00
824.5690, 11145.00
825.7070, 11149.00
826.8460, 11111.00
827.9840, 11149.00
829.1220, 11149.00
830.2590, 11109.00
831.3970, 11109.00
832.5340, 11108.76
833.6710, 11075.00
834.8080, 11131.00
835.9450, 11103.00
837.0820, 11132.00
838.2190, 11067.00
839.3550, 11077.87
840.4910, 11085.00
841.6270, 11105.00
842.7630, 11032.00
843.8990, 11129.00
845.0350, 11117.00
846.1700, 11215.00
847.3060, 11063.00
848.4410, 11147.00
849.5760, 11094.00
850.7100, 11184.00
851.8450, 11104.00
852.9800, 11233.00
854.1140, 11052.00
855.2480, 11049.00
856.3820, 11263.00
857.5160, 11169.00
858.6500, 11110.00
859.7830, 11165.00
860.9170, 11276.00
862.0500, 11226.00
863.1830, 11137.00
864.3160, 11137.00
865.4480, 11118.00
866.5810, 11100.00
867.7130, 11046.00
868.8460, 11134.00
869.9780, 11128.00
871.1100, 11207.00
872.2410, 11213.00
873.3730, 11091.00
874.5050, 11307.00
875.6360, 11215.00
876.7670, 11201.00
877.8980, 11257.00
879.0290, 11097.00
880.1590, 11099.00
881.2900, 11205.00
882.4200, 11176.00
883.5500, 11275.00
884.6800, 11194.00
885.8100, 11090.00
886.9400, 11227.00
888.0690, 11249.00
889.1990, 11093.00
890.3280, 11140.00
891.4570, 11219.00
892.5860, 11102.00
893.7140, 11242.00
894.8430, 11191.00
895.9710, 11268.00
897.1000, 11160.00
898.2280, 11150.00
899.3560, 11243.00
900.4830, 11265.00
901.6110, 11202.00
902.7380, 11144.00
903.8660, 11230.00
904.9930, 11282.00
906.1200, 11163.00
907.2460, 11224.00
908.3730, 11178.00
909.5000, 11202.00
910.6260, 11298.00
911.7520, 11143.00
912.8780, 11195.00
914.0040, 11238.00
915.1290, 11235.00
916.2550, 11237.00
917.3800, 11293.00
918.5050, 11298.00
919.6300, 11292.00
920.7550, 11215.00
921.8800, 11365.00
923.0040, 11364.00
924.1290, 11214.00
925.2530, 11338.00
926.3770, 11237.00
927.5010, 11171.00
928.6250, 11222.00
929.7480, 11286.00
930.8720, 11297.00
931.9950, 11361.00
933.1180, 11343.00
934.2410, 11379.00
935.3640, 11361.00
936.4860, 11251.00
937.6090, 11361.00
938.7310, 11402.00
939.8530, 11259.00
940.9750, 11445.00
942.0970, 11523.00
943.2180, 11417.25
944.3400, 11368.00
945.4610, 11281.00
946.5820, 11212.00
947.7030, 11165.00
948.8240, 11176.28
949.9450, 11270.00
951.0650, 11236.00
952.1860, 11232.00
953.3060, 11234.00
954.4260, 11394.00
955.5460, 11288.00
956.6650, 11328.00
957.7850, 11374.00
958.9040, 11252.00
960.0230, 11316.00
961.1420, 11288.00
962.2610, 11170.00
963.3800, 11359.00
964.4990, 11465.00
965.6170, 11306.00
966.7350, 11487.00
967.8530, 11298.00
968.9710, 11251.00
970.0890, 11343.00
971.2070, 11324.00
972.3240, 11330.00
973.4410, 11325.00
974.5580, 11350.25
975.6750, 11352.76
976.7920, 11407.00
977.9090, 11379.00
979.0250, 11387.00
980.1410, 11409.00
981.2580, 11350.00
982.3740, 11374.00
983.4890, 11464.00
984.6050, 11391.00
985.7200, 11330.00
986.8360, 11511.00
987.9510, 11417.87
989.0660, 11433.00
990.1810, 11430.00
991.2950, 11419.00
992.4100, 11466.00
993.5240, 11438.00
994.6390, 11455.26
995.7530, 11420.00
996.8660, 11476.00
997.9800, 11422.00
999.0940, 11450.00
1000.207, 11537.00
1001.320, 11643.00
1002.433, 11530.00
1003.546, 11422.00
1004.659, 11400.00
1005.772, 11527.00
1006.884, 11612.00
1007.996, 11434.00
1009.108, 11547.00
1010.220, 11546.00
1011.332, 11531.00
1012.444, 11553.28
1013.555, 11522.94
1014.666, 11510.00
1015.777, 11521.00
1016.888, 11486.00
1017.999, 11579.00
1019.110, 11468.00
1020.220, 11473.00
1021.331, 11536.00
1022.441, 11596.00
1023.551, 11551.00
1024.661, 11523.00
1025.770, 11623.00
1026.880, 11516.00
1027.989, 11543.00
1029.098, 11433.00
1030.207, 11635.00
1031.316, 11490.00
1032.425, 11432.00
1033.533, 11580.00
1034.642, 11518.00
1035.750, 11565.00
1036.858, 11494.00
1037.966, 11689.00
1039.073, 11569.00
1040.181, 11647.00
1041.288, 11620.00
1042.396, 11436.00
1043.503, 11468.00
1044.610, 11535.00
1045.716, 11536.00
1046.823, 11568.00
1047.929, 11597.56
1049.036, 11558.00
1050.142, 11646.00
1051.248, 11634.00
1052.353, 11662.00
1053.459, 11599.00
1054.564, 11552.00
1055.670, 11591.00
1056.775, 11716.00
1057.880, 11649.00
1058.985, 11646.00
1060.089, 11591.00
1061.194, 11535.00
1062.298, 11635.00
1063.402, 11518.00
1064.506, 11651.00
1065.610, 11678.00
1066.713, 11759.00
1067.817, 11614.00
1068.920, 11643.00
1070.023, 11640.00
1071.126, 11613.00
1072.229, 11626.00
1073.332, 11698.00
1074.435, 11690.00
1075.537, 11630.00
1076.639, 11567.00
1077.741, 11642.00
1078.843, 11617.00
1079.945, 11566.00
1081.046, 11574.00
1082.148, 11627.00
1083.249, 11677.00
1084.350, 11687.00
1085.451, 11631.00
1086.551, 11584.00
1087.652, 11662.00
1088.752, 11532.00
1089.853, 11634.00
1090.953, 11551.00
1092.053, 11607.00
1093.152, 11582.00
1094.252, 11553.00
1095.351, 11697.00
1096.451, 11555.00
1097.550, 11727.00
1098.649, 11626.00
1099.748, 11510.00
1100.846, 11587.00
1101.945, 11562.00
1103.043, 11662.00
1104.141, 11631.00
1105.239, 11580.00
1106.337, 11596.00
1107.434, 11513.00
1108.532, 11565.00
1109.629, 11588.00
1110.726, 11588.00
1111.823, 11473.00
1112.920, 11538.00
1114.017, 11685.00
1115.113, 11469.00
1116.210, 11626.00
1117.306, 11475.00
1118.402, 11604.00
1119.498, 11611.00
1120.593, 11531.00
1121.689, 11524.00
1122.784, 11691.00
1123.879, 11628.00
1124.974, 11737.00
1126.069, 11593.00
1127.164, 11569.00
1128.259, 11651.00
1129.353, 11611.00
1130.447, 11595.00
1131.541, 11631.00
1132.635, 11559.00
1133.729, 11586.00
1134.822, 11621.00
1135.916, 11583.00
1137.009, 11548.00
1138.102, 11550.00
1139.195, 11537.60
1140.288, 11401.00
1141.380, 11561.00
1142.473, 11664.00
1143.565, 11712.00
1144.657, 11531.00
1145.749, 11549.00
1146.841, 11601.00
1147.932, 11484.00
1149.024, 11629.00
1150.115, 11569.00
1151.206, 11528.00
1152.297, 11664.00
1153.388, 11568.00
1154.479, 11569.00
1155.569, 11657.00
1156.659, 11506.00
1157.750, 11649.00
1158.839, 11500.00
1159.929, 11489.00
1161.019, 11451.00
1162.108, 11596.00
1163.198, 11561.00
1164.287, 11493.00
1165.376, 11415.00
1166.465, 11461.00
1167.553, 11479.00
1168.642, 11612.00
1169.730, 11468.00
1170.818, 11550.00
1171.906, 11555.00
1172.994, 11545.00
1174.082, 11449.00
1175.170, 11544.00
1176.257, 11557.00
1177.344, 11568.00
1178.431, 11432.00
1179.518, 11603.00
1180.605, 11523.00
1181.691, 11457.00
1182.778, 11620.00
1183.864, 11519.00
1184.950, 11495.00
1186.036, 11420.00
1187.122, 11451.00
1188.207, 11550.00
1189.292, 11587.00
1190.378, 11628.00
1191.463, 11634.00
1192.548, 11621.34
1193.632, 11568.00
1194.717, 11564.00
1195.801, 11526.00
1196.886, 11507.00
1197.970, 11472.00
1199.054, 11518.12
1200.137, 11560.00
1201.221, 11615.00
1202.305, 11583.00
1203.388, 11597.00
1204.471, 11598.00
1205.554, 11463.00
1206.637, 11541.00
1207.719, 11484.00
1208.802, 11536.00
1209.884, 11550.00
1210.966, 11542.00
1212.048, 11573.00
1213.130, 11518.00
1214.212, 11587.00
1215.293, 11596.00
1216.374, 11495.00
1217.456, 11657.00
1218.536, 11823.00
1219.617, 11691.00
1220.698, 11692.00
1221.778, 11803.00
1222.859, 11808.00
1223.939, 11749.00
1225.019, 11945.00
1226.099, 11680.00
1227.178, 11725.00
1228.258, 11772.00
1229.337, 11738.00
1230.417, 11698.00
1231.496, 11626.00
1232.574, 11682.00
1233.653, 11722.00
1234.732, 11597.00
1235.810, 11615.00
1236.888, 11702.00
1237.966, 11542.00
1239.044, 11603.00
1240.122, 11576.00
1241.199, 11621.00
1242.277, 11691.00
1243.354, 11793.00
1244.431, 11682.00
1245.508, 11763.00
1246.585, 11658.00
1247.661, 11648.00
1248.738, 11609.00
1249.814, 11759.00
1250.890, 11647.00
1251.966, 11713.00
1253.042, 11718.00
1254.117, 11688.00
1255.193, 11733.80
1256.268, 11666.00
1257.343, 11759.00
1258.418, 11814.00
1259.493, 11808.00
1260.567, 11663.00
1261.642, 11654.00
1262.716, 11705.00
1263.790, 11617.00
1264.864, 11765.00
1265.938, 11733.00
1267.011, 11926.00
1268.085, 11656.00
1269.158, 11718.00
1270.231, 11738.00
1271.304, 11815.00
1272.377, 11805.58
1273.450, 11806.66
1274.522, 11778.00
1275.594, 11736.00
1276.666, 11686.00
1277.738, 11589.00
1278.810, 11686.00
1279.882, 11663.00
1280.953, 11676.00
1282.025, 11777.00
1283.096, 11766.00
1284.167, 11674.00
1285.238, 11629.00
1286.308, 11727.00
1287.379, 11809.00
1288.449, 11608.00
1289.519, 11831.00
1290.589, 11827.00
1291.659, 11569.00
1292.729, 11768.00
1293.798, 11798.00
1294.868, 11678.00
1295.937, 11751.00
1297.006, 11690.00
1298.075, 11645.00
1299.143, 11616.00
1300.212, 11744.00
1301.280, 11703.00
1302.348, 11761.00
1303.416, 11764.00
1304.484, 11824.00
1305.552, 11752.00
1306.620, 11772.00
1307.687, 11852.00
1308.754, 11762.00
1309.821, 11812.00
1310.888, 11615.00
1311.955, 11629.00
1313.021, 11696.00
1314.088, 11713.00
1315.154, 11705.00
1316.220, 11759.00
1317.286, 11718.00
1318.352, 11833.00
1319.417, 11675.00
1320.483, 11748.00
1321.548, 11861.00
1322.613, 11689.00
1323.678, 11693.00
1324.743, 11840.00
1325.807, 11831.00
1326.872, 11750.00
1327.936, 11832.00
1329.000, 11786.00
1330.064, 11710.00
1331.128, 11943.00
1332.191, 11638.00
1333.255, 11920.00
1334.318, 11869.00
1335.381, 11706.00
1336.444, 11837.00
1337.507, 11753.00
1338.569, 11754.00
1339.632, 11834.14
1340.694, 11920.00
1341.756, 11898.00
1342.818, 11891.00
1343.880, 11794.00
1344.941, 11790.00
1346.003, 11813.00
1347.064, 11731.00
1348.125, 11739.00
1349.186, 11895.00
1350.247, 11872.00
1351.308, 11741.00
1352.368, 11848.00
1353.428, 11723.00
1354.489, 11840.00
1355.549, 11873.00
1356.608, 11770.00
1357.668, 11856.00
1358.727, 11745.00
1359.787, 11728.00
1360.846, 11799.00
1361.905, 11832.00
1362.964, 11777.00
1364.022, 11838.00
1365.081, 11793.00
1366.139, 11919.00
1367.197, 11842.00
1368.255, 11746.00
1369.313, 11806.00
1370.371, 11892.00
1371.428, 11750.00
1372.486, 11704.00
1373.543, 11868.00
1374.600, 11881.00
1375.657, 11945.00
1376.713, 11841.00
1377.770, 11702.00
1378.826, 11780.00
1379.882, 11743.00
1380.938, 11903.00
1381.994, 11844.00
1383.050, 11980.00
1384.106, 11827.00
1385.161, 11798.00
1386.216, 11860.00
1387.271, 11748.00
1388.326, 11884.00
1389.381, 11917.00
1390.435, 11986.00
1391.490, 11852.00
1392.544, 11920.00
1393.598, 11859.00
1394.652, 11902.00
1395.705, 11771.00
1396.759, 11997.00
1397.812, 11849.00
1398.866, 11920.00
1399.919, 11899.00
1400.972, 11809.00
1402.024, 11904.00
1403.077, 11851.00
1404.129, 11913.00
1405.181, 11856.00
1406.233, 11850.00
1407.285, 11830.55
1408.337, 11909.00
1409.389, 11805.00
1410.440, 11740.00
1411.491, 11822.00
1412.542, 11899.00
1413.593, 11961.00
1414.644, 11859.00
1415.695, 11909.00
1416.745, 11903.00
1417.795, 11924.00
1418.845, 11922.32
1419.895, 11983.00
1420.945, 11917.00
1421.995, 11884.00
1423.044, 11910.00
1424.093, 12005.00
1425.142, 11812.00
1426.191, 11883.00
1427.240, 11786.00
1428.289, 11794.00
1429.337, 11927.00
1430.385, 11994.00
1431.433, 11837.00
1432.481, 11900.00
1433.529, 11854.00
1434.577, 11885.68
1435.624, 11910.02
1436.672, 11994.00
1437.719, 11947.00
1438.766, 11964.00
1439.812, 11951.00
1440.859, 11946.00
1441.905, 11956.00
1442.952, 11943.52
1443.998, 11911.94
1445.044, 11924.00
1446.090, 11875.00
1447.135, 11842.00
1448.181, 11917.00
1449.226, 12468.00
1450.271, 12370.00
1451.316, 11890.00
1452.361, 12456.00
1453.405, 11859.00
1454.450, 11923.00
1455.494, 11811.00
1456.538, 12008.00
1457.582, 11885.00
1458.626, 11778.00
1459.670, 11870.00
1460.713, 11768.00
1461.757, 11803.00
1462.800, 11745.00
1463.843, 11863.00
1464.886, 11877.00
1465.928, 11993.00
1466.971, 11939.00
1468.013, 11801.00
1469.055, 11849.00
1470.097, 11847.00
1471.139, 11910.00
1472.181, 11858.00
1473.222, 11928.00
1474.263, 11879.00
1475.305, 11906.00
1476.346, 11952.00
1477.386, 11995.00
1478.427, 11982.62
1479.468, 11967.90
1480.508, 11946.00
1481.548, 11913.00
1482.588, 11877.00
1483.628, 11919.00
1484.668, 11901.00
1485.707, 11909.25
1486.747, 11928.10
1487.786, 11937.00
1488.825, 11957.00
1489.864, 11998.00
1490.902, 12020.00
1491.941, 12008.00
1492.979, 11911.00
1494.017, 11758.00
1495.055, 11900.00
1496.093, 11894.00
1497.131, 12052.00
1498.168, 12108.00
1499.206, 12021.00
1500.243, 11880.00
1501.280, 11955.00
1502.317, 11890.00
1503.354, 11989.00
1504.390, 11992.00
1505.426, 11914.00
1506.463, 12015.00
1507.499, 11786.00
1508.535, 12005.00
1509.570, 11900.00
1510.606, 11861.00
1511.641, 12043.00
1512.676, 12006.00
1513.711, 11871.00
1514.746, 11946.00
1515.781, 11982.00
1516.816, 12034.00
1517.850, 12061.32
1518.884, 12064.26
1519.918, 12002.00
1520.952, 12065.00
1521.986, 12010.79
1523.019, 11843.00
1524.053, 11977.00
1525.086, 11864.00
1526.119, 11890.00
1527.152, 11975.00
1528.185, 12042.00
1529.217, 11937.00
1530.250, 11825.00
1531.282, 11866.00
1532.314, 12047.00
1533.346, 11837.00
1534.377, 11914.00
1535.409, 11770.00
1536.440, 11780.00
1537.472, 11816.80
1538.503, 11969.00
1539.534, 11917.00
1540.564, 11919.00
1541.595, 11996.00
1542.625, 11995.00
1543.656, 12011.00
1544.686, 12012.78
1545.716, 12000.00
1546.745, 11957.00
1547.775, 11994.82
1548.804, 12005.76
1549.834, 12079.00
1550.863, 12112.00
1551.892, 12214.00
1552.920, 12339.00
1553.949, 12301.00
1554.977, 12310.00
1556.006, 12271.37
1557.034, 12174.33
1558.062, 12094.00
1559.089, 11989.00
1560.117, 11932.16
1561.144, 11831.00
1562.172, 11855.66
1563.199, 11835.33
1564.226, 11882.31
1565.252, 11901.00
1566.279, 11951.00
1567.305, 11967.00
1568.332, 11953.00
1569.358, 11796.00
1570.384, 11927.00
##END=



