##NAMES=Baddeleyite
##RRUFFID=R060016
##IDEAL CHEMISTRY=Zr^4+^O_2_
##LOCALITY=Wet Loo, Myanmar
##OWNER=RRUFF
##SOURCE=American Museum of Natural History
##DESCRIPTION=Brown crystal fragment
##STATUS=The identification of this mineral has been confirmed by X-ray diffraction and chemical analysis
##URL=rruff.info/R060016
##MEASURED CHEMISTRY=(Zr_0.99_Ti_0.01_)_Î£=1_O_2_
##PIN_ID=M00302
##ORIENTATION=Laser parallel to a* (1 0 0). Fiducial mark perpendicular to laser is parallel to b [0 1 0]
40.39300, 359.0000
41.63700, 352.0000
42.88100, 356.0000
44.12400, 361.0000
45.36700, 364.0000
46.61100, 357.0000
47.85400, 363.0000
49.09700, 360.6344
50.33900, 355.0000
51.58200, 359.0000
52.82400, 359.0000
54.06700, 356.0000
55.30900, 360.0000
56.55100, 364.0000
57.79200, 348.0000
59.03400, 369.0000
60.27600, 364.0000
61.51700, 349.0000
62.75800, 356.0000
63.99900, 365.0000
65.24000, 361.0000
66.48100, 352.0000
67.72100, 355.0000
68.96100, 354.7382
70.20200, 350.0000
71.44200, 364.0000
72.68200, 368.0000
73.92100, 377.0000
75.16100, 369.0000
76.40000, 375.0000
77.64000, 378.0000
78.87900, 393.0000
80.11800, 381.0000
81.35600, 404.0000
82.59500, 397.0000
83.83400, 429.0000
85.07200, 439.0000
86.31000, 458.0000
87.54800, 510.0000
88.78600, 545.0000
90.02400, 625.0000
91.26100, 739.0000
92.49800, 859.0000
93.73600, 1028.000
94.97300, 1335.000
96.21000, 1697.000
97.44600, 2282.000
98.68300, 3075.000
99.91900, 4092.000
101.1560, 4702.000
102.3920, 4887.000
103.6280, 4684.000
104.8630, 4043.000
106.0990, 3211.000
107.3350, 2531.000
108.5700, 2059.000
109.8050, 1716.000
111.0400, 1496.000
112.2750, 1401.000
113.5100, 1259.000
114.7440, 1321.000
115.9780, 1260.000
117.2130, 1184.000
118.4470, 1199.000
119.6810, 1153.000
120.9140, 1162.000
122.1480, 1196.000
123.3810, 1189.000
124.6150, 1197.000
125.8480, 1212.023
127.0810, 1203.000
128.3130, 1229.000
129.5460, 1223.000
130.7790, 1225.000
132.0110, 1267.000
133.2430, 1243.000
134.4750, 1262.000
135.7070, 1281.000
136.9380, 1316.000
138.1700, 1319.000
139.4010, 1383.000
140.6330, 1408.000
141.8640, 1386.000
143.0950, 1440.000
144.3250, 1451.000
145.5560, 1423.000
146.7860, 1498.000
148.0160, 1551.000
149.2470, 1570.000
150.4760, 1618.083
151.7060, 1607.000
152.9360, 1685.000
154.1650, 1727.000
155.3950, 1787.000
156.6240, 1851.000
157.8530, 1927.000
159.0820, 2075.000
160.3100, 2152.000
161.5390, 2324.000
162.7670, 2543.000
163.9950, 2918.000
165.2230, 3465.000
166.4510, 4147.000
167.6790, 5022.000
168.9060, 5779.000
170.1340, 6721.000
171.3610, 8225.000
172.5880, 10988.00
173.8150, 14181.00
175.0420, 17114.00
176.2690, 19232.00
177.4950, 20336.00
178.7210, 20257.00
179.9470, 18817.00
181.1730, 16560.00
182.3990, 14522.00
183.6250, 13420.00
184.8500, 14692.00
186.0760, 17981.00
187.3010, 22361.00
188.5260, 26022.00
189.7510, 27908.00
190.9750, 27631.00
192.2000, 24715.00
193.4240, 19756.00
194.6490, 14496.00
195.8730, 9796.000
197.0970, 6349.000
198.3200, 4426.000
199.5440, 3368.000
200.7670, 2847.000
201.9910, 2405.000
203.2140, 2162.000
204.4370, 1976.000
205.6590, 1878.000
206.8820, 1769.000
208.1050, 1631.000
209.3270, 1617.000
210.5490, 1564.000
211.7710, 1606.000
212.9930, 1586.000
214.2150, 1590.000
215.4360, 1607.000
216.6570, 1722.000
217.8790, 1779.000
219.1000, 1866.000
220.3210, 1886.000
221.5410, 1884.000
222.7620, 1826.000
223.9820, 1716.000
225.2030, 1649.000
226.4230, 1529.000
227.6430, 1455.000
228.8620, 1333.000
230.0820, 1294.000
231.3010, 1290.000
232.5210, 1261.000
233.7400, 1291.000
234.9590, 1248.000
236.1780, 1274.000
237.3960, 1273.000
238.6150, 1293.000
239.8330, 1294.000
241.0510, 1272.000
242.2690, 1257.000
243.4870, 1283.000
244.7050, 1238.000
245.9230, 1278.000
247.1400, 1291.000
248.3570, 1257.000
249.5740, 1287.000
250.7910, 1271.000
252.0080, 1295.000
253.2240, 1299.000
254.4410, 1317.000
255.6570, 1323.000
256.8730, 1288.000
258.0890, 1321.000
259.3050, 1326.000
260.5210, 1336.000
261.7360, 1359.000
262.9510, 1316.000
264.1670, 1284.000
265.3820, 1308.000
266.5960, 1323.000
267.8110, 1297.000
269.0260, 1312.000
270.2400, 1354.000
271.4540, 1345.000
272.6680, 1366.000
273.8820, 1375.000
275.0960, 1401.000
276.3090, 1440.000
277.5230, 1408.000
278.7360, 1506.000
279.9490, 1478.000
281.1620, 1540.000
282.3750, 1585.000
283.5880, 1604.000
284.8000, 1660.070
286.0120, 1695.348
287.2240, 1744.000
288.4360, 1774.000
289.6480, 1814.000
290.8600, 1896.149
292.0710, 1964.000
293.2830, 2095.000
294.4940, 2194.000
295.7050, 2351.000
296.9160, 2541.000
298.1260, 2757.765
299.3370, 3051.000
300.5470, 3296.000
301.7580, 3625.000
302.9680, 3957.000
304.1770, 4279.000
305.3870, 4444.000
306.5970, 4443.000
307.8060, 4457.000
309.0150, 4214.000
310.2250, 3891.000
311.4340, 3566.000
312.6420, 3223.000
313.8510, 2947.000
315.0590, 2809.000
316.2680, 2611.000
317.4760, 2551.000
318.6840, 2555.000
319.8920, 2560.000
321.0990, 2648.000
322.3070, 2731.000
323.5140, 2918.000
324.7210, 3092.000
325.9280, 3339.000
327.1350, 3567.000
328.3420, 3985.000
329.5490, 4362.000
330.7550, 4735.000
331.9610, 4951.000
333.1670, 5165.000
334.3730, 5122.000
335.5790, 5141.000
336.7840, 5111.000
337.9900, 5476.000
339.1950, 5848.000
340.4000, 6379.000
341.6050, 7231.000
342.8100, 8440.000
344.0150, 9603.000
345.2190, 10753.00
346.4230, 11209.00
347.6280, 11139.00
348.8320, 10403.00
350.0350, 9087.000
351.2390, 7783.000
352.4430, 6283.000
353.6460, 5296.000
354.8490, 4276.000
356.0520, 3573.000
357.2550, 3152.000
358.4580, 2763.000
359.6600, 2566.000
360.8630, 2362.000
362.0650, 2242.000
363.2670, 2170.000
364.4690, 2035.000
365.6710, 2058.000
366.8720, 2005.000
368.0740, 2102.000
369.2750, 2019.000
370.4760, 2009.000
371.6770, 2092.000
372.8780, 2240.000
374.0780, 2306.000
375.2790, 2442.000
376.4790, 2648.000
377.6790, 2753.000
378.8790, 2913.000
380.0790, 3085.000
381.2790, 3156.000
382.4780, 3217.000
383.6780, 3177.000
384.8770, 3040.000
386.0760, 2843.000
387.2750, 2644.000
388.4730, 2433.000
389.6720, 2231.000
390.8700, 2105.000
392.0690, 1948.000
393.2670, 1831.000
394.4650, 1782.000
395.6620, 1721.000
396.8600, 1637.000
398.0570, 1631.000
399.2550, 1614.000
400.4520, 1605.000
401.6490, 1598.000
402.8450, 1626.000
404.0420, 1566.000
405.2390, 1610.000
406.4350, 1588.000
407.6310, 1586.000
408.8270, 1642.000
410.0230, 1544.000
411.2190, 1622.000
412.4140, 1626.000
413.6090, 1626.000
414.8050, 1547.000
416.0000, 1568.000
417.1940, 1635.000
418.3890, 1598.000
419.5840, 1645.000
420.7780, 1625.000
421.9720, 1657.000
423.1660, 1668.000
424.3600, 1714.000
425.5540, 1707.000
426.7480, 1784.000
427.9410, 1783.000
429.1340, 1833.000
430.3270, 1866.000
431.5200, 1895.000
432.7130, 1946.719
433.9060, 1984.596
435.0980, 2066.000
436.2900, 2089.000
437.4830, 2201.000
438.6750, 2285.000
439.8660, 2396.000
441.0580, 2530.000
442.2500, 2622.000
443.4410, 2776.605
444.6320, 2881.000
445.8230, 3088.000
447.0140, 3250.000
448.2050, 3434.000
449.3950, 3683.000
450.5860, 3977.000
451.7760, 4384.000
452.9660, 4732.000
454.1560, 5370.000
455.3450, 6026.000
456.5350, 6735.000
457.7240, 7707.000
458.9140, 8885.000
460.1030, 10405.00
461.2920, 12299.00
462.4810, 14794.00
463.6690, 17821.00
464.8580, 21648.00
466.0460, 26062.00
467.2340, 31611.00
468.4220, 38030.00
469.6100, 45249.00
470.7970, 53256.00
471.9850, 60071.00
473.1720, 64999.00
474.3590, 65535.00
475.5460, 64821.00
476.7330, 59365.00
477.9200, 51247.00
479.1060, 42057.00
480.2930, 33334.00
481.4790, 26154.00
482.6650, 20764.00
483.8510, 16562.00
485.0370, 13732.00
486.2220, 11649.00
487.4080, 9943.000
488.5930, 8705.000
489.7780, 7757.000
490.9630, 7120.000
492.1480, 6546.000
493.3320, 6171.000
494.5170, 5774.000
495.7010, 5528.000
496.8850, 5400.000
498.0690, 5314.000
499.2530, 5140.000
500.4360, 4986.000
501.6200, 4865.000
502.8030, 4441.000
503.9860, 4224.000
505.1690, 3949.000
506.3520, 3673.000
507.5350, 3447.000
508.7170, 3210.000
509.9000, 3042.000
511.0820, 2884.000
512.2640, 2845.000
513.4460, 2705.000
514.6270, 2609.000
515.8090, 2631.000
516.9900, 2570.000
518.1710, 2496.000
519.3530, 2449.000
520.5330, 2411.000
521.7140, 2357.000
522.8950, 2376.000
524.0750, 2333.000
525.2550, 2406.000
526.4350, 2384.000
527.6150, 2432.000
528.7950, 2449.000
529.9750, 2527.000
531.1540, 2643.000
532.3340, 2697.000
533.5130, 2808.000
534.6920, 2980.000
535.8700, 3113.000
537.0490, 3292.000
538.2280, 3243.000
539.4060, 3268.000
540.5840, 3343.000
541.7620, 3512.000
542.9400, 3500.000
544.1180, 3679.000
545.2950, 3989.000
546.4720, 4379.000
547.6500, 4906.000
548.8270, 5464.000
550.0040, 6044.000
551.1800, 6850.000
552.3570, 7887.000
553.5330, 8621.000
554.7090, 9666.000
555.8850, 10170.00
557.0610, 10247.00
558.2370, 9812.000
559.4130, 9021.000
560.5880, 7940.000
561.7630, 6967.000
562.9380, 5942.000
564.1130, 5051.000
565.2880, 4236.000
566.4630, 3842.000
567.6370, 3399.000
568.8120, 3084.000
569.9860, 2796.000
571.1600, 2578.000
572.3330, 2416.000
573.5070, 2287.000
574.6810, 2199.000
575.8540, 2204.000
577.0270, 2076.000
578.2000, 2027.000
579.3730, 1952.000
580.5460, 1925.000
581.7180, 1870.000
582.8910, 1865.000
584.0630, 1884.000
585.2350, 1812.000
586.4070, 1815.000
587.5780, 1849.000
588.7500, 1770.000
589.9210, 1818.000
591.0930, 1842.000
592.2640, 1867.000
593.4350, 1899.000
594.6050, 1867.000
595.7760, 1919.000
596.9460, 1980.000
598.1170, 2058.000
599.2870, 2113.000
600.4570, 2174.000
601.6260, 2299.000
602.7960, 2397.000
603.9650, 2520.000
605.1350, 2824.000
606.3040, 3062.000
607.4730, 3252.000
608.6420, 3548.000
609.8100, 3952.000
610.9790, 4213.000
612.1470, 4560.000
613.3150, 4749.000
614.4830, 4893.000
615.6510, 4871.000
616.8190, 4720.000
617.9860, 4489.000
619.1540, 4171.000
620.3210, 3816.000
621.4880, 3574.000
622.6550, 3320.000
623.8220, 3111.000
624.9880, 3074.000
626.1550, 2924.000
627.3210, 3002.000
628.4870, 3015.000
629.6530, 3058.000
630.8190, 3174.000
631.9840, 3191.000
633.1500, 3291.000
634.3150, 3401.000
635.4800, 3280.000
636.6450, 3351.000
637.8100, 3278.000
638.9740, 3160.000
640.1390, 3061.000
641.3030, 2889.000
642.4670, 2731.000
643.6310, 2559.000
644.7950, 2439.000
645.9590, 2379.000
647.1220, 2223.000
648.2850, 2231.000
649.4490, 2143.000
650.6120, 2101.000
651.7740, 2066.000
652.9370, 2017.000
654.1000, 2033.000
655.2620, 1983.000
656.4240, 1956.000
657.5860, 1972.000
658.7480, 1935.000
659.9100, 1901.000
661.0710, 1884.000
662.2330, 1963.000
663.3940, 1872.000
664.5550, 1954.000
665.7160, 1910.000
666.8770, 1893.000
668.0370, 1935.000
669.1980, 1920.000
670.3580, 1906.000
671.5180, 1907.000
672.6780, 1916.455
673.8380, 1912.000
674.9970, 1952.000
676.1570, 1941.000
677.3160, 1954.000
678.4750, 1951.000
679.6340, 1916.000
680.7930, 1927.000
681.9520, 1965.000
683.1100, 1973.000
684.2680, 1922.000
685.4270, 1981.000
686.5850, 1997.000
687.7420, 1952.000
688.9000, 2031.000
690.0580, 2035.000
691.2150, 1981.000
692.3720, 2084.000
693.5290, 2031.000
694.6860, 2030.000
695.8430, 2022.000
696.9990, 2057.000
698.1560, 2079.000
699.3120, 2064.000
700.4680, 2107.000
701.6240, 2097.000
702.7800, 2161.000
703.9350, 2155.000
705.0900, 2103.000
706.2460, 2144.000
707.4010, 2123.000
708.5560, 2128.000
709.7110, 2117.000
710.8650, 2102.000
712.0200, 2126.000
713.1740, 2096.000
714.3280, 2082.000
715.4820, 2049.000
716.6360, 2067.000
717.7890, 2042.000
718.9430, 2026.666
720.0960, 2037.000
721.2490, 1990.000
722.4020, 1957.000
723.5550, 1938.000
724.7080, 1898.000
725.8600, 1911.000
727.0130, 1926.000
728.1650, 1892.000
729.3170, 1900.000
730.4690, 1860.000
731.6200, 1918.000
732.7720, 1888.000
733.9230, 1906.000
735.0740, 1907.000
736.2250, 1946.000
737.3760, 1931.000
738.5270, 1917.000
739.6780, 1908.000
740.8280, 1903.000
741.9780, 1918.502
743.1280, 1919.705
744.2780, 1952.000
745.4280, 1958.000
746.5770, 1952.000
747.7270, 2005.000
748.8760, 1999.000
750.0250, 2020.000
751.1740, 2003.000
752.3230, 2009.000
753.4720, 1991.000
754.6200, 1994.000
755.7680, 2019.000
756.9160, 1976.000
758.0640, 1897.000
759.2120, 1930.000
760.3600, 1906.000
761.5070, 1846.000
762.6550, 1833.000
763.8020, 1818.000
764.9490, 1761.000
766.0960, 1824.000
767.2420, 1757.000
768.3890, 1727.000
769.5350, 1692.000
770.6810, 1641.000
771.8270, 1621.000
772.9730, 1672.000
774.1190, 1594.000
775.2640, 1572.000
776.4100, 1615.000
777.5550, 1571.000
778.7000, 1557.000
779.8450, 1510.000
780.9900, 1509.450
782.1340, 1543.000
783.2790, 1509.000
784.4230, 1492.000
785.5670, 1494.000
786.7110, 1474.000
787.8550, 1439.000
788.9980, 1439.000
790.1420, 1488.000
791.2850, 1431.000
792.4280, 1448.000
793.5710, 1458.000
794.7140, 1380.000
795.8560, 1472.000
796.9990, 1393.000
798.1410, 1413.000
799.2830, 1423.000
800.4250, 1360.000
801.5670, 1390.000
802.7090, 1351.000
803.8500, 1402.000
804.9920, 1334.000
806.1330, 1311.000
807.2740, 1356.000
808.4150, 1369.000
809.5550, 1312.000
810.6960, 1313.000
811.8360, 1319.000
812.9760, 1311.000
814.1160, 1313.000
815.2560, 1317.000
816.3960, 1301.000
817.5350, 1253.000
818.6750, 1268.000
819.8140, 1242.000
820.9530, 1260.000
822.0920, 1217.000
823.2310, 1267.000
824.3690, 1233.000
825.5080, 1253.000
826.6460, 1259.000
827.7840, 1246.000
828.9220, 1286.000
830.0600, 1247.526
831.1970, 1243.000
832.3350, 1203.000
833.4720, 1209.000
834.6090, 1216.000
835.7460, 1177.000
836.8830, 1225.000
838.0190, 1168.000
839.1560, 1157.000
840.2920, 1166.000
841.4280, 1176.000
842.5640, 1158.000
843.7000, 1204.000
844.8360, 1142.000
845.9710, 1160.000
847.1070, 1182.000
848.2420, 1169.000
849.3770, 1167.000
850.5120, 1147.000
851.6460, 1171.000
852.7810, 1153.000
853.9150, 1178.000
855.0490, 1154.000
856.1830, 1146.000
857.3170, 1141.000
858.4510, 1134.185
859.5840, 1154.000
860.7180, 1140.000
861.8510, 1148.000
862.9840, 1165.000
864.1170, 1128.000
865.2500, 1165.000
866.3820, 1130.000
867.5150, 1127.000
868.6470, 1147.000
869.7790, 1156.000
870.9110, 1159.485
872.0430, 1164.878
873.1740, 1162.000
874.3060, 1152.000
875.4370, 1136.000
876.5680, 1139.518
877.6990, 1142.000
878.8300, 1137.000
879.9600, 1142.000
881.0910, 1133.000
882.2210, 1110.000
883.3510, 1100.000
884.4810, 1165.000
885.6110, 1118.000
886.7410, 1106.000
887.8700, 1097.000
888.9990, 1041.000
890.1290, 1118.000
891.2580, 1148.000
892.3860, 1105.000
893.5150, 1128.000
894.6440, 1091.000
895.7720, 1084.000
896.9000, 1117.000
898.0280, 1097.000
899.1560, 1090.000
900.2840, 1053.000
901.4110, 1073.000
902.5390, 1077.000
903.6660, 1092.000
904.7930, 1086.000
905.9200, 1072.000
907.0470, 1063.000
908.1730, 1082.000
909.3000, 1088.000
910.4260, 1117.000
911.5520, 1065.000
912.6780, 1046.000
913.8030, 1077.000
914.9290, 1048.000
916.0540, 1038.000
917.1800, 1054.000
918.3050, 1065.000
919.4300, 1046.000
920.5550, 1066.000
921.6790, 1045.000
922.8040, 1058.000
923.9280, 1073.000
925.0520, 1056.000
926.1760, 1064.000
927.3000, 1073.000
928.4230, 1039.000
929.5470, 1040.000
930.6700, 1050.000
931.7930, 1073.000
932.9160, 1042.000
934.0390, 1049.000
935.1620, 1078.000
936.2840, 1035.000
937.4070, 1033.000
938.5290, 1045.000
939.6510, 1065.000
940.7730, 1024.000
941.8940, 1014.000
943.0160, 1026.000
944.1370, 1029.000
945.2580, 1042.000
946.3800, 1055.000
947.5000, 1042.000
948.6210, 1018.000
949.7420, 1027.000
950.8620, 1019.000
951.9820, 1014.000
953.1020, 1026.000
954.2220, 1007.000
955.3420, 1015.000
956.4620, 1023.000
957.5810, 1036.000
958.7000, 1036.000
959.8190, 1024.000
960.9380, 1006.000
962.0570, 995.0000
963.1760, 1033.000
964.2940, 993.0000
965.4120, 1007.000
966.5300, 971.0000
967.6480, 1040.000
968.7660, 998.0000
969.8840, 1026.000
971.0010, 1000.000
972.1190, 1019.000
973.2360, 974.0000
974.3530, 1030.000
975.4690, 981.0000
976.5860, 1034.000
977.7030, 1014.000
978.8190, 975.0000
979.9350, 1050.000
981.0510, 1016.000
982.1670, 997.0000
983.2830, 1004.000
984.3980, 991.0000
985.5130, 983.0000
986.6290, 1016.000
987.7440, 1026.000
988.8590, 1025.000
989.9730, 1044.000
991.0880, 1016.000
992.2020, 995.0000
993.3160, 1017.000
994.4300, 1011.000
995.5440, 1041.000
996.6580, 1013.000
997.7720, 1027.000
998.8850, 1027.000
999.9980, 1011.000
1001.111, 1017.000
1002.224, 1025.000
1003.337, 1034.000
1004.450, 1024.781
1005.562, 1045.000
1006.674, 1011.000
1007.786, 1001.000
1008.898, 1009.000
1010.010, 1016.000
1011.122, 1019.000
1012.233, 1002.000
1013.344, 990.0000
1014.455, 1008.000
1015.566, 1017.000
1016.677, 1045.000
1017.788, 1016.000
1018.898, 1003.000
1020.009, 1013.000
1021.119, 1011.000
1022.229, 987.0000
1023.339, 1034.000
1024.448, 1024.000
1025.558, 996.0000
1026.667, 986.0000
1027.776, 1012.000
1028.885, 978.0000
1029.994, 981.0000
1031.103, 1030.000
1032.211, 1020.000
1033.320, 971.0000
1034.428, 1007.000
1035.536, 1003.000
1036.644, 990.0000
1037.751, 991.0000
1038.859, 1003.000
1039.966, 1026.000
1041.074, 1010.000
1042.181, 1017.000
1043.288, 971.0000
1044.394, 965.0000
1045.501, 1015.000
1046.607, 982.0000
1047.713, 995.0000
1048.820, 991.0000
1049.925, 1007.000
1051.031, 997.0000
1052.137, 1003.000
1053.242, 987.0000
1054.348, 985.0000
1055.453, 1017.000
1056.558, 1003.000
1057.662, 1004.000
1058.767, 1008.000
1059.871, 971.0000
1060.976, 1006.000
1062.080, 999.0000
1063.184, 972.0000
1064.288, 998.0000
1065.391, 1008.000
1066.495, 960.0000
1067.598, 978.0000
1068.701, 964.0000
1069.804, 992.0000
1070.907, 1021.000
1072.010, 974.0000
1073.112, 992.0000
1074.214, 1002.000
1075.317, 1014.000
1076.419, 983.0000
1077.521, 961.0000
1078.622, 1008.000
1079.724, 943.0000
1080.825, 988.0000
1081.926, 990.0000
1083.027, 984.0000
1084.128, 994.0000
1085.229, 1001.000
1086.329, 999.0000
1087.430, 989.0000
1088.530, 1011.000
1089.630, 1022.000
1090.730, 1003.000
1091.830, 1006.000
1092.929, 1005.000
1094.029, 961.0000
1095.128, 962.0000
1096.227, 1013.000
1097.326, 961.0000
1098.425, 996.0000
1099.523, 995.0000
1100.622, 1008.000
1101.720, 987.0000
1102.818, 1012.000
1103.916, 993.0000
1105.014, 966.0000
1106.111, 954.0000
1107.209, 992.0000
1108.306, 994.0000
1109.403, 971.0000
1110.500, 991.0000
1111.597, 966.0000
1112.694, 969.0000
1113.790, 971.0000
1114.887, 956.0000
1115.983, 1001.000
1117.079, 983.0000
1118.174, 1003.000
1119.270, 961.0000
1120.366, 1009.000
1121.461, 1000.000
1122.556, 975.0000
1123.651, 1010.000
1124.746, 975.0000
1125.841, 979.0000
1126.935, 953.0000
1128.030, 976.0000
1129.124, 971.4205
1130.218, 999.0000
1131.312, 979.0000
1132.405, 983.0000
1133.499, 976.0000
1134.592, 987.0000
1135.686, 1000.000
1136.779, 990.0000
1137.871, 999.6811
1138.964, 995.0000
1140.057, 1003.000
1141.149, 1008.000
1142.241, 1011.000
1143.334, 993.0000
1144.425, 999.0000
1145.517, 989.0000
1146.609, 991.8619
1147.700, 994.0000
1148.791, 1000.000
1149.883, 1016.000
1150.974, 1019.000
1152.064, 983.0000
1153.155, 1015.000
1154.245, 997.0000
1155.336, 981.0000
1156.426, 993.0000
1157.516, 950.0000
1158.606, 978.0000
1159.695, 992.0000
1160.785, 940.0000
1161.874, 977.0000
1162.963, 1007.000
1164.052, 1000.000
1165.141, 1002.000
1166.230, 1011.000
1167.318, 1002.000
1168.406, 1018.000
1169.495, 985.0000
1170.583, 1003.000
1171.670, 996.0000
1172.758, 1038.000
1173.846, 1010.000
1174.933, 997.0000
1176.020, 983.0000
1177.107, 977.5740
1178.194, 971.6251
1179.281, 981.0000
1180.367, 977.0000
1181.454, 985.0000
1182.540, 1009.000
1183.626, 981.0000
1184.712, 974.0000
1185.798, 1011.000
1186.883, 1009.000
1187.969, 1005.549
1189.054, 989.0000
1190.139, 989.0000
1191.224, 969.0000
1192.309, 960.0000
1193.393, 984.0000
1194.478, 1010.000
1195.562, 991.0000
1196.646, 988.0000
1197.730, 976.0000
1198.814, 975.9691
1199.897, 970.0000
1200.981, 986.0000
1202.064, 995.0000
1203.147, 1012.000
1204.230, 988.0000
1205.313, 975.0000
1206.396, 1000.000
1207.478, 1023.000
1208.560, 994.0000
1209.642, 1024.000
1210.724, 1019.000
1211.806, 1011.000
1212.888, 1012.000
1213.969, 1008.990
1215.051, 1011.000
1216.132, 1012.000
1217.213, 1022.000
1218.294, 1031.000
1219.374, 1038.000
1220.455, 1047.000
1221.535, 1051.000
1222.616, 1073.000
1223.696, 1066.869
1224.775, 1076.000
1225.855, 1057.000
1226.935, 1063.000
1228.014, 1048.000
1229.093, 1068.000
1230.172, 1023.000
1231.251, 1050.000
1232.330, 1033.000
1233.408, 1059.000
1234.487, 1025.000
1235.565, 1054.000
1236.643, 1015.000
1237.721, 1024.000
1238.799, 1004.000
1239.876, 1041.000
1240.954, 1038.000
1242.031, 1033.000
1243.108, 1024.000
1244.185, 1014.000
1245.262, 976.0000
1246.338, 1008.000
1247.415, 1017.000
1248.491, 1059.000
1249.567, 1045.000
1250.643, 1025.000
1251.719, 1016.000
1252.795, 1044.000
1253.870, 1032.000
1254.945, 1064.000
1256.021, 1007.000
1257.096, 1042.000
1258.170, 1010.000
1259.245, 1039.000
1260.320, 1069.000
1261.394, 1058.000
1262.468, 1070.865
1263.542, 1051.000
1264.616, 1062.000
1265.690, 1054.000
1266.763, 1048.000
1267.836, 1072.000
1268.910, 1039.000
1269.983, 1049.000
1271.055, 1009.000
1272.128, 1016.000
1273.201, 1026.000
1274.273, 1043.000
1275.345, 1030.000
1276.417, 1060.000
1277.489, 997.0000
1278.561, 1009.000
1279.632, 985.0000
1280.704, 1002.000
1281.775, 1038.000
1282.846, 1007.000
1283.917, 1024.000
1284.988, 1048.000
1286.058, 1023.000
1287.129, 1020.000
1288.199, 1041.000
1289.269, 1042.000
1290.339, 1030.000
1291.409, 1017.000
1292.478, 1035.000
1293.548, 1031.000
1294.617, 1009.000
1295.686, 1039.000
1296.755, 1042.000
1297.824, 1031.000
1298.893, 1032.000
1299.961, 1035.000
1301.029, 1033.000
1302.097, 1032.000
1303.165, 1028.000
1304.233, 1029.297
1305.301, 1060.000
1306.368, 1033.000
1307.436, 1042.000
1308.503, 1049.000
1309.570, 992.0000
1310.637, 1019.000
1311.703, 1045.000
1312.770, 1066.000
1313.836, 1032.000
1314.902, 1040.000
1315.968, 1051.000
1317.034, 1011.000
1318.100, 1032.000
1319.165, 1040.000
1320.231, 1055.000
1321.296, 1048.000
1322.361, 1035.000
1323.426, 1036.000
1324.491, 1035.000
1325.555, 1030.000
1326.620, 1055.000
1327.684, 1049.000
1328.748, 1019.000
1329.812, 1037.000
1330.875, 1026.000
1331.939, 1041.000
1333.002, 1043.000
1334.066, 1029.000
1335.129, 1021.000
1336.192, 1065.000
1337.254, 1025.000
1338.317, 1035.000
1339.379, 1031.000
1340.442, 1013.000
1341.504, 1017.000
1342.566, 1014.000
1343.628, 1022.000
1344.689, 1028.000
1345.751, 1042.000
1346.812, 1019.000
1347.873, 1035.000
1348.934, 1057.000
1349.995, 1025.000
1351.055, 1023.000
1352.116, 1046.000
1353.176, 1015.000
1354.236, 1027.000
1355.296, 1015.000
1356.356, 1028.000
1357.416, 1036.000
1358.475, 1034.840
1359.535, 1002.000
1360.594, 1038.000
1361.653, 1027.000
1362.712, 1019.000
1363.770, 1036.000
1364.829, 1013.000
1365.887, 1033.000
1366.945, 1051.000
1368.003, 1029.000
1369.061, 1043.000
1370.119, 1029.000
1371.177, 1039.000
1372.234, 1022.000
1373.291, 1028.000
1374.348, 1015.000
1375.405, 1014.000
1376.462, 1021.000
1377.518, 1012.353
1378.575, 1043.000
1379.631, 1005.000
1380.687, 1003.000
1381.743, 995.0000
1382.799, 1019.000
1383.854, 1044.000
1384.910, 1056.000
1385.965, 1059.874
1387.020, 1045.000
1388.075, 1049.000
1389.130, 1042.000
1390.184, 1027.000
1391.239, 1051.000
1392.293, 1028.000
1393.347, 1042.000
1394.401, 1052.000
1395.455, 1017.000
1396.509, 1070.000
1397.562, 1053.000
1398.615, 1025.000
1399.669, 1023.000
1400.722, 1053.000
1401.774, 1033.000
1402.827, 1038.000
1403.879, 1032.000
1404.932, 1036.000
1405.984, 1013.000
1407.036, 1063.000
1408.088, 1008.000
1409.139, 1053.000
1410.191, 1050.000
1411.242, 1063.000
1412.294, 1022.000
1413.345, 1043.000
1414.395, 1048.000
1415.446, 1055.000
1416.497, 1020.000
1417.547, 1024.000
1418.597, 1019.000
1419.647, 1044.000
1420.697, 1007.000
1421.747, 1052.000
1422.796, 1046.000
1423.846, 1035.000
1424.895, 1059.000
1425.944, 1050.000
1426.993, 1049.000
1428.042, 1087.000
1429.090, 1004.000
1430.139, 1065.000
1431.187, 1028.000
1432.235, 1029.000
1433.283, 1010.000
1434.331, 1039.000
1435.378, 1009.000
1436.426, 1040.000
1437.473, 1015.000
1438.520, 1013.000
1439.567, 1025.000
1440.614, 1010.000
1441.661, 1045.000
1442.707, 1034.000
1443.753, 1027.000
1444.799, 1010.000
1445.845, 1008.300
1446.891, 1035.000
1447.937, 1012.000
1448.982, 993.0000
1450.028, 1016.000
1451.073, 988.0000
1452.118, 1020.000
1453.163, 1037.000
1454.207, 1042.000
1455.252, 1058.144
1456.296, 1035.000
1457.340, 1063.000
1458.384, 1039.000
1459.428, 1021.000
1460.472, 1020.000
1461.515, 1029.000
1462.559, 1034.000
1463.602, 1040.000
1464.645, 1055.000
1465.688, 1003.000
1466.731, 1035.000
1467.773, 1011.000
1468.816, 1045.000
1469.858, 1028.000
1470.900, 1044.000
1471.942, 1040.000
1472.983, 1036.000
1474.025, 1052.000
1475.066, 1014.000
1476.108, 989.0000
1477.149, 1053.000
1478.190, 1025.000
1479.230, 1009.000
1480.271, 1047.000
1481.311, 994.0000
1482.352, 1061.000
1483.392, 1007.000
1484.432, 1047.000
1485.472, 988.0000
1486.511, 1027.000
1487.551, 1026.000
1488.590, 1022.000
1489.629, 1006.000
1490.668, 1012.000
1491.707, 1016.251
1492.745, 1012.119
1493.784, 1023.511
1494.822, 1015.000
1495.860, 1038.000
1496.898, 1042.000
1497.936, 1043.000
1498.974, 1057.000
1500.011, 1018.000
1501.049, 1057.000
1502.086, 1027.000
1503.123, 1035.000
1504.160, 1037.000
1505.196, 1020.000
1506.233, 1060.000
1507.269, 1029.000
1508.305, 1026.000
1509.341, 1070.000
1510.377, 1014.000
1511.413, 1011.000
1512.449, 1038.000
1513.484, 1031.000
1514.519, 1023.000
1515.554, 1052.000
1516.589, 1018.000
1517.624, 1076.000
1518.658, 1043.000
1519.693, 1021.000
1520.727, 1064.000
1521.761, 1038.000
1522.795, 1034.000
1523.829, 1027.000
1524.862, 1027.000
1525.896, 1060.000
1526.929, 1035.000
1527.962, 1039.000
1528.995, 992.0000
1530.028, 1000.000
1531.060, 1022.000
1532.093, 1035.000
1533.125, 1038.828
1534.157, 1025.000
1535.189, 1033.000
1536.221, 1020.000
1537.253, 991.0000
1538.284, 1042.000
1539.316, 1007.000
1540.347, 988.0000
1541.378, 1014.000
1542.408, 997.0000
1543.439, 981.0000
1544.470, 1020.000
1545.500, 1002.000
1546.530, 1010.000
1547.560, 1005.000
1548.590, 1019.000
1549.620, 1002.000
1550.649, 1008.000
1551.679, 1029.000
1552.708, 1038.000
1553.737, 1013.000
1554.766, 998.0000
1555.794, 1011.000
1556.823, 1026.000
1557.851, 979.0000
1558.879, 1006.000
1559.907, 997.0000
1560.935, 987.0000
1561.963, 1077.000
##END=



