##NAMES=Baddeleyite
##RRUFFID=R060078
##IDEAL CHEMISTRY=Zr^4+^O_2_
##LOCALITY=Wetloo mine, Mogok, Burma
##OWNER=RRUFF
##SOURCE=Marcus Origlieri
##DESCRIPTION=Dark brown fragment
##STATUS=The identification of this mineral has been confirmed by X-ray diffraction and chemical analysis
##URL=rruff.info/R060078
##MEASURED CHEMISTRY=(Zr_0.99_Hf_0.01_)_Î£=1_O_2_
##PIN_ID=L01430
##ORIENTATION=Laser parallel to c* (0 0 1). Fiducial mark perpendicular to laser is parallel to a [1 0 0]
51.43100, 1252.000
52.67100, 1265.000
53.91000, 1248.000
55.14900, 1255.000
56.38700, 1277.000
57.62600, 1363.000
58.86400, 1425.000
60.10300, 1513.000
61.34100, 1389.000
62.57900, 1449.000
63.81700, 1515.000
65.05400, 1722.000
66.29200, 1974.000
67.52900, 2364.000
68.76700, 3434.000
70.00400, 4905.000
71.24100, 5826.000
72.47700, 5014.000
73.71400, 4823.000
74.95100, 5618.000
76.18700, 6322.000
77.42300, 5605.000
78.65900, 5501.000
79.89500, 6481.000
81.13100, 7913.000
82.36700, 9893.000
83.60200, 11491.00
84.83700, 11263.00
86.07200, 10248.00
87.30800, 10676.00
88.54200, 11386.00
89.77700, 12960.00
91.01200, 15324.00
92.24600, 16535.00
93.48000, 16357.00
94.71400, 16519.00
95.94800, 16375.00
97.18200, 16390.00
98.41600, 17453.00
99.64900, 18992.00
100.8830, 20573.00
102.1160, 24841.00
103.3490, 32976.00
104.5820, 44610.00
105.8150, 54087.00
107.0470, 51206.00
108.2800, 44080.00
109.5120, 38882.00
110.7440, 28680.00
111.9760, 21006.00
113.2080, 18956.00
114.4400, 19247.00
115.6710, 20380.00
116.9030, 19177.00
118.1340, 18410.00
119.3650, 17440.00
120.5960, 17133.00
121.8270, 17462.00
123.0580, 16710.29
124.2880, 17647.00
125.5190, 16126.00
126.7490, 15613.00
127.9790, 15562.00
129.2090, 16009.00
130.4390, 15867.00
131.6680, 15608.00
132.8980, 14847.00
134.1270, 14584.00
135.3560, 14655.00
136.5850, 14841.00
137.8140, 15655.00
139.0430, 16240.00
140.2710, 15821.00
141.5000, 15020.00
142.7280, 14496.00
143.9560, 14248.00
145.1840, 14174.00
146.4120, 14384.00
147.6390, 14420.00
148.8670, 14203.00
150.0940, 14426.00
151.3210, 14537.45
152.5490, 15576.00
153.7750, 15153.00
155.0020, 15096.00
156.2290, 15706.00
157.4550, 14164.00
158.6810, 14224.00
159.9080, 14414.00
161.1340, 14945.00
162.3590, 15702.00
163.5850, 16915.00
164.8110, 17244.57
166.0360, 17902.37
167.2610, 18419.00
168.4860, 18820.00
169.7110, 19687.00
170.9360, 20382.00
172.1610, 21176.00
173.3850, 21666.00
174.6100, 23464.00
175.8340, 26851.00
177.0580, 32669.00
178.2820, 42406.00
179.5050, 54141.00
180.7290, 55285.00
181.9520, 45772.00
183.1760, 34877.00
184.3990, 28891.00
185.6220, 26557.00
186.8450, 26758.00
188.0670, 29034.00
189.2900, 34436.00
190.5120, 44429.00
191.7340, 60794.00
192.9560, 65535.00
194.1780, 61483.00
195.4000, 46126.00
196.6220, 34758.00
197.8430, 29037.00
199.0640, 28151.00
200.2860, 26274.00
201.5070, 27015.00
202.7270, 26815.00
203.9480, 24467.00
205.1690, 21084.00
206.3890, 19295.00
207.6090, 18376.00
208.8290, 17923.00
210.0490, 17833.00
211.2690, 17859.00
212.4890, 17655.00
213.7080, 17779.00
214.9280, 17776.00
216.1470, 17242.00
217.3660, 17418.00
218.5850, 17523.00
219.8030, 17910.00
221.0220, 18516.00
222.2400, 22735.00
223.4590, 20715.00
224.6770, 22368.00
225.8950, 19276.00
227.1120, 18407.00
228.3300, 17675.00
229.5480, 17202.00
230.7650, 16968.18
231.9820, 16678.09
233.1990, 17002.00
234.4160, 16729.00
235.6330, 16923.00
236.8490, 17476.00
238.0660, 16241.00
239.2820, 15723.00
240.4980, 15776.00
241.7140, 15769.00
242.9300, 15662.00
244.1460, 15836.00
245.3610, 16152.00
246.5770, 16289.00
247.7920, 16532.00
249.0070, 16281.00
250.2220, 16397.00
251.4370, 16352.00
252.6510, 16371.00
253.8660, 16360.00
255.0800, 16499.00
256.2940, 16695.00
257.5080, 17234.00
258.7220, 18987.00
259.9360, 18503.11
261.1490, 19496.00
262.3630, 18127.00
263.5760, 17334.00
264.7890, 16491.00
266.0020, 16529.00
267.2150, 16368.00
268.4270, 16236.00
269.6400, 16413.00
270.8520, 16366.00
272.0640, 16261.00
273.2760, 16374.00
274.4880, 16571.00
275.7000, 16696.00
276.9120, 16701.00
278.1230, 16771.00
279.3340, 16845.00
280.5450, 17035.47
281.7560, 17290.00
282.9670, 17589.00
284.1780, 17831.00
285.3880, 18314.00
286.5980, 18522.93
287.8090, 18902.68
289.0190, 19085.00
290.2290, 19666.00
291.4380, 19999.00
292.6480, 20534.00
293.8570, 21003.00
295.0670, 23699.00
296.2760, 24823.00
297.4850, 28003.00
298.6930, 23252.00
299.9020, 22794.00
301.1110, 23382.00
302.3190, 24365.00
303.5270, 25201.00
304.7350, 27065.00
305.9430, 28982.00
307.1510, 30913.00
308.3580, 31815.00
309.5660, 32123.00
310.7730, 31224.00
311.9800, 28534.00
313.1870, 26629.00
314.3940, 24886.00
315.6010, 23807.00
316.8070, 22672.00
318.0130, 22370.00
319.2200, 21800.00
320.4260, 21847.00
321.6310, 21838.00
322.8370, 21849.00
324.0430, 22221.00
325.2480, 22687.00
326.4540, 23223.00
327.6590, 23652.00
328.8640, 24589.00
330.0680, 25742.00
331.2730, 27502.00
332.4780, 30221.00
333.6820, 31941.00
334.8860, 32012.00
336.0900, 30091.00
337.2940, 27215.00
338.4980, 24984.00
339.7010, 23530.00
340.9050, 22955.00
342.1080, 23281.00
343.3110, 24335.00
344.5140, 26360.00
345.7170, 29788.00
346.9200, 33895.00
348.1220, 38090.00
349.3240, 39824.00
350.5270, 37775.00
351.7290, 33617.00
352.9310, 28842.00
354.1320, 25011.00
355.3340, 21966.00
356.5350, 19928.00
357.7370, 18552.00
358.9380, 17508.00
360.1390, 16764.00
361.3400, 16159.00
362.5400, 15881.00
363.7410, 15723.00
364.9410, 15834.00
366.1410, 15646.00
367.3410, 15974.00
368.5410, 15848.00
369.7410, 16131.00
370.9400, 16496.00
372.1400, 17595.00
373.3390, 18284.00
374.5380, 19160.00
375.7370, 21018.00
376.9360, 23750.00
378.1350, 27334.00
379.3330, 30287.00
380.5310, 31697.00
381.7300, 30469.00
382.9280, 28677.00
384.1260, 26966.00
385.3230, 25527.00
386.5210, 23856.00
387.7180, 21877.00
388.9160, 19975.00
390.1130, 18482.00
391.3100, 17178.13
392.5060, 16056.00
393.7030, 15324.00
394.9000, 14601.00
396.0960, 14233.00
397.2920, 13950.00
398.4880, 13758.00
399.6840, 13492.16
400.8800, 13281.00
402.0750, 13132.00
403.2710, 12879.00
404.4660, 12787.00
405.6610, 12637.00
406.8560, 12544.00
408.0510, 12507.00
409.2450, 12527.00
410.4400, 12393.00
411.6340, 12396.00
412.8280, 12256.00
414.0220, 12209.18
415.2160, 12191.21
416.4100, 12119.00
417.6030, 12173.00
418.7970, 12203.00
419.9900, 12226.00
421.1830, 12194.00
422.3760, 12296.46
423.5690, 12250.00
424.7610, 12498.00
425.9540, 12593.00
427.1460, 12741.00
428.3380, 12846.35
429.5300, 13028.00
430.7220, 12965.00
431.9140, 13111.00
433.1050, 13108.00
434.2970, 13175.00
435.4880, 13345.00
436.6790, 13342.00
437.8700, 13349.00
439.0610, 13377.00
440.2510, 13610.00
441.4420, 13596.00
442.6320, 13745.00
443.8220, 13818.00
445.0120, 13848.00
446.2020, 14031.00
447.3910, 14073.00
448.5810, 14285.00
449.7700, 14250.00
450.9600, 14480.00
452.1490, 14600.00
453.3370, 14730.00
454.5260, 15155.00
455.7150, 15297.00
456.9030, 15674.00
458.0910, 16065.00
459.2800, 16376.00
460.4670, 17807.00
461.6550, 20764.00
462.8430, 20134.00
464.0300, 24324.00
465.2180, 20886.00
466.4050, 22369.00
467.5920, 24895.00
468.7790, 27128.00
469.9650, 30627.00
471.1520, 34922.00
472.3380, 40784.00
473.5250, 47272.00
474.7110, 53938.00
475.8970, 57168.00
477.0820, 56708.00
478.2680, 51400.00
479.4540, 43878.00
480.6390, 37476.00
481.8240, 31793.00
483.0090, 27405.14
484.1940, 23555.00
485.3780, 21336.00
486.5630, 19751.00
487.7470, 18843.00
488.9320, 18019.00
490.1160, 17377.00
491.3000, 17016.00
492.4830, 16850.00
493.6670, 16763.00
494.8500, 16600.00
496.0340, 16666.00
497.2170, 16728.00
498.4000, 16907.00
499.5820, 17442.00
500.7650, 17986.00
501.9480, 18091.00
503.1300, 18665.00
504.3120, 17898.00
505.4940, 16951.00
506.6760, 16288.00
507.8580, 15796.00
509.0390, 15243.00
510.2210, 14937.00
511.4020, 14782.00
512.5830, 14489.40
513.7640, 14501.00
514.9450, 14201.00
516.1250, 14343.00
517.3060, 14260.00
518.4860, 14109.00
519.6660, 14221.00
520.8460, 14248.00
522.0260, 14198.00
523.2060, 14217.00
524.3850, 14309.00
525.5650, 14521.00
526.7440, 14573.50
527.9230, 14783.84
529.1020, 14847.00
530.2810, 15158.00
531.4590, 15399.00
532.6380, 15573.00
533.8160, 16104.00
534.9940, 16455.00
536.1720, 17116.00
537.3500, 18096.00
538.5270, 18666.00
539.7050, 18574.86
540.8820, 18549.72
542.0590, 18445.14
543.2360, 18265.38
544.4130, 17785.27
545.5900, 17693.00
546.7660, 17445.49
547.9430, 17191.42
549.1190, 17900.00
550.2950, 18187.00
551.4710, 18844.00
552.6470, 19856.00
553.8220, 21126.00
554.9980, 22466.00
556.1730, 24272.00
557.3480, 25246.00
558.5230, 26416.00
559.6980, 26156.00
560.8730, 25348.00
562.0470, 23964.00
563.2220, 22865.00
564.3960, 21049.00
565.5700, 19767.00
566.7440, 18918.00
567.9170, 18185.00
569.0910, 17502.50
570.2640, 16969.77
571.4380, 16632.00
572.6110, 16165.00
573.7840, 15897.00
574.9570, 15714.00
576.1290, 15365.00
577.3020, 15391.00
578.4740, 15126.00
579.6460, 14940.00
580.8180, 14858.00
581.9900, 14828.00
583.1620, 14522.00
584.3330, 14632.00
585.5040, 14879.00
586.6760, 14599.00
587.8470, 14496.00
589.0180, 14660.00
590.1880, 14672.00
591.3590, 14509.00
592.5290, 14886.00
593.7000, 14932.00
594.8700, 15120.00
596.0400, 15423.00
597.2090, 15578.00
598.3790, 16032.00
599.5490, 16143.00
600.7180, 16570.00
601.8870, 17253.00
603.0560, 17648.00
604.2250, 18656.00
605.3940, 19341.00
606.5620, 20417.00
607.7300, 21586.00
608.8990, 22743.00
610.0670, 23458.00
611.2350, 24807.00
612.4020, 25900.00
613.5700, 26744.00
614.7370, 28168.00
615.9050, 28119.00
617.0720, 27944.00
618.2390, 27314.00
619.4060, 26345.00
620.5720, 25147.00
621.7390, 24294.00
622.9050, 23544.00
624.0710, 23027.00
625.2370, 22978.00
626.4030, 23193.00
627.5690, 24043.00
628.7340, 24928.00
629.9000, 26337.00
631.0650, 28124.00
632.2300, 30474.00
633.3950, 33232.00
634.5600, 36637.00
635.7240, 39611.00
636.8890, 41798.00
638.0530, 42245.39
639.2170, 42351.00
640.3810, 40602.00
641.5450, 37353.00
642.7080, 34080.00
643.8720, 30577.00
645.0350, 27859.00
646.1980, 25299.00
647.3610, 23295.00
648.5240, 21969.00
649.6870, 20376.00
650.8490, 19633.00
652.0120, 18720.00
653.1740, 18010.00
654.3360, 17378.00
655.4980, 16855.00
656.6600, 16665.00
657.8210, 16185.00
658.9830, 16010.00
660.1440, 15863.00
661.3050, 15645.00
662.4660, 15313.00
663.6270, 15228.00
664.7870, 15001.00
665.9480, 14815.00
667.1080, 14731.00
668.2680, 14612.00
669.4280, 14635.00
670.5880, 14612.00
671.7480, 14634.00
672.9070, 14735.00
674.0670, 14612.00
675.2260, 14471.00
676.3850, 14598.00
677.5440, 14484.00
678.7030, 14419.00
679.8610, 14391.00
681.0200, 14501.00
682.1780, 14505.00
683.3360, 14469.00
684.4940, 14687.00
685.6520, 14755.00
686.8090, 14732.00
687.9670, 14864.00
689.1240, 14939.00
690.2810, 14884.00
691.4380, 15080.00
692.5950, 15359.00
693.7520, 15216.00
694.9080, 15537.00
696.0650, 15778.00
697.2210, 15767.00
698.3770, 15961.00
699.5330, 16212.00
700.6880, 16372.00
701.8440, 16553.00
702.9990, 16969.00
704.1550, 17019.00
705.3100, 17105.00
706.4650, 17270.00
707.6190, 17247.00
708.7740, 17373.00
709.9290, 17281.00
711.0830, 17234.00
712.2370, 16837.00
713.3910, 16732.00
714.5450, 16462.00
715.6980, 16296.00
716.8520, 15782.00
718.0050, 15609.00
719.1580, 15403.00
720.3110, 15028.09
721.4640, 14823.11
722.6170, 14502.00
723.7700, 14227.00
724.9220, 14120.00
726.0740, 13752.00
727.2260, 13951.00
728.3780, 13682.00
729.5300, 13698.00
730.6810, 13433.00
731.8330, 13340.00
732.9840, 13427.00
734.1350, 13218.00
735.2860, 13329.00
736.4370, 13354.00
737.5880, 13272.00
738.7380, 13067.00
739.8880, 13217.00
741.0390, 13279.00
742.1890, 13170.00
743.3380, 13249.00
744.4880, 13147.00
745.6380, 13279.00
746.7870, 13206.00
747.9360, 13193.00
749.0850, 13185.00
750.2340, 13191.00
751.3830, 13155.00
752.5310, 13277.00
753.6800, 13288.00
754.8280, 13226.00
755.9760, 13337.00
757.1240, 13314.00
758.2720, 13318.00
759.4190, 13117.00
760.5670, 13152.00
761.7140, 13103.00
762.8610, 13013.17
764.0080, 12980.00
765.1550, 12860.00
766.3020, 12849.00
767.4480, 12697.00
768.5950, 12599.00
769.7410, 12623.00
770.8870, 12523.00
772.0330, 12476.00
773.1780, 12495.00
774.3240, 12328.00
775.4690, 12409.00
776.6140, 12302.79
777.7590, 12241.22
778.9040, 12172.00
780.0490, 12128.00
781.1940, 12079.00
782.3380, 12065.00
783.4820, 12119.00
784.6260, 12089.00
785.7700, 11997.74
786.9140, 11932.00
788.0580, 11830.00
789.2010, 11717.00
790.3450, 11780.00
791.4880, 11689.00
792.6310, 11744.00
793.7730, 11650.00
794.9160, 11672.00
796.0590, 11661.00
797.2010, 11636.00
798.3430, 11653.00
799.4850, 11590.08
800.6270, 11580.01
801.7690, 11471.00
802.9100, 11546.00
804.0520, 11486.00
805.1930, 11518.00
806.3340, 11387.00
807.4750, 11495.00
808.6160, 11485.16
809.7560, 11383.56
810.8970, 11573.00
812.0370, 11395.00
813.1770, 11439.00
814.3170, 11379.00
815.4570, 11271.00
816.5960, 11265.00
817.7360, 11279.00
818.8750, 11352.00
820.0140, 11339.00
821.1530, 11267.00
822.2920, 11263.00
823.4310, 11290.00
824.5690, 11180.00
825.7070, 11222.00
826.8460, 11239.00
827.9840, 11152.00
829.1220, 11155.00
830.2590, 11153.48
831.3970, 11160.21
832.5340, 11170.00
833.6710, 11194.00
834.8080, 11205.00
835.9450, 11140.00
837.0820, 11265.00
838.2190, 11163.00
839.3550, 11183.00
840.4910, 11202.00
841.6270, 11095.00
842.7630, 11149.00
843.8990, 10994.00
845.0350, 11103.00
846.1700, 11196.00
847.3060, 11177.00
848.4410, 11228.00
849.5760, 11183.00
850.7100, 11166.00
851.8450, 11121.00
852.9800, 11234.00
854.1140, 11264.00
855.2480, 11341.00
856.3820, 11339.79
857.5160, 11247.00
858.6500, 11344.00
859.7830, 11267.00
860.9170, 11339.00
862.0500, 11234.00
863.1830, 11256.00
864.3160, 11248.00
865.4480, 11281.00
866.5810, 11303.00
867.7130, 11261.00
868.8460, 11214.00
869.9780, 11277.00
871.1100, 11296.00
872.2410, 11253.00
873.3730, 11331.00
874.5050, 11341.00
875.6360, 11296.00
876.7670, 11330.00
877.8980, 11374.00
879.0290, 11293.00
880.1590, 11147.91
881.2900, 11335.83
882.4200, 11444.30
883.5500, 11477.59
884.6800, 11210.53
885.8100, 11331.31
886.9400, 11296.67
888.0690, 11255.64
889.1990, 11431.00
890.3280, 11207.63
891.4570, 11379.55
892.5860, 11393.68
893.7140, 11480.03
894.8430, 11409.99
895.9710, 11388.25
897.1000, 11522.96
898.2280, 11571.03
899.3560, 11482.99
900.4830, 11573.92
901.6110, 11345.07
902.7380, 11396.83
903.8660, 11569.67
904.9930, 11489.48
906.1200, 11583.27
907.2460, 11610.79
908.3730, 11337.20
909.5000, 11587.29
910.6260, 11610.89
911.7520, 11401.96
912.8780, 11634.10
914.0040, 11457.22
915.1290, 11426.33
916.2550, 11505.32
917.3800, 11469.77
918.5050, 11614.79
919.6300, 11585.85
920.7550, 11541.37
921.8800, 11564.72
923.0040, 11395.85
924.1290, 11583.58
925.2530, 11527.72
926.3770, 11592.94
927.5010, 11685.60
928.6250, 11568.12
929.7480, 11673.11
930.8720, 11433.11
931.9950, 11481.77
933.1180, 11499.35
934.2410, 11701.44
935.3640, 11463.11
936.4860, 11503.75
937.6090, 11663.17
938.7310, 11656.39
939.8530, 11719.09
940.9750, 11576.08
942.0970, 11626.32
943.2180, 11623.29
944.3400, 11804.34
945.4610, 11840.06
946.5820, 11700.53
947.7030, 11561.75
948.8240, 11756.04
949.9450, 11634.63
951.0650, 11683.54
952.1860, 11556.55
953.3060, 11581.43
954.4260, 11603.91
955.5460, 11704.23
956.6650, 11861.00
957.7850, 11656.00
958.9040, 11668.00
960.0230, 11708.00
961.1420, 11665.00
962.2610, 11688.00
963.3800, 11752.35
964.4990, 11719.97
965.6170, 11871.00
966.7350, 11703.00
967.8530, 11676.00
968.9710, 11638.00
970.0890, 11731.00
971.2070, 11757.00
972.3240, 11754.10
973.4410, 11839.00
974.5580, 11795.00
975.6750, 11887.00
976.7920, 11986.00
977.9090, 11855.00
979.0250, 11860.00
980.1410, 11801.00
981.2580, 11886.00
982.3740, 11881.00
983.4890, 11914.00
984.6050, 11971.00
985.7200, 11931.00
986.8360, 11995.00
987.9510, 12008.00
989.0660, 12006.00
990.1810, 11991.00
991.2950, 12000.76
992.4100, 12000.81
993.5240, 12015.00
994.6390, 12020.41
995.7530, 12052.20
996.8660, 12077.00
997.9800, 12097.00
999.0940, 12077.00
1000.207, 12083.00
1001.320, 12088.14
1002.433, 12084.62
1003.546, 12091.00
1004.659, 12051.00
1005.772, 12035.00
1006.884, 12020.41
1007.996, 12043.00
1009.108, 12013.00
1010.220, 12015.00
1011.332, 12019.34
1012.444, 11978.00
1013.555, 12032.00
1014.666, 12040.00
1015.777, 12061.00
1016.888, 12038.00
1017.999, 12127.00
1019.110, 11972.00
1020.220, 11881.00
1021.331, 12011.00
1022.441, 11959.00
1023.551, 11971.51
1024.661, 11969.00
1025.770, 11970.00
1026.880, 11950.00
1027.989, 11927.00
1029.098, 11886.00
1030.207, 11947.00
1031.316, 11933.00
1032.425, 12005.00
1033.533, 12024.00
1034.642, 12005.31
1035.750, 11968.00
1036.858, 11969.00
1037.966, 11978.00
1039.073, 11975.00
1040.181, 12022.00
1041.288, 11904.00
1042.396, 11994.00
1043.503, 11932.00
1044.610, 11963.58
1045.716, 11943.00
1046.823, 11930.00
1047.929, 11960.79
1049.036, 11903.00
1050.142, 11994.00
1051.248, 12023.00
1052.353, 12014.00
1053.459, 12046.17
1054.564, 12034.19
1055.670, 12048.00
1056.775, 11998.00
1057.880, 12008.00
1058.985, 11956.00
1060.089, 11949.00
1061.194, 12064.00
1062.298, 12013.00
1063.402, 12179.00
1064.506, 12005.00
1065.610, 12064.00
1066.713, 12044.00
1067.817, 12082.00
1068.920, 12021.00
1070.023, 12060.24
1071.126, 12110.54
1072.229, 12073.52
1073.332, 12020.00
1074.435, 11954.00
1075.537, 11905.00
1076.639, 11974.00
1077.741, 11976.00
1078.843, 11962.00
1079.945, 11929.00
1081.046, 11970.00
1082.148, 12037.00
1083.249, 11936.00
1084.350, 11976.00
1085.451, 11932.00
1086.551, 11899.00
1087.652, 11852.00
1088.752, 11983.00
1089.853, 11926.00
1090.953, 12059.00
1092.053, 11819.00
1093.152, 11935.00
1094.252, 11723.00
1095.351, 11861.00
1096.451, 11832.00
1097.550, 11851.00
1098.649, 11727.00
1099.748, 12048.00
1100.846, 11919.79
1101.945, 11754.00
1103.043, 11893.00
1104.141, 11745.00
1105.239, 11713.00
1106.337, 11773.00
1107.434, 11729.00
1108.532, 11676.00
1109.629, 11858.00
1110.726, 11658.00
1111.823, 11664.00
1112.920, 11795.00
1114.017, 11790.00
1115.113, 11862.00
1116.210, 11873.00
1117.306, 11831.00
1118.402, 11723.00
1119.498, 11791.05
1120.593, 11830.00
1121.689, 11889.00
1122.784, 11895.00
1123.879, 11893.07
1124.974, 11886.89
1126.069, 11846.00
1127.164, 11796.00
1128.259, 11766.00
1129.353, 11647.06
1130.447, 11630.00
1131.541, 11577.50
1132.635, 11547.00
1133.729, 11515.00
1134.822, 11534.00
1135.916, 11527.88
1137.009, 11543.00
1138.102, 11464.00
1139.195, 11522.00
1140.288, 11441.00
1141.380, 11425.00
1142.473, 11388.00
1143.565, 11461.00
1144.657, 11573.00
1145.749, 11556.00
1146.841, 11462.00
1147.932, 11582.00
1149.024, 11582.00
1150.115, 11479.00
1151.206, 11532.00
1152.297, 11486.00
1153.388, 11520.00
1154.479, 11476.00
1155.569, 11461.00
1156.659, 11462.55
1157.750, 11476.00
1158.839, 11453.00
1159.929, 11459.00
1161.019, 11469.00
1162.108, 11501.00
1163.198, 11481.00
1164.287, 11305.00
1165.376, 11406.00
1166.465, 11451.00
1167.553, 11300.00
1168.642, 11425.00
1169.730, 11342.00
1170.818, 11264.00
1171.906, 11406.00
1172.994, 11387.00
1174.082, 11388.00
1175.170, 11387.00
1176.257, 11366.00
1177.344, 11244.00
1178.431, 11264.00
1179.518, 11226.00
1180.605, 11342.00
1181.691, 11295.00
1182.778, 11318.00
1183.864, 11186.00
1184.950, 11305.00
1186.036, 11196.00
1187.122, 11332.00
1188.207, 11259.00
1189.292, 11297.00
1190.378, 11262.00
1191.463, 11313.00
1192.548, 11612.00
1193.632, 12019.00
1194.717, 11197.00
1195.801, 11299.00
1196.886, 12222.00
1197.970, 11347.00
1199.054, 11341.00
1200.137, 11333.00
1201.221, 11319.00
1202.305, 11325.03
1203.388, 11327.00
1204.471, 11308.00
1205.554, 11290.00
1206.637, 11222.00
1207.719, 11364.00
1208.802, 11054.00
1209.884, 11376.00
1210.966, 11281.00
1212.048, 11189.00
1213.130, 11297.00
1214.212, 11087.00
1215.293, 11278.00
1216.374, 11423.00
1217.456, 11384.00
1218.536, 11284.00
1219.617, 11316.00
1220.698, 11427.00
1221.778, 11376.00
1222.859, 11451.00
1223.939, 11454.00
1225.019, 11456.00
1226.099, 11459.36
1227.178, 11455.00
1228.258, 11409.00
1229.337, 11367.00
1230.417, 11322.00
1231.496, 11322.57
1232.574, 11315.00
1233.653, 11338.00
1234.732, 11329.00
1235.810, 11342.00
1236.888, 11338.00
1237.966, 11358.51
1239.044, 11296.00
1240.122, 11389.00
1241.199, 11327.00
1242.277, 11304.00
1243.354, 11187.00
1244.431, 11274.00
1245.508, 11272.00
1246.585, 11233.57
1247.661, 11238.00
1248.738, 11199.00
1249.814, 11203.00
1250.890, 11196.00
1251.966, 11219.00
1253.042, 11306.00
1254.117, 11315.00
1255.193, 11290.00
1256.268, 11294.00
1257.343, 11242.00
1258.418, 11255.00
1259.493, 11357.00
1260.567, 11274.00
1261.642, 11305.00
1262.716, 11219.00
1263.790, 11177.00
1264.864, 11286.00
1265.938, 11284.00
1267.011, 11363.00
1268.085, 11394.00
1269.158, 11244.00
1270.231, 11283.00
1271.304, 11246.00
1272.377, 11361.00
1273.450, 11322.00
1274.522, 11313.00
1275.594, 11333.00
1276.666, 11304.00
1277.738, 11389.00
1278.810, 11335.00
1279.882, 11392.00
1280.953, 11342.00
1282.025, 11305.00
1283.096, 11313.00
1284.167, 11305.00
1285.238, 11267.00
1286.308, 11310.00
1287.379, 11343.00
1288.449, 11351.00
1289.519, 11083.00
1290.589, 11185.00
1291.659, 11194.00
1292.729, 11213.00
1293.798, 11323.00
1294.868, 11265.00
1295.937, 11469.00
1297.006, 11424.00
1298.075, 11273.00
1299.143, 11371.00
1300.212, 11248.00
1301.280, 11268.00
1302.348, 11317.00
1303.416, 11221.00
1304.484, 11223.00
1305.552, 11201.00
1306.620, 11096.00
1307.687, 11394.00
1308.754, 11306.00
1309.821, 11279.00
1310.888, 11299.00
1311.955, 11246.00
1313.021, 11339.00
1314.088, 11332.00
1315.154, 11259.00
1316.220, 11319.00
1317.286, 11395.00
1318.352, 11268.00
1319.417, 11371.00
1320.483, 11268.00
1321.548, 11368.00
1322.613, 11237.00
1323.678, 11339.00
1324.743, 11300.00
1325.807, 11361.00
1326.872, 11357.00
1327.936, 11237.00
1329.000, 11297.00
1330.064, 11289.00
1331.128, 11510.00
1332.191, 11316.00
1333.255, 11453.00
1334.318, 11406.00
1335.381, 11310.00
1336.444, 11182.00
1337.507, 11225.00
1338.569, 11316.00
1339.632, 11554.00
1340.694, 11409.00
1341.756, 11239.00
1342.818, 11452.00
1343.880, 11484.47
1344.941, 11391.00
1346.003, 11401.71
1347.064, 11283.00
1348.125, 11257.00
1349.186, 11158.00
1350.247, 11199.00
1351.308, 11474.00
1352.368, 11423.00
1353.428, 11409.66
1354.489, 11759.00
1355.549, 11257.00
1356.608, 11226.00
1357.668, 11224.00
1358.727, 11258.00
1359.787, 11282.00
1360.846, 11351.00
1361.905, 11366.24
1362.964, 11328.00
1364.022, 11389.00
1365.081, 11398.00
1366.139, 11339.00
1367.197, 11214.00
1368.255, 11370.00
1369.313, 11298.00
1370.371, 11426.00
1371.428, 11299.00
1372.486, 11283.00
1373.543, 11342.00
1374.600, 11243.00
1375.657, 11364.00
1376.713, 11116.00
1377.770, 11324.00
1378.826, 11192.00
1379.882, 11409.00
1380.938, 11269.00
1381.994, 11319.00
1383.050, 11369.00
1384.106, 11383.00
1385.161, 11386.88
1386.216, 11398.00
1387.271, 11346.00
1388.326, 11349.00
1389.381, 11308.00
1390.435, 11236.00
1391.490, 11391.00
1392.544, 11289.00
1393.598, 11332.00
1394.652, 11538.00
1395.705, 11422.26
1396.759, 11509.90
1397.812, 11302.00
1398.866, 11491.00
1399.919, 11308.00
1400.972, 11208.00
1402.024, 11210.00
1403.077, 11329.00
1404.129, 11467.00
1405.181, 11391.00
1406.233, 11356.00
1407.285, 11403.00
1408.337, 11268.00
1409.389, 11370.00
1410.440, 11430.00
1411.491, 11360.00
1412.542, 11436.00
1413.593, 11420.00
1414.644, 11256.00
1415.695, 11419.00
1416.745, 11351.00
1417.795, 11420.00
1418.845, 11449.00
1419.895, 11485.00
1420.945, 11389.00
1421.995, 11366.00
1423.044, 11305.00
1424.093, 11415.00
1425.142, 11297.00
1426.191, 11422.00
1427.240, 11419.00
1428.289, 11366.00
1429.337, 11460.00
1430.385, 11419.00
1431.433, 11455.00
1432.481, 11405.00
1433.529, 11418.00
1434.577, 11471.00
1435.624, 11430.00
1436.672, 11451.36
1437.719, 11374.00
1438.766, 11417.00
1439.812, 11390.13
1440.859, 11315.00
1441.905, 11403.00
1442.952, 11408.00
1443.998, 11408.00
1445.044, 11632.00
1446.090, 11475.00
1447.135, 11256.00
1448.181, 11443.00
1449.226, 11305.00
1450.271, 11260.00
1451.316, 11324.00
1452.361, 11256.00
1453.405, 11264.00
1454.450, 11290.00
1455.494, 11282.24
1456.538, 11329.87
1457.582, 11318.00
1458.626, 11397.00
1459.670, 11401.00
1460.713, 11387.00
1461.757, 11350.00
1462.800, 11243.00
1463.843, 11424.00
1464.886, 11260.00
1465.928, 11324.00
1466.971, 11225.00
1468.013, 11555.00
1469.055, 11192.00
1470.097, 11512.00
1471.139, 11313.00
1472.181, 11330.00
1473.222, 11357.00
1474.263, 11297.00
1475.305, 11167.00
1476.346, 11352.00
1477.386, 11292.06
1478.427, 11436.00
1479.468, 11347.00
1480.508, 11264.00
1481.548, 11218.00
1482.588, 11207.20
1483.628, 11239.00
1484.668, 11236.00
1485.707, 11333.00
1486.747, 11356.00
1487.786, 11441.00
1488.825, 11377.00
1489.864, 11344.00
1490.902, 11463.00
1491.941, 11321.00
1492.979, 11347.21
1494.017, 11306.26
1495.055, 11353.00
1496.093, 11192.00
1497.131, 11331.00
1498.168, 11272.00
1499.206, 11243.00
1500.243, 11300.00
1501.280, 11273.16
1502.317, 11432.00
1503.354, 11351.00
1504.390, 11387.00
1505.426, 11529.00
1506.463, 11457.00
1507.499, 11364.00
1508.535, 11458.00
1509.570, 11293.00
1510.606, 11288.00
1511.641, 11369.00
1512.676, 11402.00
1513.711, 11259.00
1514.746, 11364.00
1515.781, 11326.00
1516.816, 11478.00
1517.850, 11311.00
1518.884, 11554.00
1519.918, 11268.00
1520.952, 11248.00
1521.986, 11302.00
1523.019, 11388.00
1524.053, 11321.00
1525.086, 11089.00
1526.119, 11159.00
1527.152, 11266.00
1528.185, 11148.00
1529.217, 11333.00
1530.250, 11359.00
1531.282, 11279.00
1532.314, 11299.00
1533.346, 11382.00
1534.377, 11353.00
1535.409, 11194.00
1536.440, 11206.00
1537.472, 11284.00
1538.503, 11325.00
1539.534, 11463.00
1540.564, 11334.00
1541.595, 11348.00
1542.625, 11273.00
1543.656, 11410.00
##END=



