##NAMES=Baddeleyite
##RRUFFID=R060016
##IDEAL CHEMISTRY=Zr^4+^O_2_
##LOCALITY=Wet Loo, Myanmar
##OWNER=RRUFF
##SOURCE=American Museum of Natural History
##DESCRIPTION=Brown crystal fragment
##STATUS=The identification of this mineral has been confirmed by X-ray diffraction and chemical analysis
##URL=rruff.info/R060016
##MEASURED CHEMISTRY=(Zr_0.99_Ti_0.01_)_Î£=1_O_2_
##PIN_ID=M01376
##ORIENTATION=Laser parallel to c* (0 0 1). Fiducial mark perpendicular to laser is parallel to -a [-1 0 0]
162.7670, 9782.000
163.9950, 9992.000
165.2230, 10114.00
166.4510, 10324.00
167.6790, 10568.00
168.9060, 10732.00
170.1340, 10901.00
171.3610, 11106.00
172.5880, 11397.00
173.8150, 11580.00
175.0420, 12008.00
176.2690, 12357.00
177.4950, 12573.00
178.7210, 13041.00
179.9470, 13564.00
181.1730, 13849.00
182.3990, 13717.00
183.6250, 13609.00
184.8500, 13876.00
186.0760, 14300.00
187.3010, 15228.00
188.5260, 15373.00
189.7510, 15746.00
190.9750, 15629.00
192.2000, 15536.00
193.4240, 14673.00
194.6490, 13721.00
195.8730, 12898.00
197.0970, 12216.00
198.3200, 11834.00
199.5440, 11774.00
200.7670, 11653.00
201.9910, 11672.00
203.2140, 11534.00
204.4370, 11569.00
205.6590, 11643.00
206.8820, 11399.00
208.1050, 11388.04
209.3270, 11433.09
210.5490, 11470.11
211.7710, 11500.60
212.9930, 11444.81
214.2150, 11546.53
215.4360, 11613.23
216.6570, 11653.00
217.8790, 11738.00
219.1000, 11803.39
220.3210, 11953.00
221.5410, 11834.00
222.7620, 11800.00
223.9820, 11663.00
225.2030, 11406.00
226.4230, 11298.00
227.6430, 11332.00
228.8620, 11026.00
230.0820, 11013.00
231.3010, 10822.00
232.5210, 10964.00
233.7400, 10878.00
234.9590, 10898.00
236.1780, 10884.00
237.3960, 11071.00
238.6150, 11098.00
239.8330, 11061.00
241.0510, 11151.00
242.2690, 11124.00
243.4870, 11155.00
244.7050, 11228.00
245.9230, 11262.59
247.1400, 11278.00
248.3570, 11417.00
249.5740, 11447.00
250.7910, 11552.00
252.0080, 11571.25
253.2240, 11629.00
254.4410, 11591.00
255.6570, 11597.00
256.8730, 11609.00
258.0890, 11692.00
259.3050, 11685.00
260.5210, 11634.00
261.7360, 11619.00
262.9510, 11589.00
264.1670, 11495.00
265.3820, 11497.59
266.5960, 11463.49
267.8110, 11456.00
269.0260, 11467.00
270.2400, 11454.00
271.4540, 11515.00
272.6680, 11459.00
273.8820, 11547.00
275.0960, 11730.00
276.3090, 11777.00
277.5230, 11805.00
278.7360, 11978.00
279.9490, 12070.00
281.1620, 12178.00
282.3750, 12394.00
283.5880, 12479.00
284.8000, 12685.00
286.0120, 12743.00
287.2240, 12883.00
288.4360, 13039.00
289.6480, 13232.00
290.8600, 13097.00
292.0710, 13274.00
293.2830, 13316.00
294.4940, 13431.00
295.7050, 13626.00
296.9160, 13628.00
298.1260, 13688.00
299.3370, 13696.00
300.5470, 13834.00
301.7580, 13983.00
302.9680, 13975.00
304.1770, 14070.00
305.3870, 14059.00
306.5970, 13918.00
307.8060, 13849.00
309.0150, 13888.00
310.2250, 13753.00
311.4340, 13599.00
312.6420, 13560.00
313.8510, 13518.97
315.0590, 13505.00
316.2680, 13579.00
317.4760, 13622.00
318.6840, 13742.72
319.8920, 13805.00
321.0990, 13972.00
322.3070, 14105.00
323.5140, 14232.00
324.7210, 14390.62
325.9280, 14689.00
327.1350, 14687.00
328.3420, 15065.00
329.5490, 15232.00
330.7550, 15104.00
331.9610, 15025.00
333.1670, 14857.00
334.3730, 14532.00
335.5790, 14006.00
336.7840, 13423.00
337.9900, 13224.00
339.1950, 12969.00
340.4000, 12748.00
341.6050, 12610.00
342.8100, 12525.00
344.0150, 12627.00
345.2190, 12600.00
346.4230, 12719.00
347.6280, 12667.00
348.8320, 12473.00
350.0350, 12193.00
351.2390, 11936.00
352.4430, 11480.00
353.6460, 11262.00
354.8490, 10971.00
356.0520, 10846.00
357.2550, 10840.00
358.4580, 10787.00
359.6600, 10789.21
360.8630, 10727.00
362.0650, 10825.00
363.2670, 10872.00
364.4690, 10859.00
365.6710, 10954.00
366.8720, 11075.00
368.0740, 11320.00
369.2750, 11607.00
370.4760, 11808.00
371.6770, 12032.00
372.8780, 12460.00
374.0780, 12707.00
375.2790, 12981.00
376.4790, 13246.00
377.6790, 13356.94
378.8790, 13461.42
380.0790, 13480.00
381.2790, 13422.00
382.4780, 13271.60
383.6780, 13105.00
384.8770, 12728.00
386.0760, 12347.00
387.2750, 11878.00
388.4730, 11605.00
389.6720, 11286.00
390.8700, 11015.00
392.0690, 10869.00
393.2670, 10659.00
394.4650, 10553.00
395.6620, 10419.00
396.8600, 10410.00
398.0570, 10337.00
399.2550, 10250.00
400.4520, 10172.00
401.6490, 10130.00
402.8450, 10228.00
404.0420, 10062.00
405.2390, 10187.00
406.4350, 10075.00
407.6310, 9971.000
408.8270, 10053.00
410.0230, 10038.00
411.2190, 10129.00
412.4140, 10001.00
413.6090, 9967.000
414.8050, 10087.00
416.0000, 10241.00
417.1940, 10102.00
418.3890, 10206.00
419.5840, 10302.00
420.7780, 10293.00
421.9720, 10344.29
423.1660, 10300.00
424.3600, 10350.00
425.5540, 10443.00
426.7480, 10448.00
427.9410, 10499.59
429.1340, 10422.00
430.3270, 10551.00
431.5200, 10528.00
432.7130, 10539.00
433.9060, 10624.00
435.0980, 10771.00
436.2900, 10601.00
437.4830, 10751.00
438.6750, 10561.00
439.8660, 10778.00
441.0580, 10799.00
442.2500, 10842.00
443.4410, 10939.11
444.6320, 11011.00
445.8230, 11051.00
447.0140, 10978.00
448.2050, 11051.00
449.3950, 11045.00
450.5860, 11231.00
451.7760, 11206.00
452.9660, 11436.00
454.1560, 11492.00
455.3450, 11656.00
456.5350, 11807.00
457.7240, 12042.52
458.9140, 12181.00
460.1030, 12616.00
461.2920, 13025.00
462.4810, 13370.00
463.6690, 14180.00
464.8580, 14798.00
466.0460, 15756.00
467.2340, 16678.00
468.4220, 17576.00
469.6100, 18100.00
470.7970, 18906.00
471.9850, 19598.00
473.1720, 19909.00
474.3590, 19843.00
475.5460, 19173.00
476.7330, 18527.00
477.9200, 17493.00
479.1060, 16438.00
480.2930, 15025.00
481.4790, 14145.00
482.6650, 13571.00
483.8510, 13131.00
485.0370, 12616.00
486.2220, 12341.00
487.4080, 12317.00
488.5930, 11978.00
489.7780, 11946.00
490.9630, 11968.00
492.1480, 11885.00
493.3320, 11814.00
494.5170, 11756.00
495.7010, 11714.00
496.8850, 11857.00
498.0690, 11937.00
499.2530, 11769.00
500.4360, 11778.00
501.6200, 11701.00
502.8030, 11634.00
503.9860, 11611.00
505.1690, 11393.00
506.3520, 11438.00
507.5350, 11364.00
508.7170, 11117.00
509.9000, 11303.00
511.0820, 11213.00
512.2640, 11160.00
513.4460, 11231.00
514.6270, 11187.00
515.8090, 11149.00
516.9900, 11175.00
518.1710, 11249.00
519.3530, 11181.00
520.5330, 11293.00
521.7140, 11420.00
522.8950, 11431.00
524.0750, 11496.00
525.2550, 11589.00
526.4350, 11728.00
527.6150, 11812.67
528.7950, 11890.00
529.9750, 12054.00
531.1540, 12159.00
532.3340, 12325.00
533.5130, 12438.00
534.6920, 12651.00
535.8700, 12637.00
537.0490, 12814.00
538.2280, 12698.00
539.4060, 12862.00
540.5840, 12931.00
541.7620, 12835.00
542.9400, 12994.00
544.1180, 13181.00
545.2950, 13244.00
546.4720, 13700.00
547.6500, 13927.00
548.8270, 14471.00
550.0040, 14924.00
551.1800, 15292.92
552.3570, 15740.69
553.5330, 16106.00
554.7090, 16321.00
555.8850, 16658.00
557.0610, 16535.00
558.2370, 16452.00
559.4130, 16073.00
560.5880, 15602.00
561.7630, 14852.00
562.9380, 14443.00
564.1130, 13801.00
565.2880, 13539.00
566.4630, 13098.00
567.6370, 12917.00
568.8120, 12656.00
569.9860, 12460.00
571.1600, 12358.00
572.3330, 12256.00
573.5070, 12134.00
574.6810, 12066.00
575.8540, 11775.00
577.0270, 11901.00
578.2000, 11789.00
579.3730, 11666.00
580.5460, 11808.00
581.7180, 11670.00
582.8910, 11859.00
584.0630, 11696.00
585.2350, 11737.00
586.4070, 11842.00
587.5780, 11728.00
588.7500, 11787.00
589.9210, 11773.00
591.0930, 11843.00
592.2640, 11912.05
593.4350, 12015.00
594.6050, 12138.00
595.7760, 12306.00
596.9460, 12540.00
598.1170, 12612.00
599.2870, 12966.00
600.4570, 13178.00
601.6260, 13397.00
602.7960, 13565.00
603.9650, 13957.00
605.1350, 13932.00
606.3040, 14313.00
607.4730, 14464.00
608.6420, 14828.00
609.8100, 14744.00
610.9790, 14961.00
612.1470, 14817.00
613.3150, 14598.00
614.4830, 14573.00
615.6510, 14322.00
616.8190, 14005.00
617.9860, 13737.00
619.1540, 13516.00
620.3210, 13239.00
621.4880, 13076.00
622.6550, 12792.00
623.8220, 12724.00
624.9880, 12659.00
626.1550, 12768.00
627.3210, 12660.00
628.4870, 12713.00
629.6530, 13047.00
630.8190, 12928.00
631.9840, 13007.00
633.1500, 13224.00
634.3150, 13187.00
635.4800, 13351.00
636.6450, 13214.00
637.8100, 13078.00
638.9740, 12907.00
640.1390, 12771.73
641.3030, 12658.00
642.4670, 12458.00
643.6310, 12283.00
644.7950, 12085.00
645.9590, 11979.94
647.1220, 12015.00
648.2850, 11785.00
649.4490, 11784.00
650.6120, 11689.92
651.7740, 11650.00
652.9370, 11643.00
654.1000, 11640.00
655.2620, 11694.00
656.4240, 11648.00
657.5860, 11572.00
658.7480, 11601.00
659.9100, 11672.00
661.0710, 11591.00
662.2330, 11618.00
663.3940, 11605.00
664.5550, 11581.00
665.7160, 11699.00
666.8770, 11615.00
668.0370, 11517.00
669.1980, 11459.00
670.3580, 11810.00
671.5180, 11669.00
672.6780, 11747.00
673.8380, 11642.00
674.9970, 11712.00
676.1570, 11801.00
677.3160, 11769.00
678.4750, 11890.00
679.6340, 11794.00
680.7930, 11927.00
681.9520, 11962.00
683.1100, 11963.00
684.2680, 11992.00
685.4270, 12064.00
686.5850, 12110.52
687.7420, 12192.00
688.9000, 12249.00
690.0580, 12329.00
691.2150, 12378.41
692.3720, 12461.04
693.5290, 12548.00
694.6860, 12658.00
695.8430, 12766.00
696.9990, 12949.00
698.1560, 13098.00
699.3120, 13048.00
700.4680, 13073.00
701.6240, 13315.00
702.7800, 13201.00
703.9350, 13271.00
705.0900, 13296.00
706.2460, 13366.00
707.4010, 13316.00
708.5560, 13314.00
709.7110, 13376.00
710.8650, 13151.00
712.0200, 13078.00
713.1740, 12996.00
714.3280, 12559.00
715.4820, 12711.00
716.6360, 12349.00
717.7890, 12366.00
718.9430, 12331.00
720.0960, 12185.00
721.2490, 12117.00
722.4020, 11914.00
723.5550, 11887.92
724.7080, 11837.04
725.8600, 11811.00
727.0130, 11809.00
728.1650, 11801.00
729.3170, 11775.00
730.4690, 11668.00
731.6200, 11670.00
732.7720, 11536.00
733.9230, 11644.00
735.0740, 11631.00
736.2250, 11570.00
737.3760, 11538.00
738.5270, 11438.00
739.6780, 11642.00
740.8280, 11599.00
741.9780, 11694.00
743.1280, 11491.00
744.2780, 11749.00
745.4280, 11619.00
746.5770, 11623.00
747.7270, 11692.00
748.8760, 11595.00
750.0250, 11555.00
751.1740, 11628.00
752.3230, 11556.00
753.4720, 11594.00
754.6200, 11672.00
755.7680, 11614.00
756.9160, 11703.00
758.0640, 11558.00
759.2120, 11502.00
760.3600, 11677.00
761.5070, 11599.00
762.6550, 11479.00
763.8020, 11668.00
764.9490, 11450.00
766.0960, 11508.00
767.2420, 11561.00
768.3890, 11531.00
769.5350, 11621.00
770.6810, 11489.00
771.8270, 11566.00
772.9730, 11506.00
774.1190, 11354.00
775.2640, 11524.00
776.4100, 11480.00
777.5550, 11512.00
778.7000, 11333.00
779.8450, 11483.00
780.9900, 11446.00
782.1340, 11551.00
783.2790, 11520.00
784.4230, 11389.00
785.5670, 11381.00
786.7110, 11207.00
787.8550, 11328.00
788.9980, 11303.00
790.1420, 11350.00
791.2850, 11515.00
792.4280, 11297.00
793.5710, 11281.00
794.7140, 11321.00
795.8560, 11374.00
796.9990, 11382.00
798.1410, 11279.00
799.2830, 11384.00
800.4250, 11284.00
801.5670, 11300.00
802.7090, 11271.00
803.8500, 11256.36
804.9920, 11227.08
806.1330, 11254.00
807.2740, 11213.00
808.4150, 11188.00
809.5550, 11319.00
810.6960, 11342.00
811.8360, 11386.00
812.9760, 11386.00
814.1160, 11351.00
815.2560, 11340.00
816.3960, 11360.00
817.5350, 11378.00
818.6750, 11377.00
819.8140, 11374.50
820.9530, 11354.00
822.0920, 11332.00
823.2310, 11384.00
824.3690, 11332.00
825.5080, 11365.00
826.6460, 11429.00
827.7840, 11468.00
828.9220, 11477.00
830.0600, 11490.79
831.1970, 11359.00
832.3350, 11430.00
833.4720, 11418.00
834.6090, 11295.00
835.7460, 11292.00
836.8830, 11486.00
838.0190, 11319.00
839.1560, 11441.00
840.2920, 11370.00
841.4280, 11307.00
842.5640, 11251.00
843.7000, 11408.00
844.8360, 11413.00
845.9710, 11448.00
847.1070, 11390.00
848.2420, 11449.00
849.3770, 11593.00
850.5120, 11486.00
851.6460, 11382.00
852.7810, 11549.00
853.9150, 11445.00
855.0490, 11593.00
856.1830, 11610.00
857.3170, 11531.00
858.4510, 11436.00
859.5840, 11562.00
860.7180, 11469.00
861.8510, 11610.00
862.9840, 11571.00
864.1170, 11564.00
865.2500, 11636.00
866.3820, 11529.00
867.5150, 11501.00
868.6470, 11662.00
869.7790, 11572.00
870.9110, 11608.00
872.0430, 11611.00
873.1740, 11688.00
874.3060, 11680.00
875.4370, 11651.07
876.5680, 11642.39
877.6990, 11545.00
878.8300, 11565.00
879.9600, 11501.00
881.0910, 11487.00
882.2210, 11475.00
883.3510, 11551.00
884.4810, 11477.00
885.6110, 11565.00
886.7410, 11515.00
887.8700, 11543.00
888.9990, 11604.00
890.1290, 11570.69
891.2580, 11503.00
892.3860, 11548.00
893.5150, 11577.00
894.6440, 11532.00
895.7720, 11615.00
896.9000, 11609.88
898.0280, 11567.00
899.1560, 11606.00
900.2840, 11631.00
901.4110, 11524.00
902.5390, 11749.00
903.6660, 11656.00
904.7930, 11801.00
905.9200, 11635.00
907.0470, 11611.00
908.1730, 11826.00
909.3000, 11675.00
910.4260, 11736.00
911.5520, 11651.00
912.6780, 11798.00
913.8030, 11804.00
914.9290, 11742.00
916.0540, 11757.00
917.1800, 11814.00
918.3050, 11698.00
919.4300, 11908.00
920.5550, 11731.00
921.6790, 11898.00
922.8040, 11849.00
923.9280, 11734.00
925.0520, 11769.00
926.1760, 11786.00
927.3000, 11750.63
928.4230, 11782.00
929.5470, 11760.00
930.6700, 11786.00
931.7930, 11817.00
932.9160, 11825.00
934.0390, 11758.00
935.1620, 11797.00
936.2840, 11751.00
937.4070, 11739.00
938.5290, 11888.00
939.6510, 11945.00
940.7730, 11930.99
941.8940, 11870.00
943.0160, 11874.00
944.1370, 11945.00
945.2580, 11866.00
946.3800, 11903.00
947.5000, 11936.00
948.6210, 11941.00
949.7420, 11922.00
950.8620, 11939.00
951.9820, 11941.18
953.1020, 11918.88
954.2220, 11959.00
955.3420, 11893.00
956.4620, 11890.00
957.5810, 11912.00
958.7000, 11814.00
959.8190, 11978.00
960.9380, 11762.00
962.0570, 11893.00
963.1760, 11985.00
964.2940, 11814.00
965.4120, 11939.00
966.5300, 11890.00
967.6480, 11889.00
968.7660, 12089.00
969.8840, 12000.00
971.0010, 11982.00
972.1190, 12061.00
973.2360, 11881.00
974.3530, 11930.00
975.4690, 11967.00
976.5860, 11960.00
977.7030, 11864.00
978.8190, 12043.00
979.9350, 12057.00
981.0510, 11981.00
982.1670, 11890.00
983.2830, 11929.04
984.3980, 12037.00
985.5130, 11990.00
986.6290, 11988.00
987.7440, 12070.00
988.8590, 11978.00
989.9730, 12142.00
991.0880, 12077.00
992.2020, 12044.00
993.3160, 12012.00
994.4300, 11903.00
995.5440, 12054.00
996.6580, 11919.00
997.7720, 12077.00
998.8850, 12212.00
999.9980, 12106.00
1001.111, 11959.00
1002.224, 12108.00
1003.337, 12209.00
1004.450, 12110.00
1005.562, 12252.00
1006.674, 12214.00
1007.786, 12221.00
1008.898, 12189.00
1010.010, 12212.57
1011.122, 12187.31
1012.233, 12228.00
1013.344, 12179.00
1014.455, 12101.00
1015.566, 12146.00
1016.677, 12148.00
1017.788, 12109.00
1018.898, 12257.00
1020.009, 12140.00
1021.119, 12259.00
1022.229, 12065.00
1023.339, 12257.00
1024.448, 12280.00
1025.558, 12287.00
1026.667, 12156.00
1027.776, 12213.00
1028.885, 12218.00
1029.994, 12091.00
1031.103, 12312.00
1032.211, 12279.00
1033.320, 12160.00
1034.428, 12273.00
1035.536, 12268.00
1036.644, 12124.00
1037.751, 12401.00
1038.859, 12220.00
1039.966, 12107.00
1041.074, 12236.00
1042.181, 12312.00
1043.288, 12303.00
1044.394, 12305.00
1045.501, 12269.00
1046.607, 12288.00
1047.713, 12306.00
1048.820, 12362.00
1049.925, 12338.00
1051.031, 12309.00
1052.137, 12400.00
1053.242, 12312.00
1054.348, 12377.00
1055.453, 12379.00
1056.558, 12386.00
1057.662, 12291.00
1058.767, 12261.00
1059.871, 12167.00
1060.976, 12416.00
1062.080, 12253.00
1063.184, 12345.00
1064.288, 12491.00
1065.391, 12286.00
1066.495, 12331.00
1067.598, 12434.00
1068.701, 12380.00
1069.804, 12335.00
1070.907, 12448.00
1072.010, 12320.00
1073.112, 12390.00
1074.214, 12407.00
1075.317, 12432.00
1076.419, 12580.00
1077.521, 12270.00
1078.622, 12416.00
1079.724, 12498.00
1080.825, 12368.00
1081.926, 12430.00
1083.027, 12433.00
1084.128, 12432.00
1085.229, 12466.00
1086.329, 12471.99
1087.430, 12491.81
1088.530, 12502.00
1089.630, 12520.00
1090.730, 12520.00
1091.830, 12510.00
1092.929, 12435.00
1094.029, 12582.00
1095.128, 12524.00
1096.227, 12563.00
1097.326, 12488.00
1098.425, 12600.00
1099.523, 12448.00
1100.622, 12692.00
1101.720, 12481.00
1102.818, 12566.00
1103.916, 12491.00
1105.014, 12563.00
1106.111, 12528.00
1107.209, 12456.00
1108.306, 12384.00
1109.403, 12520.00
1110.500, 12438.00
1111.597, 12446.00
1112.694, 12533.00
1113.790, 12426.00
1114.887, 12662.00
1115.983, 12634.00
1117.079, 12633.00
1118.174, 12512.00
1119.270, 12552.00
1120.366, 12672.00
1121.461, 12675.00
1122.556, 12627.00
1123.651, 12576.00
1124.746, 12675.00
1125.841, 12694.00
1126.935, 12858.00
1128.030, 12537.00
1129.124, 12704.00
1130.218, 12606.00
1131.312, 12695.00
1132.405, 12807.00
1133.499, 12846.00
1134.592, 12803.00
1135.686, 12755.00
1136.779, 12759.34
1137.871, 12743.80
1138.964, 12740.00
1140.057, 12749.00
1141.149, 12781.00
1142.241, 12770.00
1143.334, 12767.00
1144.425, 12843.00
1145.517, 12762.00
1146.609, 12809.00
1147.700, 12862.00
1148.791, 12869.00
1149.883, 12908.45
1150.974, 12723.00
1152.064, 12939.00
1153.155, 12744.00
1154.245, 12709.00
1155.336, 12764.00
1156.426, 12676.00
1157.516, 12771.00
1158.606, 12820.00
1159.695, 12826.00
1160.785, 12879.00
1161.874, 12903.00
1162.963, 12970.00
1164.052, 12876.00
1165.141, 13001.00
1166.230, 12867.00
1167.318, 12957.00
1168.406, 12989.00
1169.495, 13108.00
1170.583, 12998.00
1171.670, 12998.00
1172.758, 12932.00
1173.846, 12972.00
1174.933, 13097.00
1176.020, 12876.00
1177.107, 12883.00
1178.194, 12967.00
1179.281, 13081.00
1180.367, 12909.00
1181.454, 13036.00
1182.540, 13007.00
1183.626, 12920.00
1184.712, 13011.00
1185.798, 13050.00
1186.883, 12964.00
1187.969, 12978.00
1189.054, 13058.00
1190.139, 13004.00
1191.224, 13029.00
1192.309, 13024.65
1193.393, 12999.19
1194.478, 12970.00
1195.562, 12999.00
1196.646, 12916.00
1197.730, 12980.00
1198.814, 13009.00
1199.897, 12977.00
1200.981, 12974.00
1202.064, 13075.00
1203.147, 13033.00
1204.230, 13214.00
1205.313, 13155.00
1206.396, 13104.00
1207.478, 13247.00
1208.560, 13196.00
1209.642, 13214.00
1210.724, 13321.00
1211.806, 13226.00
1212.888, 13270.00
1213.969, 13125.00
1215.051, 13151.00
1216.132, 13199.00
1217.213, 13212.00
1218.294, 13169.00
1219.374, 13275.00
1220.455, 13117.00
1221.535, 13222.00
1222.616, 13102.00
1223.696, 13251.00
1224.775, 13206.00
1225.855, 13289.00
1226.935, 13316.00
1228.014, 13331.00
1229.093, 13368.03
1230.172, 13400.71
1231.251, 13373.00
1232.330, 13487.00
1233.408, 13443.38
1234.487, 13497.00
1235.565, 13394.00
1236.643, 13327.00
1237.721, 13440.00
1238.799, 13380.00
1239.876, 13274.00
1240.954, 13281.00
1242.031, 13229.00
1243.108, 13302.00
1244.185, 13265.00
1245.262, 13344.00
1246.338, 13370.00
1247.415, 13299.00
1248.491, 13190.00
1249.567, 13248.00
1250.643, 13280.00
1251.719, 13298.00
1252.795, 13295.00
1253.870, 13433.00
1254.945, 13427.00
1256.021, 13384.00
1257.096, 13579.00
1258.170, 13475.00
1259.245, 13592.00
1260.320, 13510.00
1261.394, 13420.00
1262.468, 13392.00
1263.542, 13332.00
1264.616, 13427.00
1265.690, 13419.00
1266.763, 13476.00
1267.836, 13464.00
1268.910, 13497.00
1269.983, 13643.00
1271.055, 13312.00
1272.128, 13587.00
1273.201, 13502.00
1274.273, 13540.00
1275.345, 13582.00
1276.417, 13484.00
1277.489, 13386.00
1278.561, 13556.00
1279.632, 13570.00
1280.704, 13502.00
1281.775, 13548.00
1282.846, 13522.00
1283.917, 13522.00
1284.988, 13667.00
1286.058, 13644.00
1287.129, 13788.00
1288.199, 13577.00
1289.269, 13507.00
1290.339, 13499.00
1291.409, 13627.00
1292.478, 13663.00
1293.548, 13642.00
1294.617, 13778.00
1295.686, 13695.00
1296.755, 13737.04
1297.824, 13729.00
1298.893, 13719.00
1299.961, 13730.00
1301.029, 13677.00
1302.097, 13725.00
1303.165, 13734.00
1304.233, 13743.00
1305.301, 13831.00
1306.368, 13704.00
1307.436, 13805.00
1308.503, 13900.00
1309.570, 13840.00
1310.637, 13755.00
1311.703, 13821.00
1312.770, 13892.00
1313.836, 13810.00
1314.902, 13798.00
1315.968, 13746.00
1317.034, 13820.00
1318.100, 13788.00
1319.165, 13753.00
1320.231, 13839.00
1321.296, 13777.00
1322.361, 13898.00
1323.426, 13804.00
1324.491, 13776.00
1325.555, 13899.00
1326.620, 13794.00
1327.684, 13943.00
1328.748, 13887.00
1329.812, 13813.00
1330.875, 13805.00
1331.939, 13909.00
1333.002, 13936.00
1334.066, 13855.00
1335.129, 13878.00
1336.192, 13855.00
1337.254, 13987.00
1338.317, 13907.00
1339.379, 13908.00
1340.442, 13991.00
1341.504, 13955.50
1342.566, 13939.00
1343.628, 13996.00
1344.689, 14011.00
1345.751, 14044.00
1346.812, 14098.00
1347.873, 14026.00
1348.934, 13993.00
1349.995, 13896.00
1351.055, 14054.00
1352.116, 14032.00
1353.176, 14125.00
1354.236, 13911.00
1355.296, 14080.00
1356.356, 13837.00
1357.416, 14031.00
1358.475, 14069.00
1359.535, 14064.00
1360.594, 13930.00
1361.653, 14125.00
1362.712, 14054.00
1363.770, 14062.00
1364.829, 14030.00
1365.887, 14033.00
1366.945, 14032.00
1368.003, 14020.00
1369.061, 14171.00
1370.119, 14122.00
1371.177, 14186.00
1372.234, 14000.00
1373.291, 14116.00
1374.348, 14106.00
1375.405, 14071.00
1376.462, 14126.00
1377.518, 14135.00
1378.575, 14044.00
1379.631, 14133.00
1380.687, 14284.00
1381.743, 14098.00
1382.799, 14100.00
1383.854, 14371.00
1384.910, 14160.00
1385.965, 14104.00
1387.020, 14173.00
1388.075, 14088.00
1389.130, 14127.00
1390.184, 14155.00
1391.239, 14135.00
1392.293, 14125.00
1393.347, 14120.91
1394.401, 14193.00
1395.455, 14162.00
1396.509, 14135.00
1397.562, 14304.00
1398.615, 14259.00
1399.669, 14196.00
1400.722, 14381.00
1401.774, 14144.00
1402.827, 14363.00
1403.879, 14206.00
1404.932, 14110.00
1405.984, 14382.00
1407.036, 14296.00
1408.088, 14317.00
1409.139, 14191.00
1410.191, 14313.00
1411.242, 14277.00
1412.294, 14234.00
1413.345, 14296.00
1414.395, 14302.00
1415.446, 14369.00
1416.497, 14348.00
1417.547, 14357.97
1418.597, 14339.00
1419.647, 14340.00
1420.697, 14282.00
1421.747, 14271.00
1422.796, 14305.00
1423.846, 14423.00
1424.895, 14350.00
1425.944, 14487.00
1426.993, 14307.00
1428.042, 14409.00
1429.090, 14450.00
1430.139, 14476.00
1431.187, 14490.64
1432.235, 14506.69
1433.283, 14446.00
1434.331, 14485.00
1435.378, 14434.00
1436.426, 14348.00
1437.473, 14446.00
1438.520, 14331.00
1439.567, 14517.00
1440.614, 14450.00
1441.661, 14355.00
1442.707, 14550.00
1443.753, 14466.00
1444.799, 14595.00
1445.845, 14358.00
1446.891, 14552.00
1447.937, 14452.00
1448.982, 14419.00
1450.028, 14561.00
1451.073, 14482.00
1452.118, 14541.00
1453.163, 14544.00
1454.207, 14436.00
1455.252, 14523.00
1456.296, 14560.00
1457.340, 14491.00
1458.384, 14500.00
1459.428, 14582.00
1460.472, 14554.00
1461.515, 14445.00
1462.559, 14472.00
1463.602, 14603.00
1464.645, 14482.00
1465.688, 14641.00
1466.731, 14538.00
1467.773, 14501.00
1468.816, 14655.00
1469.858, 14632.00
1470.900, 14562.00
1471.942, 14532.00
1472.983, 14517.90
1474.025, 14483.82
1475.066, 14526.00
1476.108, 14504.00
1477.149, 14558.00
1478.190, 14564.37
1479.230, 14554.00
1480.271, 14614.00
1481.311, 14683.00
1482.352, 14747.00
1483.392, 14759.10
1484.432, 14556.00
1485.472, 14736.00
1486.511, 14647.00
1487.551, 14552.00
1488.590, 14710.00
1489.629, 14561.00
1490.668, 14725.00
1491.707, 14529.00
1492.745, 14552.00
1493.784, 14537.00
1494.822, 14627.00
1495.860, 14706.00
1496.898, 14662.00
1497.936, 14648.00
1498.974, 14566.00
1500.011, 14610.00
1501.049, 14619.00
1502.086, 14650.00
1503.123, 14610.00
1504.160, 14685.00
1505.196, 14604.00
1506.233, 14577.00
1507.269, 14639.00
1508.305, 14492.00
1509.341, 14753.00
1510.377, 14685.00
1511.413, 14515.00
1512.449, 14529.00
1513.484, 14729.00
1514.519, 14501.00
1515.554, 14650.00
1516.589, 14568.00
1517.624, 14798.00
1518.658, 14742.00
1519.693, 14756.00
1520.727, 14748.00
1521.761, 14735.90
1522.795, 14693.00
1523.829, 14738.00
1524.862, 14697.00
1525.896, 14700.00
1526.929, 14702.04
1527.962, 14717.00
1528.995, 14696.00
1530.028, 14762.00
1531.060, 14773.00
1532.093, 14878.00
1533.125, 14709.00
1534.157, 14939.00
1535.189, 14787.00
1536.221, 14779.00
1537.253, 14941.00
1538.284, 14761.00
1539.316, 14705.00
1540.347, 14664.00
1541.378, 14728.00
1542.408, 14880.00
1543.439, 14969.00
1544.470, 14826.00
1545.500, 14832.00
1546.530, 14683.00
1547.560, 14803.00
1548.590, 14796.00
1549.620, 14981.00
1550.649, 14942.00
1551.679, 14836.00
1552.708, 14883.00
1553.737, 14881.00
1554.766, 14819.00
1555.794, 14844.00
1556.823, 14842.00
1557.851, 14926.00
1558.879, 14776.00
1559.907, 14731.00
1560.935, 14897.00
1561.963, 15060.00
##END=



