##NAMES=Baddeleyite
##RRUFFID=R060016
##IDEAL CHEMISTRY=Zr^4+^O_2_
##LOCALITY=Wet Loo, Myanmar
##OWNER=RRUFF
##SOURCE=American Museum of Natural History
##DESCRIPTION=Brown crystal fragment
##STATUS=The identification of this mineral has been confirmed by X-ray diffraction and chemical analysis
##URL=rruff.info/R060016
##MEASURED CHEMISTRY=(Zr_0.99_Ti_0.01_)_Î£=1_O_2_
##PIN_ID=M00268
##ORIENTATION=Laser parallel to b* (0 1 0). Fiducial mark perpendicular to laser is parallel to -c [0 0 -1]
129.5460, 5321.000
130.7790, 5273.000
132.0110, 5219.000
133.2430, 5323.000
134.4750, 5315.000
135.7070, 5368.000
136.9380, 5425.000
138.1700, 5346.000
139.4010, 5525.000
140.6330, 5441.000
141.8640, 5553.000
143.0950, 5505.000
144.3250, 5534.000
145.5560, 5731.000
146.7860, 5699.000
148.0160, 5685.000
149.2470, 5782.000
150.4760, 5815.000
151.7060, 5993.000
152.9360, 5941.000
154.1650, 6254.000
155.3950, 6207.000
156.6240, 6326.000
157.8530, 6573.000
159.0820, 6778.000
160.3100, 7015.000
161.5390, 7100.000
162.7670, 7445.000
163.9950, 7889.000
165.2230, 8259.000
166.4510, 8883.000
167.6790, 9543.000
168.9060, 10237.00
170.1340, 11113.00
171.3610, 12100.00
172.5880, 13682.00
173.8150, 16077.00
175.0420, 17926.00
176.2690, 18966.00
177.4950, 19705.00
178.7210, 19443.00
179.9470, 18197.00
181.1730, 16744.00
182.3990, 15602.00
183.6250, 15401.00
184.8500, 16818.00
186.0760, 19415.00
187.3010, 22227.00
188.5260, 24502.00
189.7510, 26121.00
190.9750, 25557.00
192.2000, 22828.00
193.4240, 19384.00
194.6490, 15920.00
195.8730, 13311.00
197.0970, 11605.00
198.3200, 10510.00
199.5440, 10041.00
200.7670, 9787.000
201.9910, 9665.000
203.2140, 9468.000
204.4370, 9284.000
205.6590, 9097.000
206.8820, 9103.000
208.1050, 8955.000
209.3270, 8990.000
210.5490, 8902.000
211.7710, 8804.000
212.9930, 8927.000
214.2150, 8897.000
215.4360, 9013.000
216.6570, 8975.000
217.8790, 9227.000
219.1000, 9266.000
220.3210, 9240.000
221.5410, 9177.000
222.7620, 9004.000
223.9820, 8915.000
225.2030, 8621.000
226.4230, 8401.000
227.6430, 8195.000
228.8620, 8047.000
230.0820, 8002.000
231.3010, 8067.000
232.5210, 7826.000
233.7400, 7958.000
234.9590, 7811.000
236.1780, 7820.000
237.3960, 7969.000
238.6150, 8072.000
239.8330, 8135.000
241.0510, 8104.000
242.2690, 8232.000
243.4870, 8203.000
244.7050, 8308.000
245.9230, 8388.000
247.1400, 8374.000
248.3570, 8525.000
249.5740, 8389.000
250.7910, 8392.000
252.0080, 8475.000
253.2240, 8635.000
254.4410, 8638.000
255.6570, 8846.000
256.8730, 8869.000
258.0890, 8920.000
259.3050, 8845.000
260.5210, 8843.000
261.7360, 8799.000
262.9510, 8657.000
264.1670, 8487.000
265.3820, 8491.000
266.5960, 8378.000
267.8110, 8412.000
269.0260, 8413.000
270.2400, 8516.000
271.4540, 8527.000
272.6680, 8579.000
273.8820, 8587.000
275.0960, 8810.000
276.3090, 8889.000
277.5230, 8964.000
278.7360, 9101.000
279.9490, 9413.000
281.1620, 9479.000
282.3750, 9840.000
283.5880, 9876.000
284.8000, 10151.00
286.0120, 10467.00
287.2240, 10766.00
288.4360, 10704.00
289.6480, 11065.00
290.8600, 11238.00
292.0710, 11650.00
293.2830, 12023.00
294.4940, 12129.00
295.7050, 12601.00
296.9160, 12735.00
298.1260, 13145.00
299.3370, 13807.00
300.5470, 14088.00
301.7580, 14764.00
302.9680, 15380.00
304.1770, 15787.00
305.3870, 16071.00
306.5970, 16042.00
307.8060, 15817.00
309.0150, 15378.00
310.2250, 14447.00
311.4340, 13825.00
312.6420, 13178.00
313.8510, 12795.00
315.0590, 12413.00
316.2680, 11999.00
317.4760, 11971.00
318.6840, 11946.00
319.8920, 12120.00
321.0990, 12198.00
322.3070, 12396.00
323.5140, 12539.00
324.7210, 13026.00
325.9280, 13022.00
327.1350, 13428.00
328.3420, 13737.00
329.5490, 13861.00
330.7550, 13900.09
331.9610, 13967.00
333.1670, 13629.00
334.3730, 13385.00
335.5790, 13067.00
336.7840, 12833.00
337.9900, 13000.00
339.1950, 13413.00
340.4000, 13889.00
341.6050, 15052.00
342.8100, 16317.00
344.0150, 17681.00
345.2190, 18621.00
346.4230, 19020.00
347.6280, 18593.00
348.8320, 17571.00
350.0350, 16054.00
351.2390, 14262.00
352.4430, 12586.00
353.6460, 11140.00
354.8490, 10101.00
356.0520, 9433.000
357.2550, 8820.000
358.4580, 8413.000
359.6600, 8211.000
360.8630, 8055.000
362.0650, 7933.000
363.2670, 7955.000
364.4690, 7975.633
365.6710, 8052.000
366.8720, 8271.000
368.0740, 8508.000
369.2750, 8857.000
370.4760, 9475.000
371.6770, 10234.00
372.8780, 11064.00
374.0780, 12155.00
375.2790, 13090.00
376.4790, 14101.00
377.6790, 14739.00
378.8790, 14576.00
380.0790, 14225.00
381.2790, 13277.00
382.4780, 12374.00
383.6780, 11255.00
384.8770, 10287.00
386.0760, 9506.000
387.2750, 8905.000
388.4730, 8294.000
389.6720, 7895.000
390.8700, 7549.000
392.0690, 7107.000
393.2670, 6907.000
394.4650, 6664.000
395.6620, 6434.000
396.8600, 6399.000
398.0570, 6323.000
399.2550, 6008.000
400.4520, 6042.000
401.6490, 6015.000
402.8450, 5880.000
404.0420, 5803.000
405.2390, 5829.000
406.4350, 5741.000
407.6310, 5633.000
408.8270, 5711.000
410.0230, 5661.000
411.2190, 5550.000
412.4140, 5554.000
413.6090, 5622.000
414.8050, 5676.000
416.0000, 5670.000
417.1940, 5679.000
418.3890, 5721.000
419.5840, 5658.000
420.7780, 5818.000
421.9720, 5738.000
423.1660, 5906.000
424.3600, 5940.000
425.5540, 5966.000
426.7480, 6130.000
427.9410, 6127.000
429.1340, 6187.000
430.3270, 6256.000
431.5200, 6218.000
432.7130, 6305.000
433.9060, 6308.000
435.0980, 6452.000
436.2900, 6361.000
437.4830, 6511.000
438.6750, 6531.000
439.8660, 6666.000
441.0580, 6699.000
442.2500, 6729.474
443.4410, 6773.000
444.6320, 6766.000
445.8230, 6842.000
447.0140, 6867.000
448.2050, 6887.000
449.3950, 7028.000
450.5860, 7229.000
451.7760, 7329.000
452.9660, 7561.227
454.1560, 7713.000
455.3450, 8034.000
456.5350, 8233.000
457.7240, 8543.000
458.9140, 9108.000
460.1030, 9509.000
461.2920, 10116.00
462.4810, 10904.00
463.6690, 11925.00
464.8580, 13082.00
466.0460, 14558.00
467.2340, 16294.00
468.4220, 18169.00
469.6100, 20179.00
470.7970, 22694.00
471.9850, 24815.00
473.1720, 26394.00
474.3590, 26604.00
475.5460, 25699.00
476.7330, 23681.00
477.9200, 20962.00
479.1060, 18131.00
480.2930, 15640.00
481.4790, 13386.00
482.6650, 11894.00
483.8510, 10673.00
485.0370, 9903.000
486.2220, 9292.000
487.4080, 8871.000
488.5930, 8566.000
489.7780, 8437.000
490.9630, 8305.000
492.1480, 8180.000
493.3320, 8126.081
494.5170, 8163.000
495.7010, 8090.000
496.8850, 8125.000
498.0690, 8218.000
499.2530, 7983.000
500.4360, 8072.000
501.6200, 7840.000
502.8030, 7819.000
503.9860, 7473.000
505.1690, 7438.000
506.3520, 7096.000
507.5350, 7011.000
508.7170, 6950.000
509.9000, 6949.000
511.0820, 6797.000
512.2640, 6662.000
513.4460, 6788.000
514.6270, 6721.000
515.8090, 6633.000
516.9900, 6671.000
518.1710, 6674.000
519.3530, 6657.000
520.5330, 6684.000
521.7140, 6773.000
522.8950, 6803.000
524.0750, 6877.000
525.2550, 7022.000
526.4350, 7110.000
527.6150, 7183.000
528.7950, 7355.000
529.9750, 7513.000
531.1540, 7614.000
532.3340, 7808.000
533.5130, 8019.000
534.6920, 8120.000
535.8700, 8292.000
537.0490, 8342.000
538.2280, 8396.000
539.4060, 8442.000
540.5840, 8311.000
541.7620, 8245.000
542.9400, 8439.000
544.1180, 8573.000
545.2950, 8710.000
546.4720, 8999.000
547.6500, 9348.000
548.8270, 9836.000
550.0040, 10332.00
551.1800, 10854.00
552.3570, 11558.00
553.5330, 12287.00
554.7090, 12889.00
555.8850, 13369.00
557.0610, 13456.00
558.2370, 13184.00
559.4130, 12762.00
560.5880, 12270.00
561.7630, 11512.00
562.9380, 10715.00
564.1130, 10045.00
565.2880, 9388.000
566.4630, 9128.000
567.6370, 8687.000
568.8120, 8418.000
569.9860, 8212.000
571.1600, 7992.000
572.3330, 7818.485
573.5070, 7646.100
574.6810, 7493.839
575.8540, 7361.000
577.0270, 7258.000
578.2000, 7168.000
579.3730, 7121.155
580.5460, 7090.993
581.7180, 7129.000
582.8910, 7097.000
584.0630, 7170.000
585.2350, 7202.000
586.4070, 7202.503
587.5780, 7179.000
588.7500, 7215.000
589.9210, 7271.000
591.0930, 7260.000
592.2640, 7407.170
593.4350, 7486.000
594.6050, 7684.000
595.7760, 7918.000
596.9460, 8055.000
598.1170, 8369.000
599.2870, 8781.000
600.4570, 9047.000
601.6260, 9493.000
602.7960, 9983.000
603.9650, 10580.00
605.1350, 11121.00
606.3040, 11587.00
607.4730, 12052.00
608.6420, 12692.00
609.8100, 13124.00
610.9790, 13264.00
612.1470, 13520.00
613.3150, 13443.00
614.4830, 13317.00
615.6510, 12954.00
616.8190, 12635.00
617.9860, 12450.00
619.1540, 12149.00
620.3210, 11843.00
621.4880, 11627.00
622.6550, 11617.00
623.8220, 11829.91
624.9880, 12170.00
626.1550, 12804.00
627.3210, 13502.00
628.4870, 14503.00
629.6530, 15651.00
630.8190, 16755.00
631.9840, 17899.00
633.1500, 19057.00
634.3150, 20039.00
635.4800, 20599.00
636.6450, 20737.00
637.8100, 20101.00
638.9740, 18990.00
640.1390, 17653.00
641.3030, 16518.00
642.4670, 14998.00
643.6310, 13574.00
644.7950, 12367.00
645.9590, 11565.00
647.1220, 10659.00
648.2850, 10077.00
649.4490, 9556.000
650.6120, 9017.000
651.7740, 8745.000
652.9370, 8431.000
654.1000, 8101.000
655.2620, 8037.000
656.4240, 7849.000
657.5860, 7647.000
658.7480, 7437.000
659.9100, 7366.000
661.0710, 7206.000
662.2330, 7206.000
663.3940, 7127.000
664.5550, 7104.000
665.7160, 7123.000
666.8770, 7085.000
668.0370, 6896.000
669.1980, 6997.000
670.3580, 6934.000
671.5180, 6906.000
672.6780, 6950.000
673.8380, 6829.000
674.9970, 6873.000
676.1570, 7001.000
677.3160, 6980.000
678.4750, 6928.000
679.6340, 7009.000
680.7930, 6872.000
681.9520, 6905.000
683.1100, 7107.000
684.2680, 7148.000
685.4270, 7107.000
686.5850, 7223.000
687.7420, 7397.000
688.9000, 7392.000
690.0580, 7451.000
691.2150, 7609.000
692.3720, 7659.000
693.5290, 7727.000
694.6860, 7971.000
695.8430, 7958.000
696.9990, 8061.000
698.1560, 8241.000
699.3120, 8315.000
700.4680, 8472.000
701.6240, 8536.000
702.7800, 8570.000
703.9350, 8757.000
705.0900, 8790.000
706.2460, 8746.000
707.4010, 8844.000
708.5560, 8801.000
709.7110, 8589.000
710.8650, 8385.000
712.0200, 8095.000
713.1740, 8147.000
714.3280, 7927.000
715.4820, 7751.000
716.6360, 7625.000
717.7890, 7374.000
718.9430, 7220.000
720.0960, 6990.000
721.2490, 6865.000
722.4020, 6821.000
723.5550, 6732.000
724.7080, 6548.000
725.8600, 6373.000
727.0130, 6408.000
728.1650, 6288.000
729.3170, 6256.000
730.4690, 6207.000
731.6200, 6128.000
732.7720, 6100.000
733.9230, 6066.169
735.0740, 5947.000
736.2250, 6017.000
737.3760, 6039.000
738.5270, 5995.000
739.6780, 5915.000
740.8280, 5944.000
741.9780, 5897.000
743.1280, 5977.000
744.2780, 5892.000
745.4280, 5962.000
746.5770, 5991.000
747.7270, 5856.000
748.8760, 5886.000
750.0250, 5878.000
751.1740, 5775.000
752.3230, 5837.000
753.4720, 5827.000
754.6200, 5812.000
755.7680, 5878.000
756.9160, 5750.000
758.0640, 5790.000
759.2120, 5758.000
760.3600, 5688.000
761.5070, 5763.000
762.6550, 5633.000
763.8020, 5611.000
764.9490, 5523.000
766.0960, 5480.000
767.2420, 5493.000
768.3890, 5432.000
769.5350, 5472.000
770.6810, 5397.000
771.8270, 5328.000
772.9730, 5289.000
774.1190, 5503.000
775.2640, 5339.255
776.4100, 5341.000
777.5550, 5198.000
778.7000, 5217.000
779.8450, 5177.000
780.9900, 5156.000
782.1340, 5181.000
783.2790, 5139.278
784.4230, 5236.000
785.5670, 5119.000
786.7110, 5035.000
787.8550, 5066.000
788.9980, 4969.000
790.1420, 4991.000
791.2850, 4963.000
792.4280, 5025.000
793.5710, 4961.000
794.7140, 4908.000
795.8560, 4866.000
796.9990, 4905.000
798.1410, 4857.000
799.2830, 4865.000
800.4250, 4793.000
801.5670, 4839.000
802.7090, 4764.000
803.8500, 4828.000
804.9920, 4817.000
806.1330, 4753.000
807.2740, 4752.000
808.4150, 4785.000
809.5550, 4785.000
810.6960, 4750.000
811.8360, 4750.000
812.9760, 4719.000
814.1160, 4683.000
815.2560, 4724.000
816.3960, 4673.000
817.5350, 4675.000
818.6750, 4740.000
819.8140, 4642.000
820.9530, 4607.000
822.0920, 4659.000
823.2310, 4708.000
824.3690, 4599.000
825.5080, 4678.000
826.6460, 4637.000
827.7840, 4612.000
828.9220, 4656.000
830.0600, 4586.000
831.1970, 4582.000
832.3350, 4556.000
833.4720, 4522.000
834.6090, 4570.000
835.7460, 4541.000
836.8830, 4587.000
838.0190, 4565.000
839.1560, 4676.000
840.2920, 4552.000
841.4280, 4640.000
842.5640, 4628.000
843.7000, 4616.000
844.8360, 4599.000
845.9710, 4591.000
847.1070, 4630.000
848.2420, 4566.000
849.3770, 4623.000
850.5120, 4523.000
851.6460, 4584.000
852.7810, 4581.000
853.9150, 4516.000
855.0490, 4576.000
856.1830, 4565.000
857.3170, 4555.000
858.4510, 4575.000
859.5840, 4580.000
860.7180, 4578.000
861.8510, 4589.000
862.9840, 4520.000
864.1170, 4612.000
865.2500, 4698.000
866.3820, 4618.000
867.5150, 4608.000
868.6470, 4610.000
869.7790, 4665.000
870.9110, 4638.837
872.0430, 4584.000
873.1740, 4631.000
874.3060, 4560.000
875.4370, 4560.000
876.5680, 4597.000
877.6990, 4537.000
878.8300, 4450.000
879.9600, 4509.000
881.0910, 4585.000
882.2210, 4600.000
883.3510, 4456.000
884.4810, 4557.000
885.6110, 4540.000
886.7410, 4451.000
887.8700, 4499.000
888.9990, 4561.000
890.1290, 4540.000
891.2580, 4513.000
892.3860, 4511.000
893.5150, 4439.000
894.6440, 4532.000
895.7720, 4486.000
896.9000, 4468.000
898.0280, 4513.000
899.1560, 4521.000
900.2840, 4417.000
901.4110, 4509.000
902.5390, 4521.000
903.6660, 4594.000
904.7930, 4528.000
905.9200, 4610.000
907.0470, 4510.000
908.1730, 4569.000
909.3000, 4560.000
910.4260, 4526.000
911.5520, 4573.000
912.6780, 4505.000
913.8030, 4536.000
914.9290, 4510.000
916.0540, 4533.000
917.1800, 4495.000
918.3050, 4487.000
919.4300, 4515.000
920.5550, 4526.000
921.6790, 4530.000
922.8040, 4424.000
923.9280, 4460.000
925.0520, 4517.000
926.1760, 4572.000
927.3000, 4453.000
928.4230, 4544.000
929.5470, 4453.000
930.6700, 4492.000
931.7930, 4568.000
932.9160, 4485.000
934.0390, 4449.000
935.1620, 4432.000
936.2840, 4412.000
937.4070, 4447.000
938.5290, 4432.000
939.6510, 4498.000
940.7730, 4458.000
941.8940, 4433.000
943.0160, 4387.000
944.1370, 4439.000
945.2580, 4476.000
946.3800, 4468.000
947.5000, 4438.000
948.6210, 4436.000
949.7420, 4407.000
950.8620, 4465.000
951.9820, 4433.234
953.1020, 4389.000
954.2220, 4430.000
955.3420, 4354.000
956.4620, 4378.000
957.5810, 4404.000
958.7000, 4316.000
959.8190, 4393.000
960.9380, 4439.000
962.0570, 4310.000
963.1760, 4326.000
964.2940, 4435.000
965.4120, 4299.000
966.5300, 4312.000
967.6480, 4392.000
968.7660, 4362.000
969.8840, 4325.000
971.0010, 4367.000
972.1190, 4295.000
973.2360, 4347.000
974.3530, 4384.000
975.4690, 4410.000
976.5860, 4364.000
977.7030, 4385.000
978.8190, 4360.461
979.9350, 4330.000
981.0510, 4328.000
982.1670, 4327.000
983.2830, 4333.000
984.3980, 4300.000
985.5130, 4390.000
986.6290, 4358.000
987.7440, 4275.000
988.8590, 4293.000
989.9730, 4354.000
991.0880, 4339.000
992.2020, 4377.000
993.3160, 4411.000
994.4300, 4348.000
995.5440, 4342.000
996.6580, 4402.000
997.7720, 4361.000
998.8850, 4340.000
999.9980, 4390.000
1001.111, 4405.000
1002.224, 4329.000
1003.337, 4369.000
1004.450, 4335.000
1005.562, 4371.000
1006.674, 4339.000
1007.786, 4329.000
1008.898, 4314.000
1010.010, 4389.000
1011.122, 4355.000
1012.233, 4258.000
1013.344, 4379.000
1014.455, 4427.000
1015.566, 4327.000
1016.677, 4379.000
1017.788, 4346.000
1018.898, 4326.000
1020.009, 4301.000
1021.119, 4290.000
1022.229, 4284.000
1023.339, 4274.666
1024.448, 4294.000
1025.558, 4295.000
1026.667, 4294.000
1027.776, 4289.074
1028.885, 4334.000
1029.994, 4271.000
1031.103, 4307.000
1032.211, 4317.000
1033.320, 4292.000
1034.428, 4341.000
1035.536, 4282.000
1036.644, 4213.000
1037.751, 4355.000
1038.859, 4252.000
1039.966, 4323.000
1041.074, 4194.000
1042.181, 4258.000
1043.288, 4201.000
1044.394, 4306.000
1045.501, 4247.000
1046.607, 4220.000
1047.713, 4263.000
1048.820, 4251.000
1049.925, 4192.000
1051.031, 4211.000
1052.137, 4198.000
1053.242, 4231.000
1054.348, 4251.000
1055.453, 4225.000
1056.558, 4229.000
1057.662, 4229.384
1058.767, 4250.000
1059.871, 4230.000
1060.976, 4149.000
1062.080, 4146.000
1063.184, 4186.000
1064.288, 4242.000
1065.391, 4200.000
1066.495, 4177.000
1067.598, 4201.000
1068.701, 4225.000
1069.804, 4128.000
1070.907, 4135.000
1072.010, 4125.000
1073.112, 4137.000
1074.214, 4152.000
1075.317, 4166.000
1076.419, 4176.551
1077.521, 4185.000
1078.622, 4184.000
1079.724, 4216.000
1080.825, 4192.000
1081.926, 4211.000
1083.027, 4186.000
1084.128, 4160.000
1085.229, 4234.000
1086.329, 4114.000
1087.430, 4202.000
1088.530, 4131.000
1089.630, 4120.000
1090.730, 4175.000
1091.830, 4198.000
1092.929, 4135.000
1094.029, 4128.000
1095.128, 4136.000
1096.227, 4172.000
1097.326, 4156.000
1098.425, 4155.325
1099.523, 4085.000
1100.622, 4122.000
1101.720, 4081.000
1102.818, 4056.000
1103.916, 4119.000
1105.014, 4188.000
1106.111, 4107.000
1107.209, 4055.000
1108.306, 4176.000
1109.403, 4030.000
1110.500, 4072.000
1111.597, 4033.000
1112.694, 4139.000
1113.790, 4095.000
1114.887, 4089.000
1115.983, 4100.000
1117.079, 4094.000
1118.174, 4094.000
1119.270, 4090.000
1120.366, 4152.000
1121.461, 4107.000
1122.556, 4043.000
1123.651, 4155.000
1124.746, 4136.000
1125.841, 4126.000
1126.935, 4180.000
1128.030, 4134.000
1129.124, 4162.000
1130.218, 4094.000
1131.312, 4144.000
1132.405, 4218.000
1133.499, 4165.000
1134.592, 4159.000
1135.686, 4072.000
1136.779, 4131.000
1137.871, 4007.000
1138.964, 4200.000
1140.057, 4099.000
1141.149, 3975.000
1142.241, 4184.000
1143.334, 4091.000
1144.425, 4140.000
1145.517, 4173.000
1146.609, 4133.000
1147.700, 4240.000
1148.791, 4147.000
1149.883, 4130.000
1150.974, 4124.000
1152.064, 4205.000
1153.155, 4147.000
1154.245, 4118.000
1155.336, 4047.000
1156.426, 4124.000
1157.516, 4138.000
1158.606, 4254.000
1159.695, 4098.000
1160.785, 4080.000
1161.874, 4006.000
1162.963, 4158.000
1164.052, 4147.000
1165.141, 4178.000
1166.230, 4164.000
1167.318, 4159.000
1168.406, 4118.000
1169.495, 4158.000
1170.583, 4174.000
1171.670, 4085.000
1172.758, 4133.000
1173.846, 4167.000
1174.933, 4141.000
1176.020, 4096.000
1177.107, 4120.000
1178.194, 4095.000
1179.281, 4099.000
1180.367, 4076.000
1181.454, 4143.000
1182.540, 4073.000
1183.626, 4137.000
1184.712, 4122.000
1185.798, 4075.000
1186.883, 4036.000
1187.969, 4104.000
1189.054, 4113.000
1190.139, 4099.000
1191.224, 4059.000
1192.309, 4069.000
1193.393, 4053.622
1194.478, 4105.000
1195.562, 4073.000
1196.646, 4052.000
1197.730, 4112.000
1198.814, 4144.000
1199.897, 4068.000
1200.981, 4080.000
1202.064, 4071.000
1203.147, 4051.331
1204.230, 4097.000
1205.313, 4053.000
1206.396, 4081.000
1207.478, 4097.000
1208.560, 4151.000
1209.642, 4124.000
1210.724, 4136.000
1211.806, 4081.000
1212.888, 4053.000
1213.969, 4170.000
1215.051, 4083.000
1216.132, 4136.000
1217.213, 4114.000
1218.294, 4207.000
1219.374, 4117.000
1220.455, 4143.000
1221.535, 4095.000
1222.616, 4074.000
1223.696, 4081.494
1224.775, 4189.000
1225.855, 4106.000
1226.935, 4113.000
1228.014, 4179.000
1229.093, 4122.000
1230.172, 4079.000
1231.251, 4150.000
1232.330, 4039.000
1233.408, 4107.000
1234.487, 4016.000
1235.565, 4169.000
1236.643, 4171.000
1237.721, 4095.000
1238.799, 4109.000
1239.876, 4143.000
1240.954, 4084.000
1242.031, 4038.000
1243.108, 4109.000
1244.185, 4129.000
1245.262, 4146.000
1246.338, 4133.767
1247.415, 4137.000
1248.491, 4063.000
1249.567, 4082.000
1250.643, 4047.000
1251.719, 3987.000
1252.795, 4063.000
1253.870, 4029.000
1254.945, 4078.000
1256.021, 4119.000
1257.096, 4107.000
1258.170, 4014.000
1259.245, 4050.000
1260.320, 4092.000
1261.394, 4171.000
1262.468, 4017.000
1263.542, 4052.000
1264.616, 4034.000
1265.690, 4094.000
1266.763, 4065.000
1267.836, 4085.000
1268.910, 3967.000
1269.983, 4028.000
1271.055, 4024.000
1272.128, 4080.000
1273.201, 4055.000
1274.273, 4094.000
1275.345, 3993.000
1276.417, 3958.000
1277.489, 4056.000
1278.561, 4006.000
1279.632, 4029.000
1280.704, 4000.000
1281.775, 4021.000
1282.846, 4044.000
1283.917, 4029.000
1284.988, 4025.000
1286.058, 4019.000
1287.129, 4029.000
1288.199, 4014.000
1289.269, 4048.000
1290.339, 4035.000
1291.409, 3982.000
1292.478, 4040.000
1293.548, 4054.000
1294.617, 3994.000
1295.686, 4047.000
1296.755, 4123.000
1297.824, 4028.000
1298.893, 4019.000
1299.961, 4038.000
1301.029, 3987.000
1302.097, 4017.000
1303.165, 4044.000
1304.233, 3957.000
1305.301, 4040.000
1306.368, 4117.000
1307.436, 4120.000
1308.503, 4059.000
1309.570, 4058.000
1310.637, 4037.000
1311.703, 4099.000
1312.770, 4118.000
1313.836, 4005.000
1314.902, 4022.000
1315.968, 3977.000
1317.034, 4046.000
1318.100, 4070.000
1319.165, 4038.000
1320.231, 4032.000
1321.296, 4048.000
1322.361, 4070.000
1323.426, 3981.000
1324.491, 4019.000
1325.555, 3940.000
1326.620, 4050.000
1327.684, 4020.000
1328.748, 4001.000
1329.812, 4041.000
1330.875, 3998.000
1331.939, 4082.000
1333.002, 3976.000
1334.066, 3964.000
1335.129, 3989.000
1336.192, 3979.000
1337.254, 3978.000
1338.317, 4025.000
1339.379, 4018.000
1340.442, 3955.000
1341.504, 4033.000
1342.566, 3998.000
1343.628, 4004.000
1344.689, 3938.000
1345.751, 3917.000
1346.812, 3982.000
1347.873, 3978.000
1348.934, 3930.000
1349.995, 4042.000
1351.055, 3994.000
1352.116, 4008.000
1353.176, 4000.000
1354.236, 3974.000
1355.296, 4027.000
1356.356, 3991.000
1357.416, 3983.000
1358.475, 4025.000
1359.535, 4011.000
1360.594, 4058.000
1361.653, 3992.000
1362.712, 3927.000
1363.770, 3991.000
1364.829, 4049.000
1365.887, 3999.000
1366.945, 3979.000
1368.003, 3939.000
1369.061, 3934.000
1370.119, 3996.000
1371.177, 4023.000
1372.234, 4028.000
1373.291, 3966.000
1374.348, 4028.000
1375.405, 3972.000
1376.462, 3995.000
1377.518, 3944.000
1378.575, 3966.000
1379.631, 3968.000
1380.687, 3982.000
1381.743, 3974.000
1382.799, 3970.000
1383.854, 3972.000
1384.910, 3985.000
1385.965, 3904.000
1387.020, 4041.000
1388.075, 3989.000
1389.130, 3954.000
1390.184, 4025.000
1391.239, 3941.000
1392.293, 3995.000
1393.347, 3985.000
1394.401, 3888.000
1395.455, 4060.000
1396.509, 4041.000
1397.562, 3988.000
1398.615, 3956.000
1399.669, 3971.000
1400.722, 3959.000
1401.774, 3942.000
1402.827, 3968.000
1403.879, 3988.000
1404.932, 4033.000
1405.984, 3987.000
1407.036, 3987.000
1408.088, 4020.000
1409.139, 4054.000
1410.191, 3994.000
1411.242, 3961.000
1412.294, 3925.000
1413.345, 3963.000
1414.395, 3981.000
1415.446, 3931.000
1416.497, 4010.000
1417.547, 4056.000
1418.597, 3955.000
1419.647, 3948.000
1420.697, 3964.000
1421.747, 3985.000
1422.796, 3924.000
1423.846, 3932.000
1424.895, 3926.435
1425.944, 3938.000
1426.993, 3915.000
1428.042, 3935.000
1429.090, 3908.000
1430.139, 3966.000
1431.187, 3947.000
1432.235, 3972.000
1433.283, 3939.000
1434.331, 3928.000
1435.378, 3869.000
1436.426, 3925.000
1437.473, 3937.000
1438.520, 3965.000
1439.567, 3937.000
1440.614, 3974.000
1441.661, 3885.000
1442.707, 3905.000
1443.753, 3874.000
1444.799, 3903.000
1445.845, 3970.000
1446.891, 3950.000
1447.937, 3920.000
1448.982, 3864.000
1450.028, 3815.000
1451.073, 3902.000
1452.118, 3883.000
1453.163, 3927.000
1454.207, 3875.000
1455.252, 3851.000
1456.296, 3876.000
1457.340, 3926.000
1458.384, 3850.000
1459.428, 3850.000
1460.472, 3938.000
1461.515, 3870.000
1462.559, 3913.000
1463.602, 4023.000
1464.645, 3879.000
1465.688, 3798.000
1466.731, 3903.000
1467.773, 3886.000
1468.816, 3815.000
1469.858, 3817.000
1470.900, 3933.000
1471.942, 3876.000
1472.983, 3890.000
1474.025, 3775.000
1475.066, 3872.000
1476.108, 3838.000
1477.149, 3842.000
1478.190, 3823.000
1479.230, 3826.232
1480.271, 3863.000
1481.311, 3848.000
1482.352, 3864.000
1483.392, 3891.000
1484.432, 3837.000
1485.472, 3794.000
1486.511, 3813.000
1487.551, 3870.000
1488.590, 3796.000
1489.629, 3826.000
1490.668, 3785.000
1491.707, 3878.000
1492.745, 3725.000
1493.784, 3838.000
1494.822, 3867.000
1495.860, 3772.000
1496.898, 3765.000
1497.936, 3760.000
1498.974, 3825.000
1500.011, 3832.000
1501.049, 3822.000
1502.086, 3786.000
1503.123, 3723.000
1504.160, 3816.000
1505.196, 3748.000
1506.233, 3802.000
1507.269, 3793.000
1508.305, 3804.000
1509.341, 3665.000
1510.377, 3812.000
1511.413, 3734.000
1512.449, 3734.000
1513.484, 3786.000
1514.519, 3773.000
1515.554, 3812.000
1516.589, 3778.000
1517.624, 3735.000
1518.658, 3762.000
1519.693, 3711.000
1520.727, 3741.000
1521.761, 3781.000
1522.795, 3748.000
1523.829, 3733.000
1524.862, 3806.000
1525.896, 3757.000
1526.929, 3780.000
1527.962, 3766.000
1528.995, 3715.000
1530.028, 3682.000
1531.060, 3796.000
1532.093, 3725.000
1533.125, 3756.000
1534.157, 3732.000
1535.189, 3730.000
1536.221, 3720.000
1537.253, 3769.000
1538.284, 3730.000
1539.316, 3779.000
1540.347, 3760.000
1541.378, 3745.000
1542.408, 3725.000
1543.439, 3727.000
1544.470, 3751.000
1545.500, 3737.171
1546.530, 3757.000
1547.560, 3744.000
1548.590, 3737.000
1549.620, 3756.000
1550.649, 3735.000
1551.679, 3737.000
1552.708, 3787.000
1553.737, 3787.000
1554.766, 3808.000
1555.794, 3767.000
1556.823, 3726.000
1557.851, 3743.000
1558.879, 3732.000
1559.907, 3707.000
1560.935, 3719.000
1561.963, 3813.000
##END=



