##NAMES=Baddeleyite
##RRUFFID=R060016
##IDEAL CHEMISTRY=Zr^4+^O_2_
##LOCALITY=Wet Loo, Myanmar
##OWNER=RRUFF
##SOURCE=American Museum of Natural History
##DESCRIPTION=Brown crystal fragment
##STATUS=The identification of this mineral has been confirmed by X-ray diffraction and chemical analysis
##URL=rruff.info/R060016
##MEASURED CHEMISTRY=(Zr_0.99_Ti_0.01_)_Î£=1_O_2_
##PIN_ID=M00083
##ORIENTATION=Laser parallel to (1 0 -1). Fiducial mark perpendicular to laser is parallel to b [0 1 0]
40.39300, 361.0000
41.63700, 370.0000
42.88100, 357.0000
44.12400, 357.0000
45.36700, 361.0000
46.61100, 355.0000
47.85400, 364.0000
49.09700, 369.0000
50.33900, 349.0000
51.58200, 363.0000
52.82400, 361.0000
54.06700, 366.0000
55.30900, 353.0000
56.55100, 357.0000
57.79200, 361.0000
59.03400, 372.0000
60.27600, 351.0000
61.51700, 367.0000
62.75800, 358.0000
63.99900, 360.0000
65.24000, 360.0000
66.48100, 356.0000
67.72100, 357.0758
68.96100, 368.0000
70.20200, 356.0000
71.44200, 365.0000
72.68200, 367.0000
73.92100, 363.0000
75.16100, 359.0000
76.40000, 383.0000
77.64000, 377.0000
78.87900, 384.0000
80.11800, 407.0000
81.35600, 407.0000
82.59500, 423.0000
83.83400, 457.0000
85.07200, 475.0000
86.31000, 506.0000
87.54800, 585.0000
88.78600, 666.0000
90.02400, 840.0000
91.26100, 1072.000
92.49800, 1345.000
93.73600, 1819.000
94.97300, 2316.000
96.21000, 3068.000
97.44600, 4169.000
98.68300, 5398.000
99.91900, 6484.000
101.1560, 7161.000
102.3920, 7047.000
103.6280, 6474.000
104.8630, 5491.000
106.0990, 4463.000
107.3350, 3526.000
108.5700, 2683.000
109.8050, 2148.000
111.0400, 1844.000
112.2750, 1681.000
113.5100, 1602.000
114.7440, 1481.000
115.9780, 1507.000
117.2130, 1448.000
118.4470, 1379.000
119.6810, 1330.000
120.9140, 1325.000
122.1480, 1372.000
123.3810, 1334.000
124.6150, 1325.000
125.8480, 1328.000
127.0810, 1284.000
128.3130, 1356.000
129.5460, 1363.000
130.7790, 1336.000
132.0110, 1368.000
133.2430, 1347.000
134.4750, 1350.000
135.7070, 1382.000
136.9380, 1405.000
138.1700, 1463.000
139.4010, 1445.000
140.6330, 1426.000
141.8640, 1419.000
143.0950, 1475.000
144.3250, 1465.000
145.5560, 1493.000
146.7860, 1495.000
148.0160, 1513.000
149.2470, 1506.000
150.4760, 1602.000
151.7060, 1568.000
152.9360, 1635.000
154.1650, 1633.000
155.3950, 1705.000
156.6240, 1767.000
157.8530, 1868.000
159.0820, 1922.000
160.3100, 2085.000
161.5390, 2248.000
162.7670, 2590.000
163.9950, 2975.000
165.2230, 3633.000
166.4510, 4610.000
167.6790, 5694.000
168.9060, 6441.000
170.1340, 7080.000
171.3610, 7922.000
172.5880, 9553.000
173.8150, 11508.00
175.0420, 12708.00
176.2690, 13555.00
177.4950, 13855.00
178.7210, 13553.00
179.9470, 12490.00
181.1730, 10970.00
182.3990, 8786.000
183.6250, 7360.000
184.8500, 6837.000
186.0760, 7017.000
187.3010, 7345.000
188.5260, 7467.000
189.7510, 7322.000
190.9750, 6923.000
192.2000, 6261.000
193.4240, 5083.000
194.6490, 4124.000
195.8730, 3119.000
197.0970, 2545.000
198.3200, 2175.000
199.5440, 2033.000
200.7670, 1833.000
201.9910, 1710.000
203.2140, 1655.000
204.4370, 1643.000
205.6590, 1629.000
206.8820, 1664.000
208.1050, 1725.834
209.3270, 1796.000
210.5490, 1917.000
211.7710, 2039.000
212.9930, 2166.000
214.2150, 2280.000
215.4360, 2499.000
216.6570, 2680.000
217.8790, 3009.000
219.1000, 3122.000
220.3210, 3265.000
221.5410, 3106.000
222.7620, 2998.000
223.9820, 2673.000
225.2030, 2359.000
226.4230, 1995.000
227.6430, 1783.000
228.8620, 1631.000
230.0820, 1515.000
231.3010, 1471.000
232.5210, 1420.000
233.7400, 1387.000
234.9590, 1387.000
236.1780, 1429.000
237.3960, 1396.000
238.6150, 1392.000
239.8330, 1411.615
241.0510, 1406.000
242.2690, 1427.000
243.4870, 1389.000
244.7050, 1374.000
245.9230, 1435.000
247.1400, 1419.000
248.3570, 1361.000
249.5740, 1405.000
250.7910, 1381.000
252.0080, 1374.000
253.2240, 1399.000
254.4410, 1347.000
255.6570, 1415.000
256.8730, 1430.000
258.0890, 1506.000
259.3050, 1489.000
260.5210, 1489.000
261.7360, 1413.000
262.9510, 1381.000
264.1670, 1386.000
265.3820, 1390.000
266.5960, 1394.000
267.8110, 1388.000
269.0260, 1421.000
270.2400, 1441.000
271.4540, 1461.000
272.6680, 1455.000
273.8820, 1465.000
275.0960, 1485.000
276.3090, 1531.000
277.5230, 1531.000
278.7360, 1538.000
279.9490, 1595.000
281.1620, 1619.000
282.3750, 1656.000
283.5880, 1685.000
284.8000, 1744.000
286.0120, 1740.000
287.2240, 1826.000
288.4360, 1871.000
289.6480, 1943.000
290.8600, 2027.000
292.0710, 2128.000
293.2830, 2250.000
294.4940, 2375.594
295.7050, 2534.000
296.9160, 2692.000
298.1260, 2870.000
299.3370, 3100.000
300.5470, 3236.000
301.7580, 3459.000
302.9680, 3655.000
304.1770, 3836.000
305.3870, 3889.000
306.5970, 3922.000
307.8060, 3823.000
309.0150, 3757.000
310.2250, 3579.000
311.4340, 3436.000
312.6420, 3378.000
313.8510, 3348.000
315.0590, 3390.000
316.2680, 3523.000
317.4760, 3832.000
318.6840, 4253.000
319.8920, 4930.000
321.0990, 5784.000
322.3070, 6976.000
323.5140, 8130.000
324.7210, 9354.000
325.9280, 10477.00
327.1350, 12077.00
328.3420, 13692.00
329.5490, 14816.00
330.7550, 15421.00
331.9610, 15425.00
333.1670, 14366.00
334.3730, 12954.00
335.5790, 11149.00
336.7840, 9352.000
337.9900, 7738.000
339.1950, 6609.000
340.4000, 5846.000
341.6050, 5442.000
342.8100, 5136.000
344.0150, 4945.000
345.2190, 4843.000
346.4230, 4598.000
347.6280, 4299.000
348.8320, 3985.000
350.0350, 3583.000
351.2390, 3056.000
352.4430, 2737.000
353.6460, 2389.000
354.8490, 2154.000
356.0520, 2038.000
357.2550, 1842.000
358.4580, 1798.000
359.6600, 1703.000
360.8630, 1692.000
362.0650, 1611.000
363.2670, 1630.000
364.4690, 1642.000
365.6710, 1623.000
366.8720, 1627.000
368.0740, 1681.000
369.2750, 1731.000
370.4760, 1809.000
371.6770, 1837.000
372.8780, 1886.000
374.0780, 2011.000
375.2790, 2079.000
376.4790, 2127.000
377.6790, 2112.000
378.8790, 2129.000
380.0790, 2075.000
381.2790, 2020.579
382.4780, 1946.000
383.6780, 1856.000
384.8770, 1778.000
386.0760, 1682.000
387.2750, 1600.000
388.4730, 1580.000
389.6720, 1477.000
390.8700, 1444.000
392.0690, 1442.000
393.2670, 1358.000
394.4650, 1330.000
395.6620, 1335.000
396.8600, 1304.000
398.0570, 1259.000
399.2550, 1252.000
400.4520, 1275.000
401.6490, 1235.000
402.8450, 1273.000
404.0420, 1257.000
405.2390, 1211.000
406.4350, 1263.000
407.6310, 1250.000
408.8270, 1256.000
410.0230, 1258.000
411.2190, 1243.000
412.4140, 1227.000
413.6090, 1244.000
414.8050, 1222.000
416.0000, 1231.000
417.1940, 1202.000
418.3890, 1260.000
419.5840, 1266.000
420.7780, 1241.000
421.9720, 1274.000
423.1660, 1271.000
424.3600, 1263.000
425.5540, 1307.000
426.7480, 1282.000
427.9410, 1324.000
429.1340, 1358.000
430.3270, 1345.000
431.5200, 1356.000
432.7130, 1340.000
433.9060, 1351.000
435.0980, 1422.000
436.2900, 1429.000
437.4830, 1470.000
438.6750, 1516.000
439.8660, 1536.000
441.0580, 1578.424
442.2500, 1574.000
443.4410, 1648.000
444.6320, 1681.000
445.8230, 1719.000
447.0140, 1780.000
448.2050, 1853.000
449.3950, 1915.000
450.5860, 1995.000
451.7760, 2104.000
452.9660, 2226.000
454.1560, 2384.000
455.3450, 2547.000
456.5350, 2810.000
457.7240, 3160.000
458.9140, 3502.000
460.1030, 3996.000
461.2920, 4486.000
462.4810, 5329.000
463.6690, 6206.000
464.8580, 7239.000
466.0460, 8531.000
467.2340, 9785.000
468.4220, 10818.00
469.6100, 11864.00
470.7970, 12976.00
471.9850, 13679.00
473.1720, 13959.00
474.3590, 13532.00
475.5460, 12743.00
476.7330, 11489.00
477.9200, 9937.000
479.1060, 8362.000
480.2930, 7038.000
481.4790, 5920.000
482.6650, 5074.000
483.8510, 4694.000
485.0370, 4207.000
486.2220, 3920.000
487.4080, 3905.000
488.5930, 3952.000
489.7780, 4012.000
490.9630, 4348.000
492.1480, 4635.000
493.3320, 5108.000
494.5170, 5405.000
495.7010, 5908.000
496.8850, 6440.000
498.0690, 6808.000
499.2530, 7027.000
500.4360, 6905.133
501.6200, 6722.000
502.8030, 6123.000
503.9860, 5476.000
505.1690, 4638.000
506.3520, 4009.000
507.5350, 3444.000
508.7170, 3041.000
509.9000, 2776.000
511.0820, 2527.000
512.2640, 2412.000
513.4460, 2337.000
514.6270, 2216.000
515.8090, 2120.000
516.9900, 2166.000
518.1710, 2164.000
519.3530, 2148.000
520.5330, 2208.000
521.7140, 2320.000
522.8950, 2353.000
524.0750, 2490.000
525.2550, 2750.000
526.4350, 2988.000
527.6150, 3338.000
528.7950, 3674.000
529.9750, 4189.000
531.1540, 4562.000
532.3340, 5133.000
533.5130, 5516.000
534.6920, 5882.000
535.8700, 6053.000
537.0490, 6036.000
538.2280, 5774.000
539.4060, 5297.000
540.5840, 4827.000
541.7620, 4353.000
542.9400, 3975.000
544.1180, 3662.756
545.2950, 3472.814
546.4720, 3235.000
547.6500, 3306.000
548.8270, 3307.000
550.0040, 3346.000
551.1800, 3446.000
552.3570, 3544.000
553.5330, 3634.000
554.7090, 3694.000
555.8850, 3625.000
557.0610, 3471.000
558.2370, 3408.000
559.4130, 3200.000
560.5880, 3001.000
561.7630, 2853.000
562.9380, 2602.000
564.1130, 2383.000
565.2880, 2246.000
566.4630, 2195.000
567.6370, 2130.000
568.8120, 2101.000
569.9860, 2049.643
571.1600, 1990.000
572.3330, 1965.000
573.5070, 1937.000
574.6810, 1890.000
575.8540, 1895.300
577.0270, 1945.000
578.2000, 1911.000
579.3730, 1923.000
580.5460, 1959.000
581.7180, 1966.000
582.8910, 2007.000
584.0630, 2060.000
585.2350, 2155.000
586.4070, 2105.000
587.5780, 2240.000
588.7500, 2326.000
589.9210, 2343.000
591.0930, 2460.000
592.2640, 2596.000
593.4350, 2674.000
594.6050, 2878.000
595.7760, 3110.000
596.9460, 3336.000
598.1170, 3566.000
599.2870, 3905.000
600.4570, 4393.000
601.6260, 4842.000
602.7960, 5384.000
603.9650, 6205.000
605.1350, 7110.000
606.3040, 8254.000
607.4730, 9254.000
608.6420, 10393.00
609.8100, 11346.00
610.9790, 12405.00
612.1470, 13570.00
613.3150, 13875.00
614.4830, 14138.00
615.6510, 14029.00
616.8190, 13272.00
617.9860, 12436.00
619.1540, 11598.00
620.3210, 10579.00
621.4880, 9959.000
622.6550, 9469.000
623.8220, 9106.000
624.9880, 9092.000
626.1550, 9362.000
627.3210, 9764.000
628.4870, 10388.00
629.6530, 11129.00
630.8190, 11970.00
631.9840, 12536.00
633.1500, 13337.00
634.3150, 13849.00
635.4800, 14115.00
636.6450, 13974.00
637.8100, 13532.00
638.9740, 12571.00
640.1390, 11384.00
641.3030, 10307.00
642.4670, 9046.000
643.6310, 8040.000
644.7950, 7031.000
645.9590, 6183.000
647.1220, 5520.000
648.2850, 4922.000
649.4490, 4437.000
650.6120, 4064.000
651.7740, 3801.000
652.9370, 3455.000
654.1000, 3246.000
655.2620, 3096.000
656.4240, 3002.000
657.5860, 2909.000
658.7480, 2701.000
659.9100, 2546.000
661.0710, 2506.000
662.2330, 2455.000
663.3940, 2381.000
664.5550, 2263.000
665.7160, 2256.000
666.8770, 2173.000
668.0370, 2167.000
669.1980, 2139.000
670.3580, 2089.000
671.5180, 2107.000
672.6780, 2010.000
673.8380, 1989.000
674.9970, 2040.000
676.1570, 2026.000
677.3160, 1949.000
678.4750, 1918.000
679.6340, 1904.000
680.7930, 1877.000
681.9520, 1870.000
683.1100, 1877.000
684.2680, 1856.000
685.4270, 1846.000
686.5850, 1858.000
687.7420, 1844.048
688.9000, 1865.000
690.0580, 1854.000
691.2150, 1856.000
692.3720, 1894.000
693.5290, 1883.865
694.6860, 1889.169
695.8430, 1892.000
696.9990, 1876.000
698.1560, 1870.000
699.3120, 1855.000
700.4680, 1896.000
701.6240, 1896.000
702.7800, 1893.000
703.9350, 1895.000
705.0900, 1913.000
706.2460, 1903.000
707.4010, 1893.944
708.5560, 1843.000
709.7110, 1858.000
710.8650, 1840.000
712.0200, 1820.000
713.1740, 1836.000
714.3280, 1782.000
715.4820, 1787.000
716.6360, 1776.000
717.7890, 1754.000
718.9430, 1687.000
720.0960, 1710.000
721.2490, 1696.000
722.4020, 1687.000
723.5550, 1692.000
724.7080, 1675.285
725.8600, 1665.000
727.0130, 1657.000
728.1650, 1680.000
729.3170, 1681.000
730.4690, 1695.000
731.6200, 1731.000
732.7720, 1678.000
733.9230, 1750.000
735.0740, 1730.000
736.2250, 1749.000
737.3760, 1809.000
738.5270, 1853.000
739.6780, 1852.000
740.8280, 1919.000
741.9780, 1938.000
743.1280, 2029.000
744.2780, 2030.000
745.4280, 2087.000
746.5770, 2201.000
747.7270, 2190.000
748.8760, 2259.000
750.0250, 2329.000
751.1740, 2306.000
752.3230, 2358.000
753.4720, 2377.000
754.6200, 2345.000
755.7680, 2361.000
756.9160, 2346.000
758.0640, 2235.000
759.2120, 2235.000
760.3600, 2165.000
761.5070, 2080.000
762.6550, 2016.000
763.8020, 1963.000
764.9490, 1893.000
766.0960, 1813.000
767.2420, 1807.000
768.3890, 1727.000
769.5350, 1648.000
770.6810, 1634.000
771.8270, 1591.000
772.9730, 1567.000
774.1190, 1532.000
775.2640, 1477.000
776.4100, 1486.000
777.5550, 1482.000
778.7000, 1432.000
779.8450, 1396.000
780.9900, 1406.000
782.1340, 1367.000
783.2790, 1387.000
784.4230, 1388.000
785.5670, 1319.000
786.7110, 1336.000
787.8550, 1305.000
788.9980, 1302.000
790.1420, 1244.000
791.2850, 1247.000
792.4280, 1289.000
793.5710, 1245.000
794.7140, 1254.000
795.8560, 1230.000
796.9990, 1222.000
798.1410, 1197.000
799.2830, 1202.000
800.4250, 1178.000
801.5670, 1187.000
802.7090, 1167.000
803.8500, 1167.000
804.9920, 1179.000
806.1330, 1180.000
807.2740, 1190.000
808.4150, 1123.000
809.5550, 1124.000
810.6960, 1137.000
811.8360, 1119.000
812.9760, 1123.000
814.1160, 1072.000
815.2560, 1078.000
816.3960, 1074.000
817.5350, 1089.000
818.6750, 1083.000
819.8140, 1050.000
820.9530, 1047.000
822.0920, 1061.000
823.2310, 1077.000
824.3690, 1030.000
825.5080, 1013.000
826.6460, 1061.000
827.7840, 992.0000
828.9220, 1042.000
830.0600, 1047.000
831.1970, 1033.000
832.3350, 1059.000
833.4720, 1002.000
834.6090, 997.0000
835.7460, 1017.000
836.8830, 1031.000
838.0190, 983.0000
839.1560, 1005.000
840.2920, 1012.000
841.4280, 992.0000
842.5640, 1011.000
843.7000, 1018.000
844.8360, 992.0000
845.9710, 981.0000
847.1070, 996.0000
848.2420, 1004.000
849.3770, 993.0000
850.5120, 991.0000
851.6460, 1008.000
852.7810, 982.0000
853.9150, 979.0000
855.0490, 952.0000
856.1830, 957.7313
857.3170, 974.0000
858.4510, 962.0000
859.5840, 989.0000
860.7180, 978.0000
861.8510, 948.0000
862.9840, 995.0000
864.1170, 990.0000
865.2500, 962.0000
866.3820, 968.0000
867.5150, 1001.000
868.6470, 982.0000
869.7790, 992.0000
870.9110, 955.0000
872.0430, 953.0000
873.1740, 961.0000
874.3060, 961.0000
875.4370, 966.0000
876.5680, 973.0000
877.6990, 1025.000
878.8300, 955.0000
879.9600, 999.0000
881.0910, 949.0000
882.2210, 964.0000
883.3510, 993.0000
884.4810, 958.0000
885.6110, 969.0000
886.7410, 966.0000
887.8700, 958.0000
888.9990, 940.0000
890.1290, 939.0000
891.2580, 944.0000
892.3860, 932.0000
893.5150, 955.0000
894.6440, 956.0000
895.7720, 946.0000
896.9000, 949.0000
898.0280, 936.0000
899.1560, 948.0000
900.2840, 937.0000
901.4110, 947.0000
902.5390, 954.0000
903.6660, 933.0000
904.7930, 934.0000
905.9200, 956.0000
907.0470, 918.0000
908.1730, 966.0000
909.3000, 940.0000
910.4260, 945.0000
911.5520, 943.0000
912.6780, 950.0000
913.8030, 954.0000
914.9290, 923.0000
916.0540, 922.0000
917.1800, 924.0000
918.3050, 919.8591
919.4300, 931.3808
920.5550, 934.0000
921.6790, 950.0000
922.8040, 960.0000
923.9280, 960.0000
925.0520, 944.0000
926.1760, 927.0000
927.3000, 948.0000
928.4230, 949.0000
929.5470, 951.0000
930.6700, 926.0000
931.7930, 935.0000
932.9160, 916.0000
934.0390, 955.0000
935.1620, 943.0000
936.2840, 928.0000
937.4070, 963.0000
938.5290, 919.0000
939.6510, 903.0000
940.7730, 891.0000
941.8940, 911.0000
943.0160, 941.0000
944.1370, 927.0000
945.2580, 918.0000
946.3800, 893.0000
947.5000, 900.4362
948.6210, 901.0000
949.7420, 905.0000
950.8620, 916.0000
951.9820, 906.0000
953.1020, 891.0000
954.2220, 912.0000
955.3420, 905.0000
956.4620, 902.0000
957.5810, 904.0000
958.7000, 922.0000
959.8190, 878.0000
960.9380, 892.0000
962.0570, 875.0000
963.1760, 894.0000
964.2940, 896.0000
965.4120, 890.0000
966.5300, 876.0000
967.6480, 884.0000
968.7660, 894.0000
969.8840, 908.0000
971.0010, 852.0000
972.1190, 886.0000
973.2360, 868.0000
974.3530, 894.0000
975.4690, 900.0000
976.5860, 900.0000
977.7030, 869.0000
978.8190, 877.0000
979.9350, 878.0000
981.0510, 891.0000
982.1670, 888.5645
983.2830, 893.0000
984.3980, 898.0000
985.5130, 895.0000
986.6290, 896.2042
987.7440, 886.0000
988.8590, 889.0000
989.9730, 890.0000
991.0880, 880.0000
992.2020, 888.0000
993.3160, 901.0000
994.4300, 918.0000
995.5440, 936.0000
996.6580, 918.0000
997.7720, 890.0000
998.8850, 869.0000
999.9980, 917.0000
1001.111, 871.0000
1002.224, 923.0000
1003.337, 876.0000
1004.450, 912.0000
1005.562, 907.0000
1006.674, 887.0000
1007.786, 843.0000
1008.898, 917.0000
1010.010, 865.0000
1011.122, 876.0000
1012.233, 905.0000
1013.344, 888.0000
1014.455, 911.0000
1015.566, 884.0000
1016.677, 886.0000
1017.788, 877.0000
1018.898, 870.0000
1020.009, 887.0000
1021.119, 891.0000
1022.229, 867.0000
1023.339, 905.0000
1024.448, 867.0000
1025.558, 892.0000
1026.667, 893.0000
1027.776, 879.0000
1028.885, 912.0000
1029.994, 867.0000
1031.103, 885.0000
1032.211, 851.0000
1033.320, 852.0000
1034.428, 848.0000
1035.536, 897.0000
1036.644, 905.0000
1037.751, 921.0000
1038.859, 919.0439
1039.966, 865.0000
1041.074, 895.0000
1042.181, 856.0000
1043.288, 850.0000
1044.394, 853.0000
1045.501, 880.0000
1046.607, 866.0000
1047.713, 854.0000
1048.820, 854.0000
1049.925, 865.0000
1051.031, 848.0000
1052.137, 846.0000
1053.242, 881.0000
1054.348, 866.0000
1055.453, 907.0000
1056.558, 859.0000
1057.662, 865.0000
1058.767, 850.0000
1059.871, 891.0000
1060.976, 858.0000
1062.080, 856.0000
1063.184, 852.0000
1064.288, 863.0000
1065.391, 865.0000
1066.495, 872.0000
1067.598, 876.4747
1068.701, 875.0000
1069.804, 880.0000
1070.907, 875.0000
1072.010, 868.0000
1073.112, 863.0000
1074.214, 856.0000
1075.317, 852.1376
1076.419, 874.0000
1077.521, 847.0000
1078.622, 859.0000
1079.724, 863.0000
1080.825, 894.0000
1081.926, 899.0000
1083.027, 881.0000
1084.128, 891.0000
1085.229, 883.0000
1086.329, 894.0000
1087.430, 903.0000
1088.530, 904.0000
1089.630, 903.4066
1090.730, 894.5165
1091.830, 892.0000
1092.929, 873.0000
1094.029, 865.0000
1095.128, 866.0000
1096.227, 903.0000
1097.326, 864.0000
1098.425, 891.0000
1099.523, 851.0000
1100.622, 897.0000
1101.720, 873.0000
1102.818, 864.0000
1103.916, 884.0000
1105.014, 880.0000
1106.111, 882.0000
1107.209, 883.0000
1108.306, 892.0000
1109.403, 890.0000
1110.500, 865.0000
1111.597, 880.0000
1112.694, 871.0000
1113.790, 869.0000
1114.887, 896.0000
1115.983, 889.0000
1117.079, 930.0000
1118.174, 873.0000
1119.270, 875.0000
1120.366, 887.0000
1121.461, 898.0000
1122.556, 923.0000
1123.651, 892.0000
1124.746, 916.0000
1125.841, 900.0000
1126.935, 915.0000
1128.030, 892.0000
1129.124, 909.0000
1130.218, 912.0000
1131.312, 905.0000
1132.405, 910.0000
1133.499, 930.0000
1134.592, 927.0000
1135.686, 921.0000
1136.779, 941.0000
1137.871, 911.0000
1138.964, 933.0000
1140.057, 925.0000
1141.149, 937.0000
1142.241, 946.0000
1143.334, 964.0000
1144.425, 960.0000
1145.517, 967.3234
1146.609, 967.2107
1147.700, 964.0000
1148.791, 957.0000
1149.883, 944.0000
1150.974, 928.0000
1152.064, 944.0000
1153.155, 936.0000
1154.245, 915.0000
1155.336, 928.0000
1156.426, 914.0000
1157.516, 946.0000
1158.606, 917.0000
1159.695, 918.0000
1160.785, 887.0000
1161.874, 920.0000
1162.963, 910.0000
1164.052, 948.0000
1165.141, 905.0000
1166.230, 925.0000
1167.318, 911.0000
1168.406, 923.0000
1169.495, 916.0000
1170.583, 910.0000
1171.670, 907.9730
1172.758, 903.2161
1173.846, 900.0000
1174.933, 899.0000
1176.020, 910.0000
1177.107, 912.0000
1178.194, 897.0000
1179.281, 929.0000
1180.367, 891.0000
1181.454, 880.0000
1182.540, 898.0000
1183.626, 917.0000
1184.712, 886.0000
1185.798, 908.0000
1186.883, 903.0000
1187.969, 925.0000
1189.054, 887.0000
1190.139, 919.0000
1191.224, 898.0000
1192.309, 913.0000
1193.393, 890.0000
1194.478, 899.0000
1195.562, 913.0000
1196.646, 912.0000
1197.730, 925.0000
1198.814, 917.0000
1199.897, 895.0000
1200.981, 912.0000
1202.064, 872.0000
1203.147, 889.0000
1204.230, 904.0000
1205.313, 931.0000
1206.396, 890.0000
1207.478, 909.0000
1208.560, 899.0000
1209.642, 884.0000
1210.724, 902.0000
1211.806, 918.0000
1212.888, 919.0000
1213.969, 882.0000
1215.051, 909.0000
1216.132, 923.0000
1217.213, 892.0000
1218.294, 940.0000
1219.374, 939.0000
1220.455, 894.0000
1221.535, 899.0000
1222.616, 894.0000
1223.696, 895.0000
1224.775, 896.8630
1225.855, 909.0000
1226.935, 896.0000
1228.014, 912.0000
1229.093, 904.0000
1230.172, 899.0000
1231.251, 909.0000
1232.330, 874.0000
1233.408, 888.0000
1234.487, 884.0000
1235.565, 912.0000
1236.643, 855.0000
1237.721, 897.0000
1238.799, 900.0000
1239.876, 864.0000
1240.954, 894.0000
1242.031, 882.0000
1243.108, 914.0000
1244.185, 885.0000
1245.262, 867.0000
1246.338, 892.0000
1247.415, 884.0000
1248.491, 880.0000
1249.567, 870.0000
1250.643, 887.0000
1251.719, 876.0000
1252.795, 946.0000
1253.870, 869.0000
1254.945, 915.0000
1256.021, 865.0000
1257.096, 896.0000
1258.170, 898.0000
1259.245, 890.0000
1260.320, 904.0000
1261.394, 883.0000
1262.468, 899.0000
1263.542, 880.0000
1264.616, 875.0000
1265.690, 885.0000
1266.763, 876.0623
1267.836, 879.9066
1268.910, 880.0000
1269.983, 892.0000
1271.055, 900.0000
1272.128, 928.0000
1273.201, 894.0000
1274.273, 915.0000
1275.345, 872.0000
1276.417, 888.0000
1277.489, 886.0000
1278.561, 908.0000
1279.632, 899.0000
1280.704, 889.0000
1281.775, 897.0000
1282.846, 898.0000
1283.917, 879.0000
1284.988, 865.0000
1286.058, 867.0000
1287.129, 904.0000
1288.199, 865.0000
1289.269, 869.0000
1290.339, 901.0000
1291.409, 873.0000
1292.478, 863.0000
1293.548, 886.0000
1294.617, 876.0000
1295.686, 878.0000
1296.755, 861.0000
1297.824, 880.0000
1298.893, 859.0000
1299.961, 881.0000
1301.029, 860.0000
1302.097, 898.0000
1303.165, 890.0000
1304.233, 891.9088
1305.301, 867.0000
1306.368, 887.0000
1307.436, 874.0000
1308.503, 860.0000
1309.570, 870.0000
1310.637, 853.0000
1311.703, 895.0000
1312.770, 892.0000
1313.836, 876.0000
1314.902, 876.0000
1315.968, 875.0000
1317.034, 851.0000
1318.100, 862.0000
1319.165, 840.0000
1320.231, 895.0000
1321.296, 867.0000
1322.361, 878.0000
1323.426, 868.0000
1324.491, 865.0000
1325.555, 884.0000
1326.620, 865.0000
1327.684, 885.0000
1328.748, 880.0000
1329.812, 876.0000
1330.875, 870.0000
1331.939, 888.0000
1333.002, 854.0000
1334.066, 838.0000
1335.129, 854.0000
1336.192, 876.0000
1337.254, 854.0000
1338.317, 884.0000
1339.379, 851.0000
1340.442, 870.0000
1341.504, 877.0000
1342.566, 880.0000
1343.628, 862.0000
1344.689, 876.0000
1345.751, 843.0000
1346.812, 881.0000
1347.873, 857.0000
1348.934, 819.0000
1349.995, 895.0000
1351.055, 869.0000
1352.116, 850.0000
1353.176, 857.0000
1354.236, 874.0000
1355.296, 890.0000
1356.356, 875.0000
1357.416, 873.0000
1358.475, 878.5489
1359.535, 870.0000
1360.594, 881.0000
1361.653, 881.0000
1362.712, 876.0000
1363.770, 864.0000
1364.829, 864.0000
1365.887, 912.0000
1366.945, 902.0000
1368.003, 904.0000
1369.061, 878.0000
1370.119, 881.5159
1371.177, 893.0000
1372.234, 879.0000
1373.291, 856.0000
1374.348, 859.0000
1375.405, 852.9440
1376.462, 885.0000
1377.518, 853.0000
1378.575, 873.0000
1379.631, 863.0000
1380.687, 850.0000
1381.743, 868.0000
1382.799, 876.0000
1383.854, 887.0000
1384.910, 887.0000
1385.965, 871.0000
1387.020, 851.0000
1388.075, 834.0000
1389.130, 887.0000
1390.184, 915.0000
1391.239, 891.0000
1392.293, 883.0000
1393.347, 875.0000
1394.401, 898.0000
1395.455, 857.0000
1396.509, 879.0000
1397.562, 883.0000
1398.615, 865.0000
1399.669, 858.0000
1400.722, 845.0000
1401.774, 878.0000
1402.827, 887.0000
1403.879, 872.0000
1404.932, 904.0000
1405.984, 883.0000
1407.036, 890.0000
1408.088, 862.0000
1409.139, 870.0000
1410.191, 868.0000
1411.242, 867.0000
1412.294, 881.0000
1413.345, 901.0000
1414.395, 876.0000
1415.446, 858.0000
1416.497, 885.0000
1417.547, 892.0000
1418.597, 875.0000
1419.647, 854.0000
1420.697, 909.0000
1421.747, 895.0000
1422.796, 909.0000
1423.846, 886.0000
1424.895, 885.0000
1425.944, 881.0000
1426.993, 893.0000
1428.042, 881.0000
1429.090, 911.0000
1430.139, 876.0000
1431.187, 879.0000
1432.235, 897.0000
1433.283, 897.0000
1434.331, 915.0000
1435.378, 908.0000
1436.426, 891.0000
1437.473, 905.8536
1438.520, 880.0000
1439.567, 909.0000
1440.614, 910.0000
1441.661, 894.0000
1442.707, 887.0000
1443.753, 888.0000
1444.799, 868.0000
1445.845, 879.0000
1446.891, 872.0000
1447.937, 851.0000
1448.982, 892.0000
1450.028, 869.0000
1451.073, 849.0000
1452.118, 865.0000
1453.163, 866.0000
1454.207, 871.0000
1455.252, 884.0000
1456.296, 892.0000
1457.340, 875.0000
1458.384, 865.0000
1459.428, 841.0000
1460.472, 872.0000
1461.515, 871.0000
1462.559, 875.0000
1463.602, 863.0000
1464.645, 863.0000
1465.688, 850.0000
1466.731, 841.0000
1467.773, 857.0000
1468.816, 850.0000
1469.858, 824.0000
1470.900, 882.0000
1471.942, 902.0000
1472.983, 884.0000
1474.025, 839.0000
1475.066, 871.0000
1476.108, 837.0000
1477.149, 860.0000
1478.190, 841.0000
1479.230, 857.0000
1480.271, 850.0000
1481.311, 861.0000
1482.352, 873.0000
1483.392, 863.0000
1484.432, 872.2470
1485.472, 869.0000
1486.511, 875.0000
1487.551, 869.0000
1488.590, 871.0000
1489.629, 866.0372
1490.668, 866.0890
1491.707, 858.0000
1492.745, 865.0000
1493.784, 870.0000
1494.822, 868.0000
1495.860, 859.0000
1496.898, 864.2515
1497.936, 850.0000
1498.974, 863.0000
1500.011, 860.0000
1501.049, 851.0000
1502.086, 876.0000
1503.123, 840.0000
1504.160, 855.0000
1505.196, 843.0000
1506.233, 852.0000
1507.269, 859.0000
1508.305, 835.0000
1509.341, 874.0000
1510.377, 902.0000
1511.413, 859.0000
1512.449, 849.0000
1513.484, 841.0000
1514.519, 839.0000
1515.554, 870.0000
1516.589, 880.0000
1517.624, 842.0000
1518.658, 862.0000
1519.693, 824.0000
1520.727, 896.0000
1521.761, 823.0000
1522.795, 872.0000
1523.829, 818.0000
1524.862, 833.0000
1525.896, 850.0000
1526.929, 870.0000
1527.962, 872.0000
1528.995, 875.4914
1530.028, 864.0000
1531.060, 863.0000
1532.093, 844.0000
1533.125, 828.0000
1534.157, 836.0000
1535.189, 814.0000
1536.221, 830.0000
1537.253, 851.0000
1538.284, 853.0000
1539.316, 848.0000
1540.347, 882.0000
1541.378, 851.0000
1542.408, 871.0000
1543.439, 857.0000
1544.470, 852.0000
1545.500, 855.0000
1546.530, 858.0000
1547.560, 844.0000
1548.590, 837.0000
1549.620, 855.0000
1550.649, 856.2476
1551.679, 872.0000
1552.708, 882.0000
1553.737, 877.0000
1554.766, 884.0000
1555.794, 871.0000
1556.823, 876.0000
1557.851, 856.0000
1558.879, 857.0000
1559.907, 874.0000
1560.935, 873.0000
1561.963, 905.0000
##END=



