##NAMES=Baryte
##RRUFFID=R050342
##IDEAL CHEMISTRY=BaS^6+^O_4_
##LOCALITY=Palos Verdes, Los Angeles County, California, USA
##OWNER=RRUFF
##SOURCE=California Institute of Technology
##DESCRIPTION=Light brown fragment
##STATUS=The identification of this mineral has been confirmed by X-ray diffraction and chemical analysis
##URL=rruff.info/R050342
##MEASURED CHEMISTRY=Ba_1.00_S_1.00_O_4_
##PIN_ID=L01107
##ORIENTATION=Laser parallel to -a* (-1 0 0). Fiducial mark perpendicular to laser is parallel to b [0 1 0]
140.2710, 6426.000
141.5000, 6479.000
142.7280, 6615.000
143.9560, 6650.000
145.1840, 6731.877
146.4120, 6770.000
147.6390, 6862.000
148.8670, 6928.000
150.0940, 6992.000
151.3210, 6983.533
152.5490, 6850.000
153.7750, 6901.000
155.0020, 6863.000
156.2290, 6761.000
157.4550, 6785.000
158.6810, 6764.000
159.9080, 6772.000
161.1340, 6719.000
162.3590, 6704.000
163.5850, 6689.000
164.8110, 6705.298
166.0360, 6739.000
167.2610, 6748.000
168.4860, 6843.000
169.7110, 6820.000
170.9360, 6886.000
172.1610, 6929.000
173.3850, 6874.000
174.6100, 6962.000
175.8340, 6983.000
177.0580, 6907.000
178.2820, 6966.000
179.5050, 6919.000
180.7290, 6889.000
181.9520, 7072.000
183.1760, 6932.000
184.3990, 7061.000
185.6220, 7033.000
186.8450, 7148.000
188.0670, 7078.000
189.2900, 7179.000
190.5120, 7151.000
191.7340, 7145.000
192.9560, 7152.000
194.1780, 7170.000
195.4000, 7148.000
196.6220, 7229.000
197.8430, 7175.000
199.0640, 7119.000
200.2860, 7135.000
201.5070, 7234.000
202.7270, 7230.000
203.9480, 7115.000
205.1690, 7262.000
206.3890, 7197.000
207.6090, 7248.000
208.8290, 7238.000
210.0490, 7270.000
211.2690, 7254.000
212.4890, 7361.000
213.7080, 7292.000
214.9280, 7308.000
216.1470, 7389.000
217.3660, 7389.000
218.5850, 7377.000
219.8030, 7283.000
221.0220, 7387.000
222.2400, 7310.000
223.4590, 7418.000
224.6770, 7337.000
225.8950, 7421.000
227.1120, 7443.000
228.3300, 7517.000
229.5480, 7400.000
230.7650, 7443.000
231.9820, 7467.000
233.1990, 7444.000
234.4160, 7461.000
235.6330, 7478.000
236.8490, 7482.000
238.0660, 7517.000
239.2820, 7606.000
240.4980, 7544.000
241.7140, 7545.000
242.9300, 7619.000
244.1460, 7694.000
245.3610, 7682.582
246.5770, 7700.413
247.7920, 7693.000
249.0070, 7661.000
250.2220, 7675.000
251.4370, 7664.000
252.6510, 7637.000
253.8660, 7731.000
255.0800, 7655.000
256.2940, 7678.000
257.5080, 7898.000
258.7220, 7674.000
259.9360, 7851.000
261.1490, 7673.000
262.3630, 7759.000
263.5760, 7812.000
264.7890, 7822.000
266.0020, 7777.000
267.2150, 7775.000
268.4270, 7774.000
269.6400, 7865.000
270.8520, 7859.000
272.0640, 7910.000
273.2760, 7817.000
274.4880, 7967.000
275.7000, 7965.000
276.9120, 7857.000
278.1230, 7959.000
279.3340, 7957.000
280.5450, 7965.000
281.7560, 7919.000
282.9670, 7953.981
284.1780, 8008.000
285.3880, 7990.000
286.5980, 7977.000
287.8090, 7976.050
289.0190, 8026.000
290.2290, 8004.000
291.4380, 8040.000
292.6480, 8054.000
293.8570, 8081.000
295.0670, 8120.535
296.2760, 8090.000
297.4850, 8155.000
298.6930, 8140.000
299.9020, 8054.000
301.1110, 8082.000
302.3190, 8104.000
303.5270, 8093.000
304.7350, 8125.333
305.9430, 8226.000
307.1510, 8202.000
308.3580, 8230.000
309.5660, 8350.000
310.7730, 8183.000
311.9800, 8263.000
313.1870, 8268.000
314.3940, 8226.000
315.6010, 8310.000
316.8070, 8322.000
318.0130, 8307.000
319.2200, 8243.000
320.4260, 8263.000
321.6310, 8281.000
322.8370, 8339.000
324.0430, 8334.000
325.2480, 8346.000
326.4540, 8386.784
327.6590, 8345.000
328.8640, 8447.000
330.0680, 8425.000
331.2730, 8443.000
332.4780, 8516.000
333.6820, 8472.000
334.8860, 8421.000
336.0900, 8508.000
337.2940, 8422.000
338.4980, 8505.000
339.7010, 8497.000
340.9050, 8449.000
342.1080, 8471.000
343.3110, 8499.000
344.5140, 8524.000
345.7170, 8551.851
346.9200, 8570.000
348.1220, 8596.000
349.3240, 8677.000
350.5270, 8675.000
351.7290, 8624.000
352.9310, 8724.000
354.1320, 8675.000
355.3340, 8676.000
356.5350, 8635.000
357.7370, 8679.000
358.9380, 8583.000
360.1390, 8677.000
361.3400, 8803.000
362.5400, 8658.000
363.7410, 8824.000
364.9410, 8677.000
366.1410, 8721.000
367.3410, 8783.000
368.5410, 8816.000
369.7410, 8799.555
370.9400, 8840.000
372.1400, 8777.000
373.3390, 8819.652
374.5380, 8773.000
375.7370, 8879.000
376.9360, 8860.000
378.1350, 8912.000
379.3330, 8791.000
380.5310, 8836.000
381.7300, 8843.000
382.9280, 8818.000
384.1260, 8812.000
385.3230, 8931.000
386.5210, 8964.000
387.7180, 8950.000
388.9160, 9021.000
390.1130, 8973.000
391.3100, 8964.000
392.5060, 8928.000
393.7030, 8927.430
394.9000, 8992.000
396.0960, 8975.000
397.2920, 8983.000
398.4880, 9094.000
399.6840, 9045.000
400.8800, 9129.000
402.0750, 9087.000
403.2710, 9079.000
404.4660, 9107.000
405.6610, 9082.000
406.8560, 9206.000
408.0510, 9192.444
409.2450, 9296.000
410.4400, 9232.000
411.6340, 9200.000
412.8280, 9191.000
414.0220, 9188.000
415.2160, 9154.000
416.4100, 9219.000
417.6030, 9152.000
418.7970, 9281.000
419.9900, 9272.000
421.1830, 9329.000
422.3760, 9316.000
423.5690, 9300.000
424.7610, 9378.000
425.9540, 9364.000
427.1460, 9368.000
428.3380, 9410.000
429.5300, 9363.000
430.7220, 9463.000
431.9140, 9478.000
433.1050, 9511.000
434.2970, 9509.000
435.4880, 9619.000
436.6790, 9723.000
437.8700, 9921.000
439.0610, 9817.000
440.2510, 10008.00
441.4420, 10234.00
442.6320, 10426.00
443.8220, 10772.00
445.0120, 11058.00
446.2020, 11567.00
447.3910, 11851.00
448.5810, 12849.00
449.7700, 13397.00
450.9600, 14407.00
452.1490, 15184.00
453.3370, 15605.00
454.5260, 15497.00
455.7150, 14907.00
456.9030, 13774.00
458.0910, 12734.00
459.2800, 12192.00
460.4670, 11619.00
461.6550, 11469.00
462.8430, 11235.00
464.0300, 11099.00
465.2180, 10781.00
466.4050, 10495.00
467.5920, 10246.00
468.7790, 10112.00
469.9650, 10046.00
471.1520, 10021.00
472.3380, 10015.00
473.5250, 10022.00
474.7110, 9924.000
475.8970, 9941.000
477.0820, 9796.000
478.2680, 9875.000
479.4540, 9813.000
480.6390, 9811.000
481.8240, 9912.000
483.0090, 9952.000
484.1940, 9998.000
485.3780, 9929.000
486.5630, 9987.000
487.7470, 9996.000
488.9320, 9979.000
490.1160, 9995.000
491.3000, 9999.872
492.4830, 9980.000
493.6670, 10015.00
494.8500, 10041.00
496.0340, 10034.27
497.2170, 10093.00
498.4000, 10035.00
499.5820, 10006.00
500.7650, 10055.00
501.9480, 10001.00
503.1300, 10230.00
504.3120, 10085.00
505.4940, 10177.00
506.6760, 10064.00
507.8580, 10084.00
509.0390, 10061.00
510.2210, 10217.00
511.4020, 10058.00
512.5830, 10274.00
513.7640, 10268.00
514.9450, 10121.00
516.1250, 10201.00
517.3060, 10206.00
518.4860, 10230.00
519.6660, 10266.00
520.8460, 10314.00
522.0260, 10331.00
523.2060, 10267.00
524.3850, 10383.00
525.5650, 10312.00
526.7440, 10369.00
527.9230, 10304.00
529.1020, 10443.00
530.2810, 10337.00
531.4590, 10371.00
532.6380, 10346.00
533.8160, 10304.00
534.9940, 10397.00
536.1720, 10454.00
537.3500, 10321.00
538.5270, 10413.00
539.7050, 10527.00
540.8820, 10529.00
542.0590, 10433.00
543.2360, 10529.00
544.4130, 10456.00
545.5900, 10611.00
546.7660, 10480.00
547.9430, 10451.00
549.1190, 10599.00
550.2950, 10552.00
551.4710, 10470.00
552.6470, 10563.00
553.8220, 10526.00
554.9980, 10573.00
556.1730, 10686.00
557.3480, 10755.00
558.5230, 10675.00
559.6980, 10682.00
560.8730, 10498.00
562.0470, 10606.00
563.2220, 10600.00
564.3960, 10792.00
565.5700, 10807.00
566.7440, 10859.05
567.9170, 10786.00
569.0910, 10865.00
570.2640, 10799.00
571.4380, 10657.00
572.6110, 10840.00
573.7840, 10708.00
574.9570, 10857.00
576.1290, 10825.00
577.3020, 10702.00
578.4740, 10817.00
579.6460, 10870.00
580.8180, 10873.00
581.9900, 10880.00
583.1620, 10925.00
584.3330, 10828.00
585.5040, 10951.00
586.6760, 10807.00
587.8470, 10971.00
589.0180, 11020.00
590.1880, 10939.00
591.3590, 10887.00
592.5290, 11058.00
593.7000, 10993.00
594.8700, 11056.00
596.0400, 11199.00
597.2090, 11081.00
598.3790, 11215.00
599.5490, 11014.00
600.7180, 11167.00
601.8870, 11307.00
603.0560, 11296.00
604.2250, 11324.00
605.3940, 11339.00
606.5620, 11517.00
607.7300, 11646.01
608.8990, 11959.00
610.0670, 12109.00
611.2350, 12417.00
612.4020, 12795.00
613.5700, 13305.00
614.7370, 14117.00
615.9050, 14524.00
617.0720, 14825.00
618.2390, 14872.00
619.4060, 14623.00
620.5720, 14171.00
621.7390, 13629.00
622.9050, 13167.00
624.0710, 12805.00
625.2370, 12379.00
626.4030, 12419.00
627.5690, 12178.00
628.7340, 11906.00
629.9000, 11988.00
631.0650, 11867.00
632.2300, 11919.00
633.3950, 11708.00
634.5600, 11731.00
635.7240, 11627.00
636.8890, 11570.00
638.0530, 11713.00
639.2170, 11622.00
640.3810, 11617.00
641.5450, 11524.00
642.7080, 11590.00
643.8720, 11695.00
645.0350, 11575.00
646.1980, 11587.00
647.3610, 11575.00
648.5240, 11680.00
649.6870, 11662.00
650.8490, 11608.00
652.0120, 11516.00
653.1740, 11603.00
654.3360, 11577.00
655.4980, 11579.00
656.6600, 11690.00
657.8210, 11505.00
658.9830, 11569.00
660.1440, 11831.00
661.3050, 11526.00
662.4660, 11737.00
663.6270, 11688.00
664.7870, 11863.00
665.9480, 11746.00
667.1080, 11751.00
668.2680, 11736.00
669.4280, 11777.00
670.5880, 11705.00
671.7480, 11799.00
672.9070, 11895.00
674.0670, 11807.00
675.2260, 11826.00
676.3850, 11784.00
677.5440, 11856.00
678.7030, 11952.00
679.8610, 11731.00
681.0200, 12007.00
682.1780, 11782.00
683.3360, 11859.00
684.4940, 11794.00
685.6520, 11939.00
686.8090, 12024.00
687.9670, 11885.00
689.1240, 11850.00
690.2810, 11764.00
691.4380, 11944.00
692.5950, 11935.00
693.7520, 12092.00
694.9080, 11986.00
696.0650, 12076.00
697.2210, 11943.00
698.3770, 12097.00
699.5330, 12050.00
700.6880, 12028.00
701.8440, 12144.00
702.9990, 12055.00
704.1550, 12113.00
705.3100, 11975.00
706.4650, 11999.00
707.6190, 12040.00
708.7740, 12212.00
709.9290, 12006.00
711.0830, 12141.00
712.2370, 12282.00
713.3910, 12116.00
714.5450, 12236.00
715.6980, 12237.00
716.8520, 12314.00
718.0050, 12226.00
719.1580, 12212.00
720.3110, 12267.00
721.4640, 12229.00
722.6170, 12357.00
723.7700, 12304.00
724.9220, 12303.00
726.0740, 12350.00
727.2260, 12339.00
728.3780, 12313.00
729.5300, 12360.00
730.6810, 12407.00
731.8330, 12390.00
732.9840, 12454.00
734.1350, 12344.00
735.2860, 12428.00
736.4370, 12340.00
737.5880, 12511.00
738.7380, 12537.00
739.8880, 12333.00
741.0390, 12494.00
742.1890, 12440.00
743.3380, 12480.00
744.4880, 12487.00
745.6380, 12535.00
746.7870, 12547.00
747.9360, 12547.00
749.0850, 12596.00
750.2340, 12503.00
751.3830, 12542.00
752.5310, 12525.00
753.6800, 12626.00
754.8280, 12538.00
755.9760, 12586.00
757.1240, 12582.00
758.2720, 12565.00
759.4190, 12697.00
760.5670, 12705.00
761.7140, 12657.00
762.8610, 12588.00
764.0080, 12714.00
765.1550, 12778.00
766.3020, 12814.00
767.4480, 12822.00
768.5950, 12870.00
769.7410, 12734.00
770.8870, 12873.00
772.0330, 12920.00
773.1780, 12837.00
774.3240, 12916.00
775.4690, 12895.00
776.6140, 12900.00
777.7590, 12907.00
778.9040, 12912.00
780.0490, 12929.00
781.1940, 12906.35
782.3380, 12967.00
783.4820, 12857.00
784.6260, 12877.00
785.7700, 12846.00
786.9140, 13142.00
788.0580, 12887.00
789.2010, 12880.00
790.3450, 13062.00
791.4880, 12846.00
792.6310, 12983.00
793.7730, 13118.00
794.9160, 13121.00
796.0590, 13032.00
797.2010, 13096.00
798.3430, 13151.00
799.4850, 13195.00
800.6270, 13125.00
801.7690, 13088.00
802.9100, 13190.00
804.0520, 13177.00
805.1930, 13219.00
806.3340, 13234.00
807.4750, 13253.77
808.6160, 13264.25
809.7560, 13280.00
810.8970, 13247.00
812.0370, 13203.00
813.1770, 13142.00
814.3170, 13151.00
815.4570, 13139.77
816.5960, 13395.00
817.7360, 13179.00
818.8750, 13336.00
820.0140, 13386.00
821.1530, 13344.00
822.2920, 13407.00
823.4310, 13267.00
824.5690, 13385.00
825.7070, 13308.00
826.8460, 13578.00
827.9840, 13414.00
829.1220, 13392.00
830.2590, 13489.00
831.3970, 13432.00
832.5340, 13557.00
833.6710, 13450.00
834.8080, 13492.00
835.9450, 13456.00
837.0820, 13619.00
838.2190, 13626.00
839.3550, 13717.00
840.4910, 13513.00
841.6270, 13535.00
842.7630, 13540.00
843.8990, 13630.00
845.0350, 13622.00
846.1700, 13617.00
847.3060, 13576.00
848.4410, 13724.00
849.5760, 13730.00
850.7100, 13604.00
851.8450, 13754.00
852.9800, 13641.00
854.1140, 13726.00
855.2480, 13706.00
856.3820, 13831.00
857.5160, 13681.00
858.6500, 13679.00
859.7830, 13619.00
860.9170, 13867.00
862.0500, 13731.00
863.1830, 13869.00
864.3160, 13894.00
865.4480, 13929.00
866.5810, 13989.22
867.7130, 13830.00
868.8460, 14025.00
869.9780, 13938.00
871.1100, 13891.00
872.2410, 13999.00
873.3730, 13927.00
874.5050, 13940.00
875.6360, 13829.00
876.7670, 14074.00
877.8980, 13950.00
879.0290, 14077.00
880.1590, 14009.00
881.2900, 13938.00
882.4200, 14076.00
883.5500, 14039.00
884.6800, 14177.00
885.8100, 14031.00
886.9400, 14175.00
888.0690, 14097.00
889.1990, 14088.00
890.3280, 14019.00
891.4570, 14273.00
892.5860, 14140.00
893.7140, 14204.00
894.8430, 14243.00
895.9710, 14167.00
897.1000, 14195.00
898.2280, 14253.00
899.3560, 14229.00
900.4830, 14390.00
901.6110, 14407.00
902.7380, 14398.00
903.8660, 14400.00
904.9930, 14418.00
906.1200, 14415.26
907.2460, 14482.00
908.3730, 14446.00
909.5000, 14507.00
910.6260, 14566.00
911.7520, 14445.00
912.8780, 14415.00
914.0040, 14476.00
915.1290, 14613.00
916.2550, 14567.00
917.3800, 14528.00
918.5050, 14559.00
919.6300, 14524.00
920.7550, 14549.00
921.8800, 14567.00
923.0040, 14597.00
924.1290, 14507.00
925.2530, 14494.00
926.3770, 14407.00
927.5010, 14680.00
928.6250, 14789.00
929.7480, 14580.00
930.8720, 14837.00
931.9950, 14719.00
933.1180, 14695.00
934.2410, 14743.00
935.3640, 14679.00
936.4860, 14832.00
937.6090, 14837.00
938.7310, 14722.00
939.8530, 14650.00
940.9750, 14928.00
942.0970, 14962.00
943.2180, 14949.00
944.3400, 14886.00
945.4610, 14919.00
946.5820, 14925.00
947.7030, 14770.00
948.8240, 14928.00
949.9450, 14953.00
951.0650, 14928.00
952.1860, 15068.00
953.3060, 15026.00
954.4260, 15074.00
955.5460, 15046.00
956.6650, 15027.00
957.7850, 15081.00
958.9040, 15155.00
960.0230, 15120.00
961.1420, 15240.00
962.2610, 15048.00
963.3800, 15222.00
964.4990, 15394.00
965.6170, 15354.00
966.7350, 15529.00
967.8530, 15473.00
968.9710, 15469.00
970.0890, 15594.00
971.2070, 15585.00
972.3240, 15588.00
973.4410, 15653.00
974.5580, 15703.00
975.6750, 15830.00
976.7920, 16003.00
977.9090, 16116.00
979.0250, 16611.00
980.1410, 17202.00
981.2580, 18292.00
982.3740, 20372.00
983.4890, 22685.00
984.6050, 26498.00
985.7200, 33050.00
986.8360, 41601.00
987.9510, 51099.00
989.0660, 55802.00
990.1810, 49079.00
991.2950, 36094.00
992.4100, 26224.00
993.5240, 21079.00
994.6390, 18632.00
995.7530, 17390.00
996.8660, 17059.00
997.9800, 16579.00
999.0940, 16367.00
1000.207, 16208.00
1001.320, 16217.00
1002.433, 16134.00
1003.546, 15892.00
1004.659, 15995.00
1005.772, 16184.00
1006.884, 15937.00
1007.996, 15935.00
1009.108, 15974.00
1010.220, 15917.00
1011.332, 15899.00
1012.444, 15941.00
1013.555, 16009.00
1014.666, 16006.00
1015.777, 15913.00
1016.888, 15957.00
1017.999, 15906.48
1019.110, 15843.00
1020.220, 15876.00
1021.331, 15956.00
1022.441, 15989.00
1023.551, 15985.89
1024.661, 16051.00
1025.770, 15975.00
1026.880, 15901.00
1027.989, 15933.00
1029.098, 15930.00
1030.207, 15945.00
1031.316, 15985.00
1032.425, 15940.00
1033.533, 16152.00
1034.642, 16004.00
1035.750, 16252.00
1036.858, 16111.00
1037.966, 16169.00
1039.073, 16037.00
1040.181, 16334.00
1041.288, 16135.00
1042.396, 16355.00
1043.503, 16125.00
1044.610, 16362.00
1045.716, 16201.00
1046.823, 16219.00
1047.929, 16202.00
1049.036, 16228.00
1050.142, 16409.00
1051.248, 16328.00
1052.353, 16382.00
1053.459, 16244.00
1054.564, 16416.00
1055.670, 16302.00
1056.775, 16258.00
1057.880, 16480.00
1058.985, 16438.00
1060.089, 16514.00
1061.194, 16581.00
1062.298, 16506.00
1063.402, 16618.21
1064.506, 16521.00
1065.610, 16729.00
1066.713, 16668.00
1067.817, 16683.00
1068.920, 16601.00
1070.023, 16650.00
1071.126, 16657.00
1072.229, 16641.52
1073.332, 16865.00
1074.435, 16714.00
1075.537, 16763.00
1076.639, 16939.00
1077.741, 17118.00
1078.843, 17214.91
1079.945, 17261.00
1081.046, 17474.00
1082.148, 17532.00
1083.249, 17652.00
1084.350, 17635.00
1085.451, 17665.00
1086.551, 17558.00
1087.652, 17312.00
1088.752, 17125.00
1089.853, 17258.00
1090.953, 17053.00
1092.053, 17155.00
1093.152, 17145.00
1094.252, 17135.00
1095.351, 17229.08
1096.451, 17231.50
1097.550, 17374.00
1098.649, 17369.00
1099.748, 17446.00
1100.846, 17630.00
1101.945, 17735.00
1103.043, 17820.00
1104.141, 18021.00
1105.239, 18060.00
1106.337, 18082.00
1107.434, 17754.00
1108.532, 17759.00
1109.629, 17427.00
1110.726, 17482.00
1111.823, 17285.00
1112.920, 17284.00
1114.017, 17351.00
1115.113, 17362.00
1116.210, 17437.00
1117.306, 17315.00
1118.402, 17259.00
1119.498, 17248.00
1120.593, 17490.00
1121.689, 17239.00
1122.784, 17420.00
1123.879, 17467.00
1124.974, 17382.00
1126.069, 17318.00
1127.164, 17286.00
1128.259, 17241.00
1129.353, 17380.00
1130.447, 17332.00
1131.541, 17369.00
1132.635, 17490.00
1133.729, 17441.00
1134.822, 17492.00
1135.916, 17605.00
1137.009, 17650.00
1138.102, 17771.00
1139.195, 17785.00
1140.288, 17652.00
1141.380, 17816.00
1142.473, 17761.00
1143.565, 17852.00
1144.657, 17935.00
1145.749, 17875.00
1146.841, 17723.00
1147.932, 17821.00
1149.024, 17718.00
1150.115, 17842.00
1151.206, 17707.00
1152.297, 17823.00
1153.388, 17806.00
1154.479, 17665.00
1155.569, 17886.00
1156.659, 17698.00
1157.750, 17663.00
1158.839, 17748.00
1159.929, 17891.00
1161.019, 17840.00
1162.108, 17870.00
1163.198, 17938.00
1164.287, 18042.00
1165.376, 17980.00
1166.465, 17956.00
1167.553, 18162.00
1168.642, 18047.00
1169.730, 17902.00
1170.818, 18091.00
1171.906, 18224.00
1172.994, 17983.00
1174.082, 18064.00
1175.170, 18070.00
1176.257, 17984.00
1177.344, 17978.00
1178.431, 18183.00
1179.518, 18055.00
1180.605, 18211.00
1181.691, 18289.00
1182.778, 18218.00
1183.864, 18221.00
1184.950, 18258.00
1186.036, 18166.00
1187.122, 18258.00
1188.207, 18399.00
1189.292, 18244.00
1190.378, 18457.00
1191.463, 18335.00
1192.548, 18327.00
1193.632, 18292.00
1194.717, 18288.00
1195.801, 18366.00
1196.886, 18355.00
1197.970, 18400.00
1199.054, 18368.00
1200.137, 18416.00
1201.221, 18425.00
1202.305, 18377.00
1203.388, 18332.00
1204.471, 18396.00
1205.554, 18550.00
1206.637, 18610.00
1207.719, 18652.00
1208.802, 18567.00
1209.884, 18588.00
1210.966, 18529.00
1212.048, 18671.00
1213.130, 18681.00
1214.212, 18770.00
1215.293, 18618.00
1216.374, 18609.00
1217.456, 18683.00
1218.536, 18814.00
1219.617, 18691.00
1220.698, 18701.00
1221.778, 18827.00
1222.859, 18679.00
1223.939, 18610.00
1225.019, 18702.00
1226.099, 18828.00
1227.178, 18920.00
1228.258, 18818.00
1229.337, 18962.00
1230.417, 18854.00
1231.496, 19071.00
1232.574, 18839.00
1233.653, 18826.00
1234.732, 18829.00
1235.810, 19083.00
1236.888, 19022.00
1237.966, 18972.00
1239.044, 19065.00
1240.122, 19063.00
1241.199, 19035.00
1242.277, 19070.00
1243.354, 19101.12
1244.431, 19084.00
1245.508, 19173.00
1246.585, 19217.00
1247.661, 19178.00
1248.738, 19322.00
1249.814, 19208.00
1250.890, 19176.00
1251.966, 19286.00
1253.042, 19215.00
1254.117, 19232.00
1255.193, 19146.00
1256.268, 19318.00
1257.343, 19373.00
1258.418, 19455.00
1259.493, 19528.53
1260.567, 19310.00
1261.642, 19617.00
1262.716, 19570.00
1263.790, 19595.00
1264.864, 19294.00
1265.938, 19489.00
1267.011, 19406.00
1268.085, 19662.00
1269.158, 19475.00
1270.231, 19494.00
1271.304, 19613.00
1272.377, 19520.00
1273.450, 19528.00
1274.522, 19533.00
1275.594, 19583.00
1276.666, 19621.00
1277.738, 19477.00
1278.810, 19535.00
1279.882, 19563.00
1280.953, 19639.00
1282.025, 19803.00
1283.096, 19712.00
1284.167, 19750.00
1285.238, 19700.00
1286.308, 19931.00
1287.379, 19773.00
1288.449, 19677.00
1289.519, 19990.00
1290.589, 19868.00
1291.659, 19847.00
1292.729, 19936.00
1293.798, 19954.00
1294.868, 19912.00
1295.937, 19950.00
1297.006, 19975.00
1298.075, 19978.67
1299.143, 19969.00
1300.212, 20026.00
1301.280, 20020.00
1302.348, 20052.00
1303.416, 20056.00
1304.484, 20139.00
1305.552, 20126.47
1306.620, 20150.00
1307.687, 20138.00
1308.754, 20169.00
1309.821, 20179.00
1310.888, 20117.00
1311.955, 20026.00
1313.021, 20071.00
1314.088, 20106.00
1315.154, 20062.00
1316.220, 20226.00
1317.286, 20019.00
1318.352, 20399.00
1319.417, 20276.00
1320.483, 20339.00
1321.548, 20478.00
1322.613, 20232.00
1323.678, 20363.00
1324.743, 20394.00
1325.807, 20480.00
1326.872, 20507.00
1327.936, 20461.00
1329.000, 20411.00
1330.064, 20404.00
1331.128, 20426.00
1332.191, 20422.47
1333.255, 20446.34
1334.318, 20447.00
1335.381, 20509.00
1336.444, 20483.00
1337.507, 20540.00
1338.569, 20516.00
1339.632, 20554.00
1340.694, 20600.00
1341.756, 20608.42
1342.818, 20529.00
1343.880, 20638.00
1344.941, 20774.00
1346.003, 20740.00
1347.064, 20555.00
1348.125, 20682.00
1349.186, 20628.00
1350.247, 20644.00
1351.308, 20749.00
1352.368, 20814.00
1353.428, 20819.00
1354.489, 21009.00
1355.549, 20599.00
1356.608, 20772.00
1357.668, 20640.00
1358.727, 20839.00
1359.787, 20947.00
1360.846, 20781.00
1361.905, 20860.00
1362.964, 20989.00
1364.022, 20829.00
1365.081, 21097.00
1366.139, 20881.00
1367.197, 20819.00
1368.255, 21015.00
1369.313, 21030.00
1370.371, 20966.00
1371.428, 21045.00
1372.486, 21043.00
1373.543, 21151.00
1374.600, 21179.00
1375.657, 21222.00
1376.713, 21061.00
1377.770, 21085.00
1378.826, 21152.00
1379.882, 21306.00
1380.938, 21320.00
1381.994, 21271.00
1383.050, 21267.00
1384.106, 21170.00
1385.161, 21219.00
1386.216, 21314.00
1387.271, 21239.00
1388.326, 21390.00
1389.381, 21221.00
1390.435, 21515.00
1391.490, 21252.00
1392.544, 21284.00
1393.598, 21277.00
1394.652, 21424.00
1395.705, 21473.00
1396.759, 21264.00
1397.812, 21354.00
1398.866, 21348.00
1399.919, 21556.00
1400.972, 21403.00
1402.024, 21599.00
1403.077, 21488.00
1404.129, 21515.00
1405.181, 21612.00
1406.233, 21544.00
1407.285, 21337.00
1408.337, 21376.00
1409.389, 21439.00
1410.440, 21615.00
1411.491, 21670.00
1412.542, 21771.00
1413.593, 21803.59
1414.644, 21756.00
1415.695, 21817.00
1416.745, 21808.00
1417.795, 21814.49
1418.845, 21799.30
1419.895, 21754.00
1420.945, 21764.00
1421.995, 21784.00
1423.044, 21839.00
1424.093, 21910.00
1425.142, 21867.00
1426.191, 21924.00
1427.240, 21931.00
1428.289, 21994.00
1429.337, 22080.00
1430.385, 21921.00
1431.433, 22047.00
1432.481, 22107.00
1433.529, 22179.00
1434.577, 22019.00
1435.624, 22181.00
1436.672, 22040.00
1437.719, 22050.00
1438.766, 22236.00
1439.812, 22111.00
1440.859, 22300.00
1441.905, 22084.00
1442.952, 22161.00
1443.998, 22190.00
1445.044, 22193.00
1446.090, 22312.00
1447.135, 22082.00
1448.181, 22215.00
1449.226, 22369.00
1450.271, 22270.00
1451.316, 22435.00
1452.361, 22348.00
1453.405, 22392.00
1454.450, 22298.00
1455.494, 22481.00
1456.538, 22300.00
1457.582, 22357.00
1458.626, 22694.00
1459.670, 22343.00
1460.713, 22521.00
1461.757, 22657.00
1462.800, 22310.00
1463.843, 22606.00
1464.886, 22546.00
1465.928, 22553.00
1466.971, 22552.00
1468.013, 22691.00
1469.055, 22544.00
1470.097, 22858.00
1471.139, 22863.00
1472.181, 22727.00
1473.222, 22837.00
1474.263, 22700.00
1475.305, 22719.00
1476.346, 22892.00
1477.386, 22751.00
1478.427, 22800.00
1479.468, 22886.00
1480.508, 22927.00
1481.548, 22870.00
1482.588, 23063.00
1483.628, 22958.00
1484.668, 23177.00
1485.707, 23090.00
1486.747, 23080.00
1487.786, 23093.00
1488.825, 23088.00
1489.864, 23085.56
1490.902, 23262.00
1491.941, 23086.00
1492.979, 23206.00
1494.017, 23232.00
1495.055, 23170.00
1496.093, 23309.00
1497.131, 23221.00
1498.168, 23208.00
1499.206, 23245.00
1500.243, 23361.00
1501.280, 23324.43
1502.317, 23246.00
1503.354, 23330.00
1504.390, 23311.00
1505.426, 23324.00
1506.463, 23387.15
1507.499, 23402.42
1508.535, 23459.00
1509.570, 23462.00
1510.606, 23429.00
1511.641, 23388.00
1512.676, 23451.00
1513.711, 23376.00
1514.746, 23445.00
1515.781, 23235.00
1516.816, 23432.00
1517.850, 23672.00
1518.884, 23609.00
1519.918, 23536.00
1520.952, 23584.00
1521.986, 23562.00
1523.019, 23646.00
1524.053, 23788.00
1525.086, 23771.02
1526.119, 23796.85
1527.152, 23809.00
1528.185, 23759.00
1529.217, 23737.00
1530.250, 23759.00
1531.282, 23735.20
1532.314, 23767.00
1533.346, 23780.00
1534.377, 23776.00
1535.409, 23887.00
1536.440, 23904.00
1537.472, 23959.00
1538.503, 23987.00
1539.534, 23952.00
1540.564, 23839.00
1541.595, 24025.00
1542.625, 24177.00
1543.656, 24098.00
1544.686, 23987.00
1545.716, 24048.00
1546.745, 23997.00
1547.775, 24155.00
1548.804, 24165.00
1549.834, 24321.00
1550.863, 24247.00
1551.892, 24385.00
1552.920, 24161.00
1553.949, 24325.00
1554.977, 24349.00
1556.006, 24204.00
1557.034, 24293.00
1558.062, 24145.00
1559.089, 24414.00
1560.117, 24451.00
1561.144, 24476.00
1562.172, 24205.00
1563.199, 24574.00
1564.226, 24471.00
1565.252, 24663.00
1566.279, 24468.00
1567.305, 24381.00
1568.332, 24422.00
1569.358, 24632.00
1570.384, 24481.00
##END=



