##NAMES=Baryte
##RRUFFID=R050342
##IDEAL CHEMISTRY=BaS^6+^O_4_
##LOCALITY=Palos Verdes, Los Angeles County, California, USA
##OWNER=RRUFF
##SOURCE=California Institute of Technology
##DESCRIPTION=Light brown fragment
##STATUS=The identification of this mineral has been confirmed by X-ray diffraction and chemical analysis
##URL=rruff.info/R050342
##MEASURED CHEMISTRY=Ba_1.00_S_1.00_O_4_
##PIN_ID=L00807
##ORIENTATION=Laser parallel to b* (0 1 0). Fiducial mark perpendicular to laser is parallel to c [0 0 1]
93.48000, 6029.000
94.71400, 6213.000
95.94800, 6354.000
97.18200, 6534.000
98.41600, 6534.000
99.64900, 6720.000
100.8830, 6769.000
102.1160, 6699.000
103.3490, 6759.000
104.5820, 6785.000
105.8150, 6731.000
107.0470, 6701.000
108.2800, 6854.000
109.5120, 6849.000
110.7440, 6891.000
111.9760, 6904.000
113.2080, 6952.000
114.4400, 6948.548
115.6710, 7079.000
116.9030, 6995.000
118.1340, 7072.000
119.3650, 7211.000
120.5960, 7140.000
121.8270, 7185.000
123.0580, 7363.000
124.2880, 7371.000
125.5190, 7401.000
126.7490, 7378.000
127.9790, 7369.000
129.2090, 7540.000
130.4390, 7437.000
131.6680, 7534.000
132.8980, 7515.000
134.1270, 7538.000
135.3560, 7609.000
136.5850, 7623.573
137.8140, 7675.507
139.0430, 7711.000
140.2710, 7744.000
141.5000, 7780.000
142.7280, 7769.000
143.9560, 7838.496
145.1840, 7865.000
146.4120, 7946.000
147.6390, 7928.000
148.8670, 7960.000
150.0940, 7966.000
151.3210, 8071.000
152.5490, 7996.000
153.7750, 8085.000
155.0020, 8162.000
156.2290, 8034.000
157.4550, 7996.000
158.6810, 8075.000
159.9080, 8228.000
161.1340, 8084.000
162.3590, 8178.000
163.5850, 8085.000
164.8110, 8016.000
166.0360, 8121.000
167.2610, 8077.000
168.4860, 8119.000
169.7110, 8132.000
170.9360, 8209.000
172.1610, 8200.000
173.3850, 8196.000
174.6100, 8178.000
175.8340, 8317.000
177.0580, 8322.000
178.2820, 8209.000
179.5050, 8405.000
180.7290, 8300.000
181.9520, 8417.000
183.1760, 8412.000
184.3990, 8465.000
185.6220, 8602.000
186.8450, 8716.000
188.0670, 8664.000
189.2900, 8614.000
190.5120, 8953.000
191.7340, 8740.000
192.9560, 8741.000
194.1780, 8730.000
195.4000, 8614.000
196.6220, 8684.000
197.8430, 8630.000
199.0640, 8617.000
200.2860, 8548.000
201.5070, 8558.000
202.7270, 8629.000
203.9480, 8542.000
205.1690, 8588.000
206.3890, 8455.000
207.6090, 8732.000
208.8290, 8641.000
210.0490, 8660.000
211.2690, 8568.000
212.4890, 8669.000
213.7080, 8709.000
214.9280, 8589.000
216.1470, 8717.000
217.3660, 8658.000
218.5850, 8716.000
219.8030, 8712.000
221.0220, 8839.000
222.2400, 8849.000
223.4590, 8691.000
224.6770, 8776.000
225.8950, 8862.000
227.1120, 8727.000
228.3300, 9013.000
229.5480, 8754.000
230.7650, 8763.000
231.9820, 8953.000
233.1990, 8848.000
234.4160, 8925.000
235.6330, 8864.000
236.8490, 8783.000
238.0660, 8943.000
239.2820, 8862.000
240.4980, 9001.000
241.7140, 8988.000
242.9300, 8884.000
244.1460, 9082.000
245.3610, 9062.000
246.5770, 9063.000
247.7920, 9013.000
249.0070, 9057.000
250.2220, 9154.000
251.4370, 9051.000
252.6510, 9145.000
253.8660, 9159.000
255.0800, 9054.000
256.2940, 9162.000
257.5080, 9292.000
258.7220, 9095.000
259.9360, 9319.000
261.1490, 9229.000
262.3630, 9164.000
263.5760, 9385.000
264.7890, 9246.000
266.0020, 9306.000
267.2150, 9251.000
268.4270, 9263.000
269.6400, 9219.000
270.8520, 9346.000
272.0640, 9333.000
273.2760, 9358.000
274.4880, 9220.000
275.7000, 9322.000
276.9120, 9362.000
278.1230, 9318.000
279.3340, 9433.000
280.5450, 9387.000
281.7560, 9423.000
282.9670, 9523.000
284.1780, 9448.000
285.3880, 9450.000
286.5980, 9547.000
287.8090, 9497.000
289.0190, 9491.000
290.2290, 9585.000
291.4380, 9446.000
292.6480, 9546.000
293.8570, 9634.000
295.0670, 9563.000
296.2760, 9563.000
297.4850, 9622.000
298.6930, 9635.000
299.9020, 9667.000
301.1110, 9630.000
302.3190, 9644.000
303.5270, 9635.000
304.7350, 9667.000
305.9430, 9673.568
307.1510, 9776.000
308.3580, 9739.000
309.5660, 9671.000
310.7730, 9768.000
311.9800, 9737.000
313.1870, 9729.000
314.3940, 9847.000
315.6010, 9802.000
316.8070, 9807.000
318.0130, 9833.000
319.2200, 9817.709
320.4260, 9899.000
321.6310, 9854.000
322.8370, 9912.000
324.0430, 9984.000
325.2480, 10012.00
326.4540, 9870.000
327.6590, 9852.000
328.8640, 10090.00
330.0680, 9961.000
331.2730, 10073.00
332.4780, 10003.00
333.6820, 9958.000
334.8860, 10044.00
336.0900, 10056.00
337.2940, 10071.00
338.4980, 10134.00
339.7010, 10244.00
340.9050, 10119.00
342.1080, 10117.00
343.3110, 10006.00
344.5140, 10066.00
345.7170, 10058.66
346.9200, 10135.00
348.1220, 10147.00
349.3240, 10166.00
350.5270, 10258.00
351.7290, 10293.00
352.9310, 10127.00
354.1320, 10306.00
355.3340, 10187.00
356.5350, 10193.00
357.7370, 10260.00
358.9380, 10264.00
360.1390, 10269.00
361.3400, 10260.00
362.5400, 10326.00
363.7410, 10249.00
364.9410, 10308.00
366.1410, 10295.00
367.3410, 10364.00
368.5410, 10308.00
369.7410, 10520.00
370.9400, 10355.00
372.1400, 10471.00
373.3390, 10453.00
374.5380, 10400.00
375.7370, 10516.00
376.9360, 10572.00
378.1350, 10529.00
379.3330, 10523.00
380.5310, 10574.00
381.7300, 10599.00
382.9280, 10551.00
384.1260, 10618.00
385.3230, 10538.00
386.5210, 10684.00
387.7180, 10744.00
388.9160, 10654.00
390.1130, 10679.00
391.3100, 10556.00
392.5060, 10528.00
393.7030, 10733.00
394.9000, 10673.00
396.0960, 10700.00
397.2920, 10778.00
398.4880, 10683.00
399.6840, 10673.00
400.8800, 10669.00
402.0750, 10724.00
403.2710, 10885.00
404.4660, 10812.00
405.6610, 10878.00
406.8560, 10851.00
408.0510, 10824.00
409.2450, 10867.00
410.4400, 10764.00
411.6340, 10873.00
412.8280, 10935.00
414.0220, 10878.00
415.2160, 11023.00
416.4100, 10894.00
417.6030, 10936.00
418.7970, 10950.00
419.9900, 10922.00
421.1830, 10972.00
422.3760, 11085.00
423.5690, 11182.00
424.7610, 11032.00
425.9540, 11102.00
427.1460, 11061.00
428.3380, 11182.00
429.5300, 11140.00
430.7220, 11299.00
431.9140, 11331.00
433.1050, 11406.00
434.2970, 11432.00
435.4880, 11488.00
436.6790, 11552.00
437.8700, 11578.00
439.0610, 11778.00
440.2510, 11866.00
441.4420, 12252.00
442.6320, 12740.00
443.8220, 12878.00
445.0120, 13537.00
446.2020, 13866.00
447.3910, 14505.00
448.5810, 15031.00
449.7700, 15810.00
450.9600, 16732.00
452.1490, 17381.00
453.3370, 17774.00
454.5260, 17719.00
455.7150, 17078.00
456.9030, 16212.00
458.0910, 15597.00
459.2800, 15209.00
460.4670, 15217.00
461.6550, 15200.00
462.8430, 14916.00
464.0300, 14787.00
465.2180, 13945.00
466.4050, 13231.00
467.5920, 12648.00
468.7790, 12366.00
469.9650, 12093.00
471.1520, 11998.00
472.3380, 11974.00
473.5250, 11933.00
474.7110, 11777.00
475.8970, 11791.00
477.0820, 11726.00
478.2680, 11852.00
479.4540, 11842.00
480.6390, 11745.00
481.8240, 11929.00
483.0090, 11798.00
484.1940, 11822.00
485.3780, 11791.00
486.5630, 11858.00
487.7470, 11936.00
488.9320, 11695.00
490.1160, 11817.00
491.3000, 11720.00
492.4830, 11940.00
493.6670, 11918.00
494.8500, 11943.00
496.0340, 11857.00
497.2170, 11874.00
498.4000, 11918.00
499.5820, 11963.00
500.7650, 12115.00
501.9480, 11929.00
503.1300, 11831.00
504.3120, 11939.00
505.4940, 12001.00
506.6760, 11977.12
507.8580, 11974.00
509.0390, 11986.00
510.2210, 12021.00
511.4020, 11999.00
512.5830, 11930.00
513.7640, 12140.00
514.9450, 11934.00
516.1250, 11901.00
517.3060, 12111.00
518.4860, 11994.00
519.6660, 12081.00
520.8460, 12128.00
522.0260, 12276.00
523.2060, 12129.00
524.3850, 12137.00
525.5650, 12019.00
526.7440, 12143.00
527.9230, 12281.00
529.1020, 12217.00
530.2810, 12225.00
531.4590, 12274.00
532.6380, 12249.00
533.8160, 12284.00
534.9940, 12420.00
536.1720, 12365.00
537.3500, 12345.00
538.5270, 12221.00
539.7050, 12354.00
540.8820, 12367.00
542.0590, 12279.00
543.2360, 12557.00
544.4130, 12373.00
545.5900, 12373.00
546.7660, 12321.00
547.9430, 12548.00
549.1190, 12573.00
550.2950, 12443.00
551.4710, 12386.00
552.6470, 12461.00
553.8220, 12475.00
554.9980, 12415.00
556.1730, 12533.00
557.3480, 12512.00
558.5230, 12633.00
559.6980, 12574.00
560.8730, 12475.00
562.0470, 12716.00
563.2220, 12592.00
564.3960, 12760.00
565.5700, 12548.00
566.7440, 12703.00
567.9170, 12682.00
569.0910, 12633.00
570.2640, 12731.00
571.4380, 12590.00
572.6110, 12864.00
573.7840, 12888.00
574.9570, 12799.00
576.1290, 12726.00
577.3020, 12884.00
578.4740, 12777.00
579.6460, 12775.00
580.8180, 12745.00
581.9900, 12830.00
583.1620, 12832.00
584.3330, 12854.00
585.5040, 13021.00
586.6760, 12960.00
587.8470, 12812.00
589.0180, 12805.00
590.1880, 12890.00
591.3590, 12961.00
592.5290, 13021.00
593.7000, 13052.54
594.8700, 13117.00
596.0400, 13073.17
597.2090, 13042.00
598.3790, 13016.00
599.5490, 13050.00
600.7180, 13066.00
601.8870, 13065.22
603.0560, 13198.00
604.2250, 13079.00
605.3940, 13106.00
606.5620, 13109.00
607.7300, 13279.00
608.8990, 13329.00
610.0670, 13405.69
611.2350, 13489.00
612.4020, 13612.00
613.5700, 13690.00
614.7370, 13909.00
615.9050, 14045.00
617.0720, 14199.00
618.2390, 14194.00
619.4060, 14202.00
620.5720, 14101.00
621.7390, 13812.00
622.9050, 13946.00
624.0710, 13686.00
625.2370, 13913.00
626.4030, 13813.00
627.5690, 14054.00
628.7340, 13960.00
629.9000, 14118.00
631.0650, 14143.00
632.2300, 14184.00
633.3950, 14003.00
634.5600, 14031.00
635.7240, 13858.00
636.8890, 13830.00
638.0530, 13954.00
639.2170, 13808.00
640.3810, 13961.00
641.5450, 14100.00
642.7080, 14037.00
643.8720, 14242.00
645.0350, 14326.00
646.1980, 14336.00
647.3610, 14569.00
648.5240, 14496.00
649.6870, 14545.00
650.8490, 14427.00
652.0120, 14040.00
653.1740, 14156.00
654.3360, 13885.00
655.4980, 13809.00
656.6600, 13834.00
657.8210, 13934.00
658.9830, 13720.00
660.1440, 13853.00
661.3050, 13898.00
662.4660, 13747.00
663.6270, 13849.00
664.7870, 13906.00
665.9480, 13855.00
667.1080, 13954.00
668.2680, 13948.00
669.4280, 13902.00
670.5880, 13863.00
671.7480, 13861.00
672.9070, 13869.00
674.0670, 13899.00
675.2260, 13981.00
676.3850, 13904.00
677.5440, 14014.00
678.7030, 13950.00
679.8610, 13966.51
681.0200, 13988.00
682.1780, 13983.00
683.3360, 13935.00
684.4940, 13963.00
685.6520, 14016.00
686.8090, 14098.00
687.9670, 14187.00
689.1240, 14238.00
690.2810, 14263.52
691.4380, 14087.00
692.5950, 14282.00
693.7520, 14156.00
694.9080, 14169.00
696.0650, 14241.00
697.2210, 14348.00
698.3770, 14176.00
699.5330, 14207.00
700.6880, 14292.00
701.8440, 14234.00
702.9990, 14290.00
704.1550, 14365.00
705.3100, 14363.00
706.4650, 14395.80
707.6190, 14199.00
708.7740, 14441.00
709.9290, 14320.00
711.0830, 14406.00
712.2370, 14504.00
713.3910, 14303.00
714.5450, 14467.00
715.6980, 14534.00
716.8520, 14415.00
718.0050, 14471.00
719.1580, 14444.00
720.3110, 14445.00
721.4640, 14519.00
722.6170, 14504.00
723.7700, 14622.00
724.9220, 14596.00
726.0740, 14511.00
727.2260, 14633.00
728.3780, 14604.00
729.5300, 14624.00
730.6810, 14647.00
731.8330, 14621.00
732.9840, 14684.00
734.1350, 14773.00
735.2860, 14673.00
736.4370, 14769.00
737.5880, 14690.00
738.7380, 14778.00
739.8880, 14762.00
741.0390, 14703.00
742.1890, 14683.00
743.3380, 14719.00
744.4880, 14912.00
745.6380, 14829.00
746.7870, 14833.00
747.9360, 14712.00
749.0850, 14867.00
750.2340, 14874.00
751.3830, 14925.00
752.5310, 14882.00
753.6800, 14927.00
754.8280, 15017.00
755.9760, 14825.00
757.1240, 14912.00
758.2720, 14978.00
759.4190, 14922.00
760.5670, 14960.00
761.7140, 15073.00
762.8610, 14834.00
764.0080, 15145.00
765.1550, 15088.00
766.3020, 15022.00
767.4480, 15110.00
768.5950, 15055.00
769.7410, 15101.00
770.8870, 15148.00
772.0330, 15116.00
773.1780, 15212.00
774.3240, 15294.00
775.4690, 15122.00
776.6140, 15250.00
777.7590, 15182.00
778.9040, 15249.00
780.0490, 15213.00
781.1940, 15270.00
782.3380, 15173.00
783.4820, 15236.00
784.6260, 15336.00
785.7700, 15250.00
786.9140, 15377.00
788.0580, 15287.00
789.2010, 15399.00
790.3450, 15407.00
791.4880, 15292.00
792.6310, 15324.00
793.7730, 15366.00
794.9160, 15409.00
796.0590, 15366.00
797.2010, 15496.00
798.3430, 15415.00
799.4850, 15527.00
800.6270, 15456.00
801.7690, 15446.00
802.9100, 15587.00
804.0520, 15487.00
805.1930, 15479.00
806.3340, 15639.00
807.4750, 15656.00
808.6160, 15660.00
809.7560, 15654.00
810.8970, 15671.00
812.0370, 15544.00
813.1770, 15688.00
814.3170, 15568.00
815.4570, 15659.00
816.5960, 15771.00
817.7360, 15760.00
818.8750, 15749.00
820.0140, 15765.00
821.1530, 15770.00
822.2920, 15775.00
823.4310, 15852.00
824.5690, 15900.00
825.7070, 15901.64
826.8460, 15889.00
827.9840, 15893.00
829.1220, 15885.00
830.2590, 15886.23
831.3970, 15889.62
832.5340, 15896.49
833.6710, 15904.00
834.8080, 15923.00
835.9450, 15944.00
837.0820, 15950.14
838.2190, 15971.39
839.3550, 15966.00
840.4910, 16011.00
841.6270, 16017.00
842.7630, 16050.27
843.8990, 16124.00
845.0350, 16123.00
846.1700, 16099.00
847.3060, 16091.00
848.4410, 16186.00
849.5760, 16189.00
850.7100, 16228.00
851.8450, 16226.19
852.9800, 16136.00
854.1140, 16199.00
855.2480, 16146.00
856.3820, 16156.00
857.5160, 16178.00
858.6500, 16260.00
859.7830, 16326.00
860.9170, 16403.00
862.0500, 16365.00
863.1830, 16368.00
864.3160, 16380.00
865.4480, 16426.00
866.5810, 16420.00
867.7130, 16450.10
868.8460, 16435.09
869.9780, 16469.00
871.1100, 16424.00
872.2410, 16382.00
873.3730, 16437.00
874.5050, 16295.00
875.6360, 16525.00
876.7670, 16419.00
877.8980, 16440.00
879.0290, 16513.00
880.1590, 16544.00
881.2900, 16524.00
882.4200, 16616.00
883.5500, 16482.00
884.6800, 16559.00
885.8100, 16479.00
886.9400, 16575.00
888.0690, 16570.00
889.1990, 16735.00
890.3280, 16581.00
891.4570, 16654.00
892.5860, 16756.00
893.7140, 16821.00
894.8430, 16737.00
895.9710, 16873.00
897.1000, 16775.00
898.2280, 16827.00
899.3560, 16975.00
900.4830, 16878.00
901.6110, 16872.00
902.7380, 17105.00
903.8660, 17026.00
904.9930, 16876.00
906.1200, 17026.00
907.2460, 16831.00
908.3730, 16891.00
909.5000, 16902.00
910.6260, 16879.00
911.7520, 16956.44
912.8780, 17129.00
914.0040, 17038.00
915.1290, 17124.00
916.2550, 17098.00
917.3800, 17161.00
918.5050, 17016.00
919.6300, 17166.00
920.7550, 17069.00
921.8800, 17042.00
923.0040, 17289.00
924.1290, 17159.00
925.2530, 17215.00
926.3770, 17407.00
927.5010, 17230.00
928.6250, 17216.00
929.7480, 17259.00
930.8720, 17272.00
931.9950, 17405.00
933.1180, 17277.00
934.2410, 17383.00
935.3640, 17206.00
936.4860, 17411.00
937.6090, 17456.00
938.7310, 17543.00
939.8530, 17522.00
940.9750, 17381.00
942.0970, 17578.00
943.2180, 17402.00
944.3400, 17548.00
945.4610, 17624.00
946.5820, 17413.00
947.7030, 17523.00
948.8240, 17443.00
949.9450, 17546.00
951.0650, 17550.05
952.1860, 17678.00
953.3060, 17588.00
954.4260, 17660.00
955.5460, 17683.00
956.6650, 17688.00
957.7850, 17741.00
958.9040, 17817.00
960.0230, 17796.00
961.1420, 17860.00
962.2610, 17867.43
963.3800, 17901.00
964.4990, 17898.00
965.6170, 18024.00
966.7350, 18071.00
967.8530, 18353.00
968.9710, 18085.00
970.0890, 18367.00
971.2070, 18283.00
972.3240, 18516.00
973.4410, 18667.00
974.5580, 18712.00
975.6750, 18852.00
976.7920, 18919.00
977.9090, 19232.00
979.0250, 19801.00
980.1410, 21041.00
981.2580, 23130.00
982.3740, 26216.00
983.4890, 29966.00
984.6050, 33346.00
985.7200, 39576.00
986.8360, 48271.00
987.9510, 58013.00
989.0660, 62348.00
990.1810, 55405.00
991.2950, 41740.00
992.4100, 30717.00
993.5240, 24664.00
994.6390, 21878.00
995.7530, 20565.00
996.8660, 19962.00
997.9800, 19558.00
999.0940, 19275.00
1000.207, 19083.00
1001.320, 18969.00
1002.433, 18822.78
1003.546, 18822.00
1004.659, 18675.00
1005.772, 18683.00
1006.884, 18648.00
1007.996, 18692.00
1009.108, 18703.00
1010.220, 18580.00
1011.332, 18678.00
1012.444, 18632.00
1013.555, 18767.00
1014.666, 18749.00
1015.777, 18632.00
1016.888, 18766.00
1017.999, 18580.00
1019.110, 18798.00
1020.220, 18767.00
1021.331, 18822.00
1022.441, 18796.00
1023.551, 18779.00
1024.661, 18811.00
1025.770, 18743.00
1026.880, 18796.00
1027.989, 18867.00
1029.098, 18959.00
1030.207, 18960.78
1031.316, 18884.00
1032.425, 18980.00
1033.533, 18801.00
1034.642, 18807.00
1035.750, 18808.00
1036.858, 19033.00
1037.966, 18904.00
1039.073, 19027.00
1040.181, 18895.00
1041.288, 18964.00
1042.396, 19059.00
1043.503, 19024.00
1044.610, 19022.00
1045.716, 19054.00
1046.823, 19030.00
1047.929, 19270.00
1049.036, 19118.00
1050.142, 19302.00
1051.248, 19029.00
1052.353, 19282.00
1053.459, 19083.00
1054.564, 19299.00
1055.670, 19215.00
1056.775, 19430.00
1057.880, 19203.00
1058.985, 19296.00
1060.089, 19058.00
1061.194, 19262.00
1062.298, 19484.00
1063.402, 19338.00
1064.506, 19405.00
1065.610, 19296.00
1066.713, 19398.00
1067.817, 19501.00
1068.920, 19324.00
1070.023, 19444.00
1071.126, 19556.00
1072.229, 19598.00
1073.332, 19572.00
1074.435, 19458.00
1075.537, 19543.00
1076.639, 19654.00
1077.741, 19511.00
1078.843, 19530.00
1079.945, 19610.00
1081.046, 19683.00
1082.148, 19684.94
1083.249, 19723.00
1084.350, 19705.00
1085.451, 19834.00
1086.551, 19855.00
1087.652, 19861.00
1088.752, 19748.00
1089.853, 19866.00
1090.953, 19827.00
1092.053, 19673.00
1093.152, 19878.00
1094.252, 19875.00
1095.351, 19785.00
1096.451, 19979.00
1097.550, 20107.00
1098.649, 20231.00
1099.748, 20286.00
1100.846, 20484.00
1101.945, 20596.00
1103.043, 20610.00
1104.141, 20721.00
1105.239, 20643.62
1106.337, 20650.00
1107.434, 20498.00
1108.532, 20372.00
1109.629, 20351.00
1110.726, 20389.00
1111.823, 20268.00
1112.920, 20356.00
1114.017, 20163.00
1115.113, 20334.00
1116.210, 20304.00
1117.306, 20395.00
1118.402, 20247.00
1119.498, 20238.00
1120.593, 20150.00
1121.689, 20522.00
1122.784, 20427.00
1123.879, 20631.00
1124.974, 20490.00
1126.069, 20611.00
1127.164, 20424.00
1128.259, 20676.00
1129.353, 20575.00
1130.447, 20806.00
1131.541, 20893.00
1132.635, 21270.00
1133.729, 21361.00
1134.822, 21517.00
1135.916, 21761.00
1137.009, 22228.00
1138.102, 22353.00
1139.195, 22545.00
1140.288, 22683.00
1141.380, 22738.00
1142.473, 22751.67
1143.565, 22798.00
1144.657, 22510.00
1145.749, 22375.00
1146.841, 21947.00
1147.932, 21767.00
1149.024, 21712.00
1150.115, 21643.00
1151.206, 21389.00
1152.297, 21269.00
1153.388, 21278.00
1154.479, 21029.00
1155.569, 21123.00
1156.659, 21016.00
1157.750, 21153.00
1158.839, 21225.00
1159.929, 21012.00
1161.019, 21398.00
1162.108, 21438.00
1163.198, 21521.00
1164.287, 21932.00
1165.376, 21888.00
1166.465, 21903.00
1167.553, 22127.00
1168.642, 21777.00
1169.730, 21778.00
1170.818, 21640.00
1171.906, 21647.00
1172.994, 21358.00
1174.082, 21266.00
1175.170, 21360.00
1176.257, 21367.00
1177.344, 21170.00
1178.431, 21348.00
1179.518, 21409.00
1180.605, 21357.44
1181.691, 21485.00
1182.778, 21311.00
1183.864, 21423.00
1184.950, 21305.00
1186.036, 21458.00
1187.122, 21463.00
1188.207, 21335.00
1189.292, 21400.00
1190.378, 21334.00
1191.463, 21346.00
1192.548, 21595.00
1193.632, 21349.00
1194.717, 21520.00
1195.801, 21346.00
1196.886, 21506.00
1197.970, 21501.00
1199.054, 21273.00
1200.137, 21495.00
1201.221, 21650.00
1202.305, 21579.00
1203.388, 21686.00
1204.471, 21771.00
1205.554, 21584.00
1206.637, 21586.00
1207.719, 21650.00
1208.802, 21695.00
1209.884, 21686.95
1210.966, 21741.00
1212.048, 21714.00
1213.130, 21763.00
1214.212, 21854.00
1215.293, 21838.00
1216.374, 21773.00
1217.456, 21689.00
1218.536, 21686.00
1219.617, 21831.00
1220.698, 21813.00
1221.778, 21992.00
1222.859, 21806.00
1223.939, 21885.00
1225.019, 21941.00
1226.099, 21991.00
1227.178, 21885.00
1228.258, 22009.00
1229.337, 21920.00
1230.417, 22063.00
1231.496, 22088.00
1232.574, 22163.00
1233.653, 22141.00
1234.732, 22156.00
1235.810, 22170.00
1236.888, 22248.00
1237.966, 22139.00
1239.044, 22331.00
1240.122, 22338.00
1241.199, 22275.00
1242.277, 22415.00
1243.354, 22263.00
1244.431, 22373.00
1245.508, 22302.00
1246.585, 22261.00
1247.661, 22200.00
1248.738, 22424.00
1249.814, 22238.00
1250.890, 22409.00
1251.966, 22360.00
1253.042, 22396.00
1254.117, 22459.98
1255.193, 22577.00
1256.268, 22497.00
1257.343, 22512.00
1258.418, 22452.00
1259.493, 22588.00
1260.567, 22659.00
1261.642, 22666.00
1262.716, 22623.00
1263.790, 22661.00
1264.864, 22658.00
1265.938, 22668.00
1267.011, 22676.00
1268.085, 22747.00
1269.158, 22583.00
1270.231, 22901.00
1271.304, 22637.00
1272.377, 22805.00
1273.450, 23046.00
1274.522, 22887.00
1275.594, 22943.00
1276.666, 22865.00
1277.738, 22792.00
1278.810, 22854.00
1279.882, 23014.00
1280.953, 22884.00
1282.025, 22860.00
1283.096, 23002.00
1284.167, 22979.00
1285.238, 23015.00
1286.308, 23063.00
1287.379, 23102.00
1288.449, 23132.00
1289.519, 22991.00
1290.589, 22961.00
1291.659, 23012.00
1292.729, 22969.64
1293.798, 23195.00
1294.868, 23040.00
1295.937, 23157.00
1297.006, 23252.00
1298.075, 23099.00
1299.143, 23182.00
1300.212, 23241.00
1301.280, 23319.00
1302.348, 23313.00
1303.416, 23205.00
1304.484, 23260.00
1305.552, 23404.00
1306.620, 23319.00
1307.687, 23450.00
1308.754, 23376.00
1309.821, 23451.00
1310.888, 23397.00
1311.955, 23419.00
1313.021, 23405.00
1314.088, 23350.00
1315.154, 23376.00
1316.220, 23391.00
1317.286, 23474.00
1318.352, 23509.00
1319.417, 23529.00
1320.483, 23542.00
1321.548, 23588.00
1322.613, 23641.00
1323.678, 23553.00
1324.743, 23616.00
1325.807, 23736.00
1326.872, 23645.00
1327.936, 23863.00
1329.000, 23625.00
1330.064, 23808.00
1331.128, 23758.00
1332.191, 23739.00
1333.255, 23610.00
1334.318, 23822.00
1335.381, 24063.00
1336.444, 23860.00
1337.507, 23908.00
1338.569, 23610.00
1339.632, 23830.00
1340.694, 23691.00
1341.756, 23982.00
1342.818, 23913.00
1343.880, 24044.00
1344.941, 24038.00
1346.003, 23859.00
1347.064, 23888.00
1348.125, 24066.00
1349.186, 24096.00
1350.247, 24194.00
1351.308, 24224.00
1352.368, 24055.00
1353.428, 24156.00
1354.489, 24142.00
1355.549, 24051.00
1356.608, 24168.00
1357.668, 24335.00
1358.727, 24256.00
1359.787, 24311.00
1360.846, 24156.00
1361.905, 24306.00
1362.964, 24196.00
1364.022, 24331.00
1365.081, 24349.00
1366.139, 24228.00
1367.197, 24423.00
1368.255, 24426.00
1369.313, 24297.00
1370.371, 24361.00
1371.428, 24526.00
1372.486, 24444.00
1373.543, 24380.00
1374.600, 24563.00
1375.657, 24432.00
1376.713, 24516.00
1377.770, 24504.00
1378.826, 24564.00
1379.882, 24572.00
1380.938, 24534.00
1381.994, 24691.00
1383.050, 24652.00
1384.106, 24540.00
1385.161, 24599.00
1386.216, 24505.00
1387.271, 24643.00
1388.326, 24745.00
1389.381, 24689.11
1390.435, 24779.00
1391.490, 24639.00
1392.544, 24659.00
1393.598, 24600.00
1394.652, 24498.00
1395.705, 24962.00
1396.759, 24938.00
1397.812, 24884.00
1398.866, 24757.00
1399.919, 25006.00
1400.972, 24802.00
1402.024, 24945.00
1403.077, 24785.00
1404.129, 24778.00
1405.181, 25017.00
1406.233, 25143.00
1407.285, 24972.00
1408.337, 24955.00
1409.389, 25007.00
1410.440, 25105.00
1411.491, 24931.00
1412.542, 25317.00
1413.593, 25118.00
1414.644, 25186.00
1415.695, 25009.00
1416.745, 24975.00
1417.795, 25135.00
1418.845, 25221.00
1419.895, 25217.00
1420.945, 25243.00
1421.995, 25380.00
1423.044, 25349.00
1424.093, 25324.00
1425.142, 25286.00
1426.191, 25182.00
1427.240, 25429.00
1428.289, 25261.00
1429.337, 25469.00
1430.385, 25585.00
1431.433, 25401.00
1432.481, 25643.00
1433.529, 25438.00
1434.577, 25540.00
1435.624, 25482.00
1436.672, 25567.00
1437.719, 25401.00
1438.766, 25648.00
1439.812, 25590.00
1440.859, 25562.00
1441.905, 25654.00
1442.952, 25708.00
1443.998, 25753.00
1445.044, 25780.00
1446.090, 25827.00
1447.135, 25965.00
1448.181, 25799.00
1449.226, 25741.00
1450.271, 25622.00
1451.316, 25785.00
1452.361, 25837.00
1453.405, 25800.00
1454.450, 25675.00
1455.494, 25884.00
1456.538, 25925.00
1457.582, 25783.00
1458.626, 25757.00
1459.670, 25863.00
1460.713, 25858.00
1461.757, 25914.00
1462.800, 25831.00
1463.843, 25941.00
1464.886, 26075.00
1465.928, 26293.00
1466.971, 25921.00
1468.013, 26245.00
1469.055, 25872.00
1470.097, 26043.00
1471.139, 25837.00
1472.181, 26042.00
1473.222, 26123.00
1474.263, 26145.00
1475.305, 26256.13
1476.346, 26275.51
1477.386, 26363.00
1478.427, 26350.00
1479.468, 26405.00
1480.508, 26465.00
1481.548, 26294.00
1482.588, 26335.00
1483.628, 26430.00
1484.668, 26540.00
1485.707, 26628.00
1486.747, 26631.00
1487.786, 26640.00
1488.825, 26766.00
1489.864, 26537.00
1490.902, 26625.00
1491.941, 26560.00
1492.979, 26811.00
1494.017, 26568.00
1495.055, 26739.00
1496.093, 26673.00
1497.131, 26699.00
1498.168, 26512.00
1499.206, 26877.00
1500.243, 26816.00
1501.280, 26818.00
1502.317, 26961.00
1503.354, 26775.00
1504.390, 26802.00
1505.426, 27122.00
1506.463, 26765.00
1507.499, 26876.00
1508.535, 26899.00
1509.570, 26889.00
1510.606, 26861.00
1511.641, 26921.00
1512.676, 26931.81
1513.711, 26969.00
1514.746, 27008.00
1515.781, 27085.00
1516.816, 27108.00
1517.850, 27224.00
1518.884, 26970.00
1519.918, 27070.00
1520.952, 27285.00
1521.986, 26973.00
1523.019, 27327.00
1524.053, 27229.00
1525.086, 27317.00
1526.119, 27387.00
1527.152, 27361.00
1528.185, 27407.00
1529.217, 27395.00
1530.250, 27426.00
1531.282, 27322.00
1532.314, 27296.00
1533.346, 27439.00
1534.377, 27455.00
1535.409, 27308.00
1536.440, 27446.00
1537.472, 27588.00
1538.503, 27409.00
1539.534, 27608.00
1540.564, 27425.00
1541.595, 27541.00
1542.625, 27706.00
1543.656, 27400.00
1544.686, 27851.00
1545.716, 27569.00
1546.745, 27505.00
1547.775, 27880.00
1548.804, 27634.00
1549.834, 28008.00
1550.863, 27603.00
1551.892, 27649.00
1552.920, 27590.00
1553.949, 27625.00
1554.977, 27680.77
1556.006, 27686.00
1557.034, 27796.00
1558.062, 27947.00
1559.089, 27958.00
1560.117, 27972.00
1561.144, 28010.94
1562.172, 28011.00
1563.199, 28010.00
1564.226, 27999.00
1565.252, 28009.00
1566.279, 28181.00
1567.305, 27897.00
1568.332, 28060.00
1569.358, 28148.00
1570.384, 28423.00
##END=



