##NAMES=Baryte
##RRUFFID=R050335
##IDEAL CHEMISTRY=BaS^6+^O_4_
##LOCALITY=Bullion Mountains, San Bernardino County, California, USA
##OWNER=RRUFF
##SOURCE=California Institute of Technology
##DESCRIPTION=Colorless cleavage fragment
##STATUS=The identification of this mineral has been confirmed by X-ray diffraction and chemical analysis
##URL=rruff.info/R050335
##MEASURED CHEMISTRY=(Ba_0.95_Sr_0.05_)_Î£=1_S_1.00_O_4_
##PIN_ID=M00253
##ORIENTATION=Laser parallel to -b* (0 -1 0). Fiducial mark perpendicular to laser is parallel to -c [0 0 -1]
93.48000, 6763.000
94.71400, 6775.000
95.94800, 6809.000
97.18200, 6675.000
98.41600, 6851.000
99.64900, 6837.000
100.8830, 7038.000
102.1160, 7043.000
103.3490, 7031.000
104.5820, 7171.000
105.8150, 7210.000
107.0470, 7236.000
108.2800, 7264.000
109.5120, 7369.000
110.7440, 7323.000
111.9760, 7277.000
113.2080, 7408.000
114.4400, 7453.000
115.6710, 7491.000
116.9030, 7514.000
118.1340, 7544.000
119.3650, 7669.000
120.5960, 7634.000
121.8270, 7663.000
123.0580, 7682.000
124.2880, 7834.000
125.5190, 7781.000
126.7490, 8015.000
127.9790, 8028.000
129.2090, 8087.000
130.4390, 8265.000
131.6680, 8535.000
132.8980, 8557.000
134.1270, 8811.000
135.3560, 8958.000
136.5850, 9117.000
137.8140, 9425.000
139.0430, 9677.000
140.2710, 9986.000
141.5000, 10276.00
142.7280, 10432.00
143.9560, 10536.00
145.1840, 10527.00
146.4120, 10185.00
147.6390, 9831.000
148.8670, 9599.000
150.0940, 9242.000
151.3210, 9069.000
152.5490, 8935.000
153.7750, 8905.000
155.0020, 8764.000
156.2290, 8708.000
157.4550, 8683.806
158.6810, 8647.000
159.9080, 8692.000
161.1340, 8669.000
162.3590, 8754.000
163.5850, 8597.000
164.8110, 8630.000
166.0360, 8490.000
167.2610, 8676.000
168.4860, 8576.000
169.7110, 8616.000
170.9360, 8625.000
172.1610, 8526.000
173.3850, 8625.000
174.6100, 8609.000
175.8340, 8644.000
177.0580, 8645.000
178.2820, 8674.000
179.5050, 8692.000
180.7290, 8738.000
181.9520, 8857.000
183.1760, 8862.000
184.3990, 8798.000
185.6220, 8983.000
186.8450, 8957.000
188.0670, 9132.000
189.2900, 9167.000
190.5120, 9284.000
191.7340, 9385.000
192.9560, 9382.000
194.1780, 9330.000
195.4000, 9345.000
196.6220, 9354.000
197.8430, 9263.000
199.0640, 9215.000
200.2860, 9065.000
201.5070, 9174.000
202.7270, 9090.000
203.9480, 8979.000
205.1690, 8980.000
206.3890, 8932.000
207.6090, 8945.000
208.8290, 8979.000
210.0490, 8865.000
211.2690, 9100.000
212.4890, 9026.000
213.7080, 9054.000
214.9280, 8982.000
216.1470, 8999.907
217.3660, 8996.924
218.5850, 9056.000
219.8030, 9001.000
221.0220, 9085.000
222.2400, 9078.000
223.4590, 9052.000
224.6770, 9089.469
225.8950, 9025.000
227.1120, 9091.000
228.3300, 9103.000
229.5480, 9083.000
230.7650, 9196.000
231.9820, 9184.000
233.1990, 9248.000
234.4160, 9198.000
235.6330, 9260.000
236.8490, 9147.000
238.0660, 9232.000
239.2820, 9268.000
240.4980, 9186.000
241.7140, 9280.000
242.9300, 9290.000
244.1460, 9367.000
245.3610, 9185.000
246.5770, 9397.000
247.7920, 9336.000
249.0070, 9471.000
250.2220, 9305.000
251.4370, 9385.000
252.6510, 9481.000
253.8660, 9418.000
255.0800, 9573.000
256.2940, 9658.000
257.5080, 9388.000
258.7220, 9491.000
259.9360, 9495.000
261.1490, 9490.000
262.3630, 9516.000
263.5760, 9536.438
264.7890, 9547.000
266.0020, 9587.000
267.2150, 9620.000
268.4270, 9616.000
269.6400, 9644.858
270.8520, 9734.000
272.0640, 9712.000
273.2760, 9773.026
274.4880, 9764.000
275.7000, 9850.000
276.9120, 9836.000
278.1230, 9879.000
279.3340, 9892.000
280.5450, 9908.659
281.7560, 9919.000
282.9670, 9925.000
284.1780, 9967.000
285.3880, 9921.000
286.5980, 9870.000
287.8090, 9910.000
289.0190, 9801.000
290.2290, 9922.000
291.4380, 9894.000
292.6480, 10001.00
293.8570, 10051.00
295.0670, 9890.000
296.2760, 10036.00
297.4850, 9966.000
298.6930, 9948.000
299.9020, 9956.000
301.1110, 9940.000
302.3190, 9992.000
303.5270, 10101.00
304.7350, 10036.00
305.9430, 10086.00
307.1510, 10011.00
308.3580, 10102.00
309.5660, 10161.00
310.7730, 10077.00
311.9800, 10120.00
313.1870, 10211.00
314.3940, 10224.00
315.6010, 10291.00
316.8070, 10128.00
318.0130, 10149.00
319.2200, 10072.00
320.4260, 10366.00
321.6310, 10253.00
322.8370, 10360.00
324.0430, 10447.00
325.2480, 10245.00
326.4540, 10384.00
327.6590, 10259.00
328.8640, 10337.00
330.0680, 10354.00
331.2730, 10358.00
332.4780, 10287.00
333.6820, 10364.00
334.8860, 10387.00
336.0900, 10473.00
337.2940, 10530.00
338.4980, 10431.00
339.7010, 10414.00
340.9050, 10539.00
342.1080, 10438.00
343.3110, 10491.00
344.5140, 10637.00
345.7170, 10628.00
346.9200, 10536.00
348.1220, 10601.00
349.3240, 10622.00
350.5270, 10547.00
351.7290, 10585.00
352.9310, 10575.00
354.1320, 10659.00
355.3340, 10642.00
356.5350, 10762.00
357.7370, 10754.00
358.9380, 10834.00
360.1390, 10752.00
361.3400, 10827.00
362.5400, 10735.00
363.7410, 10752.00
364.9410, 10753.00
366.1410, 10713.00
367.3410, 10848.00
368.5410, 10858.00
369.7410, 10891.00
370.9400, 10805.00
372.1400, 10867.00
373.3390, 10945.00
374.5380, 10967.00
375.7370, 11068.00
376.9360, 10994.00
378.1350, 11051.00
379.3330, 10907.00
380.5310, 10937.00
381.7300, 10966.00
382.9280, 11123.00
384.1260, 11090.00
385.3230, 11175.99
386.5210, 11224.00
387.7180, 11257.00
388.9160, 11134.00
390.1130, 11122.00
391.3100, 11267.00
392.5060, 11240.00
393.7030, 11331.00
394.9000, 11347.00
396.0960, 11325.00
397.2920, 11481.00
398.4880, 11327.00
399.6840, 11314.00
400.8800, 11344.00
402.0750, 11244.00
403.2710, 11440.00
404.4660, 11341.00
405.6610, 11316.00
406.8560, 11391.00
408.0510, 11323.00
409.2450, 11383.00
410.4400, 11356.00
411.6340, 11402.00
412.8280, 11412.00
414.0220, 11512.00
415.2160, 11296.00
416.4100, 11548.00
417.6030, 11404.00
418.7970, 11390.00
419.9900, 11488.00
421.1830, 11465.00
422.3760, 11574.00
423.5690, 11465.00
424.7610, 11489.00
425.9540, 11593.00
427.1460, 11598.00
428.3380, 11691.00
429.5300, 11730.69
430.7220, 11785.00
431.9140, 11784.00
433.1050, 11853.00
434.2970, 11809.00
435.4880, 11949.00
436.6790, 11987.00
437.8700, 12105.00
439.0610, 12218.00
440.2510, 12447.13
441.4420, 12755.00
442.6320, 12998.00
443.8220, 13311.00
445.0120, 13622.00
446.2020, 14197.00
447.3910, 14531.00
448.5810, 15496.00
449.7700, 16079.00
450.9600, 16766.00
452.1490, 17539.00
453.3370, 17930.00
454.5260, 18042.00
455.7150, 17456.00
456.9030, 16428.00
458.0910, 15470.00
459.2800, 14763.00
460.4670, 14227.00
461.6550, 13648.00
462.8430, 13453.00
464.0300, 13180.00
465.2180, 12888.00
466.4050, 12666.00
467.5920, 12472.00
468.7790, 12428.00
469.9650, 12231.00
471.1520, 12402.00
472.3380, 12319.00
473.5250, 12178.00
474.7110, 12281.00
475.8970, 12256.00
477.0820, 12304.00
478.2680, 12263.00
479.4540, 12231.00
480.6390, 12266.00
481.8240, 12251.63
483.0090, 12282.00
484.1940, 12288.00
485.3780, 12292.00
486.5630, 12320.00
487.7470, 12265.00
488.9320, 12334.00
490.1160, 12216.00
491.3000, 12423.00
492.4830, 12229.00
493.6670, 12444.00
494.8500, 12421.00
496.0340, 12362.00
497.2170, 12458.00
498.4000, 12361.00
499.5820, 12477.00
500.7650, 12535.00
501.9480, 12582.00
503.1300, 12507.00
504.3120, 12562.00
505.4940, 12565.00
506.6760, 12664.00
507.8580, 12578.00
509.0390, 12725.00
510.2210, 12610.00
511.4020, 12739.00
512.5830, 12690.00
513.7640, 12828.00
514.9450, 12633.00
516.1250, 12746.00
517.3060, 12790.00
518.4860, 12758.00
519.6660, 12826.00
520.8460, 12804.00
522.0260, 12856.00
523.2060, 12773.00
524.3850, 12747.00
525.5650, 12937.00
526.7440, 12829.00
527.9230, 12853.00
529.1020, 13053.00
530.2810, 12789.00
531.4590, 12840.00
532.6380, 12889.00
533.8160, 12917.00
534.9940, 12784.00
536.1720, 12959.00
537.3500, 13018.00
538.5270, 12849.00
539.7050, 12984.00
540.8820, 12994.00
542.0590, 12962.00
543.2360, 12917.00
544.4130, 13050.00
545.5900, 13092.00
546.7660, 13112.00
547.9430, 13104.00
549.1190, 13030.00
550.2950, 13092.00
551.4710, 13074.00
552.6470, 13168.00
553.8220, 13184.00
554.9980, 13208.67
556.1730, 13096.00
557.3480, 13200.00
558.5230, 13251.00
559.6980, 13126.00
560.8730, 13202.00
562.0470, 13401.00
563.2220, 13167.00
564.3960, 13299.00
565.5700, 13248.00
566.7440, 13177.00
567.9170, 13186.00
569.0910, 13350.00
570.2640, 13223.00
571.4380, 13249.00
572.6110, 13159.00
573.7840, 13370.00
574.9570, 13295.00
576.1290, 13409.00
577.3020, 13506.00
578.4740, 13341.00
579.6460, 13370.00
580.8180, 13432.00
581.9900, 13523.00
583.1620, 13456.00
584.3330, 13455.00
585.5040, 13493.00
586.6760, 13672.00
587.8470, 13649.00
589.0180, 13488.00
590.1880, 13326.00
591.3590, 13649.00
592.5290, 13599.00
593.7000, 13653.00
594.8700, 13657.00
596.0400, 13607.00
597.2090, 13652.00
598.3790, 13744.00
599.5490, 13802.00
600.7180, 13824.00
601.8870, 13834.84
603.0560, 13917.00
604.2250, 13783.00
605.3940, 13920.00
606.5620, 13881.00
607.7300, 13975.00
608.8990, 14033.00
610.0670, 14120.00
611.2350, 14247.25
612.4020, 14356.00
613.5700, 14532.00
614.7370, 14690.00
615.9050, 14867.00
617.0720, 15034.00
618.2390, 15202.00
619.4060, 14895.00
620.5720, 14971.00
621.7390, 15007.00
622.9050, 14670.00
624.0710, 14692.00
625.2370, 14731.00
626.4030, 14754.00
627.5690, 14794.00
628.7340, 14790.00
629.9000, 15135.00
631.0650, 15272.00
632.2300, 15290.00
633.3950, 15357.00
634.5600, 15359.17
635.7240, 15227.00
636.8890, 15305.00
638.0530, 15208.00
639.2170, 15150.00
640.3810, 15690.00
641.5450, 15596.00
642.7080, 15748.00
643.8720, 15850.00
645.0350, 16096.00
646.1980, 16242.00
647.3610, 16559.00
648.5240, 16869.00
649.6870, 16675.00
650.8490, 16481.00
652.0120, 15970.00
653.1740, 15601.00
654.3360, 15217.00
655.4980, 14973.42
656.6600, 14970.00
657.8210, 14667.00
658.9830, 14625.00
660.1440, 14624.00
661.3050, 14416.00
662.4660, 14571.00
663.6270, 14455.00
664.7870, 14505.00
665.9480, 14653.00
667.1080, 14572.00
668.2680, 14480.00
669.4280, 14637.00
670.5880, 14603.00
671.7480, 14695.00
672.9070, 14511.00
674.0670, 14609.00
675.2260, 14781.00
676.3850, 14585.00
677.5440, 14601.00
678.7030, 14650.00
679.8610, 14782.00
681.0200, 14763.00
682.1780, 14809.00
683.3360, 14830.00
684.4940, 14798.39
685.6520, 14851.00
686.8090, 14777.00
687.9670, 14751.00
689.1240, 14819.00
690.2810, 14816.00
691.4380, 14754.00
692.5950, 14757.00
693.7520, 14993.00
694.9080, 14838.00
696.0650, 15012.00
697.2210, 14947.00
698.3770, 14806.00
699.5330, 14852.00
700.6880, 15032.00
701.8440, 15001.00
702.9990, 15031.00
704.1550, 14909.00
705.3100, 14999.00
706.4650, 14974.00
707.6190, 15207.00
708.7740, 14939.00
709.9290, 15063.00
711.0830, 14991.00
712.2370, 15217.00
713.3910, 15166.00
714.5450, 15143.00
715.6980, 15191.00
716.8520, 15151.00
718.0050, 15220.00
719.1580, 15213.00
720.3110, 15142.00
721.4640, 15231.00
722.6170, 15233.00
723.7700, 15245.00
724.9220, 15220.00
726.0740, 15296.00
727.2260, 15271.00
728.3780, 15335.00
729.5300, 15315.00
730.6810, 15364.00
731.8330, 15406.00
732.9840, 15363.00
734.1350, 15289.00
735.2860, 15356.00
736.4370, 15475.00
737.5880, 15634.00
738.7380, 15400.00
739.8880, 15309.00
741.0390, 15556.00
742.1890, 15404.00
743.3380, 15638.00
744.4880, 15596.00
745.6380, 15528.00
746.7870, 15361.00
747.9360, 15503.00
749.0850, 15465.00
750.2340, 15720.00
751.3830, 15742.00
752.5310, 15566.00
753.6800, 15488.00
754.8280, 15641.00
755.9760, 15642.00
757.1240, 15633.00
758.2720, 15607.00
759.4190, 15621.00
760.5670, 15633.65
761.7140, 15866.00
762.8610, 15693.00
764.0080, 15785.00
765.1550, 15833.00
766.3020, 15709.00
767.4480, 15869.00
768.5950, 15757.00
769.7410, 15863.00
770.8870, 16065.00
772.0330, 15929.00
773.1780, 15811.00
774.3240, 15950.00
775.4690, 15789.00
776.6140, 15882.00
777.7590, 15799.00
778.9040, 15942.00
780.0490, 15906.00
781.1940, 15957.00
782.3380, 15910.00
783.4820, 15896.09
784.6260, 15977.00
785.7700, 15946.00
786.9140, 15897.00
788.0580, 16153.00
789.2010, 16058.00
790.3450, 16177.00
791.4880, 16026.00
792.6310, 16182.00
793.7730, 16224.00
794.9160, 16159.00
796.0590, 15997.00
797.2010, 16199.00
798.3430, 16110.00
799.4850, 16214.00
800.6270, 16090.00
801.7690, 16313.00
802.9100, 16237.00
804.0520, 16247.00
805.1930, 16373.00
806.3340, 16401.00
807.4750, 16310.00
808.6160, 16363.00
809.7560, 16347.68
810.8970, 16315.00
812.0370, 16378.00
813.1770, 16382.00
814.3170, 16428.00
815.4570, 16449.00
816.5960, 16493.00
817.7360, 16506.00
818.8750, 16528.88
820.0140, 16521.58
821.1530, 16523.00
822.2920, 16502.00
823.4310, 16413.00
824.5690, 16426.00
825.7070, 16516.00
826.8460, 16461.00
827.9840, 16592.00
829.1220, 16567.00
830.2590, 16668.00
831.3970, 16617.00
832.5340, 16725.00
833.6710, 16683.00
834.8080, 16736.00
835.9450, 16833.00
837.0820, 16642.00
838.2190, 16636.00
839.3550, 16779.00
840.4910, 16794.00
841.6270, 16672.00
842.7630, 16822.00
843.8990, 16883.00
845.0350, 16747.00
846.1700, 16940.00
847.3060, 16922.00
848.4410, 16957.00
849.5760, 16962.00
850.7100, 16992.00
851.8450, 17027.23
852.9800, 17166.00
854.1140, 17063.00
855.2480, 17097.00
856.3820, 17027.00
857.5160, 16980.00
858.6500, 17014.00
859.7830, 17038.00
860.9170, 17066.39
862.0500, 17155.00
863.1830, 17127.00
864.3160, 17110.00
865.4480, 17046.00
866.5810, 17222.00
867.7130, 17111.00
868.8460, 17192.00
869.9780, 17161.00
871.1100, 17218.00
872.2410, 17195.00
873.3730, 17264.00
874.5050, 17274.00
875.6360, 17257.00
876.7670, 17379.00
877.8980, 17186.00
879.0290, 17324.00
880.1590, 17276.00
881.2900, 17268.00
882.4200, 17388.00
883.5500, 17408.00
884.6800, 17316.00
885.8100, 17409.00
886.9400, 17485.00
888.0690, 17304.00
889.1990, 17451.00
890.3280, 17624.00
891.4570, 17477.00
892.5860, 17523.00
893.7140, 17370.00
894.8430, 17518.00
895.9710, 17485.00
897.1000, 17600.00
898.2280, 17621.00
899.3560, 17525.00
900.4830, 17710.00
901.6110, 17779.00
902.7380, 17615.00
903.8660, 17814.00
904.9930, 17620.00
906.1200, 17663.00
907.2460, 17646.00
908.3730, 17728.00
909.5000, 17657.00
910.6260, 17910.00
911.7520, 17783.00
912.8780, 17782.00
914.0040, 17897.00
915.1290, 17765.00
916.2550, 17869.00
917.3800, 17925.00
918.5050, 18001.00
919.6300, 17938.00
920.7550, 17801.00
921.8800, 18118.00
923.0040, 17974.00
924.1290, 18115.00
925.2530, 17975.00
926.3770, 17989.00
927.5010, 18262.00
928.6250, 18058.00
929.7480, 18182.00
930.8720, 17938.00
931.9950, 17969.00
933.1180, 18028.00
934.2410, 18113.00
935.3640, 17880.00
936.4860, 18136.00
937.6090, 18146.00
938.7310, 18335.00
939.8530, 18090.00
940.9750, 18203.00
942.0970, 18186.00
943.2180, 18177.00
944.3400, 18245.00
945.4610, 18301.00
946.5820, 18336.00
947.7030, 18304.00
948.8240, 18374.00
949.9450, 18345.00
951.0650, 18352.64
952.1860, 18411.00
953.3060, 18321.00
954.4260, 18357.00
955.5460, 18289.00
956.6650, 18514.00
957.7850, 18358.00
958.9040, 18538.00
960.0230, 18529.00
961.1420, 18605.00
962.2610, 18453.00
963.3800, 18727.00
964.4990, 18665.00
965.6170, 18729.00
966.7350, 18834.00
967.8530, 18822.00
968.9710, 18979.00
970.0890, 19060.00
971.2070, 19013.00
972.3240, 19112.00
973.4410, 19079.00
974.5580, 19352.00
975.6750, 19315.00
976.7920, 19553.00
977.9090, 19621.00
979.0250, 20322.00
980.1410, 20786.00
981.2580, 21811.00
982.3740, 23437.00
983.4890, 25969.00
984.6050, 28999.00
985.7200, 32388.00
986.8360, 37248.00
987.9510, 44254.00
989.0660, 52101.00
990.1810, 56803.00
991.2950, 51736.00
992.4100, 40267.00
993.5240, 30349.00
994.6390, 24748.00
995.7530, 22356.00
996.8660, 20894.00
997.9800, 20541.00
999.0940, 20141.00
1000.207, 19785.00
1001.320, 19864.00
1002.433, 19764.00
1003.546, 19534.00
1004.659, 19697.00
1005.772, 19614.00
1006.884, 19546.00
1007.996, 19308.00
1009.108, 19438.00
1010.220, 19452.00
1011.332, 19678.00
1012.444, 19526.00
1013.555, 19446.00
1014.666, 19392.00
1015.777, 19443.00
1016.888, 19498.00
1017.999, 19453.45
1019.110, 19434.00
1020.220, 19424.00
1021.331, 19528.00
1022.441, 19547.00
1023.551, 19542.00
1024.661, 19357.00
1025.770, 19489.00
1026.880, 19395.00
1027.989, 19680.00
1029.098, 19436.00
1030.207, 19730.00
1031.316, 19542.00
1032.425, 19587.00
1033.533, 19711.00
1034.642, 19807.00
1035.750, 19598.00
1036.858, 19465.00
1037.966, 19675.00
1039.073, 19715.00
1040.181, 19863.00
1041.288, 19738.00
1042.396, 19734.00
1043.503, 19670.00
1044.610, 19679.00
1045.716, 19762.00
1046.823, 19807.00
1047.929, 19897.00
1049.036, 19810.00
1050.142, 19904.00
1051.248, 19939.00
1052.353, 19954.00
1053.459, 19776.00
1054.564, 19865.00
1055.670, 19890.00
1056.775, 20035.00
1057.880, 20115.00
1058.985, 20020.00
1060.089, 20040.00
1061.194, 20042.00
1062.298, 20029.00
1063.402, 20168.00
1064.506, 20018.00
1065.610, 20018.00
1066.713, 20260.00
1067.817, 20165.00
1068.920, 20092.00
1070.023, 20079.00
1071.126, 20184.00
1072.229, 20118.00
1073.332, 20242.00
1074.435, 20196.00
1075.537, 20266.00
1076.639, 20373.00
1077.741, 20414.00
1078.843, 20416.00
1079.945, 20609.00
1081.046, 20431.00
1082.148, 20398.00
1083.249, 20649.00
1084.350, 20790.00
1085.451, 20860.00
1086.551, 20933.00
1087.652, 21130.00
1088.752, 20631.00
1089.853, 20769.00
1090.953, 20577.00
1092.053, 20731.00
1093.152, 20603.00
1094.252, 20879.00
1095.351, 20554.00
1096.451, 20855.00
1097.550, 21038.00
1098.649, 20960.00
1099.748, 20876.00
1100.846, 21162.00
1101.945, 21178.00
1103.043, 21562.00
1104.141, 21389.00
1105.239, 21497.00
1106.337, 21201.00
1107.434, 21323.00
1108.532, 21137.00
1109.629, 21286.00
1110.726, 20942.00
1111.823, 20911.00
1112.920, 21039.00
1114.017, 20881.00
1115.113, 20877.00
1116.210, 21126.00
1117.306, 21005.00
1118.402, 21013.00
1119.498, 21082.00
1120.593, 21156.00
1121.689, 21164.00
1122.784, 21226.00
1123.879, 21446.00
1124.974, 21128.00
1126.069, 21433.00
1127.164, 21434.00
1128.259, 21347.00
1129.353, 21509.00
1130.447, 21654.00
1131.541, 21461.00
1132.635, 21756.00
1133.729, 21825.00
1134.822, 22226.00
1135.916, 22438.00
1137.009, 22811.00
1138.102, 23209.00
1139.195, 23748.00
1140.288, 23898.00
1141.380, 24058.00
1142.473, 24199.00
1143.565, 23978.00
1144.657, 24055.00
1145.749, 23721.00
1146.841, 23546.00
1147.932, 23278.00
1149.024, 23069.00
1150.115, 22846.00
1151.206, 22469.00
1152.297, 22421.00
1153.388, 22140.00
1154.479, 22116.00
1155.569, 22203.00
1156.659, 22066.00
1157.750, 22131.00
1158.839, 22219.00
1159.929, 21997.00
1161.019, 21976.00
1162.108, 22148.00
1163.198, 22655.00
1164.287, 22666.00
1165.376, 22647.00
1166.465, 22845.00
1167.553, 22909.00
1168.642, 23069.00
1169.730, 22964.00
1170.818, 22853.00
1171.906, 22911.00
1172.994, 22654.00
1174.082, 22727.00
1175.170, 22495.00
1176.257, 22606.00
1177.344, 22307.00
1178.431, 22146.00
1179.518, 22264.00
1180.605, 22200.00
1181.691, 22178.00
1182.778, 22089.00
1183.864, 22184.00
1184.950, 22036.00
1186.036, 21832.00
1187.122, 21981.00
1188.207, 22249.00
1189.292, 22289.00
1190.378, 22125.00
1191.463, 22047.00
1192.548, 22165.00
1193.632, 22282.00
1194.717, 22417.00
1195.801, 22079.00
1196.886, 22247.00
1197.970, 22211.00
1199.054, 22436.00
1200.137, 22284.00
1201.221, 22387.00
1202.305, 22270.00
1203.388, 22486.00
1204.471, 22114.00
1205.554, 22069.00
1206.637, 22084.00
1207.719, 22239.00
1208.802, 22419.00
1209.884, 22290.00
1210.966, 22549.00
1212.048, 22342.00
1213.130, 22460.00
1214.212, 22623.00
1215.293, 22612.00
1216.374, 22517.00
1217.456, 22503.00
1218.536, 22586.00
1219.617, 22588.00
1220.698, 22529.00
1221.778, 22677.00
1222.859, 22686.00
1223.939, 22535.00
1225.019, 22574.00
1226.099, 22734.00
1227.178, 22782.00
1228.258, 22944.00
1229.337, 22977.28
1230.417, 22706.00
1231.496, 22936.00
1232.574, 22835.00
1233.653, 22559.00
1234.732, 22775.00
1235.810, 22617.00
1236.888, 22548.00
1237.966, 22808.00
1239.044, 22973.00
1240.122, 22760.00
1241.199, 23197.00
1242.277, 22993.00
1243.354, 22863.00
1244.431, 22963.00
1245.508, 22959.00
1246.585, 23061.00
1247.661, 23032.00
1248.738, 23046.00
1249.814, 23040.00
1250.890, 23062.54
1251.966, 23065.00
1253.042, 23107.00
1254.117, 23036.00
1255.193, 23014.00
1256.268, 22993.13
1257.343, 23103.00
1258.418, 23080.29
1259.493, 23173.00
1260.567, 23132.00
1261.642, 23229.00
1262.716, 23261.00
1263.790, 23283.00
1264.864, 23375.00
1265.938, 23379.00
1267.011, 23396.00
1268.085, 23425.00
1269.158, 23312.00
1270.231, 23267.00
1271.304, 23293.00
1272.377, 23407.00
1273.450, 23374.00
1274.522, 23295.00
1275.594, 23525.00
1276.666, 23471.00
1277.738, 23470.00
1278.810, 23583.00
1279.882, 23398.00
1280.953, 23463.00
1282.025, 23489.00
1283.096, 23643.00
1284.167, 23650.07
1285.238, 23570.00
1286.308, 23715.00
1287.379, 23704.00
1288.449, 23704.00
1289.519, 23597.00
1290.589, 23846.00
1291.659, 23613.00
1292.729, 23913.00
1293.798, 23659.00
1294.868, 23724.00
1295.937, 23855.00
1297.006, 23711.00
1298.075, 23681.00
1299.143, 23940.00
1300.212, 23866.00
1301.280, 23838.00
1302.348, 23862.00
1303.416, 23894.00
1304.484, 23976.00
1305.552, 23983.00
1306.620, 24077.00
1307.687, 24078.94
1308.754, 23942.00
1309.821, 24125.00
1310.888, 24048.00
1311.955, 24126.00
1313.021, 24199.00
1314.088, 24275.00
1315.154, 24128.00
1316.220, 24175.00
1317.286, 24121.00
1318.352, 24234.00
1319.417, 24168.00
1320.483, 24058.00
1321.548, 24169.00
1322.613, 24194.00
1323.678, 24128.00
1324.743, 24448.00
1325.807, 24168.00
1326.872, 24303.00
1327.936, 24116.00
1329.000, 24411.00
1330.064, 24292.00
1331.128, 24221.00
1332.191, 24334.00
1333.255, 24224.00
1334.318, 24535.00
1335.381, 24446.00
1336.444, 24471.00
1337.507, 24659.00
1338.569, 24488.00
1339.632, 24498.00
1340.694, 24348.00
1341.756, 24380.00
1342.818, 24513.00
1343.880, 24300.00
1344.941, 24565.00
1346.003, 24521.00
1347.064, 24559.00
1348.125, 24598.00
1349.186, 24599.00
1350.247, 24555.00
1351.308, 24751.00
1352.368, 24664.00
1353.428, 24790.00
1354.489, 24683.00
1355.549, 24624.00
1356.608, 24457.00
1357.668, 24560.99
1358.727, 24828.00
1359.787, 24749.00
1360.846, 24785.00
1361.905, 24845.00
1362.964, 24932.00
1364.022, 24862.00
1365.081, 25087.00
1366.139, 24980.00
1367.197, 24740.00
1368.255, 24909.00
1369.313, 24683.00
1370.371, 25028.00
1371.428, 25074.00
1372.486, 24979.00
1373.543, 25095.00
1374.600, 24982.00
1375.657, 25119.00
1376.713, 25180.00
1377.770, 24995.00
1378.826, 24978.00
1379.882, 24935.00
1380.938, 25118.00
1381.994, 25015.00
1383.050, 25333.00
1384.106, 25080.00
1385.161, 25223.00
1386.216, 25391.00
1387.271, 25366.00
1388.326, 25403.28
1389.381, 25286.00
1390.435, 25309.00
1391.490, 25346.00
1392.544, 25285.00
1393.598, 25315.09
1394.652, 25311.00
1395.705, 25296.00
1396.759, 25249.00
1397.812, 25205.00
1398.866, 25208.82
1399.919, 25462.00
1400.972, 25305.00
1402.024, 25436.00
1403.077, 25698.00
1404.129, 25488.00
1405.181, 25479.00
1406.233, 25760.00
1407.285, 25626.00
1408.337, 25412.00
1409.389, 25568.00
1410.440, 25649.00
1411.491, 25533.00
1412.542, 25696.00
1413.593, 25608.00
1414.644, 25814.00
1415.695, 25839.00
1416.745, 25702.00
1417.795, 25689.00
1418.845, 25503.00
1419.895, 25719.00
1420.945, 25651.00
1421.995, 25841.00
1423.044, 25895.00
1424.093, 25656.00
1425.142, 25723.00
1426.191, 25824.00
1427.240, 25736.00
1428.289, 25928.00
1429.337, 26036.00
1430.385, 25990.00
1431.433, 25857.00
1432.481, 25999.00
1433.529, 26054.00
1434.577, 26127.00
1435.624, 25928.00
1436.672, 26026.00
1437.719, 26153.00
1438.766, 25962.00
1439.812, 26134.00
1440.859, 26181.00
1441.905, 26373.00
1442.952, 26149.00
1443.998, 26266.00
1445.044, 26284.00
1446.090, 26344.00
1447.135, 26284.00
1448.181, 26386.00
1449.226, 26364.00
1450.271, 26238.00
1451.316, 26294.00
1452.361, 26409.00
1453.405, 26362.00
1454.450, 26425.00
1455.494, 26351.00
1456.538, 26534.00
1457.582, 26504.00
1458.626, 26425.00
1459.670, 26706.00
1460.713, 26726.00
1461.757, 26410.00
1462.800, 26777.00
1463.843, 26517.00
1464.886, 26599.00
1465.928, 26578.00
1466.971, 26870.00
1468.013, 26626.00
1469.055, 26679.00
1470.097, 26719.00
1471.139, 26657.00
1472.181, 26851.00
1473.222, 26901.00
1474.263, 26796.00
1475.305, 26771.00
1476.346, 26786.00
1477.386, 26797.00
1478.427, 26937.00
1479.468, 26841.00
1480.508, 26939.00
1481.548, 26762.00
1482.588, 26818.00
1483.628, 27147.00
1484.668, 27103.00
1485.707, 26981.00
1486.747, 27122.00
1487.786, 27064.00
1488.825, 27110.00
1489.864, 27189.00
1490.902, 27167.00
1491.941, 27195.15
1492.979, 27180.20
1494.017, 27201.00
1495.055, 27205.71
1496.093, 27176.00
1497.131, 27213.00
1498.168, 27205.00
1499.206, 27197.00
1500.243, 27044.00
1501.280, 27195.00
1502.317, 27238.00
1503.354, 27445.00
1504.390, 27323.00
1505.426, 27479.00
1506.463, 27293.00
1507.499, 27386.00
1508.535, 27440.00
1509.570, 27423.00
1510.606, 27541.00
1511.641, 27466.00
1512.676, 27518.00
1513.711, 27501.00
1514.746, 27564.00
1515.781, 27427.00
1516.816, 27472.00
1517.850, 27684.00
1518.884, 27528.00
1519.918, 27647.00
1520.952, 27620.00
1521.986, 27548.00
1523.019, 27721.00
1524.053, 27727.00
1525.086, 27638.00
1526.119, 27777.00
1527.152, 27796.00
1528.185, 27894.00
1529.217, 27921.95
1530.250, 27959.00
1531.282, 27933.00
1532.314, 27943.00
1533.346, 27893.00
1534.377, 27798.00
1535.409, 27869.00
1536.440, 27941.00
1537.472, 28251.00
1538.503, 28028.00
1539.534, 27913.00
1540.564, 28114.00
1541.595, 27921.00
1542.625, 28187.00
1543.656, 28244.00
1544.686, 28193.00
1545.716, 28279.00
1546.745, 28156.00
1547.775, 28135.00
1548.804, 28241.00
1549.834, 28266.00
1550.863, 28323.00
1551.892, 28451.00
1552.920, 28436.00
1553.949, 28435.00
1554.977, 28298.00
1556.006, 28367.00
1557.034, 28409.00
1558.062, 28463.00
1559.089, 28454.00
1560.117, 28423.93
1561.144, 28689.00
1562.172, 28407.00
1563.199, 28379.00
1564.226, 28594.00
1565.252, 28642.00
1566.279, 28592.00
1567.305, 28629.00
1568.332, 28700.00
1569.358, 28912.00
1570.384, 28789.00
##END=



