##NAMES=Baryte
##RRUFFID=R050342
##IDEAL CHEMISTRY=BaS^6+^O_4_
##LOCALITY=Palos Verdes, Los Angeles County, California, USA
##OWNER=RRUFF
##SOURCE=California Institute of Technology
##DESCRIPTION=Light brown fragment
##STATUS=The identification of this mineral has been confirmed by X-ray diffraction and chemical analysis
##URL=rruff.info/R050342
##MEASURED CHEMISTRY=Ba_1.00_S_1.00_O_4_
##PIN_ID=L00807
##ORIENTATION=Laser parallel to b* (0 1 0). Fiducial mark perpendicular to laser is parallel to c [0 0 1]
93.48000, 6124.000
94.71400, 6306.808
95.94800, 6472.000
97.18200, 6602.000
98.41600, 6721.000
99.64900, 6772.146
100.8830, 6903.000
102.1160, 6797.000
103.3490, 6846.000
104.5820, 6805.000
105.8150, 6877.000
107.0470, 6916.000
108.2800, 6929.000
109.5120, 6913.000
110.7440, 6918.000
111.9760, 6982.000
113.2080, 6979.255
114.4400, 7066.000
115.6710, 7051.000
116.9030, 7124.000
118.1340, 7210.000
119.3650, 7226.000
120.5960, 7308.000
121.8270, 7332.000
123.0580, 7404.000
124.2880, 7368.000
125.5190, 7335.000
126.7490, 7415.000
127.9790, 7369.000
129.2090, 7460.000
130.4390, 7505.000
131.6680, 7580.000
132.8980, 7544.000
134.1270, 7645.000
135.3560, 7628.000
136.5850, 7720.000
137.8140, 7834.000
139.0430, 7803.000
140.2710, 7806.000
141.5000, 7851.000
142.7280, 7862.000
143.9560, 7826.000
145.1840, 7974.000
146.4120, 7909.000
147.6390, 7947.000
148.8670, 8086.000
150.0940, 8097.000
151.3210, 8274.000
152.5490, 8225.000
153.7750, 8214.000
155.0020, 8136.000
156.2290, 8272.000
157.4550, 8239.000
158.6810, 8224.000
159.9080, 8145.000
161.1340, 8146.000
162.3590, 8016.000
163.5850, 8227.000
164.8110, 8174.000
166.0360, 8190.000
167.2610, 8326.000
168.4860, 8146.000
169.7110, 8226.000
170.9360, 8294.000
172.1610, 8304.000
173.3850, 8351.000
174.6100, 8415.000
175.8340, 8429.000
177.0580, 8481.794
178.2820, 8433.000
179.5050, 8553.000
180.7290, 8634.000
181.9520, 8660.600
183.1760, 8550.000
184.3990, 8664.000
185.6220, 8751.000
186.8450, 8677.000
188.0670, 8791.000
189.2900, 8883.000
190.5120, 8854.000
191.7340, 8860.000
192.9560, 8812.000
194.1780, 8717.000
195.4000, 8637.000
196.6220, 8737.000
197.8430, 8642.000
199.0640, 8725.000
200.2860, 8575.000
201.5070, 8620.000
202.7270, 8714.000
203.9480, 8639.000
205.1690, 8743.000
206.3890, 8591.000
207.6090, 8692.000
208.8290, 8750.000
210.0490, 8557.000
211.2690, 8682.000
212.4890, 8689.000
213.7080, 8897.000
214.9280, 8833.000
216.1470, 8898.000
217.3660, 8874.000
218.5850, 8951.000
219.8030, 8919.000
221.0220, 8866.000
222.2400, 8825.000
223.4590, 8961.000
224.6770, 8954.000
225.8950, 8942.000
227.1120, 8957.000
228.3300, 8948.000
229.5480, 8933.000
230.7650, 8904.000
231.9820, 8920.000
233.1990, 8949.581
234.4160, 9002.000
235.6330, 9047.000
236.8490, 9066.000
238.0660, 9111.000
239.2820, 9120.000
240.4980, 9172.000
241.7140, 9118.000
242.9300, 9031.000
244.1460, 9085.000
245.3610, 9161.000
246.5770, 9097.000
247.7920, 9171.000
249.0070, 9239.000
250.2220, 9215.000
251.4370, 9248.000
252.6510, 9302.000
253.8660, 9257.000
255.0800, 9286.000
256.2940, 9225.000
257.5080, 9355.000
258.7220, 9321.000
259.9360, 9348.000
261.1490, 9260.000
262.3630, 9297.000
263.5760, 9426.000
264.7890, 9317.000
266.0020, 9450.000
267.2150, 9386.000
268.4270, 9356.000
269.6400, 9466.000
270.8520, 9509.000
272.0640, 9418.000
273.2760, 9554.000
274.4880, 9479.000
275.7000, 9484.000
276.9120, 9511.000
278.1230, 9515.000
279.3340, 9530.023
280.5450, 9590.000
281.7560, 9571.000
282.9670, 9614.000
284.1780, 9672.000
285.3880, 9674.253
286.5980, 9644.000
287.8090, 9677.000
289.0190, 9743.000
290.2290, 9654.000
291.4380, 9747.000
292.6480, 9648.000
293.8570, 9636.000
295.0670, 9853.000
296.2760, 9665.000
297.4850, 9742.000
298.6930, 9676.000
299.9020, 9700.000
301.1110, 9867.000
302.3190, 9796.000
303.5270, 9893.000
304.7350, 9716.000
305.9430, 9882.000
307.1510, 9750.000
308.3580, 9689.000
309.5660, 9816.000
310.7730, 9959.000
311.9800, 9930.000
313.1870, 9857.000
314.3940, 10119.00
315.6010, 9866.000
316.8070, 9867.000
318.0130, 10014.00
319.2200, 10113.00
320.4260, 9922.000
321.6310, 10059.00
322.8370, 10119.00
324.0430, 10012.00
325.2480, 10054.00
326.4540, 10086.00
327.6590, 10062.59
328.8640, 10084.00
330.0680, 10119.00
331.2730, 10218.00
332.4780, 10313.00
333.6820, 10214.00
334.8860, 10175.00
336.0900, 10239.00
337.2940, 10173.00
338.4980, 10142.00
339.7010, 10191.00
340.9050, 10151.00
342.1080, 10357.00
343.3110, 10308.00
344.5140, 10419.00
345.7170, 10453.27
346.9200, 10371.00
348.1220, 10451.00
349.3240, 10452.00
350.5270, 10363.00
351.7290, 10364.00
352.9310, 10351.00
354.1320, 10359.01
355.3340, 10363.00
356.5350, 10423.00
357.7370, 10485.00
358.9380, 10512.00
360.1390, 10544.40
361.3400, 10455.00
362.5400, 10544.00
363.7410, 10519.64
364.9410, 10445.00
366.1410, 10548.00
367.3410, 10531.00
368.5410, 10525.00
369.7410, 10669.00
370.9400, 10630.00
372.1400, 10651.00
373.3390, 10608.00
374.5380, 10651.00
375.7370, 10637.00
376.9360, 10789.00
378.1350, 10657.00
379.3330, 10755.00
380.5310, 10663.00
381.7300, 10722.00
382.9280, 10721.00
384.1260, 10692.00
385.3230, 10791.00
386.5210, 10641.00
387.7180, 10789.00
388.9160, 10862.00
390.1130, 10791.00
391.3100, 10753.00
392.5060, 10766.00
393.7030, 10791.00
394.9000, 10796.00
396.0960, 10844.00
397.2920, 10888.00
398.4880, 10880.00
399.6840, 10910.00
400.8800, 10984.00
402.0750, 10918.00
403.2710, 10887.00
404.4660, 10896.00
405.6610, 10953.00
406.8560, 11063.00
408.0510, 11002.00
409.2450, 11011.00
410.4400, 11142.00
411.6340, 11063.00
412.8280, 11047.00
414.0220, 11069.00
415.2160, 11052.00
416.4100, 11107.00
417.6030, 11078.00
418.7970, 11119.00
419.9900, 11255.00
421.1830, 11145.00
422.3760, 11224.00
423.5690, 11275.00
424.7610, 11180.00
425.9540, 11288.00
427.1460, 11298.00
428.3380, 11364.00
429.5300, 11283.00
430.7220, 11398.00
431.9140, 11358.00
433.1050, 11284.00
434.2970, 11468.00
435.4880, 11540.00
436.6790, 11635.00
437.8700, 11751.00
439.0610, 11741.00
440.2510, 11887.00
441.4420, 12189.00
442.6320, 12270.00
443.8220, 12548.00
445.0120, 12919.00
446.2020, 13256.00
447.3910, 13645.56
448.5810, 13931.00
449.7700, 14544.00
450.9600, 15088.00
452.1490, 15715.00
453.3370, 16165.00
454.5260, 16652.00
455.7150, 16436.00
456.9030, 16183.00
458.0910, 16344.00
459.2800, 16858.00
460.4670, 17145.00
461.6550, 17529.00
462.8430, 17369.00
464.0300, 16825.00
465.2180, 15536.00
466.4050, 14205.00
467.5920, 13460.00
468.7790, 12864.00
469.9650, 12510.00
471.1520, 12292.00
472.3380, 12193.00
473.5250, 12161.00
474.7110, 12072.00
475.8970, 12100.00
477.0820, 12064.00
478.2680, 12028.00
479.4540, 12000.00
480.6390, 12016.00
481.8240, 11906.00
483.0090, 11937.00
484.1940, 11883.00
485.3780, 12064.00
486.5630, 11977.00
487.7470, 12072.00
488.9320, 12107.00
490.1160, 11969.00
491.3000, 12023.00
492.4830, 11991.00
493.6670, 11970.00
494.8500, 12054.00
496.0340, 11991.00
497.2170, 12124.00
498.4000, 12082.00
499.5820, 12077.00
500.7650, 12115.00
501.9480, 12138.00
503.1300, 12141.00
504.3120, 12272.00
505.4940, 12234.00
506.6760, 12209.00
507.8580, 12063.00
509.0390, 12180.00
510.2210, 12200.00
511.4020, 12057.00
512.5830, 12090.00
513.7640, 12145.00
514.9450, 12163.00
516.1250, 12214.00
517.3060, 12283.00
518.4860, 12250.00
519.6660, 12325.00
520.8460, 12211.00
522.0260, 12314.00
523.2060, 12365.00
524.3850, 12345.00
525.5650, 12192.00
526.7440, 12560.00
527.9230, 12246.00
529.1020, 12374.00
530.2810, 12453.00
531.4590, 12352.00
532.6380, 12450.00
533.8160, 12361.00
534.9940, 12421.00
536.1720, 12555.00
537.3500, 12500.00
538.5270, 12509.00
539.7050, 12421.00
540.8820, 12466.00
542.0590, 12485.00
543.2360, 12488.55
544.4130, 12568.00
545.5900, 12546.00
546.7660, 12611.00
547.9430, 12624.00
549.1190, 12417.00
550.2950, 12687.00
551.4710, 12646.00
552.6470, 12413.00
553.8220, 12584.00
554.9980, 12570.00
556.1730, 12696.00
557.3480, 12699.00
558.5230, 12736.00
559.6980, 12666.00
560.8730, 12729.00
562.0470, 12813.00
563.2220, 12679.00
564.3960, 12837.00
565.5700, 12840.00
566.7440, 12779.00
567.9170, 12826.00
569.0910, 12813.00
570.2640, 12900.00
571.4380, 12776.00
572.6110, 12906.00
573.7840, 12739.00
574.9570, 13029.00
576.1290, 12982.00
577.3020, 12835.00
578.4740, 12924.00
579.6460, 12858.00
580.8180, 12891.00
581.9900, 12999.00
583.1620, 12850.00
584.3330, 13031.00
585.5040, 12988.00
586.6760, 12944.00
587.8470, 12925.00
589.0180, 13039.00
590.1880, 12931.00
591.3590, 13041.00
592.5290, 13047.00
593.7000, 12971.00
594.8700, 13268.00
596.0400, 13033.00
597.2090, 13156.00
598.3790, 13161.00
599.5490, 13117.00
600.7180, 13125.00
601.8870, 13269.00
603.0560, 13067.00
604.2250, 13218.00
605.3940, 13160.00
606.5620, 13274.00
607.7300, 13304.00
608.8990, 13371.00
610.0670, 13457.00
611.2350, 13485.00
612.4020, 13492.00
613.5700, 13568.46
614.7370, 13855.00
615.9050, 13687.00
617.0720, 13880.00
618.2390, 13967.00
619.4060, 13788.00
620.5720, 13898.00
621.7390, 13767.00
622.9050, 13778.00
624.0710, 14055.00
625.2370, 14011.00
626.4030, 13922.00
627.5690, 14212.00
628.7340, 14346.00
629.9000, 14213.00
631.0650, 14502.00
632.2300, 14190.00
633.3950, 14211.00
634.5600, 14017.00
635.7240, 13986.00
636.8890, 13976.00
638.0530, 13829.00
639.2170, 13753.00
640.3810, 13858.00
641.5450, 13707.00
642.7080, 13830.00
643.8720, 14061.00
645.0350, 13952.00
646.1980, 13932.00
647.3610, 14015.00
648.5240, 13940.00
649.6870, 14079.00
650.8490, 13921.00
652.0120, 13803.00
653.1740, 13832.00
654.3360, 13916.00
655.4980, 13791.00
656.6600, 13764.00
657.8210, 13808.00
658.9830, 13681.00
660.1440, 13797.00
661.3050, 13851.00
662.4660, 13863.00
663.6270, 13923.00
664.7870, 13953.00
665.9480, 13940.87
667.1080, 13955.58
668.2680, 13918.00
669.4280, 13894.00
670.5880, 13903.00
671.7480, 13908.94
672.9070, 13917.00
674.0670, 13990.00
675.2260, 13972.00
676.3850, 14069.00
677.5440, 14031.18
678.7030, 14087.00
679.8610, 14033.00
681.0200, 14098.00
682.1780, 14231.00
683.3360, 14017.00
684.4940, 14045.00
685.6520, 14040.00
686.8090, 14147.00
687.9670, 14092.00
689.1240, 14168.00
690.2810, 14101.00
691.4380, 14168.00
692.5950, 14172.00
693.7520, 14173.00
694.9080, 14139.00
696.0650, 14142.99
697.2210, 14067.00
698.3770, 14146.74
699.5330, 14138.00
700.6880, 14189.00
701.8440, 14298.00
702.9990, 14303.00
704.1550, 14416.00
705.3100, 14380.00
706.4650, 14254.00
707.6190, 14312.00
708.7740, 14415.00
709.9290, 14434.00
711.0830, 14282.00
712.2370, 14448.00
713.3910, 14352.00
714.5450, 14431.00
715.6980, 14436.00
716.8520, 14374.00
718.0050, 14527.00
719.1580, 14490.00
720.3110, 14641.00
721.4640, 14362.00
722.6170, 14552.00
723.7700, 14452.00
724.9220, 14500.00
726.0740, 14538.00
727.2260, 14536.00
728.3780, 14512.00
729.5300, 14573.00
730.6810, 14558.00
731.8330, 14574.00
732.9840, 14608.00
734.1350, 14501.00
735.2860, 14735.00
736.4370, 14591.00
737.5880, 14649.00
738.7380, 14780.00
739.8880, 14640.00
741.0390, 14713.00
742.1890, 14761.00
743.3380, 14572.00
744.4880, 14700.00
745.6380, 14781.00
746.7870, 14743.00
747.9360, 14814.00
749.0850, 14749.00
750.2340, 14800.00
751.3830, 14748.00
752.5310, 14803.00
753.6800, 14911.00
754.8280, 14885.00
755.9760, 14897.00
757.1240, 14886.00
758.2720, 14815.00
759.4190, 14824.00
760.5670, 14946.00
761.7140, 14857.00
762.8610, 14941.00
764.0080, 15036.00
765.1550, 14957.00
766.3020, 14902.00
767.4480, 14995.00
768.5950, 15054.00
769.7410, 15023.00
770.8870, 15026.00
772.0330, 15015.00
773.1780, 15204.00
774.3240, 15070.00
775.4690, 14933.00
776.6140, 15124.00
777.7590, 15007.00
778.9040, 15140.00
780.0490, 15105.00
781.1940, 15009.00
782.3380, 15011.00
783.4820, 15195.00
784.6260, 15141.00
785.7700, 15253.00
786.9140, 15267.00
788.0580, 15147.00
789.2010, 15290.00
790.3450, 15196.00
791.4880, 15340.00
792.6310, 15273.00
793.7730, 15162.00
794.9160, 15425.00
796.0590, 15324.00
797.2010, 15162.00
798.3430, 15333.00
799.4850, 15416.00
800.6270, 15322.00
801.7690, 15543.00
802.9100, 15333.00
804.0520, 15437.00
805.1930, 15376.00
806.3340, 15425.00
807.4750, 15382.00
808.6160, 15537.00
809.7560, 15561.00
810.8970, 15411.00
812.0370, 15543.00
813.1770, 15615.00
814.3170, 15579.00
815.4570, 15654.00
816.5960, 15657.02
817.7360, 15617.00
818.8750, 15674.00
820.0140, 15628.00
821.1530, 15612.00
822.2920, 15565.00
823.4310, 15519.00
824.5690, 15720.00
825.7070, 15593.00
826.8460, 15675.00
827.9840, 15711.00
829.1220, 15638.00
830.2590, 15691.00
831.3970, 15588.00
832.5340, 15789.00
833.6710, 15703.00
834.8080, 15746.00
835.9450, 15769.00
837.0820, 15784.00
838.2190, 15831.00
839.3550, 15820.00
840.4910, 15721.00
841.6270, 15910.00
842.7630, 15813.00
843.8990, 15884.00
845.0350, 15754.00
846.1700, 15915.00
847.3060, 15817.00
848.4410, 15983.00
849.5760, 16036.00
850.7100, 15894.00
851.8450, 15938.00
852.9800, 16001.00
854.1140, 16134.00
855.2480, 16105.97
856.3820, 16109.07
857.5160, 16058.00
858.6500, 16020.00
859.7830, 15922.00
860.9170, 15895.00
862.0500, 15944.00
863.1830, 15955.23
864.3160, 16122.00
865.4480, 16071.00
866.5810, 16149.00
867.7130, 16165.00
868.8460, 16171.00
869.9780, 16261.00
871.1100, 16150.00
872.2410, 16274.00
873.3730, 16320.00
874.5050, 16150.00
875.6360, 16101.00
876.7670, 16177.00
877.8980, 16259.00
879.0290, 16146.00
880.1590, 16290.00
881.2900, 16080.00
882.4200, 16381.00
883.5500, 16244.00
884.6800, 16227.00
885.8100, 16434.00
886.9400, 16385.00
888.0690, 16405.00
889.1990, 16477.00
890.3280, 16524.00
891.4570, 16505.60
892.5860, 16492.00
893.7140, 16440.00
894.8430, 16479.00
895.9710, 16404.00
897.1000, 16397.00
898.2280, 16352.00
899.3560, 16612.00
900.4830, 16551.00
901.6110, 16535.00
902.7380, 16823.00
903.8660, 16666.00
904.9930, 16641.00
906.1200, 16611.00
907.2460, 16486.00
908.3730, 16607.00
909.5000, 16655.00
910.6260, 16555.00
911.7520, 16591.00
912.8780, 16839.00
914.0040, 16682.00
915.1290, 16720.00
916.2550, 16811.00
917.3800, 16759.00
918.5050, 16809.66
919.6300, 16695.00
920.7550, 16832.00
921.8800, 16856.00
923.0040, 16872.00
924.1290, 16789.00
925.2530, 16757.00
926.3770, 16952.00
927.5010, 16958.00
928.6250, 17016.00
929.7480, 17146.00
930.8720, 16836.00
931.9950, 16948.00
933.1180, 16976.00
934.2410, 16989.00
935.3640, 17114.00
936.4860, 17143.00
937.6090, 17013.00
938.7310, 17172.00
939.8530, 17031.00
940.9750, 17101.00
942.0970, 17180.00
943.2180, 17036.00
944.3400, 17213.00
945.4610, 17031.00
946.5820, 17117.00
947.7030, 17135.00
948.8240, 17229.00
949.9450, 17322.00
951.0650, 17292.00
952.1860, 17275.00
953.3060, 17258.00
954.4260, 17266.09
955.5460, 17234.21
956.6650, 17323.00
957.7850, 17250.00
958.9040, 17326.00
960.0230, 17481.00
961.1420, 17437.00
962.2610, 17388.00
963.3800, 17545.00
964.4990, 17645.00
965.6170, 17536.00
966.7350, 17462.00
967.8530, 17736.00
968.9710, 17673.00
970.0890, 17802.00
971.2070, 17872.00
972.3240, 18009.00
973.4410, 17970.00
974.5580, 17992.00
975.6750, 18402.00
976.7920, 18673.00
977.9090, 18958.00
979.0250, 19910.00
980.1410, 21294.00
981.2580, 24102.00
982.3740, 28916.00
983.4890, 33709.00
984.6050, 37334.00
985.7200, 43237.00
986.8360, 52154.00
987.9510, 60585.00
989.0660, 63171.00
990.1810, 55008.00
991.2950, 40642.00
992.4100, 29903.00
993.5240, 24325.00
994.6390, 21276.00
995.7530, 20067.00
996.8660, 19340.00
997.9800, 19082.00
999.0940, 18799.00
1000.207, 18496.00
1001.320, 18552.00
1002.433, 18242.00
1003.546, 18477.00
1004.659, 18134.00
1005.772, 18371.00
1006.884, 18092.00
1007.996, 18356.00
1009.108, 18184.00
1010.220, 17943.00
1011.332, 18180.00
1012.444, 18208.00
1013.555, 18324.00
1014.666, 18197.00
1015.777, 18106.00
1016.888, 17983.00
1017.999, 18135.00
1019.110, 18202.00
1020.220, 18117.00
1021.331, 18244.00
1022.441, 18115.00
1023.551, 18209.00
1024.661, 18248.00
1025.770, 18257.00
1026.880, 18288.29
1027.989, 18145.00
1029.098, 18250.00
1030.207, 18286.00
1031.316, 18184.00
1032.425, 18376.00
1033.533, 18300.00
1034.642, 18292.00
1035.750, 18443.00
1036.858, 18226.00
1037.966, 18216.00
1039.073, 18404.00
1040.181, 18413.00
1041.288, 18312.00
1042.396, 18371.00
1043.503, 18210.00
1044.610, 18487.00
1045.716, 18334.00
1046.823, 18229.00
1047.929, 18417.00
1049.036, 18403.00
1050.142, 18537.00
1051.248, 18439.00
1052.353, 18505.00
1053.459, 18625.00
1054.564, 18529.00
1055.670, 18511.00
1056.775, 18572.00
1057.880, 18509.00
1058.985, 18648.00
1060.089, 18438.00
1061.194, 18553.00
1062.298, 18646.00
1063.402, 18695.00
1064.506, 18772.00
1065.610, 18752.00
1066.713, 18796.00
1067.817, 18535.00
1068.920, 18500.00
1070.023, 18607.00
1071.126, 18861.00
1072.229, 18924.00
1073.332, 18962.91
1074.435, 18727.00
1075.537, 18914.00
1076.639, 18897.00
1077.741, 18810.00
1078.843, 18889.00
1079.945, 18872.00
1081.046, 18852.00
1082.148, 18974.00
1083.249, 18989.00
1084.350, 19005.62
1085.451, 18949.00
1086.551, 19020.00
1087.652, 19046.00
1088.752, 19038.00
1089.853, 19027.00
1090.953, 18970.00
1092.053, 19067.00
1093.152, 19133.00
1094.252, 18968.00
1095.351, 19089.00
1096.451, 19250.00
1097.550, 19152.00
1098.649, 19081.00
1099.748, 19236.00
1100.846, 19500.00
1101.945, 19172.00
1103.043, 19382.00
1104.141, 19297.00
1105.239, 19202.00
1106.337, 19307.00
1107.434, 19176.00
1108.532, 19305.00
1109.629, 19394.00
1110.726, 19247.00
1111.823, 19173.00
1112.920, 19481.00
1114.017, 19272.00
1115.113, 19359.00
1116.210, 19275.00
1117.306, 19426.00
1118.402, 19406.00
1119.498, 19413.00
1120.593, 19411.00
1121.689, 19507.00
1122.784, 19615.00
1123.879, 19640.00
1124.974, 19751.56
1126.069, 19744.00
1127.164, 19919.00
1128.259, 19887.00
1129.353, 19954.00
1130.447, 19952.00
1131.541, 20228.00
1132.635, 20181.00
1133.729, 20498.00
1134.822, 20834.00
1135.916, 20877.00
1137.009, 21340.00
1138.102, 21560.00
1139.195, 21984.00
1140.288, 22424.00
1141.380, 22563.00
1142.473, 22828.00
1143.565, 22974.00
1144.657, 22638.00
1145.749, 22626.00
1146.841, 22033.00
1147.932, 21671.00
1149.024, 21275.00
1150.115, 21010.00
1151.206, 20922.00
1152.297, 20711.00
1153.388, 20484.00
1154.479, 20420.00
1155.569, 20307.50
1156.659, 20203.00
1157.750, 20246.00
1158.839, 20312.00
1159.929, 20343.00
1161.019, 20315.00
1162.108, 20303.00
1163.198, 20533.00
1164.287, 20357.00
1165.376, 20528.00
1166.465, 20521.00
1167.553, 20547.00
1168.642, 20585.00
1169.730, 20319.00
1170.818, 20464.00
1171.906, 20233.00
1172.994, 20261.00
1174.082, 20434.00
1175.170, 20281.00
1176.257, 20296.00
1177.344, 20150.00
1178.431, 20128.00
1179.518, 20293.00
1180.605, 20223.00
1181.691, 20302.00
1182.778, 20375.00
1183.864, 20314.00
1184.950, 20384.00
1186.036, 20294.00
1187.122, 20276.00
1188.207, 20125.00
1189.292, 20143.33
1190.378, 20280.00
1191.463, 20178.00
1192.548, 20219.00
1193.632, 20324.00
1194.717, 20321.00
1195.801, 20411.00
1196.886, 20430.50
1197.970, 20434.00
1199.054, 20484.00
1200.137, 20536.00
1201.221, 20591.00
1202.305, 20603.00
1203.388, 20450.00
1204.471, 20488.00
1205.554, 20546.00
1206.637, 20551.00
1207.719, 20740.00
1208.802, 20546.00
1209.884, 20617.00
1210.966, 20515.00
1212.048, 20644.00
1213.130, 20606.00
1214.212, 20668.00
1215.293, 20725.59
1216.374, 20969.00
1217.456, 20781.00
1218.536, 20882.00
1219.617, 20814.00
1220.698, 20758.00
1221.778, 20788.00
1222.859, 20721.00
1223.939, 20849.00
1225.019, 20681.00
1226.099, 20850.00
1227.178, 20875.00
1228.258, 20860.00
1229.337, 21073.00
1230.417, 21038.00
1231.496, 20833.00
1232.574, 20982.00
1233.653, 21002.00
1234.732, 20997.00
1235.810, 21001.00
1236.888, 21137.00
1237.966, 20965.00
1239.044, 20822.00
1240.122, 20998.00
1241.199, 21132.00
1242.277, 20998.00
1243.354, 21005.00
1244.431, 21323.00
1245.508, 21071.00
1246.585, 21170.00
1247.661, 21101.00
1248.738, 20960.00
1249.814, 21335.00
1250.890, 21394.00
1251.966, 21352.00
1253.042, 21327.00
1254.117, 21196.00
1255.193, 21350.00
1256.268, 21214.00
1257.343, 21255.00
1258.418, 21382.00
1259.493, 21538.00
1260.567, 21507.81
1261.642, 21369.00
1262.716, 21462.00
1263.790, 21455.00
1264.864, 21380.00
1265.938, 21456.00
1267.011, 21353.00
1268.085, 21501.00
1269.158, 21351.00
1270.231, 21582.00
1271.304, 21328.00
1272.377, 21492.00
1273.450, 21410.00
1274.522, 21526.00
1275.594, 21602.00
1276.666, 21609.00
1277.738, 21451.00
1278.810, 21594.00
1279.882, 21556.00
1280.953, 21662.00
1282.025, 21499.00
1283.096, 21697.00
1284.167, 21703.00
1285.238, 21607.00
1286.308, 21622.00
1287.379, 21632.00
1288.449, 21573.00
1289.519, 21704.00
1290.589, 21801.00
1291.659, 21786.00
1292.729, 21806.00
1293.798, 21711.00
1294.868, 21919.00
1295.937, 21741.00
1297.006, 21844.00
1298.075, 21692.00
1299.143, 21981.00
1300.212, 21829.00
1301.280, 21867.00
1302.348, 22039.00
1303.416, 21952.00
1304.484, 21892.00
1305.552, 22098.00
1306.620, 21881.00
1307.687, 21961.00
1308.754, 22065.00
1309.821, 21926.00
1310.888, 21986.00
1311.955, 22065.00
1313.021, 22064.00
1314.088, 22026.00
1315.154, 22011.00
1316.220, 22081.00
1317.286, 22102.00
1318.352, 22176.00
1319.417, 22240.00
1320.483, 22143.00
1321.548, 22045.00
1322.613, 22041.00
1323.678, 22130.00
1324.743, 22159.00
1325.807, 22176.00
1326.872, 22213.00
1327.936, 22344.00
1329.000, 22263.00
1330.064, 22302.00
1331.128, 22476.00
1332.191, 22535.00
1333.255, 22285.00
1334.318, 22200.00
1335.381, 22354.00
1336.444, 22386.00
1337.507, 22331.00
1338.569, 22433.00
1339.632, 22242.00
1340.694, 22180.00
1341.756, 22579.00
1342.818, 22456.00
1343.880, 22504.00
1344.941, 22389.00
1346.003, 22408.07
1347.064, 22332.00
1348.125, 22483.00
1349.186, 22352.00
1350.247, 22486.00
1351.308, 22666.00
1352.368, 22504.00
1353.428, 22643.00
1354.489, 22699.00
1355.549, 22591.00
1356.608, 22722.00
1357.668, 22679.00
1358.727, 22588.00
1359.787, 22722.00
1360.846, 22677.00
1361.905, 22559.00
1362.964, 22751.00
1364.022, 22798.00
1365.081, 22739.00
1366.139, 22710.00
1367.197, 22851.00
1368.255, 22903.00
1369.313, 22801.00
1370.371, 22788.00
1371.428, 22763.00
1372.486, 22734.72
1373.543, 22754.59
1374.600, 22770.00
1375.657, 22783.00
1376.713, 22899.00
1377.770, 22895.00
1378.826, 22928.00
1379.882, 22925.00
1380.938, 23079.00
1381.994, 22980.00
1383.050, 22952.00
1384.106, 23043.00
1385.161, 22892.00
1386.216, 22981.00
1387.271, 23121.00
1388.326, 23003.00
1389.381, 23092.00
1390.435, 23055.00
1391.490, 22963.00
1392.544, 23071.00
1393.598, 23041.00
1394.652, 23018.00
1395.705, 23091.00
1396.759, 23357.00
1397.812, 23235.00
1398.866, 23478.00
1399.919, 23355.00
1400.972, 23135.00
1402.024, 23205.00
1403.077, 23383.00
1404.129, 23019.00
1405.181, 23297.00
1406.233, 23214.00
1407.285, 23200.00
1408.337, 23284.00
1409.389, 23277.80
1410.440, 23251.00
1411.491, 23356.00
1412.542, 23469.00
1413.593, 23449.00
1414.644, 23423.00
1415.695, 23440.00
1416.745, 23423.64
1417.795, 23455.94
1418.845, 23426.00
1419.895, 23479.00
1420.945, 23495.00
1421.995, 23399.00
1423.044, 23548.00
1424.093, 23519.00
1425.142, 23471.00
1426.191, 23573.13
1427.240, 23612.00
1428.289, 23696.00
1429.337, 23603.00
1430.385, 23691.00
1431.433, 23579.00
1432.481, 23698.00
1433.529, 23733.00
1434.577, 23806.00
1435.624, 23630.00
1436.672, 23816.00
1437.719, 23710.00
1438.766, 23898.00
1439.812, 23774.00
1440.859, 23967.00
1441.905, 23922.00
1442.952, 23843.00
1443.998, 23838.00
1445.044, 23743.00
1446.090, 23921.00
1447.135, 23725.00
1448.181, 23837.00
1449.226, 24033.00
1450.271, 23918.00
1451.316, 23761.00
1452.361, 23849.00
1453.405, 23957.00
1454.450, 23947.00
1455.494, 23956.00
1456.538, 23959.00
1457.582, 24038.00
1458.626, 23965.00
1459.670, 24003.00
1460.713, 23879.00
1461.757, 23906.26
1462.800, 24022.00
1463.843, 23945.00
1464.886, 24106.00
1465.928, 24209.00
1466.971, 24316.00
1468.013, 24318.05
1469.055, 24299.50
1470.097, 24275.00
1471.139, 24168.00
1472.181, 24170.00
1473.222, 24137.00
1474.263, 24317.00
1475.305, 24383.00
1476.346, 24305.00
1477.386, 24377.00
1478.427, 24344.00
1479.468, 24361.55
1480.508, 24566.00
1481.548, 24465.00
1482.588, 24489.00
1483.628, 24669.00
1484.668, 24421.00
1485.707, 24460.00
1486.747, 24616.00
1487.786, 24619.00
1488.825, 24692.95
1489.864, 24739.62
1490.902, 24751.00
1491.941, 24720.00
1492.979, 24670.00
1494.017, 24494.00
1495.055, 24605.00
1496.093, 24591.00
1497.131, 24724.00
1498.168, 24688.00
1499.206, 24604.00
1500.243, 24723.00
1501.280, 24739.00
1502.317, 24493.00
1503.354, 24827.00
1504.390, 24835.00
1505.426, 24649.00
1506.463, 24750.00
1507.499, 24783.00
1508.535, 24732.00
1509.570, 24937.00
1510.606, 24814.00
1511.641, 24987.00
1512.676, 24785.00
1513.711, 24828.00
1514.746, 24828.00
1515.781, 24950.00
1516.816, 25091.00
1517.850, 25149.00
1518.884, 25169.31
1519.918, 25116.00
1520.952, 25076.00
1521.986, 25159.00
1523.019, 25004.00
1524.053, 25038.00
1525.086, 25064.00
1526.119, 25052.00
1527.152, 25152.00
1528.185, 25056.00
1529.217, 25103.41
1530.250, 25236.00
1531.282, 25161.00
1532.314, 25187.00
1533.346, 25317.00
1534.377, 25396.00
1535.409, 25205.00
1536.440, 25327.00
1537.472, 25151.00
1538.503, 25441.00
1539.534, 25198.00
1540.564, 25415.00
1541.595, 25285.00
1542.625, 25345.00
1543.656, 25097.00
1544.686, 25600.00
1545.716, 25393.00
1546.745, 25387.00
1547.775, 25664.00
1548.804, 25515.00
1549.834, 25483.00
1550.863, 25782.00
1551.892, 25500.00
1552.920, 25503.00
1553.949, 25616.00
1554.977, 25585.00
1556.006, 25564.00
1557.034, 25702.00
1558.062, 25571.00
1559.089, 25403.00
1560.117, 25776.00
1561.144, 25623.00
1562.172, 25809.00
1563.199, 25762.00
1564.226, 25595.00
1565.252, 25557.00
1566.279, 25588.00
1567.305, 25834.00
1568.332, 25750.00
1569.358, 25674.00
1570.384, 25918.00
##END=



