##NAMES=Baryte
##RRUFFID=R050342
##IDEAL CHEMISTRY=BaS^6+^O_4_
##LOCALITY=Palos Verdes, Los Angeles County, California, USA
##OWNER=RRUFF
##SOURCE=California Institute of Technology
##DESCRIPTION=Light brown fragment
##STATUS=The identification of this mineral has been confirmed by X-ray diffraction and chemical analysis
##URL=rruff.info/R050342
##MEASURED CHEMISTRY=Ba_1.00_S_1.00_O_4_
##PIN_ID=L01107
##ORIENTATION=Laser parallel to -a* (-1 0 0). Fiducial mark perpendicular to laser is parallel to b [0 1 0]
140.2710, 7452.000
141.5000, 7355.000
142.7280, 7538.000
143.9560, 7469.000
145.1840, 7582.000
146.4120, 7591.000
147.6390, 7667.000
148.8670, 7782.000
150.0940, 7774.000
151.3210, 7801.000
152.5490, 7953.000
153.7750, 7745.000
155.0020, 7757.000
156.2290, 7870.000
157.4550, 7793.000
158.6810, 7812.000
159.9080, 7824.000
161.1340, 7844.000
162.3590, 7754.000
163.5850, 7705.000
164.8110, 7746.000
166.0360, 7861.000
167.2610, 7795.000
168.4860, 7930.000
169.7110, 7917.000
170.9360, 7906.000
172.1610, 7962.000
173.3850, 7953.000
174.6100, 7969.536
175.8340, 7999.000
177.0580, 7999.000
178.2820, 8000.000
179.5050, 8035.000
180.7290, 8036.000
181.9520, 8048.774
183.1760, 8101.000
184.3990, 8107.000
185.6220, 8205.000
186.8450, 8329.000
188.0670, 8237.000
189.2900, 8147.000
190.5120, 8173.000
191.7340, 8218.000
192.9560, 8223.000
194.1780, 8252.812
195.4000, 8264.000
196.6220, 8292.000
197.8430, 8284.000
199.0640, 8302.000
200.2860, 8165.000
201.5070, 8261.000
202.7270, 8307.000
203.9480, 8300.000
205.1690, 8424.000
206.3890, 8274.000
207.6090, 8214.000
208.8290, 8369.000
210.0490, 8388.000
211.2690, 8342.000
212.4890, 8328.000
213.7080, 8519.000
214.9280, 8355.000
216.1470, 8459.000
217.3660, 8460.000
218.5850, 8402.000
219.8030, 8444.000
221.0220, 8440.538
222.2400, 8441.583
223.4590, 8479.000
224.6770, 8481.000
225.8950, 8492.000
227.1120, 8543.000
228.3300, 8457.000
229.5480, 8567.000
230.7650, 8606.000
231.9820, 8723.000
233.1990, 8628.000
234.4160, 8761.000
235.6330, 8584.000
236.8490, 8725.000
238.0660, 8646.000
239.2820, 8592.000
240.4980, 8632.000
241.7140, 8626.000
242.9300, 8650.000
244.1460, 8747.000
245.3610, 8691.000
246.5770, 8820.000
247.7920, 8767.000
249.0070, 8805.000
250.2220, 8740.000
251.4370, 8786.000
252.6510, 8764.000
253.8660, 8888.000
255.0800, 8802.000
256.2940, 8924.000
257.5080, 8936.000
258.7220, 8933.000
259.9360, 9048.000
261.1490, 8996.000
262.3630, 8990.000
263.5760, 8997.000
264.7890, 9067.000
266.0020, 8935.000
267.2150, 9132.000
268.4270, 9046.000
269.6400, 9230.000
270.8520, 9132.000
272.0640, 9057.000
273.2760, 9062.000
274.4880, 9055.000
275.7000, 9077.000
276.9120, 9105.000
278.1230, 9120.000
279.3340, 9196.000
280.5450, 9195.929
281.7560, 9240.000
282.9670, 9253.000
284.1780, 9209.000
285.3880, 9285.000
286.5980, 9229.000
287.8090, 9182.000
289.0190, 9283.000
290.2290, 9388.000
291.4380, 9318.000
292.6480, 9289.000
293.8570, 9394.000
295.0670, 9328.000
296.2760, 9354.000
297.4850, 9287.000
298.6930, 9351.000
299.9020, 9414.000
301.1110, 9450.000
302.3190, 9404.000
303.5270, 9473.000
304.7350, 9444.000
305.9430, 9503.000
307.1510, 9497.353
308.3580, 9504.000
309.5660, 9501.000
310.7730, 9515.000
311.9800, 9538.000
313.1870, 9544.000
314.3940, 9489.000
315.6010, 9564.000
316.8070, 9445.000
318.0130, 9554.000
319.2200, 9564.000
320.4260, 9785.000
321.6310, 9660.000
322.8370, 9692.000
324.0430, 9689.000
325.2480, 9705.000
326.4540, 9674.000
327.6590, 9688.000
328.8640, 9677.000
330.0680, 9728.000
331.2730, 9627.000
332.4780, 9734.000
333.6820, 9703.000
334.8860, 9812.000
336.0900, 9793.000
337.2940, 9691.000
338.4980, 9754.000
339.7010, 9912.000
340.9050, 9933.000
342.1080, 9851.000
343.3110, 9883.000
344.5140, 9830.000
345.7170, 9758.000
346.9200, 9749.000
348.1220, 9819.000
349.3240, 9954.000
350.5270, 10124.00
351.7290, 9904.000
352.9310, 9888.000
354.1320, 9880.000
355.3340, 10093.00
356.5350, 9997.000
357.7370, 10044.00
358.9380, 10057.00
360.1390, 10139.00
361.3400, 10074.00
362.5400, 10014.00
363.7410, 10072.00
364.9410, 10126.00
366.1410, 9977.000
367.3410, 10245.00
368.5410, 10113.00
369.7410, 10120.00
370.9400, 10193.00
372.1400, 10190.00
373.3390, 10212.00
374.5380, 10120.00
375.7370, 10348.00
376.9360, 10258.00
378.1350, 10169.00
379.3330, 10286.00
380.5310, 10219.00
381.7300, 10270.00
382.9280, 10291.00
384.1260, 10202.00
385.3230, 10291.00
386.5210, 10315.00
387.7180, 10360.00
388.9160, 10282.00
390.1130, 10373.00
391.3100, 10296.00
392.5060, 10402.00
393.7030, 10396.00
394.9000, 10499.00
396.0960, 10523.00
397.2920, 10425.00
398.4880, 10497.00
399.6840, 10520.00
400.8800, 10494.17
402.0750, 10532.63
403.2710, 10509.00
404.4660, 10536.00
405.6610, 10576.00
406.8560, 10562.00
408.0510, 10594.58
409.2450, 10573.00
410.4400, 10631.00
411.6340, 10722.00
412.8280, 10756.04
414.0220, 10770.55
415.2160, 10763.00
416.4100, 10744.00
417.6030, 10687.00
418.7970, 10635.00
419.9900, 10687.00
421.1830, 10832.00
422.3760, 10660.00
423.5690, 10838.00
424.7610, 10896.00
425.9540, 10886.00
427.1460, 10872.00
428.3380, 11042.00
429.5300, 10939.00
430.7220, 10838.00
431.9140, 11086.00
433.1050, 11136.00
434.2970, 11095.00
435.4880, 11036.00
436.6790, 11104.00
437.8700, 11244.00
439.0610, 11399.00
440.2510, 11518.00
441.4420, 11873.00
442.6320, 12014.00
443.8220, 12466.00
445.0120, 12936.00
446.2020, 13335.00
447.3910, 13771.00
448.5810, 14358.00
449.7700, 15012.00
450.9600, 15733.00
452.1490, 16349.00
453.3370, 16653.00
454.5260, 16448.00
455.7150, 15651.00
456.9030, 14837.00
458.0910, 13737.00
459.2800, 13232.00
460.4670, 12915.00
461.6550, 12776.00
462.8430, 12213.00
464.0300, 12064.00
465.2180, 12004.00
466.4050, 11826.00
467.5920, 11648.00
468.7790, 11644.00
469.9650, 11468.00
471.1520, 11386.00
472.3380, 11497.00
473.5250, 11515.00
474.7110, 11339.00
475.8970, 11440.00
477.0820, 11438.00
478.2680, 11351.00
479.4540, 11454.00
480.6390, 11476.00
481.8240, 11388.00
483.0090, 11518.00
484.1940, 11381.00
485.3780, 11455.00
486.5630, 11550.00
487.7470, 11509.00
488.9320, 11464.00
490.1160, 11419.00
491.3000, 11466.00
492.4830, 11442.78
493.6670, 11529.00
494.8500, 11490.00
496.0340, 11592.00
497.2170, 11666.00
498.4000, 11725.00
499.5820, 11644.00
500.7650, 11604.00
501.9480, 11609.00
503.1300, 11575.00
504.3120, 11683.00
505.4940, 11651.00
506.6760, 11683.00
507.8580, 11728.00
509.0390, 11627.00
510.2210, 11658.00
511.4020, 11751.00
512.5830, 11746.00
513.7640, 11834.00
514.9450, 11689.00
516.1250, 11762.00
517.3060, 11852.00
518.4860, 11752.00
519.6660, 11915.00
520.8460, 11819.00
522.0260, 11877.00
523.2060, 11799.00
524.3850, 11889.00
525.5650, 11877.00
526.7440, 11915.00
527.9230, 11884.00
529.1020, 11996.00
530.2810, 11851.00
531.4590, 12036.00
532.6380, 12040.00
533.8160, 12036.00
534.9940, 11950.00
536.1720, 11898.00
537.3500, 12167.00
538.5270, 11971.00
539.7050, 11984.00
540.8820, 12114.00
542.0590, 11906.00
543.2360, 12080.00
544.4130, 11988.00
545.5900, 11978.00
546.7660, 12218.00
547.9430, 12052.00
549.1190, 12092.00
550.2950, 12143.00
551.4710, 12112.00
552.6470, 12150.26
553.8220, 12126.00
554.9980, 12158.00
556.1730, 12207.00
557.3480, 12188.00
558.5230, 12350.00
559.6980, 12382.00
560.8730, 12358.00
562.0470, 12215.00
563.2220, 12130.00
564.3960, 12336.00
565.5700, 12381.00
566.7440, 12258.00
567.9170, 12257.00
569.0910, 12330.00
570.2640, 12440.00
571.4380, 12483.00
572.6110, 12521.00
573.7840, 12348.00
574.9570, 12281.00
576.1290, 12327.00
577.3020, 12622.00
578.4740, 12544.00
579.6460, 12595.00
580.8180, 12538.00
581.9900, 12464.00
583.1620, 12581.00
584.3330, 12523.00
585.5040, 12693.00
586.6760, 12526.00
587.8470, 12497.00
589.0180, 12594.00
590.1880, 12683.00
591.3590, 12704.00
592.5290, 12761.00
593.7000, 12786.56
594.8700, 12750.00
596.0400, 12771.00
597.2090, 12836.00
598.3790, 12727.00
599.5490, 12800.00
600.7180, 12852.00
601.8870, 12878.00
603.0560, 12953.00
604.2250, 13031.00
605.3940, 13123.00
606.5620, 13243.54
607.7300, 13313.00
608.8990, 13505.00
610.0670, 13746.00
611.2350, 13880.00
612.4020, 14202.00
613.5700, 14601.00
614.7370, 15144.00
615.9050, 15537.00
617.0720, 15900.00
618.2390, 15858.00
619.4060, 15472.00
620.5720, 15226.00
621.7390, 14758.00
622.9050, 14432.00
624.0710, 14224.00
625.2370, 13991.25
626.4030, 13845.00
627.5690, 13731.00
628.7340, 13778.00
629.9000, 13662.00
631.0650, 13518.00
632.2300, 13519.00
633.3950, 13306.00
634.5600, 13443.00
635.7240, 13390.00
636.8890, 13288.00
638.0530, 13314.00
639.2170, 13128.00
640.3810, 13203.00
641.5450, 13251.00
642.7080, 13137.00
643.8720, 13356.00
645.0350, 13369.00
646.1980, 13274.00
647.3610, 13388.00
648.5240, 13248.00
649.6870, 13372.00
650.8490, 13347.00
652.0120, 13256.00
653.1740, 13369.00
654.3360, 13369.00
655.4980, 13536.00
656.6600, 13347.00
657.8210, 13311.00
658.9830, 13459.00
660.1440, 13410.00
661.3050, 13341.00
662.4660, 13617.00
663.6270, 13463.00
664.7870, 13421.00
665.9480, 13544.00
667.1080, 13527.00
668.2680, 13440.00
669.4280, 13594.00
670.5880, 13629.00
671.7480, 13601.00
672.9070, 13547.00
674.0670, 13569.00
675.2260, 13522.00
676.3850, 13513.00
677.5440, 13717.00
678.7030, 13698.00
679.8610, 13707.00
681.0200, 13499.00
682.1780, 13705.00
683.3360, 13644.00
684.4940, 13706.00
685.6520, 13808.00
686.8090, 13650.00
687.9670, 13655.00
689.1240, 13694.00
690.2810, 13797.00
691.4380, 13681.00
692.5950, 13874.00
693.7520, 13802.00
694.9080, 13820.00
696.0650, 13797.00
697.2210, 13822.00
698.3770, 13829.00
699.5330, 13934.00
700.6880, 13834.00
701.8440, 13902.00
702.9990, 13965.00
704.1550, 13931.00
705.3100, 13920.00
706.4650, 13850.00
707.6190, 13804.00
708.7740, 13846.75
709.9290, 13986.00
711.0830, 13924.00
712.2370, 13970.00
713.3910, 13976.00
714.5450, 14049.00
715.6980, 14028.00
716.8520, 13970.00
718.0050, 13957.00
719.1580, 14017.00
720.3110, 14057.00
721.4640, 14111.00
722.6170, 14137.00
723.7700, 14135.75
724.9220, 14289.00
726.0740, 14133.00
727.2260, 14162.00
728.3780, 14218.00
729.5300, 14086.00
730.6810, 14201.00
731.8330, 14049.00
732.9840, 14122.00
734.1350, 14327.00
735.2860, 14258.00
736.4370, 14181.00
737.5880, 14288.00
738.7380, 14349.00
739.8880, 14298.00
741.0390, 14270.00
742.1890, 14241.00
743.3380, 14356.00
744.4880, 14400.00
745.6380, 14535.00
746.7870, 14400.00
747.9360, 14485.00
749.0850, 14481.00
750.2340, 14468.00
751.3830, 14522.00
752.5310, 14344.00
753.6800, 14476.00
754.8280, 14634.00
755.9760, 14485.00
757.1240, 14617.00
758.2720, 14678.00
759.4190, 14537.00
760.5670, 14491.00
761.7140, 14556.00
762.8610, 14615.00
764.0080, 14516.00
765.1550, 14657.00
766.3020, 14671.00
767.4480, 14817.00
768.5950, 14551.00
769.7410, 14655.00
770.8870, 14573.00
772.0330, 14646.00
773.1780, 14605.00
774.3240, 14864.00
775.4690, 14728.00
776.6140, 14796.00
777.7590, 14604.00
778.9040, 14734.00
780.0490, 14607.00
781.1940, 14598.00
782.3380, 14794.00
783.4820, 15110.00
784.6260, 14986.14
785.7700, 14733.00
786.9140, 14961.00
788.0580, 14843.00
789.2010, 14992.00
790.3450, 14943.00
791.4880, 14960.00
792.6310, 14984.00
793.7730, 15030.00
794.9160, 14924.00
796.0590, 15023.00
797.2010, 14963.00
798.3430, 15009.00
799.4850, 15023.00
800.6270, 15159.00
801.7690, 15017.00
802.9100, 15058.00
804.0520, 15130.00
805.1930, 14944.00
806.3340, 15056.00
807.4750, 15155.00
808.6160, 15205.00
809.7560, 15243.00
810.8970, 15088.00
812.0370, 15158.00
813.1770, 15169.00
814.3170, 15092.00
815.4570, 15255.00
816.5960, 15298.00
817.7360, 15244.00
818.8750, 15362.00
820.0140, 15315.00
821.1530, 15219.00
822.2920, 15321.00
823.4310, 15337.00
824.5690, 15237.00
825.7070, 15492.00
826.8460, 15479.00
827.9840, 15348.00
829.1220, 15448.00
830.2590, 15378.00
831.3970, 15352.00
832.5340, 15402.00
833.6710, 15455.00
834.8080, 15517.00
835.9450, 15511.00
837.0820, 15579.19
838.2190, 15588.34
839.3550, 15656.00
840.4910, 15580.00
841.6270, 15572.00
842.7630, 15480.00
843.8990, 15587.00
845.0350, 15543.00
846.1700, 15672.00
847.3060, 15656.00
848.4410, 15703.00
849.5760, 15651.00
850.7100, 15689.00
851.8450, 15740.00
852.9800, 15659.00
854.1140, 15595.00
855.2480, 15810.00
856.3820, 15795.00
857.5160, 15629.00
858.6500, 15827.00
859.7830, 15862.00
860.9170, 15784.00
862.0500, 15906.00
863.1830, 15774.00
864.3160, 15947.00
865.4480, 15781.00
866.5810, 15800.00
867.7130, 15971.00
868.8460, 15995.00
869.9780, 15978.00
871.1100, 16049.00
872.2410, 16090.00
873.3730, 16039.00
874.5050, 16037.00
875.6360, 16020.00
876.7670, 16046.53
877.8980, 15986.00
879.0290, 16080.00
880.1590, 16179.00
881.2900, 16097.00
882.4200, 16111.00
883.5500, 16110.00
884.6800, 16168.00
885.8100, 16147.00
886.9400, 16263.00
888.0690, 16196.00
889.1990, 16217.00
890.3280, 16138.00
891.4570, 16067.00
892.5860, 16233.00
893.7140, 16201.00
894.8430, 16211.00
895.9710, 16201.00
897.1000, 16237.00
898.2280, 16274.67
899.3560, 16420.00
900.4830, 16364.00
901.6110, 16390.00
902.7380, 16392.00
903.8660, 16587.00
904.9930, 16485.00
906.1200, 16254.00
907.2460, 16469.00
908.3730, 16465.00
909.5000, 16640.00
910.6260, 16499.00
911.7520, 16619.00
912.8780, 16527.00
914.0040, 16567.00
915.1290, 16496.00
916.2550, 16483.00
917.3800, 16737.00
918.5050, 16666.00
919.6300, 16719.00
920.7550, 16582.00
921.8800, 16645.00
923.0040, 16572.00
924.1290, 16754.00
925.2530, 16707.00
926.3770, 16513.00
927.5010, 16691.00
928.6250, 16787.00
929.7480, 16718.00
930.8720, 16751.00
931.9950, 16799.00
933.1180, 16854.00
934.2410, 16808.00
935.3640, 16858.00
936.4860, 16868.00
937.6090, 16917.00
938.7310, 16780.00
939.8530, 16948.00
940.9750, 16891.00
942.0970, 16933.00
943.2180, 17064.00
944.3400, 17242.00
945.4610, 16983.00
946.5820, 17189.00
947.7030, 17088.00
948.8240, 17026.00
949.9450, 17172.00
951.0650, 17180.00
952.1860, 17126.00
953.3060, 17357.00
954.4260, 17333.00
955.5460, 17133.00
956.6650, 17143.00
957.7850, 17205.00
958.9040, 17303.00
960.0230, 17126.00
961.1420, 17242.00
962.2610, 17356.00
963.3800, 17361.00
964.4990, 17490.00
965.6170, 17560.00
966.7350, 17583.00
967.8530, 17466.00
968.9710, 17702.00
970.0890, 17542.00
971.2070, 17727.00
972.3240, 17706.00
973.4410, 17746.00
974.5580, 18074.00
975.6750, 18119.00
976.7920, 18241.00
977.9090, 18507.00
979.0250, 19132.00
980.1410, 20009.00
981.2580, 21678.00
982.3740, 24652.00
983.4890, 27724.00
984.6050, 31412.00
985.7200, 37979.00
986.8360, 46238.00
987.9510, 54915.00
989.0660, 57767.00
990.1810, 50570.00
991.2950, 38387.00
992.4100, 28433.00
993.5240, 23317.00
994.6390, 20966.00
995.7530, 19703.00
996.8660, 19179.00
997.9800, 18718.00
999.0940, 18465.00
1000.207, 18442.00
1001.320, 18431.00
1002.433, 18303.00
1003.546, 18236.00
1004.659, 18155.00
1005.772, 18095.50
1006.884, 18079.00
1007.996, 18022.00
1009.108, 18136.00
1010.220, 18141.00
1011.332, 18222.00
1012.444, 18045.00
1013.555, 18024.00
1014.666, 18029.00
1015.777, 18178.00
1016.888, 18219.00
1017.999, 18176.00
1019.110, 18111.00
1020.220, 18150.00
1021.331, 18183.00
1022.441, 18255.00
1023.551, 18183.00
1024.661, 18205.00
1025.770, 18169.00
1026.880, 18265.00
1027.989, 18206.00
1029.098, 18245.00
1030.207, 18176.00
1031.316, 18321.00
1032.425, 18395.00
1033.533, 18241.00
1034.642, 18217.00
1035.750, 18221.00
1036.858, 18307.00
1037.966, 18220.00
1039.073, 18490.00
1040.181, 18354.00
1041.288, 18436.00
1042.396, 18378.00
1043.503, 18351.00
1044.610, 18419.00
1045.716, 18303.00
1046.823, 18537.00
1047.929, 18332.00
1049.036, 18470.00
1050.142, 18543.00
1051.248, 18490.00
1052.353, 18583.00
1053.459, 18629.00
1054.564, 18583.00
1055.670, 18836.00
1056.775, 18628.00
1057.880, 18587.00
1058.985, 18570.00
1060.089, 18752.00
1061.194, 18843.00
1062.298, 18748.00
1063.402, 18743.00
1064.506, 18871.00
1065.610, 18780.00
1066.713, 18701.00
1067.817, 18859.00
1068.920, 18859.00
1070.023, 18695.00
1071.126, 18898.00
1072.229, 19007.00
1073.332, 18828.00
1074.435, 18940.00
1075.537, 18992.00
1076.639, 19068.00
1077.741, 19180.00
1078.843, 19325.00
1079.945, 19412.00
1081.046, 19397.00
1082.148, 19530.00
1083.249, 19538.00
1084.350, 19633.00
1085.451, 19553.00
1086.551, 19638.00
1087.652, 19543.00
1088.752, 19381.00
1089.853, 19404.00
1090.953, 19430.00
1092.053, 19153.00
1093.152, 19081.00
1094.252, 19385.00
1095.351, 19298.00
1096.451, 19474.00
1097.550, 19502.00
1098.649, 19685.00
1099.748, 19604.00
1100.846, 19924.00
1101.945, 19806.00
1103.043, 20026.00
1104.141, 20208.00
1105.239, 20019.00
1106.337, 20011.00
1107.434, 19940.00
1108.532, 19924.00
1109.629, 19846.00
1110.726, 19797.19
1111.823, 19729.63
1112.920, 19676.00
1114.017, 19613.00
1115.113, 19539.00
1116.210, 19557.00
1117.306, 19648.00
1118.402, 19790.00
1119.498, 19634.00
1120.593, 19710.00
1121.689, 19448.00
1122.784, 19897.00
1123.879, 19642.00
1124.974, 19694.00
1126.069, 19793.00
1127.164, 19589.00
1128.259, 19703.00
1129.353, 19726.00
1130.447, 19838.00
1131.541, 19884.00
1132.635, 19800.00
1133.729, 19807.00
1134.822, 19759.00
1135.916, 19979.00
1137.009, 19887.00
1138.102, 20044.00
1139.195, 19937.00
1140.288, 20117.00
1141.380, 20017.00
1142.473, 20118.00
1143.565, 20180.00
1144.657, 20260.00
1145.749, 20177.00
1146.841, 20140.00
1147.932, 20051.00
1149.024, 20082.00
1150.115, 20146.00
1151.206, 19996.00
1152.297, 20254.00
1153.388, 20062.00
1154.479, 20069.00
1155.569, 20043.00
1156.659, 20220.00
1157.750, 20071.00
1158.839, 20121.00
1159.929, 20247.00
1161.019, 20148.00
1162.108, 20196.00
1163.198, 20327.00
1164.287, 20392.00
1165.376, 20230.00
1166.465, 20226.00
1167.553, 20290.00
1168.642, 20378.00
1169.730, 20313.00
1170.818, 20251.00
1171.906, 20422.00
1172.994, 20351.00
1174.082, 20464.00
1175.170, 20485.00
1176.257, 20426.00
1177.344, 20484.00
1178.431, 20516.00
1179.518, 20515.00
1180.605, 20533.66
1181.691, 20465.00
1182.778, 20540.00
1183.864, 20460.00
1184.950, 20487.00
1186.036, 20454.00
1187.122, 20294.00
1188.207, 20641.00
1189.292, 20679.00
1190.378, 20653.00
1191.463, 20660.00
1192.548, 20777.00
1193.632, 20657.00
1194.717, 20605.00
1195.801, 20799.00
1196.886, 20813.00
1197.970, 20669.00
1199.054, 20928.00
1200.137, 20662.00
1201.221, 20849.00
1202.305, 20870.00
1203.388, 20836.00
1204.471, 20805.00
1205.554, 20921.00
1206.637, 20837.00
1207.719, 20827.00
1208.802, 21072.00
1209.884, 21210.00
1210.966, 21131.00
1212.048, 20969.00
1213.130, 21032.00
1214.212, 21002.00
1215.293, 21066.00
1216.374, 21124.00
1217.456, 20959.00
1218.536, 21083.00
1219.617, 21008.00
1220.698, 21292.00
1221.778, 21083.00
1222.859, 21126.00
1223.939, 21422.00
1225.019, 21175.00
1226.099, 21101.00
1227.178, 21309.00
1228.258, 21196.00
1229.337, 21216.00
1230.417, 21322.00
1231.496, 21386.00
1232.574, 21334.00
1233.653, 21383.00
1234.732, 21393.00
1235.810, 21407.00
1236.888, 21420.00
1237.966, 21468.00
1239.044, 21471.00
1240.122, 21619.00
1241.199, 21593.00
1242.277, 21660.00
1243.354, 21618.00
1244.431, 21488.00
1245.508, 21610.00
1246.585, 21543.00
1247.661, 21582.00
1248.738, 21719.00
1249.814, 21770.00
1250.890, 21754.00
1251.966, 21611.00
1253.042, 21919.00
1254.117, 21650.00
1255.193, 21691.00
1256.268, 21880.00
1257.343, 21822.00
1258.418, 21706.00
1259.493, 21661.00
1260.567, 21825.00
1261.642, 22004.00
1262.716, 21876.00
1263.790, 21911.00
1264.864, 21955.00
1265.938, 21761.00
1267.011, 21976.00
1268.085, 21875.00
1269.158, 22119.00
1270.231, 22201.00
1271.304, 22142.00
1272.377, 21999.00
1273.450, 22077.00
1274.522, 22062.00
1275.594, 22103.00
1276.666, 22015.00
1277.738, 21975.00
1278.810, 22273.00
1279.882, 22170.00
1280.953, 22199.00
1282.025, 22046.00
1283.096, 22169.00
1284.167, 22348.00
1285.238, 22187.00
1286.308, 22180.00
1287.379, 22364.00
1288.449, 22337.00
1289.519, 22057.00
1290.589, 22243.00
1291.659, 22242.00
1292.729, 22267.00
1293.798, 22499.00
1294.868, 22349.00
1295.937, 22498.00
1297.006, 22589.00
1298.075, 22309.00
1299.143, 22505.00
1300.212, 22537.00
1301.280, 22403.00
1302.348, 22710.00
1303.416, 22560.00
1304.484, 22657.00
1305.552, 22618.00
1306.620, 22494.00
1307.687, 22505.00
1308.754, 22655.00
1309.821, 22808.00
1310.888, 22485.00
1311.955, 22892.00
1313.021, 22625.00
1314.088, 22636.00
1315.154, 22879.00
1316.220, 22852.00
1317.286, 22668.00
1318.352, 22661.00
1319.417, 22615.00
1320.483, 22753.00
1321.548, 22740.00
1322.613, 22848.00
1323.678, 22828.00
1324.743, 22948.00
1325.807, 22972.00
1326.872, 22996.04
1327.936, 22783.00
1329.000, 22996.00
1330.064, 22981.00
1331.128, 22879.00
1332.191, 23042.00
1333.255, 23017.00
1334.318, 23147.00
1335.381, 23002.00
1336.444, 23108.00
1337.507, 23024.00
1338.569, 23094.00
1339.632, 23096.00
1340.694, 23007.00
1341.756, 23088.00
1342.818, 22993.00
1343.880, 22999.00
1344.941, 23093.00
1346.003, 23177.00
1347.064, 23194.00
1348.125, 23150.00
1349.186, 23258.00
1350.247, 23294.00
1351.308, 23334.00
1352.368, 23437.00
1353.428, 23290.00
1354.489, 23355.00
1355.549, 23296.00
1356.608, 23474.00
1357.668, 23521.00
1358.727, 23342.00
1359.787, 23501.00
1360.846, 23399.00
1361.905, 23457.00
1362.964, 23379.00
1364.022, 23573.00
1365.081, 23639.00
1366.139, 23467.00
1367.197, 23787.00
1368.255, 23673.00
1369.313, 23523.00
1370.371, 23576.00
1371.428, 23564.00
1372.486, 23620.00
1373.543, 23518.00
1374.600, 23532.00
1375.657, 23558.00
1376.713, 23542.06
1377.770, 23698.00
1378.826, 23623.00
1379.882, 23710.00
1380.938, 23829.00
1381.994, 23817.00
1383.050, 23704.00
1384.106, 23944.00
1385.161, 23815.00
1386.216, 24004.00
1387.271, 24035.00
1388.326, 23941.00
1389.381, 24019.00
1390.435, 23903.00
1391.490, 23825.00
1392.544, 23829.00
1393.598, 23938.00
1394.652, 24005.00
1395.705, 23908.00
1396.759, 24121.00
1397.812, 24191.00
1398.866, 24089.00
1399.919, 24065.00
1400.972, 23964.00
1402.024, 23953.00
1403.077, 24053.00
1404.129, 24030.00
1405.181, 24060.63
1406.233, 24111.71
1407.285, 24108.00
1408.337, 24205.00
1409.389, 24280.00
1410.440, 24361.00
1411.491, 24049.00
1412.542, 24344.00
1413.593, 24270.00
1414.644, 24315.00
1415.695, 24464.00
1416.745, 24498.00
1417.795, 24451.00
1418.845, 24287.00
1419.895, 24448.00
1420.945, 24288.00
1421.995, 24467.00
1423.044, 24536.00
1424.093, 24493.00
1425.142, 24444.00
1426.191, 24393.00
1427.240, 24408.93
1428.289, 24513.00
1429.337, 24452.00
1430.385, 24568.00
1431.433, 24598.00
1432.481, 24583.00
1433.529, 24547.00
1434.577, 24718.00
1435.624, 24545.00
1436.672, 24874.00
1437.719, 24714.00
1438.766, 24679.00
1439.812, 24897.00
1440.859, 24917.00
1441.905, 24971.00
1442.952, 24821.00
1443.998, 24796.00
1445.044, 24983.00
1446.090, 25044.00
1447.135, 24851.00
1448.181, 24893.00
1449.226, 25017.00
1450.271, 24890.00
1451.316, 24961.33
1452.361, 24958.00
1453.405, 24974.00
1454.450, 25018.00
1455.494, 25059.00
1456.538, 25047.00
1457.582, 24948.00
1458.626, 25035.00
1459.670, 25039.00
1460.713, 24986.00
1461.757, 25145.00
1462.800, 25210.00
1463.843, 25291.00
1464.886, 25177.00
1465.928, 25246.00
1466.971, 25386.00
1468.013, 25202.00
1469.055, 25438.00
1470.097, 25165.00
1471.139, 25371.00
1472.181, 25378.00
1473.222, 25182.00
1474.263, 25573.00
1475.305, 25467.00
1476.346, 25463.00
1477.386, 25656.00
1478.427, 25492.00
1479.468, 25559.00
1480.508, 25527.00
1481.548, 25546.00
1482.588, 25643.00
1483.628, 25642.00
1484.668, 25665.00
1485.707, 25730.18
1486.747, 25729.89
1487.786, 25820.00
1488.825, 25763.88
1489.864, 25779.00
1490.902, 25781.00
1491.941, 25824.00
1492.979, 25785.00
1494.017, 25910.00
1495.055, 25851.00
1496.093, 25847.00
1497.131, 26040.00
1498.168, 25884.00
1499.206, 26067.00
1500.243, 25925.00
1501.280, 26084.00
1502.317, 26117.00
1503.354, 26147.00
1504.390, 25953.00
1505.426, 25829.00
1506.463, 26036.00
1507.499, 25959.00
1508.535, 26040.00
1509.570, 26234.00
1510.606, 25989.00
1511.641, 26104.00
1512.676, 26269.00
1513.711, 26112.00
1514.746, 26306.00
1515.781, 25912.00
1516.816, 26196.00
1517.850, 26289.00
1518.884, 26382.00
1519.918, 26552.00
1520.952, 26512.65
1521.986, 26421.00
1523.019, 26442.00
1524.053, 26455.00
1525.086, 26390.00
1526.119, 26148.00
1527.152, 26500.00
1528.185, 26388.00
1529.217, 26405.00
1530.250, 26588.00
1531.282, 26559.00
1532.314, 26465.00
1533.346, 26528.00
1534.377, 26528.00
1535.409, 26654.00
1536.440, 26632.00
1537.472, 26640.00
1538.503, 26849.00
1539.534, 26904.00
1540.564, 26549.00
1541.595, 26768.00
1542.625, 26872.00
1543.656, 26593.00
1544.686, 26784.00
1545.716, 26773.00
1546.745, 26604.00
1547.775, 26424.00
1548.804, 26856.00
1549.834, 27012.00
1550.863, 26790.00
1551.892, 26805.00
1552.920, 26931.00
1553.949, 26839.00
1554.977, 27015.00
1556.006, 27140.00
1557.034, 26849.00
1558.062, 26969.00
1559.089, 27024.00
1560.117, 26974.00
1561.144, 27072.00
1562.172, 27184.00
1563.199, 27203.48
1564.226, 27189.00
1565.252, 27332.00
1566.279, 27336.00
1567.305, 27396.00
1568.332, 27444.00
1569.358, 27458.00
1570.384, 27353.00
##END=



