##NAMES=Baryte
##RRUFFID=R050342
##IDEAL CHEMISTRY=BaS^6+^O_4_
##LOCALITY=Palos Verdes, Los Angeles County, California, USA
##OWNER=RRUFF
##SOURCE=California Institute of Technology
##DESCRIPTION=Light brown fragment
##STATUS=The identification of this mineral has been confirmed by X-ray diffraction and chemical analysis
##URL=rruff.info/R050342
##MEASURED CHEMISTRY=Ba_1.00_S_1.00_O_4_
##PIN_ID=L01107
##ORIENTATION=Laser parallel to -a* (-1 0 0). Fiducial mark perpendicular to laser is parallel to b [0 1 0]
140.2710, 6653.000
141.5000, 6700.000
142.7280, 6862.000
143.9560, 6841.000
145.1840, 6869.000
146.4120, 6790.000
147.6390, 6913.000
148.8670, 6909.000
150.0940, 6941.000
151.3210, 6983.000
152.5490, 6971.000
153.7750, 7015.000
155.0020, 7007.000
156.2290, 7041.000
157.4550, 7026.000
158.6810, 7116.000
159.9080, 6990.000
161.1340, 7077.000
162.3590, 7154.000
163.5850, 7152.000
164.8110, 7038.000
166.0360, 7047.000
167.2610, 7107.000
168.4860, 7156.000
169.7110, 7227.000
170.9360, 7226.000
172.1610, 7181.000
173.3850, 7211.000
174.6100, 7259.000
175.8340, 7340.000
177.0580, 7298.000
178.2820, 7252.000
179.5050, 7311.000
180.7290, 7341.000
181.9520, 7285.000
183.1760, 7450.000
184.3990, 7439.000
185.6220, 7450.000
186.8450, 7507.000
188.0670, 7563.000
189.2900, 7525.000
190.5120, 7530.000
191.7340, 7527.185
192.9560, 7566.000
194.1780, 7500.000
195.4000, 7543.000
196.6220, 7535.000
197.8430, 7552.000
199.0640, 7537.000
200.2860, 7466.000
201.5070, 7673.000
202.7270, 7528.000
203.9480, 7638.000
205.1690, 7602.000
206.3890, 7585.000
207.6090, 7634.000
208.8290, 7701.000
210.0490, 7629.000
211.2690, 7628.000
212.4890, 7658.000
213.7080, 7586.000
214.9280, 7708.000
216.1470, 7695.000
217.3660, 7804.000
218.5850, 7839.000
219.8030, 7754.000
221.0220, 7756.000
222.2400, 7757.000
223.4590, 7777.000
224.6770, 7873.000
225.8950, 7857.000
227.1120, 7704.000
228.3300, 7725.000
229.5480, 7855.000
230.7650, 7815.000
231.9820, 7940.000
233.1990, 7910.000
234.4160, 7837.000
235.6330, 7897.000
236.8490, 7871.458
238.0660, 7953.000
239.2820, 7896.000
240.4980, 7946.000
241.7140, 7948.000
242.9300, 7933.000
244.1460, 8015.000
245.3610, 8049.000
246.5770, 8014.000
247.7920, 7969.000
249.0070, 8069.000
250.2220, 8168.000
251.4370, 8145.000
252.6510, 8192.812
253.8660, 8153.000
255.0800, 8188.000
256.2940, 8148.000
257.5080, 8150.000
258.7220, 8227.000
259.9360, 8129.000
261.1490, 8355.000
262.3630, 8197.000
263.5760, 8281.000
264.7890, 8286.000
266.0020, 8273.000
267.2150, 8378.000
268.4270, 8222.000
269.6400, 8248.000
270.8520, 8233.000
272.0640, 8331.000
273.2760, 8324.040
274.4880, 8417.000
275.7000, 8364.000
276.9120, 8393.000
278.1230, 8404.000
279.3340, 8419.000
280.5450, 8444.911
281.7560, 8441.000
282.9670, 8485.000
284.1780, 8484.800
285.3880, 8489.000
286.5980, 8510.000
287.8090, 8515.000
289.0190, 8506.000
290.2290, 8536.000
291.4380, 8557.000
292.6480, 8613.000
293.8570, 8496.000
295.0670, 8658.000
296.2760, 8565.000
297.4850, 8656.000
298.6930, 8533.000
299.9020, 8606.000
301.1110, 8669.000
302.3190, 8622.000
303.5270, 8650.000
304.7350, 8755.000
305.9430, 8818.000
307.1510, 8673.000
308.3580, 8752.000
309.5660, 8754.000
310.7730, 8832.000
311.9800, 8761.000
313.1870, 8921.000
314.3940, 8841.000
315.6010, 8859.000
316.8070, 8775.000
318.0130, 8884.000
319.2200, 8740.000
320.4260, 8894.000
321.6310, 8779.000
322.8370, 8835.000
324.0430, 8893.000
325.2480, 8918.000
326.4540, 8915.000
327.6590, 8930.000
328.8640, 8969.000
330.0680, 9085.000
331.2730, 9004.000
332.4780, 9033.000
333.6820, 8972.000
334.8860, 9041.000
336.0900, 9065.000
337.2940, 9039.000
338.4980, 9094.598
339.7010, 9020.000
340.9050, 9164.000
342.1080, 9077.000
343.3110, 9139.000
344.5140, 9187.000
345.7170, 9094.000
346.9200, 9110.000
348.1220, 9173.000
349.3240, 9123.000
350.5270, 9152.000
351.7290, 9272.000
352.9310, 9148.000
354.1320, 9210.000
355.3340, 9292.000
356.5350, 9320.000
357.7370, 9262.000
358.9380, 9185.000
360.1390, 9072.000
361.3400, 9340.000
362.5400, 9260.000
363.7410, 9346.000
364.9410, 9205.000
366.1410, 9282.000
367.3410, 9351.000
368.5410, 9327.000
369.7410, 9409.000
370.9400, 9444.000
372.1400, 9378.000
373.3390, 9494.000
374.5380, 9448.000
375.7370, 9426.000
376.9360, 9470.000
378.1350, 9456.033
379.3330, 9498.000
380.5310, 9479.000
381.7300, 9460.000
382.9280, 9434.000
384.1260, 9524.000
385.3230, 9570.000
386.5210, 9617.000
387.7180, 9492.000
388.9160, 9556.000
390.1130, 9503.000
391.3100, 9662.000
392.5060, 9642.000
393.7030, 9580.000
394.9000, 9646.000
396.0960, 9665.000
397.2920, 9654.000
398.4880, 9571.000
399.6840, 9680.000
400.8800, 9637.000
402.0750, 9741.000
403.2710, 9694.000
404.4660, 9823.000
405.6610, 9775.000
406.8560, 9792.000
408.0510, 9796.000
409.2450, 9804.000
410.4400, 9703.000
411.6340, 9900.000
412.8280, 9886.000
414.0220, 9969.000
415.2160, 9733.000
416.4100, 9903.000
417.6030, 9954.000
418.7970, 9949.000
419.9900, 10048.00
421.1830, 10021.00
422.3760, 10032.00
423.5690, 10066.00
424.7610, 10055.00
425.9540, 10071.00
427.1460, 10183.00
428.3380, 10110.00
429.5300, 10229.00
430.7220, 10344.00
431.9140, 10339.00
433.1050, 10524.00
434.2970, 10628.00
435.4880, 10751.00
436.6790, 10891.00
437.8700, 11219.00
439.0610, 11503.00
440.2510, 11876.00
441.4420, 12367.00
442.6320, 13327.00
443.8220, 14090.00
445.0120, 14837.00
446.2020, 15859.00
447.3910, 16673.00
448.5810, 17597.00
449.7700, 18232.00
450.9600, 19231.00
452.1490, 19702.00
453.3370, 19704.00
454.5260, 19030.00
455.7150, 17829.00
456.9030, 16239.00
458.0910, 14700.00
459.2800, 13421.00
460.4670, 12544.00
461.6550, 12002.00
462.8430, 11450.00
464.0300, 11379.00
465.2180, 11141.00
466.4050, 10983.00
467.5920, 10889.00
468.7790, 10898.00
469.9650, 10738.00
471.1520, 10764.00
472.3380, 10722.00
473.5250, 10770.00
474.7110, 10764.00
475.8970, 10735.00
477.0820, 10692.00
478.2680, 10763.00
479.4540, 10596.00
480.6390, 10709.00
481.8240, 10586.00
483.0090, 10579.00
484.1940, 10786.00
485.3780, 10706.00
486.5630, 10641.00
487.7470, 10714.00
488.9320, 10675.00
490.1160, 10754.00
491.3000, 10687.00
492.4830, 10680.00
493.6670, 10806.00
494.8500, 10733.00
496.0340, 10744.00
497.2170, 10623.00
498.4000, 10751.00
499.5820, 10860.00
500.7650, 10966.00
501.9480, 10870.00
503.1300, 10934.00
504.3120, 10912.00
505.4940, 10936.00
506.6760, 10937.00
507.8580, 10916.00
509.0390, 10817.00
510.2210, 10988.00
511.4020, 10948.00
512.5830, 10845.00
513.7640, 11061.00
514.9450, 10999.00
516.1250, 11118.00
517.3060, 10963.00
518.4860, 11038.00
519.6660, 10993.00
520.8460, 11035.00
522.0260, 10996.00
523.2060, 10957.00
524.3850, 11123.00
525.5650, 11242.00
526.7440, 11106.00
527.9230, 11241.00
529.1020, 11115.00
530.2810, 11215.00
531.4590, 11037.00
532.6380, 11279.00
533.8160, 11317.00
534.9940, 11168.00
536.1720, 11302.00
537.3500, 11264.00
538.5270, 11276.00
539.7050, 11308.00
540.8820, 11225.00
542.0590, 11150.00
543.2360, 11260.00
544.4130, 11260.00
545.5900, 11294.00
546.7660, 11412.00
547.9430, 11319.00
549.1190, 11339.00
550.2950, 11473.00
551.4710, 11507.00
552.6470, 11250.00
553.8220, 11454.00
554.9980, 11269.00
556.1730, 11485.00
557.3480, 11498.00
558.5230, 11387.00
559.6980, 11565.00
560.8730, 11473.00
562.0470, 11588.00
563.2220, 11473.00
564.3960, 11471.00
565.5700, 11448.00
566.7440, 11593.00
567.9170, 11563.00
569.0910, 11569.00
570.2640, 11488.00
571.4380, 11530.44
572.6110, 11523.61
573.7840, 11584.00
574.9570, 11594.00
576.1290, 11619.00
577.3020, 11723.00
578.4740, 11666.00
579.6460, 11716.00
580.8180, 11828.00
581.9900, 11587.00
583.1620, 11686.00
584.3330, 11716.00
585.5040, 11812.00
586.6760, 11762.00
587.8470, 11820.00
589.0180, 11726.00
590.1880, 11716.00
591.3590, 11785.00
592.5290, 11770.00
593.7000, 11795.00
594.8700, 11765.00
596.0400, 11788.01
597.2090, 11873.00
598.3790, 11837.00
599.5490, 11889.00
600.7180, 11954.00
601.8870, 11923.00
603.0560, 11947.00
604.2250, 12077.00
605.3940, 12187.00
606.5620, 12185.00
607.7300, 12420.00
608.8990, 12516.00
610.0670, 12745.00
611.2350, 12865.00
612.4020, 12957.00
613.5700, 13299.00
614.7370, 13507.00
615.9050, 13618.00
617.0720, 13687.00
618.2390, 13581.00
619.4060, 13538.00
620.5720, 13281.00
621.7390, 13016.00
622.9050, 12840.00
624.0710, 12855.00
625.2370, 12636.00
626.4030, 12523.00
627.5690, 12749.00
628.7340, 12630.00
629.9000, 12671.00
631.0650, 12623.00
632.2300, 12435.00
633.3950, 12488.00
634.5600, 12683.00
635.7240, 12329.00
636.8890, 12433.00
638.0530, 12622.00
639.2170, 12424.00
640.3810, 12506.00
641.5450, 12590.00
642.7080, 12683.00
643.8720, 12541.00
645.0350, 12566.00
646.1980, 12504.00
647.3610, 12656.00
648.5240, 12556.00
649.6870, 12483.00
650.8490, 12534.00
652.0120, 12475.00
653.1740, 12520.00
654.3360, 12486.00
655.4980, 12512.00
656.6600, 12582.00
657.8210, 12625.00
658.9830, 12559.00
660.1440, 12574.00
661.3050, 12596.00
662.4660, 12522.00
663.6270, 12670.00
664.7870, 12555.00
665.9480, 12556.00
667.1080, 12641.00
668.2680, 12644.00
669.4280, 12667.00
670.5880, 12715.97
671.7480, 12601.00
672.9070, 12758.00
674.0670, 12761.00
675.2260, 12720.00
676.3850, 12927.00
677.5440, 12748.00
678.7030, 12734.00
679.8610, 12593.00
681.0200, 12693.00
682.1780, 12681.94
683.3360, 12826.00
684.4940, 12790.00
685.6520, 12822.00
686.8090, 12882.00
687.9670, 12970.00
689.1240, 12807.00
690.2810, 12839.00
691.4380, 13041.00
692.5950, 12844.00
693.7520, 12866.00
694.9080, 12861.00
696.0650, 12838.00
697.2210, 12936.00
698.3770, 12931.00
699.5330, 13079.00
700.6880, 12908.00
701.8440, 12866.00
702.9990, 13069.00
704.1550, 13168.00
705.3100, 13033.00
706.4650, 13058.00
707.6190, 12976.00
708.7740, 13092.00
709.9290, 13068.00
711.0830, 13150.00
712.2370, 13062.00
713.3910, 13026.00
714.5450, 13250.00
715.6980, 13197.00
716.8520, 13201.00
718.0050, 13116.00
719.1580, 13226.00
720.3110, 13340.00
721.4640, 13192.00
722.6170, 13162.00
723.7700, 13179.00
724.9220, 13163.00
726.0740, 13358.00
727.2260, 13207.00
728.3780, 13344.00
729.5300, 13164.00
730.6810, 13372.00
731.8330, 13415.00
732.9840, 13368.00
734.1350, 13364.00
735.2860, 13346.00
736.4370, 13303.00
737.5880, 13433.00
738.7380, 13379.00
739.8880, 13448.00
741.0390, 13454.00
742.1890, 13596.00
743.3380, 13341.00
744.4880, 13592.00
745.6380, 13411.00
746.7870, 13469.00
747.9360, 13540.00
749.0850, 13582.00
750.2340, 13370.00
751.3830, 13659.00
752.5310, 13324.00
753.6800, 13589.00
754.8280, 13665.00
755.9760, 13570.00
757.1240, 13673.00
758.2720, 13647.00
759.4190, 13628.00
760.5670, 13597.00
761.7140, 13616.00
762.8610, 13469.00
764.0080, 13730.00
765.1550, 13742.00
766.3020, 13674.00
767.4480, 13852.00
768.5950, 13799.00
769.7410, 13856.00
770.8870, 13641.00
772.0330, 13826.00
773.1780, 13742.00
774.3240, 13835.00
775.4690, 13930.00
776.6140, 13736.00
777.7590, 13923.00
778.9040, 13913.00
780.0490, 13728.00
781.1940, 13901.00
782.3380, 13849.00
783.4820, 13830.00
784.6260, 13944.00
785.7700, 13830.00
786.9140, 13997.00
788.0580, 14038.00
789.2010, 14021.00
790.3450, 14158.00
791.4880, 14018.00
792.6310, 14062.00
793.7730, 14089.00
794.9160, 13970.00
796.0590, 13989.00
797.2010, 13919.00
798.3430, 14112.00
799.4850, 14006.00
800.6270, 14005.00
801.7690, 14230.00
802.9100, 14143.00
804.0520, 14145.00
805.1930, 14272.00
806.3340, 14217.00
807.4750, 14177.00
808.6160, 14295.00
809.7560, 14207.00
810.8970, 14282.00
812.0370, 14347.00
813.1770, 14228.00
814.3170, 14241.00
815.4570, 14123.00
816.5960, 14389.00
817.7360, 14270.00
818.8750, 14431.00
820.0140, 14299.00
821.1530, 14457.00
822.2920, 14350.00
823.4310, 14441.00
824.5690, 14262.00
825.7070, 14507.00
826.8460, 14529.00
827.9840, 14438.00
829.1220, 14408.00
830.2590, 14486.00
831.3970, 14357.00
832.5340, 14435.00
833.6710, 14511.00
834.8080, 14583.00
835.9450, 14690.00
837.0820, 14529.00
838.2190, 14509.00
839.3550, 14653.00
840.4910, 14689.00
841.6270, 14765.00
842.7630, 14582.00
843.8990, 14663.00
845.0350, 14526.00
846.1700, 14698.00
847.3060, 14574.00
848.4410, 14756.00
849.5760, 14759.00
850.7100, 14657.00
851.8450, 14868.00
852.9800, 14805.00
854.1140, 14818.00
855.2480, 14638.00
856.3820, 14750.00
857.5160, 14783.00
858.6500, 14810.00
859.7830, 14696.00
860.9170, 14832.00
862.0500, 14934.00
863.1830, 14729.00
864.3160, 14889.00
865.4480, 14928.00
866.5810, 14964.00
867.7130, 15041.00
868.8460, 15013.00
869.9780, 14841.00
871.1100, 15007.00
872.2410, 14927.00
873.3730, 14963.00
874.5050, 15041.00
875.6360, 15067.00
876.7670, 15008.00
877.8980, 15052.00
879.0290, 14855.00
880.1590, 15079.00
881.2900, 15010.00
882.4200, 14922.00
883.5500, 15056.00
884.6800, 15106.00
885.8100, 14921.00
886.9400, 15063.00
888.0690, 15141.00
889.1990, 15070.00
890.3280, 15102.00
891.4570, 15162.00
892.5860, 15118.00
893.7140, 15391.00
894.8430, 15275.00
895.9710, 15354.00
897.1000, 15285.00
898.2280, 15276.00
899.3560, 15228.00
900.4830, 15310.00
901.6110, 15366.00
902.7380, 15246.00
903.8660, 15417.00
904.9930, 15438.00
906.1200, 15268.00
907.2460, 15613.00
908.3730, 15506.00
909.5000, 15437.00
910.6260, 15509.00
911.7520, 15386.00
912.8780, 15427.00
914.0040, 15628.00
915.1290, 15609.00
916.2550, 15429.00
917.3800, 15510.00
918.5050, 15424.00
919.6300, 15528.00
920.7550, 15638.00
921.8800, 15653.00
923.0040, 15722.00
924.1290, 15475.00
925.2530, 15579.00
926.3770, 15759.00
927.5010, 15613.00
928.6250, 15742.00
929.7480, 15747.00
930.8720, 15758.00
931.9950, 15676.00
933.1180, 15754.00
934.2410, 15658.00
935.3640, 15659.00
936.4860, 15846.00
937.6090, 15880.00
938.7310, 15720.00
939.8530, 15750.00
940.9750, 16041.00
942.0970, 15926.00
943.2180, 15979.00
944.3400, 15975.00
945.4610, 16070.00
946.5820, 15995.00
947.7030, 15997.00
948.8240, 15963.00
949.9450, 15958.01
951.0650, 15983.00
952.1860, 15987.00
953.3060, 16031.00
954.4260, 16083.00
955.5460, 16147.00
956.6650, 16131.00
957.7850, 16244.00
958.9040, 16237.00
960.0230, 16209.00
961.1420, 16276.00
962.2610, 16285.00
963.3800, 16338.00
964.4990, 16397.00
965.6170, 16414.00
966.7350, 16459.00
967.8530, 16477.00
968.9710, 16580.00
970.0890, 16668.00
971.2070, 16602.00
972.3240, 16905.00
973.4410, 16858.00
974.5580, 17147.00
975.6750, 17341.00
976.7920, 17570.00
977.9090, 18215.00
979.0250, 19373.00
980.1410, 21253.00
981.2580, 25000.00
982.3740, 30898.00
983.4890, 36936.00
984.6050, 41442.00
985.7200, 47486.00
986.8360, 52785.00
987.9510, 57252.00
989.0660, 57295.00
990.1810, 50295.00
991.2950, 39164.00
992.4100, 28677.00
993.5240, 22939.00
994.6390, 20194.00
995.7530, 18914.00
996.8660, 18076.00
997.9800, 17868.00
999.0940, 17491.00
1000.207, 17441.00
1001.320, 17159.00
1002.433, 17259.00
1003.546, 17122.00
1004.659, 17097.00
1005.772, 17113.00
1006.884, 16914.00
1007.996, 16975.00
1009.108, 17048.00
1010.220, 16847.00
1011.332, 16988.00
1012.444, 16882.00
1013.555, 16939.00
1014.666, 17113.00
1015.777, 17036.00
1016.888, 16856.00
1017.999, 16824.00
1019.110, 16976.00
1020.220, 17049.00
1021.331, 16891.00
1022.441, 17059.00
1023.551, 17007.00
1024.661, 17014.00
1025.770, 17031.00
1026.880, 17009.00
1027.989, 17058.00
1029.098, 16886.00
1030.207, 16810.00
1031.316, 17074.00
1032.425, 16933.00
1033.533, 17002.00
1034.642, 17113.00
1035.750, 17064.00
1036.858, 17010.00
1037.966, 17132.00
1039.073, 17187.00
1040.181, 17205.00
1041.288, 17173.00
1042.396, 17282.00
1043.503, 17087.00
1044.610, 17119.00
1045.716, 17242.00
1046.823, 17221.00
1047.929, 17331.00
1049.036, 17191.00
1050.142, 17175.00
1051.248, 17365.00
1052.353, 17267.00
1053.459, 17398.00
1054.564, 17266.00
1055.670, 17414.00
1056.775, 17193.00
1057.880, 17530.00
1058.985, 17399.00
1060.089, 17499.00
1061.194, 17336.00
1062.298, 17319.00
1063.402, 17359.00
1064.506, 17515.00
1065.610, 17515.00
1066.713, 17524.00
1067.817, 17559.00
1068.920, 17424.00
1070.023, 17478.00
1071.126, 17538.00
1072.229, 17552.00
1073.332, 17668.00
1074.435, 17768.00
1075.537, 17717.00
1076.639, 17801.00
1077.741, 17822.00
1078.843, 17825.00
1079.945, 18049.00
1081.046, 17961.00
1082.148, 18029.00
1083.249, 17981.00
1084.350, 18136.00
1085.451, 17789.00
1086.551, 17967.00
1087.652, 17926.00
1088.752, 17846.00
1089.853, 17984.00
1090.953, 17960.00
1092.053, 17900.00
1093.152, 18045.00
1094.252, 18160.00
1095.351, 18154.00
1096.451, 18524.00
1097.550, 18615.00
1098.649, 18810.00
1099.748, 19081.00
1100.846, 19268.00
1101.945, 19371.00
1103.043, 19659.00
1104.141, 19742.00
1105.239, 19704.00
1106.337, 19681.00
1107.434, 19169.00
1108.532, 18881.00
1109.629, 18904.00
1110.726, 18441.00
1111.823, 18405.00
1112.920, 18330.00
1114.017, 18217.00
1115.113, 18305.00
1116.210, 18338.00
1117.306, 18356.00
1118.402, 18411.40
1119.498, 18425.79
1120.593, 18465.00
1121.689, 18471.00
1122.784, 18463.00
1123.879, 18482.24
1124.974, 18152.00
1126.069, 18383.00
1127.164, 18432.00
1128.259, 18293.00
1129.353, 18492.00
1130.447, 18432.00
1131.541, 18391.00
1132.635, 18427.00
1133.729, 18398.00
1134.822, 18394.00
1135.916, 18361.00
1137.009, 18576.00
1138.102, 18637.00
1139.195, 18708.00
1140.288, 18733.42
1141.380, 18697.26
1142.473, 18675.00
1143.565, 18576.00
1144.657, 18530.00
1145.749, 18482.00
1146.841, 18675.00
1147.932, 18449.00
1149.024, 18610.00
1150.115, 18637.00
1151.206, 18494.00
1152.297, 18599.00
1153.388, 18634.00
1154.479, 18754.00
1155.569, 18712.00
1156.659, 18769.57
1157.750, 18630.00
1158.839, 18812.00
1159.929, 18739.00
1161.019, 18766.00
1162.108, 18847.00
1163.198, 18723.00
1164.287, 18888.00
1165.376, 18874.00
1166.465, 18869.00
1167.553, 18992.00
1168.642, 18907.00
1169.730, 18984.00
1170.818, 18990.00
1171.906, 18948.00
1172.994, 18964.00
1174.082, 18927.58
1175.170, 18908.72
1176.257, 18876.00
1177.344, 18902.00
1178.431, 18900.00
1179.518, 18984.00
1180.605, 18916.00
1181.691, 19114.00
1182.778, 18981.00
1183.864, 19015.00
1184.950, 19065.00
1186.036, 18980.00
1187.122, 19185.00
1188.207, 19203.00
1189.292, 19065.00
1190.378, 19254.00
1191.463, 18929.00
1192.548, 19260.00
1193.632, 19371.00
1194.717, 19181.00
1195.801, 19083.00
1196.886, 19159.00
1197.970, 19128.00
1199.054, 19185.00
1200.137, 19210.00
1201.221, 19298.00
1202.305, 19333.00
1203.388, 19249.00
1204.471, 19345.00
1205.554, 19321.12
1206.637, 19363.00
1207.719, 19339.00
1208.802, 19356.00
1209.884, 19358.00
1210.966, 19463.00
1212.048, 19420.00
1213.130, 19279.00
1214.212, 19538.00
1215.293, 19413.00
1216.374, 19393.00
1217.456, 19589.00
1218.536, 19611.00
1219.617, 19542.00
1220.698, 19712.00
1221.778, 19593.00
1222.859, 19520.00
1223.939, 19732.00
1225.019, 19700.00
1226.099, 19624.00
1227.178, 19500.00
1228.258, 19623.00
1229.337, 19619.00
1230.417, 19912.00
1231.496, 19687.00
1232.574, 19837.00
1233.653, 19810.00
1234.732, 19739.00
1235.810, 19631.00
1236.888, 19612.00
1237.966, 19741.00
1239.044, 19767.00
1240.122, 19924.00
1241.199, 19939.88
1242.277, 19974.00
1243.354, 20013.00
1244.431, 19900.00
1245.508, 19958.00
1246.585, 19925.00
1247.661, 19780.00
1248.738, 19764.00
1249.814, 20019.00
1250.890, 19994.00
1251.966, 20063.00
1253.042, 20091.00
1254.117, 20259.00
1255.193, 20008.00
1256.268, 20076.00
1257.343, 19971.00
1258.418, 20181.00
1259.493, 20128.00
1260.567, 20008.00
1261.642, 20220.00
1262.716, 20017.00
1263.790, 20158.00
1264.864, 20288.00
1265.938, 20199.00
1267.011, 20245.00
1268.085, 20313.00
1269.158, 20344.00
1270.231, 20208.00
1271.304, 20148.00
1272.377, 20297.00
1273.450, 20193.00
1274.522, 20347.00
1275.594, 20182.00
1276.666, 20297.00
1277.738, 20495.00
1278.810, 20317.00
1279.882, 20430.00
1280.953, 20444.00
1282.025, 20425.00
1283.096, 20541.00
1284.167, 20435.00
1285.238, 20486.00
1286.308, 20390.00
1287.379, 20448.00
1288.449, 20641.00
1289.519, 20507.00
1290.589, 20432.00
1291.659, 20729.00
1292.729, 20559.00
1293.798, 20562.00
1294.868, 20655.00
1295.937, 20774.00
1297.006, 20612.00
1298.075, 20735.00
1299.143, 20556.00
1300.212, 20524.00
1301.280, 20656.00
1302.348, 20882.00
1303.416, 20641.00
1304.484, 20809.00
1305.552, 20720.00
1306.620, 20671.00
1307.687, 20886.00
1308.754, 20973.00
1309.821, 20723.00
1310.888, 20917.00
1311.955, 21014.00
1313.021, 20795.00
1314.088, 20763.00
1315.154, 20886.00
1316.220, 21049.00
1317.286, 20884.00
1318.352, 20890.00
1319.417, 20979.00
1320.483, 20998.00
1321.548, 20929.00
1322.613, 21047.00
1323.678, 21021.00
1324.743, 20919.00
1325.807, 21093.00
1326.872, 20941.00
1327.936, 21004.00
1329.000, 21053.00
1330.064, 21052.00
1331.128, 21083.89
1332.191, 21029.00
1333.255, 21110.00
1334.318, 21130.00
1335.381, 21172.00
1336.444, 21289.00
1337.507, 21204.00
1338.569, 21100.00
1339.632, 21203.00
1340.694, 21236.00
1341.756, 21258.00
1342.818, 21289.67
1343.880, 21183.00
1344.941, 21335.00
1346.003, 21290.00
1347.064, 21388.00
1348.125, 21366.00
1349.186, 21234.00
1350.247, 21217.00
1351.308, 21428.00
1352.368, 21225.00
1353.428, 21511.00
1354.489, 21457.00
1355.549, 21351.00
1356.608, 21363.00
1357.668, 21520.00
1358.727, 21364.00
1359.787, 21422.00
1360.846, 21618.00
1361.905, 21485.00
1362.964, 21477.00
1364.022, 21534.00
1365.081, 21549.00
1366.139, 21608.00
1367.197, 21542.00
1368.255, 21561.27
1369.313, 21433.00
1370.371, 21596.00
1371.428, 21567.00
1372.486, 21732.00
1373.543, 21611.00
1374.600, 21742.00
1375.657, 21703.00
1376.713, 21789.00
1377.770, 21731.00
1378.826, 21722.00
1379.882, 21831.00
1380.938, 21753.43
1381.994, 21808.00
1383.050, 21721.00
1384.106, 21852.00
1385.161, 21892.00
1386.216, 21730.00
1387.271, 21891.00
1388.326, 21821.00
1389.381, 21877.00
1390.435, 21910.00
1391.490, 21906.06
1392.544, 21940.00
1393.598, 21967.00
1394.652, 21908.00
1395.705, 21968.00
1396.759, 22007.00
1397.812, 21911.00
1398.866, 21976.00
1399.919, 22075.00
1400.972, 22069.00
1402.024, 22081.00
1403.077, 22028.00
1404.129, 21968.00
1405.181, 22198.00
1406.233, 22194.00
1407.285, 22224.00
1408.337, 22083.00
1409.389, 22322.00
1410.440, 22123.00
1411.491, 22069.00
1412.542, 22090.00
1413.593, 22245.00
1414.644, 22176.97
1415.695, 22141.00
1416.745, 22212.00
1417.795, 22176.00
1418.845, 22286.00
1419.895, 22188.00
1420.945, 22378.00
1421.995, 22299.00
1423.044, 22314.00
1424.093, 22332.00
1425.142, 22429.00
1426.191, 22493.00
1427.240, 22413.00
1428.289, 22291.00
1429.337, 22346.00
1430.385, 22418.00
1431.433, 22390.00
1432.481, 22615.00
1433.529, 22401.00
1434.577, 22417.00
1435.624, 22573.00
1436.672, 22543.00
1437.719, 22567.00
1438.766, 22537.00
1439.812, 22529.00
1440.859, 22535.00
1441.905, 22548.32
1442.952, 22547.00
1443.998, 22574.00
1445.044, 22574.24
1446.090, 22682.00
1447.135, 22639.00
1448.181, 22715.00
1449.226, 22866.00
1450.271, 22733.00
1451.316, 22662.00
1452.361, 22891.00
1453.405, 22712.00
1454.450, 22704.00
1455.494, 22794.00
1456.538, 22783.00
1457.582, 22896.00
1458.626, 22700.00
1459.670, 22920.00
1460.713, 22899.00
1461.757, 22790.00
1462.800, 22902.00
1463.843, 22874.00
1464.886, 22986.00
1465.928, 23004.00
1466.971, 22988.84
1468.013, 23086.00
1469.055, 23005.00
1470.097, 23014.00
1471.139, 23142.00
1472.181, 23021.00
1473.222, 22933.00
1474.263, 22982.00
1475.305, 23189.00
1476.346, 23148.00
1477.386, 23052.00
1478.427, 23341.00
1479.468, 23340.00
1480.508, 23190.00
1481.548, 23307.00
1482.588, 23276.00
1483.628, 23137.00
1484.668, 23100.00
1485.707, 23405.00
1486.747, 23220.00
1487.786, 23470.00
1488.825, 23301.00
1489.864, 23409.00
1490.902, 23376.00
1491.941, 23431.00
1492.979, 23448.29
1494.017, 23532.00
1495.055, 23454.00
1496.093, 23417.00
1497.131, 23388.66
1498.168, 23506.00
1499.206, 23421.00
1500.243, 23600.00
1501.280, 23716.00
1502.317, 23566.00
1503.354, 23750.00
1504.390, 23552.00
1505.426, 23524.00
1506.463, 23661.00
1507.499, 23674.00
1508.535, 23692.89
1509.570, 23646.00
1510.606, 23725.00
1511.641, 23645.00
1512.676, 23666.00
1513.711, 23962.00
1514.746, 23728.00
1515.781, 23701.00
1516.816, 23927.00
1517.850, 23842.00
1518.884, 23665.00
1519.918, 24005.00
1520.952, 23939.00
1521.986, 23938.00
1523.019, 23971.00
1524.053, 23876.00
1525.086, 23853.00
1526.119, 23697.00
1527.152, 23867.00
1528.185, 23836.00
1529.217, 24002.00
1530.250, 24013.00
1531.282, 24066.00
1532.314, 24026.00
1533.346, 24189.00
1534.377, 24170.00
1535.409, 24131.00
1536.440, 24160.00
1537.472, 24070.00
1538.503, 23919.00
1539.534, 23951.00
1540.564, 23967.82
1541.595, 24023.00
1542.625, 24127.00
1543.656, 24112.00
1544.686, 24158.00
1545.716, 24208.00
1546.745, 24133.00
1547.775, 24339.00
1548.804, 24122.00
1549.834, 24272.00
1550.863, 24420.00
1551.892, 24456.00
1552.920, 24377.00
1553.949, 24535.00
1554.977, 24332.00
1556.006, 24486.00
1557.034, 24492.00
1558.062, 24422.00
1559.089, 24348.00
1560.117, 24521.00
1561.144, 24512.00
1562.172, 24557.00
1563.199, 24597.00
1564.226, 24441.00
1565.252, 24476.00
1566.279, 24613.00
1567.305, 24544.00
1568.332, 24910.00
1569.358, 24698.00
1570.384, 24695.00
##END=



