##NAMES=Bertrandite
##RRUFFID=R060800
##IDEAL CHEMISTRY=Be_4_Si_2_O_7_(OH)_2_
##LOCALITY=Golconda mine, Governador Valadares, Minas Gerais, Brazil
##OWNER=RRUFF
##SOURCE=Bob Jenkins
##DESCRIPTION=Colorless pseudohexagonal prisms
##STATUS=The identification of this mineral is confirmed by single-crystal X-ray diffraction and chemical analysis.
##URL=rruff.info/R060800
##MEASURED CHEMISTRY=Be_4.00_Si_2.00_O_7_(OH)_2_
##PIN_ID=M00454
##ORIENTATION=Laser parallel to a* (1 0 0). Fiducial mark perpendicular to laser is parallel to b [0 1 0]
123.0580, 6482.000
124.2880, 6512.000
125.5190, 6439.000
126.7490, 6506.000
127.9790, 6622.000
129.2090, 6603.000
130.4390, 6785.000
131.6680, 6738.000
132.8980, 6844.000
134.1270, 6883.000
135.3560, 6987.000
136.5850, 7068.000
137.8140, 7144.000
139.0430, 7323.000
140.2710, 7315.000
141.5000, 7447.000
142.7280, 7457.000
143.9560, 7340.000
145.1840, 7277.000
146.4120, 7258.000
147.6390, 7184.000
148.8670, 7135.000
150.0940, 7211.000
151.3210, 7293.000
152.5490, 7315.000
153.7750, 7243.000
155.0020, 7360.000
156.2290, 7286.000
157.4550, 7432.000
158.6810, 7402.000
159.9080, 7503.000
161.1340, 7500.000
162.3590, 7554.000
163.5850, 7562.000
164.8110, 7628.303
166.0360, 7826.000
167.2610, 7837.000
168.4860, 8083.000
169.7110, 8350.000
170.9360, 9217.000
172.1610, 10179.00
173.3850, 11247.00
174.6100, 12439.00
175.8340, 13187.00
177.0580, 14889.00
178.2820, 18023.00
179.5050, 21518.00
180.7290, 24051.00
181.9520, 24020.00
183.1760, 22299.00
184.3990, 20353.00
185.6220, 18030.00
186.8450, 16144.00
188.0670, 14522.00
189.2900, 13409.00
190.5120, 13086.00
191.7340, 14040.00
192.9560, 16726.00
194.1780, 21394.00
195.4000, 26067.00
196.6220, 28901.00
197.8430, 31134.00
199.0640, 38299.00
200.2860, 49145.00
201.5070, 58358.00
202.7270, 61347.00
203.9480, 56940.00
205.1690, 49688.00
206.3890, 41601.00
207.6090, 33511.00
208.8290, 25941.00
210.0490, 19649.00
211.2690, 14794.00
212.4890, 12087.00
213.7080, 10656.00
214.9280, 10064.00
216.1470, 9849.000
217.3660, 10004.00
218.5850, 10524.00
219.8030, 11217.00
221.0220, 11676.00
222.2400, 12166.00
223.4590, 13459.00
224.6770, 15616.00
225.8950, 17562.00
227.1120, 18820.00
228.3300, 18477.00
229.5480, 17578.00
230.7650, 16635.00
231.9820, 15473.00
233.1990, 14338.00
234.4160, 13509.00
235.6330, 13200.00
236.8490, 13815.00
238.0660, 14463.00
239.2820, 14474.00
240.4980, 14039.00
241.7140, 13445.00
242.9300, 12393.00
244.1460, 11511.00
245.3610, 10694.00
246.5770, 10010.00
247.7920, 9482.000
249.0070, 9238.000
250.2220, 8992.000
251.4370, 8912.000
252.6510, 8774.000
253.8660, 8720.000
255.0800, 8869.000
256.2940, 8674.000
257.5080, 8847.000
258.7220, 8886.000
259.9360, 8803.000
261.1490, 8767.000
262.3630, 8759.663
263.5760, 8816.000
264.7890, 8754.000
266.0020, 8708.000
267.2150, 8781.000
268.4270, 8729.000
269.6400, 8644.000
270.8520, 8708.000
272.0640, 8601.000
273.2760, 8684.000
274.4880, 8788.000
275.7000, 8685.000
276.9120, 8668.000
278.1230, 8748.000
279.3340, 8767.000
280.5450, 8845.000
281.7560, 8822.000
282.9670, 8920.000
284.1780, 8812.000
285.3880, 8939.000
286.5980, 8989.000
287.8090, 8999.000
289.0190, 9252.000
290.2290, 9501.000
291.4380, 9578.000
292.6480, 9711.000
293.8570, 10660.00
295.0670, 10796.00
296.2760, 11047.00
297.4850, 10999.00
298.6930, 10905.00
299.9020, 10615.00
301.1110, 10108.00
302.3190, 9808.000
303.5270, 9548.000
304.7350, 9304.000
305.9430, 9291.000
307.1510, 9337.000
308.3580, 9171.000
309.5660, 9167.000
310.7730, 9239.000
311.9800, 9130.000
313.1870, 9165.000
314.3940, 9081.000
315.6010, 9037.000
316.8070, 9107.000
318.0130, 9198.000
319.2200, 9093.000
320.4260, 9162.000
321.6310, 9247.000
322.8370, 9222.000
324.0430, 9283.000
325.2480, 9280.000
326.4540, 9456.000
327.6590, 9453.000
328.8640, 9444.000
330.0680, 9400.000
331.2730, 9369.938
332.4780, 9453.000
333.6820, 9337.000
334.8860, 9311.000
336.0900, 9430.000
337.2940, 9406.000
338.4980, 9368.000
339.7010, 9439.000
340.9050, 9418.707
342.1080, 9482.000
343.3110, 9489.000
344.5140, 9599.000
345.7170, 9717.000
346.9200, 9860.000
348.1220, 9910.000
349.3240, 10325.00
350.5270, 10413.00
351.7290, 10459.00
352.9310, 10983.00
354.1320, 11534.00
355.3340, 12085.00
356.5350, 12395.00
357.7370, 12748.99
358.9380, 12710.00
360.1390, 13123.00
361.3400, 13546.00
362.5400, 13522.00
363.7410, 12902.00
364.9410, 12405.00
366.1410, 11835.00
367.3410, 11236.00
368.5410, 10612.00
369.7410, 10283.00
370.9400, 10108.00
372.1400, 10043.00
373.3390, 9824.000
374.5380, 9869.000
375.7370, 9846.000
376.9360, 9769.000
378.1350, 9806.000
379.3330, 9808.000
380.5310, 9750.000
381.7300, 9962.000
382.9280, 9916.000
384.1260, 9906.000
385.3230, 9866.000
386.5210, 9920.679
387.7180, 10074.00
388.9160, 10051.00
390.1130, 10137.00
391.3100, 10210.00
392.5060, 10153.00
393.7030, 10284.00
394.9000, 10230.00
396.0960, 10337.00
397.2920, 10325.00
398.4880, 10396.00
399.6840, 10309.00
400.8800, 10237.00
402.0750, 10285.00
403.2710, 10357.00
404.4660, 10393.00
405.6610, 10625.00
406.8560, 10629.00
408.0510, 10880.00
409.2450, 11095.00
410.4400, 11145.00
411.6340, 11336.00
412.8280, 11547.00
414.0220, 11791.00
415.2160, 11742.00
416.4100, 11681.00
417.6030, 11725.00
418.7970, 11545.00
419.9900, 11322.00
421.1830, 11085.00
422.3760, 10876.00
423.5690, 10667.00
424.7610, 10573.00
425.9540, 10548.00
427.1460, 10447.00
428.3380, 10437.00
429.5300, 10525.00
430.7220, 10243.00
431.9140, 10477.00
433.1050, 10406.00
434.2970, 10525.00
435.4880, 10432.00
436.6790, 10528.00
437.8700, 10638.00
439.0610, 10691.00
440.2510, 10771.00
441.4420, 11008.00
442.6320, 11034.00
443.8220, 11187.00
445.0120, 11512.00
446.2020, 11537.00
447.3910, 11703.00
448.5810, 11519.00
449.7700, 11443.00
450.9600, 11032.00
452.1490, 10899.00
453.3370, 10710.00
454.5260, 10656.00
455.7150, 10632.00
456.9030, 10515.00
458.0910, 10501.00
459.2800, 10554.00
460.4670, 10458.00
461.6550, 10493.01
462.8430, 10446.00
464.0300, 10491.00
465.2180, 10491.00
466.4050, 10486.00
467.5920, 10434.00
468.7790, 10435.00
469.9650, 10379.00
471.1520, 10400.00
472.3380, 10447.00
473.5250, 10527.00
474.7110, 10436.00
475.8970, 10538.00
477.0820, 10558.00
478.2680, 10640.00
479.4540, 10839.00
480.6390, 10862.00
481.8240, 10948.00
483.0090, 10954.00
484.1940, 11107.00
485.3780, 11458.00
486.5630, 11607.00
487.7470, 11744.00
488.9320, 11875.00
490.1160, 11642.00
491.3000, 11666.00
492.4830, 11550.00
493.6670, 11538.00
494.8500, 11578.00
496.0340, 11535.00
497.2170, 11372.00
498.4000, 11392.00
499.5820, 11415.00
500.7650, 11301.00
501.9480, 11003.00
503.1300, 11061.00
504.3120, 11015.00
505.4940, 10833.00
506.6760, 10885.00
507.8580, 10901.00
509.0390, 10982.00
510.2210, 10953.00
511.4020, 10899.00
512.5830, 10728.00
513.7640, 11019.00
514.9450, 10997.00
516.1250, 10877.00
517.3060, 10977.00
518.4860, 10827.00
519.6660, 11076.00
520.8460, 11098.00
522.0260, 11046.00
523.2060, 11156.00
524.3850, 11248.00
525.5650, 11140.00
526.7440, 11403.00
527.9230, 11404.00
529.1020, 11600.00
530.2810, 11754.00
531.4590, 11985.00
532.6380, 12380.00
533.8160, 12533.00
534.9940, 12915.00
536.1720, 12831.00
537.3500, 12683.00
538.5270, 12323.00
539.7050, 12144.00
540.8820, 11666.00
542.0590, 11671.00
543.2360, 11445.00
544.4130, 11425.00
545.5900, 11320.00
546.7660, 11371.00
547.9430, 11306.00
549.1190, 11289.00
550.2950, 11274.00
551.4710, 11364.00
552.6470, 11355.37
553.8220, 11367.00
554.9980, 11414.00
556.1730, 11409.00
557.3480, 11425.00
558.5230, 11424.00
559.6980, 11459.00
560.8730, 11520.29
562.0470, 11571.84
563.2220, 11679.00
564.3960, 11730.00
565.5700, 11818.00
566.7440, 11914.00
567.9170, 12125.00
569.0910, 12462.00
570.2640, 12807.00
571.4380, 13334.00
572.6110, 13787.00
573.7840, 14283.00
574.9570, 15324.00
576.1290, 15991.00
577.3020, 16194.00
578.4740, 16208.00
579.6460, 15553.00
580.8180, 14836.00
581.9900, 14206.00
583.1620, 13354.00
584.3330, 12781.00
585.5040, 12529.00
586.6760, 12187.00
587.8470, 12122.00
589.0180, 12059.00
590.1880, 12044.00
591.3590, 11894.00
592.5290, 11750.00
593.7000, 12037.00
594.8700, 12055.00
596.0400, 11769.00
597.2090, 11804.00
598.3790, 11731.00
599.5490, 11808.00
600.7180, 11809.00
601.8870, 11863.00
603.0560, 11826.00
604.2250, 11933.00
605.3940, 11948.00
606.5620, 12025.00
607.7300, 11898.00
608.8990, 11910.00
610.0670, 11901.00
611.2350, 12135.00
612.4020, 12076.00
613.5700, 12180.00
614.7370, 12248.00
615.9050, 12341.00
617.0720, 12300.00
618.2390, 12654.00
619.4060, 12512.00
620.5720, 12754.00
621.7390, 12687.00
622.9050, 12851.00
624.0710, 12628.00
625.2370, 12692.00
626.4030, 12588.00
627.5690, 12309.00
628.7340, 12274.00
629.9000, 12139.00
631.0650, 12131.00
632.2300, 12123.94
633.3950, 12120.00
634.5600, 12214.00
635.7240, 12139.00
636.8890, 12271.00
638.0530, 12367.00
639.2170, 12257.00
640.3810, 12195.00
641.5450, 12324.00
642.7080, 12359.00
643.8720, 12285.00
645.0350, 12283.00
646.1980, 12402.00
647.3610, 12320.00
648.5240, 12336.00
649.6870, 12383.00
650.8490, 12342.00
652.0120, 12334.00
653.1740, 12454.00
654.3360, 12326.00
655.4980, 12430.00
656.6600, 12380.00
657.8210, 12354.00
658.9830, 12292.00
660.1440, 12471.00
661.3050, 12567.00
662.4660, 12750.00
663.6270, 12563.00
664.7870, 12670.00
665.9480, 12770.00
667.1080, 12690.00
668.2680, 12803.00
669.4280, 12886.00
670.5880, 13215.00
671.7480, 13277.00
672.9070, 13635.00
674.0670, 13794.00
675.2260, 14138.00
676.3850, 14440.00
677.5440, 14843.00
678.7030, 15113.00
679.8610, 15370.00
681.0200, 15867.00
682.1780, 16365.00
683.3360, 17127.00
684.4940, 17976.00
685.6520, 18738.00
686.8090, 19902.00
687.9670, 20673.00
689.1240, 21283.00
690.2810, 21318.00
691.4380, 20593.00
692.5950, 19801.00
693.7520, 18897.00
694.9080, 18257.00
696.0650, 17328.00
697.2210, 16759.00
698.3770, 16194.00
699.5330, 16069.00
700.6880, 15895.00
701.8440, 16188.00
702.9990, 16422.00
704.1550, 17097.00
705.3100, 17733.00
706.4650, 18721.00
707.6190, 19328.00
708.7740, 20208.00
709.9290, 20517.00
711.0830, 20710.00
712.2370, 20225.00
713.3910, 19595.00
714.5450, 18829.00
715.6980, 17656.00
716.8520, 16728.00
718.0050, 16087.00
719.1580, 15401.00
720.3110, 15084.00
721.4640, 14561.00
722.6170, 14445.00
723.7700, 13963.00
724.9220, 14200.00
726.0740, 14254.00
727.2260, 14196.00
728.3780, 14090.00
729.5300, 14088.00
730.6810, 14222.00
731.8330, 14279.00
732.9840, 14278.00
734.1350, 14309.00
735.2860, 14287.00
736.4370, 14326.00
737.5880, 14112.00
738.7380, 14080.00
739.8880, 14142.00
741.0390, 13993.00
742.1890, 14107.00
743.3380, 14069.00
744.4880, 14226.00
745.6380, 14532.00
746.7870, 14816.00
747.9360, 15165.00
749.0850, 15371.00
750.2340, 15672.00
751.3830, 16178.00
752.5310, 16429.00
753.6800, 16547.00
754.8280, 16522.00
755.9760, 16242.00
757.1240, 16006.00
758.2720, 15902.00
759.4190, 15743.00
760.5670, 15765.00
761.7140, 15915.00
762.8610, 15978.00
764.0080, 16349.00
765.1550, 17091.00
766.3020, 17525.00
767.4480, 18191.00
768.5950, 18996.00
769.7410, 19501.00
770.8870, 19547.00
772.0330, 19401.00
773.1780, 18949.00
774.3240, 18108.00
775.4690, 17101.00
776.6140, 16483.00
777.7590, 15773.00
778.9040, 15388.00
780.0490, 14797.00
781.1940, 14589.00
782.3380, 14444.00
783.4820, 14433.00
784.6260, 14276.00
785.7700, 14112.00
786.9140, 14204.00
788.0580, 14157.00
789.2010, 13984.00
790.3450, 14015.00
791.4880, 14013.00
792.6310, 14096.00
793.7730, 13961.00
794.9160, 13890.00
796.0590, 13828.00
797.2010, 14047.00
798.3430, 13981.00
799.4850, 13911.00
800.6270, 13685.00
801.7690, 13764.00
802.9100, 13816.00
804.0520, 13845.00
805.1930, 13950.00
806.3340, 13993.00
807.4750, 13912.00
808.6160, 13868.00
809.7560, 13938.00
810.8970, 13952.00
812.0370, 13944.00
813.1770, 13979.73
814.3170, 13921.00
815.4570, 14024.00
816.5960, 14037.00
817.7360, 14104.00
818.8750, 14207.00
820.0140, 14211.00
821.1530, 14187.00
822.2920, 14133.00
823.4310, 14150.00
824.5690, 14153.00
825.7070, 14187.00
826.8460, 14207.00
827.9840, 14178.91
829.1220, 14104.00
830.2590, 14100.00
831.3970, 14052.00
832.5340, 14047.74
833.6710, 14053.31
834.8080, 14072.00
835.9450, 14099.00
837.0820, 14152.00
838.2190, 14216.53
839.3550, 14247.00
840.4910, 14255.00
841.6270, 14189.00
842.7630, 14070.00
843.8990, 14049.00
845.0350, 14221.00
846.1700, 14052.00
847.3060, 14181.00
848.4410, 14126.00
849.5760, 14075.00
850.7100, 14219.00
851.8450, 14064.00
852.9800, 14201.00
854.1140, 14046.00
855.2480, 14252.00
856.3820, 14172.00
857.5160, 14169.00
858.6500, 14337.00
859.7830, 14142.00
860.9170, 14156.00
862.0500, 14234.00
863.1830, 14064.00
864.3160, 14217.00
865.4480, 14367.00
866.5810, 14300.00
867.7130, 14541.00
868.8460, 14281.00
869.9780, 14256.00
871.1100, 14510.00
872.2410, 14431.00
873.3730, 14204.00
874.5050, 14382.00
875.6360, 14477.00
876.7670, 14255.00
877.8980, 14537.00
879.0290, 14430.00
880.1590, 14653.00
881.2900, 14461.00
882.4200, 14313.00
883.5500, 14584.00
884.6800, 14612.00
885.8100, 14540.00
886.9400, 14630.00
888.0690, 14694.00
889.1990, 14587.00
890.3280, 14536.00
891.4570, 14579.00
892.5860, 14684.00
893.7140, 14428.00
894.8430, 14566.00
895.9710, 14430.00
897.1000, 14560.00
898.2280, 14614.00
899.3560, 14727.00
900.4830, 14709.00
901.6110, 14621.00
902.7380, 14604.00
903.8660, 14749.00
904.9930, 14499.00
906.1200, 14735.00
907.2460, 14713.00
908.3730, 14905.00
909.5000, 14768.00
910.6260, 14740.00
911.7520, 14701.00
912.8780, 14785.00
914.0040, 14738.00
915.1290, 14970.00
916.2550, 14859.00
917.3800, 14706.00
918.5050, 15145.00
919.6300, 15191.00
920.7550, 15263.00
921.8800, 15331.00
923.0040, 15379.00
924.1290, 15480.00
925.2530, 15725.00
926.3770, 15612.00
927.5010, 15724.00
928.6250, 15731.00
929.7480, 15526.00
930.8720, 15668.00
931.9950, 15621.00
933.1180, 15466.00
934.2410, 15655.00
935.3640, 15696.00
936.4860, 15663.00
937.6090, 15589.00
938.7310, 15738.00
939.8530, 15926.00
940.9750, 15887.00
942.0970, 16026.00
943.2180, 16315.00
944.3400, 16724.00
945.4610, 16882.00
946.5820, 17083.00
947.7030, 17303.00
948.8240, 17279.00
949.9450, 17180.00
951.0650, 16735.00
952.1860, 16520.00
953.3060, 16500.00
954.4260, 16235.00
955.5460, 16188.00
956.6650, 16031.00
957.7850, 15942.00
958.9040, 15961.00
960.0230, 15937.00
961.1420, 15827.00
962.2610, 15723.00
963.3800, 15847.00
964.4990, 15924.00
965.6170, 15844.00
966.7350, 15976.00
967.8530, 16012.00
968.9710, 16004.00
970.0890, 16131.00
971.2070, 16217.00
972.3240, 16394.00
973.4410, 16605.21
974.5580, 16855.01
975.6750, 17121.00
976.7920, 17555.00
977.9090, 17875.00
979.0250, 18432.00
980.1410, 19328.00
981.2580, 20440.00
982.3740, 21676.00
983.4890, 23076.00
984.6050, 24383.00
985.7200, 25430.00
986.8360, 26227.00
987.9510, 26185.00
989.0660, 25501.00
990.1810, 24493.00
991.2950, 23301.00
992.4100, 21677.00
993.5240, 20442.00
994.6390, 19649.00
995.7530, 18861.00
996.8660, 18065.00
997.9800, 17897.00
999.0940, 17378.00
1000.207, 17000.00
1001.320, 16784.00
1002.433, 16744.00
1003.546, 16721.00
1004.659, 16505.00
1005.772, 16420.00
1006.884, 16182.00
1007.996, 16063.00
1009.108, 16182.00
1010.220, 16115.00
1011.332, 16162.00
1012.444, 15987.00
1013.555, 15958.00
1014.666, 15929.00
1015.777, 15953.00
1016.888, 15918.44
1017.999, 15953.09
1019.110, 15891.00
1020.220, 15976.00
1021.331, 15979.00
1022.441, 15900.00
1023.551, 16114.00
1024.661, 16009.00
1025.770, 16048.00
1026.880, 15931.00
1027.989, 16109.00
1029.098, 16153.00
1030.207, 15978.00
1031.316, 15942.00
1032.425, 16044.00
1033.533, 16105.00
1034.642, 16084.00
1035.750, 16075.00
1036.858, 16174.00
1037.966, 15985.00
1039.073, 16099.00
1040.181, 16013.00
1041.288, 15991.00
1042.396, 15995.00
1043.503, 16075.00
1044.610, 16077.00
1045.716, 16121.00
1046.823, 16086.00
1047.929, 16130.00
1049.036, 16193.00
1050.142, 16225.00
1051.248, 16074.00
1052.353, 16238.00
1053.459, 16110.00
1054.564, 16428.00
1055.670, 16316.00
1056.775, 16340.00
1057.880, 16538.00
1058.985, 16415.00
1060.089, 16695.00
1061.194, 16738.00
1062.298, 16972.00
1063.402, 17145.00
1064.506, 17320.19
1065.610, 17480.00
1066.713, 17705.00
1067.817, 17843.00
1068.920, 17959.00
1070.023, 18040.00
1071.126, 17934.00
1072.229, 17897.00
1073.332, 17859.00
1074.435, 17598.00
1075.537, 17342.00
1076.639, 17316.00
1077.741, 17230.00
1078.843, 17217.00
1079.945, 17161.00
1081.046, 17134.13
1082.148, 17096.00
1083.249, 17074.00
1084.350, 17117.00
1085.451, 17050.00
1086.551, 16932.00
1087.652, 16669.00
1088.752, 16745.00
1089.853, 16710.00
1090.953, 16574.00
1092.053, 16661.00
1093.152, 16576.00
1094.252, 16587.00
1095.351, 16469.00
1096.451, 16450.00
1097.550, 16428.18
1098.649, 16451.00
1099.748, 16428.00
1100.846, 16352.00
1101.945, 16415.00
1103.043, 16492.00
1104.141, 16504.00
1105.239, 16414.00
1106.337, 16449.00
1107.434, 16434.00
1108.532, 16499.00
1109.629, 16439.00
1110.726, 16475.00
1111.823, 16448.00
1112.920, 16494.00
1114.017, 16588.00
1115.113, 16662.00
1116.210, 16678.00
1117.306, 16774.00
1118.402, 16674.00
1119.498, 16841.00
1120.593, 16645.00
1121.689, 17004.00
1122.784, 16901.00
1123.879, 16921.00
1124.974, 16817.00
1126.069, 16736.00
1127.164, 16560.00
1128.259, 16657.00
1129.353, 16553.00
1130.447, 16554.00
1131.541, 16717.00
1132.635, 16649.00
1133.729, 16561.00
1134.822, 16533.00
1135.916, 16536.00
1137.009, 16548.47
1138.102, 16726.00
1139.195, 16654.00
1140.288, 16637.00
1141.380, 16700.00
1142.473, 16626.00
1143.565, 16632.00
1144.657, 16836.00
1145.749, 16768.00
1146.841, 16818.00
1147.932, 16744.00
1149.024, 16904.00
1150.115, 16761.00
1151.206, 16772.00
1152.297, 16887.00
1153.388, 16774.00
1154.479, 16859.00
1155.569, 17018.00
1156.659, 16867.00
1157.750, 16922.00
1158.839, 17096.00
1159.929, 16993.00
1161.019, 16997.00
1162.108, 17309.00
1163.198, 16923.00
1164.287, 17045.00
1165.376, 17073.00
1166.465, 17216.00
1167.553, 16994.00
1168.642, 16943.00
1169.730, 17185.00
1170.818, 16970.00
1171.906, 17056.00
1172.994, 17107.00
1174.082, 17011.00
1175.170, 17011.00
1176.257, 16992.00
1177.344, 17102.00
1178.431, 17143.00
1179.518, 17137.00
1180.605, 17107.00
1181.691, 17100.00
1182.778, 17238.00
1183.864, 17174.00
1184.950, 17150.00
1186.036, 17242.00
1187.122, 17151.00
1188.207, 17096.00
1189.292, 17025.00
1190.378, 17100.00
1191.463, 17047.27
1192.548, 17065.00
1193.632, 17044.00
1194.717, 17081.00
1195.801, 17083.00
1196.886, 17067.00
1197.970, 17118.00
1199.054, 17164.00
1200.137, 17297.00
1201.221, 17147.00
1202.305, 17159.00
1203.388, 17358.00
1204.471, 17293.00
1205.554, 17118.00
1206.637, 17289.00
1207.719, 17199.00
1208.802, 17180.00
1209.884, 17222.00
1210.966, 17225.00
1212.048, 17306.00
1213.130, 17354.00
1214.212, 17374.00
1215.293, 17317.00
1216.374, 17225.00
1217.456, 17177.00
1218.536, 17291.00
1219.617, 17270.00
1220.698, 17530.00
1221.778, 17357.00
1222.859, 17401.00
1223.939, 17148.00
1225.019, 17488.00
1226.099, 17401.00
1227.178, 17390.00
1228.258, 17389.00
1229.337, 17393.00
1230.417, 17389.73
1231.496, 17523.00
1232.574, 17410.00
1233.653, 17453.00
1234.732, 17503.00
1235.810, 17405.00
1236.888, 17538.00
1237.966, 17481.00
1239.044, 17456.00
1240.122, 17447.00
1241.199, 17398.00
1242.277, 17481.00
1243.354, 17524.00
1244.431, 17476.00
1245.508, 17509.00
1246.585, 17478.00
1247.661, 17687.00
1248.738, 17772.00
1249.814, 17591.00
1250.890, 17539.00
1251.966, 17723.00
1253.042, 17708.00
1254.117, 17581.00
1255.193, 17585.00
1256.268, 17541.00
1257.343, 17354.00
1258.418, 17548.00
1259.493, 17662.00
1260.567, 17566.00
1261.642, 17558.00
1262.716, 17634.00
1263.790, 17589.00
1264.864, 17791.00
1265.938, 17730.00
1267.011, 17842.00
1268.085, 17601.00
1269.158, 17771.00
1270.231, 17753.00
1271.304, 17510.00
1272.377, 17702.00
1273.450, 17801.00
1274.522, 17797.00
1275.594, 17871.00
1276.666, 17760.00
1277.738, 17764.00
1278.810, 17694.00
1279.882, 17769.00
1280.953, 17781.00
1282.025, 17734.00
1283.096, 17779.00
1284.167, 17821.00
1285.238, 17766.00
1286.308, 17950.00
1287.379, 17928.00
1288.449, 17895.00
1289.519, 17883.00
1290.589, 17868.00
1291.659, 17850.00
1292.729, 17788.00
1293.798, 17877.00
1294.868, 17952.00
1295.937, 17918.00
1297.006, 17790.00
1298.075, 18068.00
1299.143, 17835.00
1300.212, 18025.00
1301.280, 18040.00
1302.348, 18076.00
1303.416, 17941.00
1304.484, 18055.00
1305.552, 18164.00
1306.620, 18026.00
1307.687, 18079.00
1308.754, 18079.00
1309.821, 17986.00
1310.888, 17952.00
1311.955, 18013.00
1313.021, 18285.00
1314.088, 18049.00
1315.154, 18161.00
1316.220, 18154.00
1317.286, 18114.00
1318.352, 18099.00
1319.417, 18253.00
1320.483, 18158.00
1321.548, 18189.00
1322.613, 18125.00
1323.678, 18175.00
1324.743, 18317.00
1325.807, 18216.00
1326.872, 18267.00
1327.936, 18328.00
1329.000, 18233.00
1330.064, 18450.00
1331.128, 18202.00
1332.191, 18254.00
1333.255, 18311.00
1334.318, 18141.00
1335.381, 18061.00
1336.444, 18331.00
1337.507, 18426.00
1338.569, 18310.00
1339.632, 18353.00
1340.694, 18238.00
1341.756, 18417.00
1342.818, 18413.00
1343.880, 18483.00
1344.941, 18279.00
1346.003, 18558.00
1347.064, 18302.00
1348.125, 18338.00
1349.186, 18285.00
1350.247, 18171.00
1351.308, 18315.00
1352.368, 18566.00
1353.428, 18517.00
1354.489, 18317.00
1355.549, 18563.00
1356.608, 18343.00
1357.668, 18433.00
1358.727, 18671.00
1359.787, 18457.00
1360.846, 18509.00
1361.905, 18553.00
1362.964, 18511.00
1364.022, 18491.00
1365.081, 18571.00
1366.139, 18594.00
1367.197, 18645.00
1368.255, 18567.00
1369.313, 18509.00
1370.371, 18562.00
1371.428, 18661.00
1372.486, 18676.00
1373.543, 18670.85
1374.600, 18691.00
1375.657, 18596.00
1376.713, 18642.00
1377.770, 18597.00
1378.826, 18556.00
1379.882, 18614.00
1380.938, 18573.00
1381.994, 18721.00
1383.050, 18703.00
1384.106, 18770.00
1385.161, 18572.00
1386.216, 18702.00
1387.271, 18661.00
1388.326, 18572.00
1389.381, 18644.00
1390.435, 18810.00
1391.490, 18677.00
1392.544, 18814.00
1393.598, 18799.00
1394.652, 18850.00
1395.705, 18799.00
1396.759, 18783.20
1397.812, 18767.80
1398.866, 18709.00
1399.919, 18713.00
1400.972, 18692.00
1402.024, 18684.61
1403.077, 18807.00
1404.129, 18809.00
1405.181, 18795.00
1406.233, 18916.00
1407.285, 18771.00
1408.337, 19004.00
1409.389, 19025.00
1410.440, 18862.00
1411.491, 18839.00
1412.542, 18860.00
1413.593, 18892.00
1414.644, 18929.00
1415.695, 18986.00
1416.745, 19002.00
1417.795, 19072.00
1418.845, 18966.00
1419.895, 18953.00
1420.945, 18886.00
1421.995, 18936.00
1423.044, 18841.00
1424.093, 19019.00
1425.142, 19007.00
1426.191, 19069.00
1427.240, 19030.00
1428.289, 18921.00
1429.337, 18845.00
1430.385, 18881.16
1431.433, 18888.00
1432.481, 19005.00
1433.529, 19011.00
1434.577, 19149.00
1435.624, 18953.00
1436.672, 19137.00
1437.719, 19092.00
1438.766, 19196.00
1439.812, 19105.00
1440.859, 19143.00
1441.905, 19228.00
1442.952, 19184.00
1443.998, 19280.16
1445.044, 19073.00
1446.090, 19295.00
1447.135, 19329.00
1448.181, 19085.00
1449.226, 19166.00
1450.271, 19284.00
1451.316, 19208.00
1452.361, 19218.00
1453.405, 19282.00
1454.450, 19261.00
1455.494, 19212.00
1456.538, 19403.00
1457.582, 19456.00
1458.626, 19095.00
1459.670, 19315.00
1460.713, 19326.00
1461.757, 19271.00
1462.800, 19459.00
1463.843, 19307.00
1464.886, 19232.00
1465.928, 19230.00
1466.971, 19388.00
1468.013, 19424.00
1469.055, 19354.00
1470.097, 19535.00
1471.139, 19407.00
1472.181, 19450.00
1473.222, 19293.00
1474.263, 19325.00
1475.305, 19328.00
1476.346, 19382.00
1477.386, 19239.00
1478.427, 19421.00
1479.468, 19392.00
1480.508, 19659.00
1481.548, 19449.00
1482.588, 19529.00
1483.628, 19394.00
1484.668, 19554.00
1485.707, 19317.00
1486.747, 19592.00
1487.786, 19526.00
1488.825, 19599.00
1489.864, 19599.00
1490.902, 19676.00
1491.941, 19636.00
1492.979, 19559.00
1494.017, 19466.00
1495.055, 19716.00
1496.093, 19588.00
1497.131, 19914.00
1498.168, 19800.00
1499.206, 19694.00
1500.243, 19576.00
1501.280, 19508.00
1502.317, 19732.00
1503.354, 19738.00
1504.390, 19761.00
1505.426, 19660.00
1506.463, 19774.00
1507.499, 19626.00
1508.535, 19647.00
1509.570, 19767.00
1510.606, 19715.00
1511.641, 19789.00
1512.676, 19829.00
1513.711, 19878.00
1514.746, 19781.00
1515.781, 19765.00
1516.816, 19683.00
1517.850, 19730.00
1518.884, 19646.00
1519.918, 19865.00
1520.952, 19869.00
1521.986, 19957.00
1523.019, 19917.00
1524.053, 19769.00
1525.086, 19929.00
1526.119, 19824.00
1527.152, 19882.00
1528.185, 19955.00
1529.217, 20045.00
1530.250, 19981.00
1531.282, 20009.00
1532.314, 19845.00
1533.346, 19986.00
1534.377, 20023.00
1535.409, 19804.00
1536.440, 19985.00
1537.472, 20036.00
1538.503, 20182.00
1539.534, 20179.82
1540.564, 19950.00
1541.595, 20136.00
1542.625, 20067.00
1543.656, 20020.00
1544.686, 20114.00
1545.716, 20074.00
1546.745, 20174.00
1547.775, 20123.00
1548.804, 20163.94
1549.834, 20146.00
1550.863, 20229.00
1551.892, 20256.00
1552.920, 20324.20
1553.949, 20328.17
1554.977, 20295.00
1556.006, 20347.00
1557.034, 20193.00
1558.062, 20240.00
1559.089, 20188.00
1560.117, 20270.00
1561.144, 20220.00
1562.172, 20301.00
1563.199, 20182.00
1564.226, 20322.00
1565.252, 20308.00
1566.279, 20149.00
1567.305, 20176.00
1568.332, 20236.00
1569.358, 20223.00
1570.384, 20493.00
1571.409, 20346.00
1572.435, 20374.00
##END=



