##NAMES=Bertrandite
##RRUFFID=R060800
##IDEAL CHEMISTRY=Be_4_Si_2_O_7_(OH)_2_
##LOCALITY=Golconda mine, Governador Valadares, Minas Gerais, Brazil
##OWNER=RRUFF
##SOURCE=Bob Jenkins
##DESCRIPTION=Colorless pseudohexagonal prisms
##STATUS=The identification of this mineral is confirmed by single-crystal X-ray diffraction and chemical analysis.
##URL=rruff.info/R060800
##MEASURED CHEMISTRY=Be_4.00_Si_2.00_O_7_(OH)_2_
##PIN_ID=M00406
##ORIENTATION=Laser parallel to b* (0 1 0). Fiducial mark perpendicular to laser is parallel to c [0 0 1]
123.0580, 5867.000
124.2880, 5856.000
125.5190, 5941.000
126.7490, 5836.000
127.9790, 5864.000
129.2090, 5858.000
130.4390, 6000.000
131.6680, 5991.000
132.8980, 5929.000
134.1270, 6085.000
135.3560, 6075.000
136.5850, 5941.000
137.8140, 6014.000
139.0430, 6101.000
140.2710, 6052.000
141.5000, 6086.000
142.7280, 6150.000
143.9560, 6138.000
145.1840, 6177.940
146.4120, 6118.000
147.6390, 6212.000
148.8670, 6236.000
150.0940, 6246.000
151.3210, 6326.000
152.5490, 6196.000
153.7750, 6385.000
155.0020, 6404.000
156.2290, 6319.000
157.4550, 6510.000
158.6810, 6495.000
159.9080, 6543.000
161.1340, 6577.000
162.3590, 6631.000
163.5850, 6749.000
164.8110, 6696.000
166.0360, 6841.000
167.2610, 7023.000
168.4860, 7290.000
169.7110, 7725.000
170.9360, 8418.000
172.1610, 9611.000
173.3850, 10812.00
174.6100, 12138.00
175.8340, 13094.00
177.0580, 14308.00
178.2820, 17237.00
179.5050, 21475.00
180.7290, 25813.00
181.9520, 27758.00
183.1760, 25650.00
184.3990, 21903.00
185.6220, 18556.00
186.8450, 16570.00
188.0670, 14731.00
189.2900, 13432.00
190.5120, 12948.00
191.7340, 13894.00
192.9560, 16329.00
194.1780, 20175.00
195.4000, 24560.00
196.6220, 27228.00
197.8430, 29875.00
199.0640, 35612.00
200.2860, 44608.00
201.5070, 54336.00
202.7270, 61494.00
203.9480, 57177.00
205.1690, 46199.00
206.3890, 37207.00
207.6090, 29927.00
208.8290, 23704.00
210.0490, 17966.00
211.2690, 13804.00
212.4890, 11145.00
213.7080, 10012.00
214.9280, 9742.000
216.1470, 9772.000
217.3660, 10502.00
218.5850, 11748.00
219.8030, 13059.00
221.0220, 13890.00
222.2400, 14919.00
223.4590, 17594.00
224.6770, 21666.00
225.8950, 26375.00
227.1120, 29340.00
228.3300, 28276.00
229.5480, 24740.00
230.7650, 21307.00
231.9820, 18366.00
233.1990, 15855.00
234.4160, 13511.00
235.6330, 11795.00
236.8490, 11342.00
238.0660, 11243.00
239.2820, 11192.00
240.4980, 10858.00
241.7140, 10247.00
242.9300, 9503.000
244.1460, 9006.000
245.3610, 8581.000
246.5770, 8136.000
247.7920, 7707.000
249.0070, 7530.000
250.2220, 7362.000
251.4370, 7321.000
252.6510, 7224.000
253.8660, 7208.000
255.0800, 7250.000
256.2940, 7137.000
257.5080, 7292.000
258.7220, 7405.000
259.9360, 7263.000
261.1490, 7242.000
262.3630, 7016.000
263.5760, 7157.000
264.7890, 7071.000
266.0020, 7019.000
267.2150, 7058.000
268.4270, 6980.000
269.6400, 7048.000
270.8520, 6930.000
272.0640, 7029.000
273.2760, 7036.000
274.4880, 6981.000
275.7000, 7008.000
276.9120, 6992.000
278.1230, 6973.000
279.3340, 7030.000
280.5450, 7018.000
281.7560, 7038.000
282.9670, 7140.000
284.1780, 7171.000
285.3880, 7274.750
286.5980, 7379.018
287.8090, 7483.000
289.0190, 7609.000
290.2290, 7711.000
291.4380, 7817.000
292.6480, 8119.000
293.8570, 8490.000
295.0670, 8906.000
296.2760, 9519.000
297.4850, 9535.000
298.6930, 9052.000
299.9020, 8461.000
301.1110, 8211.000
302.3190, 7876.000
303.5270, 7640.000
304.7350, 7430.000
305.9430, 7355.000
307.1510, 7320.000
308.3580, 7255.000
309.5660, 7241.000
310.7730, 7241.000
311.9800, 7244.000
313.1870, 7295.000
314.3940, 7161.000
315.6010, 7306.000
316.8070, 7145.000
318.0130, 7163.000
319.2200, 7253.000
320.4260, 7218.000
321.6310, 7455.000
322.8370, 7456.000
324.0430, 7349.000
325.2480, 7422.000
326.4540, 7629.000
327.6590, 7624.000
328.8640, 7719.000
330.0680, 7729.000
331.2730, 7636.000
332.4780, 7681.000
333.6820, 7663.000
334.8860, 7605.000
336.0900, 7608.000
337.2940, 7499.000
338.4980, 7537.000
339.7010, 7526.000
340.9050, 7547.000
342.1080, 7608.000
343.3110, 7604.000
344.5140, 7779.000
345.7170, 7820.000
346.9200, 8209.000
348.1220, 8451.000
349.3240, 8742.000
350.5270, 9163.000
351.7290, 9370.000
352.9310, 9553.000
354.1320, 9951.000
355.3340, 10496.00
356.5350, 10522.00
357.7370, 10368.00
358.9380, 10429.31
360.1390, 10216.29
361.3400, 10011.00
362.5400, 9748.000
363.7410, 9380.000
364.9410, 8989.000
366.1410, 8577.000
367.3410, 8313.000
368.5410, 8005.000
369.7410, 7995.000
370.9400, 7602.000
372.1400, 7719.000
373.3390, 7599.000
374.5380, 7681.000
375.7370, 7627.000
376.9360, 7729.000
378.1350, 7724.000
379.3330, 7831.000
380.5310, 7781.000
381.7300, 7901.000
382.9280, 8024.000
384.1260, 8024.000
385.3230, 8090.000
386.5210, 8073.000
387.7180, 8021.000
388.9160, 7952.000
390.1130, 7953.000
391.3100, 7747.000
392.5060, 7776.000
393.7030, 7734.000
394.9000, 7755.000
396.0960, 7734.000
397.2920, 7777.000
398.4880, 7725.000
399.6840, 7735.000
400.8800, 7823.000
402.0750, 7826.000
403.2710, 7902.000
404.4660, 7966.584
405.6610, 7961.000
406.8560, 8137.000
408.0510, 8258.000
409.2450, 8408.000
410.4400, 8486.000
411.6340, 8609.000
412.8280, 8660.000
414.0220, 8705.000
415.2160, 8770.000
416.4100, 8753.000
417.6030, 8632.000
418.7970, 8716.000
419.9900, 8438.000
421.1830, 8511.000
422.3760, 8171.000
423.5690, 8024.000
424.7610, 8067.000
425.9540, 8055.000
427.1460, 8001.000
428.3380, 8003.000
429.5300, 7973.000
430.7220, 8102.000
431.9140, 7941.000
433.1050, 8163.000
434.2970, 8182.000
435.4880, 8225.000
436.6790, 8146.000
437.8700, 8265.000
439.0610, 8249.000
440.2510, 8176.000
441.4420, 8182.000
442.6320, 8159.000
443.8220, 8200.000
445.0120, 8347.000
446.2020, 8433.000
447.3910, 8387.000
448.5810, 8297.000
449.7700, 8229.000
450.9600, 8158.000
452.1490, 8017.000
453.3370, 8096.000
454.5260, 7895.000
455.7150, 7916.000
456.9030, 7804.000
458.0910, 7915.000
459.2800, 7863.000
460.4670, 8010.000
461.6550, 7882.000
462.8430, 7857.000
464.0300, 7780.000
465.2180, 7748.000
466.4050, 7827.000
467.5920, 7762.986
468.7790, 7839.000
469.9650, 7751.000
471.1520, 7731.000
472.3380, 7750.000
473.5250, 7747.000
474.7110, 7808.000
475.8970, 7834.000
477.0820, 7843.000
478.2680, 7895.000
479.4540, 8017.000
480.6390, 7935.000
481.8240, 8092.000
483.0090, 8015.000
484.1940, 8183.000
485.3780, 8276.000
486.5630, 8444.000
487.7470, 8439.000
488.9320, 8465.000
490.1160, 8376.000
491.3000, 8377.949
492.4830, 8339.333
493.6670, 8318.000
494.8500, 8269.000
496.0340, 8252.000
497.2170, 8226.000
498.4000, 8205.000
499.5820, 8193.719
500.7650, 8176.661
501.9480, 8169.000
503.1300, 8150.699
504.3120, 8130.000
505.4940, 8109.000
506.6760, 8038.000
507.8580, 8081.000
509.0390, 8026.000
510.2210, 7970.000
511.4020, 8034.000
512.5830, 8090.000
513.7640, 8131.000
514.9450, 8122.000
516.1250, 8076.000
517.3060, 8130.000
518.4860, 8095.000
519.6660, 8139.000
520.8460, 8285.000
522.0260, 8263.000
523.2060, 8276.000
524.3850, 8362.000
525.5650, 8382.000
526.7440, 8461.000
527.9230, 8605.000
529.1020, 8807.000
530.2810, 8872.000
531.4590, 9141.000
532.6380, 9336.000
533.8160, 9807.000
534.9940, 10065.00
536.1720, 10127.00
537.3500, 9790.000
538.5270, 9501.000
539.7050, 9138.000
540.8820, 8840.000
542.0590, 8631.000
543.2360, 8647.000
544.4130, 8506.000
545.5900, 8464.000
546.7660, 8411.000
547.9430, 8360.000
549.1190, 8447.000
550.2950, 8366.000
551.4710, 8407.000
552.6470, 8379.000
553.8220, 8405.000
554.9980, 8455.000
556.1730, 8401.000
557.3480, 8502.000
558.5230, 8525.000
559.6980, 8409.000
560.8730, 8557.000
562.0470, 8544.000
563.2220, 8672.000
564.3960, 8743.000
565.5700, 8701.000
566.7440, 8837.000
567.9170, 8960.000
569.0910, 9242.000
570.2640, 9536.000
571.4380, 9870.000
572.6110, 10121.00
573.7840, 10521.00
574.9570, 10920.00
576.1290, 11330.00
577.3020, 11419.00
578.4740, 11194.00
579.6460, 10744.00
580.8180, 10292.00
581.9900, 9924.000
583.1620, 9634.000
584.3330, 9304.000
585.5040, 9097.000
586.6760, 9087.000
587.8470, 8871.000
589.0180, 8916.000
590.1880, 8801.000
591.3590, 8770.000
592.5290, 8734.000
593.7000, 8771.000
594.8700, 8760.000
596.0400, 8749.000
597.2090, 8730.000
598.3790, 8777.000
599.5490, 8775.000
600.7180, 8806.000
601.8870, 8827.000
603.0560, 8725.000
604.2250, 8805.000
605.3940, 8820.000
606.5620, 8846.000
607.7300, 8960.000
608.8990, 8826.000
610.0670, 8762.000
611.2350, 8804.000
612.4020, 9016.000
613.5700, 9062.000
614.7370, 8992.000
615.9050, 9082.000
617.0720, 9018.000
618.2390, 9171.000
619.4060, 9204.000
620.5720, 9308.000
621.7390, 9303.000
622.9050, 9223.000
624.0710, 9243.000
625.2370, 9174.000
626.4030, 9151.000
627.5690, 9228.000
628.7340, 9170.000
629.9000, 9068.000
631.0650, 9035.000
632.2300, 9117.000
633.3950, 9011.000
634.5600, 9131.000
635.7240, 9008.000
636.8890, 9136.000
638.0530, 9176.000
639.2170, 9136.000
640.3810, 9105.000
641.5450, 9126.180
642.7080, 9083.000
643.8720, 9148.000
645.0350, 9181.000
646.1980, 9217.000
647.3610, 9231.000
648.5240, 9251.000
649.6870, 9259.301
650.8490, 9189.000
652.0120, 9280.000
653.1740, 9151.000
654.3360, 9184.000
655.4980, 9070.000
656.6600, 9136.000
657.8210, 9246.000
658.9830, 9230.000
660.1440, 9135.000
661.3050, 9222.000
662.4660, 9132.000
663.6270, 9291.000
664.7870, 9303.000
665.9480, 9455.000
667.1080, 9428.000
668.2680, 9571.000
669.4280, 9530.000
670.5880, 9745.000
671.7480, 9788.000
672.9070, 9835.000
674.0670, 10085.00
675.2260, 10321.00
676.3850, 10568.00
677.5440, 10869.00
678.7030, 11156.00
679.8610, 11525.00
681.0200, 11973.00
682.1780, 12446.00
683.3360, 13215.00
684.4940, 13955.00
685.6520, 14905.00
686.8090, 15476.00
687.9670, 15984.00
689.1240, 16398.00
690.2810, 16029.00
691.4380, 15737.00
692.5950, 14867.00
693.7520, 14249.00
694.9080, 13675.00
696.0650, 13318.63
697.2210, 13059.00
698.3770, 13017.00
699.5330, 13171.00
700.6880, 13469.89
701.8440, 14003.70
702.9990, 14658.00
704.1550, 15571.00
705.3100, 16659.00
706.4650, 17830.00
707.6190, 19285.00
708.7740, 20250.00
709.9290, 20593.00
711.0830, 20782.00
712.2370, 19752.00
713.3910, 18651.00
714.5450, 17314.00
715.6980, 15917.00
716.8520, 14615.00
718.0050, 13717.00
719.1580, 12846.00
720.3110, 12287.00
721.4640, 11900.00
722.6170, 11422.00
723.7700, 11193.00
724.9220, 11042.00
726.0740, 10910.00
727.2260, 10937.00
728.3780, 10762.00
729.5300, 10780.00
730.6810, 10835.00
731.8330, 10803.00
732.9840, 10825.00
734.1350, 10719.00
735.2860, 10767.00
736.4370, 10618.00
737.5880, 10475.00
738.7380, 10564.00
739.8880, 10544.00
741.0390, 10562.00
742.1890, 10614.00
743.3380, 10740.00
744.4880, 10778.00
745.6380, 11021.00
746.7870, 11197.00
747.9360, 11623.00
749.0850, 11962.00
750.2340, 12387.00
751.3830, 12675.00
752.5310, 12892.00
753.6800, 13006.00
754.8280, 12871.00
755.9760, 12512.00
757.1240, 12312.00
758.2720, 12026.00
759.4190, 11780.00
760.5670, 11629.00
761.7140, 11551.00
762.8610, 11608.00
764.0080, 11867.00
765.1550, 12017.00
766.3020, 12419.00
767.4480, 12669.00
768.5950, 13102.00
769.7410, 13329.00
770.8870, 13323.00
772.0330, 13186.00
773.1780, 12864.00
774.3240, 12252.00
775.4690, 11776.00
776.6140, 11488.00
777.7590, 11170.00
778.9040, 10927.00
780.0490, 10707.00
781.1940, 10644.00
782.3380, 10494.00
783.4820, 10316.00
784.6260, 10502.00
785.7700, 10348.00
786.9140, 10338.00
788.0580, 10338.00
789.2010, 10316.00
790.3450, 10362.00
791.4880, 10338.00
792.6310, 10372.00
793.7730, 10380.00
794.9160, 10331.00
796.0590, 10260.00
797.2010, 10371.00
798.3430, 10402.00
799.4850, 10365.00
800.6270, 10471.00
801.7690, 10326.00
802.9100, 10444.00
804.0520, 10291.00
805.1930, 10557.00
806.3340, 10390.00
807.4750, 10538.00
808.6160, 10629.00
809.7560, 10739.00
810.8970, 10734.00
812.0370, 11065.00
813.1770, 11339.00
814.3170, 11634.00
815.4570, 12058.00
816.5960, 12425.00
817.7360, 12662.00
818.8750, 12959.00
820.0140, 12915.00
821.1530, 12802.00
822.2920, 12485.00
823.4310, 12242.00
824.5690, 11726.00
825.7070, 11524.00
826.8460, 11387.00
827.9840, 11031.00
829.1220, 10929.00
830.2590, 10729.00
831.3970, 10723.00
832.5340, 10711.00
833.6710, 10626.00
834.8080, 10516.00
835.9450, 10498.00
837.0820, 10471.00
838.2190, 10433.00
839.3550, 10526.00
840.4910, 10601.00
841.6270, 10444.00
842.7630, 10394.00
843.8990, 10561.00
845.0350, 10543.00
846.1700, 10518.00
847.3060, 10454.00
848.4410, 10429.00
849.5760, 10558.00
850.7100, 10599.00
851.8450, 10516.00
852.9800, 10457.00
854.1140, 10479.00
855.2480, 10464.00
856.3820, 10518.00
857.5160, 10548.00
858.6500, 10728.00
859.7830, 10667.00
860.9170, 10704.00
862.0500, 10756.00
863.1830, 10629.00
864.3160, 10616.00
865.4480, 10569.00
866.5810, 10576.55
867.7130, 10567.00
868.8460, 10661.00
869.9780, 10676.00
871.1100, 10745.00
872.2410, 10781.00
873.3730, 10785.49
874.5050, 10678.00
875.6360, 10833.00
876.7670, 10700.00
877.8980, 10805.00
879.0290, 10757.00
880.1590, 10902.00
881.2900, 10965.00
882.4200, 10871.00
883.5500, 10976.00
884.6800, 10947.00
885.8100, 10921.00
886.9400, 10965.00
888.0690, 10913.00
889.1990, 10976.00
890.3280, 10903.00
891.4570, 10924.00
892.5860, 11034.00
893.7140, 10919.00
894.8430, 10877.00
895.9710, 10995.00
897.1000, 11000.00
898.2280, 11055.00
899.3560, 10894.00
900.4830, 11069.00
901.6110, 11144.00
902.7380, 11035.00
903.8660, 11275.00
904.9930, 11158.00
906.1200, 11431.00
907.2460, 11320.00
908.3730, 11358.00
909.5000, 11429.00
910.6260, 11562.00
911.7520, 11686.00
912.8780, 11900.00
914.0040, 12110.00
915.1290, 12590.00
916.2550, 13113.00
917.3800, 13717.00
918.5050, 14808.00
919.6300, 16177.00
920.7550, 17889.00
921.8800, 20046.00
923.0040, 22143.00
924.1290, 24333.00
925.2530, 25771.00
926.3770, 25262.00
927.5010, 23540.00
928.6250, 21047.00
929.7480, 18948.00
930.8720, 16981.00
931.9950, 15475.00
933.1180, 14620.00
934.2410, 13804.00
935.3640, 13391.00
936.4860, 13064.00
937.6090, 12620.00
938.7310, 12491.00
939.8530, 12363.00
940.9750, 12368.00
942.0970, 12391.00
943.2180, 12369.00
944.3400, 12643.00
945.4610, 12748.00
946.5820, 12675.00
947.7030, 12709.00
948.8240, 12772.00
949.9450, 12683.00
951.0650, 12441.00
952.1860, 12442.00
953.3060, 12319.00
954.4260, 12091.00
955.5460, 11979.00
956.6650, 11952.40
957.7850, 11935.00
958.9040, 11995.00
960.0230, 11963.00
961.1420, 12043.00
962.2610, 11972.00
963.3800, 12150.00
964.4990, 11993.00
965.6170, 12261.00
966.7350, 12253.00
967.8530, 12132.00
968.9710, 12344.00
970.0890, 12453.00
971.2070, 12578.00
972.3240, 12737.00
973.4410, 13089.00
974.5580, 13443.00
975.6750, 13798.00
976.7920, 14395.00
977.9090, 14947.00
979.0250, 15808.00
980.1410, 16777.00
981.2580, 18097.00
982.3740, 19581.00
983.4890, 21586.00
984.6050, 22933.00
985.7200, 24311.00
986.8360, 24864.00
987.9510, 24724.00
989.0660, 23827.00
990.1810, 22301.00
991.2950, 20646.00
992.4100, 19106.00
993.5240, 17673.00
994.6390, 16492.00
995.7530, 15611.00
996.8660, 14752.00
997.9800, 14265.00
999.0940, 13775.00
1000.207, 13495.00
1001.320, 13157.00
1002.433, 13095.00
1003.546, 12847.00
1004.659, 12820.00
1005.772, 12482.00
1006.884, 12506.00
1007.996, 12300.00
1009.108, 12182.00
1010.220, 12060.00
1011.332, 11994.35
1012.444, 12055.00
1013.555, 11985.00
1014.666, 11945.00
1015.777, 12053.00
1016.888, 11949.00
1017.999, 11977.00
1019.110, 11894.00
1020.220, 11831.00
1021.331, 11976.00
1022.441, 11936.00
1023.551, 12009.00
1024.661, 11976.00
1025.770, 11939.00
1026.880, 12013.00
1027.989, 11811.00
1029.098, 12020.00
1030.207, 11953.00
1031.316, 11817.00
1032.425, 11857.00
1033.533, 11762.00
1034.642, 11819.00
1035.750, 11888.00
1036.858, 11755.00
1037.966, 11729.00
1039.073, 11814.00
1040.181, 11857.00
1041.288, 11748.00
1042.396, 11768.00
1043.503, 11887.00
1044.610, 11829.00
1045.716, 11860.00
1046.823, 11828.00
1047.929, 11919.00
1049.036, 11822.00
1050.142, 11895.00
1051.248, 11836.00
1052.353, 11805.00
1053.459, 12035.00
1054.564, 11840.00
1055.670, 11975.00
1056.775, 11763.00
1057.880, 11848.00
1058.985, 12085.00
1060.089, 11955.00
1061.194, 12014.00
1062.298, 12297.00
1063.402, 12329.00
1064.506, 12325.00
1065.610, 12540.00
1066.713, 12650.00
1067.817, 12664.00
1068.920, 12631.00
1070.023, 12714.00
1071.126, 12767.00
1072.229, 12678.00
1073.332, 12737.34
1074.435, 12690.00
1075.537, 12677.00
1076.639, 12486.00
1077.741, 12321.00
1078.843, 12451.00
1079.945, 12525.00
1081.046, 12252.00
1082.148, 12401.00
1083.249, 12441.00
1084.350, 12411.00
1085.451, 12452.00
1086.551, 12254.00
1087.652, 12114.00
1088.752, 12133.00
1089.853, 12151.00
1090.953, 12125.00
1092.053, 12056.00
1093.152, 12005.00
1094.252, 12063.00
1095.351, 12130.00
1096.451, 11978.00
1097.550, 12076.00
1098.649, 12130.00
1099.748, 12057.00
1100.846, 11978.00
1101.945, 11942.00
1103.043, 11931.00
1104.141, 11970.00
1105.239, 12090.00
1106.337, 12020.00
1107.434, 12082.00
1108.532, 12064.00
1109.629, 12008.00
1110.726, 12129.00
1111.823, 12062.00
1112.920, 12105.00
1114.017, 12163.00
1115.113, 12235.00
1116.210, 12196.00
1117.306, 12348.00
1118.402, 12345.00
1119.498, 12352.00
1120.593, 12501.00
1121.689, 12504.00
1122.784, 12505.00
1123.879, 12516.00
1124.974, 12553.00
1126.069, 12426.00
1127.164, 12238.00
1128.259, 12275.00
1129.353, 12248.00
1130.447, 11998.00
1131.541, 12170.00
1132.635, 12155.00
1133.729, 12111.00
1134.822, 12178.00
1135.916, 12104.00
1137.009, 12056.00
1138.102, 12208.00
1139.195, 12119.00
1140.288, 12054.00
1141.380, 12221.00
1142.473, 12294.00
1143.565, 12176.00
1144.657, 12251.00
1145.749, 12334.00
1146.841, 12351.00
1147.932, 12317.00
1149.024, 12271.00
1150.115, 12223.00
1151.206, 12274.00
1152.297, 12339.00
1153.388, 12390.00
1154.479, 12421.24
1155.569, 12299.00
1156.659, 12407.00
1157.750, 12456.00
1158.839, 12307.00
1159.929, 12500.00
1161.019, 12387.00
1162.108, 12545.00
1163.198, 12573.00
1164.287, 12592.00
1165.376, 12541.00
1166.465, 12598.00
1167.553, 12517.00
1168.642, 12454.00
1169.730, 12528.00
1170.818, 12501.00
1171.906, 12523.00
1172.994, 12528.00
1174.082, 12540.00
1175.170, 12448.00
1176.257, 12579.00
1177.344, 12364.00
1178.431, 12475.00
1179.518, 12546.00
1180.605, 12513.00
1181.691, 12465.00
1182.778, 12571.00
1183.864, 12432.00
1184.950, 12511.00
1186.036, 12529.00
1187.122, 12646.00
1188.207, 12432.00
1189.292, 12499.00
1190.378, 12383.00
1191.463, 12591.00
1192.548, 12486.00
1193.632, 12448.00
1194.717, 12470.00
1195.801, 12457.00
1196.886, 12395.00
1197.970, 12529.00
1199.054, 12467.85
1200.137, 12563.00
1201.221, 12458.00
1202.305, 12528.00
1203.388, 12529.00
1204.471, 12593.00
1205.554, 12499.00
1206.637, 12478.00
1207.719, 12616.00
1208.802, 12429.00
1209.884, 12474.00
1210.966, 12545.00
1212.048, 12679.00
1213.130, 12641.00
1214.212, 12657.00
1215.293, 12573.00
1216.374, 12672.00
1217.456, 12550.00
1218.536, 12659.00
1219.617, 12698.00
1220.698, 12588.00
1221.778, 12659.00
1222.859, 12710.00
1223.939, 12690.00
1225.019, 12703.00
1226.099, 12628.00
1227.178, 12699.00
1228.258, 12839.00
1229.337, 12796.00
1230.417, 12826.00
1231.496, 12767.00
1232.574, 12697.00
1233.653, 12770.00
1234.732, 12712.00
1235.810, 12784.00
1236.888, 12745.00
1237.966, 12829.00
1239.044, 12838.00
1240.122, 12655.00
1241.199, 12811.00
1242.277, 13022.00
1243.354, 12770.00
1244.431, 13049.00
1245.508, 12890.00
1246.585, 12963.00
1247.661, 12875.00
1248.738, 12839.00
1249.814, 12863.00
1250.890, 12871.00
1251.966, 12887.00
1253.042, 12979.00
1254.117, 12913.00
1255.193, 13033.00
1256.268, 12855.00
1257.343, 12956.00
1258.418, 12858.00
1259.493, 13027.00
1260.567, 12898.00
1261.642, 12939.00
1262.716, 12910.00
1263.790, 12970.00
1264.864, 13055.00
1265.938, 12909.00
1267.011, 13061.00
1268.085, 13063.00
1269.158, 13087.00
1270.231, 13004.00
1271.304, 13014.00
1272.377, 13024.00
1273.450, 13084.00
1274.522, 13075.00
1275.594, 13066.00
1276.666, 13206.00
1277.738, 13119.00
1278.810, 12997.00
1279.882, 12929.00
1280.953, 13208.00
1282.025, 13113.00
1283.096, 13098.00
1284.167, 13112.00
1285.238, 13028.00
1286.308, 13074.00
1287.379, 12984.00
1288.449, 13129.00
1289.519, 13124.00
1290.589, 13147.00
1291.659, 13084.00
1292.729, 13263.00
1293.798, 13148.00
1294.868, 13271.00
1295.937, 13133.00
1297.006, 13390.00
1298.075, 13084.00
1299.143, 13210.00
1300.212, 13202.00
1301.280, 13191.00
1302.348, 13144.00
1303.416, 13196.00
1304.484, 13198.00
1305.552, 13209.00
1306.620, 13209.10
1307.687, 13202.50
1308.754, 13221.00
1309.821, 13194.00
1310.888, 13282.00
1311.955, 13310.00
1313.021, 13297.00
1314.088, 13391.00
1315.154, 13445.00
1316.220, 13324.00
1317.286, 13360.00
1318.352, 13476.00
1319.417, 13423.00
1320.483, 13482.00
1321.548, 13408.00
1322.613, 13452.00
1323.678, 13468.00
1324.743, 13408.00
1325.807, 13383.00
1326.872, 13314.00
1327.936, 13271.00
1329.000, 13402.00
1330.064, 13412.00
1331.128, 13549.00
1332.191, 13417.00
1333.255, 13400.00
1334.318, 13391.00
1335.381, 13423.00
1336.444, 13381.00
1337.507, 13358.00
1338.569, 13359.00
1339.632, 13367.54
1340.694, 13508.00
1341.756, 13415.00
1342.818, 13508.00
1343.880, 13520.00
1344.941, 13352.00
1346.003, 13420.00
1347.064, 13457.00
1348.125, 13567.00
1349.186, 13478.00
1350.247, 13611.00
1351.308, 13632.00
1352.368, 13526.00
1353.428, 13499.00
1354.489, 13567.00
1355.549, 13479.00
1356.608, 13505.00
1357.668, 13532.00
1358.727, 13655.00
1359.787, 13592.00
1360.846, 13414.00
1361.905, 13664.00
1362.964, 13676.00
1364.022, 13559.00
1365.081, 13659.00
1366.139, 13548.00
1367.197, 13480.00
1368.255, 13632.00
1369.313, 13587.00
1370.371, 13661.00
1371.428, 13712.00
1372.486, 13673.00
1373.543, 13747.00
1374.600, 13713.00
1375.657, 13825.00
1376.713, 13615.00
1377.770, 13672.00
1378.826, 13706.00
1379.882, 13753.00
1380.938, 13766.05
1381.994, 13718.00
1383.050, 13749.00
1384.106, 13737.00
1385.161, 13658.00
1386.216, 13700.00
1387.271, 13724.00
1388.326, 13703.00
1389.381, 13721.00
1390.435, 13626.00
1391.490, 13843.00
1392.544, 13812.00
1393.598, 13737.00
1394.652, 13787.00
1395.705, 13665.00
1396.759, 13748.00
1397.812, 13737.00
1398.866, 13851.00
1399.919, 13820.38
1400.972, 13765.00
1402.024, 13795.00
1403.077, 13803.00
1404.129, 13816.00
1405.181, 13858.00
1406.233, 13947.00
1407.285, 13714.00
1408.337, 13908.00
1409.389, 13821.00
1410.440, 14018.00
1411.491, 13748.00
1412.542, 13907.00
1413.593, 13835.00
1414.644, 13868.00
1415.695, 13896.00
1416.745, 13829.00
1417.795, 13939.00
1418.845, 13760.00
1419.895, 13946.00
1420.945, 13744.00
1421.995, 13886.00
1423.044, 13925.00
1424.093, 13906.00
1425.142, 14036.00
1426.191, 13917.00
1427.240, 14112.00
1428.289, 14150.00
1429.337, 14053.00
1430.385, 13985.00
1431.433, 14125.00
1432.481, 14012.00
1433.529, 14050.00
1434.577, 14200.00
1435.624, 14097.00
1436.672, 14144.00
1437.719, 14186.00
1438.766, 14163.00
1439.812, 14224.81
1440.859, 14264.00
1441.905, 14293.00
1442.952, 14275.00
1443.998, 14285.00
1445.044, 14306.00
1446.090, 14322.21
1447.135, 14352.07
1448.181, 14390.00
1449.226, 14434.00
1450.271, 14484.00
1451.316, 14561.00
1452.361, 14482.00
1453.405, 14517.00
1454.450, 14399.00
1455.494, 14495.00
1456.538, 14566.00
1457.582, 14471.00
1458.626, 14544.00
1459.670, 14512.00
1460.713, 14586.00
1461.757, 14395.00
1462.800, 14516.00
1463.843, 14447.00
1464.886, 14472.00
1465.928, 14356.00
1466.971, 14346.00
1468.013, 14370.00
1469.055, 14279.00
1470.097, 14301.57
1471.139, 14287.47
1472.181, 14286.00
1473.222, 14328.00
1474.263, 14329.00
1475.305, 14439.00
1476.346, 14527.00
1477.386, 14499.51
1478.427, 14547.97
1479.468, 14453.00
1480.508, 14535.00
1481.548, 14492.00
1482.588, 14483.00
1483.628, 14375.00
1484.668, 14427.00
1485.707, 14514.00
1486.747, 14377.00
1487.786, 14524.00
1488.825, 14445.00
1489.864, 14343.00
1490.902, 14404.00
1491.941, 14405.00
1492.979, 14566.00
1494.017, 14406.00
1495.055, 14470.00
1496.093, 14454.00
1497.131, 14374.00
1498.168, 14441.00
1499.206, 14521.00
1500.243, 14479.00
1501.280, 14470.00
1502.317, 14503.50
1503.354, 14481.26
1504.390, 14513.00
1505.426, 14474.00
1506.463, 14432.00
1507.499, 14397.00
1508.535, 14493.00
1509.570, 14602.00
1510.606, 14510.00
1511.641, 14530.00
1512.676, 14533.00
1513.711, 14566.00
1514.746, 14567.00
1515.781, 14559.00
1516.816, 14562.00
1517.850, 14579.00
1518.884, 14535.00
1519.918, 14651.00
1520.952, 14605.00
1521.986, 14621.00
1523.019, 14748.00
1524.053, 14679.84
1525.086, 14810.00
1526.119, 14681.00
1527.152, 14674.00
1528.185, 14751.00
1529.217, 14839.00
1530.250, 14703.00
1531.282, 14682.00
1532.314, 14718.00
1533.346, 14782.00
1534.377, 14592.00
1535.409, 14787.00
1536.440, 14619.00
1537.472, 14751.00
1538.503, 14885.00
1539.534, 14680.00
1540.564, 14797.00
1541.595, 14862.00
1542.625, 14790.00
1543.656, 14787.00
1544.686, 14746.00
1545.716, 14803.00
1546.745, 14829.00
1547.775, 14774.00
1548.804, 14613.00
1549.834, 14882.00
1550.863, 14847.00
1551.892, 14819.00
1552.920, 15036.00
1553.949, 14877.00
1554.977, 14952.00
1556.006, 14946.00
1557.034, 14863.00
1558.062, 14777.00
1559.089, 14932.00
1560.117, 15064.00
1561.144, 14958.00
1562.172, 14842.00
1563.199, 14910.00
1564.226, 14850.18
1565.252, 14918.00
1566.279, 14839.00
1567.305, 14924.00
1568.332, 14849.00
1569.358, 14979.00
1570.384, 15079.00
1571.409, 14985.00
1572.435, 15067.00
##END=



