##NAMES=Bertrandite
##RRUFFID=R060800
##IDEAL CHEMISTRY=Be_4_Si_2_O_7_(OH)_2_
##LOCALITY=Golconda mine, Governador Valadares, Minas Gerais, Brazil
##OWNER=RRUFF
##SOURCE=Bob Jenkins
##DESCRIPTION=Colorless pseudohexagonal prisms
##STATUS=The identification of this mineral is confirmed by single-crystal X-ray diffraction and chemical analysis.
##URL=rruff.info/R060800
##MEASURED CHEMISTRY=Be_4.00_Si_2.00_O_7_(OH)_2_
##PIN_ID=M00406
##ORIENTATION=Laser parallel to b* (0 1 0). Fiducial mark perpendicular to laser is parallel to c [0 0 1]
123.0580, 4270.000
124.2880, 4240.000
125.5190, 4291.000
126.7490, 4311.000
127.9790, 4257.000
129.2090, 4425.000
130.4390, 4469.000
131.6680, 4394.000
132.8980, 4381.000
134.1270, 4495.000
135.3560, 4461.000
136.5850, 4460.000
137.8140, 4494.000
139.0430, 4542.000
140.2710, 4551.000
141.5000, 4593.412
142.7280, 4601.169
143.9560, 4642.000
145.1840, 4632.000
146.4120, 4620.000
147.6390, 4670.000
148.8670, 4605.000
150.0940, 4660.000
151.3210, 4681.000
152.5490, 4682.000
153.7750, 4707.150
155.0020, 4732.000
156.2290, 4739.000
157.4550, 4765.000
158.6810, 4821.000
159.9080, 4852.000
161.1340, 4918.000
162.3590, 4955.000
163.5850, 4939.000
164.8110, 4991.000
166.0360, 5101.000
167.2610, 5209.000
168.4860, 5256.000
169.7110, 5650.000
170.9360, 6006.000
172.1610, 6407.000
173.3850, 7088.000
174.6100, 7804.000
175.8340, 8602.000
177.0580, 10219.00
178.2820, 12818.00
179.5050, 16768.00
180.7290, 21572.00
181.9520, 23198.00
183.1760, 19879.00
184.3990, 15431.00
185.6220, 12946.00
186.8450, 11664.00
188.0670, 10520.00
189.2900, 9823.000
190.5120, 9635.000
191.7340, 10269.00
192.9560, 12132.00
194.1780, 14885.00
195.4000, 18539.00
196.6220, 21804.00
197.8430, 25143.00
199.0640, 30906.00
200.2860, 41094.00
201.5070, 54897.00
202.7270, 63652.00
203.9480, 55360.00
205.1690, 39231.00
206.3890, 29148.00
207.6090, 23508.00
208.8290, 18999.00
210.0490, 14484.00
211.2690, 11013.00
212.4890, 8656.000
213.7080, 7582.000
214.9280, 6959.000
216.1470, 6670.000
217.3660, 6864.000
218.5850, 7037.000
219.8030, 7269.000
221.0220, 7620.000
222.2400, 8417.000
223.4590, 10016.00
224.6770, 12349.00
225.8950, 15307.00
227.1120, 17038.00
228.3300, 15841.00
229.5480, 13647.00
230.7650, 12005.00
231.9820, 10912.00
233.1990, 10292.00
234.4160, 9782.000
235.6330, 9905.000
236.8490, 10672.00
238.0660, 11823.00
239.2820, 12494.00
240.4980, 11541.00
241.7140, 10096.00
242.9300, 9016.000
244.1460, 8381.000
245.3610, 7681.000
246.5770, 7030.000
247.7920, 6522.000
249.0070, 6204.000
250.2220, 5938.000
251.4370, 5904.000
252.6510, 5790.000
253.8660, 5683.000
255.0800, 5667.000
256.2940, 5654.000
257.5080, 5727.000
258.7220, 5656.379
259.9360, 5737.000
261.1490, 5585.000
262.3630, 5557.000
263.5760, 5563.000
264.7890, 5516.000
266.0020, 5567.000
267.2150, 5592.000
268.4270, 5543.000
269.6400, 5499.000
270.8520, 5597.000
272.0640, 5584.000
273.2760, 5544.000
274.4880, 5507.000
275.7000, 5511.000
276.9120, 5459.000
278.1230, 5612.000
279.3340, 5661.000
280.5450, 5726.000
281.7560, 5510.000
282.9670, 5544.000
284.1780, 5700.000
285.3880, 5588.000
286.5980, 5669.000
287.8090, 5813.000
289.0190, 5834.000
290.2290, 6061.000
291.4380, 6156.000
292.6480, 6416.000
293.8570, 6858.000
295.0670, 7415.000
296.2760, 7402.218
297.4850, 7999.000
298.6930, 7387.000
299.9020, 6875.000
301.1110, 6648.000
302.3190, 6463.000
303.5270, 6198.000
304.7350, 6040.000
305.9430, 5914.000
307.1510, 5820.000
308.3580, 5886.000
309.5660, 5840.000
310.7730, 5822.000
311.9800, 5817.000
313.1870, 5781.000
314.3940, 5767.000
315.6010, 5719.000
316.8070, 5666.000
318.0130, 5703.000
319.2200, 5720.000
320.4260, 5777.000
321.6310, 5778.000
322.8370, 5828.000
324.0430, 5885.000
325.2480, 5934.000
326.4540, 5879.000
327.6590, 6112.000
328.8640, 5997.000
330.0680, 6177.000
331.2730, 5986.000
332.4780, 6041.000
333.6820, 5998.000
334.8860, 5899.000
336.0900, 5958.000
337.2940, 5917.000
338.4980, 5960.000
339.7010, 5882.000
340.9050, 5879.000
342.1080, 5917.000
343.3110, 5952.000
344.5140, 6054.704
345.7170, 6207.000
346.9200, 6293.000
348.1220, 6491.000
349.3240, 6598.000
350.5270, 6761.000
351.7290, 6843.000
352.9310, 7310.000
354.1320, 7862.000
355.3340, 8524.000
356.5350, 8778.000
357.7370, 8473.000
358.9380, 8334.000
360.1390, 8857.000
361.3400, 9796.000
362.5400, 10312.00
363.7410, 9434.000
364.9410, 8382.000
366.1410, 7613.000
367.3410, 7229.000
368.5410, 6822.000
369.7410, 6595.000
370.9400, 6380.000
372.1400, 6198.000
373.3390, 6099.000
374.5380, 6114.000
375.7370, 6077.000
376.9360, 6151.000
378.1350, 6164.000
379.3330, 6167.000
380.5310, 6221.000
381.7300, 6240.000
382.9280, 6230.000
384.1260, 6234.000
385.3230, 6300.000
386.5210, 6307.000
387.7180, 6328.680
388.9160, 6386.000
390.1130, 6369.000
391.3100, 6394.437
392.5060, 6419.785
393.7030, 6413.000
394.9000, 6463.000
396.0960, 6491.000
397.2920, 6513.000
398.4880, 6501.613
399.6840, 6504.727
400.8800, 6450.000
402.0750, 6487.000
403.2710, 6467.000
404.4660, 6478.000
405.6610, 6553.000
406.8560, 6725.000
408.0510, 6753.000
409.2450, 6937.000
410.4400, 7158.000
411.6340, 7301.000
412.8280, 7505.000
414.0220, 7542.000
415.2160, 7447.000
416.4100, 7522.000
417.6030, 7377.000
418.7970, 7230.000
419.9900, 7068.000
421.1830, 6969.000
422.3760, 6817.732
423.5690, 6668.000
424.7610, 6561.000
425.9540, 6507.000
427.1460, 6399.000
428.3380, 6387.000
429.5300, 6229.000
430.7220, 6241.000
431.9140, 6273.000
433.1050, 6400.000
434.2970, 6312.000
435.4880, 6388.000
436.6790, 6405.000
437.8700, 6521.000
439.0610, 6564.697
440.2510, 6577.000
441.4420, 6699.000
442.6320, 6817.000
443.8220, 6902.000
445.0120, 7274.000
446.2020, 7582.000
447.3910, 7540.000
448.5810, 7406.000
449.7700, 7145.000
450.9600, 6909.000
452.1490, 6789.000
453.3370, 6669.000
454.5260, 6480.000
455.7150, 6431.000
456.9030, 6391.000
458.0910, 6351.000
459.2800, 6380.000
460.4670, 6260.000
461.6550, 6270.000
462.8430, 6255.000
464.0300, 6374.000
465.2180, 6372.000
466.4050, 6360.000
467.5920, 6436.000
468.7790, 6229.000
469.9650, 6299.000
471.1520, 6271.000
472.3380, 6401.000
473.5250, 6369.000
474.7110, 6352.000
475.8970, 6301.000
477.0820, 6522.000
478.2680, 6428.000
479.4540, 6496.000
480.6390, 6471.000
481.8240, 6429.000
483.0090, 6648.000
484.1940, 6798.000
485.3780, 7019.000
486.5630, 7435.000
487.7470, 7576.000
488.9320, 7576.000
490.1160, 7272.000
491.3000, 7316.000
492.4830, 7106.000
493.6670, 7190.000
494.8500, 7222.000
496.0340, 7330.000
497.2170, 7351.000
498.4000, 7262.000
499.5820, 7226.512
500.7650, 7023.000
501.9480, 7004.000
503.1300, 6816.000
504.3120, 6703.000
505.4940, 6683.000
506.6760, 6635.000
507.8580, 6611.000
509.0390, 6596.000
510.2210, 6601.000
511.4020, 6629.000
512.5830, 6606.192
513.7640, 6615.165
514.9450, 6578.000
516.1250, 6611.000
517.3060, 6588.000
518.4860, 6595.000
519.6660, 6601.176
520.8460, 6663.000
522.0260, 6620.000
523.2060, 6636.000
524.3850, 6677.000
525.5650, 6656.000
526.7440, 6821.000
527.9230, 6905.000
529.1020, 7147.000
530.2810, 7361.424
531.4590, 7404.000
532.6380, 7886.000
533.8160, 8293.000
534.9940, 8567.000
536.1720, 8402.000
537.3500, 8128.000
538.5270, 7820.000
539.7050, 7582.000
540.8820, 7476.000
542.0590, 7109.000
543.2360, 6946.000
544.4130, 6957.000
545.5900, 6874.000
546.7660, 6848.000
547.9430, 6738.000
549.1190, 6791.000
550.2950, 6739.000
551.4710, 6799.000
552.6470, 6751.000
553.8220, 6748.000
554.9980, 6860.000
556.1730, 6792.000
557.3480, 6780.000
558.5230, 6911.000
559.6980, 6824.000
560.8730, 6917.000
562.0470, 7038.000
563.2220, 6947.000
564.3960, 6975.000
565.5700, 7093.000
566.7440, 7202.000
567.9170, 7370.000
569.0910, 7695.000
570.2640, 7901.000
571.4380, 8299.000
572.6110, 8795.000
573.7840, 9357.000
574.9570, 10222.00
576.1290, 11100.00
577.3020, 11375.00
578.4740, 10898.00
579.6460, 10187.00
580.8180, 9349.000
581.9900, 8873.000
583.1620, 8333.000
584.3330, 7940.000
585.5040, 7520.000
586.6760, 7349.000
587.8470, 7299.000
589.0180, 7159.000
590.1880, 7140.000
591.3590, 7103.000
592.5290, 7168.000
593.7000, 7165.000
594.8700, 7116.000
596.0400, 7163.850
597.2090, 7086.000
598.3790, 7183.000
599.5490, 7114.000
600.7180, 7095.000
601.8870, 6990.000
603.0560, 7134.000
604.2250, 7072.000
605.3940, 7109.000
606.5620, 7040.000
607.7300, 7034.000
608.8990, 7165.000
610.0670, 7180.000
611.2350, 7228.000
612.4020, 7194.000
613.5700, 7293.000
614.7370, 7274.000
615.9050, 7308.000
617.0720, 7578.000
618.2390, 7695.000
619.4060, 7662.000
620.5720, 7721.000
621.7390, 7790.000
622.9050, 7691.000
624.0710, 7637.000
625.2370, 7514.000
626.4030, 7515.000
627.5690, 7396.000
628.7340, 7344.000
629.9000, 7292.000
631.0650, 7210.000
632.2300, 7200.000
633.3950, 7214.000
634.5600, 7323.000
635.7240, 7228.000
636.8890, 7186.000
638.0530, 7382.000
639.2170, 7242.000
640.3810, 7203.000
641.5450, 7292.000
642.7080, 7285.000
643.8720, 7348.000
645.0350, 7325.000
646.1980, 7304.000
647.3610, 7316.000
648.5240, 7314.000
649.6870, 7280.000
650.8490, 7364.000
652.0120, 7432.000
653.1740, 7300.000
654.3360, 7431.000
655.4980, 7409.000
656.6600, 7322.000
657.8210, 7472.000
658.9830, 7348.000
660.1440, 7388.000
661.3050, 7551.000
662.4660, 7615.000
663.6270, 7646.000
664.7870, 7594.000
665.9480, 7613.000
667.1080, 7700.000
668.2680, 7821.000
669.4280, 7894.955
670.5880, 8011.000
671.7480, 8139.000
672.9070, 8389.000
674.0670, 8585.000
675.2260, 8838.000
676.3850, 9189.000
677.5440, 9513.000
678.7030, 9708.000
679.8610, 10055.00
681.0200, 10317.00
682.1780, 10824.00
683.3360, 11311.00
684.4940, 12151.00
685.6520, 13008.00
686.8090, 13916.00
687.9670, 14779.00
689.1240, 15011.00
690.2810, 14818.00
691.4380, 14065.00
692.5950, 13328.00
693.7520, 12542.00
694.9080, 11883.00
696.0650, 11162.00
697.2210, 10820.00
698.3770, 10514.00
699.5330, 10253.00
700.6880, 10328.00
701.8440, 10532.00
702.9990, 10761.00
704.1550, 11240.00
705.3100, 11912.00
706.4650, 12721.00
707.6190, 13580.00
708.7740, 14334.00
709.9290, 14925.00
711.0830, 14766.00
712.2370, 14181.00
713.3910, 13447.00
714.5450, 12485.00
715.6980, 11600.00
716.8520, 10783.00
718.0050, 10351.00
719.1580, 9740.000
720.3110, 9381.000
721.4640, 9199.000
722.6170, 8921.000
723.7700, 8802.000
724.9220, 8663.000
726.0740, 8691.000
727.2260, 8571.000
728.3780, 8713.000
729.5300, 8756.000
730.6810, 8702.000
731.8330, 8837.000
732.9840, 8951.000
734.1350, 8862.000
735.2860, 8671.000
736.4370, 8675.000
737.5880, 8471.000
738.7380, 8580.000
739.8880, 8667.000
741.0390, 8507.000
742.1890, 8427.000
743.3380, 8587.000
744.4880, 8718.000
745.6380, 8806.000
746.7870, 8964.000
747.9360, 9438.000
749.0850, 9647.000
750.2340, 10074.00
751.3830, 10482.00
752.5310, 10646.00
753.6800, 10690.00
754.8280, 10612.00
755.9760, 10341.00
757.1240, 10211.00
758.2720, 10059.00
759.4190, 9866.000
760.5670, 9887.000
761.7140, 9982.000
762.8610, 10203.00
764.0080, 10439.00
765.1550, 10887.00
766.3020, 11534.00
767.4480, 12379.00
768.5950, 13144.00
769.7410, 13599.00
770.8870, 13605.00
772.0330, 13290.00
773.1780, 12441.00
774.3240, 11669.00
775.4690, 10977.00
776.6140, 10376.00
777.7590, 9906.000
778.9040, 9525.000
780.0490, 9161.000
781.1940, 8900.000
782.3380, 8765.000
783.4820, 8655.000
784.6260, 8554.000
785.7700, 8464.000
786.9140, 8420.000
788.0580, 8500.000
789.2010, 8389.000
790.3450, 8438.000
791.4880, 8397.000
792.6310, 8307.000
793.7730, 8317.000
794.9160, 8318.000
796.0590, 8229.000
797.2010, 8226.000
798.3430, 8221.000
799.4850, 8093.000
800.6270, 8231.000
801.7690, 8181.000
802.9100, 8094.000
804.0520, 8220.000
805.1930, 8226.000
806.3340, 8120.000
807.4750, 8297.000
808.6160, 8354.000
809.7560, 8180.000
810.8970, 8264.000
812.0370, 8250.000
813.1770, 8122.000
814.3170, 8320.000
815.4570, 8376.000
816.5960, 8352.000
817.7360, 8270.000
818.8750, 8440.000
820.0140, 8410.000
821.1530, 8476.000
822.2920, 8390.000
823.4310, 8346.000
824.5690, 8411.000
825.7070, 8261.000
826.8460, 8445.000
827.9840, 8333.000
829.1220, 8274.000
830.2590, 8316.000
831.3970, 8244.000
832.5340, 8312.000
833.6710, 8278.000
834.8080, 8276.204
835.9450, 8262.000
837.0820, 8269.000
838.2190, 8347.000
839.3550, 8342.000
840.4910, 8282.000
841.6270, 8393.000
842.7630, 8192.000
843.8990, 8378.000
845.0350, 8240.000
846.1700, 8327.000
847.3060, 8279.000
848.4410, 8297.000
849.5760, 8360.000
850.7100, 8313.000
851.8450, 8354.000
852.9800, 8401.000
854.1140, 8387.000
855.2480, 8393.000
856.3820, 8331.000
857.5160, 8401.000
858.6500, 8474.000
859.7830, 8280.000
860.9170, 8251.000
862.0500, 8422.000
863.1830, 8361.000
864.3160, 8342.000
865.4480, 8461.000
866.5810, 8379.000
867.7130, 8412.000
868.8460, 8447.000
869.9780, 8438.000
871.1100, 8524.000
872.2410, 8432.000
873.3730, 8358.000
874.5050, 8501.000
875.6360, 8454.000
876.7670, 8406.000
877.8980, 8481.000
879.0290, 8501.000
880.1590, 8427.000
881.2900, 8500.000
882.4200, 8541.000
883.5500, 8551.000
884.6800, 8526.000
885.8100, 8572.000
886.9400, 8571.000
888.0690, 8550.000
889.1990, 8578.000
890.3280, 8538.000
891.4570, 8621.000
892.5860, 8533.000
893.7140, 8585.000
894.8430, 8465.000
895.9710, 8486.906
897.1000, 8624.000
898.2280, 8506.000
899.3560, 8547.000
900.4830, 8596.000
901.6110, 8588.000
902.7380, 8739.000
903.8660, 8537.000
904.9930, 8663.000
906.1200, 8652.000
907.2460, 8521.000
908.3730, 8482.000
909.5000, 8591.000
910.6260, 8593.000
911.7520, 8587.000
912.8780, 8620.000
914.0040, 8780.000
915.1290, 8679.000
916.2550, 8818.000
917.3800, 8707.000
918.5050, 8773.000
919.6300, 8825.000
920.7550, 9017.000
921.8800, 9123.000
923.0040, 9241.000
924.1290, 9391.000
925.2530, 9505.000
926.3770, 9386.000
927.5010, 9239.000
928.6250, 9318.000
929.7480, 9220.000
930.8720, 9292.000
931.9950, 9173.000
933.1180, 9184.000
934.2410, 9242.000
935.3640, 9351.000
936.4860, 9250.000
937.6090, 9334.000
938.7310, 9263.000
939.8530, 9419.000
940.9750, 9568.000
942.0970, 9690.000
943.2180, 9869.000
944.3400, 10071.00
945.4610, 10450.00
946.5820, 10601.00
947.7030, 10840.00
948.8240, 10874.00
949.9450, 10603.00
951.0650, 10301.00
952.1860, 10277.00
953.3060, 9933.000
954.4260, 9724.000
955.5460, 9730.000
956.6650, 9428.000
957.7850, 9590.000
958.9040, 9499.000
960.0230, 9423.000
961.1420, 9412.000
962.2610, 9373.000
963.3800, 9593.000
964.4990, 9432.000
965.6170, 9575.000
966.7350, 9486.000
967.8530, 9399.000
968.9710, 9572.000
970.0890, 9669.000
971.2070, 9890.000
972.3240, 9864.000
973.4410, 10050.00
974.5580, 10220.00
975.6750, 10575.00
976.7920, 10734.00
977.9090, 11191.00
979.0250, 11688.00
980.1410, 12388.00
981.2580, 13160.00
982.3740, 14278.00
983.4890, 15424.00
984.6050, 16590.00
985.7200, 17734.00
986.8360, 18242.00
987.9510, 18203.00
989.0660, 17454.00
990.1810, 16570.00
991.2950, 15362.00
992.4100, 13992.00
993.5240, 13101.00
994.6390, 12257.00
995.7530, 11686.00
996.8660, 11236.00
997.9800, 10899.00
999.0940, 10503.00
1000.207, 10239.00
1001.320, 10253.00
1002.433, 10027.00
1003.546, 9946.000
1004.659, 9767.000
1005.772, 9740.000
1006.884, 9584.000
1007.996, 9640.000
1009.108, 9521.000
1010.220, 9470.000
1011.332, 9412.000
1012.444, 9383.000
1013.555, 9364.000
1014.666, 9336.226
1015.777, 9411.000
1016.888, 9331.000
1017.999, 9326.000
1019.110, 9374.000
1020.220, 9283.000
1021.331, 9398.000
1022.441, 9390.000
1023.551, 9427.000
1024.661, 9432.698
1025.770, 9382.000
1026.880, 9367.000
1027.989, 9375.000
1029.098, 9276.000
1030.207, 9415.000
1031.316, 9432.000
1032.425, 9336.000
1033.533, 9433.000
1034.642, 9457.000
1035.750, 9471.000
1036.858, 9369.000
1037.966, 9308.000
1039.073, 9361.000
1040.181, 9376.000
1041.288, 9531.000
1042.396, 9336.000
1043.503, 9395.000
1044.610, 9358.000
1045.716, 9514.000
1046.823, 9441.000
1047.929, 9414.000
1049.036, 9559.000
1050.142, 9585.000
1051.248, 9509.000
1052.353, 9568.000
1053.459, 9615.000
1054.564, 9681.000
1055.670, 9629.000
1056.775, 9643.000
1057.880, 9674.000
1058.985, 9752.000
1060.089, 9704.000
1061.194, 9837.000
1062.298, 9890.000
1063.402, 10130.00
1064.506, 10288.00
1065.610, 10515.00
1066.713, 10662.00
1067.817, 10888.00
1068.920, 10918.00
1070.023, 11066.00
1071.126, 10969.00
1072.229, 10961.00
1073.332, 10647.00
1074.435, 10544.00
1075.537, 10451.00
1076.639, 10382.00
1077.741, 10219.00
1078.843, 10191.00
1079.945, 10116.00
1081.046, 10244.00
1082.148, 10177.00
1083.249, 10207.00
1084.350, 10157.00
1085.451, 9870.000
1086.551, 9888.000
1087.652, 9810.000
1088.752, 9766.000
1089.853, 9787.000
1090.953, 9672.000
1092.053, 9694.000
1093.152, 9676.000
1094.252, 9614.000
1095.351, 9664.000
1096.451, 9680.000
1097.550, 9548.000
1098.649, 9404.000
1099.748, 9531.000
1100.846, 9448.000
1101.945, 9559.000
1103.043, 9561.000
1104.141, 9578.000
1105.239, 9570.000
1106.337, 9475.000
1107.434, 9577.000
1108.532, 9512.000
1109.629, 9419.000
1110.726, 9638.000
1111.823, 9655.000
1112.920, 9559.000
1114.017, 9600.000
1115.113, 9641.000
1116.210, 9719.000
1117.306, 9756.000
1118.402, 9808.275
1119.498, 9858.097
1120.593, 9863.000
1121.689, 9877.810
1122.784, 9872.000
1123.879, 9852.000
1124.974, 9785.000
1126.069, 9742.000
1127.164, 9734.000
1128.259, 9660.000
1129.353, 9730.000
1130.447, 9641.000
1131.541, 9569.000
1132.635, 9507.000
1133.729, 9583.000
1134.822, 9662.000
1135.916, 9538.000
1137.009, 9710.000
1138.102, 9574.000
1139.195, 9591.000
1140.288, 9556.000
1141.380, 9611.000
1142.473, 9643.000
1143.565, 9630.812
1144.657, 9725.000
1145.749, 9642.000
1146.841, 9665.000
1147.932, 9693.000
1149.024, 9711.000
1150.115, 9679.000
1151.206, 9772.000
1152.297, 9667.000
1153.388, 9712.000
1154.479, 9770.000
1155.569, 9717.000
1156.659, 9694.000
1157.750, 9774.000
1158.839, 9649.000
1159.929, 9818.000
1161.019, 9960.000
1162.108, 9871.000
1163.198, 9827.000
1164.287, 9758.000
1165.376, 9983.000
1166.465, 9951.000
1167.553, 9911.000
1168.642, 9933.000
1169.730, 9832.000
1170.818, 9805.000
1171.906, 9909.000
1172.994, 9926.000
1174.082, 9875.000
1175.170, 9894.000
1176.257, 9854.000
1177.344, 10006.00
1178.431, 9873.000
1179.518, 9959.000
1180.605, 9953.000
1181.691, 9886.000
1182.778, 9850.000
1183.864, 9968.000
1184.950, 9929.000
1186.036, 9997.000
1187.122, 9944.000
1188.207, 9722.000
1189.292, 9876.000
1190.378, 9769.000
1191.463, 9870.000
1192.548, 9760.000
1193.632, 9871.000
1194.717, 9762.000
1195.801, 9830.000
1196.886, 9879.000
1197.970, 9720.000
1199.054, 9792.000
1200.137, 9778.000
1201.221, 9905.000
1202.305, 9813.000
1203.388, 9759.000
1204.471, 9751.000
1205.554, 9752.947
1206.637, 9884.000
1207.719, 9838.000
1208.802, 9867.000
1209.884, 9925.000
1210.966, 9866.000
1212.048, 9870.000
1213.130, 9890.000
1214.212, 9931.000
1215.293, 9950.000
1216.374, 9796.000
1217.456, 9815.000
1218.536, 9880.000
1219.617, 9972.000
1220.698, 9942.000
1221.778, 9878.000
1222.859, 9957.000
1223.939, 9975.000
1225.019, 9909.000
1226.099, 9911.000
1227.178, 10028.00
1228.258, 10034.00
1229.337, 9970.000
1230.417, 9960.000
1231.496, 9897.000
1232.574, 9906.000
1233.653, 9941.000
1234.732, 9923.000
1235.810, 10053.00
1236.888, 9970.000
1237.966, 9975.000
1239.044, 9964.000
1240.122, 10081.00
1241.199, 10054.00
1242.277, 10076.00
1243.354, 10069.00
1244.431, 10080.00
1245.508, 10052.00
1246.585, 10063.00
1247.661, 10173.00
1248.738, 10046.00
1249.814, 10149.00
1250.890, 10199.00
1251.966, 10099.00
1253.042, 10042.00
1254.117, 10044.00
1255.193, 10040.00
1256.268, 10013.00
1257.343, 9982.000
1258.418, 10069.00
1259.493, 9995.000
1260.567, 10140.00
1261.642, 10307.00
1262.716, 10156.00
1263.790, 10073.00
1264.864, 10180.00
1265.938, 10113.00
1267.011, 10128.00
1268.085, 10256.00
1269.158, 10142.00
1270.231, 10070.00
1271.304, 10115.00
1272.377, 10168.00
1273.450, 10206.00
1274.522, 10011.00
1275.594, 10209.00
1276.666, 10081.00
1277.738, 10235.00
1278.810, 10312.00
1279.882, 10118.00
1280.953, 10172.00
1282.025, 10269.00
1283.096, 10210.00
1284.167, 10208.00
1285.238, 10272.00
1286.308, 10165.00
1287.379, 10260.00
1288.449, 10062.00
1289.519, 10026.00
1290.589, 10178.00
1291.659, 10245.00
1292.729, 10284.00
1293.798, 10304.59
1294.868, 10401.00
1295.937, 10260.00
1297.006, 10249.00
1298.075, 10235.00
1299.143, 10296.00
1300.212, 10248.00
1301.280, 10217.00
1302.348, 10305.00
1303.416, 10350.00
1304.484, 10248.00
1305.552, 10300.00
1306.620, 10328.00
1307.687, 10310.00
1308.754, 10341.00
1309.821, 10334.00
1310.888, 10270.00
1311.955, 10247.00
1313.021, 10369.00
1314.088, 10309.00
1315.154, 10341.00
1316.220, 10353.00
1317.286, 10358.00
1318.352, 10489.00
1319.417, 10497.00
1320.483, 10316.00
1321.548, 10465.00
1322.613, 10476.00
1323.678, 10376.00
1324.743, 10523.00
1325.807, 10332.00
1326.872, 10447.00
1327.936, 10423.00
1329.000, 10414.00
1330.064, 10418.00
1331.128, 10316.00
1332.191, 10437.00
1333.255, 10456.00
1334.318, 10412.00
1335.381, 10319.00
1336.444, 10476.00
1337.507, 10452.00
1338.569, 10554.00
1339.632, 10430.00
1340.694, 10462.00
1341.756, 10389.00
1342.818, 10493.00
1343.880, 10470.00
1344.941, 10370.00
1346.003, 10458.00
1347.064, 10666.00
1348.125, 10470.00
1349.186, 10561.00
1350.247, 10476.00
1351.308, 10449.00
1352.368, 10431.00
1353.428, 10535.00
1354.489, 10551.00
1355.549, 10541.00
1356.608, 10522.00
1357.668, 10477.00
1358.727, 10592.00
1359.787, 10479.00
1360.846, 10526.00
1361.905, 10612.00
1362.964, 10519.00
1364.022, 10545.00
1365.081, 10581.00
1366.139, 10584.00
1367.197, 10656.00
1368.255, 10606.91
1369.313, 10533.00
1370.371, 10565.00
1371.428, 10553.00
1372.486, 10621.00
1373.543, 10529.00
1374.600, 10606.00
1375.657, 10524.00
1376.713, 10657.00
1377.770, 10645.00
1378.826, 10622.00
1379.882, 10676.00
1380.938, 10685.00
1381.994, 10616.00
1383.050, 10683.00
1384.106, 10655.00
1385.161, 10769.00
1386.216, 10630.00
1387.271, 10660.00
1388.326, 10594.00
1389.381, 10727.00
1390.435, 10701.00
1391.490, 10649.00
1392.544, 10610.00
1393.598, 10673.00
1394.652, 10718.00
1395.705, 10735.00
1396.759, 10731.00
1397.812, 10670.00
1398.866, 10742.00
1399.919, 10601.00
1400.972, 10627.00
1402.024, 10689.00
1403.077, 10578.00
1404.129, 10584.00
1405.181, 10635.00
1406.233, 10592.00
1407.285, 10705.00
1408.337, 10733.00
1409.389, 10770.00
1410.440, 10803.80
1411.491, 10814.00
1412.542, 10790.00
1413.593, 10839.00
1414.644, 10765.00
1415.695, 10615.00
1416.745, 10770.00
1417.795, 10714.00
1418.845, 10747.00
1419.895, 10787.00
1420.945, 10826.00
1421.995, 10721.00
1423.044, 10680.00
1424.093, 10753.00
1425.142, 10676.00
1426.191, 10847.00
1427.240, 10773.00
1428.289, 10902.00
1429.337, 10824.00
1430.385, 10843.00
1431.433, 10753.00
1432.481, 10724.00
1433.529, 10895.00
1434.577, 10776.00
1435.624, 10738.00
1436.672, 10871.00
1437.719, 10846.00
1438.766, 10738.00
1439.812, 10965.00
1440.859, 10961.00
1441.905, 10867.00
1442.952, 11044.00
1443.998, 10890.00
1445.044, 10839.00
1446.090, 10894.00
1447.135, 10882.00
1448.181, 10862.00
1449.226, 10895.00
1450.271, 11031.00
1451.316, 10954.00
1452.361, 11030.00
1453.405, 11071.00
1454.450, 10966.00
1455.494, 10951.00
1456.538, 10897.00
1457.582, 11010.00
1458.626, 11174.00
1459.670, 11069.00
1460.713, 11095.00
1461.757, 10933.00
1462.800, 10940.00
1463.843, 11135.00
1464.886, 10975.00
1465.928, 11060.00
1466.971, 10995.00
1468.013, 10942.00
1469.055, 11049.00
1470.097, 10884.00
1471.139, 11164.00
1472.181, 11093.00
1473.222, 10977.00
1474.263, 11047.00
1475.305, 10969.00
1476.346, 11071.00
1477.386, 10983.00
1478.427, 11056.00
1479.468, 10956.00
1480.508, 11054.00
1481.548, 11200.00
1482.588, 11150.00
1483.628, 11111.00
1484.668, 11123.00
1485.707, 10965.00
1486.747, 11175.00
1487.786, 10946.00
1488.825, 11136.00
1489.864, 11211.00
1490.902, 11068.00
1491.941, 11244.00
1492.979, 11139.00
1494.017, 11053.00
1495.055, 11118.00
1496.093, 11125.00
1497.131, 10979.00
1498.168, 11269.00
1499.206, 11026.00
1500.243, 11088.00
1501.280, 11198.00
1502.317, 11265.00
1503.354, 11169.00
1504.390, 11151.00
1505.426, 11097.00
1506.463, 11120.00
1507.499, 11092.02
1508.535, 11178.00
1509.570, 11079.00
1510.606, 11097.00
1511.641, 11099.90
1512.676, 11306.00
1513.711, 11121.00
1514.746, 11295.00
1515.781, 11234.00
1516.816, 11168.00
1517.850, 11224.00
1518.884, 11255.00
1519.918, 11171.00
1520.952, 11195.00
1521.986, 11159.00
1523.019, 11253.00
1524.053, 11247.00
1525.086, 11293.00
1526.119, 11331.00
1527.152, 11099.00
1528.185, 11276.00
1529.217, 11245.00
1530.250, 11419.00
1531.282, 11285.00
1532.314, 11316.00
1533.346, 11362.17
1534.377, 11405.00
1535.409, 11433.00
1536.440, 11320.00
1537.472, 11378.00
1538.503, 11427.00
1539.534, 11281.00
1540.564, 11371.00
1541.595, 11366.00
1542.625, 11339.00
1543.656, 11203.00
1544.686, 11383.00
1545.716, 11540.00
1546.745, 11396.00
1547.775, 11350.00
1548.804, 11233.00
1549.834, 11413.00
1550.863, 11430.00
1551.892, 11333.00
1552.920, 11532.00
1553.949, 11427.00
1554.977, 11445.00
1556.006, 11360.00
1557.034, 11420.00
1558.062, 11375.00
1559.089, 11485.00
1560.117, 11378.00
1561.144, 11304.00
1562.172, 11442.00
1563.199, 11527.00
1564.226, 11482.00
1565.252, 11394.00
1566.279, 11473.00
1567.305, 11447.00
1568.332, 11462.00
1569.358, 11591.00
1570.384, 11549.00
1571.409, 11342.00
1572.435, 11634.00
##END=



