##NAMES=Bertrandite
##RRUFFID=R060800
##IDEAL CHEMISTRY=Be_4_Si_2_O_7_(OH)_2_
##LOCALITY=Golconda mine, Governador Valadares, Minas Gerais, Brazil
##OWNER=RRUFF
##SOURCE=Bob Jenkins
##DESCRIPTION=Colorless pseudohexagonal prisms
##STATUS=The identification of this mineral is confirmed by single-crystal X-ray diffraction and chemical analysis.
##URL=rruff.info/R060800
##MEASURED CHEMISTRY=Be_4.00_Si_2.00_O_7_(OH)_2_
##PIN_ID=M00212
##ORIENTATION=Laser parallel to c* (0 0 1). Fiducial mark perpendicular to laser is parallel to a [1 0 0]
123.0580, 18486.00
124.2880, 18740.00
125.5190, 18827.00
126.7490, 18973.00
127.9790, 18908.00
129.2090, 19033.00
130.4390, 19051.00
131.6680, 19181.00
132.8980, 19090.00
134.1270, 19110.00
135.3560, 19293.00
136.5850, 19305.00
137.8140, 19367.00
139.0430, 19664.00
140.2710, 19381.00
141.5000, 19692.00
142.7280, 19495.00
143.9560, 19716.00
145.1840, 19569.00
146.4120, 19675.00
147.6390, 19630.00
148.8670, 19803.00
150.0940, 19873.00
151.3210, 20004.00
152.5490, 19885.00
153.7750, 19952.00
155.0020, 20024.00
156.2290, 19949.00
157.4550, 20109.00
158.6810, 19920.00
159.9080, 20157.00
161.1340, 20165.00
162.3590, 20188.00
163.5850, 20230.00
164.8110, 20320.00
166.0360, 20317.00
167.2610, 20413.00
168.4860, 20553.00
169.7110, 20671.00
170.9360, 20317.00
172.1610, 20548.00
173.3850, 20765.00
174.6100, 20711.00
175.8340, 20973.00
177.0580, 21386.00
178.2820, 21469.00
179.5050, 22168.00
180.7290, 23022.00
181.9520, 24406.00
183.1760, 25642.00
184.3990, 25141.00
185.6220, 23716.00
186.8450, 22463.00
188.0670, 22024.00
189.2900, 21730.00
190.5120, 21724.00
191.7340, 21701.00
192.9560, 21907.00
194.1780, 22105.00
195.4000, 22634.00
196.6220, 23395.00
197.8430, 24234.00
199.0640, 25352.00
200.2860, 26122.00
201.5070, 27277.00
202.7270, 30056.00
203.9480, 33697.00
205.1690, 36660.00
206.3890, 38170.00
207.6090, 35347.00
208.8290, 29959.00
210.0490, 26266.00
211.2690, 24262.00
212.4890, 23232.00
213.7080, 22380.00
214.9280, 22012.00
216.1470, 22200.00
217.3660, 21943.00
218.5850, 22032.00
219.8030, 21957.00
221.0220, 21808.00
222.2400, 22206.00
223.4590, 22317.00
224.6770, 22704.00
225.8950, 23308.00
227.1120, 24109.00
228.3300, 24742.00
229.5480, 24298.00
230.7650, 23471.00
231.9820, 22848.00
233.1990, 22632.00
234.4160, 22676.00
235.6330, 22528.00
236.8490, 22633.00
238.0660, 23083.00
239.2820, 23280.00
240.4980, 23446.00
241.7140, 23447.00
242.9300, 23071.00
244.1460, 22729.00
245.3610, 22334.00
246.5770, 22273.00
247.7920, 22072.00
249.0070, 22045.00
250.2220, 22091.00
251.4370, 22085.48
252.6510, 22096.00
253.8660, 22228.00
255.0800, 22188.00
256.2940, 22202.00
257.5080, 22318.00
258.7220, 22374.00
259.9360, 22366.00
261.1490, 22397.00
262.3630, 22154.00
263.5760, 22472.00
264.7890, 22261.00
266.0020, 22373.00
267.2150, 22352.00
268.4270, 22382.00
269.6400, 22382.00
270.8520, 22435.00
272.0640, 22459.00
273.2760, 22400.00
274.4880, 22699.00
275.7000, 22682.00
276.9120, 22726.00
278.1230, 22595.00
279.3340, 22569.00
280.5450, 22544.26
281.7560, 22557.00
282.9670, 22569.00
284.1780, 22537.00
285.3880, 22734.00
286.5980, 22775.00
287.8090, 22559.00
289.0190, 22934.00
290.2290, 22684.00
291.4380, 22989.00
292.6480, 23003.00
293.8570, 23079.00
295.0670, 22980.00
296.2760, 23157.00
297.4850, 23411.00
298.6930, 23447.00
299.9020, 23551.00
301.1110, 23712.00
302.3190, 23231.00
303.5270, 23145.00
304.7350, 23202.00
305.9430, 23155.00
307.1510, 23128.00
308.3580, 23156.00
309.5660, 23240.00
310.7730, 23087.00
311.9800, 23164.00
313.1870, 23353.00
314.3940, 23292.00
315.6010, 23327.00
316.8070, 23269.00
318.0130, 23370.00
319.2200, 23391.00
320.4260, 23361.00
321.6310, 23588.00
322.8370, 23443.00
324.0430, 23428.00
325.2480, 23754.00
326.4540, 23619.00
327.6590, 23974.00
328.8640, 24421.00
330.0680, 24363.00
331.2730, 24075.00
332.4780, 23977.00
333.6820, 23883.00
334.8860, 23879.00
336.0900, 23531.00
337.2940, 23786.00
338.4980, 23618.00
339.7010, 23838.00
340.9050, 23841.00
342.1080, 23825.00
343.3110, 24171.00
344.5140, 23900.00
345.7170, 24155.00
346.9200, 24003.00
348.1220, 23994.00
349.3240, 24093.00
350.5270, 24163.00
351.7290, 24094.00
352.9310, 24174.00
354.1320, 24262.00
355.3340, 24496.00
356.5350, 24773.00
357.7370, 25029.00
358.9380, 24970.00
360.1390, 24892.00
361.3400, 24865.00
362.5400, 24770.31
363.7410, 24790.00
364.9410, 24620.00
366.1410, 24514.00
367.3410, 24476.00
368.5410, 24430.00
369.7410, 24228.00
370.9400, 24402.00
372.1400, 24550.00
373.3390, 24373.00
374.5380, 24513.00
375.7370, 24630.00
376.9360, 24610.00
378.1350, 24847.00
379.3330, 24594.00
380.5310, 24858.00
381.7300, 24641.00
382.9280, 24759.00
384.1260, 24872.00
385.3230, 24964.00
386.5210, 24861.00
387.7180, 25065.00
388.9160, 24990.00
390.1130, 25135.00
391.3100, 24912.00
392.5060, 24917.00
393.7030, 24906.00
394.9000, 24984.00
396.0960, 24987.00
397.2920, 24999.00
398.4880, 25101.00
399.6840, 24974.00
400.8800, 24889.00
402.0750, 25023.00
403.2710, 25055.00
404.4660, 25193.00
405.6610, 24943.00
406.8560, 25075.00
408.0510, 25220.00
409.2450, 25229.00
410.4400, 24921.00
411.6340, 25295.00
412.8280, 25292.00
414.0220, 25279.00
415.2160, 25592.00
416.4100, 25236.00
417.6030, 25351.00
418.7970, 25320.00
419.9900, 25483.00
421.1830, 25447.00
422.3760, 25533.65
423.5690, 25583.92
424.7610, 25645.00
425.9540, 25609.00
427.1460, 25603.00
428.3380, 25614.39
429.5300, 25610.11
430.7220, 25609.00
431.9140, 25638.00
433.1050, 25643.00
434.2970, 25663.00
435.4880, 25667.00
436.6790, 25621.00
437.8700, 25637.68
439.0610, 25695.00
440.2510, 25711.00
441.4420, 25772.00
442.6320, 25995.00
443.8220, 25866.00
445.0120, 25925.00
446.2020, 25845.00
447.3910, 26241.00
448.5810, 26114.00
449.7700, 26141.00
450.9600, 26069.00
452.1490, 25949.00
453.3370, 25710.00
454.5260, 26113.00
455.7150, 25841.00
456.9030, 25919.00
458.0910, 26158.00
459.2800, 26126.00
460.4670, 26067.00
461.6550, 26011.00
462.8430, 26151.00
464.0300, 26197.00
465.2180, 26217.00
466.4050, 26382.00
467.5920, 26297.00
468.7790, 26257.00
469.9650, 26402.00
471.1520, 26489.00
472.3380, 26423.00
473.5250, 26429.00
474.7110, 26362.00
475.8970, 26444.00
477.0820, 26430.00
478.2680, 26503.00
479.4540, 26480.00
480.6390, 26497.00
481.8240, 26817.00
483.0090, 26769.00
484.1940, 26681.00
485.3780, 26925.00
486.5630, 26599.00
487.7470, 26878.00
488.9320, 27056.00
490.1160, 26777.00
491.3000, 27045.00
492.4830, 27052.00
493.6670, 26885.00
494.8500, 27033.00
496.0340, 27203.00
497.2170, 27154.00
498.4000, 27135.00
499.5820, 27265.00
500.7650, 27323.00
501.9480, 27440.00
503.1300, 27052.00
504.3120, 26865.00
505.4940, 27162.00
506.6760, 27189.00
507.8580, 27252.00
509.0390, 27064.00
510.2210, 27320.00
511.4020, 27296.00
512.5830, 27402.00
513.7640, 27285.00
514.9450, 27361.00
516.1250, 27271.00
517.3060, 27220.00
518.4860, 27589.00
519.6660, 27483.00
520.8460, 27495.00
522.0260, 27522.00
523.2060, 27493.00
524.3850, 27382.00
525.5650, 27744.00
526.7440, 27579.00
527.9230, 27731.00
529.1020, 27806.00
530.2810, 27617.00
531.4590, 27844.00
532.6380, 27712.00
533.8160, 27895.00
534.9940, 28098.00
536.1720, 28013.00
537.3500, 28229.00
538.5270, 28114.00
539.7050, 28378.00
540.8820, 28065.00
542.0590, 28305.00
543.2360, 28234.00
544.4130, 28108.00
545.5900, 28031.00
546.7660, 28139.00
547.9430, 27909.00
549.1190, 27963.00
550.2950, 28196.00
551.4710, 28147.00
552.6470, 28094.00
553.8220, 28342.00
554.9980, 28284.00
556.1730, 28238.00
557.3480, 28483.00
558.5230, 28299.00
559.6980, 28055.00
560.8730, 28425.00
562.0470, 28377.00
563.2220, 28594.00
564.3960, 28448.00
565.5700, 28593.00
566.7440, 28633.00
567.9170, 28645.00
569.0910, 28939.00
570.2640, 28919.00
571.4380, 29055.00
572.6110, 28835.00
573.7840, 29319.00
574.9570, 29320.00
576.1290, 29831.00
577.3020, 30005.00
578.4740, 29996.00
579.6460, 29977.00
580.8180, 29542.00
581.9900, 29504.00
583.1620, 29248.00
584.3330, 29355.00
585.5040, 28966.00
586.6760, 29285.00
587.8470, 29198.00
589.0180, 29280.00
590.1880, 29198.00
591.3590, 29066.00
592.5290, 29220.00
593.7000, 29092.00
594.8700, 29259.00
596.0400, 29052.00
597.2090, 29164.00
598.3790, 29406.00
599.5490, 29317.00
600.7180, 29328.00
601.8870, 29398.00
603.0560, 29291.00
604.2250, 29484.00
605.3940, 29653.00
606.5620, 29513.00
607.7300, 29448.00
608.8990, 29346.00
610.0670, 29385.83
611.2350, 29447.58
612.4020, 29486.00
613.5700, 29732.00
614.7370, 29736.00
615.9050, 29952.00
617.0720, 29965.00
618.2390, 29816.00
619.4060, 30024.00
620.5720, 30186.00
621.7390, 30227.00
622.9050, 30106.00
624.0710, 30269.00
625.2370, 30139.00
626.4030, 30286.00
627.5690, 30087.00
628.7340, 30363.00
629.9000, 30145.00
631.0650, 30246.00
632.2300, 30230.00
633.3950, 30061.00
634.5600, 30360.00
635.7240, 30191.00
636.8890, 30474.00
638.0530, 30263.00
639.2170, 30227.00
640.3810, 30417.00
641.5450, 30554.00
642.7080, 30577.00
643.8720, 30558.00
645.0350, 30729.00
646.1980, 30639.00
647.3610, 30535.00
648.5240, 30668.00
649.6870, 30448.00
650.8490, 31048.00
652.0120, 30659.00
653.1740, 30982.00
654.3360, 30756.00
655.4980, 30786.00
656.6600, 30856.00
657.8210, 30706.00
658.9830, 30724.00
660.1440, 30806.00
661.3050, 30861.00
662.4660, 30952.00
663.6270, 30913.00
664.7870, 31004.00
665.9480, 30903.00
667.1080, 31001.00
668.2680, 31110.00
669.4280, 31145.00
670.5880, 31098.00
671.7480, 31358.00
672.9070, 31102.00
674.0670, 31381.00
675.2260, 31335.00
676.3850, 31467.00
677.5440, 31399.00
678.7030, 31437.00
679.8610, 31701.00
681.0200, 31788.00
682.1780, 31775.00
683.3360, 31994.00
684.4940, 32295.00
685.6520, 32275.00
686.8090, 32561.00
687.9670, 32843.00
689.1240, 32847.00
690.2810, 33385.00
691.4380, 33489.00
692.5950, 33528.00
693.7520, 33649.00
694.9080, 33399.00
696.0650, 33200.00
697.2210, 33099.00
698.3770, 33045.00
699.5330, 32946.00
700.6880, 32862.00
701.8440, 32866.13
702.9990, 32674.00
704.1550, 32848.00
705.3100, 32892.00
706.4650, 32814.00
707.6190, 32789.00
708.7740, 32654.00
709.9290, 32952.00
711.0830, 33020.00
712.2370, 32861.00
713.3910, 32712.00
714.5450, 32655.00
715.6980, 32664.00
716.8520, 32767.00
718.0050, 32680.00
719.1580, 32734.00
720.3110, 32814.00
721.4640, 32861.00
722.6170, 32905.00
723.7700, 32978.23
724.9220, 33005.39
726.0740, 33081.00
727.2260, 33117.00
728.3780, 33110.00
729.5300, 33252.00
730.6810, 32994.00
731.8330, 33008.00
732.9840, 33109.00
734.1350, 33075.00
735.2860, 33062.06
736.4370, 32972.00
737.5880, 33004.00
738.7380, 32938.00
739.8880, 32990.00
741.0390, 33097.00
742.1890, 33164.00
743.3380, 33170.00
744.4880, 33198.00
745.6380, 33274.00
746.7870, 33536.00
747.9360, 33487.00
749.0850, 33917.00
750.2340, 33710.00
751.3830, 33963.00
752.5310, 34066.00
753.6800, 34224.00
754.8280, 34016.00
755.9760, 33915.00
757.1240, 33911.00
758.2720, 33926.00
759.4190, 33837.00
760.5670, 34049.00
761.7140, 34104.00
762.8610, 34146.00
764.0080, 34079.00
765.1550, 34208.00
766.3020, 34147.00
767.4480, 33921.00
768.5950, 33995.00
769.7410, 33972.57
770.8870, 34349.00
772.0330, 34048.00
773.1780, 34202.00
774.3240, 34155.00
775.4690, 33975.00
776.6140, 34054.00
777.7590, 34010.00
778.9040, 33891.00
780.0490, 33957.00
781.1940, 34067.00
782.3380, 34142.00
783.4820, 34168.00
784.6260, 34118.00
785.7700, 34170.76
786.9140, 34195.52
788.0580, 34148.00
789.2010, 34305.00
790.3450, 34207.00
791.4880, 34283.00
792.6310, 34435.00
793.7730, 34415.00
794.9160, 34387.00
796.0590, 34464.00
797.2010, 34578.00
798.3430, 34628.00
799.4850, 34340.00
800.6270, 34949.00
801.7690, 34939.00
802.9100, 34758.00
804.0520, 35207.00
805.1930, 35205.00
806.3340, 35084.00
807.4750, 35438.00
808.6160, 35356.00
809.7560, 35192.00
810.8970, 35228.00
812.0370, 34966.00
813.1770, 35209.00
814.3170, 35114.00
815.4570, 35140.00
816.5960, 35292.00
817.7360, 35253.00
818.8750, 35180.00
820.0140, 35225.00
821.1530, 35478.00
822.2920, 35286.00
823.4310, 35152.00
824.5690, 35444.00
825.7070, 35396.00
826.8460, 35220.00
827.9840, 35221.00
829.1220, 35195.12
830.2590, 35179.10
831.3970, 35339.00
832.5340, 35264.00
833.6710, 35568.00
834.8080, 35683.00
835.9450, 35628.00
837.0820, 35720.00
838.2190, 35710.00
839.3550, 35599.00
840.4910, 35703.00
841.6270, 35726.07
842.7630, 35656.00
843.8990, 35886.00
845.0350, 35909.00
846.1700, 35958.00
847.3060, 35980.00
848.4410, 36096.00
849.5760, 36245.00
850.7100, 36126.00
851.8450, 36413.00
852.9800, 35997.00
854.1140, 36358.00
855.2480, 36157.00
856.3820, 36349.00
857.5160, 36354.00
858.6500, 36263.00
859.7830, 36389.00
860.9170, 36247.00
862.0500, 36415.00
863.1830, 36477.00
864.3160, 36594.00
865.4480, 36553.00
866.5810, 36619.00
867.7130, 36369.00
868.8460, 36284.00
869.9780, 36659.00
871.1100, 36304.00
872.2410, 36655.00
873.3730, 36545.00
874.5050, 36623.00
875.6360, 36780.00
876.7670, 36818.00
877.8980, 36686.00
879.0290, 36855.00
880.1590, 36775.00
881.2900, 36830.00
882.4200, 36893.00
883.5500, 36885.00
884.6800, 36895.00
885.8100, 37066.00
886.9400, 37086.00
888.0690, 37055.00
889.1990, 37012.00
890.3280, 37140.00
891.4570, 36970.00
892.5860, 37219.00
893.7140, 37246.00
894.8430, 37249.00
895.9710, 37097.00
897.1000, 37442.00
898.2280, 37098.00
899.3560, 37325.00
900.4830, 37337.00
901.6110, 37232.00
902.7380, 37437.00
903.8660, 37549.00
904.9930, 37479.00
906.1200, 37703.00
907.2460, 37478.00
908.3730, 37731.00
909.5000, 37567.00
910.6260, 37421.00
911.7520, 37600.00
912.8780, 37762.00
914.0040, 37853.00
915.1290, 37948.00
916.2550, 38181.00
917.3800, 37948.00
918.5050, 37913.00
919.6300, 37751.00
920.7550, 37955.00
921.8800, 37931.00
923.0040, 37916.00
924.1290, 37987.00
925.2530, 38309.00
926.3770, 38197.00
927.5010, 38301.00
928.6250, 38351.00
929.7480, 38334.00
930.8720, 38339.00
931.9950, 38325.00
933.1180, 38484.00
934.2410, 38283.00
935.3640, 38427.00
936.4860, 38311.00
937.6090, 38336.00
938.7310, 38516.00
939.8530, 38491.00
940.9750, 38576.00
942.0970, 38710.40
943.2180, 38675.00
944.3400, 38955.00
945.4610, 38960.00
946.5820, 39052.00
947.7030, 39178.00
948.8240, 39142.00
949.9450, 39166.00
951.0650, 39167.81
952.1860, 39136.00
953.3060, 39119.00
954.4260, 39154.00
955.5460, 39138.00
956.6650, 39189.50
957.7850, 39218.00
958.9040, 39297.00
960.0230, 39279.00
961.1420, 39334.00
962.2610, 39387.00
963.3800, 39451.00
964.4990, 39452.00
965.6170, 39539.00
966.7350, 39293.00
967.8530, 39400.00
968.9710, 39402.00
970.0890, 39662.00
971.2070, 39674.00
972.3240, 39696.00
973.4410, 39722.00
974.5580, 40000.00
975.6750, 40202.00
976.7920, 40212.00
977.9090, 40240.00
979.0250, 40645.00
980.1410, 40898.00
981.2580, 41176.00
982.3740, 41558.58
983.4890, 41706.00
984.6050, 42184.00
985.7200, 42275.00
986.8360, 42373.00
987.9510, 42314.00
989.0660, 42309.00
990.1810, 41865.00
991.2950, 41710.00
992.4100, 41232.00
993.5240, 41116.00
994.6390, 40861.00
995.7530, 40748.00
996.8660, 40719.33
997.9800, 40960.00
999.0940, 40700.00
1000.207, 40880.00
1001.320, 40817.00
1002.433, 40907.00
1003.546, 41039.00
1004.659, 40746.00
1005.772, 40656.00
1006.884, 40724.00
1007.996, 40773.00
1009.108, 40694.00
1010.220, 40796.39
1011.332, 40798.00
1012.444, 40878.00
1013.555, 40886.00
1014.666, 40860.00
1015.777, 41229.00
1016.888, 41277.00
1017.999, 41161.00
1019.110, 40986.00
1020.220, 41168.00
1021.331, 41312.00
1022.441, 41005.00
1023.551, 41289.00
1024.661, 41054.00
1025.770, 41486.00
1026.880, 41273.00
1027.989, 41328.00
1029.098, 41326.00
1030.207, 41316.75
1031.316, 41406.00
1032.425, 41444.00
1033.533, 41563.00
1034.642, 41583.93
1035.750, 41604.00
1036.858, 41635.00
1037.966, 41676.00
1039.073, 41676.00
1040.181, 41368.00
1041.288, 41866.00
1042.396, 41527.00
1043.503, 41868.00
1044.610, 41663.00
1045.716, 41907.00
1046.823, 41830.00
1047.929, 41989.00
1049.036, 42043.00
1050.142, 42030.00
1051.248, 41792.00
1052.353, 42107.00
1053.459, 41953.00
1054.564, 42107.00
1055.670, 42352.00
1056.775, 42147.00
1057.880, 41993.00
1058.985, 42509.00
1060.089, 42433.00
1061.194, 42333.00
1062.298, 42529.00
1063.402, 42553.00
1064.506, 42650.00
1065.610, 42574.00
1066.713, 42635.00
1067.817, 42902.00
1068.920, 43043.00
1070.023, 42846.00
1071.126, 43057.00
1072.229, 43029.00
1073.332, 43055.00
1074.435, 43103.00
1075.537, 42977.00
1076.639, 43333.00
1077.741, 43198.00
1078.843, 43207.00
1079.945, 43563.00
1081.046, 43672.00
1082.148, 43599.00
1083.249, 43603.00
1084.350, 43826.00
1085.451, 43867.00
1086.551, 43747.00
1087.652, 43554.00
1088.752, 43654.00
1089.853, 43874.00
1090.953, 43742.00
1092.053, 43864.00
1093.152, 43833.00
1094.252, 43726.00
1095.351, 43988.00
1096.451, 44033.00
1097.550, 44141.00
1098.649, 44004.00
1099.748, 43747.00
1100.846, 43612.00
1101.945, 43722.00
1103.043, 44139.00
1104.141, 43879.00
1105.239, 44144.00
1106.337, 43915.00
1107.434, 44013.00
1108.532, 44039.00
1109.629, 44400.00
1110.726, 44097.00
1111.823, 44227.00
1112.920, 43813.00
1114.017, 44380.00
1115.113, 44518.00
1116.210, 43936.00
1117.306, 44339.00
1118.402, 44561.00
1119.498, 44109.00
1120.593, 44268.00
1121.689, 44596.00
1122.784, 44160.00
1123.879, 44560.00
1124.974, 44569.00
1126.069, 44631.00
1127.164, 44491.00
1128.259, 44674.00
1129.353, 44804.00
1130.447, 44510.00
1131.541, 44888.00
1132.635, 44512.00
1133.729, 44741.00
1134.822, 44724.00
1135.916, 44687.00
1137.009, 44995.00
1138.102, 45148.00
1139.195, 44791.00
1140.288, 45037.00
1141.380, 44930.00
1142.473, 45123.00
1143.565, 45273.00
1144.657, 45149.00
1145.749, 45072.00
1146.841, 45125.00
1147.932, 45038.30
1149.024, 45100.19
1150.115, 45009.00
1151.206, 45199.00
1152.297, 45243.00
1153.388, 45269.00
1154.479, 45472.00
1155.569, 45398.00
1156.659, 45729.00
1157.750, 45745.00
1158.839, 45631.00
1159.929, 45602.00
1161.019, 45886.00
1162.108, 45392.00
1163.198, 45746.00
1164.287, 45507.00
1165.376, 45775.00
1166.465, 46050.00
1167.553, 45893.00
1168.642, 45860.00
1169.730, 46100.00
1170.818, 45991.00
1171.906, 45894.00
1172.994, 46400.00
1174.082, 46325.00
1175.170, 45943.00
1176.257, 46228.00
1177.344, 46176.00
1178.431, 46290.00
1179.518, 46168.00
1180.605, 46172.00
1181.691, 46267.00
1182.778, 46638.00
1183.864, 46414.00
1184.950, 46322.00
1186.036, 46592.00
1187.122, 46303.00
1188.207, 46421.00
1189.292, 46605.00
1190.378, 46619.00
1191.463, 46644.00
1192.548, 46860.00
1193.632, 46988.00
1194.717, 46785.00
1195.801, 46735.00
1196.886, 47060.00
1197.970, 46878.00
1199.054, 47020.00
1200.137, 46876.00
1201.221, 47072.00
1202.305, 47148.00
1203.388, 47058.00
1204.471, 47117.00
1205.554, 47070.00
1206.637, 47124.46
1207.719, 47410.00
1208.802, 47323.00
1209.884, 47437.00
1210.966, 47690.00
1212.048, 47411.00
1213.130, 47707.00
1214.212, 47588.00
1215.293, 47671.00
1216.374, 47719.00
1217.456, 47836.00
1218.536, 47575.00
1219.617, 47378.00
1220.698, 47775.00
1221.778, 47532.00
1222.859, 48103.00
1223.939, 47885.00
1225.019, 47944.00
1226.099, 48030.00
1227.178, 47914.00
1228.258, 47967.00
1229.337, 48151.00
1230.417, 48079.00
1231.496, 48358.00
1232.574, 47951.00
1233.653, 47989.00
1234.732, 48451.00
1235.810, 48225.00
1236.888, 48326.00
1237.966, 48305.00
1239.044, 48539.00
1240.122, 48335.00
1241.199, 48585.00
1242.277, 48841.00
1243.354, 48548.00
1244.431, 48845.00
1245.508, 48749.00
1246.585, 48530.00
1247.661, 48618.00
1248.738, 48679.00
1249.814, 48743.00
1250.890, 48756.00
1251.966, 48849.39
1253.042, 48857.00
1254.117, 48937.00
1255.193, 48863.00
1256.268, 48742.00
1257.343, 49098.00
1258.418, 49097.00
1259.493, 48842.00
1260.567, 48995.00
1261.642, 49461.00
1262.716, 49447.00
1263.790, 49304.00
1264.864, 49683.00
1265.938, 49634.00
1267.011, 49609.00
1268.085, 49439.00
1269.158, 49455.00
1270.231, 49500.00
1271.304, 49391.00
1272.377, 49407.54
1273.450, 49427.48
1274.522, 49372.00
1275.594, 49500.00
1276.666, 49567.00
1277.738, 49627.00
1278.810, 49659.00
1279.882, 49897.00
1280.953, 49613.00
1282.025, 49904.00
1283.096, 49791.00
1284.167, 50021.00
1285.238, 50083.00
1286.308, 49933.00
1287.379, 50208.00
1288.449, 50303.00
1289.519, 50214.00
1290.589, 50254.00
1291.659, 50085.00
1292.729, 50397.00
1293.798, 50220.00
1294.868, 50529.00
1295.937, 50540.00
1297.006, 50386.00
1298.075, 50501.00
1299.143, 50516.00
1300.212, 50574.00
1301.280, 50544.00
1302.348, 50770.00
1303.416, 50990.00
1304.484, 51121.00
1305.552, 51104.00
1306.620, 51193.00
1307.687, 50732.00
1308.754, 51150.00
1309.821, 50961.00
1310.888, 50900.00
1311.955, 51062.00
1313.021, 50838.00
1314.088, 51143.00
1315.154, 51213.00
1316.220, 51476.00
1317.286, 51498.93
1318.352, 51298.00
1319.417, 51486.00
1320.483, 51405.00
1321.548, 51320.00
1322.613, 51653.00
1323.678, 51670.00
1324.743, 51441.00
1325.807, 51304.00
1326.872, 51262.00
1327.936, 51810.00
1329.000, 51629.00
1330.064, 51867.00
1331.128, 51635.00
1332.191, 51829.00
1333.255, 52181.00
1334.318, 51924.00
1335.381, 51782.00
1336.444, 52075.00
1337.507, 51819.00
1338.569, 51979.00
1339.632, 52132.00
1340.694, 52150.00
1341.756, 52134.00
1342.818, 52394.00
1343.880, 52148.00
1344.941, 52351.00
1346.003, 52452.00
1347.064, 52317.00
1348.125, 52406.00
1349.186, 52280.00
1350.247, 52601.00
1351.308, 52326.00
1352.368, 52687.00
1353.428, 52771.00
1354.489, 52387.00
1355.549, 52640.00
1356.608, 52750.00
1357.668, 52446.00
1358.727, 52916.00
1359.787, 52705.00
1360.846, 52692.00
1361.905, 52989.00
1362.964, 53018.00
1364.022, 53078.00
1365.081, 53145.00
1366.139, 52892.00
1367.197, 52989.00
1368.255, 53278.00
1369.313, 53044.00
1370.371, 53080.00
1371.428, 52895.00
1372.486, 53121.00
1373.543, 53299.00
1374.600, 53480.00
1375.657, 53519.00
1376.713, 53311.00
1377.770, 53301.00
1378.826, 53505.00
1379.882, 53258.00
1380.938, 53260.00
1381.994, 53602.00
1383.050, 53593.00
1384.106, 53660.00
1385.161, 53458.00
1386.216, 53626.00
1387.271, 53389.00
1388.326, 53744.00
1389.381, 53704.00
1390.435, 53877.00
1391.490, 53799.00
1392.544, 54027.00
1393.598, 53926.00
1394.652, 53978.00
1395.705, 53811.00
1396.759, 54033.00
1397.812, 54032.00
1398.866, 54208.00
1399.919, 53898.00
1400.972, 53961.00
1402.024, 54425.00
1403.077, 53947.00
1404.129, 54095.00
1405.181, 54206.00
1406.233, 54113.00
1407.285, 54378.00
1408.337, 54436.00
1409.389, 54156.00
1410.440, 54635.00
1411.491, 54341.00
1412.542, 54529.00
1413.593, 54525.00
1414.644, 54634.00
1415.695, 54474.00
1416.745, 54455.00
1417.795, 54423.00
1418.845, 54574.00
1419.895, 54553.43
1420.945, 54925.00
1421.995, 54661.00
1423.044, 54818.00
1424.093, 54922.00
1425.142, 54768.00
1426.191, 54767.00
1427.240, 55109.00
1428.289, 55108.00
1429.337, 55257.77
1430.385, 55206.00
1431.433, 55426.00
1432.481, 55350.00
1433.529, 55295.00
1434.577, 55227.00
1435.624, 55338.00
1436.672, 55495.00
1437.719, 55896.00
1438.766, 55527.00
1439.812, 55881.00
1440.859, 56016.00
1441.905, 55599.00
1442.952, 55848.00
1443.998, 55782.00
1445.044, 55936.00
1446.090, 55793.00
1447.135, 56228.00
1448.181, 55953.00
1449.226, 56070.00
1450.271, 55991.00
1451.316, 56365.00
1452.361, 56358.00
1453.405, 56774.00
1454.450, 56337.00
1455.494, 56130.00
1456.538, 56249.00
1457.582, 56273.00
1458.626, 56253.00
1459.670, 56348.00
1460.713, 56284.00
1461.757, 56330.00
1462.800, 56488.00
1463.843, 56434.00
1464.886, 56393.00
1465.928, 56423.82
1466.971, 56408.86
1468.013, 56448.00
1469.055, 56438.00
1470.097, 56607.00
1471.139, 56614.00
1472.181, 56686.00
1473.222, 56870.00
1474.263, 56702.00
1475.305, 56885.00
1476.346, 56685.00
1477.386, 57261.00
1478.427, 57103.00
1479.468, 57130.00
1480.508, 57070.00
1481.548, 57210.00
1482.588, 57243.00
1483.628, 57209.00
1484.668, 57340.00
1485.707, 57278.86
1486.747, 57154.00
1487.786, 57324.00
1488.825, 57276.00
1489.864, 57504.00
1490.902, 57326.00
1491.941, 57381.00
1492.979, 57356.00
1494.017, 57334.00
1495.055, 57389.87
1496.093, 57677.00
1497.131, 57481.00
1498.168, 57522.00
1499.206, 57589.00
1500.243, 57429.00
1501.280, 57792.00
1502.317, 57590.00
1503.354, 57881.00
1504.390, 57554.00
1505.426, 57910.00
1506.463, 58100.00
1507.499, 57839.00
1508.535, 57906.00
1509.570, 58066.00
1510.606, 58069.00
1511.641, 58224.00
1512.676, 58110.00
1513.711, 58125.00
1514.746, 58091.00
1515.781, 58298.00
1516.816, 58394.00
1517.850, 58392.00
1518.884, 58551.00
1519.918, 58446.00
1520.952, 58147.00
1521.986, 58730.00
1523.019, 58475.00
1524.053, 58859.00
1525.086, 58786.00
1526.119, 58486.00
1527.152, 58487.00
1528.185, 58955.00
1529.217, 58766.00
1530.250, 58882.00
1531.282, 59384.00
1532.314, 59113.00
1533.346, 59175.00
1534.377, 58947.00
1535.409, 59047.00
1536.440, 59008.00
1537.472, 59528.00
1538.503, 59312.00
1539.534, 59424.00
1540.564, 59280.00
1541.595, 59166.00
1542.625, 59270.00
1543.656, 59245.50
1544.686, 59638.00
1545.716, 59385.00
1546.745, 59730.00
1547.775, 59789.00
1548.804, 59544.00
1549.834, 59871.00
1550.863, 59818.00
1551.892, 59622.00
1552.920, 59836.00
1553.949, 59869.00
1554.977, 60191.00
1556.006, 59796.00
1557.034, 59961.00
1558.062, 60307.00
1559.089, 59937.00
1560.117, 60388.00
1561.144, 60300.00
1562.172, 60283.00
1563.199, 60227.00
1564.226, 60509.00
1565.252, 60408.00
1566.279, 60523.00
1567.305, 60898.00
1568.332, 60758.00
1569.358, 60755.00
1570.384, 60800.00
1571.409, 60827.00
1572.435, 61311.00
##END=



