##NAMES=Bertrandite
##RRUFFID=R060800
##IDEAL CHEMISTRY=Be_4_Si_2_O_7_(OH)_2_
##LOCALITY=Golconda mine, Governador Valadares, Minas Gerais, Brazil
##OWNER=RRUFF
##SOURCE=Bob Jenkins
##DESCRIPTION=Colorless pseudohexagonal prisms
##STATUS=The identification of this mineral is confirmed by single-crystal X-ray diffraction and chemical analysis.
##URL=rruff.info/R060800
##MEASURED CHEMISTRY=Be_4.00_Si_2.00_O_7_(OH)_2_
##PIN_ID=M00406
##ORIENTATION=Laser parallel to b* (0 1 0). Fiducial mark perpendicular to laser is parallel to c [0 0 1]
123.0580, 7363.000
124.2880, 7500.000
125.5190, 7307.000
126.7490, 7327.000
127.9790, 7372.000
129.2090, 7478.000
130.4390, 7489.000
131.6680, 7459.000
132.8980, 7416.000
134.1270, 7475.000
135.3560, 7473.000
136.5850, 7452.000
137.8140, 7599.000
139.0430, 7677.000
140.2710, 7634.000
141.5000, 7663.000
142.7280, 7663.000
143.9560, 7782.000
145.1840, 7756.000
146.4120, 7745.000
147.6390, 7742.000
148.8670, 7678.000
150.0940, 7798.000
151.3210, 7953.000
152.5490, 7877.000
153.7750, 7879.000
155.0020, 8013.000
156.2290, 7922.000
157.4550, 7994.000
158.6810, 8065.000
159.9080, 7937.000
161.1340, 8102.000
162.3590, 8170.000
163.5850, 8385.000
164.8110, 8610.000
166.0360, 8491.000
167.2610, 8720.000
168.4860, 9012.000
169.7110, 9510.000
170.9360, 10313.00
172.1610, 11575.00
173.3850, 13285.00
174.6100, 14487.00
175.8340, 15389.00
177.0580, 16741.00
178.2820, 19857.00
179.5050, 24157.00
180.7290, 28494.00
181.9520, 30137.00
183.1760, 27259.00
184.3990, 23601.00
185.6220, 21274.00
186.8450, 19117.00
188.0670, 17189.00
189.2900, 15820.00
190.5120, 15180.00
191.7340, 16014.00
192.9560, 19440.00
194.1780, 23609.00
195.4000, 26670.00
196.6220, 28839.00
197.8430, 30478.00
199.0640, 36015.00
200.2860, 44825.00
201.5070, 55306.00
202.7270, 60817.00
203.9480, 56316.00
205.1690, 45889.00
206.3890, 38121.00
207.6090, 32531.00
208.8290, 26999.00
210.0490, 21350.00
211.2690, 16477.00
212.4890, 13749.00
213.7080, 12535.00
214.9280, 11964.00
216.1470, 12115.00
217.3660, 13058.00
218.5850, 14833.00
219.8030, 16493.00
221.0220, 17406.00
222.2400, 18316.00
223.4590, 21109.00
224.6770, 25589.00
225.8950, 31174.00
227.1120, 35139.00
228.3300, 34210.00
229.5480, 30434.00
230.7650, 26903.00
231.9820, 23570.00
233.1990, 20633.00
234.4160, 17512.00
235.6330, 15242.00
236.8490, 13751.00
238.0660, 13713.00
239.2820, 13662.00
240.4980, 13422.00
241.7140, 12588.00
242.9300, 12053.00
244.1460, 11342.00
245.3610, 10944.00
246.5770, 10285.00
247.7920, 9803.000
249.0070, 9542.000
250.2220, 9228.000
251.4370, 9316.000
252.6510, 9107.000
253.8660, 9067.000
255.0800, 9088.000
256.2940, 9097.000
257.5080, 9256.000
258.7220, 9142.366
259.9360, 9218.000
261.1490, 8933.000
262.3630, 9027.000
263.5760, 8821.000
264.7890, 8935.000
266.0020, 8819.000
267.2150, 8962.000
268.4270, 8993.000
269.6400, 8879.000
270.8520, 8802.000
272.0640, 8864.000
273.2760, 8871.000
274.4880, 8856.000
275.7000, 8782.000
276.9120, 8795.000
278.1230, 8802.742
279.3340, 8801.491
280.5450, 8864.000
281.7560, 8863.000
282.9670, 8891.000
284.1780, 8951.000
285.3880, 8931.000
286.5980, 9123.000
287.8090, 9232.000
289.0190, 9508.000
290.2290, 9694.000
291.4380, 9991.000
292.6480, 10074.00
293.8570, 10432.00
295.0670, 11080.00
296.2760, 11761.00
297.4850, 11790.00
298.6930, 11343.00
299.9020, 10909.00
301.1110, 10738.00
302.3190, 10114.00
303.5270, 9947.000
304.7350, 9409.000
305.9430, 9411.000
307.1510, 9140.000
308.3580, 9252.000
309.5660, 9039.000
310.7730, 9122.000
311.9800, 9251.000
313.1870, 9218.000
314.3940, 9023.000
315.6010, 9204.000
316.8070, 9163.000
318.0130, 9191.000
319.2200, 9201.000
320.4260, 9358.000
321.6310, 9422.000
322.8370, 9376.000
324.0430, 9384.000
325.2480, 9555.000
326.4540, 9637.000
327.6590, 9674.000
328.8640, 9790.000
330.0680, 9703.000
331.2730, 9862.000
332.4780, 9832.000
333.6820, 9890.000
334.8860, 9879.000
336.0900, 9760.000
337.2940, 9756.000
338.4980, 9761.000
339.7010, 9701.000
340.9050, 9802.000
342.1080, 9859.000
343.3110, 10105.00
344.5140, 10258.00
345.7170, 10686.00
346.9200, 11177.00
348.1220, 11827.00
349.3240, 13096.00
350.5270, 14203.00
351.7290, 14078.00
352.9310, 13727.00
354.1320, 14129.00
355.3340, 14410.00
356.5350, 14273.00
357.7370, 13916.00
358.9380, 13251.00
360.1390, 13010.00
361.3400, 12760.00
362.5400, 12435.00
363.7410, 11726.00
364.9410, 11135.00
366.1410, 10613.00
367.3410, 10377.00
368.5410, 10049.00
369.7410, 9820.000
370.9400, 9754.000
372.1400, 9643.000
373.3390, 9587.000
374.5380, 9817.000
375.7370, 9677.000
376.9360, 9778.000
378.1350, 9847.000
379.3330, 9829.000
380.5310, 9892.000
381.7300, 10090.00
382.9280, 10037.00
384.1260, 10417.00
385.3230, 10244.00
386.5210, 10343.00
387.7180, 10310.00
388.9160, 10201.00
390.1130, 10117.00
391.3100, 10011.00
392.5060, 9936.000
393.7030, 9907.071
394.9000, 9950.000
396.0960, 9923.000
397.2920, 9879.000
398.4880, 9983.000
399.6840, 9886.000
400.8800, 9920.000
402.0750, 10000.00
403.2710, 9985.000
404.4660, 10086.00
405.6610, 10150.00
406.8560, 10344.00
408.0510, 10249.00
409.2450, 10384.00
410.4400, 10607.00
411.6340, 10781.00
412.8280, 10678.00
414.0220, 10831.00
415.2160, 10778.00
416.4100, 10875.00
417.6030, 10761.00
418.7970, 10739.00
419.9900, 10574.00
421.1830, 10537.00
422.3760, 10525.00
423.5690, 10361.00
424.7610, 10317.00
425.9540, 10282.00
427.1460, 10330.00
428.3380, 10332.00
429.5300, 10312.00
430.7220, 10330.00
431.9140, 10393.00
433.1050, 10444.00
434.2970, 10575.00
435.4880, 10654.00
436.6790, 10702.00
437.8700, 10555.00
439.0610, 10605.00
440.2510, 10605.00
441.4420, 10455.00
442.6320, 10542.00
443.8220, 10514.00
445.0120, 10462.00
446.2020, 10593.00
447.3910, 10616.00
448.5810, 10493.00
449.7700, 10414.00
450.9600, 10330.00
452.1490, 10256.50
453.3370, 10240.10
454.5260, 10166.00
455.7150, 10262.00
456.9030, 10293.00
458.0910, 10378.00
459.2800, 10364.00
460.4670, 10302.00
461.6550, 10337.00
462.8430, 10245.00
464.0300, 10188.00
465.2180, 10151.00
466.4050, 10211.00
467.5920, 10048.00
468.7790, 10189.00
469.9650, 10043.00
471.1520, 10096.00
472.3380, 10079.00
473.5250, 10028.00
474.7110, 10172.00
475.8970, 10214.00
477.0820, 10173.00
478.2680, 10274.00
479.4540, 10257.00
480.6390, 10476.00
481.8240, 10449.00
483.0090, 10502.00
484.1940, 10575.00
485.3780, 10788.00
486.5630, 10943.00
487.7470, 11141.00
488.9320, 11081.00
490.1160, 10926.00
491.3000, 11092.00
492.4830, 10825.00
493.6670, 10812.00
494.8500, 10805.00
496.0340, 10700.63
497.2170, 10862.00
498.4000, 10665.00
499.5820, 10716.00
500.7650, 10753.00
501.9480, 10647.00
503.1300, 10536.00
504.3120, 10588.00
505.4940, 10605.00
506.6760, 10565.00
507.8580, 10486.00
509.0390, 10487.00
510.2210, 10543.00
511.4020, 10522.00
512.5830, 10549.00
513.7640, 10567.00
514.9450, 10624.00
516.1250, 10681.00
517.3060, 10704.34
518.4860, 10710.00
519.6660, 10784.00
520.8460, 10852.00
522.0260, 10928.00
523.2060, 11036.00
524.3850, 10955.00
525.5650, 11022.00
526.7440, 11026.00
527.9230, 11192.00
529.1020, 11291.00
530.2810, 11651.00
531.4590, 11542.00
532.6380, 12050.00
533.8160, 12517.00
534.9940, 12848.00
536.1720, 12931.00
537.3500, 12680.00
538.5270, 12394.00
539.7050, 11941.00
540.8820, 11759.00
542.0590, 11393.00
543.2360, 11262.00
544.4130, 11285.00
545.5900, 11124.00
546.7660, 11101.00
547.9430, 10928.00
549.1190, 10921.00
550.2950, 10934.08
551.4710, 11086.00
552.6470, 11047.00
553.8220, 11043.00
554.9980, 11131.00
556.1730, 10974.00
557.3480, 11074.00
558.5230, 11193.00
559.6980, 10975.00
560.8730, 11202.00
562.0470, 11095.00
563.2220, 11227.00
564.3960, 11419.00
565.5700, 11577.00
566.7440, 11676.00
567.9170, 11765.00
569.0910, 11970.00
570.2640, 12304.00
571.4380, 12679.00
572.6110, 13010.00
573.7840, 13223.00
574.9570, 13503.00
576.1290, 13590.00
577.3020, 13653.00
578.4740, 13483.00
579.6460, 13289.00
580.8180, 12668.00
581.9900, 12304.00
583.1620, 12122.00
584.3330, 11903.00
585.5040, 11632.00
586.6760, 11621.00
587.8470, 11591.00
589.0180, 11582.00
590.1880, 11516.00
591.3590, 11412.00
592.5290, 11531.00
593.7000, 11513.00
594.8700, 11434.00
596.0400, 11652.00
597.2090, 11689.00
598.3790, 11602.00
599.5490, 11557.00
600.7180, 11684.00
601.8870, 11626.00
603.0560, 11689.00
604.2250, 11595.00
605.3940, 11739.00
606.5620, 11503.00
607.7300, 11593.00
608.8990, 11698.00
610.0670, 11641.00
611.2350, 11539.00
612.4020, 11769.00
613.5700, 11680.00
614.7370, 11787.00
615.9050, 11865.00
617.0720, 11808.00
618.2390, 11951.00
619.4060, 11921.00
620.5720, 12106.00
621.7390, 12088.00
622.9050, 12029.00
624.0710, 11861.00
625.2370, 11971.00
626.4030, 12049.00
627.5690, 11986.00
628.7340, 12001.00
629.9000, 11931.00
631.0650, 11926.00
632.2300, 11944.00
633.3950, 11915.00
634.5600, 11941.00
635.7240, 12039.00
636.8890, 12034.25
638.0530, 12121.00
639.2170, 12073.00
640.3810, 12065.00
641.5450, 12008.00
642.7080, 11977.00
643.8720, 12059.00
645.0350, 11970.00
646.1980, 11918.00
647.3610, 12028.00
648.5240, 11925.00
649.6870, 11934.00
650.8490, 12065.00
652.0120, 12162.00
653.1740, 11922.00
654.3360, 12150.00
655.4980, 12013.00
656.6600, 12105.00
657.8210, 12153.00
658.9830, 12124.00
660.1440, 12063.00
661.3050, 12176.00
662.4660, 12112.00
663.6270, 12234.00
664.7870, 12207.00
665.9480, 12212.00
667.1080, 12353.00
668.2680, 12349.00
669.4280, 12435.00
670.5880, 12574.00
671.7480, 12729.00
672.9070, 12917.00
674.0670, 13071.00
675.2260, 13329.00
676.3850, 13663.00
677.5440, 14074.00
678.7030, 14386.00
679.8610, 14775.00
681.0200, 15091.00
682.1780, 15641.00
683.3360, 16103.00
684.4940, 17006.00
685.6520, 17755.00
686.8090, 18472.00
687.9670, 19155.00
689.1240, 19313.00
690.2810, 19149.00
691.4380, 18690.00
692.5950, 18044.00
693.7520, 17667.00
694.9080, 17151.00
696.0650, 16733.00
697.2210, 16755.00
698.3770, 16431.00
699.5330, 16705.00
700.6880, 17208.00
701.8440, 17889.00
702.9990, 18843.00
704.1550, 19899.00
705.3100, 21047.00
706.4650, 22539.00
707.6190, 24004.00
708.7740, 25212.00
709.9290, 26090.00
711.0830, 25979.00
712.2370, 25313.00
713.3910, 23788.00
714.5450, 22229.00
715.6980, 20720.00
716.8520, 19157.00
718.0050, 17952.00
719.1580, 17156.00
720.3110, 16261.00
721.4640, 15564.00
722.6170, 15320.00
723.7700, 14766.00
724.9220, 14550.00
726.0740, 14445.00
727.2260, 14231.00
728.3780, 14210.00
729.5300, 14111.00
730.6810, 14039.00
731.8330, 13971.00
732.9840, 13963.00
734.1350, 14051.00
735.2860, 13895.00
736.4370, 13820.00
737.5880, 13961.00
738.7380, 14031.00
739.8880, 13901.00
741.0390, 13930.00
742.1890, 14070.00
743.3380, 14118.00
744.4880, 14260.00
745.6380, 14449.00
746.7870, 14739.00
747.9360, 14973.00
749.0850, 15217.00
750.2340, 15581.00
751.3830, 15779.00
752.5310, 16019.00
753.6800, 15958.00
754.8280, 15991.00
755.9760, 15693.00
757.1240, 15502.00
758.2720, 15114.00
759.4190, 15129.00
760.5670, 15024.00
761.7140, 15058.00
762.8610, 15030.00
764.0080, 15208.00
765.1550, 15319.00
766.3020, 15869.00
767.4480, 16080.00
768.5950, 16503.00
769.7410, 16825.00
770.8870, 16757.00
772.0330, 16558.00
773.1780, 16384.00
774.3240, 15767.00
775.4690, 15254.00
776.6140, 15046.00
777.7590, 14565.00
778.9040, 14312.00
780.0490, 14099.00
781.1940, 14081.00
782.3380, 14068.00
783.4820, 13811.00
784.6260, 13815.00
785.7700, 13836.00
786.9140, 13797.00
788.0580, 13836.00
789.2010, 13674.00
790.3450, 13768.00
791.4880, 13749.00
792.6310, 13819.00
793.7730, 13822.00
794.9160, 13783.00
796.0590, 13932.00
797.2010, 14012.00
798.3430, 13993.53
799.4850, 14057.03
800.6270, 13958.00
801.7690, 14003.00
802.9100, 13924.00
804.0520, 13766.00
805.1930, 14003.00
806.3340, 14129.00
807.4750, 14004.00
808.6160, 14459.00
809.7560, 14384.00
810.8970, 14638.00
812.0370, 14809.00
813.1770, 15053.00
814.3170, 15350.00
815.4570, 15646.00
816.5960, 16176.00
817.7360, 16351.00
818.8750, 16764.00
820.0140, 16869.00
821.1530, 16796.00
822.2920, 16548.00
823.4310, 16025.00
824.5690, 15753.00
825.7070, 15286.00
826.8460, 15143.00
827.9840, 14766.00
829.1220, 14571.00
830.2590, 14445.00
831.3970, 14243.00
832.5340, 14179.00
833.6710, 14232.00
834.8080, 14222.00
835.9450, 14237.00
837.0820, 14321.00
838.2190, 14212.00
839.3550, 14072.00
840.4910, 14309.00
841.6270, 14271.00
842.7630, 14105.00
843.8990, 14268.00
845.0350, 14288.00
846.1700, 14123.00
847.3060, 14307.00
848.4410, 14128.00
849.5760, 14071.00
850.7100, 14187.00
851.8450, 13996.00
852.9800, 14283.00
854.1140, 14182.00
855.2480, 14138.00
856.3820, 14189.00
857.5160, 14304.00
858.6500, 14308.00
859.7830, 14294.00
860.9170, 14279.00
862.0500, 14263.00
863.1830, 14233.00
864.3160, 14320.00
865.4480, 14332.00
866.5810, 14286.00
867.7130, 14364.00
868.8460, 14270.00
869.9780, 14318.00
871.1100, 14380.00
872.2410, 14335.00
873.3730, 14475.00
874.5050, 14497.00
875.6360, 14492.00
876.7670, 14663.00
877.8980, 14745.00
879.0290, 14743.00
880.1590, 14817.00
881.2900, 14927.00
882.4200, 14777.00
883.5500, 14804.00
884.6800, 14777.00
885.8100, 14936.00
886.9400, 14896.00
888.0690, 14883.00
889.1990, 14997.00
890.3280, 14835.00
891.4570, 15009.00
892.5860, 14844.00
893.7140, 15010.00
894.8430, 14938.00
895.9710, 14998.00
897.1000, 15071.00
898.2280, 14906.00
899.3560, 14988.00
900.4830, 15101.00
901.6110, 15042.00
902.7380, 15143.00
903.8660, 15243.00
904.9930, 15148.00
906.1200, 15124.00
907.2460, 15378.00
908.3730, 15328.00
909.5000, 15480.00
910.6260, 15592.00
911.7520, 15806.00
912.8780, 16119.00
914.0040, 16514.00
915.1290, 16739.00
916.2550, 17387.00
917.3800, 18466.00
918.5050, 19978.00
919.6300, 21823.00
920.7550, 24050.00
921.8800, 26528.00
923.0040, 29443.00
924.1290, 32144.00
925.2530, 33768.00
926.3770, 33494.00
927.5010, 31596.00
928.6250, 28761.00
929.7480, 26151.00
930.8720, 23914.00
931.9950, 22188.01
933.1180, 20435.00
934.2410, 19722.00
935.3640, 18976.00
936.4860, 18518.00
937.6090, 17997.00
938.7310, 17584.00
939.8530, 17359.00
940.9750, 17220.00
942.0970, 17109.00
943.2180, 16967.00
944.3400, 17243.00
945.4610, 17162.00
946.5820, 17404.00
947.7030, 17083.00
948.8240, 17123.00
949.9450, 17031.00
951.0650, 16789.00
952.1860, 16880.00
953.3060, 16549.00
954.4260, 16561.00
955.5460, 16635.00
956.6650, 16432.00
957.7850, 16478.00
958.9040, 16482.00
960.0230, 16580.00
961.1420, 16468.00
962.2610, 16452.00
963.3800, 16492.00
964.4990, 16619.00
965.6170, 16623.00
966.7350, 16712.65
967.8530, 16633.00
968.9710, 16802.00
970.0890, 16906.00
971.2070, 16852.00
972.3240, 17336.00
973.4410, 17351.00
974.5580, 17738.00
975.6750, 18445.00
976.7920, 18801.00
977.9090, 19544.00
979.0250, 20526.00
980.1410, 21659.00
981.2580, 23022.00
982.3740, 24799.00
983.4890, 26744.00
984.6050, 28164.00
985.7200, 29678.00
986.8360, 30415.00
987.9510, 30395.00
989.0660, 29390.00
990.1810, 27577.00
991.2950, 26042.00
992.4100, 24215.00
993.5240, 22624.00
994.6390, 21315.00
995.7530, 20147.00
996.8660, 19434.00
997.9800, 18934.00
999.0940, 18419.00
1000.207, 17918.00
1001.320, 17659.00
1002.433, 17328.00
1003.546, 17341.00
1004.659, 17033.00
1005.772, 17005.00
1006.884, 16808.00
1007.996, 16648.00
1009.108, 16627.00
1010.220, 16404.00
1011.332, 16444.00
1012.444, 16351.00
1013.555, 16135.00
1014.666, 16170.00
1015.777, 16272.00
1016.888, 16435.00
1017.999, 16307.00
1019.110, 16345.00
1020.220, 16311.00
1021.331, 16182.00
1022.441, 16432.00
1023.551, 16388.00
1024.661, 16397.00
1025.770, 16337.00
1026.880, 16268.00
1027.989, 16284.00
1029.098, 16244.00
1030.207, 16141.00
1031.316, 16099.00
1032.425, 16085.00
1033.533, 16106.00
1034.642, 16216.00
1035.750, 16051.00
1036.858, 16062.00
1037.966, 16007.00
1039.073, 16158.00
1040.181, 16198.00
1041.288, 16248.00
1042.396, 16239.00
1043.503, 16158.00
1044.610, 16105.00
1045.716, 16181.00
1046.823, 16272.00
1047.929, 16101.00
1049.036, 16172.00
1050.142, 16264.00
1051.248, 16151.00
1052.353, 16295.00
1053.459, 16354.00
1054.564, 16349.00
1055.670, 16159.00
1056.775, 16305.00
1057.880, 16348.00
1058.985, 16506.00
1060.089, 16882.00
1061.194, 16775.66
1062.298, 16910.89
1063.402, 16801.00
1064.506, 16911.00
1065.610, 17078.00
1066.713, 17097.00
1067.817, 17127.00
1068.920, 17078.00
1070.023, 17130.33
1071.126, 17093.00
1072.229, 17170.00
1073.332, 17164.00
1074.435, 17139.00
1075.537, 17004.00
1076.639, 16875.00
1077.741, 16947.00
1078.843, 16768.00
1079.945, 16866.00
1081.046, 16821.00
1082.148, 16861.00
1083.249, 16910.00
1084.350, 16920.00
1085.451, 16736.00
1086.551, 16648.00
1087.652, 16689.00
1088.752, 16673.00
1089.853, 16546.00
1090.953, 16500.00
1092.053, 16679.00
1093.152, 16507.00
1094.252, 16656.00
1095.351, 16437.00
1096.451, 16529.00
1097.550, 16535.00
1098.649, 16417.00
1099.748, 16495.00
1100.846, 16595.00
1101.945, 16678.00
1103.043, 16677.31
1104.141, 16563.00
1105.239, 16615.00
1106.337, 16621.00
1107.434, 16511.00
1108.532, 16530.00
1109.629, 16631.00
1110.726, 16586.00
1111.823, 16778.00
1112.920, 16608.00
1114.017, 16675.00
1115.113, 16806.00
1116.210, 16619.00
1117.306, 16664.00
1118.402, 16987.00
1119.498, 16848.00
1120.593, 16945.00
1121.689, 17108.00
1122.784, 16971.00
1123.879, 16954.00
1124.974, 17070.00
1126.069, 16793.00
1127.164, 16988.00
1128.259, 16749.00
1129.353, 16831.00
1130.447, 16823.00
1131.541, 16840.00
1132.635, 16968.00
1133.729, 16762.00
1134.822, 16804.00
1135.916, 16777.00
1137.009, 16920.00
1138.102, 16856.00
1139.195, 16890.00
1140.288, 17032.00
1141.380, 16897.00
1142.473, 16856.00
1143.565, 17075.00
1144.657, 17002.00
1145.749, 17199.00
1146.841, 17163.00
1147.932, 17272.00
1149.024, 17153.00
1150.115, 17169.00
1151.206, 17286.00
1152.297, 17011.00
1153.388, 17379.00
1154.479, 17395.00
1155.569, 17284.00
1156.659, 17345.00
1157.750, 17479.00
1158.839, 17291.00
1159.929, 17275.00
1161.019, 17592.00
1162.108, 17462.00
1163.198, 17473.00
1164.287, 17652.00
1165.376, 17571.00
1166.465, 17512.00
1167.553, 17530.00
1168.642, 17682.00
1169.730, 17597.00
1170.818, 17637.00
1171.906, 17631.00
1172.994, 17389.00
1174.082, 17329.00
1175.170, 17324.00
1176.257, 17406.00
1177.344, 17497.00
1178.431, 17351.00
1179.518, 17439.00
1180.605, 17450.00
1181.691, 17407.00
1182.778, 17387.00
1183.864, 17385.62
1184.950, 17361.47
1186.036, 17383.00
1187.122, 17353.00
1188.207, 17368.00
1189.292, 17391.00
1190.378, 17357.36
1191.463, 17435.00
1192.548, 17345.00
1193.632, 17313.00
1194.717, 17373.00
1195.801, 17282.00
1196.886, 17271.00
1197.970, 17457.00
1199.054, 17387.00
1200.137, 17328.00
1201.221, 17484.00
1202.305, 17299.00
1203.388, 17591.00
1204.471, 17436.00
1205.554, 17288.00
1206.637, 17454.00
1207.719, 17306.00
1208.802, 17389.00
1209.884, 17478.00
1210.966, 17548.00
1212.048, 17451.00
1213.130, 17525.00
1214.212, 17465.00
1215.293, 17353.00
1216.374, 17497.00
1217.456, 17515.00
1218.536, 17555.00
1219.617, 17618.00
1220.698, 17366.00
1221.778, 17566.00
1222.859, 17454.00
1223.939, 17653.00
1225.019, 17577.00
1226.099, 17523.00
1227.178, 17545.00
1228.258, 17523.00
1229.337, 17669.00
1230.417, 17667.00
1231.496, 17748.00
1232.574, 17559.00
1233.653, 17710.00
1234.732, 17705.00
1235.810, 17759.00
1236.888, 17891.00
1237.966, 17640.00
1239.044, 17764.00
1240.122, 17760.00
1241.199, 17804.00
1242.277, 17770.00
1243.354, 17732.00
1244.431, 17773.00
1245.508, 17782.00
1246.585, 17917.00
1247.661, 17734.00
1248.738, 17868.00
1249.814, 17911.00
1250.890, 17810.00
1251.966, 18037.00
1253.042, 17847.00
1254.117, 17904.00
1255.193, 18078.00
1256.268, 17760.00
1257.343, 17963.00
1258.418, 18068.00
1259.493, 17787.00
1260.567, 17967.00
1261.642, 17801.00
1262.716, 18063.00
1263.790, 18047.00
1264.864, 18149.00
1265.938, 17991.00
1267.011, 18055.00
1268.085, 18097.00
1269.158, 18031.00
1270.231, 18200.00
1271.304, 18040.00
1272.377, 18340.00
1273.450, 18186.00
1274.522, 18001.00
1275.594, 18274.00
1276.666, 18331.00
1277.738, 18077.00
1278.810, 18176.00
1279.882, 18219.00
1280.953, 18114.00
1282.025, 18139.00
1283.096, 18120.00
1284.167, 18091.00
1285.238, 18175.00
1286.308, 18122.00
1287.379, 18337.00
1288.449, 18264.00
1289.519, 18318.00
1290.589, 18236.00
1291.659, 18281.00
1292.729, 18307.00
1293.798, 18226.00
1294.868, 18301.00
1295.937, 18350.00
1297.006, 18404.00
1298.075, 18272.00
1299.143, 18310.00
1300.212, 18347.00
1301.280, 18409.00
1302.348, 18348.00
1303.416, 18466.00
1304.484, 18465.00
1305.552, 18397.00
1306.620, 18389.00
1307.687, 18561.00
1308.754, 18504.00
1309.821, 18485.00
1310.888, 18413.00
1311.955, 18558.00
1313.021, 18599.00
1314.088, 18751.00
1315.154, 18589.00
1316.220, 18756.00
1317.286, 18841.00
1318.352, 18625.00
1319.417, 18683.00
1320.483, 18620.00
1321.548, 18775.00
1322.613, 18719.00
1323.678, 18851.00
1324.743, 18761.00
1325.807, 18798.00
1326.872, 18661.00
1327.936, 18612.00
1329.000, 18699.00
1330.064, 18758.00
1331.128, 18643.00
1332.191, 18856.00
1333.255, 18755.00
1334.318, 18727.00
1335.381, 18675.00
1336.444, 18748.00
1337.507, 18923.00
1338.569, 18604.00
1339.632, 18902.00
1340.694, 18764.00
1341.756, 18756.00
1342.818, 18840.00
1343.880, 18718.00
1344.941, 18796.00
1346.003, 18732.00
1347.064, 18827.00
1348.125, 18782.00
1349.186, 18903.00
1350.247, 18753.00
1351.308, 18965.00
1352.368, 18747.00
1353.428, 18977.00
1354.489, 18975.00
1355.549, 18915.00
1356.608, 18879.00
1357.668, 18889.57
1358.727, 18846.00
1359.787, 18942.00
1360.846, 18955.00
1361.905, 19055.00
1362.964, 19077.00
1364.022, 18997.00
1365.081, 18979.00
1366.139, 19132.00
1367.197, 18961.00
1368.255, 18987.00
1369.313, 19048.00
1370.371, 18940.00
1371.428, 19059.00
1372.486, 19116.00
1373.543, 19240.00
1374.600, 19176.00
1375.657, 19172.00
1376.713, 19196.00
1377.770, 19201.00
1378.826, 18983.00
1379.882, 19247.00
1380.938, 19273.00
1381.994, 19406.00
1383.050, 19162.00
1384.106, 19212.00
1385.161, 19157.00
1386.216, 19215.00
1387.271, 19163.00
1388.326, 19134.00
1389.381, 19217.00
1390.435, 19053.00
1391.490, 19362.00
1392.544, 19386.00
1393.598, 19283.00
1394.652, 19266.00
1395.705, 19343.00
1396.759, 19351.00
1397.812, 19354.00
1398.866, 19282.00
1399.919, 19157.00
1400.972, 19218.00
1402.024, 19514.00
1403.077, 19347.00
1404.129, 19486.00
1405.181, 19254.00
1406.233, 19485.00
1407.285, 19354.00
1408.337, 19410.00
1409.389, 19623.00
1410.440, 19407.00
1411.491, 19322.00
1412.542, 19581.00
1413.593, 19526.00
1414.644, 19529.00
1415.695, 19402.00
1416.745, 19568.00
1417.795, 19549.00
1418.845, 19537.00
1419.895, 19554.00
1420.945, 19739.00
1421.995, 19653.00
1423.044, 19670.00
1424.093, 19660.00
1425.142, 19450.00
1426.191, 19503.00
1427.240, 19609.00
1428.289, 19658.00
1429.337, 19799.00
1430.385, 19754.00
1431.433, 19680.00
1432.481, 19771.00
1433.529, 19739.00
1434.577, 19861.00
1435.624, 19790.00
1436.672, 19970.00
1437.719, 19905.00
1438.766, 20055.00
1439.812, 19928.00
1440.859, 19987.00
1441.905, 19941.00
1442.952, 19938.80
1443.998, 20049.00
1445.044, 19989.00
1446.090, 20132.00
1447.135, 20219.00
1448.181, 20116.00
1449.226, 20282.00
1450.271, 20230.00
1451.316, 20244.00
1452.361, 20335.00
1453.405, 20401.00
1454.450, 20405.00
1455.494, 20392.13
1456.538, 20255.00
1457.582, 20326.00
1458.626, 20235.00
1459.670, 20289.00
1460.713, 20254.00
1461.757, 20286.00
1462.800, 20284.00
1463.843, 20124.00
1464.886, 20329.00
1465.928, 20032.00
1466.971, 20292.00
1468.013, 20271.00
1469.055, 20099.00
1470.097, 20255.00
1471.139, 20346.00
1472.181, 20356.00
1473.222, 20154.00
1474.263, 20276.00
1475.305, 20269.00
1476.346, 20391.00
1477.386, 20360.00
1478.427, 20199.00
1479.468, 20503.00
1480.508, 20358.00
1481.548, 20213.00
1482.588, 20270.00
1483.628, 20214.00
1484.668, 20376.00
1485.707, 20405.00
1486.747, 20500.00
1487.786, 20223.00
1488.825, 20364.00
1489.864, 20228.00
1490.902, 20246.00
1491.941, 20330.00
1492.979, 20411.00
1494.017, 20510.00
1495.055, 20471.00
1496.093, 20527.96
1497.131, 20727.00
1498.168, 20511.00
1499.206, 20529.00
1500.243, 20457.00
1501.280, 20575.00
1502.317, 20351.00
1503.354, 20532.00
1504.390, 20379.00
1505.426, 20435.00
1506.463, 20410.00
1507.499, 20507.00
1508.535, 20531.00
1509.570, 20538.00
1510.606, 20534.00
1511.641, 20574.00
1512.676, 20752.00
1513.711, 20544.00
1514.746, 20769.00
1515.781, 20624.00
1516.816, 20743.00
1517.850, 20645.00
1518.884, 20873.00
1519.918, 20655.00
1520.952, 20541.00
1521.986, 20790.00
1523.019, 20562.00
1524.053, 20554.00
1525.086, 20784.00
1526.119, 20781.00
1527.152, 20778.00
1528.185, 20853.00
1529.217, 20860.00
1530.250, 20798.00
1531.282, 21048.00
1532.314, 20786.00
1533.346, 20638.00
1534.377, 20951.00
1535.409, 20960.00
1536.440, 20781.00
1537.472, 20939.00
1538.503, 20896.00
1539.534, 21122.00
1540.564, 21014.00
1541.595, 20821.00
1542.625, 20927.00
1543.656, 20872.00
1544.686, 20933.00
1545.716, 21120.00
1546.745, 21242.00
1547.775, 20947.00
1548.804, 20829.00
1549.834, 21156.00
1550.863, 21146.00
1551.892, 21311.00
1552.920, 21169.00
1553.949, 21160.00
1554.977, 21146.00
1556.006, 20957.00
1557.034, 21013.00
1558.062, 21159.00
1559.089, 21179.00
1560.117, 21058.00
1561.144, 21293.00
1562.172, 21160.00
1563.199, 21250.00
1564.226, 21273.00
1565.252, 21261.00
1566.279, 21297.00
1567.305, 21220.00
1568.332, 21401.00
1569.358, 21302.00
1570.384, 21292.00
1571.409, 21210.00
1572.435, 21528.00
##END=



