##NAMES=Beryl
##RRUFFID=R050368
##IDEAL CHEMISTRY=Be_3_Al_2_Si_6_O_18_
##LOCALITY=Wah Wah Mountains, Utah, USA
##OWNER=RRUFF
##SOURCE=Eugene Schlepp
##DESCRIPTION=Red-violet hexagonal prism
##STATUS=The identification of this mineral has been confirmed by X-ray diffraction and chemical analysis
##URL=rruff.info/R050368
##MEASURED CHEMISTRY=(Be_0.99_Li_0.01_)_3_(Al_0.95_Fe^3+^_0.05_)_2_Si_6.00_O_18_Î‡K_0.02_Na_0.01_
##PIN_ID=L01802
##ORIENTATION=Laser parallel to -c* (0 0 -1). Fiducial mark perpendicular to laser is parallel to b [0 1 0]
82.36700, 8045.000
83.60200, 8543.000
84.83700, 8752.000
86.07200, 8720.000
87.30800, 8652.000
88.54200, 8960.000
89.77700, 9091.000
91.01200, 9518.000
92.24600, 9784.000
93.48000, 9507.000
94.71400, 9564.000
95.94800, 9565.000
97.18200, 9526.000
98.41600, 9430.000
99.64900, 9662.000
100.8830, 9481.000
102.1160, 9342.000
103.3490, 9183.000
104.5820, 9318.000
105.8150, 9688.000
107.0470, 10242.00
108.2800, 11109.00
109.5120, 11354.00
110.7440, 10204.00
111.9760, 9245.000
113.2080, 9171.000
114.4400, 9319.000
115.6710, 9606.000
116.9030, 9401.000
118.1340, 9297.000
119.3650, 9099.000
120.5960, 8950.000
121.8270, 8945.000
123.0580, 8916.148
124.2880, 8928.865
125.5190, 9034.000
126.7490, 9048.000
127.9790, 9116.000
129.2090, 9200.000
130.4390, 9410.000
131.6680, 9399.000
132.8980, 9580.000
134.1270, 9488.000
135.3560, 9672.000
136.5850, 9674.000
137.8140, 9896.000
139.0430, 10079.00
140.2710, 10142.00
141.5000, 10118.00
142.7280, 10050.00
143.9560, 10003.00
145.1840, 9694.000
146.4120, 9378.000
147.6390, 9324.000
148.8670, 9102.000
150.0940, 9005.000
151.3210, 9000.000
152.5490, 8912.000
153.7750, 8864.000
155.0020, 8862.000
156.2290, 8697.000
157.4550, 8707.000
158.6810, 8631.000
159.9080, 8710.000
161.1340, 8757.000
162.3590, 8967.000
163.5850, 9176.000
164.8110, 9204.000
166.0360, 9361.000
167.2610, 9401.000
168.4860, 9448.000
169.7110, 9622.000
170.9360, 9788.000
172.1610, 9715.000
173.3850, 9743.000
174.6100, 9828.000
175.8340, 9989.000
177.0580, 10083.00
178.2820, 10433.00
179.5050, 10520.00
180.7290, 10766.00
181.9520, 11101.00
183.1760, 11110.00
184.3990, 11435.00
185.6220, 11487.00
186.8450, 11444.00
188.0670, 11552.00
189.2900, 11707.00
190.5120, 11728.00
191.7340, 11929.00
192.9560, 11921.00
194.1780, 11964.00
195.4000, 11940.00
196.6220, 12104.00
197.8430, 11848.00
199.0640, 11906.00
200.2860, 12047.00
201.5070, 12129.00
202.7270, 12051.00
203.9480, 11826.00
205.1690, 11297.00
206.3890, 10970.00
207.6090, 10810.00
208.8290, 10615.00
210.0490, 10513.86
211.2690, 10541.00
212.4890, 10447.00
213.7080, 10542.00
214.9280, 10596.00
216.1470, 10613.00
217.3660, 10686.00
218.5850, 10618.00
219.8030, 10530.00
221.0220, 10767.00
222.2400, 10671.00
223.4590, 10729.00
224.6770, 10795.00
225.8950, 10647.00
227.1120, 10744.00
228.3300, 10652.00
229.5480, 10615.00
230.7650, 10655.00
231.9820, 10524.00
233.1990, 10598.00
234.4160, 10648.00
235.6330, 10618.00
236.8490, 10490.00
238.0660, 10559.00
239.2820, 10463.00
240.4980, 10228.00
241.7140, 10116.00
242.9300, 10001.00
244.1460, 9938.000
245.3610, 10016.00
246.5770, 10072.00
247.7920, 10108.00
249.0070, 10103.00
250.2220, 10203.00
251.4370, 10116.00
252.6510, 10379.00
253.8660, 10361.00
255.0800, 10230.00
256.2940, 10281.00
257.5080, 10224.00
258.7220, 10540.00
259.9360, 10479.49
261.1490, 10592.00
262.3630, 10553.00
263.5760, 10496.00
264.7890, 10506.00
266.0020, 10736.00
267.2150, 10924.00
268.4270, 11214.00
269.6400, 11767.00
270.8520, 11828.00
272.0640, 11611.00
273.2760, 11355.00
274.4880, 11281.00
275.7000, 11297.00
276.9120, 11225.00
278.1230, 11271.00
279.3340, 11120.00
280.5450, 11323.00
281.7560, 11189.00
282.9670, 11279.00
284.1780, 11324.00
285.3880, 11116.00
286.5980, 11046.00
287.8090, 10729.00
289.0190, 10583.00
290.2290, 10558.00
291.4380, 10395.00
292.6480, 10492.00
293.8570, 10614.00
295.0670, 10560.00
296.2760, 10668.00
297.4850, 10757.00
298.6930, 10912.00
299.9020, 11090.00
301.1110, 11146.00
302.3190, 11438.00
303.5270, 11738.00
304.7350, 11873.00
305.9430, 12227.00
307.1510, 12744.00
308.3580, 13335.00
309.5660, 14198.00
310.7730, 15210.00
311.9800, 16435.00
313.1870, 17505.00
314.3940, 18680.00
315.6010, 19797.00
316.8070, 21276.00
318.0130, 23288.00
319.2200, 24866.00
320.4260, 24739.00
321.6310, 22587.00
322.8370, 19916.00
324.0430, 16571.00
325.2480, 14288.00
326.4540, 12640.00
327.6590, 11477.00
328.8640, 10698.00
330.0680, 10294.00
331.2730, 10093.00
332.4780, 9907.000
333.6820, 9875.000
334.8860, 9733.000
336.0900, 9683.000
337.2940, 9663.000
338.4980, 9596.000
339.7010, 9562.000
340.9050, 9610.000
342.1080, 9505.000
343.3110, 9477.000
344.5140, 9298.000
345.7170, 9303.000
346.9200, 9385.000
348.1220, 9294.000
349.3240, 9144.000
350.5270, 9202.000
351.7290, 9081.000
352.9310, 9124.000
354.1320, 9044.000
355.3340, 8864.000
356.5350, 8900.000
357.7370, 8842.000
358.9380, 8768.000
360.1390, 8645.000
361.3400, 8688.000
362.5400, 8719.000
363.7410, 8766.000
364.9410, 8799.000
366.1410, 8633.000
367.3410, 8742.000
368.5410, 8696.000
369.7410, 8569.000
370.9400, 8726.000
372.1400, 8741.000
373.3390, 8781.000
374.5380, 8759.000
375.7370, 8872.000
376.9360, 8904.000
378.1350, 9354.000
379.3330, 9487.000
380.5310, 9714.000
381.7300, 10179.00
382.9280, 10929.00
384.1260, 12055.00
385.3230, 13081.00
386.5210, 14382.00
387.7180, 15822.00
388.9160, 17953.00
390.1130, 20384.00
391.3100, 23172.00
392.5060, 26087.00
393.7030, 27458.00
394.9000, 27131.00
396.0960, 25029.00
397.2920, 22342.00
398.4880, 19602.00
399.6840, 17527.00
400.8800, 15804.00
402.0750, 14462.00
403.2710, 13688.00
404.4660, 13044.00
405.6610, 12757.00
406.8560, 12636.00
408.0510, 12644.00
409.2450, 12700.00
410.4400, 12986.00
411.6340, 13056.00
412.8280, 13467.00
414.0220, 13574.00
415.2160, 13878.00
416.4100, 13946.00
417.6030, 13747.00
418.7970, 13513.00
419.9900, 13366.00
421.1830, 13102.00
422.3760, 12541.00
423.5690, 12354.00
424.7610, 11899.00
425.9540, 11734.00
427.1460, 11396.00
428.3380, 11373.00
429.5300, 11383.00
430.7220, 11697.00
431.9140, 11954.00
433.1050, 12311.00
434.2970, 12972.00
435.4880, 13564.00
436.6790, 14112.00
437.8700, 15195.00
439.0610, 16070.00
440.2510, 16674.00
441.4420, 16605.00
442.6320, 16153.00
443.8220, 14809.00
445.0120, 13558.00
446.2020, 12556.00
447.3910, 11669.90
448.5810, 11011.00
449.7700, 10430.00
450.9600, 10049.00
452.1490, 9872.000
453.3370, 9687.000
454.5260, 9571.000
455.7150, 9471.743
456.9030, 9354.000
458.0910, 9330.000
459.2800, 9368.000
460.4670, 9283.000
461.6550, 9276.000
462.8430, 9208.000
464.0300, 9129.000
465.2180, 9085.000
466.4050, 8975.000
467.5920, 8996.000
468.7790, 8992.000
469.9650, 9006.000
471.1520, 9063.968
472.3380, 9098.000
473.5250, 9201.758
474.7110, 9253.785
475.8970, 9342.000
477.0820, 9384.000
478.2680, 9408.000
479.4540, 9488.000
480.6390, 9468.000
481.8240, 9619.000
483.0090, 9702.000
484.1940, 9734.000
485.3780, 9824.000
486.5630, 9983.000
487.7470, 9852.000
488.9320, 9975.000
490.1160, 9839.000
491.3000, 9914.000
492.4830, 9698.000
493.6670, 9685.000
494.8500, 9629.000
496.0340, 9684.000
497.2170, 9637.000
498.4000, 9702.000
499.5820, 9821.000
500.7650, 9736.000
501.9480, 9822.000
503.1300, 9868.000
504.3120, 9914.000
505.4940, 9925.000
506.6760, 9918.000
507.8580, 10042.00
509.0390, 10027.00
510.2210, 10119.00
511.4020, 10054.00
512.5830, 10137.00
513.7640, 10325.00
514.9450, 10274.00
516.1250, 10375.00
517.3060, 10400.00
518.4860, 10473.00
519.6660, 10655.00
520.8460, 10649.00
522.0260, 10700.00
523.2060, 10907.00
524.3850, 10931.00
525.5650, 10954.00
526.7440, 10941.00
527.9230, 10681.00
529.1020, 10559.00
530.2810, 10461.00
531.4590, 10314.00
532.6380, 10248.00
533.8160, 10026.00
534.9940, 9999.000
536.1720, 9874.000
537.3500, 9722.000
538.5270, 9752.000
539.7050, 9610.000
540.8820, 9609.000
542.0590, 9503.000
543.2360, 9435.000
544.4130, 9401.000
545.5900, 9292.000
546.7660, 9214.000
547.9430, 9181.184
549.1190, 9135.751
550.2950, 9136.000
551.4710, 9137.000
552.6470, 9178.000
553.8220, 9247.000
554.9980, 9336.000
556.1730, 9448.000
557.3480, 9436.000
558.5230, 9659.000
559.6980, 9575.000
560.8730, 9789.000
562.0470, 9823.000
563.2220, 9723.000
564.3960, 9881.000
565.5700, 9834.000
566.7440, 9974.000
567.9170, 10024.00
569.0910, 10152.00
570.2640, 10402.00
571.4380, 10585.00
572.6110, 10734.00
573.7840, 11076.00
574.9570, 11433.00
576.1290, 11681.00
577.3020, 11996.00
578.4740, 12269.00
579.6460, 12554.00
580.8180, 12900.00
581.9900, 13264.00
583.1620, 13595.00
584.3330, 13767.00
585.5040, 14260.00
586.6760, 14416.00
587.8470, 14812.00
589.0180, 15334.00
590.1880, 15666.00
591.3590, 15920.00
592.5290, 16330.00
593.7000, 16338.00
594.8700, 16191.00
596.0400, 16115.00
597.2090, 16112.00
598.3790, 15762.00
599.5490, 15313.00
600.7180, 15083.00
601.8870, 14888.00
603.0560, 14633.00
604.2250, 14139.00
605.3940, 13959.00
606.5620, 13556.00
607.7300, 13278.00
608.8990, 13355.00
610.0670, 13204.00
611.2350, 13101.00
612.4020, 13090.00
613.5700, 13288.00
614.7370, 13334.00
615.9050, 13366.00
617.0720, 13424.00
618.2390, 13504.00
619.4060, 13316.00
620.5720, 13294.00
621.7390, 13184.00
622.9050, 12719.00
624.0710, 12285.00
625.2370, 11608.00
626.4030, 11029.00
627.5690, 11001.00
628.7340, 10582.00
629.9000, 10388.00
631.0650, 10275.00
632.2300, 10178.00
633.3950, 10168.00
634.5600, 10196.00
635.7240, 10209.00
636.8890, 10242.00
638.0530, 10390.00
639.2170, 10461.00
640.3810, 10571.00
641.5450, 10512.00
642.7080, 10609.00
643.8720, 10608.00
645.0350, 10577.00
646.1980, 10666.00
647.3610, 10631.00
648.5240, 10642.00
649.6870, 10398.00
650.8490, 10422.00
652.0120, 10351.00
653.1740, 10337.00
654.3360, 10252.00
655.4980, 10346.00
656.6600, 10359.00
657.8210, 10575.00
658.9830, 10880.00
660.1440, 10980.00
661.3050, 11408.00
662.4660, 11802.00
663.6270, 12200.00
664.7870, 12856.00
665.9480, 13588.00
667.1080, 14119.00
668.2680, 15078.00
669.4280, 16439.00
670.5880, 18108.00
671.7480, 20424.00
672.9070, 23233.00
674.0670, 26842.00
675.2260, 31159.00
676.3850, 36319.00
677.5440, 42441.00
678.7030, 49116.00
679.8610, 55429.00
681.0200, 59521.00
682.1780, 59433.00
683.3360, 55041.00
684.4940, 47505.00
685.6520, 39893.00
686.8090, 32985.00
687.9670, 27762.00
689.1240, 23717.00
690.2810, 20918.00
691.4380, 18688.00
692.5950, 17062.00
693.7520, 15829.00
694.9080, 14907.00
696.0650, 14024.00
697.2210, 13242.00
698.3770, 12757.00
699.5330, 12217.00
700.6880, 11814.00
701.8440, 11381.00
702.9990, 11060.00
704.1550, 10808.00
705.3100, 10550.00
706.4650, 10306.00
707.6190, 10189.00
708.7740, 10027.00
709.9290, 9871.724
711.0830, 9648.000
712.2370, 9614.000
713.3910, 9515.000
714.5450, 9413.000
715.6980, 9417.000
716.8520, 9299.000
718.0050, 9209.000
719.1580, 9271.000
720.3110, 9106.000
721.4640, 9094.000
722.6170, 8895.000
723.7700, 8926.000
724.9220, 8835.000
726.0740, 8948.000
727.2260, 8891.000
728.3780, 8962.000
729.5300, 9002.000
730.6810, 8857.000
731.8330, 8807.000
732.9840, 8734.000
734.1350, 8842.000
735.2860, 8977.000
736.4370, 8918.000
737.5880, 9075.000
738.7380, 9033.000
739.8880, 9121.000
741.0390, 9036.000
742.1890, 8967.000
743.3380, 9039.000
744.4880, 9078.000
745.6380, 9063.000
746.7870, 9089.688
747.9360, 9103.815
749.0850, 9067.000
750.2340, 9119.000
751.3830, 9089.000
752.5310, 9060.000
753.6800, 9162.000
754.8280, 9299.000
755.9760, 9451.000
757.1240, 9651.000
758.2720, 9826.000
759.4190, 10284.00
760.5670, 10656.00
761.7140, 11007.00
762.8610, 11608.00
764.0080, 12293.00
765.1550, 12861.00
766.3020, 13711.00
767.4480, 13986.00
768.5950, 14169.00
769.7410, 13754.00
770.8870, 13259.00
772.0330, 12285.00
773.1780, 11715.00
774.3240, 11177.00
775.4690, 10539.00
776.6140, 10279.00
777.7590, 9861.000
778.9040, 9580.000
780.0490, 9553.000
781.1940, 9381.000
782.3380, 9199.000
783.4820, 9266.000
784.6260, 9108.000
785.7700, 9196.000
786.9140, 8984.000
788.0580, 8973.000
789.2010, 8981.000
790.3450, 8949.000
791.4880, 8934.000
792.6310, 8922.000
793.7730, 8872.000
794.9160, 8874.000
796.0590, 8853.000
797.2010, 8803.000
798.3430, 8826.000
799.4850, 8823.388
800.6270, 8811.000
801.7690, 8871.000
802.9100, 8916.000
804.0520, 8955.000
805.1930, 8826.000
806.3340, 8873.000
807.4750, 8823.000
808.6160, 8876.000
809.7560, 8954.000
810.8970, 9082.000
812.0370, 8915.000
813.1770, 8771.000
814.3170, 8954.000
815.4570, 8898.000
816.5960, 8951.000
817.7360, 8922.000
818.8750, 9049.000
820.0140, 8913.000
821.1530, 9107.000
822.2920, 9013.000
823.4310, 9150.000
824.5690, 8909.000
825.7070, 9007.000
826.8460, 9015.000
827.9840, 9056.000
829.1220, 9090.102
830.2590, 9008.000
831.3970, 9107.000
832.5340, 9155.000
833.6710, 9118.000
834.8080, 9216.000
835.9450, 9118.000
837.0820, 9169.000
838.2190, 9177.000
839.3550, 9207.000
840.4910, 9186.000
841.6270, 9312.000
842.7630, 9153.000
843.8990, 9362.000
845.0350, 9293.000
846.1700, 9434.000
847.3060, 9389.000
848.4410, 9377.000
849.5760, 9401.000
850.7100, 9426.000
851.8450, 9464.000
852.9800, 9433.000
854.1140, 9547.000
855.2480, 9394.000
856.3820, 9519.000
857.5160, 9432.000
858.6500, 9471.000
859.7830, 9501.000
860.9170, 9352.000
862.0500, 9401.000
863.1830, 9519.000
864.3160, 9411.000
865.4480, 9386.000
866.5810, 9396.000
867.7130, 9389.000
868.8460, 9456.000
869.9780, 9380.000
871.1100, 9444.000
872.2410, 9308.000
873.3730, 9321.000
874.5050, 9328.000
875.6360, 9439.000
876.7670, 9436.000
877.8980, 9463.000
879.0290, 9386.000
880.1590, 9467.000
881.2900, 9506.000
882.4200, 9636.000
883.5500, 9467.000
884.6800, 9522.000
885.8100, 9396.000
886.9400, 9518.000
888.0690, 9588.000
889.1990, 9570.000
890.3280, 9604.000
891.4570, 9643.000
892.5860, 9524.000
893.7140, 9803.000
894.8430, 9645.000
895.9710, 9840.000
897.1000, 9881.000
898.2280, 10117.00
899.3560, 10476.00
900.4830, 10590.00
901.6110, 10430.00
902.7380, 10285.00
903.8660, 10370.00
904.9930, 10625.00
906.1200, 10707.00
907.2460, 10897.00
908.3730, 10990.00
909.5000, 11041.00
910.6260, 11369.00
911.7520, 11395.00
912.8780, 11621.00
914.0040, 11572.00
915.1290, 11639.00
916.2550, 11604.00
917.3800, 11473.00
918.5050, 11435.00
919.6300, 11419.00
920.7550, 11377.00
921.8800, 11079.00
923.0040, 11013.00
924.1290, 10842.00
925.2530, 10823.00
926.3770, 10563.00
927.5010, 10568.00
928.6250, 10690.00
929.7480, 10445.00
930.8720, 10389.00
931.9950, 10337.00
933.1180, 10381.00
934.2410, 10311.00
935.3640, 10218.00
936.4860, 10019.00
937.6090, 10098.00
938.7310, 10030.00
939.8530, 9928.000
940.9750, 9970.000
942.0970, 9802.000
943.2180, 9923.000
944.3400, 9875.000
945.4610, 9807.000
946.5820, 9831.000
947.7030, 9849.000
948.8240, 9838.000
949.9450, 9791.000
951.0650, 9758.000
952.1860, 9921.000
953.3060, 9951.000
954.4260, 9865.000
955.5460, 10008.00
956.6650, 9888.000
957.7850, 9977.000
958.9040, 10052.00
960.0230, 10027.00
961.1420, 10211.00
962.2610, 10158.00
963.3800, 10305.00
964.4990, 10086.00
965.6170, 10212.00
966.7350, 10323.00
967.8530, 10540.00
968.9710, 10386.00
970.0890, 10624.00
971.2070, 10850.00
972.3240, 10705.00
973.4410, 10591.00
974.5580, 10724.00
975.6750, 10677.00
976.7920, 10879.00
977.9090, 10887.00
979.0250, 10970.00
980.1410, 10975.00
981.2580, 11071.00
982.3740, 11147.00
983.4890, 11273.00
984.6050, 11325.00
985.7200, 11471.00
986.8360, 11568.00
987.9510, 11679.00
989.0660, 11845.00
990.1810, 11995.46
991.2950, 12169.44
992.4100, 12364.00
993.5240, 12621.00
994.6390, 12828.00
995.7530, 13073.24
996.8660, 13430.00
997.9800, 13596.00
999.0940, 13819.00
1000.207, 14144.00
1001.320, 14263.00
1002.433, 14267.00
1003.546, 14461.00
1004.659, 14360.00
1005.772, 14096.00
1006.884, 14054.00
1007.996, 13907.00
1009.108, 13708.00
1010.220, 13571.00
1011.332, 13458.00
1012.444, 13283.00
1013.555, 13039.00
1014.666, 13007.00
1015.777, 12792.00
1016.888, 12701.00
1017.999, 12496.00
1019.110, 12379.00
1020.220, 12301.00
1021.331, 12297.00
1022.441, 12272.00
1023.551, 12111.00
1024.661, 12149.00
1025.770, 11942.00
1026.880, 11968.00
1027.989, 11928.00
1029.098, 11904.00
1030.207, 11910.00
1031.316, 11849.50
1032.425, 11737.00
1033.533, 11761.00
1034.642, 11704.00
1035.750, 11678.00
1036.858, 11795.00
1037.966, 11630.00
1039.073, 11601.00
1040.181, 11723.00
1041.288, 11587.00
1042.396, 11518.00
1043.503, 11571.00
1044.610, 11398.00
1045.716, 11446.00
1046.823, 11398.00
1047.929, 11441.68
1049.036, 11676.00
1050.142, 11626.00
1051.248, 11793.00
1052.353, 11939.00
1053.459, 12069.00
1054.564, 12201.00
1055.670, 12525.98
1056.775, 12734.00
1057.880, 13261.00
1058.985, 13646.00
1060.089, 14113.00
1061.194, 14450.00
1062.298, 14981.00
1063.402, 15311.00
1064.506, 15581.00
1065.610, 15969.00
1066.713, 15994.00
1067.817, 15668.00
1068.920, 15194.00
1070.023, 15069.00
1071.126, 14593.00
1072.229, 14201.00
1073.332, 13787.00
1074.435, 13488.21
1075.537, 13239.00
1076.639, 13029.00
1077.741, 12796.00
1078.843, 12730.00
1079.945, 12717.00
1081.046, 12571.00
1082.148, 12390.00
1083.249, 12185.00
1084.350, 11950.00
1085.451, 11909.00
1086.551, 11943.00
1087.652, 11830.00
1088.752, 11719.00
1089.853, 11498.00
1090.953, 11464.00
1092.053, 11643.00
1093.152, 11463.25
1094.252, 11566.00
1095.351, 11359.00
1096.451, 11256.00
1097.550, 11221.00
1098.649, 11103.00
1099.748, 11015.00
1100.846, 10918.00
1101.945, 10955.00
1103.043, 10867.00
1104.141, 10976.00
1105.239, 10950.00
1106.337, 10748.00
1107.434, 10857.00
1108.532, 10776.00
1109.629, 10872.00
1110.726, 10937.00
1111.823, 10804.00
1112.920, 10795.00
1114.017, 10745.00
1115.113, 10742.96
1116.210, 10785.29
1117.306, 10789.00
1118.402, 10903.00
1119.498, 10925.00
1120.593, 10984.00
1121.689, 10909.00
1122.784, 10931.17
1123.879, 11063.00
1124.974, 10911.00
1126.069, 10959.00
1127.164, 10996.00
1128.259, 10903.00
1129.353, 10865.00
1130.447, 10805.00
1131.541, 10798.00
1132.635, 10823.00
1133.729, 10822.00
1134.822, 10688.00
1135.916, 10636.00
1137.009, 10665.00
1138.102, 10666.00
1139.195, 10693.00
1140.288, 10650.00
1141.380, 10583.00
1142.473, 10656.00
1143.565, 10592.00
1144.657, 10527.00
1145.749, 10539.00
1146.841, 10542.00
1147.932, 10559.00
1149.024, 10544.00
1150.115, 10480.00
1151.206, 10832.00
1152.297, 11260.00
1153.388, 11564.00
1154.479, 11265.51
1155.569, 10765.00
1156.659, 10585.00
1157.750, 10545.00
1158.839, 10539.00
1159.929, 10511.64
1161.019, 10688.00
1162.108, 10578.00
1163.198, 10673.00
1164.287, 10710.00
1165.376, 10726.00
1166.465, 10734.00
1167.553, 10664.00
1168.642, 10938.00
1169.730, 10843.00
1170.818, 10720.00
1171.906, 10947.00
1172.994, 10920.00
1174.082, 10833.00
1175.170, 10985.00
1176.257, 10857.00
1177.344, 11073.00
1178.431, 11115.00
1179.518, 11109.00
1180.605, 11242.00
1181.691, 11251.00
1182.778, 11361.00
1183.864, 11425.00
1184.950, 11397.00
1186.036, 11473.00
1187.122, 11418.00
1188.207, 11494.00
1189.292, 11646.00
1190.378, 11651.00
1191.463, 11634.00
1192.548, 11744.00
1193.632, 11738.24
1194.717, 11694.00
1195.801, 11807.00
1196.886, 11792.00
1197.970, 11818.06
1199.054, 11833.00
1200.137, 11806.00
1201.221, 11869.00
1202.305, 11969.00
1203.388, 12146.00
1204.471, 12138.00
1205.554, 12156.00
1206.637, 12085.00
1207.719, 12327.00
1208.802, 12394.00
1209.884, 12529.00
1210.966, 12645.00
1212.048, 12961.00
1213.130, 13019.00
1214.212, 13259.00
1215.293, 13748.00
1216.374, 14024.00
1217.456, 14357.00
1218.536, 14864.00
1219.617, 15303.00
1220.698, 15685.00
1221.778, 15858.00
1222.859, 16379.00
1223.939, 16604.00
1225.019, 16651.00
1226.099, 16547.00
1227.178, 16331.00
1228.258, 16228.00
1229.337, 16120.00
1230.417, 15987.00
1231.496, 15752.00
1232.574, 15873.00
1233.653, 15968.00
1234.732, 16199.00
1235.810, 16405.00
1236.888, 16777.00
1237.966, 17036.00
1239.044, 17395.00
1240.122, 17628.00
1241.199, 17667.00
1242.277, 17505.00
1243.354, 17132.00
1244.431, 16534.00
1245.508, 15810.00
1246.585, 15253.00
1247.661, 14665.00
1248.738, 14178.00
1249.814, 13770.00
1250.890, 13447.00
1251.966, 13073.00
1253.042, 12753.00
1254.117, 12675.00
1255.193, 12540.00
1256.268, 12493.00
1257.343, 12327.00
1258.418, 12268.00
1259.493, 12343.00
1260.567, 12311.00
1261.642, 12173.00
1262.716, 12043.00
1263.790, 11961.00
1264.864, 12123.00
1265.938, 12083.00
1267.011, 12113.00
1268.085, 12029.00
1269.158, 12032.00
1270.231, 12007.00
1271.304, 12101.00
1272.377, 12050.00
1273.450, 12018.00
1274.522, 12024.00
1275.594, 11989.00
1276.666, 12003.00
1277.738, 12002.00
1278.810, 11930.00
1279.882, 12025.00
1280.953, 11984.00
1282.025, 11832.00
1283.096, 12004.00
1284.167, 11899.19
1285.238, 11805.00
1286.308, 11869.00
1287.379, 11764.00
1288.449, 11745.00
1289.519, 11808.00
1290.589, 11696.00
1291.659, 11698.00
1292.729, 11727.00
1293.798, 11737.00
1294.868, 11785.00
1295.937, 11609.00
1297.006, 11914.00
1298.075, 11572.00
1299.143, 11687.00
1300.212, 11555.00
1301.280, 11771.00
1302.348, 11666.00
1303.416, 11780.00
1304.484, 11817.00
1305.552, 11882.00
1306.620, 11705.00
1307.687, 11797.00
1308.754, 11735.00
1309.821, 11771.00
1310.888, 11843.00
1311.955, 11846.00
1313.021, 11750.00
1314.088, 11946.00
1315.154, 11792.00
1316.220, 11933.00
1317.286, 11899.00
1318.352, 11969.00
1319.417, 12019.00
1320.483, 11915.00
1321.548, 11997.00
1322.613, 12029.00
1323.678, 11973.00
1324.743, 12020.00
1325.807, 12036.00
1326.872, 12169.00
1327.936, 12119.00
1329.000, 12207.53
1330.064, 12310.00
1331.128, 12289.00
1332.191, 12330.00
1333.255, 12312.00
1334.318, 12302.00
1335.381, 12343.11
1336.444, 12406.04
1337.507, 12418.00
1338.569, 12518.00
1339.632, 12585.00
1340.694, 12477.00
1341.756, 12632.00
1342.818, 12533.00
1343.880, 12628.00
1344.941, 12686.57
1346.003, 12478.00
1347.064, 12755.00
1348.125, 12659.00
1349.186, 12545.00
1350.247, 12700.00
1351.308, 12835.00
1352.368, 12809.00
1353.428, 12859.85
1354.489, 12774.00
1355.549, 12838.00
1356.608, 12731.00
1357.668, 12778.00
1358.727, 12815.00
1359.787, 12879.00
1360.846, 12877.00
1361.905, 12834.00
1362.964, 13009.00
1364.022, 12843.00
1365.081, 12930.00
1366.139, 13106.00
1367.197, 12906.00
1368.255, 12864.00
1369.313, 12891.00
1370.371, 12984.00
1371.428, 13038.00
1372.486, 13187.00
1373.543, 13044.00
1374.600, 12991.00
1375.657, 13101.00
1376.713, 13038.00
1377.770, 13088.38
1378.826, 13131.00
1379.882, 13196.00
1380.938, 13238.00
1381.994, 13381.00
1383.050, 13270.00
1384.106, 13175.00
1385.161, 13308.00
1386.216, 13222.00
1387.271, 13338.00
1388.326, 13421.00
1389.381, 13189.00
1390.435, 13367.00
1391.490, 13324.00
1392.544, 13356.00
1393.598, 13338.00
1394.652, 13460.00
1395.705, 13598.00
1396.759, 13600.00
1397.812, 13465.00
1398.866, 13578.00
1399.919, 13596.00
1400.972, 13719.00
1402.024, 13796.00
1403.077, 13713.00
1404.129, 13667.00
1405.181, 13822.00
1406.233, 13813.00
1407.285, 13888.00
1408.337, 13921.27
1409.389, 13861.00
1410.440, 13979.00
1411.491, 13910.00
1412.542, 13991.00
1413.593, 14121.00
1414.644, 14095.00
1415.695, 14041.00
1416.745, 14107.00
1417.795, 14179.00
1418.845, 14321.00
1419.895, 14201.00
1420.945, 14316.00
1421.995, 14272.00
1423.044, 14329.00
1424.093, 14329.00
1425.142, 14375.00
1426.191, 14375.00
1427.240, 14420.00
1428.289, 14492.00
1429.337, 14581.00
1430.385, 14662.00
1431.433, 14708.00
1432.481, 14755.00
1433.529, 14798.38
1434.577, 14829.00
1435.624, 14840.00
1436.672, 14861.00
1437.719, 14834.00
1438.766, 14909.00
1439.812, 14970.00
1440.859, 15153.00
1441.905, 15187.00
1442.952, 15203.00
1443.998, 15275.55
1445.044, 15214.00
1446.090, 15288.00
1447.135, 15327.00
1448.181, 15271.00
1449.226, 15282.00
1450.271, 15306.00
1451.316, 15445.00
1452.361, 15511.00
1453.405, 15511.00
1454.450, 15486.00
1455.494, 15634.00
1456.538, 15697.00
1457.582, 15691.00
1458.626, 15760.00
1459.670, 15843.00
1460.713, 15817.00
1461.757, 15947.00
1462.800, 15917.00
1463.843, 15903.00
1464.886, 15972.00
1465.928, 16092.00
1466.971, 16109.00
1468.013, 16193.00
1469.055, 16196.71
1470.097, 16193.00
1471.139, 16201.00
1472.181, 16277.00
1473.222, 16327.51
1474.263, 16406.00
1475.305, 16444.56
1476.346, 16446.00
1477.386, 16499.00
1478.427, 16584.00
1479.468, 16565.00
1480.508, 16719.00
1481.548, 16685.00
1482.588, 16885.00
1483.628, 16635.00
1484.668, 16870.00
1485.707, 16908.00
1486.747, 17073.00
1487.786, 17118.00
1488.825, 17209.00
1489.864, 17392.00
1490.902, 17170.00
1491.941, 17199.00
1492.979, 17384.00
1494.017, 17261.00
1495.055, 17418.00
1496.093, 17396.00
1497.131, 17542.00
1498.168, 17534.00
1499.206, 17482.00
1500.243, 17730.00
1501.280, 17659.00
1502.317, 17853.00
1503.354, 17937.00
1504.390, 18049.00
1505.426, 17946.00
1506.463, 18021.00
1507.499, 17985.00
1508.535, 18146.00
1509.570, 18241.00
1510.606, 18257.00
1511.641, 18375.00
1512.676, 18324.00
1513.711, 18430.00
1514.746, 18621.00
1515.781, 18505.00
1516.816, 18624.00
1517.850, 18771.00
1518.884, 18771.00
1519.918, 18717.00
1520.952, 18981.00
1521.986, 18957.00
1523.019, 18902.00
1524.053, 19248.00
1525.086, 19136.00
1526.119, 19115.00
1527.152, 19369.00
1528.185, 19298.00
1529.217, 19238.00
1530.250, 19624.00
1531.282, 19370.00
1532.314, 19524.00
1533.346, 19488.00
1534.377, 19721.00
1535.409, 19728.00
1536.440, 19929.00
1537.472, 19798.00
1538.503, 19833.00
1539.534, 19799.00
1540.564, 19844.00
1541.595, 20086.00
1542.625, 20330.00
1543.656, 20142.00
1544.686, 20269.00
1545.716, 20317.00
1546.745, 20375.00
1547.775, 20529.45
1548.804, 20600.00
1549.834, 20687.14
1550.863, 20736.00
1551.892, 20826.00
1552.920, 20917.00
1553.949, 20943.31
1554.977, 20975.68
1556.006, 21068.00
1557.034, 21043.00
1558.062, 21056.00
1559.089, 21229.00
1560.117, 21174.00
1561.144, 21387.00
1562.172, 21418.00
1563.199, 21494.00
1564.226, 21559.00
1565.252, 21428.00
1566.279, 21508.00
1567.305, 21699.00
1568.332, 21664.00
1569.358, 21947.00
1570.384, 21864.00
##END=



