##NAMES=Beryl
##RRUFFID=R050305
##IDEAL CHEMISTRY=Be_3_Al_2_Si_6_O_18_
##LOCALITY=Conselheiro Pena, Minas Gerais, Brazil
##OWNER=RRUFF
##SOURCE=Eugene Schlepp
##DESCRIPTION=Light blue fragment, variety aquamarine
##STATUS=The identification of this mineral has been confirmed by X-ray diffraction and chemical analysis
##URL=rruff.info/R050305
##MEASURED CHEMISTRY=(Be_0.91_Li_0.09_)_3_(Al_0.99_Fe^3+^_0.01_)_2_Si_6.00_O_18_Î‡Na_0.27_
##PIN_ID=L00797
##ORIENTATION=Laser parallel to c* (0 0 1). Fiducial mark perpendicular to laser is parallel to [-1 -1 0]
95.94800, 10597.00
97.18200, 10696.00
98.41600, 10953.00
99.64900, 11115.00
100.8830, 11197.00
102.1160, 11508.00
103.3490, 11413.00
104.5820, 11680.00
105.8150, 12006.00
107.0470, 12433.00
108.2800, 13187.00
109.5120, 13752.00
110.7440, 13561.00
111.9760, 13422.00
113.2080, 13850.00
114.4400, 14220.00
115.6710, 14468.00
116.9030, 14608.00
118.1340, 14935.00
119.3650, 14837.00
120.5960, 15074.00
121.8270, 15171.00
123.0580, 15081.00
124.2880, 15075.00
125.5190, 14975.00
126.7490, 14992.66
127.9790, 15002.00
129.2090, 15027.00
130.4390, 15109.00
131.6680, 15146.00
132.8980, 15202.00
134.1270, 15088.00
135.3560, 15184.00
136.5850, 15184.00
137.8140, 15339.00
139.0430, 15099.00
140.2710, 15105.00
141.5000, 14765.00
142.7280, 14618.00
143.9560, 14224.00
145.1840, 14099.00
146.4120, 14013.00
147.6390, 13899.00
148.8670, 13695.00
150.0940, 13871.00
151.3210, 13719.00
152.5490, 13887.00
153.7750, 13904.00
155.0020, 13913.00
156.2290, 13909.00
157.4550, 13871.00
158.6810, 13927.74
159.9080, 13945.00
161.1340, 14036.00
162.3590, 14066.00
163.5850, 14147.00
164.8110, 14194.52
166.0360, 14137.00
167.2610, 14269.00
168.4860, 14306.00
169.7110, 14295.00
170.9360, 14391.00
172.1610, 14333.00
173.3850, 14171.00
174.6100, 14182.00
175.8340, 14312.00
177.0580, 13985.00
178.2820, 13981.00
179.5050, 14094.00
180.7290, 13898.00
181.9520, 13738.00
183.1760, 13806.00
184.3990, 13706.00
185.6220, 13520.00
186.8450, 13551.00
188.0670, 13563.00
189.2900, 13387.00
190.5120, 13402.00
191.7340, 13385.00
192.9560, 13375.00
194.1780, 13368.00
195.4000, 13172.00
196.6220, 13355.00
197.8430, 13274.00
199.0640, 13181.00
200.2860, 13252.00
201.5070, 13241.00
202.7270, 13341.00
203.9480, 13042.00
205.1690, 12855.00
206.3890, 12588.00
207.6090, 12536.00
208.8290, 12569.00
210.0490, 12522.00
211.2690, 12496.00
212.4890, 12464.00
213.7080, 12395.00
214.9280, 12607.00
216.1470, 12531.00
217.3660, 12427.00
218.5850, 12607.00
219.8030, 12554.00
221.0220, 12712.00
222.2400, 12668.00
223.4590, 12773.00
224.6770, 12786.00
225.8950, 12775.00
227.1120, 12890.00
228.3300, 12898.00
229.5480, 12988.00
230.7650, 12914.00
231.9820, 12948.00
233.1990, 13006.00
234.4160, 13017.00
235.6330, 12940.00
236.8490, 12902.00
238.0660, 12915.00
239.2820, 12894.00
240.4980, 12877.46
241.7140, 12843.12
242.9300, 12845.00
244.1460, 12780.00
245.3610, 12758.00
246.5770, 12789.00
247.7920, 12708.00
249.0070, 12752.00
250.2220, 12690.00
251.4370, 12793.00
252.6510, 12650.00
253.8660, 12562.00
255.0800, 12596.00
256.2940, 12608.00
257.5080, 12688.00
258.7220, 12904.00
259.9360, 13120.00
261.1490, 12969.00
262.3630, 13130.00
263.5760, 12873.00
264.7890, 12872.00
266.0020, 12980.00
267.2150, 12922.00
268.4270, 12971.00
269.6400, 12805.00
270.8520, 13047.00
272.0640, 12867.00
273.2760, 13037.00
274.4880, 12938.00
275.7000, 13023.00
276.9120, 12985.00
278.1230, 13034.00
279.3340, 13115.00
280.5450, 13030.00
281.7560, 13249.00
282.9670, 13390.00
284.1780, 13404.00
285.3880, 13572.00
286.5980, 13655.00
287.8090, 13819.00
289.0190, 14011.00
290.2290, 14353.00
291.4380, 14580.00
292.6480, 14595.00
293.8570, 14599.00
295.0670, 14476.00
296.2760, 14322.00
297.4850, 14156.00
298.6930, 13962.00
299.9020, 13750.00
301.1110, 13464.00
302.3190, 13439.00
303.5270, 13412.00
304.7350, 13241.00
305.9430, 13257.00
307.1510, 13375.00
308.3580, 13315.00
309.5660, 13439.00
310.7730, 13573.00
311.9800, 13696.00
313.1870, 13713.00
314.3940, 14083.00
315.6010, 14255.00
316.8070, 14289.00
318.0130, 14559.00
319.2200, 14847.00
320.4260, 15027.00
321.6310, 15205.00
322.8370, 15295.00
324.0430, 15129.00
325.2480, 15057.00
326.4540, 14619.00
327.6590, 14339.00
328.8640, 14035.00
330.0680, 13648.00
331.2730, 13410.00
332.4780, 13311.00
333.6820, 13096.00
334.8860, 12935.00
336.0900, 13026.00
337.2940, 13091.00
338.4980, 12829.00
339.7010, 12903.00
340.9050, 12836.00
342.1080, 12831.00
343.3110, 12944.00
344.5140, 13040.00
345.7170, 12962.00
346.9200, 13049.00
348.1220, 12906.00
349.3240, 12950.00
350.5270, 13093.00
351.7290, 13070.00
352.9310, 13100.00
354.1320, 13133.00
355.3340, 13164.00
356.5350, 13122.00
357.7370, 13165.48
358.9380, 13094.00
360.1390, 13201.00
361.3400, 13190.00
362.5400, 13207.00
363.7410, 13273.00
364.9410, 13339.00
366.1410, 13478.00
367.3410, 13531.00
368.5410, 13524.00
369.7410, 13517.00
370.9400, 13680.00
372.1400, 13642.00
373.3390, 13699.00
374.5380, 13777.00
375.7370, 13982.00
376.9360, 14099.00
378.1350, 14288.00
379.3330, 14531.59
380.5310, 14713.00
381.7300, 15089.00
382.9280, 15346.00
384.1260, 15718.00
385.3230, 16222.00
386.5210, 16918.00
387.7180, 17736.00
388.9160, 18701.00
390.1130, 20024.00
391.3100, 21641.00
392.5060, 23128.00
393.7030, 24644.00
394.9000, 26273.00
396.0960, 28019.00
397.2920, 29573.00
398.4880, 30344.00
399.6840, 30626.00
400.8800, 29870.00
402.0750, 28005.00
403.2710, 25685.00
404.4660, 23412.00
405.6610, 21739.00
406.8560, 20117.00
408.0510, 18981.00
409.2450, 18265.00
410.4400, 17746.00
411.6340, 17390.00
412.8280, 17436.00
414.0220, 17230.00
415.2160, 17192.00
416.4100, 17268.00
417.6030, 17194.00
418.7970, 17213.00
419.9900, 17392.00
421.1830, 17228.00
422.3760, 17217.00
423.5690, 17021.00
424.7610, 16752.00
425.9540, 16413.00
427.1460, 16061.00
428.3380, 15667.00
429.5300, 15437.00
430.7220, 15251.00
431.9140, 15170.00
433.1050, 14957.00
434.2970, 14887.00
435.4880, 14806.00
436.6790, 14598.00
437.8700, 14728.00
439.0610, 14584.73
440.2510, 14539.10
441.4420, 14473.00
442.6320, 14421.00
443.8220, 14350.00
445.0120, 14278.00
446.2020, 14375.00
447.3910, 14280.00
448.5810, 14292.00
449.7700, 14021.00
450.9600, 14290.00
452.1490, 14021.00
453.3370, 14030.00
454.5260, 13985.00
455.7150, 14059.00
456.9030, 14007.00
458.0910, 13900.00
459.2800, 13921.00
460.4670, 13763.00
461.6550, 13886.00
462.8430, 13895.00
464.0300, 13801.00
465.2180, 13821.00
466.4050, 13706.00
467.5920, 13755.00
468.7790, 13645.00
469.9650, 13789.00
471.1520, 13900.00
472.3380, 13835.00
473.5250, 13772.00
474.7110, 13980.00
475.8970, 13770.00
477.0820, 13851.00
478.2680, 13934.00
479.4540, 13743.00
480.6390, 13955.00
481.8240, 14095.00
483.0090, 13980.00
484.1940, 14045.00
485.3780, 14006.00
486.5630, 13917.00
487.7470, 14047.00
488.9320, 14051.00
490.1160, 13993.00
491.3000, 14135.00
492.4830, 14004.00
493.6670, 13995.00
494.8500, 14043.00
496.0340, 13963.00
497.2170, 14087.00
498.4000, 14045.00
499.5820, 13948.00
500.7650, 14037.00
501.9480, 13824.00
503.1300, 14040.00
504.3120, 14023.00
505.4940, 13780.00
506.6760, 13922.00
507.8580, 13879.00
509.0390, 13903.00
510.2210, 13982.00
511.4020, 13960.00
512.5830, 13949.00
513.7640, 14049.00
514.9450, 13979.00
516.1250, 14005.00
517.3060, 13970.00
518.4860, 13863.00
519.6660, 13975.00
520.8460, 14204.00
522.0260, 14130.00
523.2060, 14006.00
524.3850, 13947.00
525.5650, 14192.00
526.7440, 14227.00
527.9230, 14276.00
529.1020, 14243.00
530.2810, 14307.00
531.4590, 14220.00
532.6380, 14353.00
533.8160, 14375.00
534.9940, 14342.00
536.1720, 14449.00
537.3500, 14499.00
538.5270, 14433.00
539.7050, 14505.00
540.8820, 14646.00
542.0590, 14389.00
543.2360, 14729.00
544.4130, 14565.00
545.5900, 14759.00
546.7660, 14842.00
547.9430, 14796.00
549.1190, 14837.00
550.2950, 15014.00
551.4710, 15038.00
552.6470, 15045.00
553.8220, 15297.00
554.9980, 15251.00
556.1730, 15432.00
557.3480, 15432.00
558.5230, 15699.00
559.6980, 15773.00
560.8730, 15746.00
562.0470, 15884.00
563.2220, 16072.00
564.3960, 15962.00
565.5700, 16056.00
566.7440, 16172.00
567.9170, 16115.00
569.0910, 16361.00
570.2640, 16313.00
571.4380, 16384.00
572.6110, 16563.00
573.7840, 16556.00
574.9570, 16624.28
576.1290, 16621.00
577.3020, 16628.00
578.4740, 16472.00
579.6460, 16375.00
580.8180, 16312.00
581.9900, 16272.00
583.1620, 16169.79
584.3330, 15977.00
585.5040, 15946.00
586.6760, 15872.00
587.8470, 15656.00
589.0180, 15659.00
590.1880, 15440.00
591.3590, 15574.00
592.5290, 15493.00
593.7000, 15381.00
594.8700, 15310.00
596.0400, 15367.00
597.2090, 15330.00
598.3790, 15380.00
599.5490, 15186.00
600.7180, 15287.00
601.8870, 15404.00
603.0560, 15127.00
604.2250, 15130.00
605.3940, 15290.00
606.5620, 15030.00
607.7300, 15124.00
608.8990, 15129.00
610.0670, 15048.00
611.2350, 15319.00
612.4020, 15284.00
613.5700, 15478.00
614.7370, 15335.00
615.9050, 15234.00
617.0720, 15392.00
618.2390, 15387.00
619.4060, 15320.00
620.5720, 15495.00
621.7390, 15314.00
622.9050, 15328.00
624.0710, 15404.00
625.2370, 15457.00
626.4030, 15421.00
627.5690, 15503.00
628.7340, 15503.00
629.9000, 15481.56
631.0650, 15454.00
632.2300, 15415.00
633.3950, 15466.00
634.5600, 15406.00
635.7240, 15505.00
636.8890, 15414.00
638.0530, 15595.00
639.2170, 15497.00
640.3810, 15653.00
641.5450, 15665.00
642.7080, 15610.00
643.8720, 15567.00
645.0350, 15773.00
646.1980, 15740.00
647.3610, 15661.00
648.5240, 15963.00
649.6870, 15777.00
650.8490, 15939.00
652.0120, 15992.00
653.1740, 15849.00
654.3360, 16107.00
655.4980, 16136.00
656.6600, 16185.08
657.8210, 16225.00
658.9830, 16390.00
660.1440, 16441.00
661.3050, 16674.00
662.4660, 16758.00
663.6270, 16936.00
664.7870, 17119.00
665.9480, 17441.68
667.1080, 17707.00
668.2680, 18261.00
669.4280, 18711.00
670.5880, 19279.00
671.7480, 20154.00
672.9070, 21200.00
674.0670, 22646.00
675.2260, 24535.00
676.3850, 26937.00
677.5440, 29964.00
678.7030, 33698.00
679.8610, 38093.00
681.0200, 42678.00
682.1780, 47663.00
683.3360, 52509.00
684.4940, 56377.00
685.6520, 58242.00
686.8090, 57721.00
687.9670, 53752.00
689.1240, 48248.00
690.2810, 42418.00
691.4380, 37300.00
692.5950, 32805.00
693.7520, 29767.00
694.9080, 27000.00
696.0650, 25144.00
697.2210, 23328.00
698.3770, 22566.00
699.5330, 21593.00
700.6880, 20708.00
701.8440, 20358.00
702.9990, 19683.00
704.1550, 19322.00
705.3100, 19224.00
706.4650, 18814.08
707.6190, 18647.00
708.7740, 18459.00
709.9290, 18161.00
711.0830, 18133.00
712.2370, 17853.00
713.3910, 17904.00
714.5450, 17664.00
715.6980, 17608.00
716.8520, 17582.00
718.0050, 17523.00
719.1580, 17405.00
720.3110, 17491.00
721.4640, 17525.00
722.6170, 17577.00
723.7700, 17498.00
724.9220, 17414.00
726.0740, 17337.00
727.2260, 17418.00
728.3780, 17354.00
729.5300, 17193.00
730.6810, 17408.00
731.8330, 17308.00
732.9840, 17252.00
734.1350, 16996.00
735.2860, 17142.00
736.4370, 17130.00
737.5880, 17127.00
738.7380, 17184.77
739.8880, 17074.00
741.0390, 17192.00
742.1890, 17113.00
743.3380, 17050.00
744.4880, 17053.00
745.6380, 17095.00
746.7870, 17123.00
747.9360, 17174.00
749.0850, 17245.00
750.2340, 17270.00
751.3830, 17398.00
752.5310, 17169.00
753.6800, 17467.00
754.8280, 17621.00
755.9760, 17528.00
757.1240, 17377.00
758.2720, 17470.00
759.4190, 17527.00
760.5670, 17498.00
761.7140, 17493.00
762.8610, 17447.00
764.0080, 17512.00
765.1550, 17333.00
766.3020, 17300.00
767.4480, 17094.00
768.5950, 17197.00
769.7410, 17103.00
770.8870, 16941.00
772.0330, 16924.00
773.1780, 17067.00
774.3240, 17019.00
775.4690, 17015.00
776.6140, 16919.00
777.7590, 16935.00
778.9040, 17061.00
780.0490, 16879.00
781.1940, 16920.00
782.3380, 16902.00
783.4820, 17151.00
784.6260, 16912.00
785.7700, 16780.00
786.9140, 17074.00
788.0580, 16905.00
789.2010, 16865.00
790.3450, 16989.00
791.4880, 16955.00
792.6310, 16972.00
793.7730, 16978.00
794.9160, 16987.94
796.0590, 16991.00
797.2010, 17071.00
798.3430, 17007.00
799.4850, 17125.00
800.6270, 17034.00
801.7690, 17003.00
802.9100, 16921.00
804.0520, 16961.00
805.1930, 16930.93
806.3340, 17142.00
807.4750, 16966.00
808.6160, 17081.00
809.7560, 17163.00
810.8970, 17015.00
812.0370, 16950.00
813.1770, 17195.00
814.3170, 17072.00
815.4570, 17238.00
816.5960, 17176.00
817.7360, 17149.00
818.8750, 17131.00
820.0140, 17101.41
821.1530, 17164.00
822.2920, 17129.00
823.4310, 17200.00
824.5690, 17344.00
825.7070, 17188.00
826.8460, 17202.00
827.9840, 17124.00
829.1220, 17313.00
830.2590, 17246.00
831.3970, 17298.00
832.5340, 17334.00
833.6710, 17396.00
834.8080, 17390.43
835.9450, 17433.00
837.0820, 17375.00
838.2190, 17342.00
839.3550, 17327.00
840.4910, 17363.00
841.6270, 17437.00
842.7630, 17686.00
843.8990, 17432.00
845.0350, 17542.00
846.1700, 17656.00
847.3060, 17525.00
848.4410, 17685.00
849.5760, 17534.00
850.7100, 17674.00
851.8450, 17730.00
852.9800, 17608.00
854.1140, 17803.00
855.2480, 17701.00
856.3820, 17865.00
857.5160, 17700.00
858.6500, 17889.00
859.7830, 17801.00
860.9170, 18026.00
862.0500, 17941.00
863.1830, 17953.00
864.3160, 17856.00
865.4480, 17838.00
866.5810, 17857.00
867.7130, 17887.00
868.8460, 17923.00
869.9780, 17795.00
871.1100, 18004.00
872.2410, 17832.00
873.3730, 17950.00
874.5050, 18073.00
875.6360, 18043.00
876.7670, 17994.00
877.8980, 18090.00
879.0290, 17917.00
880.1590, 18051.00
881.2900, 18073.00
882.4200, 18039.00
883.5500, 18054.00
884.6800, 17979.00
885.8100, 18035.01
886.9400, 18089.00
888.0690, 18136.00
889.1990, 18212.00
890.3280, 18292.00
891.4570, 18289.00
892.5860, 18286.00
893.7140, 18291.00
894.8430, 18505.00
895.9710, 18564.00
897.1000, 18580.00
898.2280, 18753.00
899.3560, 18614.00
900.4830, 18657.00
901.6110, 18883.00
902.7380, 18705.00
903.8660, 18922.00
904.9930, 19058.00
906.1200, 18900.00
907.2460, 18929.00
908.3730, 19218.00
909.5000, 18736.00
910.6260, 19159.00
911.7520, 18990.00
912.8780, 19089.00
914.0040, 18908.00
915.1290, 18846.00
916.2550, 18927.00
917.3800, 19052.00
918.5050, 18911.00
919.6300, 18924.00
920.7550, 18861.00
921.8800, 18771.00
923.0040, 18669.00
924.1290, 18894.00
925.2530, 19020.00
926.3770, 18877.00
927.5010, 18925.00
928.6250, 18819.00
929.7480, 18928.00
930.8720, 18965.00
931.9950, 18949.00
933.1180, 18917.00
934.2410, 18948.00
935.3640, 18921.29
936.4860, 18894.00
937.6090, 18941.00
938.7310, 18879.00
939.8530, 18961.00
940.9750, 19050.00
942.0970, 19094.00
943.2180, 19024.00
944.3400, 18991.00
945.4610, 19027.00
946.5820, 19112.00
947.7030, 18943.00
948.8240, 19046.00
949.9450, 19106.00
951.0650, 19041.00
952.1860, 19008.00
953.3060, 19064.00
954.4260, 19096.00
955.5460, 19197.00
956.6650, 19249.00
957.7850, 19077.00
958.9040, 19210.00
960.0230, 19024.00
961.1420, 19230.00
962.2610, 19106.00
963.3800, 19412.00
964.4990, 19363.00
965.6170, 19322.00
966.7350, 19421.00
967.8530, 19299.00
968.9710, 19353.00
970.0890, 19479.00
971.2070, 19249.00
972.3240, 19552.00
973.4410, 19601.00
974.5580, 19683.00
975.6750, 19604.00
976.7920, 19680.00
977.9090, 19741.00
979.0250, 19912.00
980.1410, 20050.00
981.2580, 20003.00
982.3740, 20157.00
983.4890, 20196.00
984.6050, 20374.00
985.7200, 20418.00
986.8360, 20414.00
987.9510, 20444.00
989.0660, 20909.00
990.1810, 21353.00
991.2950, 21270.00
992.4100, 21619.00
993.5240, 21858.00
994.6390, 22161.00
995.7530, 22452.00
996.8660, 22449.00
997.9800, 22795.00
999.0940, 23011.00
1000.207, 23141.00
1001.320, 22851.00
1002.433, 23054.00
1003.546, 22634.00
1004.659, 22658.00
1005.772, 22485.00
1006.884, 22280.00
1007.996, 21979.00
1009.108, 21963.00
1010.220, 21934.00
1011.332, 21680.00
1012.444, 21437.00
1013.555, 21393.00
1014.666, 21251.00
1015.777, 21340.00
1016.888, 21122.00
1017.999, 21363.00
1019.110, 21174.00
1020.220, 20965.00
1021.331, 20864.00
1022.441, 21064.00
1023.551, 20868.00
1024.661, 20918.69
1025.770, 20906.00
1026.880, 20874.00
1027.989, 20911.00
1029.098, 20859.00
1030.207, 20796.00
1031.316, 20753.00
1032.425, 20722.00
1033.533, 20725.54
1034.642, 20815.00
1035.750, 20779.00
1036.858, 20844.00
1037.966, 20901.00
1039.073, 20920.79
1040.181, 20999.74
1041.288, 21020.00
1042.396, 21145.00
1043.503, 21222.00
1044.610, 21327.06
1045.716, 21180.00
1046.823, 21528.00
1047.929, 21474.00
1049.036, 21579.00
1050.142, 21790.00
1051.248, 22011.00
1052.353, 22143.00
1053.459, 22259.00
1054.564, 22613.00
1055.670, 22817.00
1056.775, 22984.00
1057.880, 23394.00
1058.985, 23649.00
1060.089, 24104.00
1061.194, 24608.00
1062.298, 24645.00
1063.402, 25236.00
1064.506, 25571.00
1065.610, 25785.00
1066.713, 25988.00
1067.817, 26110.00
1068.920, 26213.23
1070.023, 26144.00
1071.126, 26290.00
1072.229, 26148.00
1073.332, 26090.00
1074.435, 25835.00
1075.537, 25630.00
1076.639, 25457.00
1077.741, 25083.00
1078.843, 24701.00
1079.945, 24780.00
1081.046, 24452.00
1082.148, 24409.00
1083.249, 23986.00
1084.350, 23936.00
1085.451, 23677.00
1086.551, 23391.00
1087.652, 23406.00
1088.752, 23181.00
1089.853, 23105.00
1090.953, 22906.00
1092.053, 22761.00
1093.152, 22830.00
1094.252, 22712.00
1095.351, 22982.00
1096.451, 22742.00
1097.550, 22769.00
1098.649, 22663.00
1099.748, 22609.00
1100.846, 22525.00
1101.945, 22453.00
1103.043, 22575.00
1104.141, 22481.00
1105.239, 22625.00
1106.337, 22652.00
1107.434, 22535.00
1108.532, 22525.00
1109.629, 22649.00
1110.726, 22460.00
1111.823, 22482.00
1112.920, 22665.00
1114.017, 22674.00
1115.113, 22546.00
1116.210, 22694.00
1117.306, 22558.00
1118.402, 22515.00
1119.498, 22489.00
1120.593, 22486.00
1121.689, 22585.00
1122.784, 22829.00
1123.879, 22652.00
1124.974, 22601.00
1126.069, 22789.00
1127.164, 22562.00
1128.259, 22802.00
1129.353, 22805.00
1130.447, 22619.00
1131.541, 22762.00
1132.635, 22896.00
1133.729, 22817.00
1134.822, 22926.00
1135.916, 22915.00
1137.009, 22924.21
1138.102, 22955.38
1139.195, 22968.00
1140.288, 22923.00
1141.380, 22970.00
1142.473, 22870.98
1143.565, 22834.22
1144.657, 22866.00
1145.749, 22765.00
1146.841, 22872.00
1147.932, 23007.00
1149.024, 22875.00
1150.115, 22923.00
1151.206, 22922.00
1152.297, 22767.00
1153.388, 22835.00
1154.479, 22731.00
1155.569, 22656.72
1156.659, 22546.00
1157.750, 22498.00
1158.839, 22426.00
1159.929, 22357.00
1161.019, 22484.00
1162.108, 22709.00
1163.198, 22539.00
1164.287, 22456.00
1165.376, 22634.00
1166.465, 22404.00
1167.553, 22526.00
1168.642, 22713.00
1169.730, 22796.00
1170.818, 22507.00
1171.906, 22966.00
1172.994, 22738.00
1174.082, 22786.00
1175.170, 23038.00
1176.257, 22884.00
1177.344, 23115.00
1178.431, 23159.00
1179.518, 23096.00
1180.605, 23094.00
1181.691, 23029.00
1182.778, 23203.00
1183.864, 23343.00
1184.950, 23012.00
1186.036, 23196.00
1187.122, 23360.00
1188.207, 23286.00
1189.292, 23370.00
1190.378, 23374.00
1191.463, 23481.00
1192.548, 23373.00
1193.632, 23297.00
1194.717, 23546.00
1195.801, 23590.00
1196.886, 23467.00
1197.970, 23343.00
1199.054, 23606.00
1200.137, 23504.00
1201.221, 23822.00
1202.305, 23492.00
1203.388, 23454.00
1204.471, 23483.00
1205.554, 23710.00
1206.637, 23654.67
1207.719, 23660.00
1208.802, 23611.00
1209.884, 23593.60
1210.966, 23593.00
1212.048, 23627.00
1213.130, 23589.00
1214.212, 23762.00
1215.293, 23686.00
1216.374, 23913.00
1217.456, 23864.00
1218.536, 23784.00
1219.617, 23959.00
1220.698, 24016.00
1221.778, 24024.00
1222.859, 23908.00
1223.939, 24006.14
1225.019, 24208.00
1226.099, 24046.00
1227.178, 24016.00
1228.258, 23912.00
1229.337, 24089.00
1230.417, 23959.00
1231.496, 23761.00
1232.574, 23754.00
1233.653, 23517.00
1234.732, 23609.00
1235.810, 23462.00
1236.888, 23482.00
1237.966, 23372.00
1239.044, 23398.00
1240.122, 23242.00
1241.199, 23098.00
1242.277, 23331.00
1243.354, 23136.00
1244.431, 23082.00
1245.508, 22810.00
1246.585, 23201.00
1247.661, 23179.00
1248.738, 23170.00
1249.814, 23029.00
1250.890, 23092.00
1251.966, 23084.00
1253.042, 22982.00
1254.117, 22922.00
1255.193, 22891.00
1256.268, 22847.29
1257.343, 22975.00
1258.418, 22829.00
1259.493, 22977.00
1260.567, 23015.00
1261.642, 22897.00
1262.716, 22922.00
1263.790, 22837.00
1264.864, 22852.00
1265.938, 22993.00
1267.011, 22921.00
1268.085, 22935.00
1269.158, 22809.00
1270.231, 23035.00
1271.304, 22975.00
1272.377, 22864.00
1273.450, 23063.00
1274.522, 23113.00
1275.594, 23222.00
1276.666, 23244.00
1277.738, 23084.00
1278.810, 23041.00
1279.882, 22934.00
1280.953, 22898.77
1282.025, 23136.00
1283.096, 22889.00
1284.167, 23081.00
1285.238, 23154.00
1286.308, 23122.00
1287.379, 23007.00
1288.449, 23129.00
1289.519, 23419.00
1290.589, 23165.00
1291.659, 23265.00
1292.729, 23185.00
1293.798, 23217.00
1294.868, 23337.00
1295.937, 23211.00
1297.006, 23252.00
1298.075, 23127.00
1299.143, 23275.00
1300.212, 23339.00
1301.280, 23293.00
1302.348, 23238.00
1303.416, 23238.00
1304.484, 23411.00
1305.552, 23260.00
1306.620, 23359.00
1307.687, 23309.00
1308.754, 23157.00
1309.821, 23300.00
1310.888, 23270.00
1311.955, 23266.00
1313.021, 23305.00
1314.088, 23384.00
1315.154, 23381.00
1316.220, 23536.00
1317.286, 23371.00
1318.352, 23380.00
1319.417, 23354.00
1320.483, 23433.00
1321.548, 23457.00
1322.613, 23502.00
1323.678, 23599.00
1324.743, 23637.00
1325.807, 23494.00
1326.872, 23653.00
1327.936, 23646.00
1329.000, 23498.00
1330.064, 23711.00
1331.128, 23480.00
1332.191, 23509.00
1333.255, 23512.00
1334.318, 23557.00
1335.381, 23673.00
1336.444, 23368.00
1337.507, 23593.00
1338.569, 23489.00
1339.632, 23703.00
1340.694, 23717.00
1341.756, 23662.00
1342.818, 23773.00
1343.880, 23600.00
1344.941, 23600.00
1346.003, 23764.00
1347.064, 23637.00
1348.125, 23692.81
1349.186, 23768.00
1350.247, 23689.00
1351.308, 23790.00
1352.368, 23836.00
1353.428, 23821.00
1354.489, 23953.00
1355.549, 23772.00
1356.608, 23850.00
1357.668, 23894.00
1358.727, 23792.00
1359.787, 23967.00
1360.846, 24083.00
1361.905, 23734.00
1362.964, 24118.00
1364.022, 24088.00
1365.081, 23856.00
1366.139, 23928.00
1367.197, 24004.00
1368.255, 24177.00
1369.313, 23889.00
1370.371, 24031.00
1371.428, 23911.00
1372.486, 23994.00
1373.543, 23979.00
1374.600, 24162.00
1375.657, 24122.00
1376.713, 23941.00
1377.770, 24113.00
1378.826, 24191.00
1379.882, 24229.00
1380.938, 23947.00
1381.994, 24346.00
1383.050, 24246.00
1384.106, 24327.00
1385.161, 24538.00
1386.216, 24585.00
1387.271, 24348.00
1388.326, 24300.00
1389.381, 24101.00
1390.435, 24283.00
1391.490, 24235.00
1392.544, 24167.00
1393.598, 24361.00
1394.652, 24440.00
1395.705, 24253.00
1396.759, 24347.00
1397.812, 24369.00
1398.866, 24173.00
1399.919, 24324.00
1400.972, 24222.00
1402.024, 24390.00
1403.077, 24439.00
1404.129, 24363.00
1405.181, 24420.00
1406.233, 24230.00
1407.285, 24513.00
1408.337, 24127.00
1409.389, 24583.00
1410.440, 24379.00
1411.491, 24497.00
1412.542, 24481.00
1413.593, 24664.00
1414.644, 24363.00
1415.695, 24524.00
1416.745, 24459.00
1417.795, 24439.00
1418.845, 24232.00
1419.895, 24540.00
1420.945, 24606.00
1421.995, 24375.00
1423.044, 24426.00
1424.093, 24372.00
1425.142, 24579.00
1426.191, 24495.00
1427.240, 24715.00
1428.289, 24872.00
1429.337, 24566.00
1430.385, 24621.00
1431.433, 24527.00
1432.481, 24731.00
1433.529, 24879.00
1434.577, 24746.00
1435.624, 24848.00
1436.672, 24875.00
1437.719, 24932.00
1438.766, 24892.00
1439.812, 24995.00
1440.859, 25014.00
1441.905, 25069.00
1442.952, 24979.00
1443.998, 25075.75
1445.044, 25149.00
1446.090, 25157.00
1447.135, 25336.00
1448.181, 25302.00
1449.226, 25239.00
1450.271, 25457.00
1451.316, 25271.00
1452.361, 25008.00
1453.405, 25224.00
1454.450, 25419.00
1455.494, 25484.00
1456.538, 25356.00
1457.582, 25478.00
1458.626, 25364.00
1459.670, 25467.00
1460.713, 25500.00
1461.757, 25437.00
1462.800, 25491.91
1463.843, 25358.00
1464.886, 25487.00
1465.928, 25272.00
1466.971, 25246.00
1468.013, 25452.00
1469.055, 25270.00
1470.097, 25397.00
1471.139, 25437.00
1472.181, 25326.00
1473.222, 25401.00
1474.263, 25510.00
1475.305, 25371.00
1476.346, 25577.00
1477.386, 25586.00
1478.427, 25641.00
1479.468, 25481.00
1480.508, 25556.00
1481.548, 25568.00
1482.588, 25791.00
1483.628, 25289.00
1484.668, 25499.00
1485.707, 25468.00
1486.747, 25686.00
1487.786, 25574.00
1488.825, 25795.00
1489.864, 25506.00
1490.902, 25880.00
1491.941, 25642.00
1492.979, 25642.00
1494.017, 25719.00
1495.055, 25718.00
1496.093, 25683.00
1497.131, 25775.00
1498.168, 25650.00
1499.206, 25621.00
1500.243, 25738.00
1501.280, 25952.00
1502.317, 25913.00
1503.354, 25997.72
1504.390, 25997.93
1505.426, 25998.00
1506.463, 25905.00
1507.499, 25867.00
1508.535, 25764.00
1509.570, 26099.00
1510.606, 25794.00
1511.641, 26131.00
1512.676, 25963.00
1513.711, 25903.00
1514.746, 25971.00
1515.781, 25974.00
1516.816, 26088.00
1517.850, 26100.00
1518.884, 26061.00
1519.918, 26277.00
1520.952, 26180.00
1521.986, 26158.00
1523.019, 26297.00
1524.053, 26186.00
1525.086, 26321.00
1526.119, 26221.00
1527.152, 26183.00
1528.185, 26248.00
1529.217, 26256.00
1530.250, 26271.42
1531.282, 26314.04
1532.314, 26363.00
1533.346, 26315.00
1534.377, 26455.00
1535.409, 26335.00
1536.440, 26308.00
1537.472, 26428.00
1538.503, 26761.00
1539.534, 26409.00
1540.564, 26539.00
1541.595, 26649.00
1542.625, 26344.00
1543.656, 26593.00
1544.686, 26480.00
1545.716, 26386.00
1546.745, 26546.00
1547.775, 26528.00
1548.804, 26578.00
1549.834, 26493.00
1550.863, 26614.00
1551.892, 26771.00
1552.920, 26749.00
1553.949, 26806.00
1554.977, 26875.00
1556.006, 26871.84
1557.034, 26868.00
1558.062, 26842.00
1559.089, 26880.00
1560.117, 26717.00
1561.144, 26758.00
1562.172, 26744.00
1563.199, 26898.00
1564.226, 26724.00
1565.252, 26917.00
1566.279, 26744.00
1567.305, 26907.00
1568.332, 26740.00
1569.358, 27107.00
1570.384, 26963.00
##END=



