##NAMES=Beryl
##RRUFFID=R060943
##IDEAL CHEMISTRY=Be_3_Al_2_Si_6_O_18_
##LOCALITY=Xinjiang, China
##OWNER=RRUFF
##SOURCE=Lawrence W. Snee
##DESCRIPTION=Green hexagonal prisms, variety emerald
##STATUS=The identification of this mineral has been confirmed by X-ray diffraction and chemical analysis
##URL=rruff.info/R060943
##MEASURED CHEMISTRY=(Be_2.96_Li_0.04_)_Σ=3_(Al_1.64_Mg_0.21_V^3+^_0.06_Fe^3+^_0.04_Sc^3+^_0.03_Cr^3+^_0.02_)_Σ=2_Si_6.00_O_18_·Na_0.25_
##PIN_ID=L01186
##ORIENTATION=Laser parallel to -c* (0 0 -1). Fiducial mark perpendicular to laser is parallel to a [1 0 0]
167.3340, 9107.000
168.5670, 9086.000
169.8000, 9205.000
171.0320, 9198.000
172.2650, 9181.000
173.4970, 9035.000
174.7290, 9232.000
175.9610, 9126.000
177.1930, 9260.000
178.4240, 9313.000
179.6550, 9380.000
180.8870, 9335.000
182.1170, 9385.108
183.3480, 9293.000
184.5790, 9436.000
185.8090, 9406.000
187.0390, 9489.000
188.2690, 9595.978
189.4990, 9682.377
190.7290, 9793.000
191.9580, 9903.000
193.1870, 9959.000
194.4160, 9964.000
195.6450, 9886.000
196.8740, 9817.000
198.1020, 9765.000
199.3310, 9976.000
200.5590, 9958.000
201.7870, 10145.00
203.0140, 9834.000
204.2420, 9542.000
205.4690, 9381.000
206.6960, 9135.000
207.9230, 9088.000
209.1500, 9137.000
210.3760, 9305.000
211.6030, 9116.000
212.8290, 9085.000
214.0550, 9161.000
215.2810, 9152.000
216.5060, 9152.000
217.7320, 9183.000
218.9570, 9225.000
220.1820, 9193.000
221.4070, 9265.000
222.6320, 9220.000
223.8560, 9241.000
225.0800, 9343.000
226.3040, 9322.000
227.5280, 9223.000
228.7520, 9228.000
229.9760, 9349.000
231.1990, 9358.000
232.4220, 9509.000
233.6450, 9445.000
234.8680, 9298.000
236.0910, 9380.000
237.3130, 9470.000
238.5350, 9562.000
239.7570, 9595.000
240.9790, 9674.000
242.2010, 9754.000
243.4220, 9696.000
244.6430, 9675.000
245.8640, 9858.000
247.0850, 9955.000
248.3060, 10044.00
249.5270, 9854.000
250.7470, 9749.000
251.9670, 9688.000
253.1870, 9384.000
254.4070, 9201.000
255.6260, 8937.000
256.8460, 8860.000
258.0650, 9118.000
259.2840, 8838.306
260.5030, 9253.000
261.7220, 8717.000
262.9400, 8427.000
264.1580, 8602.000
265.3760, 8633.000
266.5940, 8693.000
267.8120, 8673.000
269.0290, 8690.072
270.2470, 8698.109
271.4640, 8669.000
272.6810, 8686.000
273.8980, 8668.000
275.1140, 8640.415
276.3310, 8689.000
277.5470, 8698.000
278.7630, 8724.000
279.9790, 8799.000
281.1940, 8919.000
282.4100, 8805.000
283.6250, 8892.000
284.8400, 8983.000
286.0550, 8904.000
287.2700, 9002.000
288.4850, 9179.000
289.6990, 9195.000
290.9130, 9218.000
292.1270, 9265.888
293.3410, 9219.000
294.5540, 9211.000
295.7680, 9160.000
296.9810, 9186.912
298.1940, 9160.000
299.4070, 9188.809
300.6200, 9222.000
301.8320, 9293.000
303.0450, 9377.000
304.2570, 9506.000
305.4690, 9468.000
306.6800, 9786.000
307.8920, 9843.000
309.1030, 10131.00
310.3150, 10385.00
311.5260, 10730.00
312.7360, 11041.00
313.9470, 11573.00
315.1580, 12356.00
316.3680, 13045.00
317.5780, 13913.00
318.7880, 14942.00
319.9980, 16257.00
321.2070, 17440.00
322.4170, 18535.00
323.6260, 19271.00
324.8350, 18876.00
326.0430, 17413.00
327.2520, 15420.00
328.4610, 13335.00
329.6690, 11862.00
330.8770, 10760.00
332.0850, 9985.000
333.2920, 9380.000
334.5000, 9153.000
335.7070, 8860.000
336.9140, 8780.000
338.1210, 8620.000
339.3280, 8571.000
340.5350, 8488.000
341.7410, 8465.000
342.9470, 8471.000
344.1540, 8333.000
345.3590, 8389.000
346.5650, 8342.000
347.7710, 8395.000
348.9760, 8405.000
350.1810, 8322.000
351.3860, 8313.000
352.5910, 8336.000
353.7950, 8304.000
355.0000, 8257.000
356.2040, 8318.000
357.4080, 8234.000
358.6120, 8351.000
359.8150, 8399.000
361.0190, 8373.000
362.2220, 8345.000
363.4250, 8452.000
364.6280, 8350.000
365.8310, 8359.000
367.0340, 8382.000
368.2360, 8511.000
369.4380, 8426.000
370.6400, 8556.000
371.8420, 8599.000
373.0440, 8637.000
374.2450, 8697.000
375.4470, 8728.000
376.6480, 8836.322
377.8490, 9035.000
379.0490, 9089.000
380.2500, 9273.000
381.4500, 9471.000
382.6510, 9530.000
383.8510, 9769.000
385.0500, 9970.000
386.2500, 10227.00
387.4500, 10523.00
388.6490, 10764.00
389.8480, 11332.00
391.0470, 11810.00
392.2460, 12115.00
393.4440, 12813.00
394.6430, 13312.00
395.8410, 13762.00
397.0390, 13883.00
398.2370, 13761.00
399.4340, 13446.00
400.6320, 12572.00
401.8290, 11757.00
403.0260, 10981.00
404.2230, 10545.00
405.4200, 10028.02
406.6170, 9704.961
407.8130, 9472.000
409.0090, 9251.000
410.2050, 9272.000
411.4010, 9059.000
412.5970, 9111.000
413.7920, 8922.000
414.9880, 9133.000
416.1830, 9078.000
417.3780, 8961.000
418.5730, 8879.000
419.7670, 9012.000
420.9620, 8890.000
422.1560, 8878.000
423.3500, 8928.000
424.5440, 8900.000
425.7380, 8917.000
426.9310, 8963.062
428.1240, 8907.000
429.3180, 9036.000
430.5110, 9162.000
431.7030, 9164.000
432.8960, 9243.051
434.0890, 9308.000
435.2810, 9326.000
436.4730, 9580.000
437.6650, 9706.000
438.8570, 9674.000
440.0480, 9840.000
441.2390, 9870.000
442.4310, 9990.000
443.6220, 9865.000
444.8120, 9714.970
446.0030, 9842.000
447.1940, 9274.000
448.3840, 9267.000
449.5740, 9171.000
450.7640, 9038.000
451.9540, 9111.000
453.1430, 8916.000
454.3330, 8979.000
455.5220, 8978.000
456.7110, 8950.000
457.9000, 8909.000
459.0890, 8898.000
460.2770, 8832.000
461.4650, 8827.000
462.6540, 8874.000
463.8420, 8903.000
465.0290, 8831.000
466.2170, 8820.000
467.4050, 8917.000
468.5920, 8979.000
469.7790, 8766.000
470.9660, 8739.904
472.1530, 8859.623
473.3390, 8930.902
474.5250, 8956.353
475.7120, 8798.718
476.8980, 8877.501
478.0840, 8861.536
479.2690, 8841.678
480.4550, 8953.736
481.6400, 8822.717
482.8250, 8846.000
484.0100, 8891.000
485.1950, 8923.000
486.3800, 8870.000
487.5640, 8911.559
488.7480, 9006.000
489.9320, 8920.000
491.1160, 8958.000
492.3000, 8953.000
493.4840, 8926.000
494.6670, 8950.000
495.8500, 8970.000
497.0330, 8993.420
498.2160, 9041.807
499.3990, 9087.000
500.5810, 9153.000
501.7630, 9236.000
502.9460, 9310.000
504.1280, 9357.715
505.3090, 9419.000
506.4910, 9467.000
507.6720, 9484.000
508.8540, 9575.000
510.0350, 9497.000
511.2160, 9773.000
512.3960, 9922.000
513.5770, 9944.000
514.7570, 10170.00
515.9380, 10519.00
517.1180, 10720.00
518.2970, 10996.00
519.4770, 11040.00
520.6570, 11408.00
521.8360, 11503.00
523.0150, 11534.00
524.1940, 11494.00
525.3730, 11467.00
526.5510, 11265.00
527.7300, 10772.00
528.9080, 10663.00
530.0860, 10371.00
531.2640, 10017.00
532.4420, 9835.000
533.6200, 9580.000
534.7970, 9315.000
535.9740, 9226.000
537.1510, 9303.000
538.3280, 8962.000
539.5050, 8846.000
540.6810, 8943.000
541.8580, 8777.000
543.0340, 8738.000
544.2100, 8757.000
545.3860, 8744.000
546.5610, 8636.000
547.7370, 8666.000
548.9120, 8722.000
550.0870, 8695.000
551.2620, 8531.000
552.4370, 8630.000
553.6120, 8613.000
554.7860, 8584.000
555.9600, 8630.000
557.1340, 8718.000
558.3080, 8680.000
559.4820, 8769.000
560.6560, 8763.000
561.8290, 8750.000
563.0020, 8846.000
564.1750, 8813.000
565.3480, 8869.000
566.5210, 8790.000
567.6930, 8877.000
568.8660, 9001.000
570.0380, 9034.000
571.2100, 8938.000
572.3820, 9139.000
573.5530, 9056.000
574.7250, 9021.000
575.8960, 9163.000
577.0670, 9144.000
578.2380, 9172.000
579.4090, 9193.000
580.5800, 9214.000
581.7500, 9247.614
582.9210, 9279.000
584.0910, 9304.000
585.2610, 9300.000
586.4300, 9305.000
587.6000, 9218.000
588.7690, 9280.000
589.9390, 9281.000
591.1080, 9207.000
592.2770, 9107.000
593.4450, 9177.573
594.6140, 9322.000
595.7820, 9270.000
596.9500, 9244.000
598.1190, 9249.000
599.2860, 9274.329
600.4540, 9369.000
601.6220, 9373.000
602.7890, 9365.000
603.9560, 9398.000
605.1230, 9244.000
606.2900, 9376.000
607.4570, 9499.000
608.6230, 9548.000
609.7890, 9791.000
610.9560, 9858.000
612.1220, 9846.000
613.2870, 10096.00
614.4530, 10166.00
615.6180, 10425.00
616.7840, 10659.00
617.9490, 10635.00
619.1140, 10694.00
620.2790, 10348.00
621.4430, 10197.00
622.6080, 10179.00
623.7720, 9951.000
624.9360, 9824.000
626.1000, 9532.000
627.2640, 9504.000
628.4270, 9350.000
629.5910, 9331.000
630.7540, 9361.000
631.9170, 9306.000
633.0800, 9432.000
634.2430, 9305.000
635.4050, 9373.000
636.5680, 9415.000
637.7300, 9364.000
638.8920, 9293.000
640.0540, 9379.000
641.2150, 9397.000
642.3770, 9467.000
643.5380, 9441.000
644.7000, 9428.000
645.8610, 9356.000
647.0210, 9430.000
648.1820, 9406.417
649.3430, 9494.000
650.5030, 9492.000
651.6630, 9454.000
652.8230, 9603.000
653.9830, 9561.000
655.1430, 9784.000
656.3020, 9832.000
657.4620, 9915.000
658.6210, 10070.00
659.7800, 10210.00
660.9390, 10252.00
662.0970, 10603.00
663.2560, 10715.00
664.4140, 10923.00
665.5720, 11371.00
666.7300, 11743.00
667.8880, 12199.00
669.0460, 12739.00
670.2030, 13304.00
671.3600, 14164.00
672.5180, 15187.00
673.6740, 16565.00
674.8310, 18564.00
675.9880, 20754.00
677.1440, 23933.00
678.3010, 27618.00
679.4570, 31988.00
680.6130, 36941.00
681.7690, 42438.00
682.9240, 48630.00
684.0800, 54158.00
685.2350, 57961.00
686.3900, 57568.00
687.5450, 53960.00
688.7000, 47377.00
689.8540, 39765.00
691.0090, 33286.00
692.1630, 27715.00
693.3170, 23597.00
694.4710, 20674.00
695.6250, 18362.00
696.7780, 16771.00
697.9320, 15573.00
699.0850, 14676.00
700.2380, 13905.00
701.3910, 13228.00
702.5440, 12639.00
703.6970, 12196.00
704.8490, 11817.00
706.0010, 11560.00
707.1530, 11330.00
708.3050, 11050.00
709.4570, 10904.14
710.6090, 10701.30
711.7600, 10618.00
712.9110, 10438.00
714.0620, 10299.00
715.2130, 10291.00
716.3640, 10077.00
717.5150, 10102.00
718.6650, 10053.00
719.8150, 9983.000
720.9650, 9907.000
722.1150, 9830.000
723.2650, 9783.187
724.4150, 9692.000
725.5640, 9651.000
726.7130, 9586.000
727.8630, 9430.000
729.0110, 9430.000
730.1600, 9371.000
731.3090, 9500.000
732.4570, 9276.000
733.6060, 9495.000
734.7540, 9357.000
735.9020, 9258.000
737.0490, 9328.000
738.1970, 9357.000
739.3440, 9349.000
740.4920, 9273.000
741.6390, 9326.000
742.7860, 9258.000
743.9320, 9197.000
745.0790, 9352.000
746.2250, 9454.000
747.3720, 9307.000
748.5180, 9300.000
749.6640, 9283.000
750.8100, 9328.000
751.9550, 9339.000
753.1010, 9377.000
754.2460, 9523.000
755.3910, 9508.944
756.5360, 9598.000
757.6810, 9557.000
758.8250, 9649.000
759.9700, 9660.000
761.1140, 9713.000
762.2580, 9657.000
763.4020, 9821.000
764.5460, 9728.000
765.6900, 9872.000
766.8330, 9857.000
767.9760, 9704.000
769.1200, 9808.000
770.2620, 9700.000
771.4050, 9740.000
772.5480, 9739.000
773.6900, 9899.000
774.8330, 9723.000
775.9750, 9773.000
777.1170, 9689.000
778.2590, 9592.000
779.4000, 9696.000
780.5420, 9583.000
781.6830, 9695.000
782.8240, 9428.000
783.9650, 9452.000
785.1060, 9414.000
786.2470, 9406.000
787.3870, 9424.478
788.5280, 9437.000
789.6680, 9444.000
790.8080, 9451.000
791.9480, 9433.000
793.0870, 9332.000
794.2270, 9458.000
795.3660, 9366.000
796.5060, 9477.000
797.6450, 9393.000
798.7830, 9449.000
799.9220, 9349.000
801.0610, 9418.000
802.1990, 9444.000
803.3370, 9348.000
804.4750, 9410.000
805.6130, 9414.000
806.7510, 9383.000
807.8890, 9336.000
809.0260, 9403.000
810.1630, 9414.000
811.3000, 9415.000
812.4370, 9412.601
813.5740, 9424.000
814.7110, 9366.000
815.8470, 9325.000
816.9830, 9314.000
818.1190, 9366.000
819.2550, 9330.000
820.3910, 9452.000
821.5270, 9332.000
822.6620, 9253.000
823.7970, 9301.000
824.9330, 9309.000
826.0670, 9271.000
827.2020, 9424.000
828.3370, 9480.000
829.4710, 9327.000
830.6060, 9405.000
831.7400, 9471.000
832.8740, 9348.000
834.0080, 9378.000
835.1410, 9401.000
836.2750, 9492.000
837.4080, 9503.519
838.5410, 9395.000
839.6740, 9549.000
840.8070, 9508.000
841.9400, 9481.000
843.0730, 9567.000
844.2050, 9612.000
845.3370, 9476.000
846.4690, 9546.000
847.6010, 9573.000
848.7330, 9468.000
849.8640, 9632.000
850.9960, 9516.000
852.1270, 9453.000
853.2580, 9641.000
854.3890, 9585.000
855.5200, 9503.000
856.6500, 9584.000
857.7810, 9652.000
858.9110, 9610.000
860.0410, 9663.000
861.1710, 9634.000
862.3010, 9576.000
863.4310, 9478.000
864.5600, 9617.000
865.6900, 9630.000
866.8190, 9651.000
867.9480, 9512.000
869.0770, 9724.000
870.2050, 9718.000
871.3340, 9468.000
872.4620, 9626.000
873.5900, 9601.000
874.7180, 9605.000
875.8460, 9704.000
876.9740, 9778.000
878.1010, 9646.000
879.2290, 9721.000
880.3560, 9829.000
881.4830, 9681.000
882.6100, 9687.000
883.7370, 9803.000
884.8630, 9764.000
885.9900, 9858.000
887.1160, 9838.000
888.2420, 9821.000
889.3680, 9863.000
890.4940, 9773.000
891.6200, 9796.000
892.7450, 9881.000
893.8700, 9807.000
894.9960, 9974.000
896.1210, 9965.000
897.2460, 9969.000
898.3700, 10102.00
899.4950, 10074.00
900.6190, 10110.00
901.7430, 10126.00
902.8670, 10093.00
903.9910, 10292.00
905.1150, 10268.00
906.2390, 10426.00
907.3620, 10734.00
908.4850, 10905.00
909.6080, 11022.00
910.7310, 10537.00
911.8540, 11279.00
912.9770, 10659.00
914.0990, 10627.00
915.2210, 10748.00
916.3440, 10785.00
917.4660, 10799.00
918.5870, 10857.00
919.7090, 10759.00
920.8310, 10768.00
921.9520, 10609.00
923.0730, 10686.00
924.1940, 10521.00
925.3150, 10529.00
926.4360, 10487.00
927.5560, 10455.00
928.6770, 10432.17
929.7970, 10523.00
930.9170, 10389.00
932.0370, 10357.00
933.1570, 10386.00
934.2760, 10290.00
935.3960, 10243.00
936.5150, 10281.52
937.6340, 10286.00
938.7530, 10304.00
939.8720, 10309.00
940.9910, 10229.00
942.1090, 10236.00
943.2280, 10240.00
944.3460, 10222.00
945.4640, 10279.00
946.5820, 10157.00
947.6990, 10251.00
948.8170, 10176.00
949.9340, 10073.00
951.0520, 10142.00
952.1690, 10175.00
953.2860, 10132.00
954.4030, 10202.00
955.5190, 10206.00
956.6360, 10114.00
957.7520, 10198.00
958.8680, 10185.00
959.9840, 10156.00
961.1000, 10228.00
962.2160, 10220.56
963.3310, 10394.00
964.4470, 10295.00
965.5620, 10233.00
966.6770, 10305.00
967.7920, 10170.00
968.9060, 10369.00
970.0210, 10393.00
971.1360, 10409.00
972.2500, 10541.00
973.3640, 10508.00
974.4780, 10505.00
975.5920, 10431.00
976.7050, 10487.00
977.8190, 10537.00
978.9320, 10639.00
980.0450, 10777.00
981.1580, 10721.00
982.2710, 10884.00
983.3840, 10839.00
984.4970, 10950.00
985.6090, 11063.00
986.7210, 11215.00
987.8330, 11475.00
988.9450, 11671.00
990.0570, 11818.00
991.1690, 11988.00
992.2800, 12141.00
993.3920, 12379.00
994.5030, 12517.00
995.6140, 12905.00
996.7250, 13159.00
997.8350, 13244.00
998.9460, 13587.00
1000.056, 13783.00
1001.167, 14002.00
1002.277, 14260.05
1003.387, 14295.00
1004.496, 14695.00
1005.606, 14797.00
1006.715, 14970.00
1007.825, 14802.00
1008.934, 15008.00
1010.043, 14888.97
1011.152, 15137.00
1012.260, 14707.00
1013.369, 14540.00
1014.477, 14430.00
1015.586, 14424.00
1016.694, 14108.00
1017.802, 14007.00
1018.909, 13939.00
1020.017, 13588.00
1021.124, 13540.00
1022.232, 13353.00
1023.339, 13179.00
1024.446, 13138.00
1025.553, 13153.00
1026.659, 13042.00
1027.766, 13015.00
1028.872, 13038.00
1029.979, 13021.00
1031.085, 13066.00
1032.191, 13000.00
1033.296, 13174.00
1034.402, 13172.00
1035.507, 13449.00
1036.613, 13637.00
1037.718, 13779.00
1038.823, 13974.00
1039.928, 14015.00
1041.032, 14242.00
1042.137, 14557.00
1043.241, 14929.00
1044.346, 15427.00
1045.450, 15746.00
1046.554, 16241.00
1047.657, 16893.00
1048.761, 17671.00
1049.864, 18404.00
1050.968, 19239.00
1052.071, 20384.00
1053.174, 21757.00
1054.277, 23402.00
1055.379, 25249.00
1056.482, 27239.00
1057.584, 29513.00
1058.687, 32340.00
1059.789, 34928.00
1060.891, 38135.00
1061.992, 40765.00
1063.094, 43532.00
1064.196, 45506.00
1065.297, 47271.00
1066.398, 47984.00
1067.499, 47898.00
1068.600, 46963.00
1069.701, 45698.00
1070.801, 43930.00
1071.902, 41813.00
1073.002, 39887.00
1074.102, 37637.00
1075.202, 35144.00
1076.302, 32711.00
1077.402, 30733.00
1078.501, 28706.00
1079.600, 26953.00
1080.700, 25587.00
1081.799, 24293.00
1082.898, 23038.00
1083.996, 22216.00
1085.095, 21777.00
1086.193, 21035.00
1087.292, 20062.00
1088.390, 19333.00
1089.488, 18497.00
1090.586, 17883.00
1091.683, 17324.00
1092.781, 17101.00
1093.878, 16781.00
1094.975, 16270.00
1096.073, 16009.00
1097.169, 15828.00
1098.266, 15594.74
1099.363, 15396.85
1100.459, 15462.00
1101.556, 14970.00
1102.652, 15088.00
1103.748, 14812.00
1104.844, 14611.00
1105.940, 14325.00
1107.035, 14214.00
1108.131, 14147.00
1109.226, 14009.00
1110.321, 13935.00
1111.416, 13982.00
1112.511, 13873.00
1113.605, 13711.00
1114.700, 13937.00
1115.794, 14036.00
1116.889, 13805.00
1117.983, 14087.00
1119.077, 14006.00
1120.170, 14094.00
1121.264, 14185.00
1122.357, 14379.00
1123.451, 14412.52
1124.544, 14521.00
1125.637, 14522.00
1126.730, 14490.00
1127.823, 14491.00
1128.915, 14597.00
1130.008, 14577.00
1131.100, 14518.76
1132.192, 14496.00
1133.284, 14325.00
1134.376, 14241.00
1135.467, 14118.00
1136.559, 13774.00
1137.650, 13692.00
1138.742, 13404.00
1139.833, 13269.00
1140.924, 12823.00
1142.014, 12936.00
1143.105, 12598.00
1144.195, 12582.00
1145.286, 12311.00
1146.376, 12246.00
1147.466, 11982.00
1148.556, 11877.00
1149.646, 11911.00
1150.735, 11805.00
1151.825, 11549.00
1152.914, 11590.00
1154.003, 11450.00
1155.092, 11426.00
1156.181, 11360.00
1157.270, 11277.00
1158.358, 11277.00
1159.447, 11219.22
1160.535, 11215.00
1161.623, 11240.00
1162.711, 11052.00
1163.799, 11220.00
1164.886, 11059.00
1165.974, 11105.00
1167.061, 11087.00
1168.148, 11069.00
1169.235, 10958.00
1170.322, 11021.00
1171.409, 11079.00
1172.496, 10988.00
1173.582, 11108.00
1174.669, 11028.00
1175.755, 10969.00
1176.841, 11034.00
1177.927, 10922.00
1179.012, 11106.00
1180.098, 11024.00
1181.183, 11111.00
1182.269, 10943.00
1183.354, 10998.00
1184.439, 10977.00
1185.524, 11068.00
1186.608, 10998.00
1187.693, 10936.19
1188.777, 11064.87
1189.862, 11145.14
1190.946, 11179.56
1192.030, 11030.89
1193.113, 11118.63
1194.197, 11111.63
1195.281, 11100.75
1196.364, 11221.77
1197.447, 11099.71
1198.530, 11218.63
1199.613, 11241.36
1200.696, 11308.11
1201.779, 11385.29
1202.861, 11460.00
1203.944, 11405.00
1205.026, 11459.00
1206.108, 11263.00
1207.190, 11428.00
1208.271, 11876.00
1209.353, 11484.00
1210.435, 11597.00
1211.516, 11409.00
1212.597, 12081.00
1213.678, 11738.57
1214.759, 11781.80
1215.840, 11568.00
1216.920, 11359.00
1218.001, 11520.00
1219.081, 10963.00
1220.161, 10970.00
1221.241, 11094.00
1222.321, 10921.00
1223.401, 10931.00
1224.480, 10993.00
1225.560, 11044.00
1226.639, 11077.00
1227.718, 10936.00
1228.797, 10944.00
1229.876, 10911.00
1230.955, 11028.00
1232.033, 10861.00
1233.112, 10896.00
1234.190, 10979.00
1235.268, 10975.00
1236.346, 10880.00
1237.424, 10783.00
1238.501, 10765.00
1239.579, 10860.00
1240.656, 10772.00
1241.733, 10753.00
1242.811, 10902.00
1243.888, 10860.00
1244.964, 10834.00
1246.041, 10790.00
1247.117, 10731.00
1248.194, 10847.00
1249.270, 10784.00
1250.346, 10778.00
1251.422, 10752.00
1252.498, 10747.25
1253.573, 10856.00
1254.649, 10769.00
1255.724, 10683.97
1256.800, 10800.37
1257.875, 10868.33
1258.950, 10890.46
1260.024, 10729.50
1261.099, 10804.97
1262.173, 10785.68
1263.248, 10762.51
1264.322, 10871.25
1265.396, 10736.91
1266.470, 10843.56
1267.544, 10854.01
1268.617, 10908.48
1269.691, 10867.62
1270.764, 10856.21
1271.837, 10940.15
1272.910, 10971.30
1273.983, 10864.00
1275.056, 11032.00
1276.129, 10889.00
1277.201, 10971.00
1278.273, 10805.00
1279.346, 10837.00
1280.418, 10862.00
1281.489, 10898.00
1282.561, 10892.00
1283.633, 10818.00
1284.704, 10808.00
1285.776, 10850.00
1286.847, 10831.00
1287.918, 10895.00
1288.989, 10899.63
1290.059, 10833.00
1291.130, 10942.00
1292.200, 10903.00
1293.271, 10933.00
1294.341, 10901.00
1295.411, 11081.00
1296.481, 11054.00
1297.551, 10937.00
1298.620, 11076.00
1299.690, 10952.00
1300.759, 11006.00
1301.828, 11035.00
1302.897, 10982.00
1303.966, 11090.00
1305.035, 10924.00
1306.103, 10966.00
1307.172, 10957.00
1308.240, 11060.00
1309.308, 11190.00
1310.376, 10955.00
1311.444, 10932.00
1312.512, 11082.00
1313.580, 10990.00
1314.647, 10999.00
1315.714, 11113.00
1316.781, 10971.00
1317.848, 10975.00
1318.915, 11039.00
1319.982, 10892.00
1321.049, 10941.00
1322.115, 11065.00
1323.181, 11056.00
1324.248, 11031.00
1325.314, 11046.00
1326.380, 11010.00
1327.445, 10993.00
1328.511, 10895.00
1329.576, 10953.00
1330.642, 10911.00
1331.707, 10927.00
1332.772, 11031.00
1333.837, 10854.00
1334.902, 10965.00
1335.966, 10949.00
1337.031, 11026.00
1338.095, 10984.00
1339.159, 11052.00
1340.223, 11005.00
1341.287, 11096.00
1342.351, 11032.00
1343.415, 11045.00
1344.478, 11062.00
1345.541, 11140.00
1346.605, 11043.00
1347.668, 11011.00
1348.731, 11013.00
1349.793, 11150.00
1350.856, 11038.00
1351.918, 11066.00
1352.981, 11121.00
1354.043, 11083.00
1355.105, 11094.00
1356.167, 11063.00
1357.229, 11110.00
1358.290, 11038.00
1359.352, 11150.00
1360.413, 11131.00
1361.475, 10997.00
1362.536, 11117.00
1363.597, 11000.00
1364.657, 11114.00
1365.718, 11093.00
1366.779, 11128.00
1367.839, 11115.00
1368.899, 11115.81
1369.959, 11148.00
1371.019, 11091.00
1372.079, 11128.00
1373.139, 11077.00
1374.198, 11046.00
1375.258, 11069.00
1376.317, 11069.88
1377.376, 11062.01
1378.435, 11164.00
1379.494, 11179.00
1380.553, 11291.00
1381.611, 11618.00
1382.670, 11727.00
1383.728, 11962.00
1384.786, 12143.00
1385.844, 11934.00
1386.902, 11616.00
1387.960, 11445.00
1389.017, 11318.00
1390.075, 11234.00
1391.132, 11060.00
1392.189, 11069.87
1393.246, 11273.00
1394.303, 11102.00
1395.360, 11165.00
1396.417, 11243.00
1397.473, 11202.00
1398.529, 11138.00
1399.585, 11188.00
1400.642, 11168.91
1401.697, 11154.00
1402.753, 11231.00
1403.809, 11151.00
1404.864, 11216.00
1405.920, 11203.00
1406.975, 11123.00
1408.030, 11388.00
1409.085, 11222.00
1410.140, 11444.00
1411.194, 11282.00
1412.249, 11200.00
1413.303, 11183.00
1414.358, 11205.00
1415.412, 11228.00
1416.466, 11148.00
1417.520, 11287.00
1418.573, 11209.00
1419.627, 11150.00
1420.680, 11124.00
1421.733, 11220.00
1422.787, 11195.00
1423.840, 11231.49
1424.892, 11347.00
1425.945, 11282.00
1426.998, 11402.00
1428.050, 11437.00
1429.103, 11306.00
1430.155, 11481.00
1431.207, 11495.00
1432.259, 11589.00
1433.310, 11388.00
1434.362, 11602.00
1435.414, 11580.00
1436.465, 11503.00
1437.516, 11642.00
1438.567, 11607.00
1439.618, 11711.00
1440.669, 11593.00
1441.720, 11605.00
1442.770, 11746.00
1443.820, 11573.00
1444.871, 11647.00
1445.921, 11697.00
1446.971, 11535.00
1448.021, 11625.00
1449.070, 11627.00
1450.120, 11674.00
1451.169, 11553.00
1452.219, 11637.00
1453.268, 11652.00
1454.317, 11699.00
1455.366, 11748.00
1456.414, 11602.00
1457.463, 11697.00
1458.511, 11527.00
1459.560, 11445.00
1460.608, 11433.00
1461.656, 11561.00
1462.704, 11636.00
1463.752, 11608.00
1464.799, 11598.00
1465.847, 11470.00
1466.894, 11598.00
1467.941, 11473.00
1468.988, 11549.00
1470.035, 11463.00
1471.082, 11480.00
1472.129, 11415.00
1473.175, 11469.00
1474.222, 11528.00
1475.268, 11426.00
1476.314, 11404.00
1477.360, 11510.00
1478.406, 11337.00
1479.452, 11606.00
1480.498, 11310.00
1481.543, 11380.00
1482.588, 11500.00
1483.633, 11440.00
1484.679, 11431.00
1485.723, 11424.00
1486.768, 11384.83
1487.813, 11402.92
1488.857, 11405.00
1489.902, 11375.00
1490.946, 11536.00
1491.990, 11432.00
1493.034, 11323.00
1494.078, 11600.00
1495.122, 11408.00
1496.165, 11487.00
1497.209, 11581.00
1498.252, 11444.00
1499.295, 11336.00
1500.338, 11450.00
1501.381, 11469.00
1502.424, 11402.00
1503.466, 11464.00
1504.509, 11555.00
1505.551, 11417.00
1506.593, 11417.00
1507.635, 11471.00
1508.677, 11453.00
1509.719, 11553.00
1510.761, 11558.00
1511.802, 11470.00
1512.844, 11564.00
1513.885, 11500.00
1514.926, 11416.00
1515.967, 11408.00
1517.008, 11555.00
1518.049, 11594.00
1519.089, 11537.00
1520.130, 11601.00
1521.170, 11600.00
1522.210, 11547.00
1523.250, 11546.00
1524.290, 11468.00
1525.330, 11583.00
1526.370, 11624.00
1527.409, 11593.00
1528.448, 11589.00
1529.488, 11615.00
1530.527, 11700.00
1531.566, 11703.00
1532.605, 11725.28
1533.643, 11583.00
1534.682, 11710.00
1535.720, 11596.00
1536.759, 11530.00
1537.797, 11669.00
1538.835, 11622.00
1539.873, 11713.00
1540.910, 11693.00
1541.948, 11854.00
1542.986, 11794.29
1544.023, 11785.25
1545.060, 11701.00
1546.097, 11744.00
1547.134, 11653.00
1548.171, 11763.00
1549.208, 11869.00
1550.244, 11752.00
1551.281, 11794.00
1552.317, 11741.00
1553.353, 11780.00
1554.389, 11790.57
1555.425, 11872.00
1556.461, 11805.00
1557.497, 11824.00
1558.532, 11772.00
1559.567, 11693.00
1560.603, 11681.00
1561.638, 11652.00
1562.673, 11710.00
1563.708, 11833.00
##END=



