##NAMES=Beryl
##RRUFFID=R050347
##IDEAL CHEMISTRY=Be_3_Al_2_Si_6_O_18_
##LOCALITY=North Keystone, South Dakota, USA
##OWNER=RRUFF
##SOURCE=California Institute of Technology
##DESCRIPTION=Colorless fragment
##STATUS=The identification of this mineral has been confirmed by X-ray diffraction and chemical analysis
##URL=rruff.info/R050347
##MEASURED CHEMISTRY=(Be_0.96_Li_0.04_)_3_Al_2.00_(Si_0.99_Al_0.01_)_6_O_18_ Î‡0.17Na
##PIN_ID=L00581
##ORIENTATION=Laser parallel to c* (0 0 1). Fiducial mark perpendicular to laser is parallel to b [0 1 0]
211.2690, 9279.000
212.4890, 9171.000
213.7080, 9229.000
214.9280, 9181.000
216.1470, 9200.683
217.3660, 9205.000
218.5850, 9252.000
219.8030, 9265.402
221.0220, 9350.000
222.2400, 9334.000
223.4590, 9393.000
224.6770, 9469.000
225.8950, 9454.000
227.1120, 9571.000
228.3300, 9467.000
229.5480, 9585.000
230.7650, 9573.000
231.9820, 9635.000
233.1990, 9668.000
234.4160, 9656.000
235.6330, 9626.000
236.8490, 9618.000
238.0660, 9747.000
239.2820, 9706.000
240.4980, 9828.000
241.7140, 9778.000
242.9300, 9743.000
244.1460, 9760.000
245.3610, 9760.000
246.5770, 9688.000
247.7920, 9827.000
249.0070, 9771.000
250.2220, 9905.000
251.4370, 9885.000
252.6510, 9844.000
253.8660, 9796.000
255.0800, 9719.000
256.2940, 9739.388
257.5080, 9787.000
258.7220, 9727.000
259.9360, 9756.106
261.1490, 9901.000
262.3630, 9706.000
263.5760, 9753.000
264.7890, 9642.000
266.0020, 9684.000
267.2150, 9697.000
268.4270, 9658.000
269.6400, 9704.000
270.8520, 9726.000
272.0640, 9756.410
273.2760, 9801.000
274.4880, 9854.000
275.7000, 9906.000
276.9120, 9959.000
278.1230, 10142.00
279.3340, 10085.00
280.5450, 9994.000
281.7560, 10263.00
282.9670, 10295.00
284.1780, 10372.00
285.3880, 10563.00
286.5980, 10593.00
287.8090, 10850.00
289.0190, 11091.00
290.2290, 11386.00
291.4380, 11429.00
292.6480, 11296.00
293.8570, 11082.00
295.0670, 11029.00
296.2760, 10755.00
297.4850, 10644.00
298.6930, 10738.00
299.9020, 10551.00
301.1110, 10594.00
302.3190, 10500.00
303.5270, 10719.00
304.7350, 10686.00
305.9430, 10687.00
307.1510, 10799.00
308.3580, 10783.00
309.5660, 10946.74
310.7730, 11207.00
311.9800, 11300.00
313.1870, 11571.00
314.3940, 11828.50
315.6010, 12258.00
316.8070, 12536.00
318.0130, 13064.00
319.2200, 13496.00
320.4260, 13867.00
321.6310, 14376.00
322.8370, 13982.00
324.0430, 13739.00
325.2480, 13256.00
326.4540, 12290.00
327.6590, 11578.00
328.8640, 11264.00
330.0680, 10860.00
331.2730, 10604.00
332.4780, 10485.00
333.6820, 10265.00
334.8860, 10324.00
336.0900, 10224.00
337.2940, 10241.00
338.4980, 10252.00
339.7010, 10094.00
340.9050, 10120.00
342.1080, 10307.00
343.3110, 10112.00
344.5140, 10252.00
345.7170, 10417.00
346.9200, 10232.00
348.1220, 10195.00
349.3240, 10422.00
350.5270, 10276.00
351.7290, 10449.00
352.9310, 10369.00
354.1320, 10551.00
355.3340, 10437.00
356.5350, 10496.00
357.7370, 10481.00
358.9380, 10360.00
360.1390, 10325.00
361.3400, 10472.00
362.5400, 10604.00
363.7410, 10478.00
364.9410, 10492.00
366.1410, 10446.00
367.3410, 10472.00
368.5410, 10507.00
369.7410, 10678.00
370.9400, 10666.00
372.1400, 10580.00
373.3390, 10775.00
374.5380, 10795.00
375.7370, 10912.00
376.9360, 11031.00
378.1350, 11082.00
379.3330, 11198.00
380.5310, 11353.69
381.7300, 11573.00
382.9280, 11718.00
384.1260, 11950.00
385.3230, 12188.00
386.5210, 12726.00
387.7180, 13438.00
388.9160, 14005.00
390.1130, 15139.00
391.3100, 16123.00
392.5060, 17552.00
393.7030, 19145.00
394.9000, 20550.00
396.0960, 21694.00
397.2920, 22299.00
398.4880, 21677.00
399.6840, 20694.00
400.8800, 19167.00
402.0750, 17737.00
403.2710, 16317.00
404.4660, 15307.00
405.6610, 14238.00
406.8560, 13670.00
408.0510, 13165.00
409.2450, 12972.00
410.4400, 12641.00
411.6340, 12610.00
412.8280, 12820.00
414.0220, 12929.00
415.2160, 12991.00
416.4100, 13199.00
417.6030, 13395.00
418.7970, 13723.00
419.9900, 13738.00
421.1830, 13648.00
422.3760, 13552.00
423.5690, 13141.00
424.7610, 12901.00
425.9540, 12723.00
427.1460, 12506.00
428.3380, 12150.00
429.5300, 11978.00
430.7220, 11745.00
431.9140, 11802.00
433.1050, 11829.00
434.2970, 11860.00
435.4880, 11925.00
436.6790, 12076.00
437.8700, 12138.00
439.0610, 12107.00
440.2510, 12382.00
441.4420, 12091.00
442.6320, 12230.00
443.8220, 12141.00
445.0120, 12228.00
446.2020, 12095.00
447.3910, 12036.00
448.5810, 11900.00
449.7700, 11854.76
450.9600, 11848.00
452.1490, 11751.00
453.3370, 11664.00
454.5260, 11589.23
455.7150, 11532.47
456.9030, 11478.00
458.0910, 11432.00
459.2800, 11380.00
460.4670, 11307.00
461.6550, 11261.00
462.8430, 11270.00
464.0300, 11248.17
465.2180, 11390.00
466.4050, 11291.00
467.5920, 11375.00
468.7790, 11449.00
469.9650, 11350.00
471.1520, 11338.00
472.3380, 11375.00
473.5250, 11382.00
474.7110, 11282.00
475.8970, 11407.00
477.0820, 11288.00
478.2680, 11389.00
479.4540, 11490.00
480.6390, 11418.00
481.8240, 11326.00
483.0090, 11459.00
484.1940, 11369.00
485.3780, 11323.00
486.5630, 11486.00
487.7470, 11443.00
488.9320, 11455.00
490.1160, 11465.00
491.3000, 11494.00
492.4830, 11488.00
493.6670, 11490.59
494.8500, 11388.00
496.0340, 11476.00
497.2170, 11457.00
498.4000, 11449.00
499.5820, 11566.00
500.7650, 11448.00
501.9480, 11525.00
503.1300, 11561.00
504.3120, 11562.00
505.4940, 11549.00
506.6760, 11446.00
507.8580, 11501.00
509.0390, 11460.00
510.2210, 11487.06
511.4020, 11480.00
512.5830, 11608.00
513.7640, 11669.00
514.9450, 11816.00
516.1250, 11769.00
517.3060, 11777.00
518.4860, 11938.00
519.6660, 12022.00
520.8460, 12060.00
522.0260, 12107.00
523.2060, 12236.00
524.3850, 12156.00
525.5650, 12122.00
526.7440, 12371.00
527.9230, 12178.00
529.1020, 12359.00
530.2810, 12289.00
531.4590, 12154.00
532.6380, 12248.00
533.8160, 12222.00
534.9940, 12196.00
536.1720, 12317.00
537.3500, 12145.00
538.5270, 12294.00
539.7050, 12174.00
540.8820, 12120.00
542.0590, 11992.00
543.2360, 12033.00
544.4130, 12073.00
545.5900, 12055.00
546.7660, 12163.00
547.9430, 12001.00
549.1190, 12079.00
550.2950, 12214.00
551.4710, 12163.00
552.6470, 12300.00
553.8220, 12405.00
554.9980, 12323.00
556.1730, 12489.00
557.3480, 12416.00
558.5230, 12571.00
559.6980, 12410.00
560.8730, 12736.00
562.0470, 12833.00
563.2220, 12778.00
564.3960, 12697.00
565.5700, 12740.00
566.7440, 12817.00
567.9170, 12847.00
569.0910, 12888.00
570.2640, 13064.00
571.4380, 13254.00
572.6110, 13319.00
573.7840, 13359.00
574.9570, 13377.00
576.1290, 13408.00
577.3020, 13282.00
578.4740, 13460.00
579.6460, 13442.00
580.8180, 13279.00
581.9900, 13296.00
583.1620, 13122.00
584.3330, 12913.00
585.5040, 12933.00
586.6760, 12907.00
587.8470, 12813.00
589.0180, 12542.00
590.1880, 12492.00
591.3590, 12509.00
592.5290, 12534.00
593.7000, 12502.00
594.8700, 12378.00
596.0400, 12335.00
597.2090, 12459.00
598.3790, 12311.00
599.5490, 12380.00
600.7180, 12366.00
601.8870, 12314.00
603.0560, 12333.00
604.2250, 12455.00
605.3940, 12227.00
606.5620, 12331.00
607.7300, 12360.00
608.8990, 12526.00
610.0670, 12390.00
611.2350, 12386.00
612.4020, 12562.00
613.5700, 12481.00
614.7370, 12494.00
615.9050, 12535.00
617.0720, 12611.00
618.2390, 12831.00
619.4060, 12816.00
620.5720, 12780.00
621.7390, 12895.00
622.9050, 12825.00
624.0710, 12841.00
625.2370, 12799.00
626.4030, 12777.88
627.5690, 12741.71
628.7340, 12725.00
629.9000, 12706.00
631.0650, 12646.00
632.2300, 12752.00
633.3950, 12741.00
634.5600, 12836.00
635.7240, 12833.29
636.8890, 12899.00
638.0530, 12837.00
639.2170, 12919.00
640.3810, 12942.00
641.5450, 12818.00
642.7080, 12915.00
643.8720, 12776.00
645.0350, 12931.00
646.1980, 13126.00
647.3610, 13007.00
648.5240, 13049.00
649.6870, 12967.00
650.8490, 13071.00
652.0120, 13216.00
653.1740, 13094.00
654.3360, 13244.00
655.4980, 13200.00
656.6600, 13403.00
657.8210, 13301.00
658.9830, 13375.00
660.1440, 13608.00
661.3050, 13607.00
662.4660, 13676.00
663.6270, 13986.00
664.7870, 14010.00
665.9480, 14185.00
667.1080, 14499.00
668.2680, 14666.00
669.4280, 15090.00
670.5880, 15481.00
671.7480, 16153.00
672.9070, 16930.00
674.0670, 17960.00
675.2260, 19155.00
676.3850, 20788.00
677.5440, 23401.00
678.7030, 26537.00
679.8610, 30571.00
681.0200, 35555.00
682.1780, 41908.00
683.3360, 48032.00
684.4940, 52477.00
685.6520, 53044.00
686.8090, 49993.00
687.9670, 44142.00
689.1240, 38096.00
690.2810, 32509.00
691.4380, 28187.00
692.5950, 24825.00
693.7520, 22480.00
694.9080, 20657.00
696.0650, 19447.00
697.2210, 18522.00
698.3770, 17716.00
699.5330, 17104.00
700.6880, 16765.00
701.8440, 16288.00
702.9990, 16117.00
704.1550, 15872.00
705.3100, 15435.00
706.4650, 15168.00
707.6190, 15144.00
708.7740, 14825.00
709.9290, 14838.00
711.0830, 14750.00
712.2370, 14882.00
713.3910, 14488.00
714.5450, 14461.00
715.6980, 14499.00
716.8520, 14426.00
718.0050, 14447.00
719.1580, 14403.00
720.3110, 14169.00
721.4640, 14243.00
722.6170, 14306.00
723.7700, 14160.00
724.9220, 14227.00
726.0740, 14148.00
727.2260, 14196.00
728.3780, 14280.00
729.5300, 14074.00
730.6810, 13978.00
731.8330, 14130.00
732.9840, 14042.00
734.1350, 14132.00
735.2860, 14264.00
736.4370, 14022.00
737.5880, 14023.00
738.7380, 14369.00
739.8880, 14219.00
741.0390, 14098.00
742.1890, 14185.00
743.3380, 14265.00
744.4880, 14073.00
745.6380, 13961.00
746.7870, 13904.00
747.9360, 14062.00
749.0850, 14211.00
750.2340, 14290.00
751.3830, 14187.00
752.5310, 14267.00
753.6800, 14360.00
754.8280, 14263.00
755.9760, 14459.00
757.1240, 14379.00
758.2720, 14427.00
759.4190, 14610.00
760.5670, 14474.00
761.7140, 14738.00
762.8610, 14644.00
764.0080, 14765.00
765.1550, 14969.00
766.3020, 14764.00
767.4480, 14786.00
768.5950, 14615.00
769.7410, 14664.00
770.8870, 14726.00
772.0330, 14723.00
773.1780, 14667.05
774.3240, 14595.68
775.4690, 14471.00
776.6140, 14414.00
777.7590, 14287.00
778.9040, 14326.00
780.0490, 14285.00
781.1940, 14244.00
782.3380, 14274.00
783.4820, 14377.00
784.6260, 14352.00
785.7700, 14232.00
786.9140, 14385.00
788.0580, 14265.00
789.2010, 14228.00
790.3450, 14347.00
791.4880, 14313.00
792.6310, 14414.00
793.7730, 14413.28
794.9160, 14405.00
796.0590, 14408.00
797.2010, 14321.00
798.3430, 14289.00
799.4850, 14424.00
800.6270, 14262.00
801.7690, 14252.00
802.9100, 14379.00
804.0520, 14397.00
805.1930, 14398.00
806.3340, 14469.00
807.4750, 14486.00
808.6160, 14429.00
809.7560, 14525.00
810.8970, 14426.00
812.0370, 14416.00
813.1770, 14541.00
814.3170, 14462.00
815.4570, 14469.00
816.5960, 14509.00
817.7360, 14438.00
818.8750, 14582.00
820.0140, 14530.00
821.1530, 14511.00
822.2920, 14555.00
823.4310, 14548.00
824.5690, 14494.00
825.7070, 14660.00
826.8460, 14686.00
827.9840, 14559.00
829.1220, 14496.00
830.2590, 14512.00
831.3970, 14596.00
832.5340, 14549.00
833.6710, 14714.00
834.8080, 14568.00
835.9450, 14649.00
837.0820, 14605.00
838.2190, 14742.00
839.3550, 14655.00
840.4910, 14915.00
841.6270, 14751.00
842.7630, 14695.00
843.8990, 14622.00
845.0350, 14763.00
846.1700, 14688.00
847.3060, 14675.00
848.4410, 14814.00
849.5760, 14754.00
850.7100, 14748.00
851.8450, 14829.00
852.9800, 14886.00
854.1140, 14926.00
855.2480, 14843.00
856.3820, 14838.00
857.5160, 14845.00
858.6500, 14992.00
859.7830, 15039.00
860.9170, 15031.00
862.0500, 15079.98
863.1830, 15002.00
864.3160, 15073.00
865.4480, 15002.00
866.5810, 14997.00
867.7130, 14903.00
868.8460, 14921.00
869.9780, 15226.00
871.1100, 15176.00
872.2410, 15026.00
873.3730, 15055.00
874.5050, 14906.00
875.6360, 15206.00
876.7670, 15206.00
877.8980, 15210.00
879.0290, 15294.00
880.1590, 15250.18
881.2900, 15259.00
882.4200, 15234.00
883.5500, 15223.00
884.6800, 15262.00
885.8100, 15265.00
886.9400, 15340.00
888.0690, 15322.00
889.1990, 15395.00
890.3280, 15357.00
891.4570, 15355.00
892.5860, 15359.00
893.7140, 15448.00
894.8430, 15479.00
895.9710, 15443.00
897.1000, 15518.00
898.2280, 15468.00
899.3560, 15667.00
900.4830, 15669.00
901.6110, 15743.00
902.7380, 15819.00
903.8660, 15849.00
904.9930, 15958.00
906.1200, 16064.00
907.2460, 16013.89
908.3730, 15941.00
909.5000, 15967.00
910.6260, 15970.00
911.7520, 16043.00
912.8780, 16087.00
914.0040, 15977.00
915.1290, 16066.00
916.2550, 15918.00
917.3800, 16029.00
918.5050, 15961.00
919.6300, 15961.00
920.7550, 16124.00
921.8800, 15949.00
923.0040, 15920.00
924.1290, 15910.00
925.2530, 15991.00
926.3770, 15913.00
927.5010, 15834.00
928.6250, 15777.00
929.7480, 15878.00
930.8720, 15941.00
931.9950, 15860.00
933.1180, 15903.00
934.2410, 15814.00
935.3640, 15921.00
936.4860, 15976.00
937.6090, 15969.00
938.7310, 15804.00
939.8530, 16097.00
940.9750, 15972.00
942.0970, 15743.00
943.2180, 15905.00
944.3400, 16095.00
945.4610, 16007.00
946.5820, 15981.00
947.7030, 16087.00
948.8240, 16091.66
949.9450, 16074.92
951.0650, 16120.44
952.1860, 16131.65
953.3060, 16160.00
954.4260, 16170.00
955.5460, 16236.00
956.6650, 16209.00
957.7850, 16023.00
958.9040, 16252.00
960.0230, 16112.00
961.1420, 16246.00
962.2610, 16242.00
963.3800, 16183.00
964.4990, 16193.00
965.6170, 16136.00
966.7350, 16301.00
967.8530, 16370.00
968.9710, 16454.00
970.0890, 16453.00
971.2070, 16342.00
972.3240, 16336.00
973.4410, 16333.00
974.5580, 16527.00
975.6750, 16646.00
976.7920, 16620.00
977.9090, 16607.00
979.0250, 16571.00
980.1410, 16730.00
981.2580, 16790.00
982.3740, 16636.00
983.4890, 16970.00
984.6050, 17099.00
985.7200, 16976.00
986.8360, 17151.00
987.9510, 17252.00
989.0660, 17419.00
990.1810, 17455.00
991.2950, 17414.00
992.4100, 17666.00
993.5240, 17931.00
994.6390, 18239.00
995.7530, 18333.00
996.8660, 18489.00
997.9800, 18716.74
999.0940, 18870.00
1000.207, 19067.00
1001.320, 19198.96
1002.433, 19278.00
1003.546, 19304.00
1004.659, 19373.00
1005.772, 19299.00
1006.884, 19185.00
1007.996, 19489.00
1009.108, 19536.00
1010.220, 19318.00
1011.332, 19438.00
1012.444, 19225.00
1013.555, 18973.00
1014.666, 18895.00
1015.777, 18761.00
1016.888, 18498.00
1017.999, 18553.00
1019.110, 18297.00
1020.220, 18267.00
1021.331, 18179.00
1022.441, 18047.00
1023.551, 17870.00
1024.661, 17785.00
1025.770, 17817.00
1026.880, 17661.00
1027.989, 17644.00
1029.098, 17640.00
1030.207, 17576.00
1031.316, 17619.00
1032.425, 17542.98
1033.533, 17663.00
1034.642, 17490.00
1035.750, 17548.00
1036.858, 17666.00
1037.966, 17695.00
1039.073, 17675.00
1040.181, 17665.00
1041.288, 17718.00
1042.396, 17741.00
1043.503, 17814.00
1044.610, 17894.57
1045.716, 18001.00
1046.823, 18147.00
1047.929, 18231.00
1049.036, 18484.00
1050.142, 18477.00
1051.248, 18835.00
1052.353, 18796.00
1053.459, 18937.00
1054.564, 19295.00
1055.670, 19746.00
1056.775, 20084.00
1057.880, 20518.00
1058.985, 20998.00
1060.089, 21319.00
1061.194, 21863.44
1062.298, 22698.00
1063.402, 22904.00
1064.506, 23364.00
1065.610, 23928.00
1066.713, 23959.00
1067.817, 24091.00
1068.920, 24169.00
1070.023, 23855.00
1071.126, 24017.00
1072.229, 23477.00
1073.332, 23140.00
1074.435, 22981.00
1075.537, 22473.00
1076.639, 21973.00
1077.741, 21813.00
1078.843, 21456.00
1079.945, 21148.00
1081.046, 21021.00
1082.148, 20787.00
1083.249, 20383.00
1084.350, 20225.00
1085.451, 19994.00
1086.551, 19836.00
1087.652, 19686.04
1088.752, 19565.00
1089.853, 19428.00
1090.953, 19265.00
1092.053, 19168.00
1093.152, 19100.00
1094.252, 19002.01
1095.351, 18938.00
1096.451, 18856.00
1097.550, 18836.00
1098.649, 18734.14
1099.748, 18930.00
1100.846, 18690.00
1101.945, 18733.00
1103.043, 18782.00
1104.141, 18638.00
1105.239, 18540.00
1106.337, 18724.00
1107.434, 18641.00
1108.532, 18566.00
1109.629, 18582.00
1110.726, 18523.00
1111.823, 18556.00
1112.920, 18412.00
1114.017, 18624.00
1115.113, 18829.00
1116.210, 18838.00
1117.306, 18630.00
1118.402, 18831.00
1119.498, 18645.00
1120.593, 18719.00
1121.689, 18669.00
1122.784, 18702.00
1123.879, 18777.00
1124.974, 18669.00
1126.069, 18713.00
1127.164, 18751.00
1128.259, 18738.00
1129.353, 18673.00
1130.447, 18793.00
1131.541, 18659.00
1132.635, 18921.00
1133.729, 18890.00
1134.822, 18962.00
1135.916, 18966.00
1137.009, 19011.00
1138.102, 19051.00
1139.195, 19164.00
1140.288, 19190.00
1141.380, 19179.00
1142.473, 19228.00
1143.565, 19137.00
1144.657, 19327.00
1145.749, 19157.00
1146.841, 19331.00
1147.932, 19240.00
1149.024, 19206.00
1150.115, 19144.00
1151.206, 18973.00
1152.297, 19180.00
1153.388, 19102.00
1154.479, 18912.00
1155.569, 18705.00
1156.659, 18942.00
1157.750, 19024.00
1158.839, 18875.00
1159.929, 18702.00
1161.019, 18679.00
1162.108, 18717.00
1163.198, 18625.00
1164.287, 18924.00
1165.376, 18696.00
1166.465, 18896.00
1167.553, 18741.00
1168.642, 18772.00
1169.730, 18913.00
1170.818, 18785.00
1171.906, 18978.00
1172.994, 18753.00
1174.082, 18937.00
1175.170, 18902.00
1176.257, 18946.00
1177.344, 19036.00
1178.431, 19061.00
1179.518, 18956.00
1180.605, 19087.00
1181.691, 18896.00
1182.778, 19162.00
1183.864, 19009.00
1184.950, 19104.00
1186.036, 19115.00
1187.122, 19309.00
1188.207, 19114.00
1189.292, 19406.00
1190.378, 19341.00
1191.463, 19166.00
1192.548, 19287.00
1193.632, 19403.00
1194.717, 19229.00
1195.801, 19242.00
1196.886, 19395.00
1197.970, 19408.00
1199.054, 19528.00
1200.137, 19451.00
1201.221, 19336.00
1202.305, 19258.00
1203.388, 19311.00
1204.471, 19418.00
1205.554, 19393.00
1206.637, 19509.00
1207.719, 19541.00
1208.802, 19568.00
1209.884, 19612.88
1210.966, 19626.32
1212.048, 19639.00
1213.130, 19637.00
1214.212, 19633.00
1215.293, 19588.00
1216.374, 19557.00
1217.456, 19806.00
1218.536, 19703.00
1219.617, 19684.00
1220.698, 19986.00
1221.778, 19872.00
1222.859, 19924.00
1223.939, 20120.00
1225.019, 20102.00
1226.099, 20212.00
1227.178, 20373.00
1228.258, 20480.00
1229.337, 20345.00
1230.417, 20385.00
1231.496, 20568.00
1232.574, 20715.00
1233.653, 20685.00
1234.732, 20671.00
1235.810, 20776.00
1236.888, 20880.00
1237.966, 20854.00
1239.044, 20707.00
1240.122, 20573.00
1241.199, 20669.00
1242.277, 20325.00
1243.354, 20347.00
1244.431, 20266.00
1245.508, 20063.00
1246.585, 20180.00
1247.661, 19895.00
1248.738, 19928.00
1249.814, 19846.00
1250.890, 19544.00
1251.966, 19843.00
1253.042, 19815.00
1254.117, 19668.00
1255.193, 19734.00
1256.268, 19676.00
1257.343, 19816.00
1258.418, 19737.00
1259.493, 19607.00
1260.567, 19517.00
1261.642, 19749.00
1262.716, 19697.00
1263.790, 19577.00
1264.864, 19785.00
1265.938, 19580.00
1267.011, 19767.00
1268.085, 19593.00
1269.158, 19763.00
1270.231, 19726.00
1271.304, 19801.00
1272.377, 19757.00
1273.450, 19737.00
1274.522, 19759.00
1275.594, 19718.00
1276.666, 19775.00
1277.738, 19752.00
1278.810, 19861.00
1279.882, 19777.00
1280.953, 19879.00
1282.025, 19764.00
1283.096, 19776.00
1284.167, 19858.00
1285.238, 19889.00
1286.308, 19967.00
1287.379, 19982.99
1288.449, 19944.00
1289.519, 19995.00
1290.589, 20025.00
1291.659, 19996.00
1292.729, 20086.00
1293.798, 20066.50
1294.868, 19930.00
1295.937, 20116.00
1297.006, 20031.00
1298.075, 20128.00
1299.143, 20166.00
1300.212, 19915.00
1301.280, 20198.00
1302.348, 19963.00
1303.416, 20132.00
1304.484, 20187.00
1305.552, 20307.00
1306.620, 20291.17
1307.687, 20192.00
1308.754, 20216.00
1309.821, 20126.00
1310.888, 20089.00
1311.955, 20040.00
1313.021, 19952.00
1314.088, 20389.00
1315.154, 20248.00
1316.220, 20277.00
1317.286, 20118.00
1318.352, 20418.00
1319.417, 20192.00
1320.483, 20262.00
1321.548, 20271.00
1322.613, 20128.00
1323.678, 20181.00
1324.743, 20111.00
1325.807, 20377.00
1326.872, 20456.00
1327.936, 20262.00
1329.000, 20547.00
1330.064, 20212.00
1331.128, 20414.00
1332.191, 20449.00
1333.255, 20367.00
1334.318, 20570.00
1335.381, 20504.00
1336.444, 20538.00
1337.507, 20483.00
1338.569, 20440.00
1339.632, 20507.00
1340.694, 20493.87
1341.756, 20491.55
1342.818, 20565.00
1343.880, 20524.00
1344.941, 20554.00
1346.003, 20660.00
1347.064, 20699.00
1348.125, 20795.00
1349.186, 20762.00
1350.247, 20661.00
1351.308, 20717.83
1352.368, 20619.00
1353.428, 20691.00
1354.489, 20692.00
1355.549, 20621.00
1356.608, 20764.00
1357.668, 20645.00
1358.727, 20754.00
1359.787, 20764.00
1360.846, 20924.00
1361.905, 20946.16
1362.964, 20954.68
1364.022, 20957.00
1365.081, 20995.00
1366.139, 20825.00
1367.197, 20968.00
1368.255, 20846.00
1369.313, 20879.00
1370.371, 21090.00
1371.428, 20820.00
1372.486, 20851.00
1373.543, 20915.00
1374.600, 20856.00
1375.657, 20910.00
1376.713, 20966.00
1377.770, 20795.00
1378.826, 20919.00
1379.882, 20776.00
1380.938, 21121.00
1381.994, 21052.00
1383.050, 21145.00
1384.106, 21277.00
1385.161, 21378.00
1386.216, 21567.00
1387.271, 21382.00
1388.326, 21150.00
1389.381, 21069.00
1390.435, 21130.00
1391.490, 21179.00
1392.544, 21137.00
1393.598, 21044.00
1394.652, 21267.00
1395.705, 21008.00
1396.759, 21181.00
1397.812, 21168.00
1398.866, 21194.00
1399.919, 21086.00
1400.972, 21130.13
1402.024, 21232.00
1403.077, 21160.00
1404.129, 21138.00
1405.181, 21172.00
1406.233, 21291.00
1407.285, 21207.00
1408.337, 21230.00
1409.389, 21288.00
1410.440, 21246.00
1411.491, 21326.00
1412.542, 21343.06
1413.593, 21370.31
1414.644, 21395.00
1415.695, 21414.00
1416.745, 21394.00
1417.795, 21342.00
1418.845, 21262.00
1419.895, 21394.00
1420.945, 21501.00
1421.995, 21564.00
1423.044, 21417.00
1424.093, 21292.00
1425.142, 21386.00
1426.191, 21371.53
1427.240, 21531.00
1428.289, 21527.00
1429.337, 21589.00
1430.385, 21621.00
1431.433, 21624.00
1432.481, 21551.00
1433.529, 21614.00
1434.577, 21431.00
1435.624, 21428.00
1436.672, 21742.00
1437.719, 21569.59
1438.766, 21585.41
1439.812, 21620.00
1440.859, 21438.00
1441.905, 21628.00
1442.952, 21675.00
1443.998, 21632.00
1445.044, 21639.00
1446.090, 21977.00
1447.135, 21794.57
1448.181, 21815.00
1449.226, 21793.00
1450.271, 21633.00
1451.316, 21909.00
1452.361, 21897.00
1453.405, 21755.00
1454.450, 21988.00
1455.494, 22052.00
1456.538, 21778.00
1457.582, 21972.00
1458.626, 21783.00
1459.670, 21934.00
1460.713, 21974.00
1461.757, 21962.00
1462.800, 21958.00
1463.843, 21993.51
1464.886, 22100.00
1465.928, 22017.00
1466.971, 22071.00
1468.013, 22019.00
1469.055, 22035.00
1470.097, 22148.00
1471.139, 22042.00
1472.181, 22101.00
1473.222, 22056.00
1474.263, 22086.00
1475.305, 22083.00
1476.346, 22298.00
1477.386, 22037.00
1478.427, 22264.00
1479.468, 22263.00
1480.508, 22214.00
1481.548, 22334.00
1482.588, 22137.00
1483.628, 22431.00
1484.668, 22157.00
1485.707, 22389.00
1486.747, 22075.00
1487.786, 22301.00
1488.825, 22611.00
1489.864, 22286.00
1490.902, 22422.00
1491.941, 22525.00
1492.979, 22422.00
1494.017, 22337.00
1495.055, 22262.00
1496.093, 22636.00
1497.131, 22549.00
1498.168, 22294.00
1499.206, 22574.00
1500.243, 22392.00
1501.280, 22724.00
1502.317, 22516.00
1503.354, 22481.00
1504.390, 22349.00
1505.426, 22385.52
1506.463, 22333.00
1507.499, 22537.00
1508.535, 22656.00
1509.570, 22772.00
1510.606, 22702.00
1511.641, 22686.00
1512.676, 22744.00
1513.711, 22626.00
1514.746, 22797.00
1515.781, 22643.00
1516.816, 22521.00
1517.850, 22759.00
1518.884, 22710.00
1519.918, 22823.00
1520.952, 22836.00
1521.986, 22931.00
1523.019, 22795.00
1524.053, 22688.00
1525.086, 22948.00
1526.119, 22817.00
1527.152, 22813.00
1528.185, 22813.00
1529.217, 22998.00
1530.250, 22873.00
1531.282, 23093.00
1532.314, 22949.00
1533.346, 23120.00
1534.377, 23088.00
1535.409, 22967.00
1536.440, 23005.00
1537.472, 22962.00
1538.503, 23084.00
1539.534, 23156.00
1540.564, 23112.00
1541.595, 23005.00
1542.625, 23114.00
1543.656, 23217.00
1544.686, 23232.00
1545.716, 23342.00
1546.745, 23346.77
1547.775, 23360.03
1548.804, 23357.00
1549.834, 23329.00
1550.863, 23313.00
1551.892, 23257.00
1552.920, 23413.00
1553.949, 23632.00
1554.977, 23335.00
1556.006, 23526.00
1557.034, 23451.00
1558.062, 23547.00
1559.089, 23487.00
1560.117, 23591.00
1561.144, 23487.00
1562.172, 23412.00
1563.199, 23408.00
1564.226, 23290.00
1565.252, 23575.00
1566.279, 23635.00
1567.305, 23583.00
1568.332, 23609.00
1569.358, 23486.00
1570.384, 23598.00
##END=



