##NAMES=Beryl
##RRUFFID=R060944
##IDEAL CHEMISTRY=Be_3_Al_2_Si_6_O_18_
##LOCALITY=Habachtal, Salzburg, Austria
##OWNER=RRUFF
##SOURCE=Lawrence W. Snee
##DESCRIPTION=Green hexagonal prisms in a muscovite schist, variety emerald. Note that there are micro inclusions of actinolite. The Raman signal is a mixture of the two phases.
##STATUS=The identification of this mineral has been confirmed by X-ray diffraction and chemical analysis
##URL=rruff.info/R060944
##MEASURED CHEMISTRY=Be_3.00_(Al_1.59_Mg_0.33_Fe^3+^_0.04_Cr^3+^_0.04_)_Σ=2_Si_6.00_O_18_·Na_0.33_ ; bright inclusions are actinolite
##PIN_ID=L01950
##ORIENTATION=Laser parallel to c* (0 0 1). Fiducial mark perpendicular to laser is parallel to -b [0 -1 0]
130.4390, 15563.00
131.6680, 15633.00
132.8980, 15643.00
134.1270, 15742.00
135.3560, 15824.00
136.5850, 15888.00
137.8140, 15994.00
139.0430, 16376.00
140.2710, 16604.00
141.5000, 16406.00
142.7280, 16281.00
143.9560, 16240.00
145.1840, 16242.00
146.4120, 16085.00
147.6390, 16183.00
148.8670, 16241.00
150.0940, 16570.00
151.3210, 17077.00
152.5490, 17788.00
153.7750, 18623.00
155.0020, 20267.00
156.2290, 22014.00
157.4550, 23742.00
158.6810, 23777.00
159.9080, 22215.00
161.1340, 20317.00
162.3590, 19260.00
163.5850, 18783.00
164.8110, 18308.00
166.0360, 17995.00
167.2610, 17843.00
168.4860, 18025.00
169.7110, 18247.00
170.9360, 19124.00
172.1610, 20158.00
173.3850, 21632.00
174.6100, 23572.00
175.8340, 25740.00
177.0580, 27523.00
178.2820, 27542.00
179.5050, 25413.00
180.7290, 22846.00
181.9520, 20651.00
183.1760, 19439.00
184.3990, 18344.00
185.6220, 17901.00
186.8450, 17540.00
188.0670, 17322.00
189.2900, 17099.00
190.5120, 16995.00
191.7340, 16893.65
192.9560, 17041.00
194.1780, 16792.00
195.4000, 16901.00
196.6220, 16832.00
197.8430, 16919.00
199.0640, 17002.00
200.2860, 16992.00
201.5070, 17395.00
202.7270, 17545.00
203.9480, 17510.00
205.1690, 17747.00
206.3890, 17678.07
207.6090, 17702.00
208.8290, 17878.00
210.0490, 18369.00
211.2690, 19088.00
212.4890, 19742.00
213.7080, 20487.00
214.9280, 21460.00
216.1470, 22803.00
217.3660, 24730.00
218.5850, 26615.00
219.8030, 28690.00
221.0220, 30420.00
222.2400, 31036.00
223.4590, 29626.00
224.6770, 28066.00
225.8950, 26286.00
227.1120, 24852.00
228.3300, 24243.00
229.5480, 23611.00
230.7650, 23087.00
231.9820, 22177.00
233.1990, 20999.00
234.4160, 19742.00
235.6330, 18977.00
236.8490, 18309.00
238.0660, 17804.00
239.2820, 17661.00
240.4980, 17408.00
241.7140, 17434.00
242.9300, 17407.00
244.1460, 17654.00
245.3610, 17827.00
246.5770, 18017.00
247.7920, 18089.00
249.0070, 17975.00
250.2220, 17533.00
251.4370, 17167.00
252.6510, 17078.00
253.8660, 16887.00
255.0800, 16719.00
256.2940, 16548.00
257.5080, 16896.00
258.7220, 17782.00
259.9360, 17960.00
261.1490, 17251.00
262.3630, 16945.00
263.5760, 16722.00
264.7890, 16625.00
266.0020, 16729.00
267.2150, 16811.00
268.4270, 16599.00
269.6400, 16371.00
270.8520, 16193.00
272.0640, 15871.00
273.2760, 15743.00
274.4880, 15780.00
275.7000, 15539.00
276.9120, 15712.00
278.1230, 15662.00
279.3340, 15725.00
280.5450, 15711.00
281.7560, 15830.00
282.9670, 15996.00
284.1780, 16078.00
285.3880, 16198.00
286.5980, 16327.00
287.8090, 16443.00
289.0190, 16677.00
290.2290, 16834.00
291.4380, 16736.00
292.6480, 16737.00
293.8570, 16623.00
295.0670, 16458.00
296.2760, 16479.00
297.4850, 16367.00
298.6930, 16255.00
299.9020, 16283.00
301.1110, 16262.00
302.3190, 16235.00
303.5270, 16141.00
304.7350, 16047.00
305.9430, 16213.00
307.1510, 16122.32
308.3580, 15959.00
309.5660, 16212.00
310.7730, 16095.00
311.9800, 16296.00
313.1870, 16475.00
314.3940, 16367.00
315.6010, 16850.00
316.8070, 16852.00
318.0130, 17151.00
319.2200, 17679.00
320.4260, 17672.00
321.6310, 17910.00
322.8370, 17972.00
324.0430, 18076.00
325.2480, 17997.00
326.4540, 17557.00
327.6590, 17237.00
328.8640, 16770.00
330.0680, 16587.00
331.2730, 16294.00
332.4780, 15962.00
333.6820, 15982.00
334.8860, 15844.00
336.0900, 15896.00
337.2940, 15882.00
338.4980, 16206.00
339.7010, 16322.00
340.9050, 16622.00
342.1080, 16825.00
343.3110, 17130.00
344.5140, 17020.00
345.7170, 17368.00
346.9200, 17506.00
348.1220, 17497.00
349.3240, 17690.00
350.5270, 17799.00
351.7290, 17700.00
352.9310, 17777.72
354.1320, 17752.00
355.3340, 17651.00
356.5350, 17514.00
357.7370, 17304.00
358.9380, 17524.00
360.1390, 17665.00
361.3400, 17580.00
362.5400, 17830.00
363.7410, 18180.00
364.9410, 18146.00
366.1410, 18193.00
367.3410, 18431.00
368.5410, 18551.00
369.7410, 18566.00
370.9400, 18554.00
372.1400, 18330.00
373.3390, 18345.00
374.5380, 17935.00
375.7370, 17867.00
376.9360, 17529.00
378.1350, 17634.00
379.3330, 17667.00
380.5310, 17818.00
381.7300, 17650.00
382.9280, 17867.00
384.1260, 18216.00
385.3230, 18510.00
386.5210, 19234.00
387.7180, 20051.00
388.9160, 20857.00
390.1130, 21768.00
391.3100, 22828.00
392.5060, 23532.00
393.7030, 24245.00
394.9000, 24794.00
396.0960, 25374.00
397.2920, 25625.00
398.4880, 25781.00
399.6840, 25223.00
400.8800, 24603.00
402.0750, 23756.00
403.2710, 22561.00
404.4660, 21732.00
405.6610, 21091.00
406.8560, 20602.00
408.0510, 20460.00
409.2450, 20349.00
410.4400, 20310.00
411.6340, 20103.00
412.8280, 19889.20
414.0220, 19840.00
415.2160, 19306.00
416.4100, 19004.00
417.6030, 18635.00
418.7970, 18477.00
419.9900, 18190.00
421.1830, 17929.00
422.3760, 17753.00
423.5690, 17393.00
424.7610, 17258.02
425.9540, 17075.00
427.1460, 16958.00
428.3380, 16947.00
429.5300, 16894.00
430.7220, 17223.00
431.9140, 17178.00
433.1050, 17565.00
434.2970, 17789.00
435.4880, 17805.00
436.6790, 17656.00
437.8700, 17494.00
439.0610, 17367.00
440.2510, 17295.00
441.4420, 17114.00
442.6320, 16811.00
443.8220, 16433.00
445.0120, 16104.00
446.2020, 15864.00
447.3910, 15698.00
448.5810, 15521.00
449.7700, 15444.00
450.9600, 15371.00
452.1490, 15322.00
453.3370, 15247.29
454.5260, 15234.00
455.7150, 15134.00
456.9030, 15118.00
458.0910, 15100.00
459.2800, 15064.00
460.4670, 15006.00
461.6550, 15113.00
462.8430, 15154.00
464.0300, 15182.00
465.2180, 15010.00
466.4050, 15155.00
467.5920, 14923.00
468.7790, 15065.00
469.9650, 15145.00
471.1520, 15107.00
472.3380, 15053.00
473.5250, 15153.00
474.7110, 15034.00
475.8970, 15128.00
477.0820, 15260.00
478.2680, 15314.00
479.4540, 15177.00
480.6390, 15223.00
481.8240, 15256.00
483.0090, 15256.00
484.1940, 15318.00
485.3780, 15263.00
486.5630, 15332.00
487.7470, 15314.00
488.9320, 15401.00
490.1160, 15422.00
491.3000, 15242.00
492.4830, 15156.00
493.6670, 15243.00
494.8500, 15350.00
496.0340, 15389.00
497.2170, 15415.00
498.4000, 15427.00
499.5820, 15441.00
500.7650, 15498.23
501.9480, 15565.89
503.1300, 15647.00
504.3120, 15740.00
505.4940, 15839.42
506.6760, 15957.00
507.8580, 16061.00
509.0390, 16179.00
510.2210, 16291.14
511.4020, 16498.00
512.5830, 16613.00
513.7640, 16843.00
514.9450, 17152.00
516.1250, 17120.00
517.3060, 17480.00
518.4860, 17582.00
519.6660, 17732.00
520.8460, 17711.00
522.0260, 17959.00
523.2060, 18215.00
524.3850, 18203.00
525.5650, 18322.00
526.7440, 18467.00
527.9230, 18454.00
529.1020, 18288.00
530.2810, 17792.00
531.4590, 17470.00
532.6380, 17169.00
533.8160, 16734.00
534.9940, 16566.00
536.1720, 16243.00
537.3500, 15987.00
538.5270, 15982.00
539.7050, 15821.00
540.8820, 15691.00
542.0590, 15513.00
543.2360, 15540.00
544.4130, 15515.00
545.5900, 15464.00
546.7660, 15702.00
547.9430, 15746.00
549.1190, 15681.00
550.2950, 15642.00
551.4710, 15752.00
552.6470, 15967.00
553.8220, 15968.00
554.9980, 16197.00
556.1730, 16193.00
557.3480, 16623.00
558.5230, 16864.00
559.6980, 17055.00
560.8730, 17056.00
562.0470, 17196.00
563.2220, 17148.00
564.3960, 17333.00
565.5700, 17218.00
566.7440, 17400.00
567.9170, 17289.00
569.0910, 17232.00
570.2640, 17089.00
571.4380, 17136.00
572.6110, 17021.89
573.7840, 16979.00
574.9570, 16908.00
576.1290, 16924.00
577.3020, 16925.00
578.4740, 16748.00
579.6460, 16816.00
580.8180, 16630.00
581.9900, 16724.00
583.1620, 16569.06
584.3330, 16506.67
585.5040, 16394.00
586.6760, 16319.00
587.8470, 16427.00
589.0180, 16294.00
590.1880, 16339.00
591.3590, 16173.00
592.5290, 16177.00
593.7000, 16159.00
594.8700, 16086.00
596.0400, 16154.00
597.2090, 16045.00
598.3790, 15933.00
599.5490, 16170.00
600.7180, 16834.00
601.8870, 17301.00
603.0560, 17365.00
604.2250, 15666.00
605.3940, 15691.00
606.5620, 15924.00
607.7300, 15775.00
608.8990, 15880.00
610.0670, 15872.00
611.2350, 15976.00
612.4020, 15852.00
613.5700, 15783.00
614.7370, 16654.00
615.9050, 16487.00
617.0720, 16705.00
618.2390, 16535.00
619.4060, 16961.00
620.5720, 16275.00
621.7390, 16434.00
622.9050, 16805.00
624.0710, 16258.00
625.2370, 16062.00
626.4030, 15810.00
627.5690, 15962.00
628.7340, 15924.00
629.9000, 15928.61
631.0650, 15867.00
632.2300, 16048.00
633.3950, 16136.00
634.5600, 16239.00
635.7240, 16377.00
636.8890, 16447.00
638.0530, 16526.00
639.2170, 16850.00
640.3810, 16916.00
641.5450, 17214.00
642.7080, 17235.00
643.8720, 17615.00
645.0350, 17847.00
646.1980, 17990.00
647.3610, 18359.00
648.5240, 18424.00
649.6870, 18595.00
650.8490, 18799.00
652.0120, 18968.00
653.1740, 19416.00
654.3360, 19600.00
655.4980, 20181.00
656.6600, 20579.00
657.8210, 21155.00
658.9830, 22140.00
660.1440, 23195.00
661.3050, 24473.00
662.4660, 26182.00
663.6270, 28300.00
664.7870, 31355.00
665.9480, 34725.00
667.1080, 38965.00
668.2680, 43967.00
669.4280, 49459.00
670.5880, 54269.00
671.7480, 57402.00
672.9070, 57492.00
674.0670, 55047.00
675.2260, 51183.00
676.3850, 46977.00
677.5440, 43805.00
678.7030, 41903.00
679.8610, 41532.00
681.0200, 42500.00
682.1780, 44738.00
683.3360, 48364.00
684.4940, 52141.00
685.6520, 55589.00
686.8090, 57522.00
687.9670, 56589.00
689.1240, 51950.00
690.2810, 47142.00
691.4380, 41725.00
692.5950, 36910.00
693.7520, 33045.00
694.9080, 29790.00
696.0650, 27210.00
697.2210, 25295.00
698.3770, 24120.00
699.5330, 22690.00
700.6880, 21874.00
701.8440, 21123.00
702.9990, 20249.00
704.1550, 20003.00
705.3100, 19481.00
706.4650, 19090.00
707.6190, 18670.00
708.7740, 18311.00
709.9290, 18237.00
711.0830, 18007.00
712.2370, 17738.00
713.3910, 17650.00
714.5450, 17514.00
715.6980, 17341.00
716.8520, 17283.00
718.0050, 16980.00
719.1580, 16890.00
720.3110, 16708.00
721.4640, 16975.00
722.6170, 16944.00
723.7700, 16695.00
724.9220, 16547.00
726.0740, 16527.00
727.2260, 16655.00
728.3780, 16593.00
729.5300, 16656.00
730.6810, 16435.00
731.8330, 16586.00
732.9840, 16603.00
734.1350, 16642.00
735.2860, 16736.00
736.4370, 16835.00
737.5880, 16864.21
738.7380, 16885.00
739.8880, 16941.00
741.0390, 16918.00
742.1890, 16939.00
743.3380, 16964.00
744.4880, 16950.00
745.6380, 17099.00
746.7870, 16973.00
747.9360, 17103.00
749.0850, 17132.00
750.2340, 16966.00
751.3830, 16929.00
752.5310, 17199.00
753.6800, 17105.00
754.8280, 16873.00
755.9760, 16849.00
757.1240, 16635.00
758.2720, 16687.00
759.4190, 16857.00
760.5670, 16684.00
761.7140, 16576.00
762.8610, 16455.00
764.0080, 16515.00
765.1550, 16595.00
766.3020, 16302.00
767.4480, 16238.00
768.5950, 16465.00
769.7410, 16380.00
770.8870, 16187.00
772.0330, 16311.00
773.1780, 16509.00
774.3240, 16286.00
775.4690, 16254.00
776.6140, 16253.00
777.7590, 16188.00
778.9040, 16204.00
780.0490, 16241.00
781.1940, 15992.00
782.3380, 16017.00
783.4820, 16061.00
784.6260, 16165.00
785.7700, 16089.00
786.9140, 15988.00
788.0580, 16022.00
789.2010, 16044.00
790.3450, 16084.00
791.4880, 15981.00
792.6310, 15963.00
793.7730, 15818.00
794.9160, 15858.71
796.0590, 15957.00
797.2010, 15927.00
798.3430, 16026.00
799.4850, 16086.00
800.6270, 16076.00
801.7690, 16109.00
802.9100, 16072.10
804.0520, 16048.27
805.1930, 15984.00
806.3340, 15964.00
807.4750, 15938.00
808.6160, 15899.00
809.7560, 15982.00
810.8970, 15976.00
812.0370, 15985.00
813.1770, 15824.00
814.3170, 15900.00
815.4570, 15887.47
816.5960, 15898.00
817.7360, 15965.00
818.8750, 15955.00
820.0140, 15996.00
821.1530, 15997.00
822.2920, 15863.00
823.4310, 15938.00
824.5690, 16011.00
825.7070, 15852.00
826.8460, 16080.00
827.9840, 15953.00
829.1220, 15977.00
830.2590, 15982.00
831.3970, 15883.00
832.5340, 15992.00
833.6710, 16085.00
834.8080, 16066.00
835.9450, 15951.00
837.0820, 15875.00
838.2190, 16046.00
839.3550, 15943.00
840.4910, 16062.00
841.6270, 15926.00
842.7630, 15992.00
843.8990, 16075.00
845.0350, 16217.00
846.1700, 16123.00
847.3060, 16156.00
848.4410, 16203.00
849.5760, 16178.00
850.7100, 16042.00
851.8450, 16107.00
852.9800, 16164.00
854.1140, 16273.00
855.2480, 16206.00
856.3820, 16193.00
857.5160, 16215.00
858.6500, 16301.00
859.7830, 16173.00
860.9170, 16274.00
862.0500, 16012.00
863.1830, 16197.00
864.3160, 16181.00
865.4480, 16249.00
866.5810, 16353.00
867.7130, 16248.00
868.8460, 16296.00
869.9780, 16188.00
871.1100, 16202.00
872.2410, 16345.00
873.3730, 16355.00
874.5050, 16271.00
875.6360, 16177.00
876.7670, 16272.00
877.8980, 16211.84
879.0290, 16387.00
880.1590, 16279.00
881.2900, 16297.00
882.4200, 16429.00
883.5500, 16356.00
884.6800, 16544.00
885.8100, 16604.00
886.9400, 16795.00
888.0690, 16801.48
889.1990, 16807.04
890.3280, 16829.00
891.4570, 16763.00
892.5860, 16806.00
893.7140, 16879.00
894.8430, 17358.00
895.9710, 16955.00
897.1000, 17231.00
898.2280, 17040.00
899.3560, 17373.00
900.4830, 17354.00
901.6110, 17366.00
902.7380, 17259.00
903.8660, 17408.00
904.9930, 17424.97
906.1200, 17590.00
907.2460, 17548.00
908.3730, 17803.00
909.5000, 17766.29
910.6260, 17957.00
911.7520, 17888.00
912.8780, 17991.29
914.0040, 18070.00
915.1290, 18142.00
916.2550, 18368.00
917.3800, 18471.00
918.5050, 18856.00
919.6300, 18938.00
920.7550, 19335.00
921.8800, 19541.00
923.0040, 19868.00
924.1290, 20328.00
925.2530, 20832.00
926.3770, 21514.00
927.5010, 21881.00
928.6250, 21814.00
929.7480, 22013.00
930.8720, 21676.00
931.9950, 21110.00
933.1180, 20539.00
934.2410, 20028.00
935.3640, 19442.00
936.4860, 19070.00
937.6090, 18837.00
938.7310, 18535.00
939.8530, 18640.00
940.9750, 18357.00
942.0970, 18438.00
943.2180, 18220.00
944.3400, 18254.00
945.4610, 18445.00
946.5820, 18378.00
947.7030, 18275.00
948.8240, 18172.00
949.9450, 18260.00
951.0650, 17980.00
952.1860, 17843.00
953.3060, 17805.00
954.4260, 17879.00
955.5460, 17682.00
956.6650, 17851.00
957.7850, 17758.00
958.9040, 17539.00
960.0230, 17683.00
961.1420, 17531.00
962.2610, 17561.00
963.3800, 17443.00
964.4990, 17469.00
965.6170, 17616.00
966.7350, 17828.00
967.8530, 17509.00
968.9710, 17627.00
970.0890, 17544.00
971.2070, 17708.00
972.3240, 17706.00
973.4410, 17562.00
974.5580, 17697.00
975.6750, 17620.00
976.7920, 17853.00
977.9090, 17737.00
979.0250, 17858.00
980.1410, 18024.00
981.2580, 17939.00
982.3740, 18230.00
983.4890, 18129.00
984.6050, 18475.00
985.7200, 18500.00
986.8360, 18561.00
987.9510, 18755.00
989.0660, 18999.00
990.1810, 19202.00
991.2950, 19357.00
992.4100, 19535.00
993.5240, 19933.00
994.6390, 20000.00
995.7530, 20437.00
996.8660, 20782.00
997.9800, 20926.00
999.0940, 20992.00
1000.207, 20963.00
1001.320, 21244.00
1002.433, 21012.00
1003.546, 21029.00
1004.659, 20842.00
1005.772, 21045.00
1006.884, 20803.00
1007.996, 20894.00
1009.108, 20948.00
1010.220, 21136.00
1011.332, 20982.00
1012.444, 20936.00
1013.555, 21314.00
1014.666, 21567.00
1015.777, 21790.00
1016.888, 22010.00
1017.999, 22402.00
1019.110, 22744.00
1020.220, 22864.00
1021.331, 22743.00
1022.441, 22855.00
1023.551, 23134.00
1024.661, 23206.00
1025.770, 23354.00
1026.880, 23223.42
1027.989, 23113.00
1029.098, 22739.00
1030.207, 22346.00
1031.316, 21894.00
1032.425, 21432.00
1033.533, 21138.00
1034.642, 20732.00
1035.750, 20734.00
1036.858, 20556.00
1037.966, 20632.00
1039.073, 20554.00
1040.181, 20817.00
1041.288, 20765.00
1042.396, 21162.00
1043.503, 21793.00
1044.610, 22073.00
1045.716, 22686.00
1046.823, 23404.00
1047.929, 24194.00
1049.036, 25535.00
1050.142, 26796.00
1051.248, 28489.00
1052.353, 30022.00
1053.459, 32234.00
1054.564, 33804.00
1055.670, 35092.00
1056.775, 35879.00
1057.880, 35640.00
1058.985, 34840.00
1060.089, 33516.00
1061.194, 32121.00
1062.298, 30880.00
1063.402, 29914.00
1064.506, 29296.00
1065.610, 28827.00
1066.713, 28475.00
1067.817, 28123.00
1068.920, 28154.00
1070.023, 27787.00
1071.126, 27716.00
1072.229, 26787.00
1073.332, 26303.00
1074.435, 25875.00
1075.537, 25139.00
1076.639, 24650.00
1077.741, 23821.00
1078.843, 23276.00
1079.945, 22977.00
1081.046, 22687.00
1082.148, 22207.00
1083.249, 21968.00
1084.350, 21610.00
1085.451, 21362.00
1086.551, 21362.00
1087.652, 21206.00
1088.752, 21095.00
1089.853, 20840.00
1090.953, 20779.00
1092.053, 20751.00
1093.152, 20588.00
1094.252, 20521.00
1095.351, 20242.00
1096.451, 20126.00
1097.550, 20047.00
1098.649, 19900.00
1099.748, 19860.00
1100.846, 19696.00
1101.945, 19703.00
1103.043, 19688.00
1104.141, 19588.00
1105.239, 19492.00
1106.337, 19498.00
1107.434, 19512.00
1108.532, 19170.00
1109.629, 19479.00
1110.726, 19465.00
1111.823, 19164.00
1112.920, 19170.00
1114.017, 19154.00
1115.113, 19386.00
1116.210, 19459.00
1117.306, 19409.00
1118.402, 19614.00
1119.498, 19651.00
1120.593, 19815.00
1121.689, 19926.00
1122.784, 19860.00
1123.879, 19915.00
1124.974, 19993.00
1126.069, 19826.00
1127.164, 19711.00
1128.259, 19507.00
1129.353, 19345.00
1130.447, 19306.00
1131.541, 19172.00
1132.635, 19217.00
1133.729, 18988.00
1134.822, 18986.00
1135.916, 18776.00
1137.009, 18899.00
1138.102, 18663.00
1139.195, 18577.00
1140.288, 18743.00
1141.380, 18518.00
1142.473, 18271.00
1143.565, 18451.00
1144.657, 18526.00
1145.749, 18357.00
1146.841, 18402.00
1147.932, 18315.00
1149.024, 18289.00
1150.115, 18222.00
1151.206, 18244.00
1152.297, 18174.00
1153.388, 18182.00
1154.479, 18158.00
1155.569, 18111.00
1156.659, 18174.00
1157.750, 18138.00
1158.839, 18117.00
1159.929, 18040.00
1161.019, 18048.00
1162.108, 17906.00
1163.198, 18183.00
1164.287, 18007.00
1165.376, 18007.00
1166.465, 18144.00
1167.553, 18022.00
1168.642, 18046.00
1169.730, 17992.00
1170.818, 18098.00
1171.906, 18097.00
1172.994, 18278.00
1174.082, 18435.00
1175.170, 18377.00
1176.257, 18371.00
1177.344, 18280.00
1178.431, 18369.00
1179.518, 18428.00
1180.605, 18642.00
1181.691, 18508.00
1182.778, 18636.00
1183.864, 18558.00
1184.950, 18635.00
1186.036, 18764.00
1187.122, 18836.00
1188.207, 18759.00
1189.292, 18900.00
1190.378, 18851.00
1191.463, 18924.00
1192.548, 18690.00
1193.632, 18804.00
1194.717, 18831.00
1195.801, 18922.00
1196.886, 18927.00
1197.970, 19068.00
1199.054, 18856.00
1200.137, 18879.00
1201.221, 18949.00
1202.305, 18978.00
1203.388, 19127.00
1204.471, 19170.00
1205.554, 19223.00
1206.637, 19192.00
1207.719, 19506.00
1208.802, 19378.00
1209.884, 19658.00
1210.966, 19599.00
1212.048, 19588.00
1213.130, 19781.00
1214.212, 19647.00
1215.293, 19578.00
1216.374, 19885.00
1217.456, 19706.00
1218.536, 19631.00
1219.617, 19652.00
1220.698, 19509.00
1221.778, 19513.00
1222.859, 19226.00
1223.939, 19219.04
1225.019, 19070.00
1226.099, 19083.00
1227.178, 18854.00
1228.258, 18768.00
1229.337, 18705.00
1230.417, 18622.00
1231.496, 18434.00
1232.574, 18653.00
1233.653, 18580.00
1234.732, 18509.00
1235.810, 18348.00
1236.888, 18321.00
1237.966, 18335.00
1239.044, 18328.00
1240.122, 18256.00
1241.199, 18242.00
1242.277, 18353.00
1243.354, 18219.00
1244.431, 18181.00
1245.508, 18294.00
1246.585, 18230.00
1247.661, 18185.00
1248.738, 18174.00
1249.814, 18172.00
1250.890, 18176.00
1251.966, 18143.00
1253.042, 18049.00
1254.117, 18087.00
1255.193, 18115.00
1256.268, 17983.00
1257.343, 18028.00
1258.418, 17975.00
1259.493, 17811.00
1260.567, 18093.00
1261.642, 17856.00
1262.716, 18038.00
1263.790, 17984.00
1264.864, 17997.00
1265.938, 18087.00
1267.011, 18077.00
1268.085, 17995.00
1269.158, 18095.00
1270.231, 18021.00
1271.304, 18225.00
1272.377, 18082.00
1273.450, 17985.00
1274.522, 18163.00
1275.594, 18087.30
1276.666, 18179.00
1277.738, 18108.00
1278.810, 18143.00
1279.882, 18008.00
1280.953, 18024.00
1282.025, 18127.00
1283.096, 18157.00
1284.167, 18038.00
1285.238, 18052.00
1286.308, 18192.00
1287.379, 18049.00
1288.449, 18273.00
1289.519, 18135.00
1290.589, 18175.00
1291.659, 18116.00
1292.729, 18054.00
1293.798, 18193.00
1294.868, 18173.00
1295.937, 18147.00
1297.006, 18320.00
1298.075, 18107.00
1299.143, 18256.00
1300.212, 18162.00
1301.280, 18308.00
1302.348, 18236.00
1303.416, 18067.00
1304.484, 18268.00
1305.552, 18184.00
1306.620, 18225.00
1307.687, 18113.00
1308.754, 18149.00
1309.821, 18188.00
1310.888, 18298.00
1311.955, 18315.00
1313.021, 18369.17
1314.088, 18214.00
1315.154, 18366.00
1316.220, 18439.00
1317.286, 18278.00
1318.352, 18366.00
1319.417, 18229.00
1320.483, 18250.00
1321.548, 18443.00
1322.613, 18445.00
1323.678, 18380.00
1324.743, 18366.00
1325.807, 18352.12
1326.872, 18523.00
1327.936, 18381.00
1329.000, 18384.00
1330.064, 18508.00
1331.128, 18427.00
1332.191, 18388.00
1333.255, 18518.00
1334.318, 18428.00
1335.381, 18434.00
1336.444, 18442.00
1337.507, 18374.00
1338.569, 18479.00
1339.632, 18430.00
1340.694, 18635.00
1341.756, 18581.00
1342.818, 18381.00
1343.880, 18513.00
1344.941, 18701.00
1346.003, 18751.00
1347.064, 18569.00
1348.125, 18497.00
1349.186, 18508.00
1350.247, 18732.00
1351.308, 18533.00
1352.368, 18701.00
1353.428, 18726.00
1354.489, 18674.00
1355.549, 18597.00
1356.608, 18517.00
1357.668, 18598.00
1358.727, 18733.00
1359.787, 18625.00
1360.846, 18835.00
1361.905, 18628.00
1362.964, 18767.00
1364.022, 18661.00
1365.081, 18743.00
1366.139, 18779.00
1367.197, 18717.00
1368.255, 18810.00
1369.313, 18754.00
1370.371, 18695.00
1371.428, 18628.00
1372.486, 18760.00
1373.543, 18684.00
1374.600, 18688.00
1375.657, 18790.00
1376.713, 18690.00
1377.770, 18740.00
1378.826, 18787.00
1379.882, 18970.00
1380.938, 18931.00
1381.994, 18994.00
1383.050, 19217.00
1384.106, 19545.00
1385.161, 19704.00
1386.216, 19484.00
1387.271, 19351.00
1388.326, 19321.00
1389.381, 19046.00
1390.435, 19048.00
1391.490, 19020.00
1392.544, 18883.00
1393.598, 19130.00
1394.652, 18658.00
1395.705, 18824.00
1396.759, 18969.00
1397.812, 18778.00
1398.866, 19020.00
1399.919, 18899.00
1400.972, 19051.00
1402.024, 18881.00
1403.077, 18962.00
1404.129, 18924.00
1405.181, 19095.00
1406.233, 19176.00
1407.285, 19186.00
1408.337, 19019.00
1409.389, 19006.00
1410.440, 19042.00
1411.491, 19114.00
1412.542, 19123.00
1413.593, 19080.00
1414.644, 18973.00
1415.695, 19207.00
1416.745, 18951.00
1417.795, 19103.00
1418.845, 19090.00
1419.895, 19049.00
1420.945, 19163.00
1421.995, 19140.00
1423.044, 19128.00
1424.093, 19032.00
1425.142, 19058.00
1426.191, 19058.14
1427.240, 19123.00
1428.289, 19129.00
1429.337, 19194.00
1430.385, 19258.00
1431.433, 19215.00
1432.481, 19377.00
1433.529, 19229.00
1434.577, 19311.00
1435.624, 19367.00
1436.672, 19315.00
1437.719, 19406.00
1438.766, 19347.00
1439.812, 19440.00
1440.859, 19438.00
1441.905, 19322.00
1442.952, 19584.00
1443.998, 19533.00
1445.044, 19394.00
1446.090, 19241.00
1447.135, 19506.00
1448.181, 19563.00
1449.226, 19632.00
1450.271, 19556.00
1451.316, 19549.00
1452.361, 19596.00
1453.405, 19555.61
1454.450, 19574.15
1455.494, 19552.00
1456.538, 19581.00
1457.582, 19581.00
1458.626, 19596.43
1459.670, 19625.00
1460.713, 19606.00
1461.757, 19549.00
1462.800, 19603.00
1463.843, 19603.00
1464.886, 19678.00
1465.928, 19664.00
1466.971, 19712.00
1468.013, 19594.00
1469.055, 19807.00
1470.097, 19929.00
1471.139, 19791.00
1472.181, 19860.00
1473.222, 19826.00
1474.263, 19751.00
1475.305, 19759.00
1476.346, 19796.00
1477.386, 19933.00
1478.427, 19679.00
1479.468, 19945.00
1480.508, 19774.00
1481.548, 19848.00
1482.588, 19754.00
1483.628, 20014.00
1484.668, 19832.00
1485.707, 20033.00
1486.747, 19998.00
1487.786, 19925.00
1488.825, 20049.00
1489.864, 20160.00
1490.902, 19980.00
1491.941, 20008.00
1492.979, 20036.00
1494.017, 20044.00
1495.055, 20075.71
1496.093, 20071.45
1497.131, 20070.00
1498.168, 20062.00
1499.206, 20061.13
1500.243, 20052.26
1501.280, 20057.00
1502.317, 20089.00
1503.354, 20132.00
1504.390, 20189.00
1505.426, 20163.00
1506.463, 20341.00
1507.499, 20174.00
1508.535, 20356.00
1509.570, 20273.00
1510.606, 20438.00
1511.641, 20408.00
1512.676, 20416.00
1513.711, 20423.00
1514.746, 20443.93
1515.781, 20698.00
1516.816, 20431.00
1517.850, 20602.00
1518.884, 20430.00
1519.918, 20434.00
1520.952, 20525.00
1521.986, 20554.00
1523.019, 20522.00
1524.053, 20501.00
1525.086, 20569.00
1526.119, 20682.00
1527.152, 20418.00
1528.185, 20463.00
1529.217, 20791.00
1530.250, 20423.00
1531.282, 20566.00
1532.314, 20831.00
1533.346, 20573.00
1534.377, 20603.00
1535.409, 20581.00
1536.440, 20664.00
1537.472, 20733.00
1538.503, 20751.00
1539.534, 20810.25
1540.564, 20835.00
1541.595, 20914.00
1542.625, 20850.00
1543.656, 20968.00
1544.686, 20862.00
1545.716, 20718.00
1546.745, 20969.00
1547.775, 20986.00
1548.804, 21007.00
1549.834, 20909.00
1550.863, 21075.00
1551.892, 21075.00
1552.920, 21126.00
1553.949, 21288.00
1554.977, 21130.00
1556.006, 21548.00
1557.034, 21020.00
1558.062, 21112.00
1559.089, 20908.00
1560.117, 21226.00
1561.144, 21140.00
1562.172, 21388.00
1563.199, 21285.00
1564.226, 21227.00
1565.252, 21212.00
1566.279, 21479.00
1567.305, 21230.00
1568.332, 21419.00
1569.358, 21376.00
1570.384, 21332.00
1571.409, 21433.00
##END=



