##NAMES=Beryl
##RRUFFID=R050347
##IDEAL CHEMISTRY=Be_3_Al_2_Si_6_O_18_
##LOCALITY=North Keystone, South Dakota, USA
##OWNER=RRUFF
##SOURCE=California Institute of Technology
##DESCRIPTION=Colorless fragment
##STATUS=The identification of this mineral has been confirmed by X-ray diffraction and chemical analysis
##URL=rruff.info/R050347
##MEASURED CHEMISTRY=(Be_0.96_Li_0.04_)_3_Al_2.00_(Si_0.99_Al_0.01_)_6_O_18_ Î‡0.17Na
##PIN_ID=L01036
##ORIENTATION=Laser parallel to a* (1 0 0). Fiducial mark perpendicular to laser is parallel to c [0 0 1]
120.5960, 9287.000
121.8270, 9399.000
123.0580, 9356.204
124.2880, 9593.000
125.5190, 9434.000
126.7490, 9634.000
127.9790, 9758.000
129.2090, 9855.000
130.4390, 10102.00
131.6680, 10241.00
132.8980, 10433.00
134.1270, 10695.00
135.3560, 10723.00
136.5850, 10937.00
137.8140, 11098.00
139.0430, 11380.00
140.2710, 11377.00
141.5000, 11281.00
142.7280, 11269.00
143.9560, 11212.00
145.1840, 11033.00
146.4120, 10907.00
147.6390, 10739.00
148.8670, 10258.00
150.0940, 10117.00
151.3210, 9913.000
152.5490, 9907.000
153.7750, 9513.000
155.0020, 9469.000
156.2290, 9370.000
157.4550, 9354.000
158.6810, 9415.000
159.9080, 9263.000
161.1340, 9289.000
162.3590, 9304.000
163.5850, 9511.000
164.8110, 9508.000
166.0360, 9781.000
167.2610, 9746.000
168.4860, 9603.000
169.7110, 9750.000
170.9360, 10007.00
172.1610, 9728.000
173.3850, 9825.000
174.6100, 9964.000
175.8340, 9933.000
177.0580, 9971.000
178.2820, 9971.000
179.5050, 10134.00
180.7290, 10282.00
181.9520, 10377.00
183.1760, 10461.67
184.3990, 10311.00
185.6220, 10541.00
186.8450, 10526.00
188.0670, 10507.00
189.2900, 10605.00
190.5120, 10536.00
191.7340, 10517.00
192.9560, 10449.00
194.1780, 10443.00
195.4000, 10520.00
196.6220, 10454.00
197.8430, 10484.00
199.0640, 10489.00
200.2860, 10623.00
201.5070, 10811.00
202.7270, 10924.00
203.9480, 10514.00
205.1690, 10054.00
206.3890, 9703.000
207.6090, 9574.000
208.8290, 9492.000
210.0490, 9448.000
211.2690, 9426.000
212.4890, 9511.000
213.7080, 9460.000
214.9280, 9489.000
216.1470, 9505.000
217.3660, 9514.000
218.5850, 9409.000
219.8030, 9445.000
221.0220, 9431.000
222.2400, 9396.000
223.4590, 9529.000
224.6770, 9538.000
225.8950, 9512.000
227.1120, 9447.000
228.3300, 9539.000
229.5480, 9522.000
230.7650, 9390.000
231.9820, 9509.000
233.1990, 9549.000
234.4160, 9575.000
235.6330, 9642.000
236.8490, 9653.981
238.0660, 9675.000
239.2820, 9706.000
240.4980, 9695.000
241.7140, 9741.000
242.9300, 9862.000
244.1460, 9852.000
245.3610, 9977.000
246.5770, 10054.00
247.7920, 10157.00
249.0070, 10150.00
250.2220, 10207.00
251.4370, 10192.00
252.6510, 10167.00
253.8660, 9984.000
255.0800, 9707.000
256.2940, 9424.000
257.5080, 9212.000
258.7220, 9376.000
259.9360, 9140.517
261.1490, 9280.000
262.3630, 9019.000
263.5760, 8967.000
264.7890, 8972.000
266.0020, 8881.000
267.2150, 8938.000
268.4270, 9019.000
269.6400, 8982.000
270.8520, 9070.000
272.0640, 9141.000
273.2760, 9117.000
274.4880, 9186.000
275.7000, 9173.000
276.9120, 9376.000
278.1230, 9304.000
279.3340, 9342.000
280.5450, 9356.000
281.7560, 9339.000
282.9670, 9437.000
284.1780, 9526.000
285.3880, 9717.000
286.5980, 9748.000
287.8090, 9875.000
289.0190, 10107.00
290.2290, 10176.00
291.4380, 10224.00
292.6480, 10408.00
293.8570, 10492.00
295.0670, 10384.00
296.2760, 10654.00
297.4850, 10451.00
298.6930, 10545.00
299.9020, 10586.00
301.1110, 10522.00
302.3190, 10515.51
303.5270, 10495.07
304.7350, 10433.00
305.9430, 10499.00
307.1510, 10588.00
308.3580, 10731.00
309.5660, 11062.00
310.7730, 11330.00
311.9800, 11775.00
313.1870, 12181.00
314.3940, 12782.00
315.6010, 13590.00
316.8070, 14401.00
318.0130, 15396.00
319.2200, 16474.00
320.4260, 17553.00
321.6310, 18457.00
322.8370, 18485.00
324.0430, 17786.00
325.2480, 16159.00
326.4540, 14374.00
327.6590, 13034.00
328.8640, 12065.00
330.0680, 11229.00
331.2730, 10600.00
332.4780, 10304.00
333.6820, 9975.000
334.8860, 9942.000
336.0900, 9797.000
337.2940, 9803.000
338.4980, 9645.000
339.7010, 9537.000
340.9050, 9568.000
342.1080, 9536.000
343.3110, 9540.000
344.5140, 9489.000
345.7170, 9502.000
346.9200, 9583.000
348.1220, 9485.000
349.3240, 9480.000
350.5270, 9614.000
351.7290, 9760.000
352.9310, 9725.377
354.1320, 9642.000
355.3340, 9652.000
356.5350, 9725.000
357.7370, 9560.000
358.9380, 9591.000
360.1390, 9561.000
361.3400, 9694.000
362.5400, 9747.000
363.7410, 9771.000
364.9410, 9845.838
366.1410, 9694.000
367.3410, 9905.000
368.5410, 9980.000
369.7410, 9967.000
370.9400, 10151.00
372.1400, 10209.00
373.3390, 10209.00
374.5380, 10214.00
375.7370, 10305.00
376.9360, 10405.00
378.1350, 10604.00
379.3330, 10936.00
380.5310, 11134.00
381.7300, 11256.00
382.9280, 11765.00
384.1260, 12079.00
385.3230, 12333.00
386.5210, 12874.00
387.7180, 13641.00
388.9160, 14429.00
390.1130, 15715.00
391.3100, 16790.00
392.5060, 18160.00
393.7030, 19431.00
394.9000, 20457.00
396.0960, 20975.00
397.2920, 21112.00
398.4880, 20217.00
399.6840, 18982.00
400.8800, 17354.00
402.0750, 15838.00
403.2710, 14673.00
404.4660, 13673.00
405.6610, 12778.58
406.8560, 12131.00
408.0510, 11617.00
409.2450, 11419.00
410.4400, 11313.00
411.6340, 11021.00
412.8280, 10980.00
414.0220, 10975.00
415.2160, 10972.00
416.4100, 10988.99
417.6030, 11053.00
418.7970, 11061.00
419.9900, 11118.00
421.1830, 11171.00
422.3760, 11108.00
423.5690, 10952.00
424.7610, 10941.00
425.9540, 10698.00
427.1460, 10643.00
428.3380, 10567.00
429.5300, 10672.00
430.7220, 10605.00
431.9140, 10744.00
433.1050, 10714.00
434.2970, 10847.00
435.4880, 10968.00
436.6790, 11111.00
437.8700, 11167.00
439.0610, 11479.00
440.2510, 11630.00
441.4420, 11914.00
442.6320, 12327.00
443.8220, 12465.00
445.0120, 12739.00
446.2020, 12864.00
447.3910, 12856.00
448.5810, 12634.00
449.7700, 12411.00
450.9600, 11908.00
452.1490, 11801.00
453.3370, 11513.00
454.5260, 11455.00
455.7150, 11226.00
456.9030, 10911.00
458.0910, 10973.00
459.2800, 10764.00
460.4670, 10766.00
461.6550, 10719.00
462.8430, 10511.00
464.0300, 10700.00
465.2180, 10539.00
466.4050, 10618.00
467.5920, 10507.00
468.7790, 10554.00
469.9650, 10487.00
471.1520, 10581.00
472.3380, 10591.00
473.5250, 10425.00
474.7110, 10504.00
475.8970, 10617.00
477.0820, 10738.00
478.2680, 10646.00
479.4540, 10601.00
480.6390, 10667.00
481.8240, 10624.00
483.0090, 10569.00
484.1940, 10564.00
485.3780, 10596.00
486.5630, 10597.00
487.7470, 10591.00
488.9320, 10639.00
490.1160, 10636.00
491.3000, 10686.00
492.4830, 10704.00
493.6670, 10590.00
494.8500, 10655.00
496.0340, 10762.00
497.2170, 10641.00
498.4000, 10739.00
499.5820, 10720.00
500.7650, 10869.00
501.9480, 10892.00
503.1300, 10950.00
504.3120, 11035.00
505.4940, 11051.00
506.6760, 11055.00
507.8580, 11109.00
509.0390, 11158.08
510.2210, 11323.00
511.4020, 11387.00
512.5830, 11635.00
513.7640, 11958.00
514.9450, 11951.00
516.1250, 12245.00
517.3060, 12597.00
518.4860, 12646.00
519.6660, 12970.00
520.8460, 13300.00
522.0260, 13502.05
523.2060, 13752.21
524.3850, 13995.00
525.5650, 14042.00
526.7440, 14123.00
527.9230, 14044.91
529.1020, 13931.00
530.2810, 13868.00
531.4590, 13653.00
532.6380, 13434.00
533.8160, 13238.00
534.9940, 12904.00
536.1720, 12843.00
537.3500, 12760.00
538.5270, 12363.00
539.7050, 12341.00
540.8820, 11985.00
542.0590, 11971.00
543.2360, 11913.00
544.4130, 11637.00
545.5900, 11484.00
546.7660, 11521.00
547.9430, 11285.00
549.1190, 11332.00
550.2950, 11173.00
551.4710, 11167.00
552.6470, 11158.00
553.8220, 11114.00
554.9980, 10993.29
556.1730, 11098.10
557.3480, 11158.74
558.5230, 11177.60
559.6980, 11029.52
560.8730, 11097.01
562.0470, 11078.11
563.2220, 11055.66
564.3960, 11153.49
565.5700, 11029.69
566.7440, 11131.25
567.9170, 11291.00
569.0910, 11246.00
570.2640, 11252.00
571.4380, 11256.00
572.6110, 11296.00
573.7840, 11333.00
574.9570, 11328.00
576.1290, 11500.00
577.3020, 11536.00
578.4740, 11518.11
579.6460, 11393.00
580.8180, 11463.00
581.9900, 11432.00
583.1620, 11429.00
584.3330, 11186.00
585.5040, 11262.00
586.6760, 11109.00
587.8470, 11257.00
589.0180, 11196.00
590.1880, 11233.00
591.3590, 10946.00
592.5290, 11071.00
593.7000, 11015.00
594.8700, 11095.00
596.0400, 11161.00
597.2090, 11117.00
598.3790, 11149.00
599.5490, 11157.69
600.7180, 11117.00
601.8870, 11149.00
603.0560, 11158.00
604.2250, 11106.00
605.3940, 11163.00
606.5620, 11153.00
607.7300, 11310.00
608.8990, 11285.00
610.0670, 11303.00
611.2350, 11281.00
612.4020, 11523.00
613.5700, 11548.00
614.7370, 11529.00
615.9050, 11887.00
617.0720, 11933.00
618.2390, 12073.00
619.4060, 12206.00
620.5720, 12236.00
621.7390, 12319.00
622.9050, 12435.00
624.0710, 12126.00
625.2370, 11921.00
626.4030, 11926.00
627.5690, 11762.00
628.7340, 11637.00
629.9000, 11793.00
631.0650, 11576.00
632.2300, 11591.00
633.3950, 11601.00
634.5600, 11497.00
635.7240, 11603.00
636.8890, 11620.00
638.0530, 11813.00
639.2170, 11699.00
640.3810, 11830.00
641.5450, 11802.00
642.7080, 11733.00
643.8720, 11748.00
645.0350, 11746.00
646.1980, 11797.00
647.3610, 11866.00
648.5240, 11925.00
649.6870, 12042.00
650.8490, 11882.00
652.0120, 12164.00
653.1740, 12125.00
654.3360, 11988.00
655.4980, 12321.00
656.6600, 12259.00
657.8210, 12329.00
658.9830, 12391.00
660.1440, 12739.00
661.3050, 13275.00
662.4660, 13635.00
663.6270, 14432.00
664.7870, 13093.00
665.9480, 13348.00
667.1080, 13612.00
668.2680, 14191.00
669.4280, 14728.00
670.5880, 15278.00
671.7480, 15909.00
672.9070, 17114.00
674.0670, 18453.00
675.2260, 20410.00
676.3850, 22840.00
677.5440, 26126.00
678.7030, 30065.00
679.8610, 35018.00
681.0200, 42456.00
682.1780, 46628.00
683.3360, 51810.00
684.4940, 54957.00
685.6520, 55135.00
686.8090, 50946.00
687.9670, 44626.00
689.1240, 37814.00
690.2810, 31826.00
691.4380, 27305.00
692.5950, 24459.00
693.7520, 21355.00
694.9080, 19368.00
696.0650, 18120.00
697.2210, 16874.00
698.3770, 16106.00
699.5330, 15474.00
700.6880, 15106.00
701.8440, 14780.00
702.9990, 14362.00
704.1550, 14237.00
705.3100, 13859.00
706.4650, 13493.00
707.6190, 13494.00
708.7740, 13468.00
709.9290, 13151.00
711.0830, 13016.00
712.2370, 12984.00
713.3910, 12884.00
714.5450, 12769.00
715.6980, 12796.00
716.8520, 12587.00
718.0050, 12593.00
719.1580, 12678.00
720.3110, 12376.00
721.4640, 12602.00
722.6170, 12611.00
723.7700, 12455.00
724.9220, 12564.00
726.0740, 12632.00
727.2260, 12453.00
728.3780, 12562.00
729.5300, 12520.00
730.6810, 12529.00
731.8330, 12564.00
732.9840, 12466.00
734.1350, 12361.00
735.2860, 12489.00
736.4370, 12367.00
737.5880, 12486.00
738.7380, 12448.00
739.8880, 12541.00
741.0390, 12627.00
742.1890, 12591.00
743.3380, 12471.00
744.4880, 12497.00
745.6380, 12424.00
746.7870, 12639.00
747.9360, 12689.00
749.0850, 12687.00
750.2340, 12669.00
751.3830, 12711.08
752.5310, 12668.00
753.6800, 12760.00
754.8280, 12812.00
755.9760, 12839.00
757.1240, 12976.00
758.2720, 13088.00
759.4190, 13172.00
760.5670, 13222.59
761.7140, 13269.81
762.8610, 13248.00
764.0080, 13322.00
765.1550, 13290.00
766.3020, 13334.00
767.4480, 13395.00
768.5950, 13395.00
769.7410, 13280.00
770.8870, 13322.00
772.0330, 13237.00
773.1780, 13225.00
774.3240, 13131.00
775.4690, 13165.00
776.6140, 13157.00
777.7590, 13072.00
778.9040, 13161.00
780.0490, 13054.00
781.1940, 13020.00
782.3380, 12952.00
783.4820, 12968.00
784.6260, 12939.70
785.7700, 12904.21
786.9140, 12924.00
788.0580, 12878.00
789.2010, 12848.00
790.3450, 12909.00
791.4880, 12958.00
792.6310, 12852.00
793.7730, 12866.00
794.9160, 12850.00
796.0590, 12871.00
797.2010, 12949.00
798.3430, 13125.00
799.4850, 12817.00
800.6270, 12979.00
801.7690, 12799.00
802.9100, 12835.00
804.0520, 13013.00
805.1930, 12990.00
806.3340, 12958.00
807.4750, 12879.00
808.6160, 12921.00
809.7560, 12941.00
810.8970, 12911.00
812.0370, 12954.80
813.1770, 12903.00
814.3170, 12949.00
815.4570, 12996.00
816.5960, 12893.00
817.7360, 12981.00
818.8750, 12961.00
820.0140, 12924.00
821.1530, 13039.00
822.2920, 13029.00
823.4310, 13070.00
824.5690, 12993.00
825.7070, 12937.00
826.8460, 13043.00
827.9840, 12947.00
829.1220, 13032.00
830.2590, 13041.00
831.3970, 13175.00
832.5340, 13121.00
833.6710, 13055.00
834.8080, 13018.00
835.9450, 13069.00
837.0820, 13190.00
838.2190, 13140.00
839.3550, 13137.00
840.4910, 13135.00
841.6270, 13108.00
842.7630, 13198.00
843.8990, 13292.00
845.0350, 13195.00
846.1700, 13131.00
847.3060, 13118.00
848.4410, 13182.00
849.5760, 13102.00
850.7100, 13206.00
851.8450, 13357.00
852.9800, 13363.00
854.1140, 13353.00
855.2480, 13393.00
856.3820, 13377.00
857.5160, 13379.09
858.6500, 13413.00
859.7830, 13368.00
860.9170, 13448.00
862.0500, 13455.00
863.1830, 13457.00
864.3160, 13415.00
865.4480, 13398.00
866.5810, 13451.00
867.7130, 13500.00
868.8460, 13425.00
869.9780, 13438.00
871.1100, 13452.00
872.2410, 13562.00
873.3730, 13608.00
874.5050, 13507.00
875.6360, 13674.00
876.7670, 13553.00
877.8980, 13589.00
879.0290, 13771.00
880.1590, 13680.00
881.2900, 13653.00
882.4200, 13476.00
883.5500, 13620.00
884.6800, 13626.00
885.8100, 13679.00
886.9400, 13727.00
888.0690, 13761.00
889.1990, 13946.00
890.3280, 13778.00
891.4570, 13725.00
892.5860, 13722.00
893.7140, 13847.00
894.8430, 13868.00
895.9710, 13978.00
897.1000, 13875.00
898.2280, 14023.00
899.3560, 13903.00
900.4830, 14116.00
901.6110, 14070.00
902.7380, 14071.00
903.8660, 14230.00
904.9930, 14202.00
906.1200, 14246.00
907.2460, 14223.00
908.3730, 14389.00
909.5000, 14333.00
910.6260, 14307.00
911.7520, 14511.00
912.8780, 14469.00
914.0040, 14544.00
915.1290, 14651.00
916.2550, 14598.00
917.3800, 14609.00
918.5050, 14711.00
919.6300, 14770.00
920.7550, 14673.00
921.8800, 14531.00
923.0040, 14471.00
924.1290, 14540.00
925.2530, 14601.00
926.3770, 14558.00
927.5010, 14371.00
928.6250, 14435.00
929.7480, 14279.00
930.8720, 14401.00
931.9950, 14393.00
933.1180, 14541.00
934.2410, 14401.00
935.3640, 14513.00
936.4860, 14463.00
937.6090, 14535.00
938.7310, 14466.00
939.8530, 14369.00
940.9750, 14526.00
942.0970, 14444.00
943.2180, 14394.00
944.3400, 14515.00
945.4610, 14522.00
946.5820, 14560.00
947.7030, 14537.00
948.8240, 14438.00
949.9450, 14582.00
951.0650, 14372.00
952.1860, 14499.00
953.3060, 14545.23
954.4260, 14459.02
955.5460, 14707.00
956.6650, 14607.00
957.7850, 14653.00
958.9040, 14744.09
960.0230, 14638.00
961.1420, 14823.00
962.2610, 14792.00
963.3800, 14765.00
964.4990, 14652.00
965.6170, 14762.00
966.7350, 14811.00
967.8530, 14860.00
968.9710, 14973.00
970.0890, 14987.00
971.2070, 14992.00
972.3240, 14990.00
973.4410, 15128.00
974.5580, 15045.00
975.6750, 14887.00
976.7920, 15211.00
977.9090, 15172.00
979.0250, 15184.00
980.1410, 15524.00
981.2580, 15457.00
982.3740, 15541.00
983.4890, 15499.00
984.6050, 15512.00
985.7200, 15703.00
986.8360, 15760.00
987.9510, 15876.00
989.0660, 15959.00
990.1810, 16210.00
991.2950, 16165.00
992.4100, 16272.00
993.5240, 16529.00
994.6390, 16860.00
995.7530, 17162.00
996.8660, 17363.00
997.9800, 17804.00
999.0940, 18017.00
1000.207, 18496.00
1001.320, 18969.00
1002.433, 19702.00
1003.546, 20166.00
1004.659, 20877.00
1005.772, 21502.00
1006.884, 22408.00
1007.996, 22970.00
1009.108, 23558.00
1010.220, 23927.00
1011.332, 24035.00
1012.444, 23770.00
1013.555, 23411.00
1014.666, 22802.00
1015.777, 22300.00
1016.888, 21622.00
1017.999, 20958.00
1019.110, 20669.00
1020.220, 20066.00
1021.331, 19826.00
1022.441, 19362.00
1023.551, 19214.00
1024.661, 18992.50
1025.770, 18655.00
1026.880, 18704.00
1027.989, 18495.00
1029.098, 18364.00
1030.207, 18543.00
1031.316, 18439.00
1032.425, 18382.00
1033.533, 18320.00
1034.642, 18280.00
1035.750, 18375.00
1036.858, 18442.00
1037.966, 18550.00
1039.073, 18828.00
1040.181, 18977.00
1041.288, 19236.00
1042.396, 19580.00
1043.503, 19771.00
1044.610, 20290.00
1045.716, 20565.00
1046.823, 21149.00
1047.929, 21504.00
1049.036, 22171.00
1050.142, 22737.00
1051.248, 23735.00
1052.353, 25013.00
1053.459, 26493.00
1054.564, 27528.00
1055.670, 29142.00
1056.775, 31073.00
1057.880, 33347.00
1058.985, 35957.00
1060.089, 38763.00
1061.194, 42469.00
1062.298, 44633.00
1063.402, 47555.00
1064.506, 50081.00
1065.610, 51874.00
1066.713, 52903.00
1067.817, 52682.00
1068.920, 52047.00
1070.023, 50855.00
1071.126, 48992.00
1072.229, 46834.00
1073.332, 44425.00
1074.435, 42156.00
1075.537, 39668.00
1076.639, 37641.00
1077.741, 35553.00
1078.843, 33515.00
1079.945, 31819.00
1081.046, 30711.00
1082.148, 29280.00
1083.249, 27931.00
1084.350, 26999.00
1085.451, 25982.00
1086.551, 25057.00
1087.652, 24289.67
1088.752, 23530.44
1089.853, 22913.00
1090.953, 22300.00
1092.053, 21800.00
1093.152, 21343.00
1094.252, 20982.11
1095.351, 20651.05
1096.451, 20465.00
1097.550, 20130.00
1098.649, 20001.00
1099.748, 19772.00
1100.846, 19568.00
1101.945, 19280.00
1103.043, 19263.00
1104.141, 19245.00
1105.239, 19012.00
1106.337, 18764.00
1107.434, 18746.00
1108.532, 18629.00
1109.629, 18588.00
1110.726, 18630.00
1111.823, 18488.00
1112.920, 18389.00
1114.017, 18419.00
1115.113, 18260.00
1116.210, 18078.00
1117.306, 18149.00
1118.402, 18267.00
1119.498, 18162.00
1120.593, 18055.00
1121.689, 18194.00
1122.784, 18062.00
1123.879, 18137.00
1124.974, 18169.00
1126.069, 17946.00
1127.164, 17937.00
1128.259, 18106.00
1129.353, 18004.00
1130.447, 17964.00
1131.541, 17979.00
1132.635, 18043.00
1133.729, 18160.00
1134.822, 18380.00
1135.916, 18235.00
1137.009, 18459.00
1138.102, 18435.00
1139.195, 18556.00
1140.288, 18585.00
1141.380, 18732.00
1142.473, 18645.00
1143.565, 18717.00
1144.657, 18746.00
1145.749, 18805.00
1146.841, 18659.00
1147.932, 18401.00
1149.024, 18501.00
1150.115, 18189.00
1151.206, 17989.00
1152.297, 17983.00
1153.388, 17878.00
1154.479, 17709.00
1155.569, 17566.00
1156.659, 17612.00
1157.750, 17343.61
1158.839, 17262.40
1159.929, 17011.00
1161.019, 16981.00
1162.108, 16998.00
1163.198, 16914.00
1164.287, 16771.00
1165.376, 16877.00
1166.465, 16867.00
1167.553, 16800.00
1168.642, 16866.00
1169.730, 16929.00
1170.818, 16884.00
1171.906, 16798.00
1172.994, 16881.00
1174.082, 16904.00
1175.170, 16770.00
1176.257, 16799.00
1177.344, 16811.00
1178.431, 16911.00
1179.518, 16884.00
1180.605, 16883.00
1181.691, 17013.00
1182.778, 16862.00
1183.864, 16992.00
1184.950, 17112.00
1186.036, 16914.00
1187.122, 17048.00
1188.207, 17029.00
1189.292, 17018.00
1190.378, 16904.00
1191.463, 17003.00
1192.548, 17008.00
1193.632, 17000.95
1194.717, 16966.00
1195.801, 16979.00
1196.886, 17035.00
1197.970, 16913.00
1199.054, 16990.00
1200.137, 16873.00
1201.221, 16953.00
1202.305, 16897.00
1203.388, 16872.00
1204.471, 16832.00
1205.554, 17122.00
1206.637, 16915.00
1207.719, 17126.00
1208.802, 17046.00
1209.884, 17061.00
1210.966, 17191.00
1212.048, 16978.00
1213.130, 16930.00
1214.212, 17128.00
1215.293, 16997.00
1216.374, 17094.00
1217.456, 17084.20
1218.536, 17065.00
1219.617, 17057.00
1220.698, 17076.00
1221.778, 17092.00
1222.859, 17087.00
1223.939, 17148.00
1225.019, 17324.00
1226.099, 17343.00
1227.178, 17233.00
1228.258, 17342.00
1229.337, 17287.00
1230.417, 17333.78
1231.496, 17365.00
1232.574, 17445.00
1233.653, 17586.00
1234.732, 17668.00
1235.810, 17613.00
1236.888, 17590.00
1237.966, 17647.00
1239.044, 17815.00
1240.122, 17520.00
1241.199, 17579.00
1242.277, 17410.00
1243.354, 17503.00
1244.431, 17558.00
1245.508, 17367.00
1246.585, 17317.00
1247.661, 17337.00
1248.738, 17400.00
1249.814, 17285.00
1250.890, 17248.00
1251.966, 17224.00
1253.042, 17292.00
1254.117, 17329.00
1255.193, 17136.00
1256.268, 17377.00
1257.343, 17196.00
1258.418, 17347.00
1259.493, 17159.00
1260.567, 17185.00
1261.642, 17250.00
1262.716, 17205.00
1263.790, 17321.00
1264.864, 17373.00
1265.938, 17298.00
1267.011, 17281.00
1268.085, 17232.00
1269.158, 17326.00
1270.231, 17315.00
1271.304, 17227.00
1272.377, 17365.00
1273.450, 17553.00
1274.522, 17323.00
1275.594, 17351.00
1276.666, 17535.00
1277.738, 17289.00
1278.810, 17368.00
1279.882, 17419.00
1280.953, 17309.00
1282.025, 17339.00
1283.096, 17244.00
1284.167, 17327.00
1285.238, 17340.05
1286.308, 17378.46
1287.379, 17436.00
1288.449, 17460.00
1289.519, 17493.00
1290.589, 17422.00
1291.659, 17608.00
1292.729, 17508.00
1293.798, 17440.00
1294.868, 17479.00
1295.937, 17642.00
1297.006, 17565.00
1298.075, 17610.00
1299.143, 17622.00
1300.212, 17672.00
1301.280, 17657.00
1302.348, 17736.00
1303.416, 17722.00
1304.484, 17703.00
1305.552, 17647.00
1306.620, 17712.00
1307.687, 17817.00
1308.754, 17611.00
1309.821, 17625.00
1310.888, 17777.00
1311.955, 17602.00
1313.021, 17609.00
1314.088, 17904.00
1315.154, 17909.00
1316.220, 17802.00
1317.286, 17624.00
1318.352, 17704.00
1319.417, 17746.00
1320.483, 18181.00
1321.548, 17980.41
1322.613, 18447.00
1323.678, 17826.00
1324.743, 17786.00
1325.807, 17805.00
1326.872, 17934.00
1327.936, 17795.00
1329.000, 17955.00
1330.064, 17892.00
1331.128, 17760.00
1332.191, 17938.00
1333.255, 17805.00
1334.318, 18004.00
1335.381, 17961.00
1336.444, 17819.00
1337.507, 18053.00
1338.569, 18045.00
1339.632, 17927.00
1340.694, 18077.00
1341.756, 18065.00
1342.818, 17962.00
1343.880, 18040.00
1344.941, 18043.21
1346.003, 18132.00
1347.064, 18087.00
1348.125, 18160.00
1349.186, 18049.00
1350.247, 18015.00
1351.308, 18156.00
1352.368, 18167.00
1353.428, 18146.87
1354.489, 18176.00
1355.549, 18111.00
1356.608, 18140.00
1357.668, 18180.00
1358.727, 18123.00
1359.787, 18023.00
1360.846, 18173.00
1361.905, 18164.00
1362.964, 18264.00
1364.022, 18114.00
1365.081, 18190.00
1366.139, 18103.00
1367.197, 18173.00
1368.255, 18164.62
1369.313, 18232.00
1370.371, 18185.00
1371.428, 18310.00
1372.486, 18351.00
1373.543, 18256.00
1374.600, 18305.00
1375.657, 18276.00
1376.713, 18287.00
1377.770, 18421.00
1378.826, 18214.00
1379.882, 18135.00
1380.938, 18211.00
1381.994, 18427.00
1383.050, 18499.00
1384.106, 18435.00
1385.161, 18683.00
1386.216, 18710.00
1387.271, 18468.00
1388.326, 18435.00
1389.381, 18319.00
1390.435, 18407.00
1391.490, 18494.00
1392.544, 18451.00
1393.598, 18511.00
1394.652, 18493.20
1395.705, 18546.00
1396.759, 18463.00
1397.812, 18418.00
1398.866, 18421.00
1399.919, 18494.00
1400.972, 18512.00
1402.024, 18644.00
1403.077, 18476.00
1404.129, 18583.00
1405.181, 18595.00
1406.233, 18489.00
1407.285, 18540.00
1408.337, 18651.00
1409.389, 18372.00
1410.440, 18531.00
1411.491, 18725.00
1412.542, 18749.00
1413.593, 18461.00
1414.644, 18581.00
1415.695, 18598.00
1416.745, 18484.00
1417.795, 18514.00
1418.845, 18556.43
1419.895, 18704.00
1420.945, 18680.00
1421.995, 18709.00
1423.044, 18724.00
1424.093, 18699.00
1425.142, 18774.00
1426.191, 18717.00
1427.240, 18834.00
1428.289, 18581.00
1429.337, 18756.00
1430.385, 18690.00
1431.433, 18885.00
1432.481, 18828.00
1433.529, 18882.00
1434.577, 18889.00
1435.624, 18797.00
1436.672, 19006.00
1437.719, 19033.00
1438.766, 18918.00
1439.812, 18829.00
1440.859, 19030.00
1441.905, 19001.00
1442.952, 18994.00
1443.998, 19060.00
1445.044, 18943.00
1446.090, 19049.75
1447.135, 19048.00
1448.181, 19156.00
1449.226, 19033.00
1450.271, 19004.00
1451.316, 19146.00
1452.361, 18869.00
1453.405, 19018.00
1454.450, 19050.00
1455.494, 19208.00
1456.538, 19079.00
1457.582, 19230.00
1458.626, 18866.00
1459.670, 19164.00
1460.713, 19172.00
1461.757, 19412.00
1462.800, 19440.00
1463.843, 19212.00
1464.886, 19317.00
1465.928, 19376.00
1466.971, 19224.00
1468.013, 19263.00
1469.055, 19158.00
1470.097, 19365.00
1471.139, 19304.00
1472.181, 19360.00
1473.222, 19373.00
1474.263, 19322.00
1475.305, 19282.41
1476.346, 19540.00
1477.386, 19160.00
1478.427, 19342.00
1479.468, 19402.00
1480.508, 19160.00
1481.548, 19298.00
1482.588, 19431.00
1483.628, 19288.00
1484.668, 19262.00
1485.707, 19356.80
1486.747, 19451.00
1487.786, 19458.00
1488.825, 19499.00
1489.864, 19437.00
1490.902, 19500.00
1491.941, 19583.00
1492.979, 19404.00
1494.017, 19420.00
1495.055, 19348.00
1496.093, 19502.00
1497.131, 19437.00
1498.168, 19515.00
1499.206, 19718.00
1500.243, 19518.00
1501.280, 19503.00
1502.317, 19709.00
1503.354, 19597.00
1504.390, 19784.00
1505.426, 19623.00
1506.463, 19416.00
1507.499, 19566.00
1508.535, 19636.00
1509.570, 19507.00
1510.606, 19660.00
1511.641, 19727.00
1512.676, 19611.00
1513.711, 19657.00
1514.746, 19790.00
1515.781, 19713.00
1516.816, 19690.00
1517.850, 19723.00
1518.884, 19721.00
1519.918, 19824.00
1520.952, 19822.00
1521.986, 19811.00
1523.019, 19793.00
1524.053, 19815.82
1525.086, 19888.00
1526.119, 19870.00
1527.152, 19735.23
1528.185, 19843.36
1529.217, 19907.32
1530.250, 19929.50
1531.282, 19784.74
1532.314, 19855.54
1533.346, 19839.96
1534.377, 19820.82
1535.409, 19921.97
1536.440, 19801.48
1537.472, 19900.71
1538.503, 19912.24
1539.534, 19963.90
1540.564, 19928.63
1541.595, 19920.22
1542.625, 19998.75
1543.656, 20029.15
1544.686, 19983.88
1545.716, 20038.08
1546.745, 20129.00
1547.775, 20101.00
1548.804, 20098.00
1549.834, 20180.00
1550.863, 20215.00
1551.892, 20269.59
1552.920, 20244.00
1553.949, 20337.00
1554.977, 20420.00
1556.006, 20334.00
1557.034, 20440.00
1558.062, 20401.52
1559.089, 20403.00
1560.117, 20366.00
1561.144, 20299.00
1562.172, 20277.00
1563.199, 20413.00
1564.226, 20318.00
1565.252, 20478.00
1566.279, 20485.00
1567.305, 20508.00
1568.332, 20340.00
1569.358, 20447.00
1570.384, 20440.00
##END=



