##NAMES=Beryl
##RRUFFID=R050305
##IDEAL CHEMISTRY=Be_3_Al_2_Si_6_O_18_
##LOCALITY=Conselheiro Pena, Minas Gerais, Brazil
##OWNER=RRUFF
##SOURCE=Eugene Schlepp
##DESCRIPTION=Light blue fragment, variety aquamarine
##STATUS=The identification of this mineral has been confirmed by X-ray diffraction and chemical analysis
##URL=rruff.info/R050305
##MEASURED CHEMISTRY=(Be_0.91_Li_0.09_)_3_(Al_0.99_Fe^3+^_0.01_)_2_Si_6.00_O_18_Î‡Na_0.27_
##PIN_ID=L00797
##ORIENTATION=Laser parallel to c* (0 0 1). Fiducial mark perpendicular to laser is parallel to [-1 -1 0]
95.94800, 10363.00
97.18200, 10243.00
98.41600, 10667.00
99.64900, 10757.00
100.8830, 10979.00
102.1160, 11272.00
103.3490, 11308.00
104.5820, 11589.00
105.8150, 11889.00
107.0470, 12430.00
108.2800, 13003.00
109.5120, 13577.00
110.7440, 13563.00
111.9760, 13622.00
113.2080, 13913.00
114.4400, 14306.00
115.6710, 14799.00
116.9030, 15030.00
118.1340, 15202.00
119.3650, 15438.00
120.5960, 15286.00
121.8270, 15613.00
123.0580, 15462.00
124.2880, 15750.00
125.5190, 15572.00
126.7490, 15591.00
127.9790, 15519.00
129.2090, 15678.00
130.4390, 15618.00
131.6680, 15844.00
132.8980, 15735.00
134.1270, 15836.00
135.3560, 15855.00
136.5850, 15729.00
137.8140, 15671.00
139.0430, 15637.00
140.2710, 15451.40
141.5000, 15451.00
142.7280, 15132.00
143.9560, 14947.00
145.1840, 14831.00
146.4120, 14559.00
147.6390, 14580.00
148.8670, 14716.00
150.0940, 14722.00
151.3210, 14711.92
152.5490, 14571.00
153.7750, 14610.00
155.0020, 14596.00
156.2290, 14493.00
157.4550, 14760.00
158.6810, 14794.00
159.9080, 14858.00
161.1340, 14640.00
162.3590, 14939.00
163.5850, 14845.00
164.8110, 14917.00
166.0360, 15047.00
167.2610, 15012.00
168.4860, 15022.00
169.7110, 15048.00
170.9360, 15103.00
172.1610, 15092.00
173.3850, 15061.00
174.6100, 15054.87
175.8340, 15013.00
177.0580, 14979.00
178.2820, 14931.00
179.5050, 14879.00
180.7290, 14688.00
181.9520, 14650.57
183.1760, 14753.00
184.3990, 14488.00
185.6220, 14507.00
186.8450, 14465.00
188.0670, 14353.00
189.2900, 14358.00
190.5120, 14274.00
191.7340, 14314.00
192.9560, 14265.00
194.1780, 14245.00
195.4000, 14244.00
196.6220, 14135.00
197.8430, 14145.00
199.0640, 14244.00
200.2860, 14052.00
201.5070, 14230.00
202.7270, 14216.00
203.9480, 13918.00
205.1690, 13624.00
206.3890, 13477.00
207.6090, 13372.74
208.8290, 13369.00
210.0490, 13361.00
211.2690, 13349.00
212.4890, 13424.00
213.7080, 13428.00
214.9280, 13391.00
216.1470, 13313.00
217.3660, 13384.09
218.5850, 13488.00
219.8030, 13531.00
221.0220, 13617.00
222.2400, 13768.00
223.4590, 13694.00
224.6770, 13729.00
225.8950, 13949.00
227.1120, 13834.00
228.3300, 13922.00
229.5480, 13817.00
230.7650, 13954.00
231.9820, 13960.95
233.1990, 13917.00
234.4160, 14022.00
235.6330, 14047.00
236.8490, 14008.00
238.0660, 13986.00
239.2820, 14060.00
240.4980, 14030.00
241.7140, 13959.00
242.9300, 14082.00
244.1460, 14024.00
245.3610, 14026.00
246.5770, 14064.00
247.7920, 14007.74
249.0070, 13977.19
250.2220, 13929.00
251.4370, 13865.00
252.6510, 13784.00
253.8660, 13752.00
255.0800, 13755.00
256.2940, 13781.00
257.5080, 13641.00
258.7220, 13706.00
259.9360, 13672.84
261.1490, 13768.00
262.3630, 13665.00
263.5760, 13779.00
264.7890, 13764.00
266.0020, 13871.00
267.2150, 13857.00
268.4270, 13853.00
269.6400, 13889.63
270.8520, 13913.22
272.0640, 13899.00
273.2760, 14009.00
274.4880, 14015.00
275.7000, 14070.00
276.9120, 14082.00
278.1230, 14006.00
279.3340, 14019.00
280.5450, 14155.00
281.7560, 14365.00
282.9670, 14400.00
284.1780, 14557.28
285.3880, 14805.00
286.5980, 14778.00
287.8090, 15023.00
289.0190, 15144.00
290.2290, 15406.00
291.4380, 15440.00
292.6480, 15710.00
293.8570, 15692.00
295.0670, 15367.00
296.2760, 15370.00
297.4850, 14995.00
298.6930, 14970.00
299.9020, 14756.00
301.1110, 14555.00
302.3190, 14582.00
303.5270, 14489.00
304.7350, 14495.00
305.9430, 14647.00
307.1510, 14668.00
308.3580, 14549.00
309.5660, 14673.00
310.7730, 14807.00
311.9800, 14886.00
313.1870, 15112.00
314.3940, 15210.00
315.6010, 15306.00
316.8070, 15629.00
318.0130, 15956.00
319.2200, 16112.00
320.4260, 16485.00
321.6310, 16669.00
322.8370, 16923.00
324.0430, 16828.00
325.2480, 16829.00
326.4540, 16474.00
327.6590, 15749.00
328.8640, 15587.00
330.0680, 15096.00
331.2730, 14869.00
332.4780, 14460.00
333.6820, 14411.00
334.8860, 14333.00
336.0900, 14311.00
337.2940, 14081.00
338.4980, 14016.00
339.7010, 14109.00
340.9050, 14125.00
342.1080, 14217.00
343.3110, 14226.66
344.5140, 14163.00
345.7170, 14228.00
346.9200, 14239.00
348.1220, 14194.00
349.3240, 14189.00
350.5270, 14337.00
351.7290, 14389.00
352.9310, 14225.00
354.1320, 14470.00
355.3340, 14342.00
356.5350, 14485.00
357.7370, 14487.00
358.9380, 14409.00
360.1390, 14332.00
361.3400, 14349.51
362.5400, 14335.00
363.7410, 14369.00
364.9410, 14475.00
366.1410, 14521.00
367.3410, 14795.00
368.5410, 14756.00
369.7410, 14849.00
370.9400, 14886.00
372.1400, 14834.00
373.3390, 14772.00
374.5380, 15147.00
375.7370, 15171.00
376.9360, 15229.00
378.1350, 15477.00
379.3330, 15540.00
380.5310, 15771.71
381.7300, 15913.00
382.9280, 16250.00
384.1260, 16549.00
385.3230, 16857.00
386.5210, 17451.00
387.7180, 18048.00
388.9160, 18796.00
390.1130, 19874.00
391.3100, 20934.00
392.5060, 22180.00
393.7030, 23753.00
394.9000, 25532.00
396.0960, 27351.00
397.2920, 29702.00
398.4880, 30883.00
399.6840, 31363.00
400.8800, 30794.00
402.0750, 29054.00
403.2710, 26982.00
404.4660, 25002.00
405.6610, 23011.00
406.8560, 21555.00
408.0510, 20194.00
409.2450, 19806.00
410.4400, 18978.00
411.6340, 18673.00
412.8280, 18481.00
414.0220, 18432.00
415.2160, 18248.00
416.4100, 18258.33
417.6030, 18250.00
418.7970, 18264.00
419.9900, 18207.87
421.1830, 18288.00
422.3760, 18033.00
423.5690, 17942.00
424.7610, 17735.00
425.9540, 17274.00
427.1460, 17187.00
428.3380, 16827.00
429.5300, 16593.00
430.7220, 16407.00
431.9140, 16258.06
433.1050, 16137.00
434.2970, 16168.00
435.4880, 16126.00
436.6790, 16227.00
437.8700, 16125.00
439.0610, 16177.00
440.2510, 16136.00
441.4420, 16112.00
442.6320, 16183.00
443.8220, 16194.00
445.0120, 15981.00
446.2020, 15999.00
447.3910, 15809.00
448.5810, 16027.00
449.7700, 15773.00
450.9600, 15869.00
452.1490, 15719.00
453.3370, 15547.00
454.5260, 15599.00
455.7150, 15674.00
456.9030, 15462.00
458.0910, 15432.00
459.2800, 15366.00
460.4670, 15482.00
461.6550, 15333.00
462.8430, 15406.00
464.0300, 15357.00
465.2180, 15392.00
466.4050, 15316.00
467.5920, 15416.00
468.7790, 15299.00
469.9650, 15257.00
471.1520, 15288.00
472.3380, 15305.00
473.5250, 15347.00
474.7110, 15172.00
475.8970, 15369.00
477.0820, 15498.00
478.2680, 15310.00
479.4540, 15440.00
480.6390, 15459.00
481.8240, 15534.52
483.0090, 15577.00
484.1940, 15754.00
485.3780, 15511.00
486.5630, 15487.00
487.7470, 15761.00
488.9320, 15589.00
490.1160, 15685.00
491.3000, 15675.00
492.4830, 15750.00
493.6670, 15770.00
494.8500, 15635.00
496.0340, 15609.00
497.2170, 15843.00
498.4000, 15679.00
499.5820, 15686.00
500.7650, 15508.00
501.9480, 15659.00
503.1300, 15584.00
504.3120, 15649.00
505.4940, 15741.00
506.6760, 15657.00
507.8580, 15593.00
509.0390, 15559.00
510.2210, 15578.00
511.4020, 15639.00
512.5830, 15617.00
513.7640, 15701.00
514.9450, 15689.00
516.1250, 15801.00
517.3060, 15750.00
518.4860, 15963.00
519.6660, 15960.00
520.8460, 16091.00
522.0260, 16096.58
523.2060, 16155.58
524.3850, 16068.00
525.5650, 16207.00
526.7440, 16212.00
527.9230, 16138.00
529.1020, 16019.00
530.2810, 16310.00
531.4590, 16360.00
532.6380, 16247.00
533.8160, 16454.00
534.9940, 16376.00
536.1720, 16411.00
537.3500, 16486.00
538.5270, 16478.00
539.7050, 16340.00
540.8820, 16324.00
542.0590, 16442.00
543.2360, 16536.00
544.4130, 16409.00
545.5900, 16543.00
546.7660, 16518.26
547.9430, 16578.00
549.1190, 16565.00
550.2950, 16638.00
551.4710, 16719.00
552.6470, 16748.98
553.8220, 16838.00
554.9980, 16878.00
556.1730, 16943.00
557.3480, 17044.00
558.5230, 17144.04
559.6980, 17402.00
560.8730, 17372.00
562.0470, 17452.00
563.2220, 17510.00
564.3960, 17457.00
565.5700, 17447.00
566.7440, 17586.00
567.9170, 17690.00
569.0910, 17857.00
570.2640, 17903.78
571.4380, 17920.00
572.6110, 18016.00
573.7840, 18077.00
574.9570, 18155.00
576.1290, 18107.00
577.3020, 17978.00
578.4740, 17958.00
579.6460, 18052.00
580.8180, 17621.00
581.9900, 17805.00
583.1620, 17531.00
584.3330, 17397.00
585.5040, 17424.00
586.6760, 17314.00
587.8470, 17250.00
589.0180, 17123.00
590.1880, 17216.00
591.3590, 17154.00
592.5290, 17316.00
593.7000, 17124.00
594.8700, 16872.00
596.0400, 16865.00
597.2090, 17150.00
598.3790, 16962.00
599.5490, 16671.00
600.7180, 17072.00
601.8870, 16933.00
603.0560, 16803.00
604.2250, 16888.00
605.3940, 16865.00
606.5620, 16934.00
607.7300, 16794.00
608.8990, 16743.00
610.0670, 16704.00
611.2350, 16865.00
612.4020, 16801.00
613.5700, 17061.00
614.7370, 17042.00
615.9050, 17046.00
617.0720, 17027.00
618.2390, 17173.00
619.4060, 16886.00
620.5720, 16971.00
621.7390, 17087.00
622.9050, 16930.00
624.0710, 17117.00
625.2370, 16830.00
626.4030, 17002.00
627.5690, 17076.00
628.7340, 17073.00
629.9000, 17212.00
631.0650, 16946.00
632.2300, 16979.00
633.3950, 17029.00
634.5600, 16915.10
635.7240, 17303.00
636.8890, 16963.00
638.0530, 17290.00
639.2170, 17560.00
640.3810, 17443.67
641.5450, 17419.00
642.7080, 17473.00
643.8720, 17560.00
645.0350, 17519.00
646.1980, 17544.00
647.3610, 17525.00
648.5240, 17511.00
649.6870, 17674.00
650.8490, 17774.00
652.0120, 17831.00
653.1740, 17866.00
654.3360, 17895.51
655.4980, 17796.00
656.6600, 17913.00
657.8210, 17882.00
658.9830, 17910.00
660.1440, 18136.00
661.3050, 18427.00
662.4660, 18480.00
663.6270, 18714.00
664.7870, 18958.65
665.9480, 19257.00
667.1080, 19566.00
668.2680, 19888.00
669.4280, 20399.00
670.5880, 20978.00
671.7480, 21676.00
672.9070, 23036.00
674.0670, 23853.00
675.2260, 25600.00
676.3850, 27888.00
677.5440, 30276.00
678.7030, 34217.00
679.8610, 38546.00
681.0200, 43612.00
682.1780, 50267.00
683.3360, 56494.00
684.4940, 62214.00
685.6520, 65212.00
686.8090, 64849.00
687.9670, 61913.00
689.1240, 56224.00
690.2810, 49270.00
691.4380, 42990.00
692.5950, 37838.00
693.7520, 33671.00
694.9080, 30698.00
696.0650, 28542.00
697.2210, 26597.00
698.3770, 25321.00
699.5330, 24212.00
700.6880, 23552.00
701.8440, 22772.00
702.9990, 22304.00
704.1550, 21750.00
705.3100, 21092.00
706.4650, 20924.00
707.6190, 20836.00
708.7740, 20446.00
709.9290, 20176.00
711.0830, 20148.00
712.2370, 19907.60
713.3910, 19874.54
714.5450, 19665.00
715.6980, 19773.00
716.8520, 19609.00
718.0050, 19465.00
719.1580, 19524.00
720.3110, 19372.00
721.4640, 19513.00
722.6170, 19220.00
723.7700, 19310.00
724.9220, 19343.00
726.0740, 19230.00
727.2260, 19183.00
728.3780, 19290.00
729.5300, 19303.00
730.6810, 19287.92
731.8330, 19214.00
732.9840, 19219.00
734.1350, 19219.00
735.2860, 19098.00
736.4370, 19222.00
737.5880, 19097.00
738.7380, 18932.00
739.8880, 18957.00
741.0390, 18833.00
742.1890, 19050.00
743.3380, 18892.00
744.4880, 19053.00
745.6380, 19025.00
746.7870, 19176.00
747.9360, 19079.00
749.0850, 19138.00
750.2340, 19163.00
751.3830, 19324.00
752.5310, 19155.00
753.6800, 19379.00
754.8280, 19309.00
755.9760, 19468.00
757.1240, 19494.00
758.2720, 19423.00
759.4190, 19353.00
760.5670, 19417.00
761.7140, 19356.00
762.8610, 19206.00
764.0080, 19231.00
765.1550, 19113.74
766.3020, 19055.00
767.4480, 19022.00
768.5950, 18982.00
769.7410, 19077.00
770.8870, 19122.00
772.0330, 19025.00
773.1780, 19125.00
774.3240, 19092.08
775.4690, 18950.00
776.6140, 19054.00
777.7590, 19018.00
778.9040, 18911.00
780.0490, 18950.00
781.1940, 18915.00
782.3380, 18909.00
783.4820, 18966.00
784.6260, 18956.00
785.7700, 19010.00
786.9140, 18974.00
788.0580, 18976.00
789.2010, 18839.00
790.3450, 18948.00
791.4880, 18852.00
792.6310, 19000.00
793.7730, 18903.00
794.9160, 19106.00
796.0590, 18901.00
797.2010, 19077.00
798.3430, 19081.00
799.4850, 19054.00
800.6270, 18875.00
801.7690, 19075.00
802.9100, 18875.00
804.0520, 19057.00
805.1930, 18814.00
806.3340, 19101.00
807.4750, 19057.00
808.6160, 19095.00
809.7560, 19109.00
810.8970, 18983.00
812.0370, 19079.00
813.1770, 18987.00
814.3170, 19019.00
815.4570, 19039.00
816.5960, 19007.06
817.7360, 19050.06
818.8750, 19037.00
820.0140, 19123.00
821.1530, 19223.00
822.2920, 19325.00
823.4310, 19300.00
824.5690, 19291.00
825.7070, 19313.72
826.8460, 19372.00
827.9840, 19282.00
829.1220, 19251.00
830.2590, 19198.00
831.3970, 19280.00
832.5340, 19347.00
833.6710, 19458.00
834.8080, 19421.00
835.9450, 19457.00
837.0820, 19224.00
838.2190, 19422.00
839.3550, 19357.34
840.4910, 19540.00
841.6270, 19438.00
842.7630, 19516.00
843.8990, 19620.00
845.0350, 19394.00
846.1700, 19662.00
847.3060, 19417.00
848.4410, 19524.00
849.5760, 19737.00
850.7100, 19694.00
851.8450, 19596.00
852.9800, 19668.00
854.1140, 19633.00
855.2480, 19668.00
856.3820, 19816.00
857.5160, 19803.00
858.6500, 19907.00
859.7830, 19728.00
860.9170, 19768.00
862.0500, 20012.00
863.1830, 19937.00
864.3160, 19740.00
865.4480, 19937.00
866.5810, 19797.00
867.7130, 19864.00
868.8460, 19829.00
869.9780, 20050.00
871.1100, 19816.00
872.2410, 19954.00
873.3730, 19935.00
874.5050, 19895.00
875.6360, 20054.00
876.7670, 20187.00
877.8980, 19901.00
879.0290, 20019.00
880.1590, 19967.00
881.2900, 20210.00
882.4200, 20119.00
883.5500, 20233.00
884.6800, 20184.00
885.8100, 20105.00
886.9400, 20374.00
888.0690, 20362.00
889.1990, 20308.00
890.3280, 20047.00
891.4570, 20231.00
892.5860, 20328.00
893.7140, 20440.00
894.8430, 20480.00
895.9710, 20480.00
897.1000, 20596.00
898.2280, 20611.00
899.3560, 20593.00
900.4830, 20807.00
901.6110, 20713.00
902.7380, 20762.00
903.8660, 21089.00
904.9930, 20817.00
906.1200, 20862.00
907.2460, 21138.00
908.3730, 20921.00
909.5000, 21005.00
910.6260, 20926.00
911.7520, 21028.00
912.8780, 20920.00
914.0040, 21098.00
915.1290, 20971.00
916.2550, 21086.00
917.3800, 20810.00
918.5050, 21165.00
919.6300, 21204.00
920.7550, 21157.00
921.8800, 20915.00
923.0040, 21034.00
924.1290, 21151.00
925.2530, 20829.00
926.3770, 20982.00
927.5010, 21041.00
928.6250, 20943.00
929.7480, 21111.00
930.8720, 20958.00
931.9950, 21121.00
933.1180, 21079.00
934.2410, 20962.00
935.3640, 21237.00
936.4860, 21042.00
937.6090, 21016.00
938.7310, 21323.00
939.8530, 21016.00
940.9750, 21187.00
942.0970, 20927.00
943.2180, 21123.00
944.3400, 21115.00
945.4610, 21052.00
946.5820, 21135.00
947.7030, 21169.00
948.8240, 21177.00
949.9450, 21247.00
951.0650, 21260.78
952.1860, 21210.00
953.3060, 21352.00
954.4260, 21302.00
955.5460, 21413.00
956.6650, 21447.00
957.7850, 21364.00
958.9040, 21372.00
960.0230, 21443.00
961.1420, 21511.00
962.2610, 21562.00
963.3800, 21575.00
964.4990, 21503.00
965.6170, 21552.72
966.7350, 21505.00
967.8530, 21559.00
968.9710, 21585.00
970.0890, 21559.00
971.2070, 21642.00
972.3240, 21625.00
973.4410, 21698.00
974.5580, 21728.00
975.6750, 21882.00
976.7920, 21930.00
977.9090, 21959.00
979.0250, 22153.00
980.1410, 22236.00
981.2580, 21857.00
982.3740, 22414.00
983.4890, 22282.00
984.6050, 22488.00
985.7200, 22725.00
986.8360, 22798.00
987.9510, 23085.00
989.0660, 23133.00
990.1810, 23619.00
991.2950, 23783.00
992.4100, 24112.00
993.5240, 24146.00
994.6390, 24442.00
995.7530, 24684.00
996.8660, 24789.00
997.9800, 25018.00
999.0940, 25095.00
1000.207, 25283.00
1001.320, 25296.00
1002.433, 25357.78
1003.546, 25297.00
1004.659, 25339.00
1005.772, 25344.00
1006.884, 25216.00
1007.996, 25073.00
1009.108, 24923.00
1010.220, 24810.00
1011.332, 24720.00
1012.444, 24587.83
1013.555, 24458.44
1014.666, 24341.00
1015.777, 24178.00
1016.888, 24009.00
1017.999, 23875.45
1019.110, 23916.00
1020.220, 23696.00
1021.331, 23492.00
1022.441, 23557.00
1023.551, 23315.00
1024.661, 23373.00
1025.770, 23456.00
1026.880, 23423.00
1027.989, 23498.00
1029.098, 23466.00
1030.207, 23501.00
1031.316, 23130.00
1032.425, 23126.00
1033.533, 23322.00
1034.642, 23165.00
1035.750, 23391.00
1036.858, 23367.00
1037.966, 23489.00
1039.073, 23527.10
1040.181, 23266.00
1041.288, 23549.00
1042.396, 23548.00
1043.503, 23533.00
1044.610, 23754.00
1045.716, 23909.00
1046.823, 23682.00
1047.929, 24131.00
1049.036, 24119.00
1050.142, 24436.00
1051.248, 24670.00
1052.353, 24817.00
1053.459, 25160.00
1054.564, 25481.00
1055.670, 25792.00
1056.775, 26166.00
1057.880, 26545.33
1058.985, 26877.00
1060.089, 27382.00
1061.194, 27876.00
1062.298, 28346.00
1063.402, 28696.00
1064.506, 29043.00
1065.610, 29283.00
1066.713, 29362.00
1067.817, 29898.00
1068.920, 29846.00
1070.023, 29806.00
1071.126, 30008.00
1072.229, 29507.00
1073.332, 29746.00
1074.435, 29337.00
1075.537, 29051.00
1076.639, 28713.00
1077.741, 28601.00
1078.843, 28193.00
1079.945, 27973.00
1081.046, 27612.00
1082.148, 27314.51
1083.249, 26939.00
1084.350, 26762.00
1085.451, 26445.00
1086.551, 26255.00
1087.652, 26177.00
1088.752, 25699.00
1089.853, 26034.00
1090.953, 25403.00
1092.053, 25651.00
1093.152, 25335.00
1094.252, 25545.00
1095.351, 25460.00
1096.451, 25459.00
1097.550, 25430.00
1098.649, 25278.00
1099.748, 25222.00
1100.846, 25282.00
1101.945, 25218.00
1103.043, 25076.00
1104.141, 25209.00
1105.239, 25206.00
1106.337, 25266.00
1107.434, 25046.00
1108.532, 25189.00
1109.629, 25206.00
1110.726, 25091.00
1111.823, 25146.00
1112.920, 25139.00
1114.017, 25101.00
1115.113, 25023.00
1116.210, 25187.00
1117.306, 24991.00
1118.402, 25154.00
1119.498, 25245.00
1120.593, 25051.00
1121.689, 24971.00
1122.784, 25217.00
1123.879, 25211.00
1124.974, 25161.00
1126.069, 25288.00
1127.164, 25523.00
1128.259, 25387.00
1129.353, 25690.00
1130.447, 25300.00
1131.541, 25331.00
1132.635, 25370.00
1133.729, 25721.00
1134.822, 25717.00
1135.916, 25446.00
1137.009, 25408.00
1138.102, 25445.00
1139.195, 25465.00
1140.288, 25538.00
1141.380, 25591.00
1142.473, 25594.96
1143.565, 25593.00
1144.657, 25596.00
1145.749, 25564.00
1146.841, 25540.00
1147.932, 25474.00
1149.024, 25340.00
1150.115, 25476.00
1151.206, 25395.00
1152.297, 25497.00
1153.388, 25304.00
1154.479, 25116.00
1155.569, 25397.00
1156.659, 25188.00
1157.750, 25266.00
1158.839, 24890.00
1159.929, 24841.00
1161.019, 24881.00
1162.108, 24826.00
1163.198, 24933.00
1164.287, 24937.00
1165.376, 24851.00
1166.465, 24912.00
1167.553, 24930.00
1168.642, 25134.00
1169.730, 24836.00
1170.818, 24953.00
1171.906, 25063.00
1172.994, 24976.00
1174.082, 25243.00
1175.170, 25175.00
1176.257, 25261.00
1177.344, 25107.00
1178.431, 25296.00
1179.518, 25136.00
1180.605, 25216.00
1181.691, 25452.00
1182.778, 25283.00
1183.864, 25304.00
1184.950, 25441.00
1186.036, 25490.00
1187.122, 25358.00
1188.207, 25494.00
1189.292, 25454.00
1190.378, 25658.00
1191.463, 25666.00
1192.548, 25439.00
1193.632, 25573.00
1194.717, 25506.00
1195.801, 25710.00
1196.886, 25741.00
1197.970, 25616.00
1199.054, 25765.00
1200.137, 25701.00
1201.221, 25879.00
1202.305, 25759.00
1203.388, 25894.00
1204.471, 25956.00
1205.554, 25730.00
1206.637, 25794.00
1207.719, 26020.00
1208.802, 25892.00
1209.884, 25831.00
1210.966, 25996.00
1212.048, 25775.00
1213.130, 25962.00
1214.212, 26129.00
1215.293, 25783.00
1216.374, 26239.00
1217.456, 26057.00
1218.536, 26059.00
1219.617, 26027.00
1220.698, 26227.00
1221.778, 25972.00
1222.859, 26183.00
1223.939, 26287.00
1225.019, 26252.00
1226.099, 26291.00
1227.178, 26395.00
1228.258, 26229.00
1229.337, 26175.00
1230.417, 26168.00
1231.496, 26125.00
1232.574, 25847.00
1233.653, 25855.00
1234.732, 25626.00
1235.810, 25652.00
1236.888, 25580.00
1237.966, 25420.00
1239.044, 25595.00
1240.122, 25456.17
1241.199, 25498.00
1242.277, 25384.00
1243.354, 25222.00
1244.431, 25199.00
1245.508, 25255.00
1246.585, 25366.00
1247.661, 25237.00
1248.738, 25399.00
1249.814, 25429.00
1250.890, 25245.00
1251.966, 25118.00
1253.042, 25279.00
1254.117, 25074.00
1255.193, 25149.00
1256.268, 25286.00
1257.343, 25232.00
1258.418, 25004.00
1259.493, 25353.00
1260.567, 25249.00
1261.642, 25107.00
1262.716, 25259.00
1263.790, 25260.00
1264.864, 25169.00
1265.938, 25249.00
1267.011, 25318.00
1268.085, 25239.00
1269.158, 25160.00
1270.231, 25182.00
1271.304, 25263.00
1272.377, 25407.00
1273.450, 25250.00
1274.522, 25376.00
1275.594, 25305.00
1276.666, 25180.00
1277.738, 25356.00
1278.810, 25383.00
1279.882, 25403.00
1280.953, 25271.00
1282.025, 25386.00
1283.096, 25511.00
1284.167, 25211.00
1285.238, 25263.00
1286.308, 25425.00
1287.379, 25390.00
1288.449, 25401.00
1289.519, 25340.00
1290.589, 25306.00
1291.659, 25307.00
1292.729, 25684.00
1293.798, 25612.00
1294.868, 25515.00
1295.937, 25582.00
1297.006, 25449.00
1298.075, 25525.00
1299.143, 25473.00
1300.212, 25416.00
1301.280, 25523.00
1302.348, 25593.00
1303.416, 25482.00
1304.484, 25392.00
1305.552, 25663.00
1306.620, 25630.00
1307.687, 25473.00
1308.754, 25682.00
1309.821, 25533.00
1310.888, 25731.00
1311.955, 25747.00
1313.021, 25583.00
1314.088, 25644.00
1315.154, 25618.00
1316.220, 25663.00
1317.286, 25349.00
1318.352, 25791.00
1319.417, 25698.00
1320.483, 25626.00
1321.548, 25906.00
1322.613, 25999.00
1323.678, 25925.00
1324.743, 25855.00
1325.807, 25948.00
1326.872, 25905.00
1327.936, 25919.00
1329.000, 25918.00
1330.064, 25844.00
1331.128, 25877.00
1332.191, 25869.00
1333.255, 25886.00
1334.318, 25919.00
1335.381, 25854.00
1336.444, 25961.00
1337.507, 25835.00
1338.569, 25879.00
1339.632, 25984.00
1340.694, 26186.00
1341.756, 26084.00
1342.818, 26150.38
1343.880, 26092.00
1344.941, 26097.00
1346.003, 26120.00
1347.064, 26116.00
1348.125, 26173.00
1349.186, 25992.00
1350.247, 26012.00
1351.308, 26073.00
1352.368, 26141.00
1353.428, 26224.00
1354.489, 26103.00
1355.549, 26225.00
1356.608, 26278.00
1357.668, 26264.00
1358.727, 26371.00
1359.787, 26106.00
1360.846, 26418.00
1361.905, 26339.00
1362.964, 26135.00
1364.022, 26192.00
1365.081, 26272.00
1366.139, 26421.00
1367.197, 26375.20
1368.255, 26343.00
1369.313, 26324.00
1370.371, 26380.00
1371.428, 26374.00
1372.486, 26364.85
1373.543, 26360.00
1374.600, 26324.00
1375.657, 26347.00
1376.713, 26308.00
1377.770, 26454.00
1378.826, 26360.00
1379.882, 26670.00
1380.938, 26330.00
1381.994, 26588.00
1383.050, 26517.00
1384.106, 26741.00
1385.161, 26890.00
1386.216, 26943.00
1387.271, 26828.00
1388.326, 26522.00
1389.381, 26531.00
1390.435, 26449.00
1391.490, 26566.00
1392.544, 26663.00
1393.598, 26421.00
1394.652, 26462.00
1395.705, 26312.00
1396.759, 26659.00
1397.812, 26287.00
1398.866, 26354.00
1399.919, 26681.00
1400.972, 26546.00
1402.024, 26455.00
1403.077, 26346.00
1404.129, 26633.00
1405.181, 26731.00
1406.233, 26730.00
1407.285, 26490.00
1408.337, 26702.00
1409.389, 26667.00
1410.440, 26757.00
1411.491, 26704.00
1412.542, 26670.00
1413.593, 26664.00
1414.644, 26727.00
1415.695, 26850.00
1416.745, 26804.00
1417.795, 26649.00
1418.845, 26949.00
1419.895, 26943.00
1420.945, 26743.00
1421.995, 26844.00
1423.044, 26692.00
1424.093, 26689.00
1425.142, 26969.00
1426.191, 26926.00
1427.240, 26844.00
1428.289, 27126.00
1429.337, 26780.00
1430.385, 26798.00
1431.433, 27080.00
1432.481, 27171.00
1433.529, 26910.00
1434.577, 27099.00
1435.624, 27024.00
1436.672, 26966.00
1437.719, 27072.00
1438.766, 27086.00
1439.812, 26966.00
1440.859, 27020.00
1441.905, 27541.00
1442.952, 27351.00
1443.998, 27352.00
1445.044, 27490.00
1446.090, 27319.00
1447.135, 27418.00
1448.181, 27323.00
1449.226, 27366.00
1450.271, 27500.00
1451.316, 27460.00
1452.361, 27603.00
1453.405, 27425.00
1454.450, 27398.00
1455.494, 27512.00
1456.538, 27684.00
1457.582, 27704.00
1458.626, 27649.00
1459.670, 27549.00
1460.713, 27686.00
1461.757, 27677.00
1462.800, 27571.00
1463.843, 27380.00
1464.886, 27725.00
1465.928, 27421.00
1466.971, 27700.00
1468.013, 27547.00
1469.055, 27633.00
1470.097, 27762.00
1471.139, 27653.00
1472.181, 27875.00
1473.222, 27705.00
1474.263, 27681.00
1475.305, 27629.00
1476.346, 27672.00
1477.386, 27833.00
1478.427, 27761.00
1479.468, 27887.00
1480.508, 27753.00
1481.548, 27693.00
1482.588, 27882.00
1483.628, 27907.00
1484.668, 27867.00
1485.707, 27850.00
1486.747, 27895.00
1487.786, 27900.00
1488.825, 27938.00
1489.864, 27808.00
1490.902, 27769.00
1491.941, 27961.00
1492.979, 28034.00
1494.017, 27825.00
1495.055, 27854.00
1496.093, 28018.00
1497.131, 28096.00
1498.168, 28052.00
1499.206, 27863.00
1500.243, 28062.00
1501.280, 28012.00
1502.317, 28250.00
1503.354, 28122.00
1504.390, 28143.00
1505.426, 28144.00
1506.463, 28224.00
1507.499, 28409.00
1508.535, 28293.00
1509.570, 28037.00
1510.606, 28293.00
1511.641, 28204.00
1512.676, 28346.00
1513.711, 28260.00
1514.746, 28247.00
1515.781, 28375.00
1516.816, 28395.00
1517.850, 28331.00
1518.884, 28271.00
1519.918, 28223.00
1520.952, 28312.00
1521.986, 28401.00
1523.019, 28447.00
1524.053, 28496.90
1525.086, 28537.35
1526.119, 28521.00
1527.152, 28547.00
1528.185, 28486.00
1529.217, 28389.00
1530.250, 28739.00
1531.282, 28571.00
1532.314, 28499.00
1533.346, 28576.00
1534.377, 28403.00
1535.409, 28579.00
1536.440, 28584.00
1537.472, 28621.00
1538.503, 28739.00
1539.534, 28755.00
1540.564, 28780.00
1541.595, 28768.00
1542.625, 28751.00
1543.656, 28633.00
1544.686, 28659.00
1545.716, 28689.72
1546.745, 28571.00
1547.775, 28811.00
1548.804, 28879.00
1549.834, 28903.00
1550.863, 29080.00
1551.892, 29020.25
1552.920, 29016.00
1553.949, 28965.00
1554.977, 29012.00
1556.006, 28994.00
1557.034, 28945.00
1558.062, 29076.00
1559.089, 29031.00
1560.117, 28912.00
1561.144, 29128.00
1562.172, 29072.00
1563.199, 28752.00
1564.226, 29030.00
1565.252, 29036.00
1566.279, 28973.00
1567.305, 29140.00
1568.332, 29307.00
1569.358, 29074.00
1570.384, 29459.00
##END=



