##NAMES=Beryl
##RRUFFID=R060942
##IDEAL CHEMISTRY=Be_3_Al_2_Si_6_O_18_
##LOCALITY=Mingore mine, Swat Valley, Pakistan
##OWNER=RRUFF
##SOURCE=Lawrence W. Snee
##DESCRIPTION=Green hexagonal prisms, variety emerald
##STATUS=The identification of this mineral has been confirmed by X-ray diffraction and chemical analysis
##URL=rruff.info/R060942
##MEASURED CHEMISTRY=(Be_2.94_Li_0.06_)_Σ=3_(Al_1.55_Mg_0.37_Fe^3+^_0.06_Cr^3+^_0.02_)_Σ=2_Si_6.00_O_18_·Na_0.42_; Be and Li not measured but estimated by stoichiometry
##PIN_ID=L01655
##ORIENTATION=Laser parallel to c* (0 0 1). Fiducial mark perpendicular to laser is parallel to [-1 -1 0]
130.4390, 13711.00
131.6680, 13881.00
132.8980, 13790.00
134.1270, 13661.00
135.3560, 13679.00
136.5850, 13909.00
137.8140, 14035.00
139.0430, 14677.00
140.2710, 14620.00
141.5000, 14574.00
142.7280, 14320.00
143.9560, 14178.00
145.1840, 14023.00
146.4120, 14144.00
147.6390, 13963.00
148.8670, 13719.00
150.0940, 13971.86
151.3210, 13747.73
152.5490, 13758.35
153.7750, 13617.00
155.0020, 13626.00
156.2290, 13538.00
157.4550, 13316.00
158.6810, 13259.00
159.9080, 13130.00
161.1340, 13141.00
162.3590, 13381.00
163.5850, 13755.00
164.8110, 13846.00
166.0360, 13683.00
167.2610, 13819.00
168.4860, 13796.00
169.7110, 13698.00
170.9360, 13902.00
172.1610, 13672.00
173.3850, 13445.00
174.6100, 13519.00
175.8340, 13710.00
177.0580, 13724.00
178.2820, 13531.00
179.5050, 13730.00
180.7290, 13491.00
181.9520, 13532.00
183.1760, 13667.00
184.3990, 13537.00
185.6220, 13635.00
186.8450, 13803.00
188.0670, 13683.00
189.2900, 13673.00
190.5120, 13764.00
191.7340, 13837.00
192.9560, 14007.00
194.1780, 13869.00
195.4000, 14103.00
196.6220, 14112.00
197.8430, 14102.00
199.0640, 14263.00
200.2860, 14409.00
201.5070, 14670.00
202.7270, 14657.00
203.9480, 14113.00
205.1690, 13366.00
206.3890, 12817.00
207.6090, 12386.00
208.8290, 12413.00
210.0490, 12418.00
211.2690, 12436.00
212.4890, 12557.00
213.7080, 12535.00
214.9280, 12541.00
216.1470, 12454.00
217.3660, 12343.00
218.5850, 12263.00
219.8030, 12268.00
221.0220, 12218.00
222.2400, 12302.00
223.4590, 12265.00
224.6770, 12317.00
225.8950, 12333.00
227.1120, 12373.00
228.3300, 12389.00
229.5480, 12428.00
230.7650, 12417.00
231.9820, 12482.00
233.1990, 12301.00
234.4160, 12616.00
235.6330, 12455.00
236.8490, 12667.00
238.0660, 12467.00
239.2820, 12359.00
240.4980, 12459.00
241.7140, 12506.00
242.9300, 12487.00
244.1460, 12471.00
245.3610, 12378.00
246.5770, 12392.00
247.7920, 12267.00
249.0070, 12415.00
250.2220, 12340.00
251.4370, 12305.00
252.6510, 12262.00
253.8660, 12170.00
255.0800, 12159.00
256.2940, 12304.00
257.5080, 12930.00
258.7220, 12862.69
259.9360, 12897.40
261.1490, 13183.00
262.3630, 12734.00
263.5760, 12949.00
264.7890, 13131.00
266.0020, 13396.00
267.2150, 13546.00
268.4270, 13445.00
269.6400, 13189.00
270.8520, 13027.00
272.0640, 12802.00
273.2760, 12678.00
274.4880, 12585.00
275.7000, 12465.20
276.9120, 12582.00
278.1230, 12369.00
279.3340, 12350.00
280.5450, 12418.00
281.7560, 12600.00
282.9670, 12586.00
284.1780, 12603.00
285.3880, 12663.00
286.5980, 12679.00
287.8090, 12650.00
289.0190, 12765.00
290.2290, 12711.00
291.4380, 12645.00
292.6480, 12626.99
293.8570, 12540.00
295.0670, 12435.00
296.2760, 12174.00
297.4850, 11969.00
298.6930, 11818.00
299.9020, 11698.50
301.1110, 11664.00
302.3190, 11614.00
303.5270, 11678.00
304.7350, 11766.00
305.9430, 11657.00
307.1510, 11720.00
308.3580, 11742.00
309.5660, 11699.00
310.7730, 11800.00
311.9800, 11864.00
313.1870, 12035.00
314.3940, 12089.00
315.6010, 12321.00
316.8070, 12327.00
318.0130, 12517.00
319.2200, 12677.00
320.4260, 13047.00
321.6310, 12946.00
322.8370, 13167.00
324.0430, 13230.00
325.2480, 13236.00
326.4540, 12906.00
327.6590, 12631.00
328.8640, 12377.00
330.0680, 12087.68
331.2730, 11760.00
332.4780, 11554.00
333.6820, 11474.00
334.8860, 11215.00
336.0900, 11204.00
337.2940, 11103.00
338.4980, 11035.00
339.7010, 11011.00
340.9050, 11025.00
342.1080, 11056.00
343.3110, 10891.00
344.5140, 11021.00
345.7170, 11045.00
346.9200, 10930.00
348.1220, 10967.00
349.3240, 11021.00
350.5270, 10887.00
351.7290, 10880.00
352.9310, 10960.00
354.1320, 11011.00
355.3340, 11086.00
356.5350, 10974.00
357.7370, 10897.00
358.9380, 10999.00
360.1390, 10852.00
361.3400, 10957.00
362.5400, 11073.00
363.7410, 11090.00
364.9410, 10979.00
366.1410, 10988.00
367.3410, 11126.00
368.5410, 11008.00
369.7410, 11162.00
370.9400, 11285.00
372.1400, 11381.00
373.3390, 11339.00
374.5380, 11330.00
375.7370, 11352.00
376.9360, 11528.00
378.1350, 11549.00
379.3330, 11662.00
380.5310, 11984.00
381.7300, 12112.16
382.9280, 12514.00
384.1260, 12752.00
385.3230, 13033.00
386.5210, 13707.00
387.7180, 14358.00
388.9160, 15243.00
390.1130, 16341.00
391.3100, 17563.00
392.5060, 19193.00
393.7030, 20731.00
394.9000, 22529.00
396.0960, 24314.00
397.2920, 25758.00
398.4880, 26744.00
399.6840, 26594.00
400.8800, 25826.00
402.0750, 24361.00
403.2710, 22772.00
404.4660, 21241.00
405.6610, 19942.00
406.8560, 18541.00
408.0510, 17869.00
409.2450, 17365.00
410.4400, 16682.00
411.6340, 16109.00
412.8280, 15594.00
414.0220, 15285.00
415.2160, 14861.00
416.4100, 14676.00
417.6030, 14416.00
418.7970, 14096.00
419.9900, 13741.00
421.1830, 13513.00
422.3760, 13219.00
423.5690, 13161.00
424.7610, 13022.00
425.9540, 12960.00
427.1460, 12769.00
428.3380, 12638.00
429.5300, 12738.00
430.7220, 12827.00
431.9140, 12868.00
433.1050, 12874.00
434.2970, 13037.00
435.4880, 12995.00
436.6790, 13089.00
437.8700, 13007.00
439.0610, 12977.61
440.2510, 13075.00
441.4420, 12833.00
442.6320, 12655.00
443.8220, 12541.00
445.0120, 12214.00
446.2020, 11932.00
447.3910, 12048.00
448.5810, 11701.00
449.7700, 11517.00
450.9600, 11535.00
452.1490, 11445.00
453.3370, 11302.00
454.5260, 11422.00
455.7150, 11338.00
456.9030, 11304.00
458.0910, 11391.00
459.2800, 11394.00
460.4670, 11295.00
461.6550, 11279.61
462.8430, 11224.92
464.0300, 11125.00
465.2180, 11148.00
466.4050, 11106.00
467.5920, 11127.00
468.7790, 11152.00
469.9650, 11158.00
471.1520, 11126.00
472.3380, 11168.00
473.5250, 11347.00
474.7110, 11280.00
475.8970, 11292.00
477.0820, 11342.00
478.2680, 11278.00
479.4540, 11479.00
480.6390, 11467.00
481.8240, 11398.00
483.0090, 11258.00
484.1940, 11354.00
485.3780, 11293.00
486.5630, 11372.00
487.7470, 11428.00
488.9320, 11247.00
490.1160, 11254.00
491.3000, 11339.00
492.4830, 11294.00
493.6670, 11359.00
494.8500, 11405.00
496.0340, 11303.00
497.2170, 11228.00
498.4000, 11451.00
499.5820, 11405.00
500.7650, 11444.00
501.9480, 11451.00
503.1300, 11479.00
504.3120, 11410.00
505.4940, 11434.00
506.6760, 11476.00
507.8580, 11380.00
509.0390, 11553.00
510.2210, 11538.00
511.4020, 11497.00
512.5830, 11669.00
513.7640, 11743.00
514.9450, 11777.00
516.1250, 11745.00
517.3060, 11793.00
518.4860, 11766.19
519.6660, 11788.00
520.8460, 11710.00
522.0260, 11712.00
523.2060, 11644.73
524.3850, 11586.03
525.5650, 11566.00
526.7440, 11436.00
527.9230, 11364.00
529.1020, 11247.00
530.2810, 11236.00
531.4590, 11239.00
532.6380, 11069.00
533.8160, 11164.00
534.9940, 11158.00
536.1720, 11093.00
537.3500, 11153.00
538.5270, 11140.00
539.7050, 11120.00
540.8820, 11086.00
542.0590, 11150.00
543.2360, 11138.25
544.4130, 11233.00
545.5900, 11189.00
546.7660, 11295.00
547.9430, 11339.00
549.1190, 11395.00
550.2950, 11556.00
551.4710, 11738.00
552.6470, 11949.00
553.8220, 12072.00
554.9980, 12290.00
556.1730, 12569.00
557.3480, 12674.00
558.5230, 13004.00
559.6980, 13419.00
560.8730, 13462.00
562.0470, 13550.00
563.2220, 13531.00
564.3960, 13576.00
565.5700, 13594.00
566.7440, 13439.00
567.9170, 13374.00
569.0910, 13344.00
570.2640, 13259.35
571.4380, 13387.00
572.6110, 13206.00
573.7840, 13218.00
574.9570, 13271.00
576.1290, 12958.00
577.3020, 13104.00
578.4740, 12984.00
579.6460, 12661.00
580.8180, 12698.00
581.9900, 12964.00
583.1620, 12687.00
584.3330, 12770.00
585.5040, 12724.00
586.6760, 12579.00
587.8470, 12613.00
589.0180, 12568.00
590.1880, 12533.00
591.3590, 12514.19
592.5290, 12458.74
593.7000, 12440.00
594.8700, 12351.00
596.0400, 12314.00
597.2090, 12239.00
598.3790, 12104.00
599.5490, 12089.00
600.7180, 11951.00
601.8870, 11920.00
603.0560, 11813.00
604.2250, 11668.00
605.3940, 11763.00
606.5620, 11740.00
607.7300, 11761.00
608.8990, 11711.00
610.0670, 11694.10
611.2350, 11582.00
612.4020, 11609.00
613.5700, 11625.00
614.7370, 11547.00
615.9050, 11410.00
617.0720, 11395.00
618.2390, 11176.00
619.4060, 11144.00
620.5720, 11103.00
621.7390, 11051.00
622.9050, 11159.00
624.0710, 11167.00
625.2370, 11084.00
626.4030, 10986.00
627.5690, 10957.00
628.7340, 10941.94
629.9000, 11002.00
631.0650, 10997.00
632.2300, 11001.00
633.3950, 11077.00
634.5600, 11098.00
635.7240, 10994.00
636.8890, 11159.00
638.0530, 11021.00
639.2170, 11045.00
640.3810, 11081.00
641.5450, 11095.00
642.7080, 11070.00
643.8720, 11087.26
645.0350, 11060.00
646.1980, 11111.00
647.3610, 11081.00
648.5240, 11159.00
649.6870, 11164.00
650.8490, 11181.00
652.0120, 11153.00
653.1740, 11343.00
654.3360, 11328.00
655.4980, 11430.00
656.6600, 11451.00
657.8210, 11504.00
658.9830, 11676.00
660.1440, 11647.00
661.3050, 11945.00
662.4660, 12085.00
663.6270, 12156.00
664.7870, 12438.00
665.9480, 12643.00
667.1080, 13028.00
668.2680, 13408.00
669.4280, 13735.00
670.5880, 14426.00
671.7480, 15131.00
672.9070, 16031.00
674.0670, 17278.00
675.2260, 18730.00
676.3850, 20627.00
677.5440, 23319.00
678.7030, 26606.00
679.8610, 30816.65
681.0200, 35539.00
682.1780, 41141.00
683.3360, 47627.00
684.4940, 54098.00
685.6520, 59099.00
686.8090, 61699.00
687.9670, 60826.00
689.1240, 56604.00
690.2810, 50660.00
691.4380, 43992.00
692.5950, 37569.00
693.7520, 32016.00
694.9080, 27896.00
696.0650, 24892.00
697.2210, 22257.00
698.3770, 20402.00
699.5330, 18980.00
700.6880, 17660.00
701.8440, 16814.00
702.9990, 16520.00
704.1550, 15552.82
705.3100, 15143.00
706.4650, 14537.00
707.6190, 14092.00
708.7740, 14080.00
709.9290, 13802.00
711.0830, 13408.00
712.2370, 13526.00
713.3910, 13021.00
714.5450, 12753.00
715.6980, 12554.00
716.8520, 12572.00
718.0050, 12287.00
719.1580, 12390.00
720.3110, 12217.00
721.4640, 12105.00
722.6170, 11998.00
723.7700, 11916.00
724.9220, 11823.00
726.0740, 11908.00
727.2260, 11772.00
728.3780, 11795.00
729.5300, 11680.00
730.6810, 11651.00
731.8330, 11753.00
732.9840, 11684.99
734.1350, 11669.00
735.2860, 11722.00
736.4370, 11753.00
737.5880, 11835.00
738.7380, 11578.00
739.8880, 11841.00
741.0390, 11704.00
742.1890, 11628.00
743.3380, 11820.00
744.4880, 11732.00
745.6380, 11747.00
746.7870, 11738.00
747.9360, 11756.00
749.0850, 11831.00
750.2340, 11722.00
751.3830, 11630.00
752.5310, 11662.00
753.6800, 11490.00
754.8280, 11793.00
755.9760, 11625.00
757.1240, 11520.00
758.2720, 11421.00
759.4190, 12080.00
760.5670, 12239.00
761.7140, 11727.00
762.8610, 11310.00
764.0080, 11398.00
765.1550, 11439.00
766.3020, 11370.00
767.4480, 11339.00
768.5950, 11363.00
769.7410, 11258.00
770.8870, 11361.00
772.0330, 11236.00
773.1780, 11326.00
774.3240, 11111.00
775.4690, 11191.00
776.6140, 11175.00
777.7590, 11108.00
778.9040, 11155.00
780.0490, 11098.00
781.1940, 11093.78
782.3380, 11227.49
783.4820, 11297.67
784.6260, 11307.74
785.7700, 11077.63
786.9140, 11157.65
788.0580, 11113.39
789.2010, 11064.04
790.3450, 11187.72
791.4880, 10992.56
792.6310, 11113.50
793.7730, 11108.27
794.9160, 11160.78
796.0590, 11003.00
797.2010, 10946.00
798.3430, 11023.00
799.4850, 10959.00
800.6270, 11025.00
801.7690, 10969.00
802.9100, 10881.00
804.0520, 11007.00
805.1930, 11003.00
806.3340, 10963.00
807.4750, 10918.00
808.6160, 10897.00
809.7560, 10946.00
810.8970, 10876.00
812.0370, 10954.00
813.1770, 10878.90
814.3170, 10948.00
815.4570, 10788.00
816.5960, 10756.00
817.7360, 10778.00
818.8750, 10779.00
820.0140, 10752.00
821.1530, 10765.00
822.2920, 10668.00
823.4310, 10820.00
824.5690, 10856.00
825.7070, 10817.00
826.8460, 10746.00
827.9840, 10826.00
829.1220, 10676.00
830.2590, 10768.00
831.3970, 10752.00
832.5340, 10788.00
833.6710, 10785.00
834.8080, 10861.00
835.9450, 10943.00
837.0820, 10800.00
838.2190, 10864.00
839.3550, 10943.00
840.4910, 10989.00
841.6270, 10908.00
842.7630, 10938.47
843.8990, 10904.51
845.0350, 10908.00
846.1700, 10869.00
847.3060, 10914.00
848.4410, 10951.00
849.5760, 10929.00
850.7100, 10855.00
851.8450, 10897.00
852.9800, 11023.00
854.1140, 10847.00
855.2480, 10917.00
856.3820, 11051.00
857.5160, 10912.00
858.6500, 10939.00
859.7830, 10964.00
860.9170, 10919.00
862.0500, 10899.00
863.1830, 10914.74
864.3160, 11012.00
865.4480, 10953.83
866.5810, 10960.96
867.7130, 11024.00
868.8460, 10942.00
869.9780, 10955.00
871.1100, 10969.00
872.2410, 10995.00
873.3730, 10944.00
874.5050, 11015.00
875.6360, 11050.00
876.7670, 10915.00
877.8980, 10967.00
879.0290, 11025.00
880.1590, 10934.00
881.2900, 10972.00
882.4200, 10998.00
883.5500, 10975.71
884.6800, 10964.00
885.8100, 11033.00
886.9400, 10943.00
888.0690, 11049.00
889.1990, 11183.00
890.3280, 11209.00
891.4570, 11208.00
892.5860, 11271.13
893.7140, 11243.21
894.8430, 11333.00
895.9710, 11297.00
897.1000, 11362.00
898.2280, 11582.00
899.3560, 11428.00
900.4830, 11680.00
901.6110, 11647.00
902.7380, 11648.00
903.8660, 11757.64
904.9930, 11736.66
906.1200, 11831.00
907.2460, 11807.00
908.3730, 11801.00
909.5000, 11865.00
910.6260, 12032.00
911.7520, 11920.00
912.8780, 11898.00
914.0040, 11978.00
915.1290, 11871.57
916.2550, 11921.00
917.3800, 11811.00
918.5050, 11828.00
919.6300, 11885.00
920.7550, 11814.21
921.8800, 11764.22
923.0040, 11813.00
924.1290, 11764.25
925.2530, 11700.00
926.3770, 11731.00
927.5010, 11773.00
928.6250, 11711.00
929.7480, 11695.00
930.8720, 11678.11
931.9950, 11655.00
933.1180, 11631.00
934.2410, 11602.00
935.3640, 11601.00
936.4860, 11518.00
937.6090, 11439.00
938.7310, 11686.00
939.8530, 11853.00
940.9750, 11458.00
942.0970, 11632.63
943.2180, 11571.56
944.3400, 11505.00
945.4610, 11568.00
946.5820, 11494.00
947.7030, 11458.00
948.8240, 11477.00
949.9450, 11457.00
951.0650, 11547.00
952.1860, 11465.00
953.3060, 11320.00
954.4260, 11381.00
955.5460, 11491.00
956.6650, 11378.00
957.7850, 11475.00
958.9040, 11353.00
960.0230, 11460.00
961.1420, 11473.00
962.2610, 11476.00
963.3800, 11543.00
964.4990, 11500.00
965.6170, 11530.00
966.7350, 11659.00
967.8530, 11502.00
968.9710, 11661.00
970.0890, 11529.00
971.2070, 11664.00
972.3240, 11853.00
973.4410, 11625.00
974.5580, 11760.00
975.6750, 11865.00
976.7920, 11793.00
977.9090, 11881.00
979.0250, 11979.00
980.1410, 11989.00
981.2580, 12219.00
982.3740, 12280.00
983.4890, 12376.00
984.6050, 12421.00
985.7200, 12679.00
986.8360, 12912.00
987.9510, 13193.00
989.0660, 13408.74
990.1810, 13450.00
991.2950, 13840.00
992.4100, 14050.00
993.5240, 14233.00
994.6390, 14583.00
995.7530, 14687.00
996.8660, 14752.00
997.9800, 15014.00
999.0940, 15112.00
1000.207, 14989.00
1001.320, 14740.00
1002.433, 14821.00
1003.546, 14680.00
1004.659, 14491.00
1005.772, 14282.00
1006.884, 14221.00
1007.996, 14077.00
1009.108, 14029.00
1010.220, 13768.00
1011.332, 13771.00
1012.444, 13591.00
1013.555, 13365.00
1014.666, 13465.00
1015.777, 13241.00
1016.888, 13361.00
1017.999, 13216.17
1019.110, 13104.00
1020.220, 13043.00
1021.331, 12960.00
1022.441, 13000.00
1023.551, 12803.00
1024.661, 12845.00
1025.770, 12797.00
1026.880, 12694.00
1027.989, 12680.00
1029.098, 12690.00
1030.207, 12739.00
1031.316, 12480.00
1032.425, 12417.00
1033.533, 12527.00
1034.642, 12393.00
1035.750, 12429.00
1036.858, 12322.00
1037.966, 12475.00
1039.073, 12394.00
1040.181, 12452.00
1041.288, 12531.00
1042.396, 12592.00
1043.503, 12645.00
1044.610, 12616.00
1045.716, 12617.00
1046.823, 12689.00
1047.929, 12905.00
1049.036, 13000.00
1050.142, 13171.00
1051.248, 13248.00
1052.353, 13506.00
1053.459, 13757.00
1054.564, 13993.00
1055.670, 14133.00
1056.775, 14657.00
1057.880, 14955.00
1058.985, 15469.00
1060.089, 15897.00
1061.194, 16493.00
1062.298, 17056.00
1063.402, 17567.00
1064.506, 17970.00
1065.610, 18530.00
1066.713, 18910.00
1067.817, 19069.00
1068.920, 19356.00
1070.023, 19348.00
1071.126, 19274.00
1072.229, 19293.00
1073.332, 19037.00
1074.435, 18612.00
1075.537, 18555.00
1076.639, 18006.00
1077.741, 17606.00
1078.843, 17355.00
1079.945, 16897.00
1081.046, 16450.00
1082.148, 16311.00
1083.249, 15978.00
1084.350, 15955.00
1085.451, 15524.00
1086.551, 15528.00
1087.652, 15334.00
1088.752, 15210.00
1089.853, 15193.00
1090.953, 15029.00
1092.053, 14884.00
1093.152, 14766.00
1094.252, 14590.00
1095.351, 14538.00
1096.451, 14464.00
1097.550, 14421.00
1098.649, 14303.00
1099.748, 14162.00
1100.846, 14038.00
1101.945, 14012.00
1103.043, 13932.00
1104.141, 13893.00
1105.239, 13791.00
1106.337, 13851.00
1107.434, 13622.00
1108.532, 13742.00
1109.629, 13694.00
1110.726, 13594.00
1111.823, 13641.00
1112.920, 13508.00
1114.017, 13660.00
1115.113, 13815.00
1116.210, 13740.00
1117.306, 13902.00
1118.402, 14379.00
1119.498, 14294.00
1120.593, 14365.00
1121.689, 14504.00
1122.784, 14462.00
1123.879, 14502.00
1124.974, 14510.00
1126.069, 14390.00
1127.164, 14167.00
1128.259, 13721.00
1129.353, 13587.00
1130.447, 13525.00
1131.541, 13389.00
1132.635, 13248.00
1133.729, 13118.00
1134.822, 12988.00
1135.916, 12912.00
1137.009, 12855.00
1138.102, 12718.00
1139.195, 12745.00
1140.288, 12605.00
1141.380, 12586.00
1142.473, 12469.00
1143.565, 12435.00
1144.657, 12298.00
1145.749, 12424.00
1146.841, 12529.00
1147.932, 12340.00
1149.024, 12309.00
1150.115, 12297.00
1151.206, 12284.00
1152.297, 12217.00
1153.388, 12141.00
1154.479, 12153.00
1155.569, 12094.00
1156.659, 11985.00
1157.750, 11956.00
1158.839, 11982.00
1159.929, 12044.00
1161.019, 11930.00
1162.108, 11971.00
1163.198, 12072.00
1164.287, 11886.00
1165.376, 11944.00
1166.465, 11958.00
1167.553, 11990.00
1168.642, 11976.00
1169.730, 11941.00
1170.818, 12064.00
1171.906, 12026.00
1172.994, 12170.00
1174.082, 12310.00
1175.170, 12306.00
1176.257, 12244.00
1177.344, 12411.00
1178.431, 12320.00
1179.518, 12567.00
1180.605, 12623.00
1181.691, 12626.00
1182.778, 12643.00
1183.864, 12743.00
1184.950, 12763.00
1186.036, 12803.00
1187.122, 12817.00
1188.207, 12843.00
1189.292, 12811.00
1190.378, 12853.00
1191.463, 12867.00
1192.548, 12862.00
1193.632, 13031.00
1194.717, 12942.00
1195.801, 13068.00
1196.886, 13009.00
1197.970, 13067.00
1199.054, 13006.00
1200.137, 13116.00
1201.221, 13255.00
1202.305, 13318.00
1203.388, 13250.00
1204.471, 13304.00
1205.554, 13460.00
1206.637, 13687.00
1207.719, 13699.77
1208.802, 13616.00
1209.884, 13806.00
1210.966, 13762.00
1212.048, 13799.00
1213.130, 13667.00
1214.212, 13505.00
1215.293, 13518.00
1216.374, 13407.00
1217.456, 13220.00
1218.536, 13079.00
1219.617, 12893.00
1220.698, 12698.00
1221.778, 12591.26
1222.859, 12520.00
1223.939, 12338.00
1225.019, 12286.00
1226.099, 12115.00
1227.178, 12071.00
1228.258, 12049.00
1229.337, 11896.00
1230.417, 11835.00
1231.496, 11735.00
1232.574, 11728.00
1233.653, 11644.00
1234.732, 11689.00
1235.810, 11662.00
1236.888, 11457.00
1237.966, 11470.00
1239.044, 11415.00
1240.122, 11401.00
1241.199, 11454.00
1242.277, 11298.00
1243.354, 11299.00
1244.431, 11354.00
1245.508, 11242.00
1246.585, 11235.00
1247.661, 11148.00
1248.738, 11086.00
1249.814, 11058.27
1250.890, 10973.08
1251.966, 11020.00
1253.042, 10910.00
1254.117, 10964.00
1255.193, 11095.00
1256.268, 11042.00
1257.343, 11057.00
1258.418, 11047.00
1259.493, 11065.00
1260.567, 11056.00
1261.642, 11020.00
1262.716, 10888.00
1263.790, 11020.00
1264.864, 11122.00
1265.938, 10852.00
1267.011, 11021.00
1268.085, 10891.00
1269.158, 11048.00
1270.231, 10852.00
1271.304, 10951.00
1272.377, 10886.00
1273.450, 11039.00
1274.522, 11010.00
1275.594, 11003.00
1276.666, 10957.00
1277.738, 11026.00
1278.810, 10942.00
1279.882, 11024.00
1280.953, 10989.00
1282.025, 10905.00
1283.096, 11038.00
1284.167, 10931.00
1285.238, 10970.00
1286.308, 10894.00
1287.379, 10994.00
1288.449, 10852.00
1289.519, 10933.00
1290.589, 10922.00
1291.659, 10992.00
1292.729, 10903.00
1293.798, 10946.00
1294.868, 11003.00
1295.937, 10906.00
1297.006, 10879.00
1298.075, 10977.00
1299.143, 10931.00
1300.212, 10874.00
1301.280, 10931.00
1302.348, 10928.00
1303.416, 10871.00
1304.484, 11153.00
1305.552, 11046.00
1306.620, 11032.38
1307.687, 10926.00
1308.754, 10941.00
1309.821, 10898.00
1310.888, 11011.00
1311.955, 10895.00
1313.021, 10903.00
1314.088, 10853.00
1315.154, 10954.00
1316.220, 10869.00
1317.286, 10977.00
1318.352, 10959.00
1319.417, 10852.00
1320.483, 11009.00
1321.548, 10875.00
1322.613, 11036.00
1323.678, 10875.00
1324.743, 10929.00
1325.807, 10986.00
1326.872, 10970.00
1327.936, 10879.00
1329.000, 10990.00
1330.064, 10924.00
1331.128, 10950.00
1332.191, 11007.00
1333.255, 10882.00
1334.318, 11027.00
1335.381, 10920.00
1336.444, 11008.00
1337.507, 10785.00
1338.569, 11103.00
1339.632, 10962.00
1340.694, 10912.00
1341.756, 10979.00
1342.818, 10944.00
1343.880, 10963.00
1344.941, 10890.00
1346.003, 10950.00
1347.064, 10964.00
1348.125, 10899.00
1349.186, 10882.00
1350.247, 10922.00
1351.308, 10842.00
1352.368, 10822.00
1353.428, 10992.00
1354.489, 10882.00
1355.549, 10969.00
1356.608, 10819.00
1357.668, 10882.00
1358.727, 10867.00
1359.787, 10935.00
1360.846, 10925.00
1361.905, 10859.00
1362.964, 10954.00
1364.022, 10797.00
1365.081, 10962.00
1366.139, 10796.00
1367.197, 10840.00
1368.255, 10816.00
1369.313, 10771.00
1370.371, 10901.00
1371.428, 10786.00
1372.486, 10905.00
1373.543, 10908.00
1374.600, 10727.00
1375.657, 10900.00
1376.713, 10846.00
1377.770, 10854.00
1378.826, 10893.00
1379.882, 10967.00
1380.938, 10944.00
1381.994, 10982.00
1383.050, 11205.00
1384.106, 11318.00
1385.161, 11313.00
1386.216, 11300.00
1387.271, 11164.00
1388.326, 10984.00
1389.381, 10862.00
1390.435, 10913.00
1391.490, 10930.00
1392.544, 10809.00
1393.598, 10815.00
1394.652, 10794.00
1395.705, 10725.00
1396.759, 10759.83
1397.812, 10762.51
1398.866, 10774.00
1399.919, 10830.00
1400.972, 10806.00
1402.024, 10833.00
1403.077, 10733.00
1404.129, 10840.00
1405.181, 10812.00
1406.233, 10934.00
1407.285, 10833.00
1408.337, 10712.00
1409.389, 10871.00
1410.440, 10731.00
1411.491, 10745.00
1412.542, 10785.00
1413.593, 10734.00
1414.644, 10761.88
1415.695, 10881.00
1416.745, 10789.00
1417.795, 10839.00
1418.845, 10909.00
1419.895, 10741.00
1420.945, 10712.00
1421.995, 10728.88
1423.044, 10837.00
1424.093, 10800.00
1425.142, 10767.00
1426.191, 10898.00
1427.240, 10835.00
1428.289, 10887.00
1429.337, 10911.00
1430.385, 10795.00
1431.433, 10998.00
1432.481, 10830.00
1433.529, 10850.00
1434.577, 10923.00
1435.624, 11004.00
1436.672, 10881.00
1437.719, 11004.00
1438.766, 10864.00
1439.812, 11047.00
1440.859, 11005.00
1441.905, 10979.00
1442.952, 11044.00
1443.998, 11031.00
1445.044, 10901.00
1446.090, 11033.00
1447.135, 10969.00
1448.181, 11033.00
1449.226, 11053.00
1450.271, 10835.00
1451.316, 10927.00
1452.361, 11010.00
1453.405, 10877.00
1454.450, 11003.00
1455.494, 10924.00
1456.538, 11046.00
1457.582, 10857.00
1458.626, 10884.00
1459.670, 11029.00
1460.713, 10946.00
1461.757, 10791.00
1462.800, 11036.00
1463.843, 10870.00
1464.886, 10958.00
1465.928, 10966.00
1466.971, 10852.00
1468.013, 10940.00
1469.055, 10961.00
1470.097, 10954.00
1471.139, 10988.00
1472.181, 10970.00
1473.222, 10907.00
1474.263, 10921.00
1475.305, 10835.00
1476.346, 10795.00
1477.386, 10901.00
1478.427, 10829.85
1479.468, 10919.00
1480.508, 10810.00
1481.548, 10922.00
1482.588, 10904.00
1483.628, 10906.00
1484.668, 10939.00
1485.707, 10878.00
1486.747, 10886.00
1487.786, 10860.62
1488.825, 10825.10
1489.864, 10817.00
1490.902, 10838.00
1491.941, 10841.00
1492.979, 11008.00
1494.017, 10918.00
1495.055, 10892.00
1496.093, 10796.00
1497.131, 10944.00
1498.168, 10684.00
1499.206, 10886.00
1500.243, 10799.00
1501.280, 10954.00
1502.317, 10844.00
1503.354, 10896.00
1504.390, 10842.00
1505.426, 11006.00
1506.463, 10816.00
1507.499, 10963.00
1508.535, 11054.00
1509.570, 11022.00
1510.606, 10883.00
1511.641, 10938.00
1512.676, 10908.00
1513.711, 11043.00
1514.746, 10928.00
1515.781, 11044.00
1516.816, 10958.00
1517.850, 10913.00
1518.884, 11090.00
1519.918, 10943.00
1520.952, 10919.00
1521.986, 11083.00
1523.019, 10824.00
1524.053, 10922.00
1525.086, 10722.00
1526.119, 10921.00
1527.152, 10971.00
1528.185, 11008.00
1529.217, 10968.00
1530.250, 10959.00
1531.282, 11006.00
1532.314, 10981.00
1533.346, 11015.86
1534.377, 10969.00
1535.409, 11036.00
1536.440, 10983.00
1537.472, 10921.00
1538.503, 10994.00
1539.534, 10891.00
1540.564, 10988.00
1541.595, 10944.00
1542.625, 10944.00
1543.656, 10859.00
1544.686, 10949.00
1545.716, 10961.00
1546.745, 10959.00
1547.775, 10988.24
1548.804, 11003.80
1549.834, 11026.00
1550.863, 11089.00
1551.892, 11193.00
1552.920, 11319.00
1553.949, 11449.00
1554.977, 11440.00
1556.006, 11274.00
1557.034, 11205.00
1558.062, 11025.00
1559.089, 11019.00
1560.117, 10986.00
1561.144, 11033.00
1562.172, 11039.55
1563.199, 11052.00
1564.226, 11100.00
1565.252, 11038.00
1566.279, 11052.00
1567.305, 11203.00
1568.332, 11134.00
1569.358, 11074.00
1570.384, 11044.00
1571.409, 11196.00
##END=



