##NAMES=Beryl
##RRUFFID=R060942
##IDEAL CHEMISTRY=Be_3_Al_2_Si_6_O_18_
##LOCALITY=Mingore mine, Swat Valley, Pakistan
##OWNER=RRUFF
##SOURCE=Lawrence W. Snee
##DESCRIPTION=Green hexagonal prisms, variety emerald
##STATUS=The identification of this mineral has been confirmed by X-ray diffraction and chemical analysis
##URL=rruff.info/R060942
##MEASURED CHEMISTRY=(Be_2.94_Li_0.06_)_Σ=3_(Al_1.55_Mg_0.37_Fe^3+^_0.06_Cr^3+^_0.02_)_Σ=2_Si_6.00_O_18_·Na_0.42_; Be and Li not measured but estimated by stoichiometry
##PIN_ID=L01655
##ORIENTATION=Laser parallel to c* (0 0 1). Fiducial mark perpendicular to laser is parallel to [-1 -1 0]
130.4390, 10423.38
131.6680, 10538.00
132.8980, 10530.00
134.1270, 10572.00
135.3560, 10576.00
136.5850, 10590.00
137.8140, 10745.00
139.0430, 10949.00
140.2710, 11248.00
141.5000, 11012.00
142.7280, 10702.00
143.9560, 10664.00
145.1840, 10774.00
146.4120, 10736.00
147.6390, 10660.00
148.8670, 10729.00
150.0940, 10748.00
151.3210, 10825.00
152.5490, 10846.00
153.7750, 10639.00
155.0020, 10607.40
156.2290, 10514.00
157.4550, 10332.00
158.6810, 10360.00
159.9080, 10252.00
161.1340, 10479.00
162.3590, 10470.00
163.5850, 10742.00
164.8110, 10817.00
166.0360, 10716.00
167.2610, 10653.00
168.4860, 10637.00
169.7110, 10620.00
170.9360, 10714.00
172.1610, 10634.00
173.3850, 10523.00
174.6100, 10668.00
175.8340, 10505.00
177.0580, 10647.00
178.2820, 10567.00
179.5050, 10601.00
180.7290, 10533.00
181.9520, 10531.00
183.1760, 10506.00
184.3990, 10532.00
185.6220, 10639.00
186.8450, 10570.00
188.0670, 10641.00
189.2900, 10548.00
190.5120, 10603.00
191.7340, 10816.00
192.9560, 10721.00
194.1780, 10884.00
195.4000, 10926.00
196.6220, 10887.00
197.8430, 11070.00
199.0640, 10902.00
200.2860, 11123.00
201.5070, 11208.00
202.7270, 11258.00
203.9480, 10811.00
205.1690, 10299.00
206.3890, 9963.000
207.6090, 9792.000
208.8290, 9715.000
210.0490, 9631.000
211.2690, 9650.000
212.4890, 9762.000
213.7080, 9906.000
214.9280, 9729.000
216.1470, 9757.000
217.3660, 9664.000
218.5850, 9556.000
219.8030, 9679.000
221.0220, 9590.000
222.2400, 9633.000
223.4590, 9700.000
224.6770, 9651.000
225.8950, 9612.000
227.1120, 9630.000
228.3300, 9657.000
229.5480, 9657.396
230.7650, 9627.000
231.9820, 9735.000
233.1990, 9706.000
234.4160, 9819.000
235.6330, 9826.000
236.8490, 9783.000
238.0660, 9755.000
239.2820, 9621.000
240.4980, 9653.000
241.7140, 9617.318
242.9300, 9690.000
244.1460, 9605.000
245.3610, 9641.000
246.5770, 9599.000
247.7920, 9483.000
249.0070, 9519.000
250.2220, 9463.000
251.4370, 9560.000
252.6510, 9555.000
253.8660, 9352.000
255.0800, 9475.000
256.2940, 9600.000
257.5080, 10028.00
258.7220, 10028.19
259.9360, 10043.39
261.1490, 10288.00
262.3630, 9970.000
263.5760, 10205.00
264.7890, 10443.00
266.0020, 10728.00
267.2150, 10802.00
268.4270, 10691.00
269.6400, 10456.00
270.8520, 10395.00
272.0640, 10129.00
273.2760, 10000.00
274.4880, 9776.000
275.7000, 9763.000
276.9120, 9721.000
278.1230, 9700.000
279.3340, 9770.000
280.5450, 9689.000
281.7560, 9699.000
282.9670, 9770.000
284.1780, 9835.000
285.3880, 9977.000
286.5980, 9982.000
287.8090, 9959.000
289.0190, 9982.000
290.2290, 10164.00
291.4380, 10053.00
292.6480, 10051.00
293.8570, 9879.000
295.0670, 9756.000
296.2760, 9461.000
297.4850, 9395.000
298.6930, 9366.000
299.9020, 9120.000
301.1110, 9073.000
302.3190, 8971.000
303.5270, 9004.000
304.7350, 9068.000
305.9430, 9032.000
307.1510, 8945.000
308.3580, 9078.000
309.5660, 9131.000
310.7730, 9082.000
311.9800, 9214.000
313.1870, 9323.000
314.3940, 9482.000
315.6010, 9463.000
316.8070, 9621.000
318.0130, 9761.000
319.2200, 9783.000
320.4260, 10111.00
321.6310, 10196.23
322.8370, 10554.00
324.0430, 10383.00
325.2480, 10319.00
326.4540, 10077.00
327.6590, 9838.000
328.8640, 9489.000
330.0680, 9288.000
331.2730, 8952.000
332.4780, 8930.000
333.6820, 8768.105
334.8860, 8671.636
336.0900, 8639.000
337.2940, 8570.000
338.4980, 8523.000
339.7010, 8482.000
340.9050, 8456.000
342.1080, 8359.000
343.3110, 8353.000
344.5140, 8421.000
345.7170, 8410.000
346.9200, 8299.000
348.1220, 8387.000
349.3240, 8273.000
350.5270, 8302.000
351.7290, 8364.000
352.9310, 8344.000
354.1320, 8212.000
355.3340, 8331.000
356.5350, 8231.000
357.7370, 8473.000
358.9380, 8337.000
360.1390, 8383.000
361.3400, 8210.000
362.5400, 8431.000
363.7410, 8416.000
364.9410, 8432.000
366.1410, 8345.000
367.3410, 8397.000
368.5410, 8458.000
369.7410, 8540.000
370.9400, 8579.000
372.1400, 8598.000
373.3390, 8637.000
374.5380, 8762.000
375.7370, 8786.301
376.9360, 8899.000
378.1350, 8959.000
379.3330, 8994.000
380.5310, 9187.000
381.7300, 9498.000
382.9280, 9760.000
384.1260, 9898.000
385.3230, 10371.00
386.5210, 10921.00
387.7180, 11637.00
388.9160, 12621.00
390.1130, 13505.00
391.3100, 14989.00
392.5060, 16156.00
393.7030, 17703.00
394.9000, 19541.00
396.0960, 21307.00
397.2920, 22774.00
398.4880, 23448.00
399.6840, 23569.00
400.8800, 22858.00
402.0750, 21397.00
403.2710, 19777.00
404.4660, 18416.00
405.6610, 17060.00
406.8560, 16007.00
408.0510, 15093.00
409.2450, 14425.00
410.4400, 13730.00
411.6340, 13464.00
412.8280, 12967.00
414.0220, 12613.00
415.2160, 12108.00
416.4100, 11908.00
417.6030, 11522.00
418.7970, 11208.00
419.9900, 10974.00
421.1830, 10622.00
422.3760, 10674.00
423.5690, 10376.00
424.7610, 10298.00
425.9540, 10151.00
427.1460, 10027.00
428.3380, 10175.00
429.5300, 10088.00
430.7220, 10045.00
431.9140, 10100.00
433.1050, 10090.00
434.2970, 10222.00
435.4880, 10211.00
436.6790, 10219.00
437.8700, 10213.00
439.0610, 10374.00
440.2510, 10380.00
441.4420, 10133.00
442.6320, 9979.000
443.8220, 9721.000
445.0120, 9448.000
446.2020, 9326.000
447.3910, 9117.000
448.5810, 8960.000
449.7700, 8920.000
450.9600, 8765.000
452.1490, 8756.000
453.3370, 8677.000
454.5260, 8560.000
455.7150, 8640.000
456.9030, 8560.000
458.0910, 8505.000
459.2800, 8512.000
460.4670, 8531.000
461.6550, 8511.000
462.8430, 8452.000
464.0300, 8434.000
465.2180, 8345.000
466.4050, 8485.000
467.5920, 8387.000
468.7790, 8550.000
469.9650, 8439.000
471.1520, 8539.000
472.3380, 8504.000
473.5250, 8547.000
474.7110, 8442.000
475.8970, 8615.000
477.0820, 8645.000
478.2680, 8537.000
479.4540, 8654.000
480.6390, 8634.000
481.8240, 8618.000
483.0090, 8620.000
484.1940, 8611.000
485.3780, 8662.000
486.5630, 8623.484
487.7470, 8572.000
488.9320, 8593.000
490.1160, 8486.000
491.3000, 8500.000
492.4830, 8454.000
493.6670, 8449.000
494.8500, 8544.000
496.0340, 8479.000
497.2170, 8562.000
498.4000, 8442.000
499.5820, 8549.000
500.7650, 8689.000
501.9480, 8705.000
503.1300, 8651.000
504.3120, 8543.000
505.4940, 8708.000
506.6760, 8638.000
507.8580, 8627.000
509.0390, 8549.000
510.2210, 8490.000
511.4020, 8599.000
512.5830, 8513.000
513.7640, 8620.000
514.9450, 8554.000
516.1250, 8577.000
517.3060, 8797.000
518.4860, 8804.000
519.6660, 8792.000
520.8460, 8641.000
522.0260, 8631.000
523.2060, 8629.000
524.3850, 8656.000
525.5650, 8499.000
526.7440, 8499.000
527.9230, 8443.000
529.1020, 8305.000
530.2810, 8316.000
531.4590, 8185.000
532.6380, 8300.000
533.8160, 8345.000
534.9940, 8240.000
536.1720, 8206.000
537.3500, 8374.000
538.5270, 8244.000
539.7050, 8229.000
540.8820, 8231.000
542.0590, 8337.000
543.2360, 8315.000
544.4130, 8427.000
545.5900, 8490.000
546.7660, 8511.000
547.9430, 8663.000
549.1190, 8776.000
550.2950, 8880.000
551.4710, 9010.897
552.6470, 9004.000
553.8220, 9201.000
554.9980, 9463.000
556.1730, 9477.000
557.3480, 10002.00
558.5230, 10241.00
559.6980, 10324.00
560.8730, 10469.00
562.0470, 10558.00
563.2220, 10490.00
564.3960, 10611.00
565.5700, 10519.00
566.7440, 10528.00
567.9170, 10596.00
569.0910, 10536.00
570.2640, 10349.00
571.4380, 10423.00
572.6110, 10460.00
573.7840, 10215.00
574.9570, 10158.00
576.1290, 10083.00
577.3020, 10192.00
578.4740, 9956.000
579.6460, 10016.00
580.8180, 10097.00
581.9900, 9899.000
583.1620, 9850.000
584.3330, 9845.000
585.5040, 9749.000
586.6760, 9817.000
587.8470, 9691.000
589.0180, 9693.000
590.1880, 9642.000
591.3590, 9666.000
592.5290, 9604.000
593.7000, 9681.000
594.8700, 9424.000
596.0400, 9515.000
597.2090, 9330.000
598.3790, 9337.000
599.5490, 9308.000
600.7180, 9207.000
601.8870, 9071.000
603.0560, 9104.000
604.2250, 8964.000
605.3940, 8952.965
606.5620, 8841.000
607.7300, 8922.000
608.8990, 8812.000
610.0670, 8827.000
611.2350, 8826.000
612.4020, 8727.000
613.5700, 8656.000
614.7370, 8690.000
615.9050, 8607.000
617.0720, 8547.000
618.2390, 8439.000
619.4060, 8492.000
620.5720, 8340.000
621.7390, 8297.000
622.9050, 8187.000
624.0710, 8339.000
625.2370, 8234.000
626.4030, 8337.000
627.5690, 8156.000
628.7340, 8201.000
629.9000, 8145.000
631.0650, 8298.000
632.2300, 8255.000
633.3950, 8341.000
634.5600, 8171.000
635.7240, 8366.000
636.8890, 8234.000
638.0530, 8228.000
639.2170, 8238.000
640.3810, 8303.000
641.5450, 8356.000
642.7080, 8262.000
643.8720, 8310.000
645.0350, 8389.000
646.1980, 8260.000
647.3610, 8247.000
648.5240, 8224.000
649.6870, 8380.000
650.8490, 8325.000
652.0120, 8426.000
653.1740, 8538.000
654.3360, 8597.000
655.4980, 8521.000
656.6600, 8584.000
657.8210, 8641.000
658.9830, 8736.000
660.1440, 8951.000
661.3050, 9098.000
662.4660, 9103.000
663.6270, 9387.000
664.7870, 9569.000
665.9480, 9734.000
667.1080, 10159.00
668.2680, 10435.00
669.4280, 11019.00
670.5880, 11527.00
671.7480, 12068.00
672.9070, 12757.00
674.0670, 14064.00
675.2260, 15573.00
676.3850, 17499.00
677.5440, 20141.00
678.7030, 23362.00
679.8610, 27576.00
681.0200, 32356.00
682.1780, 37482.00
683.3360, 43643.00
684.4940, 49472.00
685.6520, 54747.00
686.8090, 57065.00
687.9670, 56381.00
689.1240, 52103.00
690.2810, 46184.00
691.4380, 39811.00
692.5950, 33558.00
693.7520, 28548.00
694.9080, 24790.00
696.0650, 21438.00
697.2210, 19191.00
698.3770, 17306.00
699.5330, 15910.00
700.6880, 14715.00
701.8440, 14006.00
702.9990, 13078.00
704.1550, 12535.00
705.3100, 12002.00
706.4650, 11548.00
707.6190, 11319.00
708.7740, 10871.00
709.9290, 10664.00
711.0830, 10211.00
712.2370, 10087.00
713.3910, 9829.000
714.5450, 9921.000
715.6980, 9669.000
716.8520, 9586.000
718.0050, 9508.041
719.1580, 9347.557
720.3110, 9280.000
721.4640, 9155.000
722.6170, 9014.000
723.7700, 8983.000
724.9220, 8935.000
726.0740, 8955.000
727.2260, 8865.000
728.3780, 8941.000
729.5300, 8752.000
730.6810, 8770.000
731.8330, 8867.000
732.9840, 8731.000
734.1350, 8804.000
735.2860, 8798.000
736.4370, 8815.000
737.5880, 8755.000
738.7380, 8852.000
739.8880, 8820.000
741.0390, 8641.000
742.1890, 8788.000
743.3380, 8842.000
744.4880, 8728.000
745.6380, 8920.000
746.7870, 8804.000
747.9360, 8732.000
749.0850, 8737.000
750.2340, 8857.000
751.3830, 8846.000
752.5310, 8776.000
753.6800, 8682.000
754.8280, 8710.000
755.9760, 8818.000
757.1240, 8661.000
758.2720, 8636.000
759.4190, 8637.000
760.5670, 8539.000
761.7140, 8585.000
762.8610, 8482.000
764.0080, 8442.000
765.1550, 8594.000
766.3020, 8378.000
767.4480, 8375.000
768.5950, 8531.000
769.7410, 8395.000
770.8870, 8305.000
772.0330, 8228.000
773.1780, 8309.000
774.3240, 8377.000
775.4690, 8364.000
776.6140, 8339.000
777.7590, 8226.000
778.9040, 8270.000
780.0490, 8196.000
781.1940, 8214.000
782.3380, 8279.000
783.4820, 8228.000
784.6260, 8244.970
785.7700, 8159.000
786.9140, 8206.000
788.0580, 8176.000
789.2010, 8142.000
790.3450, 8133.000
791.4880, 8112.000
792.6310, 8155.000
793.7730, 8119.000
794.9160, 8081.000
796.0590, 8068.000
797.2010, 8128.000
798.3430, 8056.000
799.4850, 8076.000
800.6270, 8050.000
801.7690, 8007.000
802.9100, 8051.000
804.0520, 8018.000
805.1930, 8068.000
806.3340, 7958.000
807.4750, 8009.000
808.6160, 8082.000
809.7560, 8046.000
810.8970, 7934.000
812.0370, 7982.000
813.1770, 7877.000
814.3170, 8001.000
815.4570, 8030.000
816.5960, 7918.000
817.7360, 8020.000
818.8750, 7933.000
820.0140, 8005.000
821.1530, 7864.000
822.2920, 7837.000
823.4310, 7839.000
824.5690, 7958.000
825.7070, 7843.000
826.8460, 7881.000
827.9840, 8023.000
829.1220, 7809.000
830.2590, 7853.000
831.3970, 7947.000
832.5340, 7893.000
833.6710, 7953.000
834.8080, 7947.000
835.9450, 7915.000
837.0820, 7930.000
838.2190, 7812.000
839.3550, 7856.000
840.4910, 7944.000
841.6270, 8018.000
842.7630, 7883.000
843.8990, 8017.000
845.0350, 7921.000
846.1700, 7974.000
847.3060, 8052.000
848.4410, 7935.000
849.5760, 7988.000
850.7100, 7870.000
851.8450, 7838.000
852.9800, 7937.000
854.1140, 7916.000
855.2480, 7858.000
856.3820, 7991.000
857.5160, 7842.000
858.6500, 7990.000
859.7830, 7910.000
860.9170, 7895.000
862.0500, 7956.000
863.1830, 7942.000
864.3160, 7882.000
865.4480, 7932.000
866.5810, 7977.000
867.7130, 7880.000
868.8460, 8033.000
869.9780, 7979.000
871.1100, 7898.000
872.2410, 8028.000
873.3730, 7982.000
874.5050, 8022.000
875.6360, 8005.000
876.7670, 7922.000
877.8980, 7982.000
879.0290, 8026.000
880.1590, 7945.000
881.2900, 8000.795
882.4200, 7997.000
883.5500, 8049.000
884.6800, 7961.000
885.8100, 8056.000
886.9400, 7946.000
888.0690, 8022.000
889.1990, 8125.000
890.3280, 8051.000
891.4570, 8096.000
892.5860, 8288.000
893.7140, 8343.000
894.8430, 8202.000
895.9710, 8361.000
897.1000, 8310.000
898.2280, 8297.000
899.3560, 8518.000
900.4830, 8536.000
901.6110, 8596.000
902.7380, 8635.000
903.8660, 8598.000
904.9930, 8692.000
906.1200, 8635.000
907.2460, 8858.000
908.3730, 8754.000
909.5000, 8673.000
910.6260, 8786.000
911.7520, 8721.000
912.8780, 8686.000
914.0040, 8798.000
915.1290, 8575.000
916.2550, 8629.000
917.3800, 8743.000
918.5050, 8753.000
919.6300, 8715.000
920.7550, 8615.000
921.8800, 8616.000
923.0040, 8552.000
924.1290, 8543.000
925.2530, 8537.000
926.3770, 8482.000
927.5010, 8522.000
928.6250, 8540.000
929.7480, 8379.000
930.8720, 8532.000
931.9950, 8437.000
933.1180, 8405.000
934.2410, 8439.000
935.3640, 8353.000
936.4860, 8364.000
937.6090, 8453.000
938.7310, 8354.000
939.8530, 8433.000
940.9750, 8304.000
942.0970, 8276.000
943.2180, 8360.000
944.3400, 8357.000
945.4610, 8358.000
946.5820, 8309.000
947.7030, 8364.000
948.8240, 8319.000
949.9450, 8250.000
951.0650, 8273.000
952.1860, 8336.000
953.3060, 8288.000
954.4260, 8327.370
955.5460, 8289.000
956.6650, 8306.000
957.7850, 8320.000
958.9040, 8227.000
960.0230, 8355.000
961.1420, 8255.000
962.2610, 8282.000
963.3800, 8322.000
964.4990, 8290.000
965.6170, 8276.000
966.7350, 8400.000
967.8530, 8356.000
968.9710, 8420.000
970.0890, 8391.000
971.2070, 8408.000
972.3240, 8534.000
973.4410, 8379.000
974.5580, 8576.000
975.6750, 8348.000
976.7920, 8697.000
977.9090, 8653.000
979.0250, 8691.000
980.1410, 8702.000
981.2580, 8772.000
982.3740, 9019.000
983.4890, 8947.000
984.6050, 9191.000
985.7200, 9364.000
986.8360, 9402.000
987.9510, 9578.000
989.0660, 9770.000
990.1810, 10063.00
991.2950, 10327.00
992.4100, 10504.00
993.5240, 10601.00
994.6390, 10908.00
995.7530, 11051.00
996.8660, 11202.00
997.9800, 11199.00
999.0940, 11239.00
1000.207, 11256.00
1001.320, 11175.54
1002.433, 11058.00
1003.546, 10948.00
1004.659, 10859.00
1005.772, 10643.00
1006.884, 10390.00
1007.996, 10404.00
1009.108, 10141.00
1010.220, 10235.00
1011.332, 10095.00
1012.444, 9938.000
1013.555, 9768.000
1014.666, 9714.000
1015.777, 9722.000
1016.888, 9531.000
1017.999, 9548.000
1019.110, 9477.000
1020.220, 9412.000
1021.331, 9285.000
1022.441, 9514.000
1023.551, 9243.000
1024.661, 9221.000
1025.770, 9415.000
1026.880, 9177.000
1027.989, 9181.000
1029.098, 9210.000
1030.207, 9159.000
1031.316, 9048.000
1032.425, 9040.000
1033.533, 9070.000
1034.642, 9020.000
1035.750, 9074.000
1036.858, 9033.000
1037.966, 9011.000
1039.073, 9097.000
1040.181, 9176.000
1041.288, 9093.000
1042.396, 9230.000
1043.503, 9162.000
1044.610, 9235.000
1045.716, 9176.000
1046.823, 9246.000
1047.929, 9349.000
1049.036, 9457.000
1050.142, 9548.000
1051.248, 9850.000
1052.353, 9987.000
1053.459, 10224.00
1054.564, 10288.00
1055.670, 10580.00
1056.775, 10841.00
1057.880, 11270.00
1058.985, 11667.00
1060.089, 12116.00
1061.194, 13805.00
1062.298, 13591.24
1063.402, 14146.04
1064.506, 14018.00
1065.610, 14368.00
1066.713, 14745.00
1067.817, 14837.00
1068.920, 15180.00
1070.023, 15408.00
1071.126, 15290.98
1072.229, 15622.00
1073.332, 14936.00
1074.435, 14686.00
1075.537, 14313.00
1076.639, 13996.00
1077.741, 13678.23
1078.843, 13308.00
1079.945, 13059.00
1081.046, 12749.00
1082.148, 12533.00
1083.249, 12385.00
1084.350, 12158.00
1085.451, 11952.00
1086.551, 11860.00
1087.652, 11684.00
1088.752, 11566.00
1089.853, 11392.00
1090.953, 11222.00
1092.053, 11031.00
1093.152, 11154.00
1094.252, 10936.00
1095.351, 10949.00
1096.451, 10806.00
1097.550, 10666.00
1098.649, 10748.00
1099.748, 10674.00
1100.846, 10591.00
1101.945, 10449.00
1103.043, 10448.00
1104.141, 10388.00
1105.239, 10268.64
1106.337, 10412.00
1107.434, 10247.00
1108.532, 10240.00
1109.629, 10192.53
1110.726, 10243.00
1111.823, 10131.00
1112.920, 10115.00
1114.017, 10287.00
1115.113, 10297.00
1116.210, 10430.00
1117.306, 11533.00
1118.402, 11354.00
1119.498, 11180.00
1120.593, 10786.00
1121.689, 10730.00
1122.784, 10841.00
1123.879, 10790.00
1124.974, 10881.00
1126.069, 10611.00
1127.164, 10923.00
1128.259, 11019.39
1129.353, 10610.49
1130.447, 11405.00
1131.541, 9935.000
1132.635, 9791.000
1133.729, 9680.000
1134.822, 9648.000
1135.916, 9518.465
1137.009, 9600.000
1138.102, 9319.000
1139.195, 9374.000
1140.288, 9252.000
1141.380, 9381.000
1142.473, 9164.000
1143.565, 9199.000
1144.657, 9117.000
1145.749, 9036.000
1146.841, 9257.000
1147.932, 9057.731
1149.024, 9062.000
1150.115, 8960.000
1151.206, 8783.000
1152.297, 8956.000
1153.388, 8846.000
1154.479, 8735.000
1155.569, 8767.000
1156.659, 8735.000
1157.750, 8719.000
1158.839, 8637.000
1159.929, 8617.000
1161.019, 8485.000
1162.108, 8714.000
1163.198, 8668.000
1164.287, 8600.000
1165.376, 8529.000
1166.465, 8587.616
1167.553, 8673.000
1168.642, 8722.000
1169.730, 8712.000
1170.818, 8777.000
1171.906, 8911.000
1172.994, 8932.000
1174.082, 8865.000
1175.170, 9066.000
1176.257, 8957.000
1177.344, 9019.000
1178.431, 9305.000
1179.518, 9132.000
1180.605, 9346.000
1181.691, 9361.000
1182.778, 9488.000
1183.864, 9255.000
1184.950, 9477.000
1186.036, 9381.000
1187.122, 9430.000
1188.207, 9514.000
1189.292, 9511.000
1190.378, 9511.000
1191.463, 9659.000
1192.548, 9572.000
1193.632, 9621.000
1194.717, 9533.000
1195.801, 9746.000
1196.886, 9690.000
1197.970, 9708.000
1199.054, 9804.000
1200.137, 9699.000
1201.221, 9858.000
1202.305, 9804.000
1203.388, 9971.000
1204.471, 9932.000
1205.554, 10004.00
1206.637, 10185.00
1207.719, 10115.00
1208.802, 10082.00
1209.884, 10273.00
1210.966, 10385.00
1212.048, 10174.00
1213.130, 10256.00
1214.212, 10280.00
1215.293, 9949.000
1216.374, 9940.000
1217.456, 9895.000
1218.536, 9742.000
1219.617, 9678.093
1220.698, 9510.000
1221.778, 9371.000
1222.859, 9225.000
1223.939, 8918.000
1225.019, 8893.000
1226.099, 8723.137
1227.178, 8710.000
1228.258, 8551.000
1229.337, 8587.000
1230.417, 8580.000
1231.496, 8565.000
1232.574, 8406.000
1233.653, 8399.000
1234.732, 8255.000
1235.810, 8208.000
1236.888, 8284.000
1237.966, 8163.000
1239.044, 8128.000
1240.122, 8196.000
1241.199, 8072.000
1242.277, 8096.000
1243.354, 8011.000
1244.431, 8038.000
1245.508, 8062.000
1246.585, 8028.000
1247.661, 8009.000
1248.738, 7938.000
1249.814, 7966.000
1250.890, 7887.000
1251.966, 7935.000
1253.042, 7904.000
1254.117, 7847.000
1255.193, 7905.000
1256.268, 7832.000
1257.343, 7862.000
1258.418, 7764.000
1259.493, 7680.000
1260.567, 7771.000
1261.642, 7821.000
1262.716, 7843.000
1263.790, 7791.000
1264.864, 7799.968
1265.938, 7897.000
1267.011, 7674.000
1268.085, 7856.000
1269.158, 7667.000
1270.231, 7710.000
1271.304, 7711.000
1272.377, 7700.000
1273.450, 7693.000
1274.522, 7785.000
1275.594, 7741.249
1276.666, 7657.000
1277.738, 7739.000
1278.810, 7708.000
1279.882, 7745.000
1280.953, 7763.000
1282.025, 7778.000
1283.096, 7773.077
1284.167, 7807.000
1285.238, 7745.000
1286.308, 7668.000
1287.379, 7654.000
1288.449, 7726.000
1289.519, 7753.000
1290.589, 7677.000
1291.659, 7632.000
1292.729, 7666.000
1293.798, 7660.000
1294.868, 7707.000
1295.937, 7696.000
1297.006, 7738.000
1298.075, 7738.974
1299.143, 7681.000
1300.212, 7743.000
1301.280, 7713.000
1302.348, 7709.000
1303.416, 7716.000
1304.484, 7697.739
1305.552, 7710.903
1306.620, 7699.000
1307.687, 7715.000
1308.754, 7751.678
1309.821, 7729.493
1310.888, 7803.000
1311.955, 7689.000
1313.021, 7631.000
1314.088, 7742.000
1315.154, 7649.000
1316.220, 7555.000
1317.286, 7642.000
1318.352, 7736.000
1319.417, 7635.000
1320.483, 7655.000
1321.548, 7544.000
1322.613, 7678.000
1323.678, 7595.000
1324.743, 7676.000
1325.807, 7695.000
1326.872, 7650.000
1327.936, 7643.000
1329.000, 7729.000
1330.064, 7674.342
1331.128, 7730.000
1332.191, 7591.000
1333.255, 7718.000
1334.318, 7568.000
1335.381, 7637.000
1336.444, 7576.000
1337.507, 7714.000
1338.569, 7601.000
1339.632, 7638.000
1340.694, 7572.000
1341.756, 7730.000
1342.818, 7625.000
1343.880, 7682.000
1344.941, 7693.000
1346.003, 7674.000
1347.064, 7765.000
1348.125, 7713.000
1349.186, 7653.000
1350.247, 7561.000
1351.308, 7587.000
1352.368, 7718.000
1353.428, 7535.000
1354.489, 7699.000
1355.549, 7609.000
1356.608, 7678.000
1357.668, 7641.000
1358.727, 7591.000
1359.787, 7536.000
1360.846, 7540.417
1361.905, 7592.000
1362.964, 7546.000
1364.022, 7589.000
1365.081, 7585.000
1366.139, 7522.000
1367.197, 7614.000
1368.255, 7635.000
1369.313, 7520.000
1370.371, 7586.306
1371.428, 7558.000
1372.486, 7580.000
1373.543, 7558.000
1374.600, 7548.000
1375.657, 7498.000
1376.713, 7600.000
1377.770, 7547.000
1378.826, 7659.000
1379.882, 7523.000
1380.938, 7714.000
1381.994, 7770.000
1383.050, 7863.000
1384.106, 8141.000
1385.161, 8058.000
1386.216, 8040.000
1387.271, 7773.000
1388.326, 7681.000
1389.381, 7636.000
1390.435, 7642.000
1391.490, 7504.000
1392.544, 7504.000
1393.598, 7477.000
1394.652, 7538.000
1395.705, 7513.000
1396.759, 7589.000
1397.812, 7571.000
1398.866, 7562.000
1399.919, 7513.000
1400.972, 7591.000
1402.024, 7590.000
1403.077, 7470.000
1404.129, 7572.000
1405.181, 7566.000
1406.233, 7605.000
1407.285, 7528.000
1408.337, 7611.000
1409.389, 7544.000
1410.440, 7498.000
1411.491, 7485.000
1412.542, 7515.000
1413.593, 7527.000
1414.644, 7535.000
1415.695, 7627.000
1416.745, 7620.000
1417.795, 7306.000
1418.845, 7521.000
1419.895, 7423.000
1420.945, 7580.000
1421.995, 7550.000
1423.044, 7490.000
1424.093, 7558.000
1425.142, 7523.000
1426.191, 7456.000
1427.240, 7534.000
1428.289, 7476.000
1429.337, 7504.000
1430.385, 7603.000
1431.433, 7576.000
1432.481, 7571.000
1433.529, 7581.000
1434.577, 7518.000
1435.624, 7502.000
1436.672, 7628.000
1437.719, 7480.000
1438.766, 7529.000
1439.812, 7461.000
1440.859, 7528.000
1441.905, 7595.000
1442.952, 7515.000
1443.998, 7588.000
1445.044, 7584.000
1446.090, 7500.000
1447.135, 7413.000
1448.181, 7565.000
1449.226, 7569.000
1450.271, 7494.000
1451.316, 7530.000
1452.361, 7636.000
1453.405, 7607.000
1454.450, 7659.000
1455.494, 7652.000
1456.538, 7484.000
1457.582, 7551.107
1458.626, 7570.555
1459.670, 7496.000
1460.713, 7680.000
1461.757, 7562.000
1462.800, 7507.000
1463.843, 7536.000
1464.886, 7512.000
1465.928, 7488.000
1466.971, 7535.000
1468.013, 7588.000
1469.055, 7687.000
1470.097, 7506.000
1471.139, 7573.000
1472.181, 7619.000
1473.222, 7494.000
1474.263, 7636.000
1475.305, 7634.000
1476.346, 7494.000
1477.386, 7672.000
1478.427, 7554.000
1479.468, 7553.000
1480.508, 7611.000
1481.548, 7434.000
1482.588, 7558.000
1483.628, 7572.000
1484.668, 7507.000
1485.707, 7660.000
1486.747, 7602.000
1487.786, 7667.000
1488.825, 7546.000
1489.864, 7561.000
1490.902, 7638.000
1491.941, 7576.000
1492.979, 7523.000
1494.017, 7544.000
1495.055, 7604.000
1496.093, 7684.000
1497.131, 7598.000
1498.168, 7570.000
1499.206, 7592.000
1500.243, 7628.000
1501.280, 7702.000
1502.317, 7701.000
1503.354, 7597.000
1504.390, 7586.000
1505.426, 7494.000
1506.463, 7650.000
1507.499, 7698.000
1508.535, 7611.000
1509.570, 7643.000
1510.606, 7549.000
1511.641, 7696.000
1512.676, 7569.000
1513.711, 7600.000
1514.746, 7619.000
1515.781, 7580.000
1516.816, 7579.000
1517.850, 7598.000
1518.884, 7663.000
1519.918, 7638.623
1520.952, 7703.000
1521.986, 7625.000
1523.019, 7637.000
1524.053, 7629.000
1525.086, 7716.000
1526.119, 7637.000
1527.152, 7654.000
1528.185, 7582.000
1529.217, 7537.000
1530.250, 7637.000
1531.282, 7639.000
1532.314, 7603.000
1533.346, 7598.000
1534.377, 7525.000
1535.409, 7680.000
1536.440, 7675.000
1537.472, 7649.000
1538.503, 7644.000
1539.534, 7623.994
1540.564, 7623.693
1541.595, 7600.000
1542.625, 7632.000
1543.656, 7652.000
1544.686, 7668.000
1545.716, 7615.000
1546.745, 7713.000
1547.775, 7637.000
1548.804, 7673.000
1549.834, 7704.000
1550.863, 7659.000
1551.892, 7669.000
1552.920, 7821.000
1553.949, 7942.000
1554.977, 8048.000
1556.006, 7676.000
1557.034, 7770.000
1558.062, 7664.000
1559.089, 7682.000
1560.117, 7744.000
1561.144, 7726.000
1562.172, 7633.000
1563.199, 7707.000
1564.226, 7525.000
1565.252, 7692.000
1566.279, 7620.000
1567.305, 7752.000
1568.332, 7701.000
1569.358, 7696.000
1570.384, 7749.000
1571.409, 7777.000
##END=



