##NAMES=Beryl
##RRUFFID=R060944
##IDEAL CHEMISTRY=Be_3_Al_2_Si_6_O_18_
##LOCALITY=Habachtal, Salzburg, Austria
##OWNER=RRUFF
##SOURCE=Lawrence W. Snee
##DESCRIPTION=Green hexagonal prisms in a muscovite schist, variety emerald. Note that there are micro inclusions of actinolite. The Raman signal is a mixture of the two phases.
##STATUS=The identification of this mineral has been confirmed by X-ray diffraction and chemical analysis
##URL=rruff.info/R060944
##MEASURED CHEMISTRY=Be_3.00_(Al_1.59_Mg_0.33_Fe^3+^_0.04_Cr^3+^_0.04_)_Σ=2_Si_6.00_O_18_·Na_0.33_ ; bright inclusions are actinolite
##PIN_ID=L01950
##ORIENTATION=Laser parallel to c* (0 0 1). Fiducial mark perpendicular to laser is parallel to -b [0 -1 0]
130.4390, 13541.00
131.6680, 13590.00
132.8980, 13585.00
134.1270, 13631.00
135.3560, 13682.00
136.5850, 13801.00
137.8140, 14060.00
139.0430, 14210.00
140.2710, 14267.00
141.5000, 14190.00
142.7280, 14037.00
143.9560, 13958.00
145.1840, 14086.00
146.4120, 14282.00
147.6390, 14293.00
148.8670, 14339.00
150.0940, 14631.00
151.3210, 15154.00
152.5490, 15885.00
153.7750, 16776.00
155.0020, 18589.00
156.2290, 20459.00
157.4550, 21780.00
158.6810, 21347.00
159.9080, 19503.00
161.1340, 17926.00
162.3590, 16932.00
163.5850, 16589.00
164.8110, 16138.00
166.0360, 16030.00
167.2610, 15878.00
168.4860, 16215.00
169.7110, 16761.00
170.9360, 17561.00
172.1610, 18277.00
173.3850, 20098.00
174.6100, 21992.00
175.8340, 24032.00
177.0580, 25455.00
178.2820, 25003.00
179.5050, 22629.00
180.7290, 20294.00
181.9520, 18673.00
183.1760, 17462.00
184.3990, 16629.00
185.6220, 16292.00
186.8450, 16202.00
188.0670, 16142.00
189.2900, 16455.00
190.5120, 16839.00
191.7340, 16770.00
192.9560, 16322.00
194.1780, 15952.00
195.4000, 15595.00
196.6220, 15414.00
197.8430, 15368.00
199.0640, 15413.00
200.2860, 15306.00
201.5070, 15654.00
202.7270, 15623.00
203.9480, 15501.00
205.1690, 15322.00
206.3890, 15278.00
207.6090, 15440.00
208.8290, 15801.00
210.0490, 16205.83
211.2690, 16851.44
212.4890, 17602.00
213.7080, 18596.00
214.9280, 19844.00
216.1470, 21220.00
217.3660, 22957.00
218.5850, 25016.00
219.8030, 27059.00
221.0220, 28643.00
222.2400, 28850.00
223.4590, 27410.00
224.6770, 25776.00
225.8950, 24464.00
227.1120, 23460.00
228.3300, 23021.00
229.5480, 22765.00
230.7650, 21869.00
231.9820, 20998.00
233.1990, 19649.00
234.4160, 18285.00
235.6330, 17208.00
236.8490, 16814.00
238.0660, 16010.00
239.2820, 15909.00
240.4980, 15587.00
241.7140, 15468.00
242.9300, 15591.00
244.1460, 15842.00
245.3610, 15866.00
246.5770, 15936.00
247.7920, 16000.00
249.0070, 15842.00
250.2220, 15454.00
251.4370, 15218.00
252.6510, 14921.00
253.8660, 14664.00
255.0800, 14321.00
256.2940, 14352.00
257.5080, 14652.00
258.7220, 14478.49
259.9360, 14506.25
261.1490, 14471.00
262.3630, 14414.00
263.5760, 14281.00
264.7890, 14429.00
266.0020, 14553.00
267.2150, 14514.00
268.4270, 14396.00
269.6400, 14033.00
270.8520, 13802.00
272.0640, 13733.00
273.2760, 13609.00
274.4880, 13454.00
275.7000, 13590.00
276.9120, 13610.00
278.1230, 13544.00
279.3340, 13613.00
280.5450, 13549.00
281.7560, 13628.00
282.9670, 13875.00
284.1780, 13799.00
285.3880, 13974.00
286.5980, 14267.00
287.8090, 14467.00
289.0190, 14338.00
290.2290, 14573.00
291.4380, 14661.00
292.6480, 14554.00
293.8570, 14331.00
295.0670, 14233.00
296.2760, 14107.00
297.4850, 14281.00
298.6930, 14102.00
299.9020, 14276.00
301.1110, 14123.00
302.3190, 14091.00
303.5270, 14140.00
304.7350, 13899.00
305.9430, 13882.00
307.1510, 13831.00
308.3580, 13896.00
309.5660, 14051.00
310.7730, 14090.00
311.9800, 14188.00
313.1870, 14338.00
314.3940, 14437.00
315.6010, 14645.00
316.8070, 14724.00
318.0130, 14930.00
319.2200, 15212.00
320.4260, 15334.00
321.6310, 15507.00
322.8370, 15666.00
324.0430, 15730.00
325.2480, 15518.00
326.4540, 15105.00
327.6590, 14799.00
328.8640, 14509.00
330.0680, 14061.00
331.2730, 13896.00
332.4780, 13757.00
333.6820, 13652.00
334.8860, 13629.00
336.0900, 13631.00
337.2940, 13848.00
338.4980, 13885.00
339.7010, 14086.00
340.9050, 14144.00
342.1080, 14354.00
343.3110, 14517.00
344.5140, 14677.00
345.7170, 14844.00
346.9200, 14904.00
348.1220, 14670.00
349.3240, 14818.00
350.5270, 14668.00
351.7290, 14716.00
352.9310, 14787.00
354.1320, 14645.00
355.3340, 14544.00
356.5350, 14472.00
357.7370, 14551.00
358.9380, 14648.00
360.1390, 14699.00
361.3400, 14830.00
362.5400, 15080.00
363.7410, 15404.00
364.9410, 15509.00
366.1410, 15734.00
367.3410, 15637.00
368.5410, 15616.00
369.7410, 15579.00
370.9400, 15499.00
372.1400, 15283.00
373.3390, 15333.00
374.5380, 14986.00
375.7370, 14807.00
376.9360, 14905.00
378.1350, 14750.00
379.3330, 14729.00
380.5310, 15099.00
381.7300, 15142.00
382.9280, 15484.00
384.1260, 15836.00
385.3230, 16577.00
386.5210, 17192.00
387.7180, 18288.00
388.9160, 19366.00
390.1130, 20362.00
391.3100, 21518.00
392.5060, 22261.00
393.7030, 23242.00
394.9000, 23821.00
396.0960, 24470.00
397.2920, 24581.00
398.4880, 24722.00
399.6840, 23785.00
400.8800, 22593.00
402.0750, 21516.00
403.2710, 20473.00
404.4660, 19664.00
405.6610, 18890.00
406.8560, 18630.00
408.0510, 18220.00
409.2450, 18113.00
410.4400, 17952.00
411.6340, 17838.00
412.8280, 17818.00
414.0220, 17560.00
415.2160, 16974.00
416.4100, 16832.00
417.6030, 16600.00
418.7970, 15967.00
419.9900, 15816.00
421.1830, 15431.00
422.3760, 15166.00
423.5690, 14989.00
424.7610, 14679.00
425.9540, 14457.00
427.1460, 14528.00
428.3380, 14408.00
429.5300, 14579.00
430.7220, 14567.00
431.9140, 14784.00
433.1050, 15077.00
434.2970, 15153.00
435.4880, 15301.00
436.6790, 15227.00
437.8700, 14964.00
439.0610, 14887.00
440.2510, 14575.00
441.4420, 14601.00
442.6320, 14022.00
443.8220, 13664.00
445.0120, 13586.00
446.2020, 13272.00
447.3910, 13059.00
448.5810, 12919.00
449.7700, 12924.00
450.9600, 12761.00
452.1490, 12837.00
453.3370, 12739.00
454.5260, 12749.00
455.7150, 12709.00
456.9030, 12607.00
458.0910, 12634.00
459.2800, 12588.00
460.4670, 12646.00
461.6550, 12610.00
462.8430, 12567.00
464.0300, 12451.00
465.2180, 12560.00
466.4050, 12576.00
467.5920, 12457.00
468.7790, 12483.00
469.9650, 12495.00
471.1520, 12465.00
472.3380, 12430.00
473.5250, 12514.00
474.7110, 12529.00
475.8970, 12645.00
477.0820, 12553.00
478.2680, 12487.00
479.4540, 12632.00
480.6390, 12717.00
481.8240, 12601.00
483.0090, 12780.00
484.1940, 12711.00
485.3780, 12687.00
486.5630, 12655.00
487.7470, 12806.00
488.9320, 12770.00
490.1160, 12756.99
491.3000, 12711.00
492.4830, 12633.00
493.6670, 12743.00
494.8500, 12608.00
496.0340, 12587.00
497.2170, 12813.00
498.4000, 12822.00
499.5820, 12856.00
500.7650, 13003.00
501.9480, 12969.36
503.1300, 13045.00
504.3120, 13003.00
505.4940, 13120.00
506.6760, 13184.00
507.8580, 13369.00
509.0390, 13449.49
510.2210, 13494.00
511.4020, 13654.00
512.5830, 13877.00
513.7640, 13957.00
514.9450, 14104.60
516.1250, 14191.00
517.3060, 14324.00
518.4860, 14433.00
519.6660, 14558.18
520.8460, 14500.00
522.0260, 14672.00
523.2060, 14634.00
524.3850, 14588.00
525.5650, 14862.00
526.7440, 14910.00
527.9230, 14672.00
529.1020, 14654.00
530.2810, 14323.00
531.4590, 13994.00
532.6380, 13924.00
533.8160, 13545.00
534.9940, 13366.00
536.1720, 13223.00
537.3500, 13039.00
538.5270, 12956.00
539.7050, 12858.00
540.8820, 12692.00
542.0590, 12768.00
543.2360, 12747.00
544.4130, 12739.00
545.5900, 12843.00
546.7660, 12817.00
547.9430, 12908.00
549.1190, 12799.00
550.2950, 12871.00
551.4710, 12888.00
552.6470, 13129.00
553.8220, 13225.00
554.9980, 13395.00
556.1730, 13579.00
557.3480, 13875.00
558.5230, 14122.00
559.6980, 14328.00
560.8730, 14161.00
562.0470, 14512.00
563.2220, 14424.00
564.3960, 14518.00
565.5700, 14510.00
566.7440, 14435.00
567.9170, 14382.00
569.0910, 14286.00
570.2640, 14432.00
571.4380, 14392.00
572.6110, 14311.00
573.7840, 14261.00
574.9570, 14095.00
576.1290, 14117.00
577.3020, 13961.00
578.4740, 13873.00
579.6460, 13964.00
580.8180, 13847.00
581.9900, 13782.00
583.1620, 13785.00
584.3330, 13766.00
585.5040, 13569.00
586.6760, 13584.00
587.8470, 13529.00
589.0180, 13547.00
590.1880, 13489.00
591.3590, 13441.12
592.5290, 13359.00
593.7000, 13279.00
594.8700, 13257.00
596.0400, 13089.00
597.2090, 13198.00
598.3790, 13111.00
599.5490, 12956.00
600.7180, 13078.00
601.8870, 13036.00
603.0560, 13045.00
604.2250, 12856.00
605.3940, 12785.00
606.5620, 12876.00
607.7300, 12927.00
608.8990, 12941.00
610.0670, 12939.00
611.2350, 12935.00
612.4020, 13043.00
613.5700, 12912.00
614.7370, 13069.00
615.9050, 12929.00
617.0720, 12890.00
618.2390, 12871.00
619.4060, 12943.00
620.5720, 12777.00
621.7390, 12935.00
622.9050, 12856.00
624.0710, 12975.00
625.2370, 12773.00
626.4030, 12776.00
627.5690, 12973.00
628.7340, 13060.00
629.9000, 12987.00
631.0650, 13075.00
632.2300, 13225.00
633.3950, 13139.00
634.5600, 13258.00
635.7240, 13443.00
636.8890, 13573.00
638.0530, 13625.00
639.2170, 13673.00
640.3810, 13784.00
641.5450, 13897.45
642.7080, 14198.00
643.8720, 14244.00
645.0350, 14508.00
646.1980, 14818.00
647.3610, 14987.00
648.5240, 15151.00
649.6870, 15348.00
650.8490, 15461.00
652.0120, 15889.00
653.1740, 16097.00
654.3360, 16689.00
655.4980, 17055.00
656.6600, 17697.00
657.8210, 18489.00
658.9830, 19322.00
660.1440, 20339.00
661.3050, 21732.00
662.4660, 23502.00
663.6270, 26126.00
664.7870, 29312.00
665.9480, 32684.00
667.1080, 37363.00
668.2680, 42494.00
669.4280, 48860.00
670.5880, 52989.00
671.7480, 56105.00
672.9070, 56015.00
674.0670, 53138.00
675.2260, 48676.00
676.3850, 44226.00
677.5440, 41022.00
678.7030, 39443.00
679.8610, 39463.00
681.0200, 40361.00
682.1780, 43120.00
683.3360, 46483.00
684.4940, 50175.00
685.6520, 53483.00
686.8090, 54198.00
687.9670, 52215.00
689.1240, 47626.00
690.2810, 42273.00
691.4380, 37268.00
692.5950, 32355.00
693.7520, 28282.00
694.9080, 25520.00
696.0650, 23330.00
697.2210, 21493.00
698.3770, 20156.00
699.5330, 19169.00
700.6880, 18192.00
701.8440, 17614.00
702.9990, 17005.00
704.1550, 16499.00
705.3100, 16073.00
706.4650, 15635.99
707.6190, 15442.00
708.7740, 15025.00
709.9290, 14785.00
711.0830, 14742.00
712.2370, 14456.00
713.3910, 14283.00
714.5450, 14093.00
715.6980, 13977.00
716.8520, 13843.47
718.0050, 13874.00
719.1580, 13673.00
720.3110, 13652.00
721.4640, 13657.00
722.6170, 13519.00
723.7700, 13359.00
724.9220, 13408.00
726.0740, 13439.00
727.2260, 13278.00
728.3780, 13283.00
729.5300, 13289.00
730.6810, 13330.00
731.8330, 13295.00
732.9840, 13340.00
734.1350, 13448.00
735.2860, 13430.00
736.4370, 13541.00
737.5880, 13467.00
738.7380, 13580.00
739.8880, 13694.00
741.0390, 13683.00
742.1890, 13799.00
743.3380, 13716.00
744.4880, 13801.00
745.6380, 13898.00
746.7870, 13671.00
747.9360, 13887.00
749.0850, 13708.00
750.2340, 13828.00
751.3830, 13847.00
752.5310, 13764.00
753.6800, 13721.00
754.8280, 13666.00
755.9760, 13628.00
757.1240, 13413.00
758.2720, 13528.00
759.4190, 13349.00
760.5670, 13419.00
761.7140, 13217.00
762.8610, 13267.00
764.0080, 13180.00
765.1550, 13220.00
766.3020, 13094.00
767.4480, 13109.00
768.5950, 13095.24
769.7410, 12981.18
770.8870, 13091.00
772.0330, 12894.00
773.1780, 12878.00
774.3240, 13057.00
775.4690, 12899.00
776.6140, 12832.00
777.7590, 12759.00
778.9040, 12875.00
780.0490, 12782.68
781.1940, 12891.00
782.3380, 12758.00
783.4820, 12747.00
784.6260, 12798.00
785.7700, 12745.00
786.9140, 12702.00
788.0580, 12684.00
789.2010, 12616.00
790.3450, 12606.65
791.4880, 12762.00
792.6310, 12593.00
793.7730, 12565.00
794.9160, 12607.00
796.0590, 12414.00
797.2010, 12648.00
798.3430, 12619.00
799.4850, 12592.00
800.6270, 12567.00
801.7690, 12489.00
802.9100, 12520.00
804.0520, 12683.00
805.1930, 12493.00
806.3340, 12650.00
807.4750, 12516.00
808.6160, 12416.00
809.7560, 12633.00
810.8970, 12440.00
812.0370, 12508.00
813.1770, 12702.00
814.3170, 13415.00
815.4570, 13116.00
816.5960, 12986.00
817.7360, 12390.00
818.8750, 12496.00
820.0140, 12390.00
821.1530, 12485.00
822.2920, 12515.00
823.4310, 12431.00
824.5690, 12598.00
825.7070, 12607.00
826.8460, 12600.00
827.9840, 12535.00
829.1220, 12490.00
830.2590, 12489.00
831.3970, 12595.00
832.5340, 12648.00
833.6710, 12640.00
834.8080, 12590.00
835.9450, 12487.00
837.0820, 12476.00
838.2190, 12534.00
839.3550, 12570.00
840.4910, 12685.00
841.6270, 12536.00
842.7630, 12550.00
843.8990, 12528.00
845.0350, 12697.00
846.1700, 12559.00
847.3060, 12574.00
848.4410, 12489.00
849.5760, 12712.00
850.7100, 12549.00
851.8450, 12609.00
852.9800, 12682.00
854.1140, 12589.00
855.2480, 12655.00
856.3820, 12679.00
857.5160, 12639.00
858.6500, 12608.00
859.7830, 12675.00
860.9170, 12664.00
862.0500, 12744.00
863.1830, 12653.00
864.3160, 12652.00
865.4480, 12723.00
866.5810, 12701.00
867.7130, 12734.00
868.8460, 12719.00
869.9780, 12792.00
871.1100, 12694.00
872.2410, 12753.00
873.3730, 12805.00
874.5050, 12787.00
875.6360, 12817.88
876.7670, 12818.00
877.8980, 12804.00
879.0290, 12775.00
880.1590, 12736.00
881.2900, 12926.00
882.4200, 12827.00
883.5500, 12929.00
884.6800, 12702.00
885.8100, 12907.00
886.9400, 12924.00
888.0690, 12992.00
889.1990, 13064.00
890.3280, 13127.00
891.4570, 13045.00
892.5860, 13294.00
893.7140, 13307.00
894.8430, 13220.00
895.9710, 13426.00
897.1000, 13509.00
898.2280, 13450.00
899.3560, 13596.00
900.4830, 13667.00
901.6110, 13712.00
902.7380, 13703.00
903.8660, 13877.00
904.9930, 13925.00
906.1200, 14081.00
907.2460, 14016.00
908.3730, 14063.00
909.5000, 14121.00
910.6260, 14156.00
911.7520, 14159.00
912.8780, 14407.00
914.0040, 14586.00
915.1290, 14588.00
916.2550, 14619.00
917.3800, 14785.00
918.5050, 15142.00
919.6300, 15247.00
920.7550, 15580.00
921.8800, 15832.00
923.0040, 16052.00
924.1290, 16741.00
925.2530, 16897.00
926.3770, 17419.00
927.5010, 17836.00
928.6250, 18064.00
929.7480, 17891.00
930.8720, 17684.00
931.9950, 17172.00
933.1180, 16690.00
934.2410, 16154.00
935.3640, 15801.00
936.4860, 15407.46
937.6090, 14947.00
938.7310, 14786.00
939.8530, 14665.00
940.9750, 14436.00
942.0970, 14428.00
943.2180, 14495.00
944.3400, 14565.00
945.4610, 14527.00
946.5820, 14555.00
947.7030, 14507.00
948.8240, 14330.00
949.9450, 14325.00
951.0650, 14301.00
952.1860, 14199.00
953.3060, 13926.00
954.4260, 13973.00
955.5460, 13910.00
956.6650, 13715.00
957.7850, 13751.00
958.9040, 13733.00
960.0230, 13785.00
961.1420, 13683.00
962.2610, 13757.00
963.3800, 13748.00
964.4990, 13792.00
965.6170, 13679.67
966.7350, 13756.00
967.8530, 13742.55
968.9710, 13728.00
970.0890, 13812.00
971.2070, 13703.00
972.3240, 13804.00
973.4410, 13812.00
974.5580, 13816.00
975.6750, 13807.00
976.7920, 14031.00
977.9090, 14037.00
979.0250, 14075.51
980.1410, 13903.00
981.2580, 14107.00
982.3740, 14052.00
983.4890, 14078.00
984.6050, 14386.00
985.7200, 14498.00
986.8360, 14530.00
987.9510, 14812.00
989.0660, 14816.00
990.1810, 15058.00
991.2950, 15483.00
992.4100, 15751.00
993.5240, 15835.00
994.6390, 15931.00
995.7530, 16402.00
996.8660, 16644.00
997.9800, 16619.00
999.0940, 16625.00
1000.207, 16862.00
1001.320, 16791.00
1002.433, 16751.00
1003.546, 16720.00
1004.659, 16726.00
1005.772, 16466.00
1006.884, 16606.00
1007.996, 16486.00
1009.108, 16412.00
1010.220, 16450.00
1011.332, 16505.00
1012.444, 16740.00
1013.555, 16657.00
1014.666, 16935.00
1015.777, 17110.00
1016.888, 17068.00
1017.999, 17610.00
1019.110, 17821.00
1020.220, 18017.00
1021.331, 18300.00
1022.441, 18460.00
1023.551, 18727.00
1024.661, 19092.00
1025.770, 19350.00
1026.880, 19438.00
1027.989, 19267.00
1029.098, 18792.00
1030.207, 18480.00
1031.316, 17973.00
1032.425, 17405.00
1033.533, 17237.00
1034.642, 16882.00
1035.750, 16800.00
1036.858, 16529.00
1037.966, 16540.00
1039.073, 16666.00
1040.181, 16750.00
1041.288, 17008.00
1042.396, 17033.00
1043.503, 17728.00
1044.610, 17911.00
1045.716, 18536.00
1046.823, 19601.00
1047.929, 20224.00
1049.036, 21495.00
1050.142, 22537.00
1051.248, 24098.00
1052.353, 25796.00
1053.459, 27416.00
1054.564, 28787.00
1055.670, 29902.00
1056.775, 30520.00
1057.880, 30065.00
1058.985, 29119.00
1060.089, 27973.00
1061.194, 26790.00
1062.298, 25654.00
1063.402, 24876.00
1064.506, 24433.00
1065.610, 24090.00
1066.713, 23688.00
1067.817, 23464.00
1068.920, 23336.00
1070.023, 22990.00
1071.126, 22580.00
1072.229, 22278.00
1073.332, 21489.00
1074.435, 21094.00
1075.537, 20377.00
1076.639, 19945.00
1077.741, 19339.00
1078.843, 19019.00
1079.945, 18474.00
1081.046, 18051.00
1082.148, 17809.00
1083.249, 17734.00
1084.350, 17149.00
1085.451, 17028.00
1086.551, 16846.00
1087.652, 16600.00
1088.752, 16450.00
1089.853, 16453.00
1090.953, 16444.00
1092.053, 16161.00
1093.152, 15997.00
1094.252, 16026.00
1095.351, 15902.00
1096.451, 15907.00
1097.550, 15782.43
1098.649, 15702.00
1099.748, 15520.00
1100.846, 15433.00
1101.945, 15291.00
1103.043, 15360.00
1104.141, 15289.00
1105.239, 15202.00
1106.337, 15059.00
1107.434, 14939.00
1108.532, 15122.00
1109.629, 15105.00
1110.726, 14860.00
1111.823, 15055.00
1112.920, 14981.00
1114.017, 15023.00
1115.113, 14908.00
1116.210, 15100.00
1117.306, 15292.00
1118.402, 15239.00
1119.498, 15467.00
1120.593, 15278.00
1121.689, 15439.00
1122.784, 15415.00
1123.879, 15585.00
1124.974, 15422.00
1126.069, 15414.00
1127.164, 15383.00
1128.259, 15160.00
1129.353, 14880.00
1130.447, 14939.00
1131.541, 14732.00
1132.635, 14675.00
1133.729, 14725.00
1134.822, 14628.00
1135.916, 14606.47
1137.009, 14464.00
1138.102, 14448.00
1139.195, 14368.00
1140.288, 14158.00
1141.380, 14301.00
1142.473, 13934.00
1143.565, 14271.00
1144.657, 14167.00
1145.749, 13993.00
1146.841, 14185.00
1147.932, 13984.00
1149.024, 14568.00
1150.115, 14154.78
1151.206, 14764.00
1152.297, 13761.00
1153.388, 13687.00
1154.479, 13866.00
1155.569, 13686.00
1156.659, 13903.00
1157.750, 13656.00
1158.839, 13678.00
1159.929, 13651.00
1161.019, 13732.00
1162.108, 13496.00
1163.198, 13689.00
1164.287, 13703.00
1165.376, 13542.00
1166.465, 13703.00
1167.553, 13546.00
1168.642, 13813.00
1169.730, 13719.00
1170.818, 13734.00
1171.906, 13860.00
1172.994, 13725.00
1174.082, 13867.00
1175.170, 13877.00
1176.257, 13913.68
1177.344, 13998.05
1178.431, 14064.00
1179.518, 14145.00
1180.605, 14257.00
1181.691, 14264.26
1182.778, 14332.00
1183.864, 14270.00
1184.950, 14209.00
1186.036, 14156.00
1187.122, 14333.00
1188.207, 14449.00
1189.292, 14431.00
1190.378, 14491.00
1191.463, 14339.00
1192.548, 14393.00
1193.632, 14378.00
1194.717, 14388.00
1195.801, 14433.00
1196.886, 14329.00
1197.970, 14458.00
1199.054, 14462.00
1200.137, 14672.00
1201.221, 14609.00
1202.305, 14653.00
1203.388, 14560.00
1204.471, 14738.00
1205.554, 14814.00
1206.637, 14910.00
1207.719, 15029.00
1208.802, 14919.00
1209.884, 15004.00
1210.966, 14964.00
1212.048, 15182.00
1213.130, 15301.00
1214.212, 15154.00
1215.293, 15276.00
1216.374, 15248.00
1217.456, 15214.00
1218.536, 15096.00
1219.617, 15137.00
1220.698, 14860.00
1221.778, 14859.00
1222.859, 14811.00
1223.939, 14668.00
1225.019, 14592.00
1226.099, 14473.00
1227.178, 14378.12
1228.258, 14310.71
1229.337, 14203.00
1230.417, 14183.00
1231.496, 14115.46
1232.574, 14061.93
1233.653, 13984.00
1234.732, 13928.00
1235.810, 13853.00
1236.888, 13806.00
1237.966, 13951.00
1239.044, 13810.00
1240.122, 13757.00
1241.199, 13576.00
1242.277, 13697.00
1243.354, 13551.00
1244.431, 13677.00
1245.508, 13595.00
1246.585, 13599.00
1247.661, 13523.00
1248.738, 13548.00
1249.814, 13627.00
1250.890, 13464.00
1251.966, 13415.00
1253.042, 13571.00
1254.117, 13523.00
1255.193, 13449.00
1256.268, 13393.00
1257.343, 13390.00
1258.418, 13338.45
1259.493, 13393.00
1260.567, 13346.00
1261.642, 13361.00
1262.716, 13493.00
1263.790, 13295.00
1264.864, 13440.00
1265.938, 13523.00
1267.011, 13443.00
1268.085, 13495.00
1269.158, 13488.00
1270.231, 13380.00
1271.304, 13311.00
1272.377, 13481.00
1273.450, 13523.00
1274.522, 13519.00
1275.594, 13557.00
1276.666, 13458.00
1277.738, 13452.00
1278.810, 13319.00
1279.882, 13446.00
1280.953, 13537.00
1282.025, 13448.00
1283.096, 13359.00
1284.167, 13371.00
1285.238, 13544.00
1286.308, 13332.00
1287.379, 13392.00
1288.449, 13443.00
1289.519, 13357.00
1290.589, 13454.00
1291.659, 13552.00
1292.729, 13482.00
1293.798, 13358.00
1294.868, 13466.00
1295.937, 13534.00
1297.006, 13446.00
1298.075, 13490.00
1299.143, 13446.00
1300.212, 13582.00
1301.280, 13402.00
1302.348, 13458.00
1303.416, 13571.00
1304.484, 13416.00
1305.552, 13475.00
1306.620, 13522.00
1307.687, 13402.00
1308.754, 13494.00
1309.821, 13430.00
1310.888, 13425.00
1311.955, 13583.00
1313.021, 13522.00
1314.088, 13461.00
1315.154, 13620.00
1316.220, 13630.00
1317.286, 13645.00
1318.352, 13597.00
1319.417, 13665.00
1320.483, 13483.00
1321.548, 13535.00
1322.613, 13690.00
1323.678, 13523.00
1324.743, 13579.00
1325.807, 13710.00
1326.872, 13687.00
1327.936, 13536.00
1329.000, 13601.00
1330.064, 13561.00
1331.128, 13537.00
1332.191, 13605.00
1333.255, 13655.00
1334.318, 13625.00
1335.381, 13764.00
1336.444, 13568.00
1337.507, 13674.00
1338.569, 13624.00
1339.632, 13663.00
1340.694, 13683.00
1341.756, 13487.00
1342.818, 13751.00
1343.880, 13767.00
1344.941, 13646.00
1346.003, 13748.00
1347.064, 13761.00
1348.125, 13731.00
1349.186, 13607.00
1350.247, 13700.00
1351.308, 13826.00
1352.368, 13668.00
1353.428, 13742.00
1354.489, 13671.00
1355.549, 13714.00
1356.608, 13701.00
1357.668, 13752.00
1358.727, 13861.00
1359.787, 13747.00
1360.846, 13804.00
1361.905, 13771.00
1362.964, 13737.00
1364.022, 13675.00
1365.081, 13687.00
1366.139, 13689.00
1367.197, 13622.00
1368.255, 13707.00
1369.313, 13736.00
1370.371, 13754.00
1371.428, 13689.00
1372.486, 13599.00
1373.543, 13814.00
1374.600, 13764.00
1375.657, 13870.00
1376.713, 13641.00
1377.770, 13833.00
1378.826, 13807.00
1379.882, 13803.00
1380.938, 13778.00
1381.994, 14059.00
1383.050, 14315.00
1384.106, 14584.00
1385.161, 14704.00
1386.216, 14600.00
1387.271, 14267.00
1388.326, 14216.00
1389.381, 14022.00
1390.435, 13816.00
1391.490, 13896.00
1392.544, 13940.00
1393.598, 13858.00
1394.652, 13896.00
1395.705, 13865.00
1396.759, 13774.00
1397.812, 13940.00
1398.866, 13914.00
1399.919, 13878.00
1400.972, 13864.00
1402.024, 13955.00
1403.077, 13932.00
1404.129, 13986.00
1405.181, 13918.00
1406.233, 13887.00
1407.285, 13822.00
1408.337, 13826.00
1409.389, 13786.00
1410.440, 13949.00
1411.491, 13874.00
1412.542, 14018.00
1413.593, 13940.00
1414.644, 13824.00
1415.695, 13980.00
1416.745, 14028.00
1417.795, 13991.00
1418.845, 13818.00
1419.895, 13996.00
1420.945, 13946.00
1421.995, 13924.00
1423.044, 14120.00
1424.093, 13902.00
1425.142, 13930.00
1426.191, 13989.00
1427.240, 14058.00
1428.289, 14039.00
1429.337, 13987.00
1430.385, 13978.00
1431.433, 14174.00
1432.481, 13959.00
1433.529, 14037.00
1434.577, 14414.00
1435.624, 14209.19
1436.672, 14107.00
1437.719, 14110.00
1438.766, 14311.00
1439.812, 14207.00
1440.859, 14268.00
1441.905, 14258.00
1442.952, 14114.00
1443.998, 14309.00
1445.044, 14150.00
1446.090, 14190.00
1447.135, 14186.00
1448.181, 14192.00
1449.226, 14262.00
1450.271, 14209.00
1451.316, 14282.00
1452.361, 14249.00
1453.405, 14267.00
1454.450, 14200.00
1455.494, 14453.00
1456.538, 14344.00
1457.582, 14326.00
1458.626, 14382.00
1459.670, 14228.00
1460.713, 14314.00
1461.757, 14288.00
1462.800, 14274.00
1463.843, 14428.00
1464.886, 14290.00
1465.928, 14407.00
1466.971, 14447.00
1468.013, 14380.00
1469.055, 14374.00
1470.097, 14241.00
1471.139, 14305.00
1472.181, 14482.00
1473.222, 14395.00
1474.263, 14456.00
1475.305, 14513.00
1476.346, 14509.00
1477.386, 14423.00
1478.427, 14346.00
1479.468, 14380.00
1480.508, 14482.00
1481.548, 14434.00
1482.588, 14552.00
1483.628, 14539.00
1484.668, 14431.00
1485.707, 14535.00
1486.747, 14516.00
1487.786, 14573.00
1488.825, 14515.00
1489.864, 14561.00
1490.902, 14658.00
1491.941, 14509.00
1492.979, 14697.00
1494.017, 14660.00
1495.055, 14460.00
1496.093, 14632.00
1497.131, 14380.00
1498.168, 14537.00
1499.206, 14608.00
1500.243, 14705.00
1501.280, 14706.00
1502.317, 14555.00
1503.354, 14610.00
1504.390, 14788.00
1505.426, 14530.00
1506.463, 14630.00
1507.499, 14825.00
1508.535, 14759.00
1509.570, 14697.00
1510.606, 14750.00
1511.641, 14744.00
1512.676, 14839.00
1513.711, 14716.00
1514.746, 14933.00
1515.781, 14793.00
1516.816, 14592.00
1517.850, 14775.00
1518.884, 14857.00
1519.918, 14808.00
1520.952, 14742.00
1521.986, 14707.00
1523.019, 14899.00
1524.053, 15048.00
1525.086, 14860.00
1526.119, 14942.00
1527.152, 14949.00
1528.185, 15102.00
1529.217, 14811.00
1530.250, 15031.00
1531.282, 14911.00
1532.314, 14951.00
1533.346, 15168.00
1534.377, 15038.00
1535.409, 14997.00
1536.440, 15046.00
1537.472, 15037.00
1538.503, 15063.00
1539.534, 15059.00
1540.564, 14997.00
1541.595, 15190.00
1542.625, 15144.00
1543.656, 15291.00
1544.686, 15202.00
1545.716, 15116.00
1546.745, 15174.00
1547.775, 15072.00
1548.804, 15245.00
1549.834, 15320.00
1550.863, 15352.00
1551.892, 15440.11
1552.920, 15430.00
1553.949, 15479.00
1554.977, 15422.00
1556.006, 15340.00
1557.034, 15268.00
1558.062, 15373.00
1559.089, 15256.00
1560.117, 15513.00
1561.144, 15253.00
1562.172, 15179.00
1563.199, 15557.00
1564.226, 15309.00
1565.252, 15303.00
1566.279, 15292.00
1567.305, 15257.00
1568.332, 15281.00
1569.358, 15418.00
1570.384, 15390.00
1571.409, 15461.00
##END=



