##NAMES=Beryl
##RRUFFID=R060942
##IDEAL CHEMISTRY=Be_3_Al_2_Si_6_O_18_
##LOCALITY=Mingore mine, Swat Valley, Pakistan
##OWNER=RRUFF
##SOURCE=Lawrence W. Snee
##DESCRIPTION=Green hexagonal prisms, variety emerald
##STATUS=The identification of this mineral has been confirmed by X-ray diffraction and chemical analysis
##URL=rruff.info/R060942
##MEASURED CHEMISTRY=(Be_2.94_Li_0.06_)_Σ=3_(Al_1.55_Mg_0.37_Fe^3+^_0.06_Cr^3+^_0.02_)_Σ=2_Si_6.00_O_18_·Na_0.42_; Be and Li not measured but estimated by stoichiometry
##PIN_ID=L01519
##ORIENTATION=Laser parallel to a* (1 0 0). Fiducial mark perpendicular to laser is parallel to -c [0 0 -1]
119.3650, 12046.00
120.5960, 12027.00
121.8270, 12185.00
123.0580, 12336.00
124.2880, 12415.00
125.5190, 12240.00
126.7490, 12213.00
127.9790, 12373.00
129.2090, 12408.00
130.4390, 12491.00
131.6680, 12627.00
132.8980, 12645.00
134.1270, 12521.00
135.3560, 12591.00
136.5850, 12716.00
137.8140, 12908.00
139.0430, 12949.00
140.2710, 12950.00
141.5000, 12767.00
142.7280, 12777.00
143.9560, 12769.00
145.1840, 12636.00
146.4120, 12792.00
147.6390, 12731.00
148.8670, 12673.00
150.0940, 12727.00
151.3210, 12815.00
152.5490, 12755.00
153.7750, 12674.00
155.0020, 12713.00
156.2290, 12573.00
157.4550, 12555.00
158.6810, 12565.00
159.9080, 12573.00
161.1340, 12591.73
162.3590, 12638.00
163.5850, 12653.00
164.8110, 12662.00
166.0360, 12700.44
167.2610, 12664.85
168.4860, 12691.00
169.7110, 12569.00
170.9360, 12581.00
172.1610, 12470.00
173.3850, 12512.00
174.6100, 12521.00
175.8340, 12464.00
177.0580, 12542.00
178.2820, 12696.00
179.5050, 12722.00
180.7290, 12503.00
181.9520, 12366.00
183.1760, 12396.00
184.3990, 12456.00
185.6220, 12544.00
186.8450, 12521.00
188.0670, 12549.00
189.2900, 12424.00
190.5120, 12468.00
191.7340, 12553.00
192.9560, 12429.00
194.1780, 12659.00
195.4000, 12692.00
196.6220, 12548.00
197.8430, 12519.00
199.0640, 12690.00
200.2860, 12579.00
201.5070, 12867.00
202.7270, 12655.00
203.9480, 12496.00
205.1690, 12253.00
206.3890, 12091.39
207.6090, 11905.00
208.8290, 11797.00
210.0490, 11807.00
211.2690, 11796.00
212.4890, 11714.00
213.7080, 11751.00
214.9280, 11768.00
216.1470, 11797.00
217.3660, 11781.69
218.5850, 11727.00
219.8030, 11765.00
221.0220, 11797.00
222.2400, 11850.00
223.4590, 11778.00
224.6770, 11760.00
225.8950, 11902.00
227.1120, 11980.00
228.3300, 11791.00
229.5480, 11936.00
230.7650, 12000.00
231.9820, 11884.00
233.1990, 11999.00
234.4160, 12014.00
235.6330, 12186.00
236.8490, 12096.00
238.0660, 12072.00
239.2820, 11930.00
240.4980, 12095.00
241.7140, 12134.00
242.9300, 12140.00
244.1460, 12181.93
245.3610, 12035.00
246.5770, 12099.00
247.7920, 12017.00
249.0070, 11843.00
250.2220, 11817.00
251.4370, 11727.00
252.6510, 11857.00
253.8660, 11797.00
255.0800, 11723.00
256.2940, 11786.00
257.5080, 12068.00
258.7220, 12128.58
259.9360, 12315.88
261.1490, 12537.00
262.3630, 12641.00
263.5760, 12912.00
264.7890, 13067.00
266.0020, 13232.00
267.2150, 13113.00
268.4270, 12992.00
269.6400, 13015.00
270.8520, 12672.00
272.0640, 12557.00
273.2760, 12389.00
274.4880, 12205.00
275.7000, 12052.00
276.9120, 12100.00
278.1230, 12063.00
279.3340, 12145.00
280.5450, 12194.77
281.7560, 12223.00
282.9670, 12326.00
284.1780, 12306.00
285.3880, 12317.00
286.5980, 12386.00
287.8090, 12399.00
289.0190, 12517.00
290.2290, 12421.00
291.4380, 12549.00
292.6480, 12181.00
293.8570, 12298.00
295.0670, 12096.00
296.2760, 11855.00
297.4850, 11752.00
298.6930, 11595.00
299.9020, 11595.00
301.1110, 11490.00
302.3190, 11352.00
303.5270, 11398.00
304.7350, 11368.00
305.9430, 11385.00
307.1510, 11381.00
308.3580, 11523.00
309.5660, 11475.00
310.7730, 11604.00
311.9800, 11607.00
313.1870, 11740.00
314.3940, 11853.00
315.6010, 12065.00
316.8070, 12150.00
318.0130, 12390.00
319.2200, 12581.00
320.4260, 12784.00
321.6310, 12817.00
322.8370, 12719.00
324.0430, 12799.00
325.2480, 12579.00
326.4540, 12345.00
327.6590, 12195.00
328.8640, 11918.22
330.0680, 11663.00
331.2730, 11434.00
332.4780, 11233.00
333.6820, 11054.00
334.8860, 10943.44
336.0900, 10907.00
337.2940, 10800.00
338.4980, 10757.00
339.7010, 10731.00
340.9050, 10627.00
342.1080, 10636.30
343.3110, 10596.40
344.5140, 10622.00
345.7170, 10594.00
346.9200, 10595.00
348.1220, 10658.00
349.3240, 10670.00
350.5270, 10588.00
351.7290, 10617.00
352.9310, 10675.00
354.1320, 10548.00
355.3340, 10704.00
356.5350, 10537.00
357.7370, 10825.00
358.9380, 10736.00
360.1390, 10733.00
361.3400, 10648.00
362.5400, 10714.00
363.7410, 10767.00
364.9410, 10624.00
366.1410, 10775.00
367.3410, 10800.00
368.5410, 10828.00
369.7410, 10892.00
370.9400, 10896.00
372.1400, 11139.00
373.3390, 11201.00
374.5380, 11073.00
375.7370, 11340.00
376.9360, 11326.00
378.1350, 11484.00
379.3330, 11621.00
380.5310, 11823.00
381.7300, 12169.00
382.9280, 12557.00
384.1260, 13008.00
385.3230, 13535.00
386.5210, 14237.00
387.7180, 15318.00
388.9160, 16486.00
390.1130, 17865.00
391.3100, 19608.00
392.5060, 21499.00
393.7030, 23453.00
394.9000, 25637.00
396.0960, 27069.00
397.2920, 28237.00
398.4880, 28477.00
399.6840, 27691.00
400.8800, 27016.00
402.0750, 25107.00
403.2710, 23373.00
404.4660, 21682.00
405.6610, 20289.00
406.8560, 19019.00
408.0510, 17896.00
409.2450, 17091.00
410.4400, 16704.00
411.6340, 16026.00
412.8280, 15447.00
414.0220, 15125.00
415.2160, 14745.00
416.4100, 14417.00
417.6030, 14010.00
418.7970, 13748.00
419.9900, 13458.00
421.1830, 13179.00
422.3760, 12999.00
423.5690, 12778.00
424.7610, 12634.00
425.9540, 12592.00
427.1460, 12444.00
428.3380, 12546.00
429.5300, 12667.00
430.7220, 12383.00
431.9140, 12495.00
433.1050, 12649.00
434.2970, 12796.00
435.4880, 12740.00
436.6790, 12747.00
437.8700, 12865.00
439.0610, 12681.00
440.2510, 12623.00
441.4420, 12451.00
442.6320, 12246.00
443.8220, 12079.91
445.0120, 11810.00
446.2020, 11632.00
447.3910, 11428.00
448.5810, 11273.80
449.7700, 11186.26
450.9600, 11064.00
452.1490, 11037.00
453.3370, 10945.65
454.5260, 10931.00
455.7150, 10819.00
456.9030, 10832.00
458.0910, 10777.00
459.2800, 10778.00
460.4670, 10844.00
461.6550, 10638.00
462.8430, 10661.00
464.0300, 10769.00
465.2180, 10620.00
466.4050, 10637.00
467.5920, 10749.00
468.7790, 10697.00
469.9650, 10692.00
471.1520, 10728.00
472.3380, 10713.00
473.5250, 10660.00
474.7110, 10869.00
475.8970, 10682.00
477.0820, 10941.00
478.2680, 10845.00
479.4540, 10686.00
480.6390, 10864.00
481.8240, 10830.00
483.0090, 10873.00
484.1940, 10816.00
485.3780, 10715.00
486.5630, 10656.00
487.7470, 10715.00
488.9320, 10772.00
490.1160, 10679.00
491.3000, 10837.00
492.4830, 10735.00
493.6670, 10750.00
494.8500, 10864.00
496.0340, 10788.00
497.2170, 10842.00
498.4000, 10694.00
499.5820, 10826.00
500.7650, 10877.00
501.9480, 10914.00
503.1300, 10810.00
504.3120, 10928.00
505.4940, 10931.00
506.6760, 10818.00
507.8580, 10968.00
509.0390, 10867.00
510.2210, 10974.00
511.4020, 11697.00
512.5830, 12216.00
513.7640, 12559.00
514.9450, 12631.00
516.1250, 11220.00
517.3060, 11170.00
518.4860, 11064.00
519.6660, 11327.00
520.8460, 11205.00
522.0260, 11193.00
523.2060, 11059.00
524.3850, 10989.00
525.5650, 10827.00
526.7440, 10675.00
527.9230, 10714.00
529.1020, 10648.00
530.2810, 10563.00
531.4590, 10462.00
532.6380, 10381.00
533.8160, 10485.00
534.9940, 10402.00
536.1720, 10342.00
537.3500, 10456.00
538.5270, 10129.00
539.7050, 10273.00
540.8820, 10393.00
542.0590, 10276.00
543.2360, 10344.00
544.4130, 10284.00
545.5900, 10532.00
546.7660, 10443.00
547.9430, 10497.00
549.1190, 10719.00
550.2950, 10774.00
551.4710, 10936.00
552.6470, 11096.00
553.8220, 11317.00
554.9980, 11547.00
556.1730, 11801.00
557.3480, 12086.00
558.5230, 12351.00
559.6980, 12594.00
560.8730, 12669.00
562.0470, 12786.00
563.2220, 12827.17
564.3960, 12713.00
565.5700, 12773.00
566.7440, 12744.00
567.9170, 12614.00
569.0910, 12585.00
570.2640, 12625.00
571.4380, 12463.00
572.6110, 12448.00
573.7840, 12361.00
574.9570, 12307.00
576.1290, 12167.00
577.3020, 12352.00
578.4740, 12026.00
579.6460, 12200.00
580.8180, 11905.00
581.9900, 11993.00
583.1620, 11908.00
584.3330, 11949.00
585.5040, 11924.00
586.6760, 11840.19
587.8470, 11707.00
589.0180, 11697.00
590.1880, 11733.00
591.3590, 11716.00
592.5290, 11670.17
593.7000, 11602.00
594.8700, 11514.00
596.0400, 11508.00
597.2090, 11359.00
598.3790, 11322.00
599.5490, 11353.00
600.7180, 11141.00
601.8870, 11158.00
603.0560, 11149.00
604.2250, 11128.00
605.3940, 10948.00
606.5620, 11060.00
607.7300, 10865.00
608.8990, 11007.00
610.0670, 11025.00
611.2350, 11121.00
612.4020, 11023.00
613.5700, 11100.00
614.7370, 11121.00
615.9050, 10707.00
617.0720, 10727.00
618.2390, 10674.00
619.4060, 10641.00
620.5720, 10583.00
621.7390, 10469.00
622.9050, 10429.00
624.0710, 10373.00
625.2370, 10412.00
626.4030, 10343.00
627.5690, 10324.00
628.7340, 10272.00
629.9000, 10372.00
631.0650, 10407.00
632.2300, 10349.00
633.3950, 10354.00
634.5600, 10225.00
635.7240, 10384.00
636.8890, 10276.00
638.0530, 10390.00
639.2170, 10456.00
640.3810, 10515.00
641.5450, 10568.58
642.7080, 10524.00
643.8720, 10589.00
645.0350, 10542.00
646.1980, 10446.00
647.3610, 10595.00
648.5240, 10494.00
649.6870, 10565.00
650.8490, 10457.00
652.0120, 10559.00
653.1740, 10739.00
654.3360, 10638.00
655.4980, 10871.00
656.6600, 10753.00
657.8210, 11029.00
658.9830, 10991.00
660.1440, 11123.51
661.3050, 11455.00
662.4660, 11464.00
663.6270, 11715.00
664.7870, 12070.00
665.9480, 12387.00
667.1080, 12790.00
668.2680, 13309.00
669.4280, 13851.00
670.5880, 14535.00
671.7480, 15355.00
672.9070, 16528.00
674.0670, 17848.00
675.2260, 19870.00
676.3850, 22763.00
677.5440, 26461.91
678.7030, 30758.00
679.8610, 36222.00
681.0200, 42112.00
682.1780, 48879.00
683.3360, 55519.00
684.4940, 61247.00
685.6520, 64895.00
686.8090, 65218.00
687.9670, 63055.00
689.1240, 58325.00
690.2810, 51860.00
691.4380, 45504.00
692.5950, 38686.00
693.7520, 33191.00
694.9080, 28704.00
696.0650, 25210.00
697.2210, 22485.00
698.3770, 20474.00
699.5330, 18893.00
700.6880, 17780.00
701.8440, 16739.00
702.9990, 16013.00
704.1550, 15169.00
705.3100, 14696.00
706.4650, 14276.00
707.6190, 13705.00
708.7740, 13392.00
709.9290, 13110.00
711.0830, 12941.00
712.2370, 12712.00
713.3910, 12523.00
714.5450, 12160.00
715.6980, 12136.00
716.8520, 11868.00
718.0050, 11836.00
719.1580, 11614.00
720.3110, 11606.00
721.4640, 11567.00
722.6170, 11411.00
723.7700, 11389.28
724.9220, 11278.00
726.0740, 11237.00
727.2260, 11175.00
728.3780, 11087.00
729.5300, 11029.00
730.6810, 10982.00
731.8330, 10940.00
732.9840, 10958.00
734.1350, 10963.00
735.2860, 10960.89
736.4370, 10951.00
737.5880, 10976.00
738.7380, 10951.00
739.8880, 10942.78
741.0390, 11038.00
742.1890, 10970.00
743.3380, 11047.00
744.4880, 11061.00
745.6380, 10950.00
746.7870, 10939.00
747.9360, 10902.00
749.0850, 10896.00
750.2340, 10861.08
751.3830, 10940.00
752.5310, 10805.00
753.6800, 10782.00
754.8280, 10771.00
755.9760, 10665.00
757.1240, 10850.00
758.2720, 10638.00
759.4190, 10751.00
760.5670, 10784.00
761.7140, 10638.00
762.8610, 10611.00
764.0080, 10745.00
765.1550, 10627.00
766.3020, 10749.00
767.4480, 10549.00
768.5950, 10680.00
769.7410, 10569.00
770.8870, 10589.00
772.0330, 10545.00
773.1780, 10572.00
774.3240, 10542.63
775.4690, 10567.00
776.6140, 10516.00
777.7590, 10430.00
778.9040, 10451.00
780.0490, 10449.00
781.1940, 10491.00
782.3380, 10416.00
783.4820, 10456.00
784.6260, 10493.00
785.7700, 10353.00
786.9140, 10323.00
788.0580, 10330.00
789.2010, 10393.00
790.3450, 10285.00
791.4880, 10285.00
792.6310, 10403.00
793.7730, 10242.00
794.9160, 10182.00
796.0590, 10206.00
797.2010, 10200.00
798.3430, 10195.00
799.4850, 10330.00
800.6270, 10159.00
801.7690, 10079.00
802.9100, 10185.00
804.0520, 10224.00
805.1930, 10123.00
806.3340, 10243.00
807.4750, 10182.00
808.6160, 10174.00
809.7560, 10022.00
810.8970, 10066.00
812.0370, 10186.00
813.1770, 10781.00
814.3170, 10068.00
815.4570, 10469.00
816.5960, 10426.00
817.7360, 9880.000
818.8750, 10122.00
820.0140, 10038.00
821.1530, 9878.000
822.2920, 9895.000
823.4310, 9998.000
824.5690, 9981.000
825.7070, 10041.00
826.8460, 9963.000
827.9840, 10005.00
829.1220, 9925.000
830.2590, 10005.00
831.3970, 10034.00
832.5340, 10081.00
833.6710, 10043.00
834.8080, 10072.25
835.9450, 10047.00
837.0820, 10035.00
838.2190, 10037.00
839.3550, 9932.000
840.4910, 9944.000
841.6270, 9986.000
842.7630, 10046.00
843.8990, 10075.00
845.0350, 10052.00
846.1700, 10074.00
847.3060, 10014.00
848.4410, 10047.00
849.5760, 10168.00
850.7100, 10074.00
851.8450, 10020.00
852.9800, 9974.000
854.1140, 10099.00
855.2480, 9974.000
856.3820, 9998.000
857.5160, 10134.00
858.6500, 10008.00
859.7830, 10035.00
860.9170, 10022.00
862.0500, 9937.000
863.1830, 10061.00
864.3160, 10057.00
865.4480, 10016.00
866.5810, 9973.000
867.7130, 10028.00
868.8460, 9964.000
869.9780, 9976.000
871.1100, 10062.00
872.2410, 10049.00
873.3730, 10029.00
874.5050, 10057.00
875.6360, 10027.00
876.7670, 9947.000
877.8980, 9983.000
879.0290, 9952.426
880.1590, 10032.00
881.2900, 9983.000
882.4200, 9968.000
883.5500, 10039.00
884.6800, 9936.000
885.8100, 10155.00
886.9400, 10150.00
888.0690, 10089.00
889.1990, 10194.00
890.3280, 10294.00
891.4570, 10106.00
892.5860, 10301.00
893.7140, 10325.00
894.8430, 10228.00
895.9710, 10284.00
897.1000, 10313.00
898.2280, 10482.00
899.3560, 10534.00
900.4830, 10373.00
901.6110, 10641.00
902.7380, 10554.00
903.8660, 10703.00
904.9930, 10625.00
906.1200, 10627.00
907.2460, 10589.00
908.3730, 10672.00
909.5000, 10559.00
910.6260, 10650.00
911.7520, 10747.00
912.8780, 10726.00
914.0040, 10703.00
915.1290, 10783.00
916.2550, 10730.07
917.3800, 10713.00
918.5050, 10694.00
919.6300, 10672.00
920.7550, 10659.00
921.8800, 10646.00
923.0040, 10571.00
924.1290, 10565.80
925.2530, 10485.00
926.3770, 10520.00
927.5010, 10442.00
928.6250, 10433.00
929.7480, 10440.00
930.8720, 10360.00
931.9950, 10372.29
933.1180, 10302.00
934.2410, 10337.00
935.3640, 10391.00
936.4860, 10363.00
937.6090, 10346.42
938.7310, 10297.00
939.8530, 10277.00
940.9750, 10266.00
942.0970, 10239.96
943.2180, 10332.00
944.3400, 10227.00
945.4610, 10198.00
946.5820, 10221.00
947.7030, 10040.00
948.8240, 10206.00
949.9450, 10152.00
951.0650, 10221.00
952.1860, 10187.00
953.3060, 10188.00
954.4260, 10216.99
955.5460, 10185.00
956.6650, 10267.00
957.7850, 10148.00
958.9040, 10202.00
960.0230, 10160.00
961.1420, 10239.00
962.2610, 10210.00
963.3800, 10269.00
964.4990, 10246.00
965.6170, 10251.00
966.7350, 10224.00
967.8530, 10197.00
968.9710, 10175.00
970.0890, 10206.00
971.2070, 10201.00
972.3240, 10325.00
973.4410, 10436.00
974.5580, 10318.00
975.6750, 10451.00
976.7920, 10491.00
977.9090, 10519.00
979.0250, 10662.00
980.1410, 10619.00
981.2580, 10862.00
982.3740, 10877.00
983.4890, 10938.00
984.6050, 11172.00
985.7200, 11172.00
986.8360, 11548.00
987.9510, 11695.00
989.0660, 11898.00
990.1810, 12237.00
991.2950, 12363.00
992.4100, 12617.00
993.5240, 12855.37
994.6390, 12987.00
995.7530, 13267.00
996.8660, 13381.00
997.9800, 13478.00
999.0940, 13582.00
1000.207, 13518.00
1001.320, 13646.00
1002.433, 13479.00
1003.546, 13280.00
1004.659, 13291.00
1005.772, 13143.00
1006.884, 13171.00
1007.996, 13027.00
1009.108, 12850.00
1010.220, 12695.00
1011.332, 12660.00
1012.444, 12750.00
1013.555, 12614.00
1014.666, 12511.00
1015.777, 12354.00
1016.888, 12366.00
1017.999, 12122.00
1019.110, 12107.00
1020.220, 12096.00
1021.331, 11951.00
1022.441, 11816.00
1023.551, 11779.00
1024.661, 11610.00
1025.770, 11484.00
1026.880, 11560.00
1027.989, 11506.00
1029.098, 11331.00
1030.207, 11208.00
1031.316, 11063.00
1032.425, 11257.00
1033.533, 11117.00
1034.642, 11178.00
1035.750, 11074.00
1036.858, 11075.00
1037.966, 11174.00
1039.073, 11055.00
1040.181, 11045.00
1041.288, 11059.00
1042.396, 11086.73
1043.503, 11142.00
1044.610, 11225.00
1045.716, 11346.00
1046.823, 11437.48
1047.929, 11568.00
1049.036, 11694.00
1050.142, 11841.00
1051.248, 12025.00
1052.353, 12269.52
1053.459, 12530.00
1054.564, 12870.00
1055.670, 13250.00
1056.775, 13656.00
1057.880, 14188.00
1058.985, 14707.00
1060.089, 15206.00
1061.194, 15794.50
1062.298, 16368.00
1063.402, 16943.00
1064.506, 17626.00
1065.610, 18160.00
1066.713, 18551.00
1067.817, 18773.00
1068.920, 18941.00
1070.023, 18970.77
1071.126, 18952.00
1072.229, 18714.00
1073.332, 18367.00
1074.435, 17969.00
1075.537, 17637.00
1076.639, 17191.00
1077.741, 16711.00
1078.843, 16141.00
1079.945, 15943.00
1081.046, 15520.00
1082.148, 15282.00
1083.249, 14941.00
1084.350, 14768.00
1085.451, 14623.00
1086.551, 14358.00
1087.652, 14244.00
1088.752, 14101.00
1089.853, 13938.00
1090.953, 13805.00
1092.053, 13638.65
1093.152, 13495.10
1094.252, 13337.00
1095.351, 13240.00
1096.451, 13144.00
1097.550, 13105.00
1098.649, 13087.00
1099.748, 12811.00
1100.846, 12969.00
1101.945, 12632.00
1103.043, 12741.00
1104.141, 12505.00
1105.239, 12478.00
1106.337, 12553.00
1107.434, 12399.00
1108.532, 12488.00
1109.629, 12296.00
1110.726, 12257.00
1111.823, 12241.00
1112.920, 12323.00
1114.017, 12483.00
1115.113, 12512.00
1116.210, 12565.00
1117.306, 12542.00
1118.402, 12692.00
1119.498, 12750.00
1120.593, 12819.00
1121.689, 12873.85
1122.784, 13010.95
1123.879, 12916.00
1124.974, 12861.92
1126.069, 12847.00
1127.164, 12647.00
1128.259, 12462.00
1129.353, 12395.00
1130.447, 12260.00
1131.541, 12073.00
1132.635, 12050.00
1133.729, 11869.00
1134.822, 11803.00
1135.916, 11765.00
1137.009, 11647.00
1138.102, 11612.00
1139.195, 11593.00
1140.288, 11489.00
1141.380, 11451.61
1142.473, 11347.00
1143.565, 11306.00
1144.657, 11276.56
1145.749, 11177.00
1146.841, 11183.00
1147.932, 11201.00
1149.024, 10959.00
1150.115, 10963.00
1151.206, 11089.00
1152.297, 10950.00
1153.388, 10801.00
1154.479, 10866.00
1155.569, 10819.00
1156.659, 10858.00
1157.750, 10701.00
1158.839, 10662.00
1159.929, 10706.00
1161.019, 10474.00
1162.108, 10608.00
1163.198, 10537.00
1164.287, 10647.00
1165.376, 10571.00
1166.465, 10633.00
1167.553, 10717.00
1168.642, 10675.00
1169.730, 10653.00
1170.818, 10710.00
1171.906, 10740.00
1172.994, 10718.00
1174.082, 10825.00
1175.170, 10807.00
1176.257, 10924.00
1177.344, 10843.00
1178.431, 10986.00
1179.518, 11020.00
1180.605, 10947.00
1181.691, 11160.00
1182.778, 11190.00
1183.864, 11236.00
1184.950, 11193.00
1186.036, 11243.00
1187.122, 11191.00
1188.207, 11217.00
1189.292, 11216.00
1190.378, 11289.00
1191.463, 11266.86
1192.548, 11210.00
1193.632, 11268.00
1194.717, 11172.00
1195.801, 11195.00
1196.886, 11227.00
1197.970, 11327.00
1199.054, 11276.00
1200.137, 11425.00
1201.221, 11577.00
1202.305, 11412.00
1203.388, 11507.00
1204.471, 11482.00
1205.554, 11629.00
1206.637, 11750.00
1207.719, 11808.00
1208.802, 11792.00
1209.884, 11749.00
1210.966, 11788.00
1212.048, 11784.00
1213.130, 11752.00
1214.212, 11722.72
1215.293, 11661.00
1216.374, 11619.00
1217.456, 11433.00
1218.536, 11393.00
1219.617, 11189.00
1220.698, 11069.00
1221.778, 10945.00
1222.859, 10937.00
1223.939, 10891.00
1225.019, 10876.00
1226.099, 10783.00
1227.178, 10419.00
1228.258, 10478.00
1229.337, 10339.00
1230.417, 10422.00
1231.496, 10316.00
1232.574, 10293.00
1233.653, 10268.00
1234.732, 10249.35
1235.810, 10225.13
1236.888, 10254.00
1237.966, 10163.00
1239.044, 10129.00
1240.122, 10060.00
1241.199, 9970.000
1242.277, 10003.00
1243.354, 10002.00
1244.431, 10004.00
1245.508, 10014.27
1246.585, 9987.760
1247.661, 10014.00
1248.738, 9936.000
1249.814, 9922.274
1250.890, 9898.155
1251.966, 9756.000
1253.042, 9764.000
1254.117, 9672.000
1255.193, 9743.000
1256.268, 9800.000
1257.343, 9740.000
1258.418, 9730.000
1259.493, 9615.000
1260.567, 9715.000
1261.642, 9670.000
1262.716, 9721.000
1263.790, 9675.000
1264.864, 9773.000
1265.938, 9779.000
1267.011, 9670.000
1268.085, 9695.000
1269.158, 9766.000
1270.231, 9767.000
1271.304, 9805.000
1272.377, 9809.568
1273.450, 9814.000
1274.522, 9784.000
1275.594, 9741.000
1276.666, 9690.000
1277.738, 9719.000
1278.810, 9652.866
1279.882, 9644.068
1280.953, 9603.000
1282.025, 9629.000
1283.096, 9679.000
1284.167, 9740.000
1285.238, 9749.000
1286.308, 9756.000
1287.379, 9603.000
1288.449, 9842.000
1289.519, 9531.000
1290.589, 9735.000
1291.659, 9610.000
1292.729, 9562.000
1293.798, 9721.000
1294.868, 9641.912
1295.937, 9747.000
1297.006, 9690.000
1298.075, 9655.000
1299.143, 9695.000
1300.212, 9701.000
1301.280, 9705.000
1302.348, 9722.373
1303.416, 9740.447
1304.484, 9718.000
1305.552, 9736.000
1306.620, 9696.518
1307.687, 9576.000
1308.754, 9639.000
1309.821, 9680.000
1310.888, 9654.000
1311.955, 9768.000
1313.021, 9733.086
1314.088, 9553.000
1315.154, 9727.000
1316.220, 9637.000
1317.286, 9642.000
1318.352, 9609.000
1319.417, 9641.000
1320.483, 9538.000
1321.548, 9573.000
1322.613, 9590.000
1323.678, 9547.000
1324.743, 9698.000
1325.807, 9628.000
1326.872, 9741.000
1327.936, 9659.000
1329.000, 9538.000
1330.064, 9535.000
1331.128, 9646.000
1332.191, 9734.000
1333.255, 9627.000
1334.318, 9785.000
1335.381, 9649.000
1336.444, 9729.000
1337.507, 9619.000
1338.569, 9679.000
1339.632, 9787.000
1340.694, 9759.067
1341.756, 9806.293
1342.818, 9792.000
1343.880, 9774.000
1344.941, 9705.000
1346.003, 9591.000
1347.064, 9685.000
1348.125, 9558.000
1349.186, 9676.000
1350.247, 9526.000
1351.308, 9682.000
1352.368, 9717.000
1353.428, 9511.000
1354.489, 9635.000
1355.549, 9731.000
1356.608, 9717.000
1357.668, 9643.000
1358.727, 9720.000
1359.787, 9535.000
1360.846, 9541.000
1361.905, 9661.000
1362.964, 9556.000
1364.022, 9533.000
1365.081, 9566.000
1366.139, 9556.000
1367.197, 9653.000
1368.255, 9681.000
1369.313, 9416.000
1370.371, 9620.000
1371.428, 9660.000
1372.486, 9531.000
1373.543, 9687.000
1374.600, 9642.000
1375.657, 9532.000
1376.713, 9555.000
1377.770, 9539.000
1378.826, 9607.000
1379.882, 9605.000
1380.938, 9671.000
1381.994, 9898.000
1383.050, 10066.00
1384.106, 9975.000
1385.161, 10056.00
1386.216, 9893.000
1387.271, 9916.000
1388.326, 9643.000
1389.381, 9644.000
1390.435, 9639.000
1391.490, 9563.000
1392.544, 9577.484
1393.598, 9466.000
1394.652, 9556.000
1395.705, 9535.000
1396.759, 9525.906
1397.812, 9682.000
1398.866, 9472.000
1399.919, 9594.000
1400.972, 9580.000
1402.024, 9543.000
1403.077, 9464.000
1404.129, 9521.000
1405.181, 9564.000
1406.233, 9511.000
1407.285, 9647.000
1408.337, 9435.000
1409.389, 9432.000
1410.440, 9506.000
1411.491, 9505.000
1412.542, 9431.000
1413.593, 9399.000
1414.644, 9365.000
1415.695, 9375.464
1416.745, 9345.000
1417.795, 9441.000
1418.845, 9512.000
1419.895, 9564.000
1420.945, 9537.000
1421.995, 9427.000
1423.044, 9341.000
1424.093, 9520.000
1425.142, 9457.000
1426.191, 9505.000
1427.240, 9481.000
1428.289, 9538.000
1429.337, 9453.000
1430.385, 9465.000
1431.433, 9549.000
1432.481, 9456.000
1433.529, 9540.000
1434.577, 9531.000
1435.624, 9481.000
1436.672, 9526.000
1437.719, 9541.000
1438.766, 9551.000
1439.812, 9571.000
1440.859, 9505.000
1441.905, 9537.378
1442.952, 9487.000
1443.998, 9548.000
1445.044, 9498.000
1446.090, 9498.000
1447.135, 9436.000
1448.181, 9529.000
1449.226, 9496.000
1450.271, 9501.000
1451.316, 9508.000
1452.361, 9432.000
1453.405, 9406.000
1454.450, 9472.000
1455.494, 9497.000
1456.538, 9509.000
1457.582, 9507.000
1458.626, 9400.000
1459.670, 9588.000
1460.713, 9613.000
1461.757, 9444.000
1462.800, 9588.000
1463.843, 9487.000
1464.886, 9475.000
1465.928, 9492.000
1466.971, 9507.000
1468.013, 9582.000
1469.055, 9501.000
1470.097, 9496.000
1471.139, 9557.000
1472.181, 9407.000
1473.222, 9502.000
1474.263, 9571.000
1475.305, 9440.000
1476.346, 9481.000
1477.386, 9661.000
1478.427, 9521.000
1479.468, 9569.000
1480.508, 9549.000
1481.548, 9538.000
1482.588, 9478.000
1483.628, 9584.000
1484.668, 9596.000
1485.707, 9393.000
1486.747, 9537.000
1487.786, 9599.000
1488.825, 9457.000
1489.864, 9537.000
1490.902, 9503.000
1491.941, 9609.000
1492.979, 9513.000
1494.017, 9452.000
1495.055, 9506.000
1496.093, 9568.000
1497.131, 9506.000
1498.168, 9564.000
1499.206, 9601.000
1500.243, 9606.000
1501.280, 9626.284
1502.317, 9590.000
1503.354, 9610.000
1504.390, 9540.000
1505.426, 9494.000
1506.463, 9454.000
1507.499, 9541.000
1508.535, 9569.000
1509.570, 9538.000
1510.606, 9665.000
1511.641, 9581.000
1512.676, 9523.000
1513.711, 9575.000
1514.746, 9519.106
1515.781, 9570.000
1516.816, 9511.000
1517.850, 9619.000
1518.884, 9634.000
1519.918, 9589.000
1520.952, 9575.000
1521.986, 9589.000
1523.019, 9575.000
1524.053, 9560.000
1525.086, 9509.000
1526.119, 9630.000
1527.152, 9600.000
1528.185, 9698.000
1529.217, 9691.000
1530.250, 9593.000
1531.282, 9417.000
1532.314, 9623.000
1533.346, 9594.000
1534.377, 9650.000
1535.409, 9523.000
1536.440, 9614.000
1537.472, 9658.000
1538.503, 9599.000
1539.534, 9661.000
1540.564, 9662.000
1541.595, 9523.000
1542.625, 9597.000
1543.656, 9514.000
1544.686, 9645.000
1545.716, 9575.000
1546.745, 9623.000
1547.775, 9603.000
1548.804, 9583.000
1549.834, 9686.000
1550.863, 9765.000
1551.892, 9641.000
1552.920, 9855.000
1553.949, 9912.000
1554.977, 9961.000
1556.006, 9780.000
1557.034, 9715.000
1558.062, 9672.000
1559.089, 9552.000
1560.117, 9678.000
1561.144, 9536.000
1562.172, 9657.000
1563.199, 9601.000
1564.226, 9719.000
1565.252, 9719.000
1566.279, 9629.000
1567.305, 9650.000
1568.332, 9748.000
1569.358, 9713.000
1570.384, 9603.000
1571.409, 9731.000
##END=



