##NAMES=Beryl
##RRUFFID=R050368
##IDEAL CHEMISTRY=Be_3_Al_2_Si_6_O_18_
##LOCALITY=Wah Wah Mountains, Utah, USA
##OWNER=RRUFF
##SOURCE=Eugene Schlepp
##DESCRIPTION=Red-violet hexagonal prism
##STATUS=The identification of this mineral has been confirmed by X-ray diffraction and chemical analysis
##URL=rruff.info/R050368
##MEASURED CHEMISTRY=(Be_0.99_Li_0.01_)_3_(Al_0.95_Fe^3+^_0.05_)_2_Si_6.00_O_18_Î‡K_0.02_Na_0.01_
##PIN_ID=L01133
##ORIENTATION=Laser parallel to -a* (-1 0 0). Fiducial mark perpendicular to laser is parallel to -c [0 0 -1]
82.36700, 3907.000
83.60200, 3982.000
84.83700, 4047.000
86.07200, 3855.000
87.30800, 4065.000
88.54200, 4188.000
89.77700, 4274.000
91.01200, 4504.000
92.24600, 4538.000
93.48000, 4494.000
94.71400, 4674.000
95.94800, 4502.000
97.18200, 4556.000
98.41600, 4540.000
99.64900, 4665.000
100.8830, 4628.000
102.1160, 4559.000
103.3490, 4719.000
104.5820, 4862.000
105.8150, 5118.000
107.0470, 5453.000
108.2800, 5406.010
109.5120, 6065.000
110.7440, 5378.000
111.9760, 5194.000
113.2080, 5185.000
114.4400, 5433.000
115.6710, 5498.000
116.9030, 5382.000
118.1340, 5340.000
119.3650, 5318.000
120.5960, 5222.000
121.8270, 5222.000
123.0580, 5161.698
124.2880, 5223.000
125.5190, 5097.000
126.7490, 5212.000
127.9790, 5247.000
129.2090, 5328.000
130.4390, 5246.000
131.6680, 5396.000
132.8980, 5237.000
134.1270, 5274.000
135.3560, 5224.000
136.5850, 5347.000
137.8140, 5414.000
139.0430, 5475.000
140.2710, 5359.000
141.5000, 5386.000
142.7280, 5207.000
143.9560, 5097.000
145.1840, 5050.000
146.4120, 5149.000
147.6390, 5140.000
148.8670, 5066.000
150.0940, 5045.000
151.3210, 5095.000
152.5490, 5037.000
153.7750, 5045.000
155.0020, 5177.000
156.2290, 5084.000
157.4550, 5104.000
158.6810, 5023.000
159.9080, 5115.000
161.1340, 5153.000
162.3590, 5233.000
163.5850, 5351.000
164.8110, 5314.000
166.0360, 5431.000
167.2610, 5377.000
168.4860, 5497.000
169.7110, 5426.000
170.9360, 5470.000
172.1610, 5540.000
173.3850, 5461.000
174.6100, 5518.000
175.8340, 5485.000
177.0580, 5626.000
178.2820, 5644.000
179.5050, 5644.000
180.7290, 5808.000
181.9520, 5822.000
183.1760, 5910.000
184.3990, 5943.000
185.6220, 5994.000
186.8450, 6142.000
188.0670, 6108.000
189.2900, 6254.000
190.5120, 6195.000
191.7340, 6361.000
192.9560, 6408.000
194.1780, 6459.000
195.4000, 6494.000
196.6220, 6401.000
197.8430, 6502.000
199.0640, 6417.000
200.2860, 6567.000
201.5070, 6631.000
202.7270, 6730.000
203.9480, 6546.000
205.1690, 6198.000
206.3890, 5972.000
207.6090, 5985.000
208.8290, 5895.000
210.0490, 5861.000
211.2690, 5881.000
212.4890, 5868.000
213.7080, 5753.000
214.9280, 5813.000
216.1470, 5675.000
217.3660, 5746.000
218.5850, 5758.000
219.8030, 5759.000
221.0220, 5761.000
222.2400, 5826.000
223.4590, 5849.000
224.6770, 5866.000
225.8950, 5957.000
227.1120, 5997.000
228.3300, 6005.000
229.5480, 6043.000
230.7650, 6177.000
231.9820, 6193.000
233.1990, 6213.000
234.4160, 6330.000
235.6330, 6255.000
236.8490, 6363.000
238.0660, 6355.000
239.2820, 6214.000
240.4980, 6252.000
241.7140, 6190.000
242.9300, 6125.000
244.1460, 6134.000
245.3610, 6196.000
246.5770, 6204.000
247.7920, 6253.000
249.0070, 6208.000
250.2220, 6150.000
251.4370, 6235.000
252.6510, 6114.000
253.8660, 6083.000
255.0800, 5994.000
256.2940, 5995.000
257.5080, 5996.000
258.7220, 6243.000
259.9360, 6349.000
261.1490, 6125.000
262.3630, 5949.000
263.5760, 5907.000
264.7890, 5909.000
266.0020, 5946.000
267.2150, 6005.000
268.4270, 5998.000
269.6400, 6032.000
270.8520, 5998.000
272.0640, 6067.000
273.2760, 6025.000
274.4880, 5927.000
275.7000, 6055.000
276.9120, 6052.000
278.1230, 6083.000
279.3340, 6140.647
280.5450, 6086.000
281.7560, 6190.000
282.9670, 6121.000
284.1780, 6096.000
285.3880, 6254.000
286.5980, 6176.000
287.8090, 6295.000
289.0190, 6260.000
290.2290, 6343.000
291.4380, 6267.000
292.6480, 6483.000
293.8570, 6521.000
295.0670, 6653.000
296.2760, 6622.000
297.4850, 6750.000
298.6930, 6830.000
299.9020, 6999.000
301.1110, 7157.000
302.3190, 7286.000
303.5270, 7374.000
304.7350, 7785.000
305.9430, 8072.000
307.1510, 8529.000
308.3580, 9168.000
309.5660, 10240.00
310.7730, 11416.00
311.9800, 12915.00
313.1870, 14369.00
314.3940, 15992.00
315.6010, 17499.00
316.8070, 19700.00
318.0130, 21229.00
319.2200, 21550.00
320.4260, 20012.00
321.6310, 17586.00
322.8370, 15067.00
324.0430, 12615.00
325.2480, 10589.00
326.4540, 8791.000
327.6590, 7744.000
328.8640, 7022.000
330.0680, 6657.000
331.2730, 6270.000
332.4780, 6066.000
333.6820, 5960.000
334.8860, 5920.000
336.0900, 5822.000
337.2940, 5732.000
338.4980, 5671.000
339.7010, 5703.000
340.9050, 5684.000
342.1080, 5630.000
343.3110, 5604.000
344.5140, 5612.000
345.7170, 5604.000
346.9200, 5595.000
348.1220, 5659.000
349.3240, 5579.000
350.5270, 5662.000
351.7290, 5560.000
352.9310, 5566.000
354.1320, 5558.000
355.3340, 5632.000
356.5350, 5585.000
357.7370, 5566.000
358.9380, 5516.000
360.1390, 5566.000
361.3400, 5586.000
362.5400, 5615.619
363.7410, 5646.000
364.9410, 5707.000
366.1410, 5764.000
367.3410, 5795.000
368.5410, 5775.000
369.7410, 5865.000
370.9400, 5975.000
372.1400, 6168.000
373.3390, 6162.000
374.5380, 6221.000
375.7370, 6447.000
376.9360, 6691.000
378.1350, 6938.000
379.3330, 7228.000
380.5310, 7662.000
381.7300, 8205.000
382.9280, 9097.000
384.1260, 10138.00
385.3230, 11213.00
386.5210, 12579.00
387.7180, 13998.00
388.9160, 15360.00
390.1130, 16945.00
391.3100, 18032.00
392.5060, 18197.00
393.7030, 17434.00
394.9000, 15901.00
396.0960, 14063.00
397.2920, 12349.00
398.4880, 10591.00
399.6840, 9330.000
400.8800, 8190.000
402.0750, 7471.000
403.2710, 7054.000
404.4660, 6725.000
405.6610, 6475.000
406.8560, 6307.000
408.0510, 6190.000
409.2450, 6026.000
410.4400, 5953.000
411.6340, 5936.000
412.8280, 5871.000
414.0220, 5818.000
415.2160, 5867.000
416.4100, 5811.000
417.6030, 5919.000
418.7970, 5884.000
419.9900, 5842.000
421.1830, 5838.000
422.3760, 5826.000
423.5690, 5913.000
424.7610, 5850.000
425.9540, 5772.000
427.1460, 5910.000
428.3380, 5869.000
429.5300, 5987.000
430.7220, 5915.000
431.9140, 5913.000
433.1050, 6021.000
434.2970, 6032.000
435.4880, 6118.000
436.6790, 6069.000
437.8700, 6117.863
439.0610, 6135.000
440.2510, 6137.000
441.4420, 6141.000
442.6320, 6108.000
443.8220, 5979.000
445.0120, 5980.000
446.2020, 5936.000
447.3910, 5951.000
448.5810, 5942.000
449.7700, 5728.000
450.9600, 5904.000
452.1490, 5849.000
453.3370, 5709.000
454.5260, 5759.000
455.7150, 5762.000
456.9030, 5772.000
458.0910, 5736.000
459.2800, 5702.000
460.4670, 5746.000
461.6550, 5676.000
462.8430, 5700.000
464.0300, 5734.000
465.2180, 5726.000
466.4050, 5720.000
467.5920, 5743.000
468.7790, 5783.000
469.9650, 5782.000
471.1520, 5817.000
472.3380, 5824.000
473.5250, 5881.000
474.7110, 5950.000
475.8970, 5893.000
477.0820, 5923.000
478.2680, 5848.000
479.4540, 5883.000
480.6390, 5908.000
481.8240, 5949.000
483.0090, 5975.000
484.1940, 6067.000
485.3780, 5969.000
486.5630, 6047.000
487.7470, 6099.000
488.9320, 6050.000
490.1160, 5929.000
491.3000, 6013.000
492.4830, 5979.000
493.6670, 6031.000
494.8500, 6026.000
496.0340, 6005.000
497.2170, 6127.000
498.4000, 6134.000
499.5820, 6069.000
500.7650, 6027.000
501.9480, 6140.000
503.1300, 6083.000
504.3120, 6156.000
505.4940, 6071.000
506.6760, 6086.000
507.8580, 6176.000
509.0390, 6144.000
510.2210, 6140.000
511.4020, 6181.000
512.5830, 6255.000
513.7640, 6253.943
514.9450, 6221.000
516.1250, 6277.000
517.3060, 6278.000
518.4860, 6248.000
519.6660, 6335.000
520.8460, 6359.391
522.0260, 6473.000
523.2060, 6492.000
524.3850, 6519.000
525.5650, 6591.000
526.7440, 6601.000
527.9230, 6408.000
529.1020, 6363.000
530.2810, 6372.000
531.4590, 6305.000
532.6380, 6360.000
533.8160, 6194.000
534.9940, 6140.000
536.1720, 6108.000
537.3500, 6132.000
538.5270, 6070.000
539.7050, 6139.000
540.8820, 6049.000
542.0590, 6073.000
543.2360, 6024.000
544.4130, 6033.000
545.5900, 5954.000
546.7660, 6041.000
547.9430, 5962.000
549.1190, 5997.000
550.2950, 6009.000
551.4710, 5912.000
552.6470, 6065.000
553.8220, 5930.000
554.9980, 5892.000
556.1730, 5986.000
557.3480, 5936.000
558.5230, 6062.000
559.6980, 5985.000
560.8730, 6103.000
562.0470, 6021.000
563.2220, 6054.000
564.3960, 6086.000
565.5700, 6114.000
566.7440, 6102.000
567.9170, 6050.000
569.0910, 6303.000
570.2640, 6305.000
571.4380, 6289.000
572.6110, 6289.000
573.7840, 6354.000
574.9570, 6392.083
576.1290, 6422.832
577.3020, 6523.000
578.4740, 6522.000
579.6460, 6552.000
580.8180, 6650.000
581.9900, 6658.000
583.1620, 6801.000
584.3330, 6858.000
585.5040, 6895.000
586.6760, 7012.000
587.8470, 7087.000
589.0180, 7275.000
590.1880, 7329.000
591.3590, 7407.000
592.5290, 7481.780
593.7000, 7375.000
594.8700, 7518.000
596.0400, 7401.000
597.2090, 7305.000
598.3790, 7384.000
599.5490, 7260.000
600.7180, 7247.000
601.8870, 7221.000
603.0560, 7206.000
604.2250, 7092.000
605.3940, 7107.000
606.5620, 7043.000
607.7300, 7021.000
608.8990, 6994.000
610.0670, 7018.000
611.2350, 6975.000
612.4020, 6886.000
613.5700, 7191.000
614.7370, 7203.000
615.9050, 7170.000
617.0720, 7261.000
618.2390, 7322.000
619.4060, 7383.000
620.5720, 7329.000
621.7390, 7214.000
622.9050, 7033.000
624.0710, 6963.000
625.2370, 6894.000
626.4030, 6763.000
627.5690, 6727.000
628.7340, 6704.000
629.9000, 6731.000
631.0650, 6643.000
632.2300, 6631.000
633.3950, 6728.000
634.5600, 6727.000
635.7240, 6777.058
636.8890, 6865.000
638.0530, 6868.000
639.2170, 6966.000
640.3810, 7021.502
641.5450, 6984.000
642.7080, 7085.000
643.8720, 7045.000
645.0350, 7077.000
646.1980, 7079.000
647.3610, 7196.000
648.5240, 7099.000
649.6870, 7298.000
650.8490, 7372.000
652.0120, 7391.000
653.1740, 7334.000
654.3360, 7452.000
655.4980, 7597.000
656.6600, 7577.000
657.8210, 7889.000
658.9830, 8057.000
660.1440, 8274.000
661.3050, 8560.000
662.4660, 8831.000
663.6270, 9262.000
664.7870, 9745.000
665.9480, 10471.00
667.1080, 11224.00
668.2680, 12349.00
669.4280, 13736.00
670.5880, 15772.00
671.7480, 18248.00
672.9070, 21552.00
674.0670, 26101.00
675.2260, 31001.00
676.3850, 36449.00
677.5440, 41730.00
678.7030, 46649.00
679.8610, 49925.00
681.0200, 50136.00
682.1780, 47007.00
683.3360, 41150.00
684.4940, 35322.00
685.6520, 29176.00
686.8090, 24285.00
687.9670, 20095.00
689.1240, 16946.00
690.2810, 14575.00
691.4380, 13045.00
692.5950, 11748.00
693.7520, 10913.00
694.9080, 10283.00
696.0650, 9541.000
697.2210, 9264.000
698.3770, 8830.000
699.5330, 8581.000
700.6880, 8320.000
701.8440, 8034.000
702.9990, 7777.000
704.1550, 7650.000
705.3100, 7558.000
706.4650, 7503.000
707.6190, 7285.000
708.7740, 7261.000
709.9290, 7211.000
711.0830, 7253.000
712.2370, 7031.000
713.3910, 6993.000
714.5450, 7014.000
715.6980, 6956.000
716.8520, 6949.000
718.0050, 6925.000
719.1580, 6884.680
720.3110, 6838.000
721.4640, 6810.000
722.6170, 6769.000
723.7700, 6716.000
724.9220, 6711.000
726.0740, 6611.000
727.2260, 6658.000
728.3780, 6643.000
729.5300, 6701.000
730.6810, 6665.000
731.8330, 6602.000
732.9840, 6653.000
734.1350, 6563.000
735.2860, 6598.000
736.4370, 6675.000
737.5880, 6639.000
738.7380, 6589.000
739.8880, 6541.000
741.0390, 6609.000
742.1890, 6578.000
743.3380, 6649.000
744.4880, 6622.000
745.6380, 6550.000
746.7870, 6592.000
747.9360, 6631.000
749.0850, 6576.000
750.2340, 6520.000
751.3830, 6579.000
752.5310, 6557.000
753.6800, 6664.000
754.8280, 6582.000
755.9760, 6594.000
757.1240, 6645.000
758.2720, 6592.000
759.4190, 6616.000
760.5670, 6671.000
761.7140, 6667.000
762.8610, 6753.000
764.0080, 6783.000
765.1550, 6710.000
766.3020, 6780.868
767.4480, 6803.000
768.5950, 6828.000
769.7410, 6788.000
770.8870, 6825.000
772.0330, 6755.000
773.1780, 6693.000
774.3240, 6874.000
775.4690, 6760.000
776.6140, 6707.000
777.7590, 6738.000
778.9040, 6683.000
780.0490, 6728.000
781.1940, 6805.000
782.3380, 6710.000
783.4820, 6760.000
784.6260, 6673.000
785.7700, 6697.000
786.9140, 6603.000
788.0580, 6603.000
789.2010, 6646.000
790.3450, 6656.000
791.4880, 6669.000
792.6310, 6716.000
793.7730, 6706.000
794.9160, 6690.000
796.0590, 6597.000
797.2010, 6692.000
798.3430, 6673.000
799.4850, 6690.000
800.6270, 6743.000
801.7690, 6721.000
802.9100, 6769.000
804.0520, 6731.000
805.1930, 6617.000
806.3340, 6653.000
807.4750, 6731.000
808.6160, 6659.000
809.7560, 6704.000
810.8970, 6692.000
812.0370, 6677.570
813.1770, 6840.000
814.3170, 6672.000
815.4570, 6649.000
816.5960, 6650.000
817.7360, 6771.000
818.8750, 6694.000
820.0140, 6780.000
821.1530, 6781.000
822.2920, 6782.000
823.4310, 6788.000
824.5690, 6723.000
825.7070, 6837.000
826.8460, 6762.000
827.9840, 6832.000
829.1220, 6765.000
830.2590, 6764.000
831.3970, 6831.000
832.5340, 6778.000
833.6710, 6808.000
834.8080, 6829.000
835.9450, 6857.000
837.0820, 6755.000
838.2190, 6809.000
839.3550, 6828.000
840.4910, 6909.000
841.6270, 6835.000
842.7630, 6756.000
843.8990, 6869.000
845.0350, 6898.000
846.1700, 6914.000
847.3060, 6878.000
848.4410, 6954.000
849.5760, 6907.000
850.7100, 6892.000
851.8450, 6974.000
852.9800, 6991.000
854.1140, 6919.000
855.2480, 6889.000
856.3820, 6936.000
857.5160, 6970.000
858.6500, 6964.000
859.7830, 7078.000
860.9170, 7032.000
862.0500, 6986.000
863.1830, 7030.000
864.3160, 6929.000
865.4480, 7068.000
866.5810, 7055.000
867.7130, 7086.000
868.8460, 7076.000
869.9780, 7123.000
871.1100, 7155.000
872.2410, 7221.000
873.3730, 7101.000
874.5050, 7139.000
875.6360, 7150.000
876.7670, 7085.000
877.8980, 7159.000
879.0290, 7114.000
880.1590, 7218.000
881.2900, 7166.000
882.4200, 7315.000
883.5500, 7257.000
884.6800, 7222.000
885.8100, 7339.000
886.9400, 7363.000
888.0690, 7291.000
889.1990, 7324.000
890.3280, 7347.000
891.4570, 7337.000
892.5860, 7326.000
893.7140, 7360.000
894.8430, 7390.000
895.9710, 7433.000
897.1000, 7415.000
898.2280, 7497.000
899.3560, 7430.000
900.4830, 7499.000
901.6110, 7444.000
902.7380, 7522.000
903.8660, 7546.000
904.9930, 7544.000
906.1200, 7658.000
907.2460, 7795.000
908.3730, 7789.000
909.5000, 7997.000
910.6260, 7985.000
911.7520, 8034.000
912.8780, 8099.000
914.0040, 8065.000
915.1290, 8175.000
916.2550, 7994.000
917.3800, 8115.000
918.5050, 8043.000
919.6300, 7913.000
920.7550, 7826.000
921.8800, 7763.435
923.0040, 7746.000
924.1290, 7661.000
925.2530, 7681.000
926.3770, 7663.000
927.5010, 7541.000
928.6250, 7654.000
929.7480, 7591.000
930.8720, 7557.000
931.9950, 7479.000
933.1180, 7506.000
934.2410, 7452.000
935.3640, 7441.729
936.4860, 7490.000
937.6090, 7470.000
938.7310, 7468.000
939.8530, 7586.000
940.9750, 7491.000
942.0970, 7546.000
943.2180, 7481.000
944.3400, 7417.000
945.4610, 7426.000
946.5820, 7472.000
947.7030, 7493.000
948.8240, 7515.000
949.9450, 7531.000
951.0650, 7522.530
952.1860, 7571.000
953.3060, 7501.000
954.4260, 7558.000
955.5460, 7568.000
956.6650, 7598.000
957.7850, 7609.000
958.9040, 7585.000
960.0230, 7545.000
961.1420, 7569.000
962.2610, 7589.776
963.3800, 7650.000
964.4990, 7700.000
965.6170, 7704.000
966.7350, 7791.000
967.8530, 7696.000
968.9710, 7684.000
970.0890, 7733.000
971.2070, 7798.000
972.3240, 7833.000
973.4410, 7889.000
974.5580, 7907.230
975.6750, 7823.000
976.7920, 7944.000
977.9090, 7867.000
979.0250, 7897.000
980.1410, 7860.000
981.2580, 7964.000
982.3740, 8059.000
983.4890, 8008.000
984.6050, 8014.000
985.7200, 8179.000
986.8360, 8116.000
987.9510, 8173.000
989.0660, 8165.000
990.1810, 8393.000
991.2950, 8307.000
992.4100, 8549.000
993.5240, 8644.000
994.6390, 8681.000
995.7530, 8655.000
996.8660, 8898.000
997.9800, 8911.000
999.0940, 9190.000
1000.207, 9247.000
1001.320, 9469.000
1002.433, 9418.000
1003.546, 9653.000
1004.659, 9805.000
1005.772, 9813.000
1006.884, 9889.000
1007.996, 10049.00
1009.108, 10027.00
1010.220, 10067.00
1011.332, 10068.00
1012.444, 9958.000
1013.555, 9827.000
1014.666, 9866.000
1015.777, 9890.000
1016.888, 9640.000
1017.999, 9774.000
1019.110, 9919.000
1020.220, 9835.000
1021.331, 9994.000
1022.441, 10000.00
1023.551, 9976.000
1024.661, 10030.00
1025.770, 10195.00
1026.880, 10196.00
1027.989, 10395.00
1029.098, 10373.00
1030.207, 10631.00
1031.316, 10791.00
1032.425, 10986.00
1033.533, 11134.00
1034.642, 11408.00
1035.750, 11690.00
1036.858, 11775.00
1037.966, 12207.00
1039.073, 12540.00
1040.181, 12858.00
1041.288, 13306.00
1042.396, 13895.00
1043.503, 14402.00
1044.610, 14926.00
1045.716, 15780.00
1046.823, 16567.00
1047.929, 17588.00
1049.036, 18559.00
1050.142, 20009.00
1051.248, 21502.00
1052.353, 23275.00
1053.459, 25509.00
1054.564, 28021.00
1055.670, 31202.00
1056.775, 34985.00
1057.880, 39164.00
1058.985, 43777.00
1060.089, 48876.00
1061.194, 53852.00
1062.298, 58526.00
1063.402, 62323.00
1064.506, 63740.00
1065.610, 64441.00
1066.713, 63158.00
1067.817, 60433.00
1068.920, 56639.00
1070.023, 52194.00
1071.126, 47718.00
1072.229, 43023.00
1073.332, 38749.00
1074.435, 35345.00
1075.537, 32134.00
1076.639, 29460.00
1077.741, 27442.00
1078.843, 25535.00
1079.945, 23901.00
1081.046, 22449.00
1082.148, 21356.00
1083.249, 20170.00
1084.350, 19223.00
1085.451, 18318.00
1086.551, 17447.00
1087.652, 16969.00
1088.752, 16112.00
1089.853, 15520.00
1090.953, 14846.00
1092.053, 14538.00
1093.152, 14201.00
1094.252, 13929.00
1095.351, 13464.00
1096.451, 12980.00
1097.550, 12868.00
1098.649, 12571.00
1099.748, 12439.00
1100.846, 12271.00
1101.945, 11905.00
1103.043, 11820.00
1104.141, 11727.00
1105.239, 11350.00
1106.337, 11466.00
1107.434, 11229.00
1108.532, 11194.00
1109.629, 10975.00
1110.726, 10984.00
1111.823, 10905.00
1112.920, 10823.00
1114.017, 10768.00
1115.113, 10706.00
1116.210, 10657.00
1117.306, 10536.00
1118.402, 10539.00
1119.498, 10461.00
1120.593, 10447.00
1121.689, 10323.00
1122.784, 10312.00
1123.879, 10395.00
1124.974, 10113.00
1126.069, 10111.00
1127.164, 10226.00
1128.259, 9981.000
1129.353, 9959.000
1130.447, 9882.000
1131.541, 10002.00
1132.635, 9853.000
1133.729, 9758.000
1134.822, 9734.000
1135.916, 9654.000
1137.009, 9596.627
1138.102, 9661.000
1139.195, 9459.000
1140.288, 9440.000
1141.380, 9331.000
1142.473, 9165.000
1143.565, 9071.000
1144.657, 9015.000
1145.749, 9032.000
1146.841, 8906.000
1147.932, 8866.000
1149.024, 8924.000
1150.115, 8771.000
1151.206, 8880.000
1152.297, 8781.000
1153.388, 8676.000
1154.479, 8779.000
1155.569, 8778.000
1156.659, 8716.000
1157.750, 8752.000
1158.839, 8725.000
1159.929, 8670.000
1161.019, 8792.000
1162.108, 8778.000
1163.198, 8693.000
1164.287, 8768.000
1165.376, 8739.000
1166.465, 8753.000
1167.553, 8813.000
1168.642, 8801.000
1169.730, 8758.000
1170.818, 8843.000
1171.906, 8780.000
1172.994, 8759.000
1174.082, 8876.000
1175.170, 8794.000
1176.257, 8921.000
1177.344, 8964.000
1178.431, 8855.000
1179.518, 8882.000
1180.605, 8891.000
1181.691, 8887.000
1182.778, 8966.000
1183.864, 9019.000
1184.950, 9083.000
1186.036, 8948.000
1187.122, 9066.000
1188.207, 9112.000
1189.292, 8928.000
1190.378, 8994.000
1191.463, 9034.000
1192.548, 9014.000
1193.632, 9122.000
1194.717, 8989.000
1195.801, 9080.000
1196.886, 9098.000
1197.970, 9077.000
1199.054, 9101.000
1200.137, 9065.000
1201.221, 9067.000
1202.305, 9071.340
1203.388, 9002.000
1204.471, 9082.000
1205.554, 9013.000
1206.637, 9020.000
1207.719, 9041.000
1208.802, 8990.000
1209.884, 9076.000
1210.966, 9068.000
1212.048, 9110.000
1213.130, 9120.000
1214.212, 9143.336
1215.293, 9182.000
1216.374, 9162.000
1217.456, 9131.000
1218.536, 9065.000
1219.617, 9257.000
1220.698, 9236.000
1221.778, 9293.000
1222.859, 9235.000
1223.939, 9318.000
1225.019, 9329.000
1226.099, 9244.000
1227.178, 9224.000
1228.258, 9178.000
1229.337, 9273.000
1230.417, 9220.000
1231.496, 9228.000
1232.574, 9257.377
1233.653, 9264.000
1234.732, 9244.000
1235.810, 9224.000
1236.888, 9130.000
1237.966, 9190.000
1239.044, 9286.000
1240.122, 9258.000
1241.199, 9130.000
1242.277, 9240.000
1243.354, 9215.000
1244.431, 9133.000
1245.508, 9294.000
1246.585, 9289.000
1247.661, 9101.000
1248.738, 9259.000
1249.814, 9230.000
1250.890, 9095.000
1251.966, 9183.000
1253.042, 9231.000
1254.117, 9179.000
1255.193, 9328.000
1256.268, 9304.000
1257.343, 9127.000
1258.418, 9260.000
1259.493, 9298.000
1260.567, 9270.000
1261.642, 9331.000
1262.716, 9276.000
1263.790, 9312.000
1264.864, 9238.000
1265.938, 9319.000
1267.011, 9420.000
1268.085, 9367.000
1269.158, 9438.109
1270.231, 9337.000
1271.304, 9451.000
1272.377, 9359.000
1273.450, 9311.000
1274.522, 9420.000
1275.594, 9452.000
1276.666, 9504.000
1277.738, 9420.000
1278.810, 9487.000
1279.882, 9415.000
1280.953, 9365.000
1282.025, 9457.000
1283.096, 9553.000
1284.167, 9535.000
1285.238, 9483.000
1286.308, 9475.000
1287.379, 9559.000
1288.449, 9476.000
1289.519, 9562.000
1290.589, 9688.000
1291.659, 9532.000
1292.729, 9598.000
1293.798, 9511.000
1294.868, 9573.000
1295.937, 9706.000
1297.006, 9705.000
1298.075, 9724.000
1299.143, 9642.000
1300.212, 9660.000
1301.280, 9715.000
1302.348, 9696.000
1303.416, 9641.000
1304.484, 9687.000
1305.552, 9813.000
1306.620, 9594.000
1307.687, 9655.000
1308.754, 9573.000
1309.821, 9741.000
1310.888, 9637.000
1311.955, 9676.000
1313.021, 9651.000
1314.088, 9621.000
1315.154, 9632.000
1316.220, 9732.000
1317.286, 9707.000
1318.352, 9797.000
1319.417, 9784.000
1320.483, 9663.000
1321.548, 9717.000
1322.613, 9846.000
1323.678, 9921.000
1324.743, 9841.000
1325.807, 9684.000
1326.872, 9724.000
1327.936, 9751.000
1329.000, 9909.000
1330.064, 9848.000
1331.128, 9842.000
1332.191, 9948.000
1333.255, 9825.000
1334.318, 10072.00
1335.381, 9908.000
1336.444, 9958.000
1337.507, 9869.000
1338.569, 9976.000
1339.632, 9867.000
1340.694, 10069.00
1341.756, 10104.00
1342.818, 10116.00
1343.880, 10096.00
1344.941, 10169.00
1346.003, 10108.00
1347.064, 10106.00
1348.125, 10146.00
1349.186, 10044.00
1350.247, 10075.00
1351.308, 10109.00
1352.368, 10170.00
1353.428, 10089.00
1354.489, 10264.00
1355.549, 10305.00
1356.608, 10199.00
1357.668, 10236.00
1358.727, 10316.00
1359.787, 10203.00
1360.846, 10334.00
1361.905, 10312.00
1362.964, 10289.00
1364.022, 10298.00
1365.081, 10199.00
1366.139, 10284.00
1367.197, 10275.00
1368.255, 10269.77
1369.313, 10159.00
1370.371, 10314.00
1371.428, 10307.00
1372.486, 10380.00
1373.543, 10297.00
1374.600, 10442.00
1375.657, 10444.05
1376.713, 10454.33
1377.770, 10509.00
1378.826, 10483.00
1379.882, 10455.00
1380.938, 10457.00
1381.994, 10499.00
1383.050, 10411.00
1384.106, 10431.00
1385.161, 10408.00
1386.216, 10576.00
1387.271, 10492.00
1388.326, 10527.00
1389.381, 10406.00
1390.435, 10507.00
1391.490, 10586.00
1392.544, 10454.00
1393.598, 10617.00
1394.652, 10699.00
1395.705, 10590.00
1396.759, 10708.00
1397.812, 10589.00
1398.866, 10576.00
1399.919, 10640.00
1400.972, 10731.00
1402.024, 10710.00
1403.077, 10789.15
1404.129, 10742.00
1405.181, 10853.00
1406.233, 10827.00
1407.285, 10796.00
1408.337, 10780.00
1409.389, 10699.00
1410.440, 10990.00
1411.491, 10852.00
1412.542, 10970.00
1413.593, 10915.00
1414.644, 10842.00
1415.695, 11021.00
1416.745, 10980.00
1417.795, 11031.00
1418.845, 10959.00
1419.895, 11011.00
1420.945, 10949.00
1421.995, 11051.00
1423.044, 11190.00
1424.093, 11011.00
1425.142, 11203.00
1426.191, 11381.00
1427.240, 11258.00
1428.289, 11278.00
1429.337, 11237.00
1430.385, 11335.00
1431.433, 11135.00
1432.481, 11409.00
1433.529, 11356.00
1434.577, 11511.00
1435.624, 11430.00
1436.672, 11507.00
1437.719, 11533.00
1438.766, 11557.00
1439.812, 11567.00
1440.859, 11506.00
1441.905, 11611.00
1442.952, 11529.00
1443.998, 11629.00
1445.044, 11648.00
1446.090, 11716.00
1447.135, 11697.00
1448.181, 11663.00
1449.226, 11749.00
1450.271, 11741.00
1451.316, 11717.00
1452.361, 11672.00
1453.405, 11721.00
1454.450, 11789.00
1455.494, 11874.00
1456.538, 11846.00
1457.582, 11814.00
1458.626, 11905.00
1459.670, 11740.00
1460.713, 11916.00
1461.757, 12137.00
1462.800, 11903.00
1463.843, 11902.00
1464.886, 11927.00
1465.928, 12009.00
1466.971, 12075.00
1468.013, 12099.00
1469.055, 11942.00
1470.097, 12061.00
1471.139, 11983.00
1472.181, 12198.00
1473.222, 12022.00
1474.263, 12256.00
1475.305, 12146.00
1476.346, 12237.00
1477.386, 12252.00
1478.427, 12334.00
1479.468, 12222.00
1480.508, 12257.61
1481.548, 12288.97
1482.588, 12261.00
1483.628, 12320.00
1484.668, 12420.00
1485.707, 12338.00
1486.747, 12536.00
1487.786, 12442.00
1488.825, 12362.00
1489.864, 12511.00
1490.902, 12498.00
1491.941, 12454.00
1492.979, 12562.00
1494.017, 12727.00
1495.055, 12695.00
1496.093, 12584.00
1497.131, 12738.00
1498.168, 12654.00
1499.206, 12751.00
1500.243, 12707.00
1501.280, 12850.00
1502.317, 12843.00
1503.354, 12780.00
1504.390, 12972.00
1505.426, 13092.00
1506.463, 13128.00
1507.499, 12879.00
1508.535, 12993.00
1509.570, 12996.00
1510.606, 13030.00
1511.641, 13055.00
1512.676, 13075.29
1513.711, 13101.88
1514.746, 13133.00
1515.781, 13171.00
1516.816, 13215.00
1517.850, 13305.00
1518.884, 13187.00
1519.918, 13305.00
1520.952, 13354.00
1521.986, 13230.00
1523.019, 13631.00
1524.053, 13470.34
1525.086, 13421.00
1526.119, 13422.00
1527.152, 13628.00
1528.185, 13643.00
1529.217, 13505.00
1530.250, 13716.00
1531.282, 13622.00
1532.314, 13611.00
1533.346, 13609.00
1534.377, 13692.00
1535.409, 13789.00
1536.440, 13701.00
1537.472, 13947.00
1538.503, 14040.00
1539.534, 14018.00
1540.564, 13865.00
1541.595, 13963.00
1542.625, 13954.00
1543.656, 14045.00
1544.686, 14257.00
1545.716, 14115.00
1546.745, 13971.00
1547.775, 14107.00
1548.804, 14293.00
1549.834, 14360.00
1550.863, 14423.71
1551.892, 14475.65
1552.920, 14436.00
1553.949, 14491.00
1554.977, 14437.00
1556.006, 14433.00
1557.034, 14392.00
1558.062, 14432.45
1559.089, 14482.91
1560.117, 14511.00
1561.144, 14579.00
1562.172, 14578.00
1563.199, 14483.00
1564.226, 14594.00
1565.252, 14858.00
1566.279, 14664.00
1567.305, 14821.00
1568.332, 14784.00
1569.358, 14883.00
1570.384, 14954.00
##END=



