##NAMES=Beryl
##RRUFFID=R050305
##IDEAL CHEMISTRY=Be_3_Al_2_Si_6_O_18_
##LOCALITY=Conselheiro Pena, Minas Gerais, Brazil
##OWNER=RRUFF
##SOURCE=Eugene Schlepp
##DESCRIPTION=Light blue fragment, variety aquamarine
##STATUS=The identification of this mineral has been confirmed by X-ray diffraction and chemical analysis
##URL=rruff.info/R050305
##MEASURED CHEMISTRY=(Be_0.91_Li_0.09_)_3_(Al_0.99_Fe^3+^_0.01_)_2_Si_6.00_O_18_Î‡Na_0.27_
##PIN_ID=L01620
##ORIENTATION=Laser parallel to a* (1 0 0). Fiducial mark perpendicular to laser is parallel to -c [0 0 -1]
95.94800, 5857.000
97.18200, 5998.000
98.41600, 6084.000
99.64900, 6146.000
100.8830, 6282.000
102.1160, 6262.000
103.3490, 6269.000
104.5820, 6500.000
105.8150, 6708.000
107.0470, 7239.000
108.2800, 7402.000
109.5120, 8006.000
110.7440, 7867.000
111.9760, 7516.000
113.2080, 7420.000
114.4400, 7710.000
115.6710, 8090.000
116.9030, 7934.000
118.1340, 8153.000
119.3650, 8182.000
120.5960, 8098.000
121.8270, 8157.000
123.0580, 8291.000
124.2880, 8254.000
125.5190, 8260.000
126.7490, 8291.000
127.9790, 8267.483
129.2090, 8185.000
130.4390, 8254.000
131.6680, 8202.000
132.8980, 8178.000
134.1270, 8220.000
135.3560, 8201.000
136.5850, 8179.000
137.8140, 8207.000
139.0430, 8196.000
140.2710, 8195.862
141.5000, 8177.000
142.7280, 8197.000
143.9560, 8074.000
145.1840, 8073.000
146.4120, 8167.000
147.6390, 8225.000
148.8670, 7956.000
150.0940, 8079.000
151.3210, 8071.000
152.5490, 8258.000
153.7750, 8116.000
155.0020, 8170.000
156.2290, 8200.000
157.4550, 8205.000
158.6810, 8193.000
159.9080, 8234.000
161.1340, 8170.000
162.3590, 8161.000
163.5850, 8253.000
164.8110, 8379.000
166.0360, 8333.000
167.2610, 8401.000
168.4860, 8478.000
169.7110, 8402.000
170.9360, 8443.000
172.1610, 8457.000
173.3850, 8518.000
174.6100, 8518.000
175.8340, 8399.000
177.0580, 8530.000
178.2820, 8438.000
179.5050, 8556.000
180.7290, 8675.000
181.9520, 8561.000
183.1760, 8588.000
184.3990, 8583.000
185.6220, 8537.000
186.8450, 8726.000
188.0670, 8687.000
189.2900, 8662.000
190.5120, 8784.000
191.7340, 8546.000
192.9560, 8660.000
194.1780, 8692.000
195.4000, 8674.000
196.6220, 8712.000
197.8430, 8730.000
199.0640, 8789.126
200.2860, 8824.000
201.5070, 8896.000
202.7270, 8953.000
203.9480, 8921.000
205.1690, 8545.000
206.3890, 8475.000
207.6090, 8396.000
208.8290, 8249.000
210.0490, 8412.000
211.2690, 8366.000
212.4890, 8303.000
213.7080, 8410.000
214.9280, 8507.000
216.1470, 8366.000
217.3660, 8395.000
218.5850, 8523.000
219.8030, 8502.000
221.0220, 8468.000
222.2400, 8615.000
223.4590, 8499.000
224.6770, 8554.000
225.8950, 8646.000
227.1120, 8590.000
228.3300, 8701.000
229.5480, 8631.000
230.7650, 8601.000
231.9820, 8846.000
233.1990, 8751.000
234.4160, 8961.000
235.6330, 8831.000
236.8490, 8821.000
238.0660, 8826.000
239.2820, 8785.499
240.4980, 8879.000
241.7140, 8837.000
242.9300, 8851.000
244.1460, 8983.000
245.3610, 8996.000
246.5770, 8891.000
247.7920, 9007.000
249.0070, 8977.000
250.2220, 8886.000
251.4370, 9033.000
252.6510, 8916.146
253.8660, 9055.000
255.0800, 8844.000
256.2940, 8889.000
257.5080, 8931.000
258.7220, 8938.000
259.9360, 8988.589
261.1490, 8977.466
262.3630, 8983.086
263.5760, 8955.000
264.7890, 8970.000
266.0020, 8951.000
267.2150, 8951.401
268.4270, 8960.900
269.6400, 9006.000
270.8520, 8985.000
272.0640, 9014.000
273.2760, 9041.000
274.4880, 8943.000
275.7000, 9137.000
276.9120, 9063.000
278.1230, 9180.000
279.3340, 9281.000
280.5450, 9188.000
281.7560, 9136.000
282.9670, 9201.000
284.1780, 9225.000
285.3880, 9303.000
286.5980, 9358.000
287.8090, 9399.474
289.0190, 9300.000
290.2290, 9472.000
291.4380, 9458.000
292.6480, 9446.000
293.8570, 9689.000
295.0670, 9584.000
296.2760, 9635.000
297.4850, 9667.000
298.6930, 9802.000
299.9020, 9764.000
301.1110, 9944.000
302.3190, 9989.000
303.5270, 10169.00
304.7350, 10181.00
305.9430, 10286.00
307.1510, 10362.00
308.3580, 10558.00
309.5660, 10804.08
310.7730, 11036.00
311.9800, 11447.00
313.1870, 11971.00
314.3940, 12393.00
315.6010, 13068.00
316.8070, 13922.00
318.0130, 14696.00
319.2200, 15325.00
320.4260, 16470.00
321.6310, 17777.00
322.8370, 18833.00
324.0430, 19477.00
325.2480, 19473.00
326.4540, 18613.00
327.6590, 17385.00
328.8640, 15918.00
330.0680, 14298.00
331.2730, 13211.00
332.4780, 12224.00
333.6820, 11358.00
334.8860, 10979.00
336.0900, 10612.00
337.2940, 10304.00
338.4980, 10055.00
339.7010, 10105.00
340.9050, 9903.000
342.1080, 9865.000
343.3110, 9618.000
344.5140, 9712.000
345.7170, 9867.000
346.9200, 9734.000
348.1220, 9690.000
349.3240, 9733.000
350.5270, 9665.000
351.7290, 9776.000
352.9310, 9742.000
354.1320, 9679.000
355.3340, 9738.000
356.5350, 9750.000
357.7370, 9734.000
358.9380, 9748.000
360.1390, 9731.000
361.3400, 9717.000
362.5400, 9707.000
363.7410, 9716.000
364.9410, 9722.825
366.1410, 9850.000
367.3410, 9752.000
368.5410, 9842.000
369.7410, 9851.000
370.9400, 10029.00
372.1400, 9814.000
373.3390, 9916.000
374.5380, 10209.00
375.7370, 9989.000
376.9360, 10194.00
378.1350, 10202.00
379.3330, 10360.00
380.5310, 10407.00
381.7300, 10588.00
382.9280, 10661.00
384.1260, 10864.00
385.3230, 11176.00
386.5210, 11521.00
387.7180, 11841.00
388.9160, 12320.00
390.1130, 12889.00
391.3100, 13589.00
392.5060, 14351.19
393.7030, 15305.00
394.9000, 16193.00
396.0960, 17262.00
397.2920, 18439.00
398.4880, 19426.00
399.6840, 20123.00
400.8800, 19903.00
402.0750, 19164.00
403.2710, 18084.00
404.4660, 16709.00
405.6610, 15354.00
406.8560, 14263.00
408.0510, 13411.00
409.2450, 12703.00
410.4400, 12072.00
411.6340, 11684.00
412.8280, 11392.00
414.0220, 11229.00
415.2160, 11010.00
416.4100, 10865.00
417.6030, 10730.00
418.7970, 10627.00
419.9900, 10563.00
421.1830, 10551.00
422.3760, 10502.00
423.5690, 10366.00
424.7610, 10423.00
425.9540, 10367.00
427.1460, 10404.00
428.3380, 10466.00
429.5300, 10535.00
430.7220, 10519.00
431.9140, 10394.00
433.1050, 10427.00
434.2970, 10553.00
435.4880, 10513.00
436.6790, 10746.00
437.8700, 10644.00
439.0610, 10860.00
440.2510, 10743.00
441.4420, 10867.00
442.6320, 10851.00
443.8220, 10804.00
445.0120, 10939.00
446.2020, 11027.00
447.3910, 10942.00
448.5810, 11254.00
449.7700, 10965.00
450.9600, 10950.00
452.1490, 11189.00
453.3370, 11019.00
454.5260, 11000.00
455.7150, 11080.00
456.9030, 11059.00
458.0910, 11011.00
459.2800, 11180.00
460.4670, 11007.00
461.6550, 11079.00
462.8430, 10994.00
464.0300, 10980.00
465.2180, 10955.00
466.4050, 10949.00
467.5920, 10977.00
468.7790, 10901.00
469.9650, 10940.00
471.1520, 10961.00
472.3380, 10940.00
473.5250, 10941.00
474.7110, 10938.00
475.8970, 10915.00
477.0820, 10844.00
478.2680, 10907.00
479.4540, 10810.00
480.6390, 10905.00
481.8240, 10864.00
483.0090, 11034.00
484.1940, 10959.00
485.3780, 10823.00
486.5630, 10958.00
487.7470, 10972.00
488.9320, 11017.00
490.1160, 10960.00
491.3000, 10999.00
492.4830, 10990.81
493.6670, 10887.00
494.8500, 11018.00
496.0340, 10983.00
497.2170, 11054.00
498.4000, 11063.00
499.5820, 10987.00
500.7650, 10957.00
501.9480, 10991.16
503.1300, 11090.00
504.3120, 11052.00
505.4940, 11052.00
506.6760, 11052.00
507.8580, 11028.00
509.0390, 10944.00
510.2210, 10889.00
511.4020, 11010.00
512.5830, 10926.00
513.7640, 11035.00
514.9450, 11079.00
516.1250, 11074.00
517.3060, 11072.00
518.4860, 10954.00
519.6660, 11099.00
520.8460, 11105.00
522.0260, 11072.00
523.2060, 11215.00
524.3850, 11214.00
525.5650, 11245.22
526.7440, 11255.04
527.9230, 11289.00
529.1020, 11223.00
530.2810, 11235.00
531.4590, 11260.00
532.6380, 11385.00
533.8160, 11368.00
534.9940, 11262.00
536.1720, 11437.00
537.3500, 11296.00
538.5270, 11382.00
539.7050, 11274.00
540.8820, 11291.00
542.0590, 11338.00
543.2360, 11294.00
544.4130, 11423.00
545.5900, 11280.00
546.7660, 11359.00
547.9430, 11295.00
549.1190, 11416.00
550.2950, 11202.00
551.4710, 11321.00
552.6470, 11278.00
553.8220, 11454.00
554.9980, 11297.00
556.1730, 11340.00
557.3480, 11551.00
558.5230, 11402.00
559.6980, 11401.00
560.8730, 11274.00
562.0470, 11457.00
563.2220, 11529.00
564.3960, 11543.00
565.5700, 11554.00
566.7440, 11486.00
567.9170, 11616.00
569.0910, 11603.00
570.2640, 11700.00
571.4380, 11716.00
572.6110, 11631.00
573.7840, 11819.00
574.9570, 11740.00
576.1290, 11946.00
577.3020, 11908.00
578.4740, 11844.00
579.6460, 11900.06
580.8180, 11784.00
581.9900, 11829.00
583.1620, 11868.00
584.3330, 11784.00
585.5040, 11803.00
586.6760, 11868.00
587.8470, 11715.00
589.0180, 11705.00
590.1880, 11870.00
591.3590, 11855.00
592.5290, 11905.00
593.7000, 11801.00
594.8700, 11886.00
596.0400, 11944.00
597.2090, 11812.00
598.3790, 11836.00
599.5490, 11823.00
600.7180, 11779.84
601.8870, 11821.98
603.0560, 11945.00
604.2250, 11868.00
605.3940, 11966.17
606.5620, 11984.11
607.7300, 11991.00
608.8990, 12154.00
610.0670, 12156.00
611.2350, 12223.00
612.4020, 12138.00
613.5700, 12329.00
614.7370, 12570.00
615.9050, 12759.00
617.0720, 12775.00
618.2390, 12929.00
619.4060, 12899.00
620.5720, 12828.00
621.7390, 12754.00
622.9050, 12612.00
624.0710, 12668.00
625.2370, 12411.00
626.4030, 12287.00
627.5690, 12533.00
628.7340, 12303.00
629.9000, 12292.00
631.0650, 12266.00
632.2300, 12373.00
633.3950, 12377.00
634.5600, 12472.00
635.7240, 12427.00
636.8890, 12465.00
638.0530, 12402.00
639.2170, 12449.12
640.3810, 12515.00
641.5450, 12561.00
642.7080, 12615.37
643.8720, 12663.28
645.0350, 12700.06
646.1980, 12741.00
647.3610, 12766.00
648.5240, 12778.48
649.6870, 12801.00
650.8490, 12877.00
652.0120, 12935.00
653.1740, 13042.00
654.3360, 12987.00
655.4980, 13112.00
656.6600, 13159.00
657.8210, 13289.00
658.9830, 13254.00
660.1440, 13501.00
661.3050, 13604.00
662.4660, 13676.00
663.6270, 14010.00
664.7870, 14253.00
665.9480, 14413.00
667.1080, 14646.00
668.2680, 15103.00
669.4280, 15659.00
670.5880, 16279.00
671.7480, 16801.00
672.9070, 17766.00
674.0670, 18781.00
675.2260, 20248.00
676.3850, 22427.00
677.5440, 24627.00
678.7030, 27571.00
679.8610, 31304.00
681.0200, 35403.00
682.1780, 40480.00
683.3360, 45126.00
684.4940, 50725.00
685.6520, 54765.00
686.8090, 55793.00
687.9670, 54316.00
689.1240, 49662.00
690.2810, 43366.00
691.4380, 37230.00
692.5950, 31978.00
693.7520, 27897.00
694.9080, 24615.00
696.0650, 22226.00
697.2210, 20372.00
698.3770, 18984.00
699.5330, 17870.00
700.6880, 17152.00
701.8440, 16348.00
702.9990, 15884.00
704.1550, 15710.00
705.3100, 14907.00
706.4650, 14735.00
707.6190, 14734.00
708.7740, 14479.00
709.9290, 14114.00
711.0830, 13966.00
712.2370, 13929.00
713.3910, 13749.00
714.5450, 13716.00
715.6980, 13619.96
716.8520, 13493.00
718.0050, 13493.00
719.1580, 13395.00
720.3110, 13395.00
721.4640, 13200.00
722.6170, 13230.00
723.7700, 13133.00
724.9220, 13275.00
726.0740, 13111.00
727.2260, 13131.00
728.3780, 13119.00
729.5300, 13015.00
730.6810, 13017.00
731.8330, 13117.00
732.9840, 13017.00
734.1350, 12968.00
735.2860, 13138.00
736.4370, 12994.00
737.5880, 13118.00
738.7380, 13026.00
739.8880, 13037.00
741.0390, 12963.00
742.1890, 12923.00
743.3380, 13068.00
744.4880, 13010.00
745.6380, 12906.00
746.7870, 13049.00
747.9360, 13047.00
749.0850, 13032.00
750.2340, 13008.00
751.3830, 12951.00
752.5310, 12872.00
753.6800, 12888.50
754.8280, 12883.00
755.9760, 12925.00
757.1240, 12886.00
758.2720, 12950.00
759.4190, 13051.00
760.5670, 13027.00
761.7140, 12995.00
762.8610, 12860.00
764.0080, 13117.00
765.1550, 13043.00
766.3020, 13207.00
767.4480, 13060.00
768.5950, 13062.00
769.7410, 13112.00
770.8870, 13056.00
772.0330, 13060.00
773.1780, 13170.00
774.3240, 13286.00
775.4690, 13200.00
776.6140, 13225.00
777.7590, 13149.00
778.9040, 13170.33
780.0490, 13185.00
781.1940, 13199.00
782.3380, 13256.00
783.4820, 13247.00
784.6260, 13231.00
785.7700, 13196.00
786.9140, 13252.00
788.0580, 13205.00
789.2010, 13235.00
790.3450, 13350.00
791.4880, 13312.00
792.6310, 13298.00
793.7730, 13295.00
794.9160, 13268.00
796.0590, 13320.00
797.2010, 13351.00
798.3430, 13369.00
799.4850, 13387.50
800.6270, 13351.00
801.7690, 13380.00
802.9100, 13370.00
804.0520, 13327.00
805.1930, 13333.00
806.3340, 13369.00
807.4750, 13409.00
808.6160, 13423.00
809.7560, 13461.00
810.8970, 13188.00
812.0370, 13369.00
813.1770, 13393.00
814.3170, 13402.00
815.4570, 13569.00
816.5960, 13407.00
817.7360, 13477.00
818.8750, 13523.00
820.0140, 13456.00
821.1530, 13407.00
822.2920, 13479.00
823.4310, 13533.00
824.5690, 13560.00
825.7070, 13477.00
826.8460, 13378.00
827.9840, 13577.00
829.1220, 13432.00
830.2590, 13510.00
831.3970, 13627.00
832.5340, 13580.00
833.6710, 13540.00
834.8080, 13468.00
835.9450, 13576.00
837.0820, 13630.00
838.2190, 13695.00
839.3550, 13797.00
840.4910, 13567.00
841.6270, 13565.00
842.7630, 13824.00
843.8990, 13663.00
845.0350, 13792.00
846.1700, 13667.00
847.3060, 13783.00
848.4410, 13745.00
849.5760, 13701.00
850.7100, 13696.00
851.8450, 13784.00
852.9800, 13840.00
854.1140, 13891.00
855.2480, 13917.00
856.3820, 13769.00
857.5160, 13862.00
858.6500, 13823.00
859.7830, 13800.00
860.9170, 13926.00
862.0500, 13880.00
863.1830, 13928.00
864.3160, 13766.00
865.4480, 13828.00
866.5810, 13905.00
867.7130, 13976.00
868.8460, 13970.00
869.9780, 14009.00
871.1100, 13874.00
872.2410, 14106.00
873.3730, 13911.00
874.5050, 13888.00
875.6360, 14080.00
876.7670, 14172.00
877.8980, 14069.00
879.0290, 14055.00
880.1590, 13961.00
881.2900, 14023.00
882.4200, 13960.00
883.5500, 14042.00
884.6800, 14009.22
885.8100, 14077.00
886.9400, 13999.00
888.0690, 14105.00
889.1990, 14161.00
890.3280, 14218.00
891.4570, 14205.88
892.5860, 14148.00
893.7140, 14147.00
894.8430, 14192.00
895.9710, 14202.00
897.1000, 14250.00
898.2280, 14290.00
899.3560, 14175.00
900.4830, 14403.00
901.6110, 14250.00
902.7380, 14350.00
903.8660, 14469.00
904.9930, 14349.00
906.1200, 14334.00
907.2460, 14147.00
908.3730, 14275.00
909.5000, 14371.00
910.6260, 14426.00
911.7520, 14315.00
912.8780, 14463.00
914.0040, 14424.00
915.1290, 14511.00
916.2550, 14447.00
917.3800, 14401.00
918.5050, 14429.93
919.6300, 14484.00
920.7550, 14497.00
921.8800, 14495.00
923.0040, 14535.21
924.1290, 14449.00
925.2530, 14592.00
926.3770, 14659.00
927.5010, 14708.00
928.6250, 14607.00
929.7480, 14556.00
930.8720, 14611.55
931.9950, 14712.00
933.1180, 14658.00
934.2410, 14621.00
935.3640, 14549.00
936.4860, 14574.36
937.6090, 14875.00
938.7310, 14628.00
939.8530, 14755.00
940.9750, 14794.00
942.0970, 14667.00
943.2180, 14674.00
944.3400, 14720.64
945.4610, 14698.00
946.5820, 14846.00
947.7030, 14816.00
948.8240, 14870.00
949.9450, 14835.00
951.0650, 14790.00
952.1860, 14906.00
953.3060, 14996.00
954.4260, 14972.00
955.5460, 14795.00
956.6650, 14883.00
957.7850, 14937.00
958.9040, 14980.00
960.0230, 14990.00
961.1420, 15003.00
962.2610, 15044.00
963.3800, 15016.00
964.4990, 15056.00
965.6170, 15208.00
966.7350, 15250.00
967.8530, 15278.24
968.9710, 15202.00
970.0890, 15286.00
971.2070, 15176.00
972.3240, 15147.00
973.4410, 15322.00
974.5580, 15340.00
975.6750, 15364.00
976.7920, 15458.00
977.9090, 15219.00
979.0250, 15370.00
980.1410, 15310.00
981.2580, 15366.00
982.3740, 15410.00
983.4890, 15481.00
984.6050, 15565.00
985.7200, 15581.00
986.8360, 15629.00
987.9510, 15598.00
989.0660, 15691.00
990.1810, 15694.48
991.2950, 15712.00
992.4100, 15778.00
993.5240, 15838.00
994.6390, 15944.00
995.7530, 16058.00
996.8660, 16121.00
997.9800, 16224.81
999.0940, 16277.00
1000.207, 16387.00
1001.320, 16595.00
1002.433, 16664.00
1003.546, 16792.00
1004.659, 16950.00
1005.772, 17065.00
1006.884, 17134.00
1007.996, 17320.00
1009.108, 17418.00
1010.220, 17445.00
1011.332, 17494.00
1012.444, 17562.00
1013.555, 17571.07
1014.666, 17571.00
1015.777, 17604.00
1016.888, 17584.00
1017.999, 17589.00
1019.110, 17546.00
1020.220, 17632.00
1021.331, 17759.00
1022.441, 17663.00
1023.551, 17807.00
1024.661, 17722.00
1025.770, 17789.00
1026.880, 18075.00
1027.989, 17980.00
1029.098, 18173.00
1030.207, 18225.00
1031.316, 18386.00
1032.425, 18584.00
1033.533, 18500.00
1034.642, 18940.00
1035.750, 19020.00
1036.858, 19215.00
1037.966, 19633.00
1039.073, 19507.00
1040.181, 20103.00
1041.288, 20531.00
1042.396, 20791.00
1043.503, 21314.00
1044.610, 21910.00
1045.716, 22303.00
1046.823, 22983.00
1047.929, 23712.00
1049.036, 24511.00
1050.142, 25444.00
1051.248, 26332.00
1052.353, 27537.00
1053.459, 28764.00
1054.564, 30298.00
1055.670, 31701.00
1056.775, 33915.00
1057.880, 35793.00
1058.985, 37599.00
1060.089, 40242.00
1061.194, 42152.00
1062.298, 44641.00
1063.402, 46490.00
1064.506, 48230.00
1065.610, 49361.00
1066.713, 50178.00
1067.817, 50840.00
1068.920, 50627.00
1070.023, 50692.00
1071.126, 50043.00
1072.229, 48927.00
1073.332, 47600.00
1074.435, 46265.00
1075.537, 44573.00
1076.639, 42382.00
1077.741, 40839.00
1078.843, 39030.00
1079.945, 37346.00
1081.046, 35972.00
1082.148, 34197.00
1083.249, 32698.00
1084.350, 31441.00
1085.451, 30310.00
1086.551, 29263.00
1087.652, 28369.00
1088.752, 27398.00
1089.853, 26534.00
1090.953, 26129.00
1092.053, 25398.00
1093.152, 25016.00
1094.252, 24536.00
1095.351, 24109.00
1096.451, 23784.00
1097.550, 23601.00
1098.649, 23246.00
1099.748, 23034.00
1100.846, 22753.00
1101.945, 22741.00
1103.043, 22559.00
1104.141, 22259.00
1105.239, 22323.00
1106.337, 22249.00
1107.434, 22085.00
1108.532, 21804.00
1109.629, 21922.00
1110.726, 21775.00
1111.823, 21616.00
1112.920, 21561.00
1114.017, 21663.00
1115.113, 21702.00
1116.210, 21586.00
1117.306, 21400.00
1118.402, 21461.00
1119.498, 21290.00
1120.593, 21117.00
1121.689, 21079.00
1122.784, 21251.00
1123.879, 21123.00
1124.974, 21128.00
1126.069, 21008.00
1127.164, 21017.00
1128.259, 20930.00
1129.353, 20838.00
1130.447, 21001.00
1131.541, 20769.00
1132.635, 20911.00
1133.729, 20657.00
1134.822, 20757.00
1135.916, 20768.00
1137.009, 20809.00
1138.102, 20855.00
1139.195, 20853.00
1140.288, 20873.45
1141.380, 20792.00
1142.473, 20836.00
1143.565, 20751.00
1144.657, 20640.00
1145.749, 20502.00
1146.841, 20455.00
1147.932, 20244.00
1149.024, 20186.00
1150.115, 19990.00
1151.206, 19858.00
1152.297, 19831.00
1153.388, 19471.00
1154.479, 19487.00
1155.569, 19233.00
1156.659, 19108.00
1157.750, 18756.00
1158.839, 18568.00
1159.929, 18345.00
1161.019, 18183.94
1162.108, 18091.00
1163.198, 17962.00
1164.287, 17938.00
1165.376, 17856.00
1166.465, 17700.00
1167.553, 17596.00
1168.642, 17599.00
1169.730, 17587.00
1170.818, 17458.00
1171.906, 17594.00
1172.994, 17426.00
1174.082, 17358.00
1175.170, 17298.00
1176.257, 17456.00
1177.344, 17476.00
1178.431, 17509.00
1179.518, 17492.16
1180.605, 17340.00
1181.691, 17419.00
1182.778, 17354.00
1183.864, 17429.00
1184.950, 17305.00
1186.036, 17229.00
1187.122, 17276.00
1188.207, 17222.00
1189.292, 17228.00
1190.378, 17175.00
1191.463, 17106.00
1192.548, 17168.00
1193.632, 17059.00
1194.717, 17243.00
1195.801, 17187.00
1196.886, 17141.00
1197.970, 17157.00
1199.054, 17113.00
1200.137, 17091.00
1201.221, 17163.00
1202.305, 17071.00
1203.388, 17100.00
1204.471, 17094.00
1205.554, 17218.00
1206.637, 17088.00
1207.719, 16897.00
1208.802, 17103.00
1209.884, 17088.00
1210.966, 16935.00
1212.048, 17037.00
1213.130, 17159.00
1214.212, 17127.00
1215.293, 17155.00
1216.374, 17176.00
1217.456, 17235.00
1218.536, 17099.00
1219.617, 17169.00
1220.698, 17077.00
1221.778, 17043.00
1222.859, 17103.00
1223.939, 17102.00
1225.019, 17102.06
1226.099, 17164.00
1227.178, 17100.00
1228.258, 17073.00
1229.337, 17059.82
1230.417, 17174.00
1231.496, 17107.00
1232.574, 17100.00
1233.653, 17249.00
1234.732, 17263.00
1235.810, 17280.00
1236.888, 17150.00
1237.966, 17212.86
1239.044, 17243.00
1240.122, 17215.00
1241.199, 17251.00
1242.277, 17193.00
1243.354, 17259.00
1244.431, 17226.00
1245.508, 17249.00
1246.585, 17296.00
1247.661, 17350.00
1248.738, 17350.32
1249.814, 17361.05
1250.890, 17319.00
1251.966, 17338.00
1253.042, 17235.00
1254.117, 17219.00
1255.193, 17410.00
1256.268, 17348.00
1257.343, 17368.00
1258.418, 17286.00
1259.493, 17339.00
1260.567, 17431.00
1261.642, 17445.00
1262.716, 17468.00
1263.790, 17387.00
1264.864, 17372.00
1265.938, 17448.00
1267.011, 17271.00
1268.085, 17451.00
1269.158, 17417.00
1270.231, 17320.00
1271.304, 17456.00
1272.377, 17428.00
1273.450, 17525.00
1274.522, 17534.00
1275.594, 17573.00
1276.666, 17533.00
1277.738, 17539.00
1278.810, 17654.00
1279.882, 17456.00
1280.953, 17786.00
1282.025, 17649.00
1283.096, 17735.00
1284.167, 17579.00
1285.238, 17708.00
1286.308, 17563.00
1287.379, 17628.00
1288.449, 17753.00
1289.519, 17504.00
1290.589, 17851.00
1291.659, 17716.00
1292.729, 17608.00
1293.798, 17756.00
1294.868, 17790.00
1295.937, 17935.00
1297.006, 17639.00
1298.075, 17592.00
1299.143, 17741.00
1300.212, 17668.00
1301.280, 17724.00
1302.348, 17630.00
1303.416, 17823.00
1304.484, 17768.00
1305.552, 17717.00
1306.620, 17796.00
1307.687, 17790.00
1308.754, 17818.00
1309.821, 17705.00
1310.888, 17825.00
1311.955, 17907.00
1313.021, 17743.00
1314.088, 17896.00
1315.154, 17945.00
1316.220, 17918.00
1317.286, 18043.00
1318.352, 17876.00
1319.417, 18066.00
1320.483, 17897.00
1321.548, 17919.00
1322.613, 17876.00
1323.678, 17907.00
1324.743, 17912.00
1325.807, 17985.00
1326.872, 17933.00
1327.936, 17986.00
1329.000, 17930.00
1330.064, 18009.00
1331.128, 17796.00
1332.191, 18152.00
1333.255, 17952.00
1334.318, 17928.00
1335.381, 18005.00
1336.444, 17952.00
1337.507, 18011.58
1338.569, 17897.00
1339.632, 18090.00
1340.694, 18047.00
1341.756, 18063.00
1342.818, 18244.00
1343.880, 17928.00
1344.941, 18151.00
1346.003, 18105.00
1347.064, 18081.00
1348.125, 18106.00
1349.186, 18118.00
1350.247, 18103.00
1351.308, 18191.00
1352.368, 17979.00
1353.428, 18177.00
1354.489, 18164.00
1355.549, 18206.00
1356.608, 18021.00
1357.668, 18168.00
1358.727, 18296.00
1359.787, 18210.00
1360.846, 18335.00
1361.905, 18267.00
1362.964, 18303.26
1364.022, 18191.00
1365.081, 18321.00
1366.139, 18306.00
1367.197, 18247.00
1368.255, 18248.00
1369.313, 18225.21
1370.371, 18241.10
1371.428, 18203.00
1372.486, 18299.00
1373.543, 18295.00
1374.600, 18321.00
1375.657, 18412.00
1376.713, 18301.00
1377.770, 18296.00
1378.826, 18349.00
1379.882, 18442.00
1380.938, 18393.00
1381.994, 18314.00
1383.050, 18312.00
1384.106, 18224.00
1385.161, 18453.00
1386.216, 18347.00
1387.271, 18489.00
1388.326, 18446.00
1389.381, 18308.00
1390.435, 18385.00
1391.490, 18499.00
1392.544, 18489.00
1393.598, 18569.12
1394.652, 18400.00
1395.705, 18643.00
1396.759, 18483.00
1397.812, 18480.00
1398.866, 18519.00
1399.919, 18401.00
1400.972, 18506.00
1402.024, 18382.00
1403.077, 18501.00
1404.129, 18593.00
1405.181, 18309.00
1406.233, 18385.00
1407.285, 18652.00
1408.337, 18378.00
1409.389, 18620.00
1410.440, 18675.00
1411.491, 18590.00
1412.542, 18714.00
1413.593, 18631.00
1414.644, 18534.00
1415.695, 18796.00
1416.745, 18511.00
1417.795, 18756.00
1418.845, 18603.00
1419.895, 18736.00
1420.945, 18643.00
1421.995, 18693.00
1423.044, 18655.00
1424.093, 18714.00
1425.142, 18630.00
1426.191, 18815.00
1427.240, 18674.00
1428.289, 18714.00
1429.337, 18854.00
1430.385, 18827.00
1431.433, 18863.00
1432.481, 18871.81
1433.529, 18781.00
1434.577, 18872.00
1435.624, 18831.00
1436.672, 18911.00
1437.719, 18958.00
1438.766, 18959.00
1439.812, 18899.00
1440.859, 18946.40
1441.905, 18942.00
1442.952, 18980.00
1443.998, 18973.00
1445.044, 18994.00
1446.090, 19019.00
1447.135, 19045.00
1448.181, 19074.00
1449.226, 19083.93
1450.271, 19112.00
1451.316, 19076.00
1452.361, 19073.00
1453.405, 19011.00
1454.450, 19087.00
1455.494, 19093.00
1456.538, 19044.00
1457.582, 18969.00
1458.626, 19158.00
1459.670, 19049.00
1460.713, 19158.00
1461.757, 19101.00
1462.800, 19329.00
1463.843, 19453.00
1464.886, 19106.00
1465.928, 19381.00
1466.971, 19301.00
1468.013, 19317.00
1469.055, 19139.00
1470.097, 19253.00
1471.139, 19159.00
1472.181, 19204.00
1473.222, 19158.00
1474.263, 19173.76
1475.305, 19190.61
1476.346, 19230.00
1477.386, 19235.00
1478.427, 19276.00
1479.468, 19321.00
1480.508, 19357.00
1481.548, 19296.00
1482.588, 19357.00
1483.628, 19370.00
1484.668, 19331.29
1485.707, 19482.00
1486.747, 19317.00
1487.786, 19337.00
1488.825, 19425.00
1489.864, 19431.00
1490.902, 19480.00
1491.941, 19268.00
1492.979, 19425.00
1494.017, 19363.00
1495.055, 19556.00
1496.093, 19511.00
1497.131, 19491.00
1498.168, 19479.00
1499.206, 19569.00
1500.243, 19639.00
1501.280, 19525.00
1502.317, 19410.00
1503.354, 19445.00
1504.390, 19393.00
1505.426, 19510.00
1506.463, 19518.00
1507.499, 19544.00
1508.535, 19507.00
1509.570, 19537.73
1510.606, 19553.68
1511.641, 19548.00
1512.676, 19609.00
1513.711, 19580.00
1514.746, 19607.00
1515.781, 19490.00
1516.816, 19560.00
1517.850, 19542.25
1518.884, 19663.00
1519.918, 19614.00
1520.952, 19584.00
1521.986, 19701.00
1523.019, 19843.00
1524.053, 19870.00
1525.086, 19783.00
1526.119, 19738.00
1527.152, 19848.00
1528.185, 19879.00
1529.217, 19774.00
1530.250, 19837.00
1531.282, 19942.00
1532.314, 19884.00
1533.346, 19932.96
1534.377, 19937.00
1535.409, 19916.00
1536.440, 19980.00
1537.472, 19960.00
1538.503, 19957.00
1539.534, 20132.00
1540.564, 19959.00
1541.595, 19825.00
1542.625, 19810.00
1543.656, 20103.00
1544.686, 20007.00
1545.716, 20152.00
1546.745, 19964.00
1547.775, 20136.00
1548.804, 20174.00
1549.834, 20101.00
1550.863, 20098.00
1551.892, 20326.00
1552.920, 20300.00
1553.949, 20312.00
1554.977, 20265.00
1556.006, 20229.00
1557.034, 20248.00
1558.062, 20071.00
1559.089, 20199.00
1560.117, 20414.00
1561.144, 20234.00
1562.172, 20248.00
1563.199, 20182.00
1564.226, 20182.00
1565.252, 20194.58
1566.279, 20259.00
1567.305, 20224.00
1568.332, 20318.00
1569.358, 20315.00
1570.384, 20302.00
##END=



