##NAMES=Beryl
##RRUFFID=R050368
##IDEAL CHEMISTRY=Be_3_Al_2_Si_6_O_18_
##LOCALITY=Wah Wah Mountains, Utah, USA
##OWNER=RRUFF
##SOURCE=Eugene Schlepp
##DESCRIPTION=Red-violet hexagonal prism
##STATUS=The identification of this mineral has been confirmed by X-ray diffraction and chemical analysis
##URL=rruff.info/R050368
##MEASURED CHEMISTRY=(Be_0.99_Li_0.01_)_3_(Al_0.95_Fe^3+^_0.05_)_2_Si_6.00_O_18_Î‡K_0.02_Na_0.01_
##PIN_ID=L01802
##ORIENTATION=Laser parallel to -c* (0 0 -1). Fiducial mark perpendicular to laser is parallel to b [0 1 0]
82.36700, 7923.000
83.60200, 8340.000
84.83700, 8532.000
86.07200, 8366.000
87.30800, 8477.000
88.54200, 8608.000
89.77700, 8791.000
91.01200, 8949.628
92.24600, 9206.000
93.48000, 9220.000
94.71400, 9327.000
95.94800, 9229.000
97.18200, 9102.000
98.41600, 9070.000
99.64900, 8978.367
100.8830, 9214.000
102.1160, 8893.000
103.3490, 8919.000
104.5820, 8965.000
105.8150, 9328.000
107.0470, 9882.000
108.2800, 10875.00
109.5120, 10980.00
110.7440, 9924.000
111.9760, 9059.000
113.2080, 8840.000
114.4400, 9126.000
115.6710, 9617.000
116.9030, 9563.000
118.1340, 9103.000
119.3650, 8873.000
120.5960, 8646.000
121.8270, 8631.000
123.0580, 8538.796
124.2880, 8494.180
125.5190, 8644.000
126.7490, 8513.000
127.9790, 8761.000
129.2090, 8859.000
130.4390, 8901.794
131.6680, 8991.643
132.8980, 9117.000
134.1270, 9050.000
135.3560, 9230.000
136.5850, 9319.000
137.8140, 9521.000
139.0430, 9671.000
140.2710, 9830.000
141.5000, 9708.000
142.7280, 9639.000
143.9560, 9370.000
145.1840, 9177.000
146.4120, 8912.000
147.6390, 8746.000
148.8670, 8672.000
150.0940, 8606.000
151.3210, 8529.312
152.5490, 8483.426
153.7750, 8443.000
155.0020, 8401.000
156.2290, 8359.000
157.4550, 8332.631
158.6810, 8254.000
159.9080, 8392.000
161.1340, 8443.000
162.3590, 8501.000
163.5850, 8686.000
164.8110, 8850.000
166.0360, 8940.000
167.2610, 9121.000
168.4860, 9145.000
169.7110, 9230.078
170.9360, 9250.000
172.1610, 9312.000
173.3850, 9382.000
174.6100, 9407.000
175.8340, 9538.000
177.0580, 9640.000
178.2820, 9911.000
179.5050, 10108.11
180.7290, 10277.00
181.9520, 10538.00
183.1760, 10678.00
184.3990, 10681.00
185.6220, 10921.00
186.8450, 10869.00
188.0670, 10910.00
189.2900, 11183.00
190.5120, 11126.00
191.7340, 11143.00
192.9560, 11341.00
194.1780, 11325.00
195.4000, 11468.00
196.6220, 11520.00
197.8430, 11484.00
199.0640, 11372.00
200.2860, 11442.00
201.5070, 11568.00
202.7270, 11511.00
203.9480, 11180.00
205.1690, 10597.00
206.3890, 10230.00
207.6090, 10050.00
208.8290, 10019.00
210.0490, 10031.00
211.2690, 9980.000
212.4890, 9967.000
213.7080, 9997.000
214.9280, 10021.00
216.1470, 10056.00
217.3660, 10064.00
218.5850, 10079.09
219.8030, 10103.00
221.0220, 10090.00
222.2400, 10064.00
223.4590, 10063.29
224.6770, 10189.00
225.8950, 10101.00
227.1120, 10044.00
228.3300, 10127.00
229.5480, 9974.000
230.7650, 9994.000
231.9820, 10022.00
233.1990, 10081.00
234.4160, 10063.00
235.6330, 10108.00
236.8490, 9938.000
238.0660, 9925.000
239.2820, 9790.000
240.4980, 9682.000
241.7140, 9529.000
242.9300, 9471.000
244.1460, 9371.000
245.3610, 9325.000
246.5770, 9579.000
247.7920, 9426.000
249.0070, 9635.000
250.2220, 9735.000
251.4370, 9735.000
252.6510, 9878.000
253.8660, 9797.000
255.0800, 9719.000
256.2940, 9748.000
257.5080, 9711.000
258.7220, 10047.00
259.9360, 10406.00
261.1490, 10008.00
262.3630, 9751.000
263.5760, 9809.000
264.7890, 9941.000
266.0020, 10056.00
267.2150, 10471.00
268.4270, 10719.00
269.6400, 11001.00
270.8520, 10990.00
272.0640, 10738.00
273.2760, 10662.00
274.4880, 10524.00
275.7000, 10548.00
276.9120, 10438.00
278.1230, 10355.00
279.3340, 10540.00
280.5450, 10555.00
281.7560, 10601.00
282.9670, 10562.00
284.1780, 10599.00
285.3880, 10438.00
286.5980, 10299.00
287.8090, 10079.00
289.0190, 10052.00
290.2290, 9774.000
291.4380, 9921.000
292.6480, 9869.000
293.8570, 9911.000
295.0670, 10026.00
296.2760, 10025.00
297.4850, 10082.00
298.6930, 10243.00
299.9020, 10349.00
301.1110, 10529.00
302.3190, 10843.00
303.5270, 10963.00
304.7350, 11288.00
305.9430, 11679.00
307.1510, 12208.00
308.3580, 12620.00
309.5660, 13517.00
310.7730, 14402.00
311.9800, 15548.00
313.1870, 16910.00
314.3940, 17828.00
315.6010, 18744.00
316.8070, 20276.00
318.0130, 21903.00
319.2200, 22781.00
320.4260, 22484.00
321.6310, 20315.00
322.8370, 17533.00
324.0430, 14726.00
325.2480, 12735.00
326.4540, 11438.00
327.6590, 10524.00
328.8640, 9935.000
330.0680, 9776.000
331.2730, 9516.000
332.4780, 9343.000
333.6820, 9308.000
334.8860, 9158.000
336.0900, 9151.000
337.2940, 9227.000
338.4980, 9046.000
339.7010, 9089.000
340.9050, 9047.000
342.1080, 8963.000
343.3110, 8796.000
344.5140, 8819.996
345.7170, 8930.000
346.9200, 8789.000
348.1220, 8814.000
349.3240, 8765.000
350.5270, 8711.000
351.7290, 8612.000
352.9310, 8562.000
354.1320, 8520.204
355.3340, 8458.000
356.5350, 8430.000
357.7370, 8395.000
358.9380, 8367.636
360.1390, 8272.000
361.3400, 8318.000
362.5400, 8347.000
363.7410, 8299.000
364.9410, 8203.000
366.1410, 8237.000
367.3410, 8207.285
368.5410, 8162.000
369.7410, 8252.000
370.9400, 8323.000
372.1400, 8400.000
373.3390, 8232.000
374.5380, 8513.000
375.7370, 8447.000
376.9360, 8651.000
378.1350, 8909.000
379.3330, 9106.000
380.5310, 9342.000
381.7300, 9789.000
382.9280, 10426.00
384.1260, 11383.00
385.3230, 12479.00
386.5210, 13875.00
387.7180, 15623.00
388.9160, 17746.00
390.1130, 19843.00
391.3100, 22473.00
392.5060, 24575.00
393.7030, 25291.00
394.9000, 24337.00
396.0960, 22347.00
397.2920, 20020.00
398.4880, 17610.00
399.6840, 15753.00
400.8800, 14321.00
402.0750, 13267.00
403.2710, 12592.00
404.4660, 12077.00
405.6610, 12008.00
406.8560, 11828.00
408.0510, 11870.00
409.2450, 11931.00
410.4400, 12280.00
411.6340, 12305.00
412.8280, 12652.00
414.0220, 12724.00
415.2160, 12941.00
416.4100, 12945.00
417.6030, 12894.00
418.7970, 12713.00
419.9900, 12555.00
421.1830, 12113.00
422.3760, 11729.00
423.5690, 11384.00
424.7610, 11050.00
425.9540, 10925.00
427.1460, 10771.00
428.3380, 10799.00
429.5300, 10801.00
430.7220, 11003.00
431.9140, 11476.00
433.1050, 11869.00
434.2970, 12434.00
435.4880, 12919.00
436.6790, 13493.00
437.8700, 14472.00
439.0610, 14952.00
440.2510, 15447.00
441.4420, 15532.00
442.6320, 14934.00
443.8220, 13531.00
445.0120, 12620.00
446.2020, 11494.00
447.3910, 10708.00
448.5810, 10319.00
449.7700, 9715.000
450.9600, 9483.000
452.1490, 9281.000
453.3370, 9119.000
454.5260, 9108.000
455.7150, 9009.000
456.9030, 8984.000
458.0910, 8751.000
459.2800, 8820.000
460.4670, 8886.000
461.6550, 8671.000
462.8430, 8745.000
464.0300, 8736.000
465.2180, 8636.000
466.4050, 8585.000
467.5920, 8483.000
468.7790, 8580.000
469.9650, 8616.000
471.1520, 8473.000
472.3380, 8691.000
473.5250, 8708.000
474.7110, 8849.000
475.8970, 8885.000
477.0820, 8939.000
478.2680, 9058.000
479.4540, 9064.000
480.6390, 9214.000
481.8240, 9158.000
483.0090, 9219.000
484.1940, 9374.000
485.3780, 9433.000
486.5630, 9444.000
487.7470, 9398.000
488.9320, 9338.000
490.1160, 9387.000
491.3000, 9258.000
492.4830, 9252.000
493.6670, 9227.000
494.8500, 9092.000
496.0340, 9309.000
497.2170, 9295.000
498.4000, 9270.000
499.5820, 9278.000
500.7650, 9206.000
501.9480, 9381.000
503.1300, 9303.000
504.3120, 9447.000
505.4940, 9484.000
506.6760, 9583.000
507.8580, 9497.000
509.0390, 9497.000
510.2210, 9542.000
511.4020, 9657.000
512.5830, 9784.000
513.7640, 9783.895
514.9450, 9883.000
516.1250, 9815.000
517.3060, 9875.000
518.4860, 9905.000
519.6660, 10111.00
520.8460, 10221.00
522.0260, 10197.00
523.2060, 10375.00
524.3850, 10335.27
525.5650, 10343.57
526.7440, 10264.00
527.9230, 10257.00
529.1020, 10119.00
530.2810, 9994.000
531.4590, 9810.000
532.6380, 9621.000
533.8160, 9618.000
534.9940, 9509.000
536.1720, 9388.000
537.3500, 9352.000
538.5270, 9216.000
539.7050, 9193.000
540.8820, 9123.000
542.0590, 9054.000
543.2360, 8993.000
544.4130, 8969.000
545.5900, 9022.000
546.7660, 8863.000
547.9430, 8730.000
549.1190, 8800.000
550.2950, 8876.000
551.4710, 8778.000
552.6470, 8782.000
553.8220, 8862.000
554.9980, 8890.000
556.1730, 8975.000
557.3480, 9059.000
558.5230, 9117.000
559.6980, 9222.000
560.8730, 9282.000
562.0470, 9232.000
563.2220, 9293.000
564.3960, 9278.000
565.5700, 9441.000
566.7440, 9610.000
567.9170, 9581.000
569.0910, 9789.000
570.2640, 9914.000
571.4380, 10019.00
572.6110, 10321.00
573.7840, 10629.00
574.9570, 10989.00
576.1290, 11062.00
577.3020, 11423.00
578.4740, 11717.00
579.6460, 12100.00
580.8180, 12225.00
581.9900, 12418.00
583.1620, 12669.00
584.3330, 12913.00
585.5040, 13333.00
586.6760, 13658.00
587.8470, 14140.00
589.0180, 14366.00
590.1880, 14736.00
591.3590, 14996.00
592.5290, 15185.00
593.7000, 15140.00
594.8700, 15062.00
596.0400, 15061.00
597.2090, 14783.00
598.3790, 14522.00
599.5490, 14372.00
600.7180, 14007.00
601.8870, 13818.00
603.0560, 13525.00
604.2250, 13252.00
605.3940, 13004.00
606.5620, 12670.00
607.7300, 12550.00
608.8990, 12442.00
610.0670, 12336.00
611.2350, 12336.00
612.4020, 12353.35
613.5700, 12468.00
614.7370, 12509.00
615.9050, 12581.00
617.0720, 12680.00
618.2390, 12764.00
619.4060, 12709.00
620.5720, 12530.00
621.7390, 12306.00
622.9050, 11742.00
624.0710, 11306.00
625.2370, 10666.00
626.4030, 10470.00
627.5690, 10087.00
628.7340, 9922.000
629.9000, 9641.000
631.0650, 9703.000
632.2300, 9724.000
633.3950, 9718.000
634.5600, 9706.000
635.7240, 9736.000
636.8890, 9801.000
638.0530, 9814.000
639.2170, 9869.000
640.3810, 9961.000
641.5450, 9998.000
642.7080, 10046.00
643.8720, 10093.00
645.0350, 9963.000
646.1980, 10045.00
647.3610, 10026.00
648.5240, 10126.00
649.6870, 9881.000
650.8490, 9859.000
652.0120, 9905.000
653.1740, 9862.000
654.3360, 9841.000
655.4980, 9845.000
656.6600, 10024.00
657.8210, 10028.00
658.9830, 10289.00
660.1440, 10518.00
661.3050, 10912.00
662.4660, 11333.00
663.6270, 11703.00
664.7870, 12046.00
665.9480, 12733.00
667.1080, 13490.00
668.2680, 14427.00
669.4280, 15835.00
670.5880, 17367.00
671.7480, 19251.00
672.9070, 22080.00
674.0670, 25789.00
675.2260, 30165.00
676.3850, 35298.00
677.5440, 41012.00
678.7030, 47509.00
679.8610, 52969.00
681.0200, 55477.00
682.1780, 54164.00
683.3360, 48531.00
684.4940, 41759.00
685.6520, 34974.00
686.8090, 29211.00
687.9670, 24644.00
689.1240, 21353.00
690.2810, 18938.00
691.4380, 17056.00
692.5950, 15674.00
693.7520, 14645.00
694.9080, 13717.00
696.0650, 12940.00
697.2210, 12427.00
698.3770, 11941.00
699.5330, 11448.00
700.6880, 11243.00
701.8440, 10760.00
702.9990, 10335.00
704.1550, 10170.00
705.3100, 10091.00
706.4650, 9888.000
707.6190, 9572.000
708.7740, 9517.000
709.9290, 9314.000
711.0830, 9219.000
712.2370, 9244.000
713.3910, 9058.000
714.5450, 9058.000
715.6980, 8875.000
716.8520, 8810.000
718.0050, 8747.000
719.1580, 8673.000
720.3110, 8618.373
721.4640, 8584.000
722.6170, 8522.000
723.7700, 8543.000
724.9220, 8539.000
726.0740, 8552.000
727.2260, 8491.000
728.3780, 8432.000
729.5300, 8341.000
730.6810, 8480.000
731.8330, 8569.000
732.9840, 8551.000
734.1350, 8476.000
735.2860, 8559.000
736.4370, 8442.000
737.5880, 8457.000
738.7380, 8531.000
739.8880, 8507.000
741.0390, 8513.000
742.1890, 8599.000
743.3380, 8541.000
744.4880, 8646.000
745.6380, 8524.000
746.7870, 8464.000
747.9360, 8586.000
749.0850, 8538.000
750.2340, 8648.000
751.3830, 8639.000
752.5310, 8808.000
753.6800, 8781.000
754.8280, 8900.000
755.9760, 8925.000
757.1240, 9169.000
758.2720, 9386.000
759.4190, 9744.000
760.5670, 10182.00
761.7140, 10678.00
762.8610, 11152.00
764.0080, 11720.00
765.1550, 12207.00
766.3020, 12804.00
767.4480, 13073.00
768.5950, 13188.00
769.7410, 12807.00
770.8870, 12206.00
772.0330, 11428.00
773.1780, 10779.00
774.3240, 10341.00
775.4690, 9927.000
776.6140, 9662.000
777.7590, 9444.000
778.9040, 9058.000
780.0490, 8971.000
781.1940, 8796.000
782.3380, 8753.000
783.4820, 8678.000
784.6260, 8699.000
785.7700, 8660.000
786.9140, 8633.000
788.0580, 8498.000
789.2010, 8488.000
790.3450, 8411.000
791.4880, 8377.000
792.6310, 8470.000
793.7730, 8255.000
794.9160, 8355.000
796.0590, 8363.000
797.2010, 8513.000
798.3430, 8482.000
799.4850, 8482.000
800.6270, 8459.000
801.7690, 8359.000
802.9100, 8432.000
804.0520, 8478.000
805.1930, 8473.000
806.3340, 8374.000
807.4750, 8498.000
808.6160, 8483.000
809.7560, 8519.000
810.8970, 8555.000
812.0370, 8484.000
813.1770, 8407.000
814.3170, 8508.000
815.4570, 8455.000
816.5960, 8492.000
817.7360, 8527.000
818.8750, 8582.000
820.0140, 8564.000
821.1530, 8479.000
822.2920, 8610.000
823.4310, 8510.000
824.5690, 8601.000
825.7070, 8643.000
826.8460, 8567.000
827.9840, 8560.000
829.1220, 8717.000
830.2590, 8541.000
831.3970, 8709.000
832.5340, 8621.000
833.6710, 8686.000
834.8080, 8727.000
835.9450, 8725.000
837.0820, 8828.000
838.2190, 8752.000
839.3550, 8824.000
840.4910, 8792.000
841.6270, 8786.000
842.7630, 8809.000
843.8990, 8843.000
845.0350, 8903.000
846.1700, 8922.000
847.3060, 8870.000
848.4410, 8932.000
849.5760, 8901.092
850.7100, 8910.000
851.8450, 8937.000
852.9800, 8910.000
854.1140, 8934.213
855.2480, 8914.950
856.3820, 8913.651
857.5160, 8891.000
858.6500, 8910.000
859.7830, 8924.000
860.9170, 8931.000
862.0500, 8841.000
863.1830, 8875.574
864.3160, 8842.000
865.4480, 8893.000
866.5810, 8837.000
867.7130, 8879.000
868.8460, 8849.000
869.9780, 8896.000
871.1100, 8891.000
872.2410, 8951.000
873.3730, 8900.000
874.5050, 8850.000
875.6360, 8945.000
876.7670, 8951.000
877.8980, 8952.000
879.0290, 8981.000
880.1590, 8976.000
881.2900, 8963.000
882.4200, 8968.000
883.5500, 9105.000
884.6800, 8983.000
885.8100, 9066.000
886.9400, 9077.000
888.0690, 9040.000
889.1990, 9024.000
890.3280, 9127.000
891.4570, 9133.000
892.5860, 9075.000
893.7140, 9195.000
894.8430, 9187.000
895.9710, 9282.000
897.1000, 9364.000
898.2280, 9434.000
899.3560, 9372.000
900.4830, 9615.000
901.6110, 9682.000
902.7380, 9639.000
903.8660, 9852.000
904.9930, 10065.00
906.1200, 10134.00
907.2460, 10198.00
908.3730, 10444.00
909.5000, 10533.00
910.6260, 10680.00
911.7520, 10920.00
912.8780, 10892.00
914.0040, 10992.00
915.1290, 10873.00
916.2550, 10985.00
917.3800, 10860.00
918.5050, 10821.00
919.6300, 10643.00
920.7550, 10567.00
921.8800, 10402.00
923.0040, 10242.00
924.1290, 10199.00
925.2530, 10112.00
926.3770, 9895.000
927.5010, 10014.00
928.6250, 9857.908
929.7480, 9848.906
930.8720, 9716.000
931.9950, 9806.000
933.1180, 9733.000
934.2410, 9679.000
935.3640, 9594.000
936.4860, 9496.000
937.6090, 9622.000
938.7310, 9558.000
939.8530, 9372.000
940.9750, 9479.000
942.0970, 9353.000
943.2180, 9416.000
944.3400, 9210.000
945.4610, 9486.000
946.5820, 9177.000
947.7030, 9399.000
948.8240, 9353.000
949.9450, 9360.000
951.0650, 9352.000
952.1860, 9207.000
953.3060, 9413.000
954.4260, 9353.000
955.5460, 9259.000
956.6650, 9495.000
957.7850, 9451.000
958.9040, 9473.000
960.0230, 9614.000
961.1420, 9550.000
962.2610, 9628.000
963.3800, 9711.000
964.4990, 9827.000
965.6170, 9735.000
966.7350, 9849.000
967.8530, 9843.000
968.9710, 9952.000
970.0890, 9970.000
971.2070, 10030.67
972.3240, 10147.00
973.4410, 10143.00
974.5580, 10196.00
975.6750, 10238.58
976.7920, 10229.00
977.9090, 10336.00
979.0250, 10411.00
980.1410, 10397.00
981.2580, 10458.00
982.3740, 10572.00
983.4890, 10628.00
984.6050, 10814.00
985.7200, 10932.00
986.8360, 10918.00
987.9510, 11032.00
989.0660, 11245.00
990.1810, 11456.00
991.2950, 11567.00
992.4100, 11839.00
993.5240, 12004.00
994.6390, 12249.00
995.7530, 12438.00
996.8660, 12719.00
997.9800, 12854.00
999.0940, 13087.00
1000.207, 13275.00
1001.320, 13496.00
1002.433, 13397.00
1003.546, 13635.00
1004.659, 13527.00
1005.772, 13381.00
1006.884, 13302.00
1007.996, 12942.00
1009.108, 12820.00
1010.220, 12721.00
1011.332, 12516.00
1012.444, 12435.00
1013.555, 12227.00
1014.666, 12082.00
1015.777, 12036.00
1016.888, 11895.00
1017.999, 11843.00
1019.110, 11736.00
1020.220, 11587.00
1021.331, 11491.00
1022.441, 11463.00
1023.551, 11496.00
1024.661, 11288.00
1025.770, 11213.00
1026.880, 11267.00
1027.989, 11163.00
1029.098, 11239.00
1030.207, 11049.00
1031.316, 11124.00
1032.425, 11055.00
1033.533, 11036.00
1034.642, 11060.00
1035.750, 11021.00
1036.858, 10998.60
1037.966, 10978.00
1039.073, 10932.00
1040.181, 10828.00
1041.288, 10806.00
1042.396, 10790.98
1043.503, 10824.00
1044.610, 10801.00
1045.716, 10827.00
1046.823, 10824.00
1047.929, 10855.00
1049.036, 10926.00
1050.142, 11043.00
1051.248, 11138.00
1052.353, 11298.00
1053.459, 11359.00
1054.564, 11484.00
1055.670, 11911.00
1056.775, 12068.00
1057.880, 12481.00
1058.985, 12922.00
1060.089, 13390.00
1061.194, 13633.00
1062.298, 14181.00
1063.402, 14511.00
1064.506, 14810.00
1065.610, 14861.00
1066.713, 14815.00
1067.817, 14712.00
1068.920, 14542.00
1070.023, 14070.00
1071.126, 13595.00
1072.229, 13464.00
1073.332, 12966.00
1074.435, 12797.00
1075.537, 12473.00
1076.639, 12287.00
1077.741, 12038.00
1078.843, 11965.00
1079.945, 11807.00
1081.046, 11612.00
1082.148, 11568.00
1083.249, 11362.00
1084.350, 11435.00
1085.451, 11247.00
1086.551, 11328.00
1087.652, 11198.00
1088.752, 10991.00
1089.853, 10985.00
1090.953, 10805.00
1092.053, 10834.00
1093.152, 10821.00
1094.252, 10680.00
1095.351, 10650.00
1096.451, 10472.00
1097.550, 10476.00
1098.649, 10362.00
1099.748, 10329.00
1100.846, 10313.00
1101.945, 10414.00
1103.043, 10397.00
1104.141, 10300.00
1105.239, 10166.00
1106.337, 10283.00
1107.434, 10137.00
1108.532, 10199.00
1109.629, 10190.00
1110.726, 10159.00
1111.823, 10212.00
1112.920, 10313.00
1114.017, 10189.00
1115.113, 10112.00
1116.210, 10241.00
1117.306, 10230.00
1118.402, 10257.00
1119.498, 10199.00
1120.593, 10241.00
1121.689, 10291.00
1122.784, 10228.00
1123.879, 10268.00
1124.974, 10247.00
1126.069, 10278.00
1127.164, 10232.00
1128.259, 10170.00
1129.353, 10193.00
1130.447, 10222.00
1131.541, 10104.00
1132.635, 10104.00
1133.729, 10079.00
1134.822, 10025.67
1135.916, 9933.000
1137.009, 9980.000
1138.102, 9964.000
1139.195, 9973.000
1140.288, 9987.000
1141.380, 9943.815
1142.473, 9805.000
1143.565, 9880.000
1144.657, 9813.254
1145.749, 9812.019
1146.841, 9841.000
1147.932, 9785.000
1149.024, 9824.000
1150.115, 9868.000
1151.206, 9818.000
1152.297, 9841.000
1153.388, 9828.000
1154.479, 9834.000
1155.569, 9829.239
1156.659, 9890.000
1157.750, 9802.000
1158.839, 9909.000
1159.929, 9884.000
1161.019, 10053.00
1162.108, 10019.00
1163.198, 10022.00
1164.287, 10094.00
1165.376, 9919.000
1166.465, 10075.00
1167.553, 10021.00
1168.642, 10164.00
1169.730, 10141.00
1170.818, 10132.00
1171.906, 10148.00
1172.994, 10095.00
1174.082, 10195.00
1175.170, 10313.00
1176.257, 10277.00
1177.344, 10231.00
1178.431, 10336.00
1179.518, 10395.00
1180.605, 10479.00
1181.691, 10686.00
1182.778, 10600.00
1183.864, 10591.00
1184.950, 10652.00
1186.036, 10844.00
1187.122, 10642.00
1188.207, 10730.00
1189.292, 10844.00
1190.378, 10793.00
1191.463, 10964.00
1192.548, 10928.00
1193.632, 10931.00
1194.717, 10889.00
1195.801, 10932.91
1196.886, 10939.00
1197.970, 11020.00
1199.054, 11084.00
1200.137, 11121.00
1201.221, 11156.00
1202.305, 11193.48
1203.388, 11232.66
1204.471, 11272.00
1205.554, 11308.00
1206.637, 11397.00
1207.719, 11429.00
1208.802, 11508.00
1209.884, 11569.00
1210.966, 11817.00
1212.048, 12016.00
1213.130, 12295.00
1214.212, 12532.00
1215.293, 12792.00
1216.374, 13101.00
1217.456, 13521.00
1218.536, 13889.00
1219.617, 14072.00
1220.698, 14694.00
1221.778, 14831.00
1222.859, 15262.00
1223.939, 15360.00
1225.019, 15407.00
1226.099, 15456.00
1227.178, 15378.00
1228.258, 14992.00
1229.337, 14892.00
1230.417, 14868.00
1231.496, 14636.00
1232.574, 14832.00
1233.653, 14990.00
1234.732, 15051.00
1235.810, 15262.00
1236.888, 15527.00
1237.966, 15793.00
1239.044, 16164.00
1240.122, 16428.00
1241.199, 16328.00
1242.277, 16053.00
1243.354, 15764.00
1244.431, 15101.00
1245.508, 14503.00
1246.585, 13983.00
1247.661, 13517.00
1248.738, 13128.00
1249.814, 12638.00
1250.890, 12417.00
1251.966, 12083.00
1253.042, 11938.00
1254.117, 11761.00
1255.193, 11714.00
1256.268, 11641.00
1257.343, 11545.00
1258.418, 11490.00
1259.493, 11449.00
1260.567, 11404.25
1261.642, 11363.00
1262.716, 11358.00
1263.790, 11370.00
1264.864, 11356.30
1265.938, 11296.00
1267.011, 11263.00
1268.085, 11287.00
1269.158, 11218.00
1270.231, 11252.00
1271.304, 11279.00
1272.377, 11252.00
1273.450, 11368.00
1274.522, 11244.00
1275.594, 11223.00
1276.666, 11059.00
1277.738, 11104.00
1278.810, 11210.00
1279.882, 11032.00
1280.953, 11098.00
1282.025, 11102.00
1283.096, 11083.00
1284.167, 10939.00
1285.238, 11044.00
1286.308, 10940.00
1287.379, 10962.00
1288.449, 10933.00
1289.519, 10863.00
1290.589, 10923.00
1291.659, 10990.00
1292.729, 10903.00
1293.798, 11020.00
1294.868, 11018.00
1295.937, 10971.00
1297.006, 10921.00
1298.075, 10902.00
1299.143, 11009.00
1300.212, 11105.00
1301.280, 11115.00
1302.348, 11115.00
1303.416, 11057.00
1304.484, 10931.00
1305.552, 10974.00
1306.620, 10948.60
1307.687, 10945.72
1308.754, 11027.00
1309.821, 11000.00
1310.888, 11086.00
1311.955, 11139.00
1313.021, 10911.00
1314.088, 10892.00
1315.154, 11044.00
1316.220, 11068.00
1317.286, 11093.00
1318.352, 11144.00
1319.417, 10962.00
1320.483, 11342.00
1321.548, 11269.00
1322.613, 11201.00
1323.678, 11406.00
1324.743, 11127.00
1325.807, 11214.00
1326.872, 11387.00
1327.936, 11373.00
1329.000, 11400.00
1330.064, 11437.00
1331.128, 11473.00
1332.191, 11441.00
1333.255, 11590.00
1334.318, 11484.00
1335.381, 11593.00
1336.444, 11573.00
1337.507, 11632.00
1338.569, 11629.00
1339.632, 11660.00
1340.694, 11675.00
1341.756, 11667.00
1342.818, 11719.29
1343.880, 11837.00
1344.941, 11800.00
1346.003, 11721.00
1347.064, 11739.00
1348.125, 11865.00
1349.186, 11776.00
1350.247, 11968.00
1351.308, 11871.00
1352.368, 11823.00
1353.428, 11901.00
1354.489, 11950.00
1355.549, 11958.00
1356.608, 11955.00
1357.668, 12028.53
1358.727, 12034.97
1359.787, 12106.00
1360.846, 12121.00
1361.905, 12047.00
1362.964, 12127.00
1364.022, 12146.00
1365.081, 11981.00
1366.139, 12056.00
1367.197, 12127.00
1368.255, 12052.00
1369.313, 12239.00
1370.371, 12174.00
1371.428, 12185.00
1372.486, 12184.00
1373.543, 12188.00
1374.600, 12245.00
1375.657, 12356.00
1376.713, 12342.00
1377.770, 12344.00
1378.826, 12283.00
1379.882, 12360.00
1380.938, 12178.00
1381.994, 12439.00
1383.050, 12362.00
1384.106, 12467.00
1385.161, 12391.00
1386.216, 12365.00
1387.271, 12416.00
1388.326, 12469.00
1389.381, 12453.00
1390.435, 12448.00
1391.490, 12562.00
1392.544, 12468.00
1393.598, 12717.00
1394.652, 12572.00
1395.705, 12656.00
1396.759, 12727.00
1397.812, 12780.00
1398.866, 12611.00
1399.919, 12674.00
1400.972, 12724.00
1402.024, 12706.00
1403.077, 12798.00
1404.129, 12777.00
1405.181, 12787.00
1406.233, 13004.00
1407.285, 12846.00
1408.337, 12839.00
1409.389, 13021.00
1410.440, 13088.00
1411.491, 12992.00
1412.542, 13148.00
1413.593, 13059.00
1414.644, 13251.00
1415.695, 13143.00
1416.745, 13220.00
1417.795, 13098.00
1418.845, 13244.00
1419.895, 13367.00
1420.945, 13211.00
1421.995, 13384.00
1423.044, 13435.00
1424.093, 13267.00
1425.142, 13289.00
1426.191, 13483.00
1427.240, 13586.00
1428.289, 13470.00
1429.337, 13624.00
1430.385, 13591.00
1431.433, 13721.00
1432.481, 13722.00
1433.529, 13756.00
1434.577, 13857.00
1435.624, 13763.00
1436.672, 13867.00
1437.719, 13915.00
1438.766, 13919.00
1439.812, 14169.00
1440.859, 14055.00
1441.905, 14038.00
1442.952, 13981.00
1443.998, 14146.00
1445.044, 14202.00
1446.090, 14290.00
1447.135, 14107.00
1448.181, 14252.00
1449.226, 14393.00
1450.271, 14316.00
1451.316, 14506.00
1452.361, 14211.00
1453.405, 14476.00
1454.450, 14409.00
1455.494, 14515.00
1456.538, 14586.00
1457.582, 14589.00
1458.626, 14659.38
1459.670, 14635.00
1460.713, 14733.00
1461.757, 14777.00
1462.800, 14829.00
1463.843, 14824.00
1464.886, 14923.00
1465.928, 14990.00
1466.971, 15080.00
1468.013, 15059.00
1469.055, 14995.00
1470.097, 15173.00
1471.139, 15103.00
1472.181, 15062.00
1473.222, 15138.00
1474.263, 15132.00
1475.305, 15166.00
1476.346, 15302.00
1477.386, 15181.00
1478.427, 15282.00
1479.468, 15345.00
1480.508, 15457.00
1481.548, 15375.00
1482.588, 15523.00
1483.628, 15678.00
1484.668, 15571.00
1485.707, 15650.00
1486.747, 15712.00
1487.786, 15792.00
1488.825, 15788.00
1489.864, 15859.89
1490.902, 15885.00
1491.941, 15948.00
1492.979, 15974.00
1494.017, 16009.00
1495.055, 16036.00
1496.093, 16152.00
1497.131, 16124.00
1498.168, 16231.43
1499.206, 16280.00
1500.243, 16423.00
1501.280, 16405.74
1502.317, 16549.00
1503.354, 16527.00
1504.390, 16488.00
1505.426, 16698.00
1506.463, 16728.00
1507.499, 16873.00
1508.535, 16812.00
1509.570, 16899.00
1510.606, 16796.00
1511.641, 16928.00
1512.676, 16960.00
1513.711, 17080.00
1514.746, 17105.00
1515.781, 17219.00
1516.816, 17202.00
1517.850, 17190.23
1518.884, 17300.00
1519.918, 17528.00
1520.952, 17478.00
1521.986, 17605.55
1523.019, 17491.00
1524.053, 17684.00
1525.086, 17757.00
1526.119, 17746.00
1527.152, 17915.00
1528.185, 17809.00
1529.217, 17937.00
1530.250, 18136.00
1531.282, 18010.00
1532.314, 18102.00
1533.346, 18124.00
1534.377, 18284.00
1535.409, 18313.00
1536.440, 18443.00
1537.472, 18393.00
1538.503, 18482.31
1539.534, 18480.00
1540.564, 18588.00
1541.595, 18727.00
1542.625, 18794.21
1543.656, 18724.00
1544.686, 18909.00
1545.716, 18725.00
1546.745, 18808.00
1547.775, 18951.00
1548.804, 19086.00
1549.834, 19235.00
1550.863, 19213.00
1551.892, 19338.00
1552.920, 19380.00
1553.949, 19361.00
1554.977, 19533.00
1556.006, 19542.00
1557.034, 19421.00
1558.062, 19509.00
1559.089, 19445.00
1560.117, 19537.00
1561.144, 19618.00
1562.172, 19770.00
1563.199, 19686.00
1564.226, 19642.00
1565.252, 19907.00
1566.279, 19897.00
1567.305, 20105.00
1568.332, 19875.00
1569.358, 20180.00
1570.384, 20239.00
##END=



