##NAMES=Beryl
##RRUFFID=R060944
##IDEAL CHEMISTRY=Be_3_Al_2_Si_6_O_18_
##LOCALITY=Habachtal, Salzburg, Austria
##OWNER=RRUFF
##SOURCE=Lawrence W. Snee
##DESCRIPTION=Green hexagonal prisms in a muscovite schist, variety emerald. Note that there are micro inclusions of actinolite. The Raman signal is a mixture of the two phases.
##STATUS=The identification of this mineral has been confirmed by X-ray diffraction and chemical analysis
##URL=rruff.info/R060944
##MEASURED CHEMISTRY=Be_3.00_(Al_1.59_Mg_0.33_Fe^3+^_0.04_Cr^3+^_0.04_)_Σ=2_Si_6.00_O_18_·Na_0.33_ ; bright inclusions are actinolite
##PIN_ID=L01950
##ORIENTATION=Laser parallel to c* (0 0 1). Fiducial mark perpendicular to laser is parallel to -b [0 -1 0]
130.4390, 14220.00
131.6680, 14389.00
132.8980, 14242.00
134.1270, 14376.00
135.3560, 14236.00
136.5850, 14350.00
137.8140, 14444.00
139.0430, 14747.00
140.2710, 14872.00
141.5000, 14783.00
142.7280, 14545.00
143.9560, 14632.00
145.1840, 14425.00
146.4120, 14452.00
147.6390, 14580.00
148.8670, 14690.00
150.0940, 14934.00
151.3210, 15260.00
152.5490, 15682.00
153.7750, 15924.00
155.0020, 16790.00
156.2290, 17675.00
157.4550, 18315.00
158.6810, 18309.00
159.9080, 17663.00
161.1340, 16762.00
162.3590, 16305.00
163.5850, 15967.00
164.8110, 15996.00
166.0360, 15825.00
167.2610, 15712.00
168.4860, 15712.00
169.7110, 15875.00
170.9360, 16233.00
172.1610, 16514.00
173.3850, 17160.00
174.6100, 18057.00
175.8340, 19054.00
177.0580, 19676.00
178.2820, 19493.00
179.5050, 18358.00
180.7290, 17442.00
181.9520, 16644.00
183.1760, 16206.00
184.3990, 15784.00
185.6220, 15512.00
186.8450, 15430.00
188.0670, 15420.00
189.2900, 15362.00
190.5120, 15347.00
191.7340, 15336.00
192.9560, 15355.39
194.1780, 15513.00
195.4000, 15410.00
196.6220, 15476.00
197.8430, 15453.00
199.0640, 15377.00
200.2860, 15552.00
201.5070, 15850.00
202.7270, 16016.00
203.9480, 15970.00
205.1690, 15731.00
206.3890, 15523.00
207.6090, 15837.00
208.8290, 15934.00
210.0490, 16353.00
211.2690, 16829.00
212.4890, 17199.00
213.7080, 18107.00
214.9280, 18791.00
216.1470, 19829.00
217.3660, 21029.00
218.5850, 22724.00
219.8030, 24140.00
221.0220, 25585.00
222.2400, 26081.00
223.4590, 26033.00
224.6770, 26067.00
225.8950, 26545.00
227.1120, 27758.00
228.3300, 29143.00
229.5480, 30284.00
230.7650, 30227.00
231.9820, 28546.00
233.1990, 26351.00
234.4160, 23806.00
235.6330, 21766.00
236.8490, 20423.00
238.0660, 19163.00
239.2820, 18890.00
240.4980, 18238.00
241.7140, 18175.00
242.9300, 18436.00
244.1460, 18837.00
245.3610, 19114.00
246.5770, 19413.00
247.7920, 19403.00
249.0070, 19068.00
250.2220, 18388.00
251.4370, 17818.00
252.6510, 17224.00
253.8660, 16702.00
255.0800, 16243.00
256.2940, 16106.00
257.5080, 16080.00
258.7220, 16843.00
259.9360, 16944.00
261.1490, 16056.00
262.3630, 15971.00
263.5760, 15534.00
264.7890, 15730.00
266.0020, 15798.00
267.2150, 15852.00
268.4270, 15669.00
269.6400, 15497.00
270.8520, 15176.00
272.0640, 15157.00
273.2760, 15021.00
274.4880, 14918.48
275.7000, 14873.00
276.9120, 14842.00
278.1230, 14898.00
279.3340, 14944.00
280.5450, 14961.36
281.7560, 14913.00
282.9670, 15075.00
284.1780, 15037.00
285.3880, 15169.00
286.5980, 15207.00
287.8090, 15245.00
289.0190, 15349.00
290.2290, 15447.00
291.4380, 15364.00
292.6480, 15565.00
293.8570, 15266.00
295.0670, 15211.00
296.2760, 15130.00
297.4850, 15252.00
298.6930, 15192.48
299.9020, 15296.00
301.1110, 15223.00
302.3190, 15182.00
303.5270, 15217.00
304.7350, 15098.00
305.9430, 15238.00
307.1510, 15136.00
308.3580, 15166.00
309.5660, 15235.00
310.7730, 15291.00
311.9800, 15428.00
313.1870, 15652.00
314.3940, 15811.00
315.6010, 15927.00
316.8070, 16043.00
318.0130, 16359.00
319.2200, 16548.00
320.4260, 16690.00
321.6310, 16872.00
322.8370, 16926.00
324.0430, 16923.00
325.2480, 16785.00
326.4540, 16338.00
327.6590, 16029.00
328.8640, 15543.00
330.0680, 15435.00
331.2730, 15200.00
332.4780, 15107.00
333.6820, 15321.00
334.8860, 15287.00
336.0900, 15281.00
337.2940, 15522.00
338.4980, 15640.00
339.7010, 15909.00
340.9050, 16308.00
342.1080, 16485.00
343.3110, 16797.00
344.5140, 16979.00
345.7170, 16867.00
346.9200, 17044.00
348.1220, 17242.00
349.3240, 16758.00
350.5270, 16749.00
351.7290, 16572.00
352.9310, 16470.00
354.1320, 16375.00
355.3340, 16326.00
356.5350, 16484.00
357.7370, 16470.00
358.9380, 16874.00
360.1390, 16930.00
361.3400, 17162.00
362.5400, 17817.00
363.7410, 18027.00
364.9410, 18406.00
366.1410, 18424.00
367.3410, 18448.00
368.5410, 18356.00
369.7410, 18191.00
370.9400, 18025.00
372.1400, 17568.00
373.3390, 17407.36
374.5380, 17149.92
375.7370, 17022.00
376.9360, 16816.00
378.1350, 16951.00
379.3330, 17039.00
380.5310, 17047.00
381.7300, 17589.00
382.9280, 17934.00
384.1260, 18518.00
385.3230, 19197.00
386.5210, 20113.00
387.7180, 21018.00
388.9160, 22537.00
390.1130, 23933.00
391.3100, 25019.00
392.5060, 25906.00
393.7030, 26237.00
394.9000, 26391.00
396.0960, 26493.00
397.2920, 26263.00
398.4880, 25973.00
399.6840, 25191.00
400.8800, 24133.00
402.0750, 23371.00
403.2710, 22070.00
404.4660, 21650.00
405.6610, 21058.00
406.8560, 20820.00
408.0510, 20595.00
409.2450, 20584.00
410.4400, 20638.00
411.6340, 20572.00
412.8280, 20551.00
414.0220, 20147.00
415.2160, 20069.00
416.4100, 19424.00
417.6030, 19239.00
418.7970, 18856.00
419.9900, 18647.00
421.1830, 18231.00
422.3760, 17682.00
423.5690, 17265.00
424.7610, 17146.00
425.9540, 17128.00
427.1460, 16907.00
428.3380, 16878.00
429.5300, 17014.00
430.7220, 17186.00
431.9140, 17717.00
433.1050, 18056.00
434.2970, 18418.00
435.4880, 18370.00
436.6790, 17959.00
437.8700, 17528.00
439.0610, 17107.00
440.2510, 16795.00
441.4420, 16498.00
442.6320, 16142.00
443.8220, 15877.32
445.0120, 15571.00
446.2020, 15356.00
447.3910, 15089.00
448.5810, 14901.00
449.7700, 14759.00
450.9600, 14805.00
452.1490, 14790.00
453.3370, 14835.00
454.5260, 14711.00
455.7150, 14653.00
456.9030, 14616.00
458.0910, 14707.00
459.2800, 14631.00
460.4670, 14565.00
461.6550, 14415.00
462.8430, 14470.00
464.0300, 14416.00
465.2180, 14377.00
466.4050, 14553.00
467.5920, 14547.00
468.7790, 14609.00
469.9650, 14649.48
471.1520, 14709.00
472.3380, 14641.00
473.5250, 14509.00
474.7110, 14428.00
475.8970, 14611.00
477.0820, 14638.00
478.2680, 14681.00
479.4540, 14684.00
480.6390, 14723.00
481.8240, 14845.00
483.0090, 14982.00
484.1940, 14884.00
485.3780, 15026.00
486.5630, 14829.00
487.7470, 14867.00
488.9320, 14911.00
490.1160, 14807.00
491.3000, 14795.00
492.4830, 14843.00
493.6670, 14855.00
494.8500, 14904.00
496.0340, 14826.00
497.2170, 14784.00
498.4000, 15063.00
499.5820, 14980.00
500.7650, 15018.00
501.9480, 15130.00
503.1300, 15142.00
504.3120, 15420.00
505.4940, 15367.00
506.6760, 15301.00
507.8580, 15599.00
509.0390, 15742.00
510.2210, 16150.00
511.4020, 16457.00
512.5830, 16672.00
513.7640, 16895.33
514.9450, 17092.72
516.1250, 17255.83
517.3060, 17403.00
518.4860, 17525.00
519.6660, 17623.00
520.8460, 17693.00
522.0260, 17807.00
523.2060, 17897.00
524.3850, 17918.00
525.5650, 17802.00
526.7440, 17981.00
527.9230, 17913.00
529.1020, 17572.00
530.2810, 17147.00
531.4590, 16769.00
532.6380, 16240.00
533.8160, 16059.00
534.9940, 15740.00
536.1720, 15552.00
537.3500, 15443.00
538.5270, 15307.00
539.7050, 15230.00
540.8820, 15136.00
542.0590, 14946.00
543.2360, 14940.00
544.4130, 14955.00
545.5900, 15059.00
546.7660, 14925.00
547.9430, 15062.00
549.1190, 14964.00
550.2950, 14980.00
551.4710, 15182.00
552.6470, 15240.00
553.8220, 15477.00
554.9980, 15583.00
556.1730, 15789.00
557.3480, 15816.00
558.5230, 15988.00
559.6980, 16282.00
560.8730, 16366.00
562.0470, 16357.00
563.2220, 16430.00
564.3960, 16320.00
565.5700, 16420.00
566.7440, 16337.00
567.9170, 16488.00
569.0910, 16273.00
570.2640, 16348.00
571.4380, 16308.00
572.6110, 16291.00
573.7840, 16396.00
574.9570, 16196.00
576.1290, 16120.00
577.3020, 16199.00
578.4740, 16050.00
579.6460, 16010.00
580.8180, 16062.00
581.9900, 15977.00
583.1620, 15940.00
584.3330, 15866.00
585.5040, 15776.00
586.6760, 15735.00
587.8470, 15752.00
589.0180, 15682.00
590.1880, 15648.00
591.3590, 15575.00
592.5290, 15515.00
593.7000, 15459.00
594.8700, 15348.00
596.0400, 15337.00
597.2090, 15313.00
598.3790, 15277.09
599.5490, 15413.00
600.7180, 15227.00
601.8870, 15349.00
603.0560, 15273.00
604.2250, 15211.00
605.3940, 15196.00
606.5620, 15274.00
607.7300, 15207.00
608.8990, 15240.00
610.0670, 15180.00
611.2350, 15365.00
612.4020, 15371.25
613.5700, 15651.00
614.7370, 15369.00
615.9050, 15469.00
617.0720, 15147.00
618.2390, 15181.00
619.4060, 15141.00
620.5720, 15054.00
621.7390, 15157.00
622.9050, 15176.00
624.0710, 14962.00
625.2370, 15088.00
626.4030, 15031.00
627.5690, 15152.00
628.7340, 15168.00
629.9000, 15089.00
631.0650, 15434.00
632.2300, 15421.00
633.3950, 15393.00
634.5600, 15300.00
635.7240, 15399.00
636.8890, 15507.00
638.0530, 15673.00
639.2170, 15801.00
640.3810, 15936.55
641.5450, 15998.00
642.7080, 16191.00
643.8720, 16382.00
645.0350, 16472.00
646.1980, 16729.00
647.3610, 16752.00
648.5240, 17001.00
649.6870, 17211.00
650.8490, 17264.00
652.0120, 17592.00
653.1740, 17883.00
654.3360, 18088.00
655.4980, 18444.00
656.6600, 18987.00
657.8210, 19386.00
658.9830, 20186.00
660.1440, 20775.00
661.3050, 22108.00
662.4660, 23535.00
663.6270, 25284.00
664.7870, 27833.00
665.9480, 30838.00
667.1080, 34293.00
668.2680, 38961.00
669.4280, 43515.00
670.5880, 47797.00
671.7480, 50581.00
672.9070, 50878.00
674.0670, 49445.00
675.2260, 45938.00
676.3850, 43043.00
677.5440, 40443.00
678.7030, 39538.00
679.8610, 39788.00
681.0200, 41432.00
682.1780, 43968.00
683.3360, 47245.00
684.4940, 50881.00
685.6520, 53722.00
686.8090, 54603.00
687.9670, 52628.00
689.1240, 48844.00
690.2810, 43250.00
691.4380, 38653.00
692.5950, 34149.00
693.7520, 30614.00
694.9080, 27575.00
696.0650, 25524.00
697.2210, 23632.00
698.3770, 22615.00
699.5330, 21468.00
700.6880, 20503.00
701.8440, 19937.00
702.9990, 19464.00
704.1550, 19073.00
705.3100, 18528.00
706.4650, 18299.00
707.6190, 17943.00
708.7740, 17858.00
709.9290, 17426.00
711.0830, 17216.00
712.2370, 17012.00
713.3910, 16950.00
714.5450, 16718.00
715.6980, 16729.00
716.8520, 16495.00
718.0050, 16527.00
719.1580, 16356.00
720.3110, 16346.00
721.4640, 16176.00
722.6170, 16217.00
723.7700, 16091.00
724.9220, 16048.00
726.0740, 16103.00
727.2260, 16148.00
728.3780, 16001.00
729.5300, 16205.00
730.6810, 16068.00
731.8330, 15931.00
732.9840, 16180.00
734.1350, 16112.00
735.2860, 16265.00
736.4370, 16266.00
737.5880, 16495.00
738.7380, 16510.00
739.8880, 16542.00
741.0390, 16635.00
742.1890, 16662.67
743.3380, 16820.00
744.4880, 16832.00
745.6380, 16791.00
746.7870, 16993.00
747.9360, 17063.00
749.0850, 17000.00
750.2340, 17013.19
751.3830, 16816.00
752.5310, 16814.00
753.6800, 16782.00
754.8280, 16634.00
755.9760, 16572.00
757.1240, 16473.00
758.2720, 16391.00
759.4190, 16376.00
760.5670, 16270.00
761.7140, 16213.00
762.8610, 16243.00
764.0080, 16171.76
765.1550, 16051.00
766.3020, 16064.00
767.4480, 16024.00
768.5950, 15843.00
769.7410, 15931.00
770.8870, 15894.00
772.0330, 15811.00
773.1780, 15785.00
774.3240, 15788.00
775.4690, 15788.00
776.6140, 15740.00
777.7590, 15693.00
778.9040, 15807.00
780.0490, 15783.00
781.1940, 15617.00
782.3380, 15526.00
783.4820, 15673.61
784.6260, 15532.25
785.7700, 15551.23
786.9140, 15521.00
788.0580, 15513.00
789.2010, 15633.00
790.3450, 15650.00
791.4880, 15630.00
792.6310, 15547.00
793.7730, 15459.00
794.9160, 15575.00
796.0590, 15525.00
797.2010, 15431.00
798.3430, 15359.00
799.4850, 15517.00
800.6270, 15490.00
801.7690, 15398.00
802.9100, 15527.00
804.0520, 15423.00
805.1930, 15461.00
806.3340, 15498.00
807.4750, 15448.00
808.6160, 15562.00
809.7560, 15453.00
810.8970, 15420.00
812.0370, 15603.00
813.1770, 15562.00
814.3170, 15573.00
815.4570, 15608.51
816.5960, 15536.00
817.7360, 15577.00
818.8750, 15406.00
820.0140, 15353.00
821.1530, 15427.00
822.2920, 15578.00
823.4310, 15399.00
824.5690, 15524.00
825.7070, 15437.00
826.8460, 15308.00
827.9840, 15460.00
829.1220, 15499.00
830.2590, 15500.00
831.3970, 15487.00
832.5340, 15452.00
833.6710, 15491.00
834.8080, 15498.13
835.9450, 15525.00
837.0820, 15540.00
838.2190, 15545.00
839.3550, 15514.00
840.4910, 15525.00
841.6270, 15594.00
842.7630, 15750.00
843.8990, 15579.00
845.0350, 15687.00
846.1700, 15659.00
847.3060, 15575.00
848.4410, 15724.00
849.5760, 15548.00
850.7100, 15484.00
851.8450, 15606.00
852.9800, 15551.00
854.1140, 15623.00
855.2480, 15732.00
856.3820, 15723.00
857.5160, 15699.00
858.6500, 15788.00
859.7830, 15604.00
860.9170, 15689.00
862.0500, 15772.00
863.1830, 15589.00
864.3160, 15762.00
865.4480, 15674.00
866.5810, 15884.00
867.7130, 15815.00
868.8460, 15756.00
869.9780, 15762.00
871.1100, 15743.96
872.2410, 15864.00
873.3730, 15747.00
874.5050, 15859.00
875.6360, 15813.00
876.7670, 15917.00
877.8980, 16095.00
879.0290, 15870.00
880.1590, 16005.00
881.2900, 15890.00
882.4200, 15876.00
883.5500, 15927.63
884.6800, 15934.00
885.8100, 16003.00
886.9400, 16060.00
888.0690, 16147.00
889.1990, 16193.54
890.3280, 16221.19
891.4570, 16287.00
892.5860, 16259.00
893.7140, 16275.00
894.8430, 16310.00
895.9710, 16493.00
897.1000, 16437.00
898.2280, 16434.00
899.3560, 16408.00
900.4830, 16641.00
901.6110, 16712.00
902.7380, 16734.00
903.8660, 16732.00
904.9930, 16810.00
906.1200, 16901.00
907.2460, 16967.00
908.3730, 17132.00
909.5000, 16831.00
910.6260, 17011.00
911.7520, 17137.00
912.8780, 17101.00
914.0040, 17304.00
915.1290, 17415.00
916.2550, 17546.00
917.3800, 17715.00
918.5050, 17881.27
919.6300, 18110.00
920.7550, 18281.00
921.8800, 18546.00
923.0040, 18788.00
924.1290, 19005.00
925.2530, 19411.00
926.3770, 20089.00
927.5010, 20471.00
928.6250, 20650.00
929.7480, 20655.00
930.8720, 20228.00
931.9950, 19983.00
933.1180, 19427.00
934.2410, 18760.00
935.3640, 18500.00
936.4860, 18159.00
937.6090, 17925.00
938.7310, 17820.00
939.8530, 17563.00
940.9750, 17624.00
942.0970, 17680.00
943.2180, 17520.00
944.3400, 17797.00
945.4610, 17820.00
946.5820, 17674.00
947.7030, 17691.00
948.8240, 17681.00
949.9450, 17585.00
951.0650, 17335.00
952.1860, 17339.00
953.3060, 17152.00
954.4260, 17103.00
955.5460, 17006.00
956.6650, 17039.00
957.7850, 17015.00
958.9040, 16836.00
960.0230, 16851.00
961.1420, 17085.00
962.2610, 16861.00
963.3800, 16953.00
964.4990, 16850.00
965.6170, 16672.00
966.7350, 16737.00
967.8530, 16938.00
968.9710, 16773.00
970.0890, 16903.00
971.2070, 16906.00
972.3240, 16882.00
973.4410, 16772.00
974.5580, 16962.00
975.6750, 16885.00
976.7920, 17104.00
977.9090, 17107.00
979.0250, 17099.00
980.1410, 17248.00
981.2580, 17071.00
982.3740, 17266.00
983.4890, 17370.00
984.6050, 17671.00
985.7200, 17762.00
986.8360, 17829.00
987.9510, 18028.00
989.0660, 18078.00
990.1810, 18359.00
991.2950, 18692.00
992.4100, 18809.00
993.5240, 18929.00
994.6390, 19411.00
995.7530, 19501.00
996.8660, 19685.00
997.9800, 19745.00
999.0940, 20076.00
1000.207, 19959.00
1001.320, 20107.00
1002.433, 19961.00
1003.546, 20245.00
1004.659, 20026.00
1005.772, 20182.00
1006.884, 20025.00
1007.996, 19984.00
1009.108, 20039.00
1010.220, 20211.00
1011.332, 20294.00
1012.444, 20492.00
1013.555, 20671.00
1014.666, 20862.58
1015.777, 21129.79
1016.888, 21385.00
1017.999, 21787.00
1019.110, 22231.00
1020.220, 22796.00
1021.331, 23207.00
1022.441, 23778.00
1023.551, 24415.00
1024.661, 25403.00
1025.770, 25918.00
1026.880, 26204.00
1027.989, 26157.00
1029.098, 25362.00
1030.207, 24521.00
1031.316, 23613.00
1032.425, 22586.00
1033.533, 21635.00
1034.642, 21006.00
1035.750, 20361.00
1036.858, 19870.00
1037.966, 19642.00
1039.073, 19434.00
1040.181, 19573.00
1041.288, 19263.00
1042.396, 19477.00
1043.503, 19626.00
1044.610, 19595.00
1045.716, 19990.00
1046.823, 20300.00
1047.929, 20929.00
1049.036, 21206.00
1050.142, 21796.00
1051.248, 22575.00
1052.353, 23400.00
1053.459, 24275.00
1054.564, 25230.00
1055.670, 25916.00
1056.775, 26600.00
1057.880, 26551.00
1058.985, 27229.00
1060.089, 26320.00
1061.194, 26140.00
1062.298, 25856.00
1063.402, 25942.00
1064.506, 25910.00
1065.610, 26016.00
1066.713, 26330.00
1067.817, 26530.00
1068.920, 26480.00
1070.023, 26505.00
1071.126, 26336.00
1072.229, 25869.00
1073.332, 25473.00
1074.435, 24742.00
1075.537, 24290.00
1076.639, 23437.00
1077.741, 22828.00
1078.843, 22338.00
1079.945, 21788.17
1081.046, 21725.00
1082.148, 21091.00
1083.249, 20920.00
1084.350, 20885.00
1085.451, 20541.00
1086.551, 20422.00
1087.652, 20308.00
1088.752, 20222.00
1089.853, 20089.81
1090.953, 19930.00
1092.053, 19809.00
1093.152, 19714.00
1094.252, 19499.00
1095.351, 19450.00
1096.451, 19244.00
1097.550, 19064.00
1098.649, 19237.00
1099.748, 18962.00
1100.846, 19109.00
1101.945, 18857.00
1103.043, 18721.00
1104.141, 18741.00
1105.239, 18639.00
1106.337, 18616.00
1107.434, 18689.00
1108.532, 18524.00
1109.629, 18509.00
1110.726, 18627.00
1111.823, 18614.00
1112.920, 18515.00
1114.017, 18477.00
1115.113, 18473.00
1116.210, 18637.00
1117.306, 18727.00
1118.402, 18728.00
1119.498, 18876.00
1120.593, 18989.00
1121.689, 18890.00
1122.784, 19103.00
1123.879, 19256.00
1124.974, 19053.00
1126.069, 18867.00
1127.164, 19005.00
1128.259, 18736.00
1129.353, 18761.00
1130.447, 18510.00
1131.541, 18316.00
1132.635, 18514.00
1133.729, 18230.00
1134.822, 18271.00
1135.916, 18165.00
1137.009, 18194.00
1138.102, 18152.84
1139.195, 18052.54
1140.288, 18076.00
1141.380, 17854.00
1142.473, 17772.00
1143.565, 17667.00
1144.657, 17762.00
1145.749, 17903.00
1146.841, 17631.00
1147.932, 17733.00
1149.024, 17505.00
1150.115, 17702.00
1151.206, 17558.00
1152.297, 17685.00
1153.388, 17646.00
1154.479, 17482.00
1155.569, 17594.00
1156.659, 17425.00
1157.750, 17248.00
1158.839, 17379.00
1159.929, 17235.00
1161.019, 17411.00
1162.108, 17347.91
1163.198, 17568.00
1164.287, 17303.00
1165.376, 17418.00
1166.465, 17423.00
1167.553, 17435.00
1168.642, 17564.00
1169.730, 17327.00
1170.818, 17498.00
1171.906, 17450.00
1172.994, 17620.00
1174.082, 17505.00
1175.170, 17504.00
1176.257, 17706.00
1177.344, 17584.00
1178.431, 17662.00
1179.518, 17622.00
1180.605, 17907.00
1181.691, 17708.00
1182.778, 18004.00
1183.864, 17790.00
1184.950, 17999.00
1186.036, 17835.00
1187.122, 17970.00
1188.207, 18031.00
1189.292, 18001.00
1190.378, 17890.00
1191.463, 18088.00
1192.548, 17976.00
1193.632, 18070.00
1194.717, 18017.00
1195.801, 18123.00
1196.886, 18049.00
1197.970, 17881.00
1199.054, 18116.00
1200.137, 18160.00
1201.221, 18259.00
1202.305, 18437.00
1203.388, 18261.00
1204.471, 18386.00
1205.554, 18416.00
1206.637, 18332.00
1207.719, 18545.00
1208.802, 18554.00
1209.884, 18523.00
1210.966, 18791.00
1212.048, 18819.00
1213.130, 18702.00
1214.212, 18892.00
1215.293, 18767.00
1216.374, 18911.00
1217.456, 18806.00
1218.536, 18602.00
1219.617, 18685.00
1220.698, 18540.00
1221.778, 18545.00
1222.859, 18300.00
1223.939, 18323.00
1225.019, 18213.00
1226.099, 18302.00
1227.178, 18004.00
1228.258, 17997.00
1229.337, 17987.00
1230.417, 17862.00
1231.496, 17676.00
1232.574, 17758.00
1233.653, 17793.00
1234.732, 17449.00
1235.810, 17714.00
1236.888, 17501.00
1237.966, 17428.00
1239.044, 17556.00
1240.122, 17518.00
1241.199, 17646.00
1242.277, 17417.00
1243.354, 17455.00
1244.431, 17535.00
1245.508, 17534.00
1246.585, 17494.81
1247.661, 17402.00
1248.738, 17432.00
1249.814, 17375.00
1250.890, 17359.35
1251.966, 17331.00
1253.042, 17328.00
1254.117, 17286.00
1255.193, 17255.00
1256.268, 17294.00
1257.343, 17312.00
1258.418, 17333.00
1259.493, 17249.00
1260.567, 17366.00
1261.642, 17229.00
1262.716, 17271.00
1263.790, 17411.00
1264.864, 17375.00
1265.938, 17358.00
1267.011, 17577.00
1268.085, 17432.00
1269.158, 17321.00
1270.231, 17405.00
1271.304, 17373.00
1272.377, 17455.00
1273.450, 17341.00
1274.522, 17527.00
1275.594, 17538.00
1276.666, 17482.81
1277.738, 17654.00
1278.810, 17405.00
1279.882, 17454.00
1280.953, 17473.00
1282.025, 17595.00
1283.096, 17407.00
1284.167, 17432.00
1285.238, 17425.00
1286.308, 17299.00
1287.379, 17257.00
1288.449, 17516.00
1289.519, 17624.00
1290.589, 17515.00
1291.659, 17343.00
1292.729, 17338.00
1293.798, 17393.00
1294.868, 17522.00
1295.937, 17473.00
1297.006, 17497.00
1298.075, 17615.00
1299.143, 17579.00
1300.212, 17511.00
1301.280, 17673.00
1302.348, 17591.00
1303.416, 17472.00
1304.484, 17444.00
1305.552, 17755.00
1306.620, 17524.00
1307.687, 17589.00
1308.754, 17467.00
1309.821, 17453.00
1310.888, 17601.00
1311.955, 17557.00
1313.021, 17506.00
1314.088, 17406.00
1315.154, 17649.00
1316.220, 17546.00
1317.286, 17751.00
1318.352, 17610.00
1319.417, 17665.00
1320.483, 17709.00
1321.548, 17748.00
1322.613, 17826.00
1323.678, 17756.00
1324.743, 17647.00
1325.807, 17641.00
1326.872, 17875.00
1327.936, 17612.00
1329.000, 17846.00
1330.064, 17743.00
1331.128, 17806.00
1332.191, 17625.00
1333.255, 17884.00
1334.318, 17704.00
1335.381, 17720.00
1336.444, 17777.00
1337.507, 17798.00
1338.569, 17899.00
1339.632, 17821.00
1340.694, 17728.00
1341.756, 17864.00
1342.818, 17800.00
1343.880, 17836.00
1344.941, 17716.00
1346.003, 17958.00
1347.064, 17804.00
1348.125, 17862.04
1349.186, 17959.00
1350.247, 17984.00
1351.308, 17826.00
1352.368, 18096.00
1353.428, 18032.00
1354.489, 17892.00
1355.549, 18044.00
1356.608, 18028.00
1357.668, 18020.00
1358.727, 18085.00
1359.787, 18085.00
1360.846, 18084.00
1361.905, 18034.00
1362.964, 17996.00
1364.022, 18028.00
1365.081, 17918.00
1366.139, 18031.00
1367.197, 18005.00
1368.255, 17906.00
1369.313, 18000.00
1370.371, 18017.00
1371.428, 18013.00
1372.486, 18008.00
1373.543, 18039.84
1374.600, 17993.00
1375.657, 18105.00
1376.713, 18114.00
1377.770, 18160.12
1378.826, 18267.00
1379.882, 18262.00
1380.938, 18331.00
1381.994, 18453.00
1383.050, 18654.00
1384.106, 18806.00
1385.161, 18898.00
1386.216, 18845.00
1387.271, 18485.00
1388.326, 18387.00
1389.381, 18243.00
1390.435, 18072.00
1391.490, 18108.00
1392.544, 18117.00
1393.598, 18196.00
1394.652, 18162.00
1395.705, 18197.00
1396.759, 18219.00
1397.812, 18277.00
1398.866, 18311.00
1399.919, 18311.18
1400.972, 18306.51
1402.024, 18286.00
1403.077, 18286.00
1404.129, 18237.00
1405.181, 18310.00
1406.233, 18238.00
1407.285, 18198.00
1408.337, 18357.00
1409.389, 18545.00
1410.440, 18185.00
1411.491, 18385.00
1412.542, 18448.00
1413.593, 18251.00
1414.644, 18416.00
1415.695, 18353.00
1416.745, 18370.00
1417.795, 18551.00
1418.845, 18373.00
1419.895, 18394.00
1420.945, 18335.00
1421.995, 18418.00
1423.044, 18507.00
1424.093, 18367.00
1425.142, 18376.00
1426.191, 18351.00
1427.240, 18482.00
1428.289, 18355.00
1429.337, 18501.00
1430.385, 18442.00
1431.433, 18505.00
1432.481, 18526.00
1433.529, 18335.00
1434.577, 18694.00
1435.624, 18462.00
1436.672, 18702.00
1437.719, 18766.00
1438.766, 18499.00
1439.812, 18552.00
1440.859, 18728.00
1441.905, 18618.00
1442.952, 18568.00
1443.998, 18666.83
1445.044, 18675.00
1446.090, 18780.00
1447.135, 18752.00
1448.181, 18820.85
1449.226, 18843.99
1450.271, 19005.00
1451.316, 18953.00
1452.361, 18768.00
1453.405, 18948.00
1454.450, 18846.00
1455.494, 19039.00
1456.538, 18765.00
1457.582, 18845.00
1458.626, 18729.00
1459.670, 18866.00
1460.713, 18838.00
1461.757, 18793.00
1462.800, 18953.00
1463.843, 18983.00
1464.886, 18911.00
1465.928, 18879.00
1466.971, 19079.00
1468.013, 18953.00
1469.055, 18995.00
1470.097, 18720.00
1471.139, 19169.00
1472.181, 19045.00
1473.222, 18942.00
1474.263, 19055.00
1475.305, 18935.00
1476.346, 19009.00
1477.386, 19024.78
1478.427, 18915.00
1479.468, 19120.00
1480.508, 19153.00
1481.548, 19289.00
1482.588, 19242.00
1483.628, 19284.00
1484.668, 19119.00
1485.707, 19054.00
1486.747, 19057.00
1487.786, 19298.00
1488.825, 19436.00
1489.864, 19308.00
1490.902, 19384.00
1491.941, 19220.00
1492.979, 19160.00
1494.017, 19280.00
1495.055, 19246.00
1496.093, 19295.00
1497.131, 19239.00
1498.168, 19471.00
1499.206, 19376.64
1500.243, 19429.00
1501.280, 19366.00
1502.317, 19312.00
1503.354, 19400.00
1504.390, 19422.00
1505.426, 19506.00
1506.463, 19424.00
1507.499, 19436.00
1508.535, 19612.00
1509.570, 19560.00
1510.606, 19301.00
1511.641, 19542.00
1512.676, 19589.00
1513.711, 19443.00
1514.746, 19586.00
1515.781, 19676.00
1516.816, 19728.00
1517.850, 19508.00
1518.884, 19608.00
1519.918, 19450.00
1520.952, 19450.00
1521.986, 19622.00
1523.019, 19856.00
1524.053, 19808.00
1525.086, 19671.00
1526.119, 19762.00
1527.152, 19791.00
1528.185, 19949.00
1529.217, 19648.00
1530.250, 19849.00
1531.282, 19813.00
1532.314, 19846.00
1533.346, 19846.00
1534.377, 19896.63
1535.409, 19953.07
1536.440, 19994.00
1537.472, 20039.00
1538.503, 20022.00
1539.534, 19936.00
1540.564, 19962.00
1541.595, 19936.00
1542.625, 20019.00
1543.656, 19932.00
1544.686, 20121.00
1545.716, 20218.00
1546.745, 20077.00
1547.775, 20008.00
1548.804, 20155.00
1549.834, 20377.00
1550.863, 20296.00
1551.892, 20226.00
1552.920, 20203.00
1553.949, 20547.00
1554.977, 20386.00
1556.006, 20361.00
1557.034, 20161.00
1558.062, 20204.00
1559.089, 20361.00
1560.117, 20272.00
1561.144, 20361.00
1562.172, 20226.00
1563.199, 20454.00
1564.226, 20310.00
1565.252, 20233.00
1566.279, 20496.00
1567.305, 20297.00
1568.332, 20622.00
1569.358, 20413.00
1570.384, 20420.00
1571.409, 20568.00
##END=



