##NAMES=Beryl
##RRUFFID=R050305
##IDEAL CHEMISTRY=Be_3_Al_2_Si_6_O_18_
##LOCALITY=Conselheiro Pena, Minas Gerais, Brazil
##OWNER=RRUFF
##SOURCE=Eugene Schlepp
##DESCRIPTION=Light blue fragment, variety aquamarine
##STATUS=The identification of this mineral has been confirmed by X-ray diffraction and chemical analysis
##URL=rruff.info/R050305
##MEASURED CHEMISTRY=(Be_0.91_Li_0.09_)_3_(Al_0.99_Fe^3+^_0.01_)_2_Si_6.00_O_18_Î‡Na_0.27_
##PIN_ID=L00797
##ORIENTATION=Laser parallel to c* (0 0 1). Fiducial mark perpendicular to laser is parallel to [-1 -1 0]
95.94800, 10910.00
97.18200, 11225.00
98.41600, 11238.00
99.64900, 11522.00
100.8830, 11664.00
102.1160, 11868.00
103.3490, 12472.00
104.5820, 12148.00
105.8150, 12519.00
107.0470, 13065.00
108.2800, 13878.00
109.5120, 14465.00
110.7440, 14296.00
111.9760, 14183.00
113.2080, 14594.00
114.4400, 14880.00
115.6710, 15336.00
116.9030, 15446.00
118.1340, 15759.00
119.3650, 15701.00
120.5960, 15662.00
121.8270, 15817.00
123.0580, 15866.00
124.2880, 15827.77
125.5190, 15815.00
126.7490, 15796.00
127.9790, 15835.00
129.2090, 15917.00
130.4390, 16123.00
131.6680, 15995.00
132.8980, 16045.00
134.1270, 15871.00
135.3560, 15972.00
136.5850, 15912.00
137.8140, 15951.00
139.0430, 15803.00
140.2710, 15757.00
141.5000, 15458.00
142.7280, 15236.00
143.9560, 15088.00
145.1840, 14854.00
146.4120, 14762.00
147.6390, 14673.00
148.8670, 14397.00
150.0940, 14287.00
151.3210, 14487.00
152.5490, 14463.00
153.7750, 14304.00
155.0020, 14573.00
156.2290, 14462.00
157.4550, 14508.00
158.6810, 14551.00
159.9080, 14686.00
161.1340, 14640.00
162.3590, 14615.00
163.5850, 14824.00
164.8110, 14992.00
166.0360, 14964.00
167.2610, 14961.00
168.4860, 14976.00
169.7110, 14974.00
170.9360, 15075.00
172.1610, 14810.00
173.3850, 14880.00
174.6100, 14816.00
175.8340, 14898.00
177.0580, 14712.00
178.2820, 14685.00
179.5050, 14659.00
180.7290, 14597.00
181.9520, 14483.00
183.1760, 14254.00
184.3990, 14211.00
185.6220, 14083.00
186.8450, 14042.00
188.0670, 14002.00
189.2900, 14005.00
190.5120, 13899.00
191.7340, 14043.00
192.9560, 13946.00
194.1780, 13951.00
195.4000, 13815.00
196.6220, 13827.00
197.8430, 13822.00
199.0640, 13778.00
200.2860, 13725.00
201.5070, 13737.00
202.7270, 13814.00
203.9480, 13517.00
205.1690, 13170.00
206.3890, 13123.00
207.6090, 12810.00
208.8290, 12910.00
210.0490, 12893.00
211.2690, 12886.00
212.4890, 13068.00
213.7080, 12870.00
214.9280, 12982.00
216.1470, 12829.00
217.3660, 12925.00
218.5850, 13066.00
219.8030, 13014.00
221.0220, 13076.00
222.2400, 13197.00
223.4590, 13086.00
224.6770, 12981.00
225.8950, 13173.00
227.1120, 13290.00
228.3300, 13215.00
229.5480, 13257.00
230.7650, 13395.00
231.9820, 13417.00
233.1990, 13302.00
234.4160, 13376.00
235.6330, 13405.00
236.8490, 13320.00
238.0660, 13428.00
239.2820, 13358.00
240.4980, 13222.00
241.7140, 13330.00
242.9300, 13198.00
244.1460, 13201.00
245.3610, 13192.00
246.5770, 13136.00
247.7920, 13198.00
249.0070, 13102.00
250.2220, 13099.00
251.4370, 13143.00
252.6510, 12940.00
253.8660, 13009.00
255.0800, 12787.00
256.2940, 12898.00
257.5080, 13052.00
258.7220, 13127.00
259.9360, 13299.00
261.1490, 13376.00
262.3630, 13180.00
263.5760, 12908.00
264.7890, 13212.00
266.0020, 13188.00
267.2150, 13228.00
268.4270, 13242.00
269.6400, 13322.00
270.8520, 13317.00
272.0640, 13214.00
273.2760, 13095.00
274.4880, 13439.00
275.7000, 13257.00
276.9120, 13546.00
278.1230, 13246.00
279.3340, 13438.00
280.5450, 13576.00
281.7560, 13621.00
282.9670, 13703.00
284.1780, 13868.00
285.3880, 13944.00
286.5980, 14219.00
287.8090, 14409.00
289.0190, 14517.00
290.2290, 14812.00
291.4380, 14925.00
292.6480, 15247.00
293.8570, 15360.00
295.0670, 15109.00
296.2760, 14908.00
297.4850, 14608.00
298.6930, 14450.00
299.9020, 14047.00
301.1110, 13819.00
302.3190, 13725.00
303.5270, 13624.00
304.7350, 13535.00
305.9430, 13499.00
307.1510, 13733.00
308.3580, 13695.00
309.5660, 13882.00
310.7730, 13806.00
311.9800, 14221.00
313.1870, 14142.00
314.3940, 14459.00
315.6010, 14674.00
316.8070, 14870.00
318.0130, 15066.39
319.2200, 15289.00
320.4260, 15405.00
321.6310, 15533.00
322.8370, 15770.00
324.0430, 15554.00
325.2480, 15512.00
326.4540, 14992.00
327.6590, 14745.00
328.8640, 14233.00
330.0680, 14077.00
331.2730, 13706.00
332.4780, 13634.00
333.6820, 13313.00
334.8860, 13419.00
336.0900, 13184.00
337.2940, 13160.00
338.4980, 13052.00
339.7010, 13077.00
340.9050, 13215.00
342.1080, 13129.00
343.3110, 13152.00
344.5140, 13196.00
345.7170, 13022.00
346.9200, 13148.00
348.1220, 13219.00
349.3240, 13320.00
350.5270, 13282.00
351.7290, 13389.00
352.9310, 13450.00
354.1320, 13353.00
355.3340, 13407.00
356.5350, 13399.00
357.7370, 13419.00
358.9380, 13500.00
360.1390, 13490.00
361.3400, 13605.00
362.5400, 13655.00
363.7410, 13539.00
364.9410, 13559.00
366.1410, 13778.00
367.3410, 13698.00
368.5410, 13822.00
369.7410, 13832.00
370.9400, 13880.00
372.1400, 14043.00
373.3390, 13980.00
374.5380, 14107.00
375.7370, 14265.00
376.9360, 14345.00
378.1350, 14736.00
379.3330, 14760.00
380.5310, 14951.00
381.7300, 15234.00
382.9280, 15719.00
384.1260, 16146.00
385.3230, 16615.00
386.5210, 17484.00
387.7180, 18511.00
388.9160, 19539.00
390.1130, 20851.00
391.3100, 22413.00
392.5060, 23862.00
393.7030, 25661.00
394.9000, 27462.00
396.0960, 29133.00
397.2920, 30531.00
398.4880, 31549.00
399.6840, 31682.00
400.8800, 30372.00
402.0750, 28426.00
403.2710, 26347.00
404.4660, 24046.00
405.6610, 22002.00
406.8560, 20731.00
408.0510, 19458.00
409.2450, 18991.00
410.4400, 18367.00
411.6340, 17864.00
412.8280, 18001.00
414.0220, 17933.00
415.2160, 17744.00
416.4100, 18023.00
417.6030, 18011.00
418.7970, 18053.00
419.9900, 18130.00
421.1830, 17923.00
422.3760, 18044.00
423.5690, 17696.00
424.7610, 17410.00
425.9540, 17067.00
427.1460, 16707.00
428.3380, 16292.00
429.5300, 16033.15
430.7220, 15583.00
431.9140, 15541.00
433.1050, 15444.00
434.2970, 15324.00
435.4880, 15097.00
436.6790, 15143.00
437.8700, 15175.00
439.0610, 15087.00
440.2510, 14884.00
441.4420, 14830.00
442.6320, 14787.00
443.8220, 14830.00
445.0120, 14677.00
446.2020, 14617.00
447.3910, 14482.00
448.5810, 14441.00
449.7700, 14411.00
450.9600, 14262.00
452.1490, 14320.00
453.3370, 14276.00
454.5260, 14433.00
455.7150, 14234.00
456.9030, 14153.00
458.0910, 14040.00
459.2800, 14140.00
460.4670, 13962.00
461.6550, 14043.00
462.8430, 13890.00
464.0300, 13962.00
465.2180, 14070.00
466.4050, 14103.00
467.5920, 14047.00
468.7790, 14087.65
469.9650, 14007.00
471.1520, 14042.00
472.3380, 14034.00
473.5250, 13984.00
474.7110, 14043.00
475.8970, 14120.00
477.0820, 13913.00
478.2680, 14308.00
479.4540, 14159.00
480.6390, 14115.00
481.8240, 13994.00
483.0090, 14222.00
484.1940, 14348.00
485.3780, 14269.00
486.5630, 14213.00
487.7470, 14231.00
488.9320, 14386.00
490.1160, 14190.00
491.3000, 14271.00
492.4830, 14103.00
493.6670, 14268.00
494.8500, 14241.08
496.0340, 14201.72
497.2170, 14273.00
498.4000, 14188.00
499.5820, 14129.00
500.7650, 14198.00
501.9480, 13975.00
503.1300, 14169.00
504.3120, 14130.00
505.4940, 13998.00
506.6760, 14046.00
507.8580, 13943.00
509.0390, 14056.00
510.2210, 14029.00
511.4020, 14129.00
512.5830, 14050.18
513.7640, 13950.00
514.9450, 13915.00
516.1250, 13951.28
517.3060, 14182.00
518.4860, 14086.00
519.6660, 14267.00
520.8460, 14330.00
522.0260, 14191.00
523.2060, 14273.00
524.3850, 14411.00
525.5650, 14400.00
526.7440, 14486.00
527.9230, 14358.00
529.1020, 14636.00
530.2810, 14585.00
531.4590, 14520.00
532.6380, 14671.00
533.8160, 14560.00
534.9940, 14825.00
536.1720, 14840.00
537.3500, 14788.00
538.5270, 14726.00
539.7050, 14729.00
540.8820, 14878.00
542.0590, 14783.00
543.2360, 14889.00
544.4130, 14862.00
545.5900, 15229.00
546.7660, 14989.00
547.9430, 15233.00
549.1190, 15331.00
550.2950, 15312.00
551.4710, 15610.00
552.6470, 15545.00
553.8220, 15604.00
554.9980, 15581.00
556.1730, 15917.00
557.3480, 15939.00
558.5230, 16129.00
559.6980, 16072.00
560.8730, 16122.00
562.0470, 16368.00
563.2220, 16356.00
564.3960, 16369.00
565.5700, 16489.00
566.7440, 16582.00
567.9170, 16832.00
569.0910, 16925.00
570.2640, 17041.00
571.4380, 17167.07
572.6110, 17213.00
573.7840, 17273.00
574.9570, 17317.00
576.1290, 17223.00
577.3020, 17103.00
578.4740, 17079.00
579.6460, 16838.00
580.8180, 16660.00
581.9900, 16598.00
583.1620, 16518.00
584.3330, 16279.00
585.5040, 16320.00
586.6760, 16272.00
587.8470, 16011.00
589.0180, 15781.00
590.1880, 15912.00
591.3590, 15936.00
592.5290, 15770.00
593.7000, 15799.00
594.8700, 15735.00
596.0400, 15587.00
597.2090, 15668.00
598.3790, 15568.00
599.5490, 15622.00
600.7180, 15506.00
601.8870, 15430.00
603.0560, 15312.00
604.2250, 15440.00
605.3940, 15445.00
606.5620, 15474.00
607.7300, 15406.00
608.8990, 15264.00
610.0670, 15545.00
611.2350, 15397.00
612.4020, 15475.00
613.5700, 15568.00
614.7370, 15472.00
615.9050, 15484.00
617.0720, 15516.00
618.2390, 15435.00
619.4060, 15480.00
620.5720, 15501.00
621.7390, 15521.00
622.9050, 15496.00
624.0710, 15517.87
625.2370, 15514.78
626.4030, 15522.00
627.5690, 15540.00
628.7340, 15530.00
629.9000, 15586.94
631.0650, 15589.76
632.2300, 15631.00
633.3950, 15600.00
634.5600, 15598.00
635.7240, 15538.00
636.8890, 15712.00
638.0530, 15633.00
639.2170, 15699.00
640.3810, 15877.00
641.5450, 15866.00
642.7080, 15794.00
643.8720, 15893.00
645.0350, 15956.00
646.1980, 15786.00
647.3610, 16144.00
648.5240, 16062.00
649.6870, 16004.00
650.8490, 16163.00
652.0120, 16130.00
653.1740, 16225.00
654.3360, 16270.00
655.4980, 16246.00
656.6600, 16344.76
657.8210, 16389.00
658.9830, 16532.00
660.1440, 16582.00
661.3050, 16804.00
662.4660, 16928.00
663.6270, 17295.00
664.7870, 17585.00
665.9480, 17928.00
667.1080, 18274.00
668.2680, 18534.00
669.4280, 19305.00
670.5880, 19825.00
671.7480, 20888.00
672.9070, 21988.00
674.0670, 23472.00
675.2260, 25349.00
676.3850, 28242.00
677.5440, 31611.00
678.7030, 35662.00
679.8610, 40425.00
681.0200, 45499.00
682.1780, 50206.00
683.3360, 55170.00
684.4940, 59222.00
685.6520, 60728.00
686.8090, 59986.00
687.9670, 55965.00
689.1240, 50251.00
690.2810, 43937.00
691.4380, 38411.00
692.5950, 33819.00
693.7520, 30295.00
694.9080, 27812.00
696.0650, 25629.00
697.2210, 24136.00
698.3770, 22827.51
699.5330, 22319.00
700.6880, 21244.00
701.8440, 20835.00
702.9990, 20297.00
704.1550, 19924.00
705.3100, 19564.00
706.4650, 19302.00
707.6190, 19025.04
708.7740, 18800.00
709.9290, 18603.00
711.0830, 18466.00
712.2370, 18326.00
713.3910, 18164.00
714.5450, 18167.00
715.6980, 18212.00
716.8520, 18062.41
718.0050, 17936.00
719.1580, 17874.00
720.3110, 17757.00
721.4640, 17679.00
722.6170, 17739.00
723.7700, 17740.00
724.9220, 17651.00
726.0740, 17666.00
727.2260, 17667.00
728.3780, 17698.00
729.5300, 17683.30
730.6810, 17612.00
731.8330, 17685.00
732.9840, 17552.00
734.1350, 17590.00
735.2860, 17486.00
736.4370, 17426.00
737.5880, 17238.00
738.7380, 17373.00
739.8880, 17474.00
741.0390, 17305.00
742.1890, 17374.00
743.3380, 17380.00
744.4880, 17555.00
745.6380, 17449.00
746.7870, 17490.00
747.9360, 17651.00
749.0850, 17556.00
750.2340, 17682.00
751.3830, 17713.00
752.5310, 17875.00
753.6800, 17836.00
754.8280, 17864.00
755.9760, 17742.00
757.1240, 17940.00
758.2720, 17995.00
759.4190, 17828.00
760.5670, 17867.00
761.7140, 17901.00
762.8610, 17818.00
764.0080, 17838.00
765.1550, 17703.00
766.3020, 17639.00
767.4480, 17387.00
768.5950, 17368.00
769.7410, 17270.78
770.8870, 17344.00
772.0330, 17166.00
773.1780, 17292.00
774.3240, 17262.00
775.4690, 17175.00
776.6140, 17270.00
777.7590, 17307.00
778.9040, 17147.00
780.0490, 17161.00
781.1940, 17260.00
782.3380, 17050.00
783.4820, 17171.00
784.6260, 17130.00
785.7700, 17080.00
786.9140, 17280.00
788.0580, 17240.00
789.2010, 17089.00
790.3450, 17284.00
791.4880, 17314.00
792.6310, 17228.00
793.7730, 17329.32
794.9160, 17274.00
796.0590, 17302.00
797.2010, 17248.00
798.3430, 17117.00
799.4850, 17198.00
800.6270, 17319.00
801.7690, 17308.00
802.9100, 17224.00
804.0520, 17231.00
805.1930, 17172.00
806.3340, 17176.97
807.4750, 17201.02
808.6160, 17212.00
809.7560, 17282.00
810.8970, 17334.00
812.0370, 17394.00
813.1770, 17384.00
814.3170, 17397.00
815.4570, 17314.00
816.5960, 17417.00
817.7360, 17305.00
818.8750, 17400.00
820.0140, 17360.00
821.1530, 17318.00
822.2920, 17300.00
823.4310, 17595.00
824.5690, 17476.00
825.7070, 17496.00
826.8460, 17619.00
827.9840, 17550.00
829.1220, 17597.00
830.2590, 17473.00
831.3970, 17473.00
832.5340, 17448.14
833.6710, 17692.00
834.8080, 17486.00
835.9450, 17495.00
837.0820, 17698.00
838.2190, 17423.00
839.3550, 17758.00
840.4910, 17757.00
841.6270, 17599.00
842.7630, 17716.00
843.8990, 17748.00
845.0350, 17823.00
846.1700, 17715.00
847.3060, 17865.00
848.4410, 17943.00
849.5760, 17693.00
850.7100, 17695.00
851.8450, 17846.00
852.9800, 17861.00
854.1140, 17903.00
855.2480, 17796.00
856.3820, 18007.00
857.5160, 17894.00
858.6500, 17928.00
859.7830, 18134.00
860.9170, 18304.00
862.0500, 18100.00
863.1830, 18096.00
864.3160, 18133.00
865.4480, 18024.00
866.5810, 18230.00
867.7130, 18167.00
868.8460, 18220.00
869.9780, 18239.00
871.1100, 18187.00
872.2410, 18141.00
873.3730, 18355.00
874.5050, 18351.00
875.6360, 18336.00
876.7670, 18172.00
877.8980, 18230.00
879.0290, 18398.00
880.1590, 18016.00
881.2900, 18375.00
882.4200, 18254.00
883.5500, 18256.00
884.6800, 18480.00
885.8100, 18334.00
886.9400, 18446.00
888.0690, 18525.00
889.1990, 18399.00
890.3280, 18446.00
891.4570, 18484.00
892.5860, 18500.94
893.7140, 18651.00
894.8430, 18701.00
895.9710, 18704.00
897.1000, 18938.00
898.2280, 18944.00
899.3560, 18995.00
900.4830, 19181.00
901.6110, 19089.00
902.7380, 18968.00
903.8660, 19187.00
904.9930, 19360.00
906.1200, 19130.00
907.2460, 19274.00
908.3730, 19416.00
909.5000, 19450.00
910.6260, 19359.00
911.7520, 19280.00
912.8780, 19255.00
914.0040, 19268.00
915.1290, 19300.00
916.2550, 19090.00
917.3800, 19273.00
918.5050, 19069.00
919.6300, 19316.00
920.7550, 19280.00
921.8800, 19212.00
923.0040, 19373.00
924.1290, 19123.00
925.2530, 19065.00
926.3770, 19234.00
927.5010, 19180.00
928.6250, 19209.00
929.7480, 19274.00
930.8720, 19094.00
931.9950, 19265.00
933.1180, 19086.00
934.2410, 19215.00
935.3640, 19137.00
936.4860, 19347.00
937.6090, 19237.00
938.7310, 19349.00
939.8530, 19175.00
940.9750, 19195.00
942.0970, 19102.00
943.2180, 19248.00
944.3400, 19342.00
945.4610, 19241.00
946.5820, 19297.00
947.7030, 19326.00
948.8240, 19393.00
949.9450, 19256.00
951.0650, 19430.00
952.1860, 19405.00
953.3060, 19556.00
954.4260, 19402.00
955.5460, 19371.00
956.6650, 19321.00
957.7850, 19403.00
958.9040, 19499.00
960.0230, 19601.00
961.1420, 19555.00
962.2610, 19712.00
963.3800, 19680.96
964.4990, 19577.00
965.6170, 19690.00
966.7350, 19796.00
967.8530, 19843.46
968.9710, 19663.00
970.0890, 19904.00
971.2070, 19800.00
972.3240, 19854.00
973.4410, 20078.00
974.5580, 20025.00
975.6750, 20075.00
976.7920, 20160.00
977.9090, 20205.00
979.0250, 20238.00
980.1410, 20334.00
981.2580, 20386.67
982.3740, 20484.00
983.4890, 20547.00
984.6050, 20687.00
985.7200, 20797.00
986.8360, 20991.29
987.9510, 21281.00
989.0660, 21412.00
990.1810, 21778.00
991.2950, 21978.00
992.4100, 22280.00
993.5240, 22742.00
994.6390, 23048.00
995.7530, 23410.00
996.8660, 23605.00
997.9800, 23851.00
999.0940, 23914.96
1000.207, 23945.21
1001.320, 23847.00
1002.433, 23809.00
1003.546, 23580.00
1004.659, 23408.00
1005.772, 23280.00
1006.884, 23020.00
1007.996, 22881.00
1009.108, 22739.00
1010.220, 22414.00
1011.332, 22323.00
1012.444, 22353.00
1013.555, 22106.00
1014.666, 21939.00
1015.777, 21772.00
1016.888, 21804.00
1017.999, 21679.00
1019.110, 21635.00
1020.220, 21566.00
1021.331, 21464.00
1022.441, 21346.00
1023.551, 21382.00
1024.661, 21254.00
1025.770, 21385.00
1026.880, 21519.00
1027.989, 21378.00
1029.098, 21366.00
1030.207, 21251.00
1031.316, 21342.00
1032.425, 21184.00
1033.533, 21255.00
1034.642, 21276.00
1035.750, 21082.00
1036.858, 21399.00
1037.966, 21548.00
1039.073, 21450.00
1040.181, 21335.00
1041.288, 21689.00
1042.396, 21599.00
1043.503, 21580.00
1044.610, 21626.00
1045.716, 21826.00
1046.823, 21957.00
1047.929, 22094.00
1049.036, 22207.00
1050.142, 22321.00
1051.248, 22574.00
1052.353, 22800.00
1053.459, 22957.00
1054.564, 23305.00
1055.670, 23595.00
1056.775, 23860.00
1057.880, 24249.00
1058.985, 24468.00
1060.089, 25035.00
1061.194, 25378.00
1062.298, 25653.00
1063.402, 26002.00
1064.506, 26331.00
1065.610, 26706.00
1066.713, 26840.00
1067.817, 26913.00
1068.920, 27173.00
1070.023, 27195.00
1071.126, 27155.00
1072.229, 26950.00
1073.332, 26982.00
1074.435, 26799.00
1075.537, 26474.00
1076.639, 26322.00
1077.741, 26058.12
1078.843, 25784.00
1079.945, 25567.00
1081.046, 25289.00
1082.148, 25014.00
1083.249, 24796.00
1084.350, 24565.15
1085.451, 24349.00
1086.551, 24162.00
1087.652, 23992.00
1088.752, 23800.00
1089.853, 23665.00
1090.953, 23698.00
1092.053, 23508.00
1093.152, 23407.00
1094.252, 23193.00
1095.351, 23302.00
1096.451, 23180.00
1097.550, 23204.00
1098.649, 23341.00
1099.748, 23169.00
1100.846, 23054.00
1101.945, 23046.00
1103.043, 23116.00
1104.141, 23079.22
1105.239, 23084.00
1106.337, 23099.00
1107.434, 23183.00
1108.532, 23137.00
1109.629, 23115.00
1110.726, 23275.00
1111.823, 23140.00
1112.920, 23055.00
1114.017, 22954.00
1115.113, 23328.00
1116.210, 23118.00
1117.306, 23189.00
1118.402, 23374.00
1119.498, 23318.00
1120.593, 23354.00
1121.689, 23309.00
1122.784, 23142.00
1123.879, 23237.00
1124.974, 23317.00
1126.069, 23524.00
1127.164, 23452.00
1128.259, 23373.00
1129.353, 23522.00
1130.447, 23285.00
1131.541, 23485.00
1132.635, 23452.00
1133.729, 23548.00
1134.822, 23361.00
1135.916, 23587.00
1137.009, 23511.00
1138.102, 23548.00
1139.195, 23447.00
1140.288, 23625.00
1141.380, 23641.00
1142.473, 23912.00
1143.565, 23580.00
1144.657, 23698.00
1145.749, 23634.00
1146.841, 23819.00
1147.932, 23572.00
1149.024, 23380.00
1150.115, 23475.00
1151.206, 23271.56
1152.297, 23447.00
1153.388, 23238.00
1154.479, 23283.00
1155.569, 23549.00
1156.659, 23200.00
1157.750, 23220.00
1158.839, 23075.00
1159.929, 23298.00
1161.019, 23034.00
1162.108, 23108.00
1163.198, 23086.00
1164.287, 22989.00
1165.376, 23221.00
1166.465, 23128.00
1167.553, 23115.00
1168.642, 23322.00
1169.730, 23343.00
1170.818, 23449.00
1171.906, 23560.00
1172.994, 23403.00
1174.082, 23562.00
1175.170, 23679.00
1176.257, 23545.00
1177.344, 23381.00
1178.431, 23804.00
1179.518, 23553.00
1180.605, 23636.00
1181.691, 24046.00
1182.778, 23855.00
1183.864, 24150.00
1184.950, 23903.00
1186.036, 23720.00
1187.122, 24059.00
1188.207, 24074.00
1189.292, 24056.00
1190.378, 24021.00
1191.463, 24286.00
1192.548, 24200.00
1193.632, 24032.00
1194.717, 24277.00
1195.801, 24670.00
1196.886, 25388.00
1197.970, 25297.00
1199.054, 24339.00
1200.137, 24266.00
1201.221, 25008.00
1202.305, 24429.55
1203.388, 25083.00
1204.471, 24261.00
1205.554, 24499.00
1206.637, 24274.00
1207.719, 24304.00
1208.802, 24345.00
1209.884, 24506.00
1210.966, 24456.00
1212.048, 24512.00
1213.130, 24562.00
1214.212, 24680.00
1215.293, 24596.00
1216.374, 24575.00
1217.456, 24753.00
1218.536, 24835.00
1219.617, 24764.00
1220.698, 24829.00
1221.778, 24888.00
1222.859, 24984.00
1223.939, 24951.06
1225.019, 24936.00
1226.099, 24805.00
1227.178, 24820.00
1228.258, 24579.00
1229.337, 24709.00
1230.417, 24492.00
1231.496, 24618.00
1232.574, 24359.00
1233.653, 24485.00
1234.732, 24255.00
1235.810, 24200.00
1236.888, 24059.00
1237.966, 24076.00
1239.044, 23988.65
1240.122, 23994.00
1241.199, 23883.00
1242.277, 23959.00
1243.354, 23908.00
1244.431, 23828.63
1245.508, 23691.00
1246.585, 23674.00
1247.661, 23626.00
1248.738, 23579.00
1249.814, 23655.00
1250.890, 23605.00
1251.966, 23658.00
1253.042, 23389.00
1254.117, 23514.00
1255.193, 23460.00
1256.268, 23407.00
1257.343, 23625.00
1258.418, 23501.00
1259.493, 23314.00
1260.567, 23446.00
1261.642, 23458.00
1262.716, 23568.00
1263.790, 23570.99
1264.864, 23481.00
1265.938, 23523.00
1267.011, 23482.00
1268.085, 23360.00
1269.158, 23564.00
1270.231, 23440.00
1271.304, 23497.00
1272.377, 23529.00
1273.450, 23563.00
1274.522, 23527.00
1275.594, 23734.00
1276.666, 23692.00
1277.738, 23687.00
1278.810, 23472.00
1279.882, 23593.00
1280.953, 23603.00
1282.025, 23753.00
1283.096, 23631.00
1284.167, 23675.00
1285.238, 23717.00
1286.308, 23775.00
1287.379, 23678.00
1288.449, 23633.00
1289.519, 23775.00
1290.589, 23744.00
1291.659, 23793.00
1292.729, 23971.00
1293.798, 23789.00
1294.868, 23871.00
1295.937, 23658.00
1297.006, 23711.00
1298.075, 23829.00
1299.143, 23701.00
1300.212, 23791.00
1301.280, 23601.00
1302.348, 23888.00
1303.416, 23772.00
1304.484, 23844.00
1305.552, 23920.00
1306.620, 23892.62
1307.687, 24005.00
1308.754, 23902.00
1309.821, 23901.00
1310.888, 23820.00
1311.955, 23871.00
1313.021, 23945.00
1314.088, 23879.00
1315.154, 24148.00
1316.220, 23905.00
1317.286, 24431.45
1318.352, 24281.10
1319.417, 25070.00
1320.483, 24347.00
1321.548, 23871.00
1322.613, 24112.00
1323.678, 24261.00
1324.743, 24163.00
1325.807, 24101.00
1326.872, 24246.00
1327.936, 24190.00
1329.000, 24242.00
1330.064, 24240.77
1331.128, 24195.00
1332.191, 24249.00
1333.255, 24203.00
1334.318, 24314.00
1335.381, 24066.00
1336.444, 24239.00
1337.507, 24244.00
1338.569, 24392.00
1339.632, 24294.00
1340.694, 24352.00
1341.756, 24402.00
1342.818, 24224.00
1343.880, 24411.00
1344.941, 24351.00
1346.003, 24369.00
1347.064, 24448.00
1348.125, 24388.00
1349.186, 24291.00
1350.247, 24469.00
1351.308, 24444.00
1352.368, 24620.00
1353.428, 24547.00
1354.489, 24497.00
1355.549, 24453.00
1356.608, 24611.00
1357.668, 24594.00
1358.727, 24721.00
1359.787, 24683.00
1360.846, 24546.00
1361.905, 24620.00
1362.964, 24532.89
1364.022, 24609.00
1365.081, 24476.00
1366.139, 24575.00
1367.197, 24589.00
1368.255, 24736.00
1369.313, 24601.00
1370.371, 24788.00
1371.428, 24692.00
1372.486, 24867.00
1373.543, 24815.00
1374.600, 24844.00
1375.657, 24723.00
1376.713, 24791.00
1377.770, 24873.00
1378.826, 24762.00
1379.882, 24737.00
1380.938, 24782.00
1381.994, 24860.00
1383.050, 25017.00
1384.106, 25373.00
1385.161, 25237.00
1386.216, 25296.00
1387.271, 25064.00
1388.326, 24882.00
1389.381, 24833.00
1390.435, 24959.00
1391.490, 24886.00
1392.544, 24898.00
1393.598, 25052.00
1394.652, 24902.00
1395.705, 25170.00
1396.759, 24860.00
1397.812, 25026.00
1398.866, 24978.00
1399.919, 24971.00
1400.972, 24961.00
1402.024, 24950.00
1403.077, 25133.00
1404.129, 25108.00
1405.181, 24961.00
1406.233, 24949.00
1407.285, 25292.00
1408.337, 25050.00
1409.389, 25077.00
1410.440, 25206.00
1411.491, 24957.00
1412.542, 25092.00
1413.593, 25036.00
1414.644, 25201.00
1415.695, 25014.00
1416.745, 25202.00
1417.795, 25483.00
1418.845, 25380.00
1419.895, 25302.00
1420.945, 25306.00
1421.995, 25267.00
1423.044, 25182.00
1424.093, 25376.00
1425.142, 25206.00
1426.191, 25524.00
1427.240, 25382.00
1428.289, 25255.00
1429.337, 25429.00
1430.385, 25472.00
1431.433, 25274.00
1432.481, 25476.00
1433.529, 25610.00
1434.577, 25530.00
1435.624, 25505.00
1436.672, 25472.00
1437.719, 25610.00
1438.766, 25653.00
1439.812, 25672.00
1440.859, 25627.00
1441.905, 25731.00
1442.952, 25759.00
1443.998, 25782.00
1445.044, 25856.00
1446.090, 25872.00
1447.135, 25781.00
1448.181, 25884.00
1449.226, 25819.00
1450.271, 25957.00
1451.316, 25852.00
1452.361, 25951.00
1453.405, 25899.00
1454.450, 26163.00
1455.494, 26249.00
1456.538, 25802.00
1457.582, 25943.00
1458.626, 26260.00
1459.670, 25947.00
1460.713, 26005.00
1461.757, 25838.00
1462.800, 26369.00
1463.843, 26181.00
1464.886, 26315.00
1465.928, 26274.00
1466.971, 26204.00
1468.013, 26257.00
1469.055, 26148.00
1470.097, 26298.00
1471.139, 26274.00
1472.181, 26299.00
1473.222, 26044.00
1474.263, 26247.00
1475.305, 26505.00
1476.346, 26244.00
1477.386, 26236.00
1478.427, 26248.00
1479.468, 26214.00
1480.508, 26207.00
1481.548, 26086.00
1482.588, 26346.00
1483.628, 26482.00
1484.668, 26223.00
1485.707, 26305.00
1486.747, 26652.00
1487.786, 26323.00
1488.825, 26261.00
1489.864, 26610.00
1490.902, 26418.00
1491.941, 26560.00
1492.979, 26671.00
1494.017, 26504.00
1495.055, 26614.00
1496.093, 26719.00
1497.131, 26553.00
1498.168, 26469.00
1499.206, 26665.00
1500.243, 26621.00
1501.280, 26772.00
1502.317, 26809.00
1503.354, 26772.00
1504.390, 26527.00
1505.426, 26594.00
1506.463, 26609.00
1507.499, 26962.00
1508.535, 26698.00
1509.570, 26941.00
1510.606, 26805.00
1511.641, 26977.00
1512.676, 27066.00
1513.711, 26984.00
1514.746, 26685.00
1515.781, 26827.00
1516.816, 26731.00
1517.850, 27057.00
1518.884, 26999.00
1519.918, 27013.00
1520.952, 26953.00
1521.986, 26903.00
1523.019, 26905.41
1524.053, 26926.24
1525.086, 26962.42
1526.119, 27057.00
1527.152, 27105.00
1528.185, 27225.00
1529.217, 27329.00
1530.250, 27244.00
1531.282, 27308.00
1532.314, 27184.00
1533.346, 27034.00
1534.377, 27109.00
1535.409, 27066.99
1536.440, 27290.00
1537.472, 27169.00
1538.503, 27295.00
1539.534, 27373.00
1540.564, 27389.00
1541.595, 27433.00
1542.625, 27568.00
1543.656, 27276.00
1544.686, 27291.00
1545.716, 27204.00
1546.745, 27281.00
1547.775, 27388.00
1548.804, 27119.00
1549.834, 27558.00
1550.863, 27570.00
1551.892, 27512.00
1552.920, 27805.00
1553.949, 27592.00
1554.977, 27390.00
1556.006, 27854.00
1557.034, 27697.00
1558.062, 27503.00
1559.089, 27534.00
1560.117, 27638.00
1561.144, 27914.00
1562.172, 27707.00
1563.199, 27736.00
1564.226, 27498.00
1565.252, 27785.00
1566.279, 27749.00
1567.305, 27704.00
1568.332, 27644.00
1569.358, 27889.00
1570.384, 28155.00
##END=



