##NAMES=Beryl
##RRUFFID=R050347
##IDEAL CHEMISTRY=Be_3_Al_2_Si_6_O_18_
##LOCALITY=North Keystone, South Dakota, USA
##OWNER=RRUFF
##SOURCE=California Institute of Technology
##DESCRIPTION=Colorless fragment
##STATUS=The identification of this mineral has been confirmed by X-ray diffraction and chemical analysis
##URL=rruff.info/R050347
##MEASURED CHEMISTRY=(Be_0.96_Li_0.04_)_3_Al_2.00_(Si_0.99_Al_0.01_)_6_O_18_ Î‡0.17Na
##PIN_ID=L01036
##ORIENTATION=Laser parallel to a* (1 0 0). Fiducial mark perpendicular to laser is parallel to c [0 0 1]
120.5960, 9765.000
121.8270, 9795.000
123.0580, 9949.000
124.2880, 9994.000
125.5190, 9614.000
126.7490, 9816.000
127.9790, 9748.000
129.2090, 9851.000
130.4390, 9904.000
131.6680, 9845.000
132.8980, 9878.000
134.1270, 10081.00
135.3560, 9837.000
136.5850, 10047.00
137.8140, 10045.00
139.0430, 10291.00
140.2710, 10210.00
141.5000, 10250.00
142.7280, 9973.000
143.9560, 9914.000
145.1840, 9771.000
146.4120, 9811.000
147.6390, 9839.000
148.8670, 9805.000
150.0940, 9697.000
151.3210, 9810.000
152.5490, 9758.959
153.7750, 9766.000
155.0020, 9791.000
156.2290, 9689.000
157.4550, 9707.000
158.6810, 9611.000
159.9080, 9842.000
161.1340, 9692.000
162.3590, 9703.000
163.5850, 10046.00
164.8110, 10055.00
166.0360, 10230.00
167.2610, 10173.00
168.4860, 10048.00
169.7110, 10081.00
170.9360, 10168.00
172.1610, 10013.00
173.3850, 9961.000
174.6100, 9791.000
175.8340, 9844.000
177.0580, 9778.000
178.2820, 9982.000
179.5050, 9901.000
180.7290, 9997.000
181.9520, 10068.00
183.1760, 10013.00
184.3990, 10072.00
185.6220, 10017.00
186.8450, 10112.00
188.0670, 10121.00
189.2900, 10144.00
190.5120, 10102.00
191.7340, 10331.00
192.9560, 10305.00
194.1780, 10423.00
195.4000, 10379.00
196.6220, 10382.00
197.8430, 10370.00
199.0640, 10507.00
200.2860, 10651.00
201.5070, 10649.00
202.7270, 10927.00
203.9480, 10392.00
205.1690, 9875.000
206.3890, 9309.000
207.6090, 9205.000
208.8290, 9114.000
210.0490, 9105.000
211.2690, 9085.000
212.4890, 9073.115
213.7080, 9073.277
214.9280, 9101.000
216.1470, 9142.000
217.3660, 9171.000
218.5850, 9346.000
219.8030, 9262.000
221.0220, 9235.000
222.2400, 9209.000
223.4590, 9379.000
224.6770, 9307.000
225.8950, 9422.000
227.1120, 9486.000
228.3300, 9452.000
229.5480, 9498.000
230.7650, 9587.000
231.9820, 9545.000
233.1990, 9552.000
234.4160, 9651.000
235.6330, 9609.000
236.8490, 9694.000
238.0660, 9560.000
239.2820, 9680.000
240.4980, 9595.000
241.7140, 9668.000
242.9300, 9517.000
244.1460, 9546.000
245.3610, 9602.000
246.5770, 9643.000
247.7920, 9678.000
249.0070, 9691.043
250.2220, 9709.603
251.4370, 9687.000
252.6510, 9695.000
253.8660, 9675.000
255.0800, 9607.000
256.2940, 9520.000
257.5080, 9779.000
258.7220, 10029.00
259.9360, 9857.427
261.1490, 10196.00
262.3630, 9719.000
263.5760, 9725.000
264.7890, 9858.000
266.0020, 9806.000
267.2150, 9801.000
268.4270, 9739.000
269.6400, 9789.000
270.8520, 9768.000
272.0640, 9839.000
273.2760, 9968.000
274.4880, 9937.000
275.7000, 9962.000
276.9120, 10004.93
278.1230, 10015.00
279.3340, 10082.00
280.5450, 10134.00
281.7560, 10256.00
282.9670, 10339.00
284.1780, 10451.56
285.3880, 10628.00
286.5980, 10714.00
287.8090, 10963.00
289.0190, 11152.00
290.2290, 11301.00
291.4380, 11380.00
292.6480, 11395.00
293.8570, 11219.00
295.0670, 10924.00
296.2760, 10760.00
297.4850, 10698.00
298.6930, 10578.51
299.9020, 10527.00
301.1110, 10576.00
302.3190, 10599.00
303.5270, 10736.00
304.7350, 10736.00
305.9430, 10717.00
307.1510, 10910.00
308.3580, 10912.00
309.5660, 11177.00
310.7730, 11292.00
311.9800, 11565.00
313.1870, 11911.00
314.3940, 12249.00
315.6010, 12580.00
316.8070, 12801.00
318.0130, 13272.00
319.2200, 13799.00
320.4260, 14081.00
321.6310, 14357.00
322.8370, 14231.00
324.0430, 13693.00
325.2480, 12884.00
326.4540, 12291.00
327.6590, 11618.00
328.8640, 11282.00
330.0680, 10824.00
331.2730, 10480.00
332.4780, 10531.00
333.6820, 10257.00
334.8860, 10156.00
336.0900, 10251.00
337.2940, 10085.00
338.4980, 10153.00
339.7010, 10338.00
340.9050, 10265.00
342.1080, 10290.00
343.3110, 10232.00
344.5140, 10220.00
345.7170, 10285.00
346.9200, 10323.00
348.1220, 10309.52
349.3240, 10291.00
350.5270, 10310.00
351.7290, 10357.00
352.9310, 10396.00
354.1320, 10405.00
355.3340, 10407.08
356.5350, 10422.00
357.7370, 10408.00
358.9380, 10350.00
360.1390, 10419.00
361.3400, 10462.00
362.5400, 10454.00
363.7410, 10592.00
364.9410, 10533.00
366.1410, 10557.00
367.3410, 10488.00
368.5410, 10526.08
369.7410, 10618.00
370.9400, 10626.00
372.1400, 10623.00
373.3390, 10742.00
374.5380, 10826.00
375.7370, 10893.00
376.9360, 11091.00
378.1350, 11099.00
379.3330, 11263.00
380.5310, 11455.00
381.7300, 11795.00
382.9280, 12172.00
384.1260, 12579.00
385.3230, 13016.00
386.5210, 13819.00
387.7180, 15043.00
388.9160, 15859.00
390.1130, 17409.00
391.3100, 18972.00
392.5060, 21124.00
393.7030, 22929.00
394.9000, 24750.00
396.0960, 26305.00
397.2920, 26661.00
398.4880, 25881.00
399.6840, 24293.00
400.8800, 22413.00
402.0750, 20230.00
403.2710, 18163.00
404.4660, 16744.00
405.6610, 15429.00
406.8560, 14532.00
408.0510, 13960.00
409.2450, 13436.60
410.4400, 13147.06
411.6340, 13109.00
412.8280, 13012.00
414.0220, 13084.00
415.2160, 13290.00
416.4100, 13267.00
417.6030, 13582.00
418.7970, 13872.00
419.9900, 13858.00
421.1830, 13920.00
422.3760, 13796.87
423.5690, 13710.00
424.7610, 13296.00
425.9540, 12896.00
427.1460, 12457.00
428.3380, 12287.00
429.5300, 11986.00
430.7220, 11931.00
431.9140, 11824.00
433.1050, 11914.00
434.2970, 11865.00
435.4880, 11869.00
436.6790, 11927.00
437.8700, 11970.00
439.0610, 12159.00
440.2510, 12063.00
441.4420, 12086.00
442.6320, 12126.00
443.8220, 11963.00
445.0120, 11903.00
446.2020, 11863.00
447.3910, 11750.00
448.5810, 11720.00
449.7700, 11670.00
450.9600, 11553.00
452.1490, 11484.00
453.3370, 11503.00
454.5260, 11349.00
455.7150, 11288.00
456.9030, 11334.00
458.0910, 11268.00
459.2800, 11231.00
460.4670, 11225.00
461.6550, 11229.00
462.8430, 11249.00
464.0300, 11249.00
465.2180, 11234.00
466.4050, 11230.94
467.5920, 11236.98
468.7790, 11205.00
469.9650, 11242.00
471.1520, 11245.00
472.3380, 11223.00
473.5250, 11274.00
474.7110, 11303.00
475.8970, 11323.27
477.0820, 11315.00
478.2680, 11368.00
479.4540, 11298.00
480.6390, 11268.00
481.8240, 11168.00
483.0090, 11428.00
484.1940, 11327.00
485.3780, 11367.00
486.5630, 11195.00
487.7470, 11378.00
488.9320, 11443.00
490.1160, 11322.00
491.3000, 11388.00
492.4830, 11346.00
493.6670, 11283.00
494.8500, 11348.00
496.0340, 11372.00
497.2170, 11331.00
498.4000, 11448.00
499.5820, 11402.00
500.7650, 11396.00
501.9480, 11276.00
503.1300, 11369.00
504.3120, 11290.00
505.4940, 11432.00
506.6760, 11206.00
507.8580, 11496.00
509.0390, 11418.00
510.2210, 11444.00
511.4020, 11296.00
512.5830, 11502.00
513.7640, 11270.00
514.9450, 11354.00
516.1250, 11456.00
517.3060, 11498.00
518.4860, 11553.50
519.6660, 11514.00
520.8460, 11613.00
522.0260, 11670.00
523.2060, 11686.00
524.3850, 11779.00
525.5650, 11816.00
526.7440, 11874.00
527.9230, 11800.00
529.1020, 11794.00
530.2810, 11822.00
531.4590, 11869.00
532.6380, 11850.00
533.8160, 11892.00
534.9940, 11752.00
536.1720, 11873.00
537.3500, 11682.00
538.5270, 11655.00
539.7050, 11806.00
540.8820, 11793.00
542.0590, 11835.00
543.2360, 11698.00
544.4130, 11734.00
545.5900, 11906.00
546.7660, 11836.00
547.9430, 11967.00
549.1190, 11867.00
550.2950, 12052.00
551.4710, 12025.00
552.6470, 12038.00
553.8220, 12073.00
554.9980, 12086.00
556.1730, 12255.00
557.3480, 12386.00
558.5230, 13564.00
559.6980, 13017.61
560.8730, 13721.00
562.0470, 12619.00
563.2220, 12560.00
564.3960, 12626.00
565.5700, 12650.00
566.7440, 12546.00
567.9170, 12777.00
569.0910, 12837.00
570.2640, 12781.00
571.4380, 12996.00
572.6110, 13114.00
573.7840, 13136.00
574.9570, 13280.00
576.1290, 13334.00
577.3020, 13330.00
578.4740, 13376.42
579.6460, 13457.00
580.8180, 13326.00
581.9900, 13276.00
583.1620, 13164.79
584.3330, 12848.00
585.5040, 12907.00
586.6760, 12734.00
587.8470, 12506.00
589.0180, 12584.00
590.1880, 12451.00
591.3590, 12358.00
592.5290, 12344.00
593.7000, 12304.00
594.8700, 12286.00
596.0400, 12379.00
597.2090, 12266.00
598.3790, 12202.00
599.5490, 12361.00
600.7180, 12139.00
601.8870, 12098.00
603.0560, 12191.00
604.2250, 12265.00
605.3940, 12182.00
606.5620, 12238.00
607.7300, 12023.00
608.8990, 12267.00
610.0670, 12206.00
611.2350, 12395.00
612.4020, 12322.00
613.5700, 12400.00
614.7370, 12346.00
615.9050, 12522.00
617.0720, 12472.00
618.2390, 12612.00
619.4060, 12582.00
620.5720, 12663.00
621.7390, 12625.00
622.9050, 12633.00
624.0710, 12604.00
625.2370, 12548.00
626.4030, 12553.39
627.5690, 12475.00
628.7340, 12554.00
629.9000, 12571.00
631.0650, 12629.00
632.2300, 12529.00
633.3950, 12581.00
634.5600, 12482.00
635.7240, 12612.00
636.8890, 12624.00
638.0530, 12658.00
639.2170, 12538.00
640.3810, 12749.00
641.5450, 12660.00
642.7080, 12620.00
643.8720, 12710.00
645.0350, 12781.00
646.1980, 12689.00
647.3610, 12852.00
648.5240, 12748.00
649.6870, 12879.00
650.8490, 12798.00
652.0120, 12798.00
653.1740, 12809.00
654.3360, 12858.48
655.4980, 13014.00
656.6600, 13055.00
657.8210, 13127.00
658.9830, 13273.00
660.1440, 13291.00
661.3050, 13374.00
662.4660, 13511.00
663.6270, 13643.00
664.7870, 13770.00
665.9480, 14015.00
667.1080, 14473.00
668.2680, 14538.00
669.4280, 15136.00
670.5880, 15527.00
671.7480, 16231.00
672.9070, 17054.00
674.0670, 18127.00
675.2260, 19853.00
676.3850, 21642.00
677.5440, 24412.00
678.7030, 27953.00
679.8610, 32138.00
681.0200, 37409.00
682.1780, 43072.00
683.3360, 48702.00
684.4940, 53040.00
685.6520, 53083.00
686.8090, 50280.00
687.9670, 44545.00
689.1240, 38703.00
690.2810, 32993.00
691.4380, 28472.00
692.5950, 25070.00
693.7520, 22642.00
694.9080, 20866.00
696.0650, 19547.00
697.2210, 18341.00
698.3770, 17789.00
699.5330, 17200.00
700.6880, 16648.00
701.8440, 16206.00
702.9990, 15813.44
704.1550, 15574.00
705.3100, 15232.00
706.4650, 15104.00
707.6190, 14952.00
708.7740, 14763.00
709.9290, 14668.00
711.0830, 14640.00
712.2370, 14387.00
713.3910, 14322.00
714.5450, 14156.00
715.6980, 14141.00
716.8520, 14257.00
718.0050, 14099.00
719.1580, 14109.00
720.3110, 13985.00
721.4640, 14052.00
722.6170, 14004.00
723.7700, 13878.00
724.9220, 13954.00
726.0740, 13668.00
727.2260, 13794.00
728.3780, 13825.00
729.5300, 13944.00
730.6810, 13851.00
731.8330, 13748.00
732.9840, 13826.00
734.1350, 13833.00
735.2860, 13844.00
736.4370, 13775.00
737.5880, 13810.00
738.7380, 13942.00
739.8880, 13818.00
741.0390, 13977.00
742.1890, 14035.00
743.3380, 13810.00
744.4880, 13859.00
745.6380, 13854.00
746.7870, 13824.00
747.9360, 13834.00
749.0850, 13768.00
750.2340, 13809.00
751.3830, 13786.00
752.5310, 13923.00
753.6800, 14062.00
754.8280, 14263.00
755.9760, 14097.00
757.1240, 14130.00
758.2720, 14197.00
759.4190, 14212.00
760.5670, 14220.00
761.7140, 14419.00
762.8610, 14448.00
764.0080, 14534.00
765.1550, 14446.00
766.3020, 14647.00
767.4480, 14713.00
768.5950, 14529.00
769.7410, 14594.00
770.8870, 14451.00
772.0330, 14235.00
773.1780, 14396.00
774.3240, 14294.00
775.4690, 14193.00
776.6140, 14051.00
777.7590, 14066.00
778.9040, 13995.06
780.0490, 14034.00
781.1940, 13978.00
782.3380, 14056.00
783.4820, 14094.00
784.6260, 14024.00
785.7700, 13982.00
786.9140, 13930.00
788.0580, 13953.00
789.2010, 13965.00
790.3450, 14052.00
791.4880, 14011.00
792.6310, 13957.00
793.7730, 13902.00
794.9160, 13896.19
796.0590, 13859.00
797.2010, 13912.00
798.3430, 13959.00
799.4850, 14024.00
800.6270, 14012.00
801.7690, 14022.00
802.9100, 14029.94
804.0520, 14087.00
805.1930, 13997.00
806.3340, 13940.00
807.4750, 13879.00
808.6160, 13913.00
809.7560, 13955.00
810.8970, 14082.00
812.0370, 13804.00
813.1770, 14041.00
814.3170, 14096.00
815.4570, 14268.00
816.5960, 14099.00
817.7360, 14176.00
818.8750, 14033.00
820.0140, 13963.00
821.1530, 14085.00
822.2920, 14018.00
823.4310, 14053.00
824.5690, 14112.00
825.7070, 14049.00
826.8460, 14191.00
827.9840, 14110.00
829.1220, 14052.00
830.2590, 14263.00
831.3970, 14270.00
832.5340, 14196.00
833.6710, 14297.00
834.8080, 14185.00
835.9450, 14228.00
837.0820, 14380.00
838.2190, 14280.00
839.3550, 14221.00
840.4910, 14236.00
841.6270, 14204.92
842.7630, 14326.00
843.8990, 14265.00
845.0350, 14269.00
846.1700, 14369.00
847.3060, 14322.00
848.4410, 14347.00
849.5760, 14445.00
850.7100, 14399.00
851.8450, 14377.00
852.9800, 14459.00
854.1140, 14364.00
855.2480, 14639.00
856.3820, 14507.00
857.5160, 14697.00
858.6500, 14452.00
859.7830, 14519.00
860.9170, 14515.00
862.0500, 14508.00
863.1830, 14572.00
864.3160, 14570.00
865.4480, 14638.00
866.5810, 14566.00
867.7130, 14574.00
868.8460, 14522.00
869.9780, 14635.00
871.1100, 14552.00
872.2410, 14645.00
873.3730, 14687.00
874.5050, 14762.00
875.6360, 14713.00
876.7670, 14735.00
877.8980, 14704.00
879.0290, 14721.67
880.1590, 14742.65
881.2900, 14785.00
882.4200, 14800.00
883.5500, 14876.00
884.6800, 14912.00
885.8100, 14690.00
886.9400, 14858.00
888.0690, 15097.00
889.1990, 14879.00
890.3280, 14836.00
891.4570, 15010.00
892.5860, 14977.00
893.7140, 15274.00
894.8430, 15165.53
895.9710, 15075.00
897.1000, 15143.00
898.2280, 14978.00
899.3560, 15188.00
900.4830, 15147.00
901.6110, 15276.00
902.7380, 15165.00
903.8660, 15286.00
904.9930, 15500.00
906.1200, 15256.00
907.2460, 15333.00
908.3730, 15560.00
909.5000, 15401.00
910.6260, 15388.00
911.7520, 15556.00
912.8780, 15513.00
914.0040, 15618.00
915.1290, 15561.00
916.2550, 15543.00
917.3800, 15419.00
918.5050, 15565.00
919.6300, 15356.00
920.7550, 15368.00
921.8800, 15473.00
923.0040, 15311.00
924.1290, 15323.00
925.2530, 15416.00
926.3770, 15368.00
927.5010, 15371.00
928.6250, 15440.00
929.7480, 15377.00
930.8720, 15402.00
931.9950, 15321.00
933.1180, 15353.00
934.2410, 15466.00
935.3640, 15477.00
936.4860, 15504.04
937.6090, 15586.00
938.7310, 15475.00
939.8530, 15503.00
940.9750, 15405.00
942.0970, 15255.00
943.2180, 15465.00
944.3400, 15526.00
945.4610, 15548.00
946.5820, 15440.00
947.7030, 15459.00
948.8240, 15542.00
949.9450, 15517.00
951.0650, 15683.00
952.1860, 15409.00
953.3060, 15719.00
954.4260, 15577.00
955.5460, 15550.00
956.6650, 15652.00
957.7850, 15645.00
958.9040, 15625.00
960.0230, 15553.00
961.1420, 15612.68
962.2610, 15600.00
963.3800, 15661.00
964.4990, 15674.00
965.6170, 15601.00
966.7350, 15781.00
967.8530, 15829.00
968.9710, 15948.00
970.0890, 15834.00
971.2070, 15915.00
972.3240, 15879.00
973.4410, 15866.55
974.5580, 15943.00
975.6750, 15869.00
976.7920, 16027.00
977.9090, 16058.00
979.0250, 16081.00
980.1410, 16011.00
981.2580, 16225.00
982.3740, 16252.00
983.4890, 16172.00
984.6050, 16458.00
985.7200, 16317.00
986.8360, 16669.00
987.9510, 16651.00
989.0660, 16771.00
990.1810, 16933.00
991.2950, 16957.00
992.4100, 17123.51
993.5240, 17239.00
994.6390, 17378.00
995.7530, 17646.00
996.8660, 17773.00
997.9800, 17934.00
999.0940, 18122.00
1000.207, 18552.00
1001.320, 18600.00
1002.433, 18697.00
1003.546, 18734.00
1004.659, 18738.00
1005.772, 18880.00
1006.884, 18829.00
1007.996, 19112.00
1009.108, 19121.00
1010.220, 19176.00
1011.332, 19182.00
1012.444, 18942.00
1013.555, 18758.00
1014.666, 18605.00
1015.777, 18354.00
1016.888, 18233.00
1017.999, 17866.00
1019.110, 17689.00
1020.220, 17593.00
1021.331, 17332.00
1022.441, 17407.00
1023.551, 17232.00
1024.661, 17135.00
1025.770, 17210.00
1026.880, 17109.00
1027.989, 17072.00
1029.098, 16946.00
1030.207, 17024.00
1031.316, 16949.00
1032.425, 16927.00
1033.533, 16896.00
1034.642, 16916.00
1035.750, 16904.77
1036.858, 16799.00
1037.966, 16912.00
1039.073, 16973.00
1040.181, 16966.00
1041.288, 16868.00
1042.396, 17010.00
1043.503, 16993.00
1044.610, 17107.00
1045.716, 17121.00
1046.823, 17247.00
1047.929, 17243.00
1049.036, 17373.36
1050.142, 17559.00
1051.248, 17622.00
1052.353, 17775.00
1053.459, 17920.00
1054.564, 18202.00
1055.670, 18425.00
1056.775, 18751.00
1057.880, 19048.00
1058.985, 19370.00
1060.089, 19873.00
1061.194, 20458.00
1062.298, 20671.00
1063.402, 21130.00
1064.506, 21763.00
1065.610, 21816.00
1066.713, 22119.00
1067.817, 22429.00
1068.920, 22342.00
1070.023, 22022.00
1071.126, 22103.00
1072.229, 21805.00
1073.332, 21324.00
1074.435, 21237.00
1075.537, 20808.00
1076.639, 20501.00
1077.741, 20353.00
1078.843, 19961.00
1079.945, 19613.00
1081.046, 19621.00
1082.148, 19342.00
1083.249, 19113.00
1084.350, 19096.00
1085.451, 18749.00
1086.551, 18644.00
1087.652, 18567.00
1088.752, 18317.00
1089.853, 18303.00
1090.953, 18177.00
1092.053, 17980.00
1093.152, 18071.00
1094.252, 17901.00
1095.351, 17803.00
1096.451, 17826.00
1097.550, 17784.00
1098.649, 17832.00
1099.748, 17854.00
1100.846, 17708.00
1101.945, 17659.00
1103.043, 17647.00
1104.141, 17695.00
1105.239, 17680.00
1106.337, 17569.00
1107.434, 17700.00
1108.532, 17577.00
1109.629, 17715.00
1110.726, 17625.00
1111.823, 17639.00
1112.920, 17559.00
1114.017, 17461.00
1115.113, 17570.00
1116.210, 17584.00
1117.306, 17515.00
1118.402, 17567.00
1119.498, 17584.00
1120.593, 17655.00
1121.689, 17771.00
1122.784, 17842.00
1123.879, 17855.17
1124.974, 17719.00
1126.069, 17824.00
1127.164, 17668.00
1128.259, 17579.00
1129.353, 17741.00
1130.447, 17891.00
1131.541, 17799.00
1132.635, 17776.00
1133.729, 17768.00
1134.822, 17774.62
1135.916, 17819.22
1137.009, 17851.00
1138.102, 17931.11
1139.195, 17969.59
1140.288, 17999.00
1141.380, 17989.00
1142.473, 17958.00
1143.565, 18067.00
1144.657, 18100.00
1145.749, 18079.00
1146.841, 18025.00
1147.932, 17973.00
1149.024, 18008.00
1150.115, 17926.00
1151.206, 17994.00
1152.297, 17803.00
1153.388, 17871.00
1154.479, 17736.00
1155.569, 17787.00
1156.659, 17735.00
1157.750, 17633.00
1158.839, 17729.00
1159.929, 17643.00
1161.019, 17703.00
1162.108, 17670.00
1163.198, 17637.24
1164.287, 17663.80
1165.376, 17564.00
1166.465, 17687.00
1167.553, 17636.00
1168.642, 17679.00
1169.730, 17592.00
1170.818, 17644.00
1171.906, 17510.00
1172.994, 17681.00
1174.082, 17717.00
1175.170, 17689.00
1176.257, 17798.00
1177.344, 17638.00
1178.431, 17905.00
1179.518, 17656.00
1180.605, 17782.00
1181.691, 17875.00
1182.778, 18021.00
1183.864, 17998.00
1184.950, 17919.00
1186.036, 17977.00
1187.122, 18073.00
1188.207, 18115.00
1189.292, 18096.00
1190.378, 18013.00
1191.463, 18094.00
1192.548, 17940.00
1193.632, 17963.00
1194.717, 18014.00
1195.801, 18131.00
1196.886, 18093.00
1197.970, 18079.00
1199.054, 18166.00
1200.137, 17869.00
1201.221, 18038.00
1202.305, 17934.00
1203.388, 18110.00
1204.471, 18143.00
1205.554, 18182.00
1206.637, 18100.00
1207.719, 18196.00
1208.802, 18238.00
1209.884, 18095.00
1210.966, 18095.00
1212.048, 18146.00
1213.130, 18082.00
1214.212, 18196.00
1215.293, 18109.00
1216.374, 18280.00
1217.456, 18206.00
1218.536, 18255.00
1219.617, 18500.00
1220.698, 18393.00
1221.778, 18463.00
1222.859, 18589.00
1223.939, 18575.00
1225.019, 18664.00
1226.099, 18696.00
1227.178, 18786.00
1228.258, 18888.43
1229.337, 18969.00
1230.417, 19078.00
1231.496, 19200.00
1232.574, 19214.00
1233.653, 19514.00
1234.732, 19303.00
1235.810, 19664.00
1236.888, 19543.00
1237.966, 19527.00
1239.044, 19697.00
1240.122, 19478.00
1241.199, 19355.00
1242.277, 19034.00
1243.354, 19024.00
1244.431, 19058.00
1245.508, 18869.00
1246.585, 18853.00
1247.661, 18745.00
1248.738, 18774.00
1249.814, 18655.00
1250.890, 18663.00
1251.966, 18472.00
1253.042, 18471.00
1254.117, 18255.00
1255.193, 18352.00
1256.268, 18138.00
1257.343, 18391.00
1258.418, 18211.00
1259.493, 18272.00
1260.567, 18309.00
1261.642, 18333.00
1262.716, 18391.00
1263.790, 18400.00
1264.864, 18433.00
1265.938, 18275.00
1267.011, 18470.00
1268.085, 18315.00
1269.158, 18290.00
1270.231, 18375.00
1271.304, 18412.00
1272.377, 18280.00
1273.450, 18400.00
1274.522, 18478.00
1275.594, 18580.00
1276.666, 18473.00
1277.738, 18354.00
1278.810, 18410.00
1279.882, 18386.00
1280.953, 18383.00
1282.025, 18612.00
1283.096, 18413.00
1284.167, 18504.00
1285.238, 18401.00
1286.308, 18687.00
1287.379, 18473.00
1288.449, 18617.00
1289.519, 18455.00
1290.589, 18517.00
1291.659, 18605.00
1292.729, 18560.00
1293.798, 18597.00
1294.868, 18666.00
1295.937, 18541.00
1297.006, 18580.00
1298.075, 18522.00
1299.143, 18594.00
1300.212, 18623.00
1301.280, 18580.00
1302.348, 18722.00
1303.416, 18912.00
1304.484, 18637.00
1305.552, 18539.00
1306.620, 18723.00
1307.687, 18549.00
1308.754, 18724.00
1309.821, 18625.00
1310.888, 18648.00
1311.955, 18574.00
1313.021, 18703.00
1314.088, 18833.00
1315.154, 18649.00
1316.220, 18629.00
1317.286, 18671.00
1318.352, 18771.00
1319.417, 18686.00
1320.483, 18666.00
1321.548, 18692.00
1322.613, 18686.00
1323.678, 18694.00
1324.743, 18790.00
1325.807, 18832.00
1326.872, 18723.00
1327.936, 18845.00
1329.000, 18967.00
1330.064, 18692.00
1331.128, 18788.00
1332.191, 18858.00
1333.255, 18915.00
1334.318, 18858.00
1335.381, 18887.00
1336.444, 18767.00
1337.507, 18841.00
1338.569, 18802.00
1339.632, 19017.00
1340.694, 19049.00
1341.756, 19012.00
1342.818, 19000.00
1343.880, 18760.00
1344.941, 19056.00
1346.003, 18823.00
1347.064, 18790.00
1348.125, 18914.00
1349.186, 19009.00
1350.247, 18901.00
1351.308, 19219.00
1352.368, 19029.00
1353.428, 19129.00
1354.489, 19272.00
1355.549, 19146.00
1356.608, 19029.00
1357.668, 19043.00
1358.727, 19099.00
1359.787, 19137.00
1360.846, 19146.88
1361.905, 19192.00
1362.964, 19182.00
1364.022, 19217.00
1365.081, 19263.00
1366.139, 19159.00
1367.197, 19316.00
1368.255, 19270.00
1369.313, 19047.00
1370.371, 19187.00
1371.428, 19346.00
1372.486, 19116.00
1373.543, 19275.00
1374.600, 19246.00
1375.657, 19207.00
1376.713, 19346.00
1377.770, 19270.00
1378.826, 19298.00
1379.882, 19175.00
1380.938, 19285.00
1381.994, 19387.00
1383.050, 19405.00
1384.106, 19503.00
1385.161, 19527.44
1386.216, 19524.98
1387.271, 19555.00
1388.326, 19490.00
1389.381, 19440.00
1390.435, 19412.01
1391.490, 19311.00
1392.544, 19405.00
1393.598, 19370.00
1394.652, 19394.00
1395.705, 19268.00
1396.759, 19365.00
1397.812, 19302.00
1398.866, 19254.00
1399.919, 19487.00
1400.972, 19310.00
1402.024, 19425.00
1403.077, 19508.00
1404.129, 19386.00
1405.181, 19438.00
1406.233, 19522.00
1407.285, 19308.00
1408.337, 19442.00
1409.389, 19385.00
1410.440, 19441.00
1411.491, 19436.00
1412.542, 19515.00
1413.593, 19426.00
1414.644, 19591.00
1415.695, 19385.00
1416.745, 19390.00
1417.795, 19467.00
1418.845, 19577.00
1419.895, 19556.00
1420.945, 19576.08
1421.995, 19427.00
1423.044, 19532.00
1424.093, 19506.00
1425.142, 19513.00
1426.191, 19598.00
1427.240, 19638.00
1428.289, 19698.00
1429.337, 19725.21
1430.385, 19644.00
1431.433, 19758.00
1432.481, 19782.00
1433.529, 19792.00
1434.577, 19547.00
1435.624, 19789.00
1436.672, 19833.00
1437.719, 19682.00
1438.766, 19940.00
1439.812, 19702.00
1440.859, 19957.00
1441.905, 19942.00
1442.952, 19882.00
1443.998, 19765.00
1445.044, 19932.00
1446.090, 19784.00
1447.135, 19928.00
1448.181, 19953.00
1449.226, 19981.00
1450.271, 19949.00
1451.316, 19880.00
1452.361, 19961.00
1453.405, 19818.00
1454.450, 20041.00
1455.494, 20131.00
1456.538, 19832.00
1457.582, 19955.39
1458.626, 19902.10
1459.670, 19826.00
1460.713, 20014.00
1461.757, 19953.00
1462.800, 20224.00
1463.843, 20033.00
1464.886, 19985.00
1465.928, 19982.00
1466.971, 19843.00
1468.013, 20102.00
1469.055, 20082.00
1470.097, 20004.00
1471.139, 20314.00
1472.181, 19974.00
1473.222, 20216.00
1474.263, 20002.00
1475.305, 20231.00
1476.346, 20312.00
1477.386, 20182.00
1478.427, 20208.00
1479.468, 20005.00
1480.508, 20322.00
1481.548, 20163.00
1482.588, 20360.00
1483.628, 20090.00
1484.668, 20384.00
1485.707, 20186.00
1486.747, 20333.00
1487.786, 20308.00
1488.825, 20485.00
1489.864, 20212.00
1490.902, 20328.00
1491.941, 20297.00
1492.979, 20259.00
1494.017, 20481.00
1495.055, 20428.00
1496.093, 20432.00
1497.131, 20691.00
1498.168, 20425.00
1499.206, 20556.00
1500.243, 20396.00
1501.280, 20586.00
1502.317, 20482.00
1503.354, 20601.00
1504.390, 20624.00
1505.426, 20527.00
1506.463, 20487.00
1507.499, 20505.54
1508.535, 20455.00
1509.570, 20579.00
1510.606, 20665.00
1511.641, 20804.00
1512.676, 20704.00
1513.711, 20659.00
1514.746, 20526.00
1515.781, 20661.00
1516.816, 20526.00
1517.850, 20718.00
1518.884, 20855.00
1519.918, 20707.66
1520.952, 21143.00
1521.986, 20563.00
1523.019, 20744.00
1524.053, 20821.00
1525.086, 20843.00
1526.119, 20821.00
1527.152, 20931.45
1528.185, 20882.96
1529.217, 20873.52
1530.250, 20864.00
1531.282, 20766.00
1532.314, 20784.00
1533.346, 20673.00
1534.377, 20757.00
1535.409, 20932.00
1536.440, 20914.00
1537.472, 21028.00
1538.503, 21009.00
1539.534, 21059.00
1540.564, 21076.66
1541.595, 21064.08
1542.625, 21068.00
1543.656, 21035.00
1544.686, 20994.00
1545.716, 20955.00
1546.745, 20960.31
1547.775, 20995.67
1548.804, 20989.00
1549.834, 21115.00
1550.863, 21161.00
1551.892, 21210.00
1552.920, 21078.00
1553.949, 21153.61
1554.977, 21175.93
1556.006, 21178.00
1557.034, 21230.00
1558.062, 21242.00
1559.089, 21131.00
1560.117, 21166.31
1561.144, 21087.00
1562.172, 21127.00
1563.199, 21138.00
1564.226, 21125.00
1565.252, 21241.00
1566.279, 21461.00
1567.305, 21337.00
1568.332, 21285.00
1569.358, 21264.00
1570.384, 21338.00
##END=



