##NAMES=Beryl
##RRUFFID=R050347
##IDEAL CHEMISTRY=Be_3_Al_2_Si_6_O_18_
##LOCALITY=North Keystone, South Dakota, USA
##OWNER=RRUFF
##SOURCE=California Institute of Technology
##DESCRIPTION=Colorless fragment
##STATUS=The identification of this mineral has been confirmed by X-ray diffraction and chemical analysis
##URL=rruff.info/R050347
##MEASURED CHEMISTRY=(Be_0.96_Li_0.04_)_3_Al_2.00_(Si_0.99_Al_0.01_)_6_O_18_ Î‡0.17Na
##PIN_ID=L01036
##ORIENTATION=Laser parallel to a* (1 0 0). Fiducial mark perpendicular to laser is parallel to c [0 0 1]
120.5960, 4939.000
121.8270, 5004.000
123.0580, 4933.000
124.2880, 4975.000
125.5190, 4878.000
126.7490, 4788.000
127.9790, 4908.000
129.2090, 4860.000
130.4390, 4917.000
131.6680, 4960.000
132.8980, 5030.000
134.1270, 5044.000
135.3560, 5049.000
136.5850, 4985.000
137.8140, 5038.000
139.0430, 5012.064
140.2710, 5091.000
141.5000, 5007.000
142.7280, 5011.000
143.9560, 5001.537
145.1840, 5022.000
146.4120, 5030.000
147.6390, 4970.000
148.8670, 4981.000
150.0940, 5024.000
151.3210, 4965.000
152.5490, 5047.000
153.7750, 4963.000
155.0020, 4961.000
156.2290, 4890.000
157.4550, 4888.000
158.6810, 4966.000
159.9080, 4819.000
161.1340, 5008.000
162.3590, 4948.000
163.5850, 4966.000
164.8110, 4938.000
166.0360, 5146.000
167.2610, 5019.000
168.4860, 5102.000
169.7110, 5079.000
170.9360, 5089.000
172.1610, 5035.000
173.3850, 5049.000
174.6100, 5134.000
175.8340, 5058.000
177.0580, 5216.000
178.2820, 5106.000
179.5050, 5200.000
180.7290, 5083.000
181.9520, 5124.000
183.1760, 5188.000
184.3990, 5224.000
185.6220, 5279.000
186.8450, 5314.000
188.0670, 5330.000
189.2900, 5201.000
190.5120, 5373.000
191.7340, 5287.000
192.9560, 5294.000
194.1780, 5328.000
195.4000, 5322.000
196.6220, 5348.000
197.8430, 5305.000
199.0640, 5345.000
200.2860, 5356.000
201.5070, 5485.000
202.7270, 5446.000
203.9480, 5339.000
205.1690, 5145.000
206.3890, 5114.000
207.6090, 4995.000
208.8290, 5048.000
210.0490, 5036.000
211.2690, 5184.000
212.4890, 5034.000
213.7080, 5049.000
214.9280, 5136.000
216.1470, 5093.000
217.3660, 5090.000
218.5850, 5166.000
219.8030, 5208.000
221.0220, 5254.000
222.2400, 5264.142
223.4590, 5268.000
224.6770, 5274.000
225.8950, 5285.251
227.1120, 5296.975
228.3300, 5310.000
229.5480, 5324.000
230.7650, 5343.000
231.9820, 5350.000
233.1990, 5352.000
234.4160, 5444.000
235.6330, 5383.000
236.8490, 5482.000
238.0660, 5469.000
239.2820, 5539.000
240.4980, 5545.000
241.7140, 5461.000
242.9300, 5511.000
244.1460, 5542.000
245.3610, 5537.000
246.5770, 5573.000
247.7920, 5596.000
249.0070, 5502.000
250.2220, 5621.000
251.4370, 5591.000
252.6510, 5527.000
253.8660, 5686.000
255.0800, 5563.000
256.2940, 5468.000
257.5080, 5495.000
258.7220, 5611.000
259.9360, 5710.000
261.1490, 5712.000
262.3630, 5578.000
263.5760, 5581.000
264.7890, 5515.000
266.0020, 5523.000
267.2150, 5616.000
268.4270, 5645.000
269.6400, 5664.000
270.8520, 5621.000
272.0640, 5605.000
273.2760, 5742.000
274.4880, 5622.000
275.7000, 5756.000
276.9120, 5781.000
278.1230, 5732.000
279.3340, 5769.000
280.5450, 5731.000
281.7560, 5873.000
282.9670, 5870.000
284.1780, 5934.000
285.3880, 5942.000
286.5980, 5955.000
287.8090, 6058.000
289.0190, 6007.000
290.2290, 6082.000
291.4380, 6118.000
292.6480, 6146.000
293.8570, 6201.000
295.0670, 6288.000
296.2760, 6359.000
297.4850, 6406.000
298.6930, 6459.000
299.9020, 6496.000
301.1110, 6664.000
302.3190, 6841.000
303.5270, 6791.000
304.7350, 6963.000
305.9430, 7176.000
307.1510, 7298.000
308.3580, 7605.000
309.5660, 7946.000
310.7730, 8360.000
311.9800, 9047.000
313.1870, 9811.000
314.3940, 10857.00
315.6010, 11944.00
316.8070, 13134.00
318.0130, 14402.00
319.2200, 15789.00
320.4260, 17075.00
321.6310, 18041.00
322.8370, 17785.00
324.0430, 16291.00
325.2480, 14390.00
326.4540, 12367.00
327.6590, 10470.00
328.8640, 9076.000
330.0680, 8216.000
331.2730, 7534.000
332.4780, 7057.000
333.6820, 6799.000
334.8860, 6440.000
336.0900, 6291.000
337.2940, 6145.000
338.4980, 5971.000
339.7010, 5955.226
340.9050, 6087.000
342.1080, 5976.000
343.3110, 5992.000
344.5140, 6086.000
345.7170, 6042.000
346.9200, 5979.000
348.1220, 6016.000
349.3240, 6008.000
350.5270, 5982.000
351.7290, 5991.000
352.9310, 6066.000
354.1320, 6067.000
355.3340, 6062.000
356.5350, 6108.492
357.7370, 6135.000
358.9380, 6172.000
360.1390, 6167.419
361.3400, 6224.000
362.5400, 6195.000
363.7410, 6197.000
364.9410, 6215.000
366.1410, 6238.945
367.3410, 6308.000
368.5410, 6353.000
369.7410, 6370.000
370.9400, 6485.000
372.1400, 6535.000
373.3390, 6615.000
374.5380, 6716.000
375.7370, 6682.000
376.9360, 6826.000
378.1350, 7030.000
379.3330, 7304.000
380.5310, 7391.000
381.7300, 7664.000
382.9280, 8023.000
384.1260, 8273.000
385.3230, 9100.000
386.5210, 9627.000
387.7180, 10333.00
388.9160, 11486.00
390.1130, 12404.00
391.3100, 13436.00
392.5060, 14511.00
393.7030, 15650.00
394.9000, 16340.00
396.0960, 16621.00
397.2920, 16224.00
398.4880, 15124.00
399.6840, 13709.00
400.8800, 12360.00
402.0750, 11114.00
403.2710, 10068.00
404.4660, 9178.000
405.6610, 8416.000
406.8560, 7980.000
408.0510, 7500.000
409.2450, 7185.000
410.4400, 6988.000
411.6340, 6926.000
412.8280, 6770.000
414.0220, 6668.000
415.2160, 6602.000
416.4100, 6524.000
417.6030, 6520.000
418.7970, 6382.000
419.9900, 6354.000
421.1830, 6442.000
422.3760, 6348.000
423.5690, 6366.000
424.7610, 6338.000
425.9540, 6426.000
427.1460, 6320.000
428.3380, 6324.000
429.5300, 6302.000
430.7220, 6397.000
431.9140, 6291.000
433.1050, 6302.000
434.2970, 6365.000
435.4880, 6517.000
436.6790, 6562.000
437.8700, 6485.000
439.0610, 6600.000
440.2510, 6489.000
441.4420, 6572.000
442.6320, 6603.000
443.8220, 6720.000
445.0120, 6699.000
446.2020, 6688.000
447.3910, 6689.000
448.5810, 6767.000
449.7700, 6701.000
450.9600, 6786.000
452.1490, 6766.000
453.3370, 6755.000
454.5260, 6672.000
455.7150, 6654.000
456.9030, 6625.000
458.0910, 6602.000
459.2800, 6585.000
460.4670, 6558.053
461.6550, 6542.000
462.8430, 6528.000
464.0300, 6494.000
465.2180, 6513.172
466.4050, 6499.000
467.5920, 6577.000
468.7790, 6637.000
469.9650, 6639.000
471.1520, 6564.000
472.3380, 6572.000
473.5250, 6523.000
474.7110, 6676.000
475.8970, 6558.000
477.0820, 6681.000
478.2680, 6655.000
479.4540, 6516.000
480.6390, 6670.000
481.8240, 6566.000
483.0090, 6556.000
484.1940, 6707.000
485.3780, 6612.000
486.5630, 6614.000
487.7470, 6631.000
488.9320, 6619.000
490.1160, 6593.000
491.3000, 6604.000
492.4830, 6671.000
493.6670, 6560.000
494.8500, 6702.000
496.0340, 6598.000
497.2170, 6681.000
498.4000, 6680.000
499.5820, 6556.000
500.7650, 6645.000
501.9480, 6647.000
503.1300, 6575.000
504.3120, 6670.000
505.4940, 6720.000
506.6760, 6513.000
507.8580, 6562.000
509.0390, 6655.000
510.2210, 6732.000
511.4020, 6638.000
512.5830, 6760.000
513.7640, 6710.000
514.9450, 6728.000
516.1250, 6643.000
517.3060, 6783.000
518.4860, 6834.000
519.6660, 6831.000
520.8460, 6898.000
522.0260, 6908.000
523.2060, 6940.000
524.3850, 6986.000
525.5650, 6972.528
526.7440, 6937.000
527.9230, 6940.000
529.1020, 6971.000
530.2810, 6917.000
531.4590, 6902.000
532.6380, 6914.271
533.8160, 6972.000
534.9940, 6948.000
536.1720, 6965.000
537.3500, 7026.000
538.5270, 6936.000
539.7050, 6929.000
540.8820, 6908.000
542.0590, 6932.000
543.2360, 6898.000
544.4130, 6831.000
545.5900, 6939.000
546.7660, 6694.000
547.9430, 6774.000
549.1190, 6811.000
550.2950, 6907.000
551.4710, 6900.000
552.6470, 6802.000
553.8220, 6840.000
554.9980, 6770.000
556.1730, 6819.000
557.3480, 6832.000
558.5230, 6866.000
559.6980, 6918.000
560.8730, 6829.000
562.0470, 6955.000
563.2220, 6881.000
564.3960, 6834.000
565.5700, 6949.000
566.7440, 6989.000
567.9170, 6984.000
569.0910, 7016.000
570.2640, 7039.000
571.4380, 7011.000
572.6110, 7009.000
573.7840, 6983.000
574.9570, 7133.000
576.1290, 7190.000
577.3020, 7093.000
578.4740, 7037.000
579.6460, 7047.000
580.8180, 7036.000
581.9900, 7044.000
583.1620, 7064.857
584.3330, 7048.000
585.5040, 7114.000
586.6760, 7150.000
587.8470, 7174.000
589.0180, 7094.000
590.1880, 7172.000
591.3590, 7100.000
592.5290, 7196.000
593.7000, 7225.000
594.8700, 7129.000
596.0400, 7182.000
597.2090, 7157.000
598.3790, 7098.000
599.5490, 7139.000
600.7180, 7212.000
601.8870, 7172.000
603.0560, 7269.000
604.2250, 7404.000
605.3940, 7341.000
606.5620, 7338.000
607.7300, 7281.000
608.8990, 7433.000
610.0670, 7418.000
611.2350, 7583.000
612.4020, 7537.000
613.5700, 7790.000
614.7370, 7975.000
615.9050, 8097.000
617.0720, 8345.000
618.2390, 8592.000
619.4060, 8688.000
620.5720, 8771.689
621.7390, 8912.000
622.9050, 8674.000
624.0710, 8470.000
625.2370, 8165.000
626.4030, 7980.000
627.5690, 8011.000
628.7340, 7737.000
629.9000, 7761.000
631.0650, 7745.000
632.2300, 7619.000
633.3950, 7658.000
634.5600, 7665.000
635.7240, 7720.000
636.8890, 7784.000
638.0530, 7742.000
639.2170, 7770.000
640.3810, 7838.000
641.5450, 7781.000
642.7080, 7907.000
643.8720, 7933.000
645.0350, 7960.000
646.1980, 7901.000
647.3610, 8027.000
648.5240, 7977.000
649.6870, 8126.000
650.8490, 8070.000
652.0120, 8251.000
653.1740, 8191.000
654.3360, 8307.000
655.4980, 8261.000
656.6600, 8397.000
657.8210, 8562.000
658.9830, 8521.000
660.1440, 8746.000
661.3050, 8940.000
662.4660, 9041.000
663.6270, 9276.000
664.7870, 9654.000
665.9480, 9836.000
667.1080, 10295.00
668.2680, 10749.00
669.4280, 11131.00
670.5880, 12099.00
671.7480, 13220.00
672.9070, 14419.00
674.0670, 16203.00
675.2260, 18433.00
676.3850, 21622.00
677.5440, 25479.00
678.7030, 30578.00
679.8610, 36110.00
681.0200, 41751.00
682.1780, 47701.00
683.3360, 52714.00
684.4940, 54734.00
685.6520, 52598.00
686.8090, 47244.00
687.9670, 39936.00
689.1240, 33211.00
690.2810, 27088.00
691.4380, 22812.00
692.5950, 19320.00
693.7520, 16902.00
694.9080, 14966.00
696.0650, 13471.00
697.2210, 12468.00
698.3770, 11759.00
699.5330, 11212.00
700.6880, 10709.00
701.8440, 10334.00
702.9990, 9876.000
704.1550, 9737.000
705.3100, 9473.000
706.4650, 9225.000
707.6190, 9244.000
708.7740, 8827.000
709.9290, 9000.000
711.0830, 8772.000
712.2370, 8623.000
713.3910, 8523.000
714.5450, 8457.000
715.6980, 8437.000
716.8520, 8277.000
718.0050, 8360.000
719.1580, 8321.000
720.3110, 8255.000
721.4640, 8345.000
722.6170, 8264.000
723.7700, 8164.000
724.9220, 8234.000
726.0740, 8167.523
727.2260, 8142.000
728.3780, 8129.000
729.5300, 8106.000
730.6810, 8027.000
731.8330, 8063.000
732.9840, 8064.000
734.1350, 8126.000
735.2860, 8042.000
736.4370, 8032.000
737.5880, 8011.000
738.7380, 8026.000
739.8880, 8078.000
741.0390, 8044.000
742.1890, 8053.000
743.3380, 7998.000
744.4880, 7957.000
745.6380, 8078.000
746.7870, 8064.000
747.9360, 8020.000
749.0850, 7998.000
750.2340, 8042.000
751.3830, 8053.000
752.5310, 7966.000
753.6800, 7994.000
754.8280, 7931.000
755.9760, 7953.000
757.1240, 7962.000
758.2720, 7960.459
759.4190, 8052.000
760.5670, 7992.000
761.7140, 8095.000
762.8610, 8104.000
764.0080, 8055.000
765.1550, 8245.000
766.3020, 8153.000
767.4480, 8125.000
768.5950, 8168.000
769.7410, 8147.000
770.8870, 8163.000
772.0330, 8120.000
773.1780, 8194.000
774.3240, 8184.000
775.4690, 8099.000
776.6140, 8167.000
777.7590, 8165.000
778.9040, 8096.000
780.0490, 8219.000
781.1940, 8220.000
782.3380, 8115.000
783.4820, 8194.000
784.6260, 8083.000
785.7700, 8190.000
786.9140, 8139.000
788.0580, 8268.000
789.2010, 8230.000
790.3450, 8185.000
791.4880, 8084.000
792.6310, 8248.000
793.7730, 8230.000
794.9160, 8337.000
796.0590, 8203.000
797.2010, 8346.000
798.3430, 8274.000
799.4850, 8296.000
800.6270, 8286.000
801.7690, 8242.000
802.9100, 8163.000
804.0520, 8193.000
805.1930, 8148.000
806.3340, 8304.000
807.4750, 8186.000
808.6160, 8368.000
809.7560, 8224.000
810.8970, 8310.000
812.0370, 8317.000
813.1770, 8138.000
814.3170, 8251.000
815.4570, 8359.000
816.5960, 8243.000
817.7360, 8251.000
818.8750, 8348.000
820.0140, 8287.000
821.1530, 8297.000
822.2920, 8282.000
823.4310, 8318.000
824.5690, 8356.000
825.7070, 8240.000
826.8460, 8382.000
827.9840, 8275.000
829.1220, 8361.000
830.2590, 8346.000
831.3970, 8362.000
832.5340, 8324.000
833.6710, 8383.000
834.8080, 8410.000
835.9450, 8389.000
837.0820, 8411.000
838.2190, 8461.000
839.3550, 8454.413
840.4910, 8431.000
841.6270, 8459.000
842.7630, 8473.000
843.8990, 8423.000
845.0350, 8391.000
846.1700, 8571.000
847.3060, 8399.000
848.4410, 8544.000
849.5760, 8483.000
850.7100, 8517.000
851.8450, 8515.000
852.9800, 8438.000
854.1140, 8485.000
855.2480, 8468.226
856.3820, 8440.000
857.5160, 8502.000
858.6500, 8550.000
859.7830, 8592.000
860.9170, 8613.000
862.0500, 8620.000
863.1830, 8558.000
864.3160, 8540.000
865.4480, 8566.000
866.5810, 8618.000
867.7130, 8624.000
868.8460, 8557.000
869.9780, 8493.000
871.1100, 8587.000
872.2410, 8589.000
873.3730, 8614.000
874.5050, 8576.000
875.6360, 8739.000
876.7670, 8604.000
877.8980, 8656.000
879.0290, 8656.000
880.1590, 8594.000
881.2900, 8645.000
882.4200, 8727.000
883.5500, 8741.000
884.6800, 8749.000
885.8100, 8756.000
886.9400, 8814.000
888.0690, 8780.000
889.1990, 8781.000
890.3280, 8672.000
891.4570, 8855.000
892.5860, 8759.000
893.7140, 8735.000
894.8430, 8843.000
895.9710, 8741.000
897.1000, 8828.000
898.2280, 8807.000
899.3560, 8763.000
900.4830, 8798.000
901.6110, 8780.195
902.7380, 8810.000
903.8660, 8813.000
904.9930, 8840.000
906.1200, 8898.000
907.2460, 8935.000
908.3730, 8947.000
909.5000, 8990.207
910.6260, 8964.000
911.7520, 9003.000
912.8780, 9043.000
914.0040, 8959.000
915.1290, 8946.000
916.2550, 9025.000
917.3800, 9033.000
918.5050, 9010.000
919.6300, 9025.000
920.7550, 8979.000
921.8800, 9076.000
923.0040, 9004.000
924.1290, 8935.000
925.2530, 9054.000
926.3770, 9047.000
927.5010, 9108.000
928.6250, 9063.000
929.7480, 9028.000
930.8720, 9046.000
931.9950, 9040.206
933.1180, 9030.698
934.2410, 9087.000
935.3640, 9057.000
936.4860, 9087.000
937.6090, 9177.000
938.7310, 9218.000
939.8530, 9260.000
940.9750, 9283.846
942.0970, 9279.851
943.2180, 9262.000
944.3400, 9258.000
945.4610, 9201.875
946.5820, 9247.714
947.7030, 9281.523
948.8240, 9303.948
949.9450, 9280.898
951.0650, 9316.556
952.1860, 9328.694
953.3060, 9339.854
954.4260, 9263.000
955.5460, 9268.000
956.6650, 9396.000
957.7850, 9385.000
958.9040, 9325.000
960.0230, 9258.000
961.1420, 9451.000
962.2610, 9443.000
963.3800, 9489.000
964.4990, 9452.000
965.6170, 9413.000
966.7350, 9438.000
967.8530, 9562.000
968.9710, 9359.000
970.0890, 9502.000
971.2070, 9565.000
972.3240, 9491.000
973.4410, 9610.000
974.5580, 9463.000
975.6750, 9579.000
976.7920, 9628.000
977.9090, 9502.000
979.0250, 9526.000
980.1410, 9742.000
981.2580, 9728.000
982.3740, 9756.000
983.4890, 9718.000
984.6050, 9782.000
985.7200, 9751.000
986.8360, 9760.000
987.9510, 9886.000
989.0660, 9859.000
990.1810, 9976.000
991.2950, 9944.000
992.4100, 9981.000
993.5240, 10073.00
994.6390, 9999.000
995.7530, 10103.00
996.8660, 10378.00
997.9800, 10319.00
999.0940, 10551.00
1000.207, 10554.00
1001.320, 10721.00
1002.433, 10705.00
1003.546, 10914.00
1004.659, 11137.00
1005.772, 11368.00
1006.884, 11559.00
1007.996, 11736.00
1009.108, 11901.00
1010.220, 11954.00
1011.332, 11968.00
1012.444, 11960.00
1013.555, 11989.00
1014.666, 11848.00
1015.777, 11810.00
1016.888, 11692.00
1017.999, 11796.00
1019.110, 11704.00
1020.220, 11766.00
1021.331, 11526.00
1022.441, 11640.00
1023.551, 11586.00
1024.661, 11609.00
1025.770, 11631.00
1026.880, 11732.00
1027.989, 11808.60
1029.098, 12025.00
1030.207, 12007.00
1031.316, 12148.00
1032.425, 12193.00
1033.533, 12459.00
1034.642, 12663.00
1035.750, 12933.00
1036.858, 13005.00
1037.966, 13401.00
1039.073, 13653.00
1040.181, 13823.00
1041.288, 14223.00
1042.396, 14664.00
1043.503, 15265.00
1044.610, 15760.00
1045.716, 16293.00
1046.823, 16845.00
1047.929, 17844.00
1049.036, 18549.00
1050.142, 19627.00
1051.248, 21035.00
1052.353, 22456.00
1053.459, 24257.00
1054.564, 26258.00
1055.670, 28519.00
1056.775, 30993.00
1057.880, 34328.00
1058.985, 37383.00
1060.089, 41243.00
1061.194, 45283.00
1062.298, 49145.00
1063.402, 52301.00
1064.506, 55628.00
1065.610, 57201.00
1066.713, 58025.00
1067.817, 57994.00
1068.920, 56446.00
1070.023, 54479.00
1071.126, 52464.00
1072.229, 48929.00
1073.332, 45869.00
1074.435, 42783.00
1075.537, 40065.00
1076.639, 37127.00
1077.741, 34407.00
1078.843, 32170.00
1079.945, 29958.19
1081.046, 28055.00
1082.148, 26409.00
1083.249, 24837.00
1084.350, 23610.00
1085.451, 22273.00
1086.551, 21144.00
1087.652, 20245.00
1088.752, 19152.00
1089.853, 18627.00
1090.953, 17813.00
1092.053, 17396.00
1093.152, 16875.00
1094.252, 16400.00
1095.351, 16015.00
1096.451, 15575.00
1097.550, 15172.00
1098.649, 14733.00
1099.748, 14639.00
1100.846, 14306.00
1101.945, 14126.00
1103.043, 14051.00
1104.141, 13904.00
1105.239, 13632.00
1106.337, 13673.00
1107.434, 13324.00
1108.532, 13223.00
1109.629, 13161.00
1110.726, 13066.00
1111.823, 13097.00
1112.920, 12980.35
1114.017, 12922.64
1115.113, 12815.00
1116.210, 12755.00
1117.306, 12679.00
1118.402, 12586.00
1119.498, 12539.00
1120.593, 12566.00
1121.689, 12434.00
1122.784, 12374.00
1123.879, 12492.00
1124.974, 12482.00
1126.069, 12281.00
1127.164, 12156.00
1128.259, 12352.00
1129.353, 12382.00
1130.447, 12365.00
1131.541, 12458.00
1132.635, 12434.00
1133.729, 12505.44
1134.822, 12584.00
1135.916, 12641.00
1137.009, 12879.00
1138.102, 12986.00
1139.195, 13037.00
1140.288, 12973.00
1141.380, 13095.00
1142.473, 13022.00
1143.565, 13014.00
1144.657, 12982.69
1145.749, 12904.72
1146.841, 12838.00
1147.932, 12751.00
1149.024, 12654.00
1150.115, 12562.00
1151.206, 12344.00
1152.297, 12058.00
1153.388, 11835.00
1154.479, 11775.00
1155.569, 11633.00
1156.659, 11615.00
1157.750, 11410.00
1158.839, 11332.00
1159.929, 11353.00
1161.019, 11123.00
1162.108, 10912.00
1163.198, 10961.00
1164.287, 10863.00
1165.376, 10795.00
1166.465, 10766.00
1167.553, 10799.00
1168.642, 10692.00
1169.730, 10855.00
1170.818, 10724.00
1171.906, 10707.00
1172.994, 10750.00
1174.082, 10697.00
1175.170, 10730.00
1176.257, 10779.00
1177.344, 10583.00
1178.431, 10745.00
1179.518, 10693.00
1180.605, 10623.00
1181.691, 10693.00
1182.778, 10551.00
1183.864, 10777.00
1184.950, 10720.00
1186.036, 10892.00
1187.122, 10647.00
1188.207, 10717.00
1189.292, 10767.00
1190.378, 10740.00
1191.463, 10757.84
1192.548, 10610.00
1193.632, 10667.00
1194.717, 10733.00
1195.801, 10592.00
1196.886, 10618.00
1197.970, 10737.00
1199.054, 10710.00
1200.137, 10544.00
1201.221, 10585.00
1202.305, 10638.00
1203.388, 10537.00
1204.471, 10638.00
1205.554, 10489.00
1206.637, 10560.00
1207.719, 10638.00
1208.802, 10515.00
1209.884, 10604.00
1210.966, 10647.00
1212.048, 10558.00
1213.130, 10588.00
1214.212, 10459.00
1215.293, 10621.00
1216.374, 10663.00
1217.456, 10573.00
1218.536, 10654.00
1219.617, 10554.00
1220.698, 10630.00
1221.778, 10549.00
1222.859, 10689.00
1223.939, 10542.00
1225.019, 10596.00
1226.099, 10724.00
1227.178, 10514.00
1228.258, 10613.00
1229.337, 10580.00
1230.417, 10625.00
1231.496, 10642.00
1232.574, 10675.00
1233.653, 10566.00
1234.732, 10613.00
1235.810, 10567.00
1236.888, 10622.00
1237.966, 10601.00
1239.044, 10574.00
1240.122, 10542.00
1241.199, 10570.00
1242.277, 10685.00
1243.354, 10678.00
1244.431, 10701.00
1245.508, 10730.83
1246.585, 10578.00
1247.661, 10709.00
1248.738, 10628.00
1249.814, 10542.00
1250.890, 10647.00
1251.966, 10680.00
1253.042, 10551.00
1254.117, 10783.00
1255.193, 10665.00
1256.268, 10520.00
1257.343, 10722.00
1258.418, 10657.00
1259.493, 10674.00
1260.567, 10747.00
1261.642, 10680.00
1262.716, 10816.00
1263.790, 10871.00
1264.864, 10698.00
1265.938, 10709.00
1267.011, 10687.00
1268.085, 10766.00
1269.158, 10739.00
1270.231, 10774.00
1271.304, 10784.00
1272.377, 10737.00
1273.450, 10755.00
1274.522, 10953.00
1275.594, 10864.00
1276.666, 10899.00
1277.738, 10966.00
1278.810, 10807.00
1279.882, 10801.00
1280.953, 10917.00
1282.025, 11017.00
1283.096, 11029.00
1284.167, 10717.00
1285.238, 10827.00
1286.308, 10821.00
1287.379, 10894.00
1288.449, 10933.00
1289.519, 10806.00
1290.589, 11017.00
1291.659, 10778.00
1292.729, 11035.00
1293.798, 10921.00
1294.868, 10990.00
1295.937, 10984.00
1297.006, 10991.00
1298.075, 10983.00
1299.143, 10917.00
1300.212, 10936.00
1301.280, 10870.00
1302.348, 11030.00
1303.416, 10997.00
1304.484, 10962.00
1305.552, 11037.00
1306.620, 10979.00
1307.687, 11031.00
1308.754, 10990.00
1309.821, 10963.00
1310.888, 11117.00
1311.955, 10969.00
1313.021, 11013.00
1314.088, 10996.00
1315.154, 10954.00
1316.220, 10961.00
1317.286, 11007.00
1318.352, 10915.00
1319.417, 10983.00
1320.483, 11055.00
1321.548, 10972.00
1322.613, 10909.00
1323.678, 11028.00
1324.743, 11116.00
1325.807, 10973.00
1326.872, 11039.00
1327.936, 11192.00
1329.000, 10985.00
1330.064, 11048.00
1331.128, 11156.00
1332.191, 11159.00
1333.255, 11165.00
1334.318, 11101.00
1335.381, 11176.00
1336.444, 11119.00
1337.507, 11132.00
1338.569, 11121.00
1339.632, 11142.00
1340.694, 11067.00
1341.756, 11061.00
1342.818, 11187.00
1343.880, 11143.00
1344.941, 11070.00
1346.003, 11191.00
1347.064, 11112.00
1348.125, 11224.00
1349.186, 11244.00
1350.247, 11199.00
1351.308, 11290.00
1352.368, 11250.00
1353.428, 11195.00
1354.489, 11131.00
1355.549, 11261.00
1356.608, 11203.00
1357.668, 11242.00
1358.727, 11261.00
1359.787, 11267.00
1360.846, 11207.00
1361.905, 11159.00
1362.964, 11286.00
1364.022, 11345.00
1365.081, 11390.00
1366.139, 11357.00
1367.197, 11302.00
1368.255, 11312.00
1369.313, 11286.00
1370.371, 11332.00
1371.428, 11347.00
1372.486, 11288.00
1373.543, 11288.72
1374.600, 11192.00
1375.657, 11235.00
1376.713, 11264.00
1377.770, 11294.00
1378.826, 11413.00
1379.882, 11457.00
1380.938, 11412.00
1381.994, 11342.00
1383.050, 11276.00
1384.106, 11310.00
1385.161, 11313.00
1386.216, 11382.00
1387.271, 11394.00
1388.326, 11482.00
1389.381, 11438.00
1390.435, 11466.72
1391.490, 11412.00
1392.544, 11443.00
1393.598, 11403.00
1394.652, 11347.00
1395.705, 11348.10
1396.759, 11327.18
1397.812, 11323.00
1398.866, 11354.00
1399.919, 11392.00
1400.972, 11469.00
1402.024, 11434.00
1403.077, 11404.00
1404.129, 11469.00
1405.181, 11373.00
1406.233, 11416.00
1407.285, 11374.00
1408.337, 11429.00
1409.389, 11420.47
1410.440, 11439.00
1411.491, 11478.00
1412.542, 11506.00
1413.593, 11512.09
1414.644, 11534.43
1415.695, 11542.00
1416.745, 11536.00
1417.795, 11594.00
1418.845, 11560.00
1419.895, 11531.00
1420.945, 11587.00
1421.995, 11596.00
1423.044, 11485.00
1424.093, 11583.00
1425.142, 11601.00
1426.191, 11658.00
1427.240, 11461.00
1428.289, 11701.00
1429.337, 11537.00
1430.385, 11650.00
1431.433, 11601.00
1432.481, 11607.00
1433.529, 11754.00
1434.577, 11539.00
1435.624, 11658.00
1436.672, 11659.00
1437.719, 11523.00
1438.766, 11518.00
1439.812, 11679.00
1440.859, 11659.00
1441.905, 11550.00
1442.952, 11568.00
1443.998, 11776.00
1445.044, 11619.00
1446.090, 11714.00
1447.135, 11639.00
1448.181, 11653.00
1449.226, 11720.00
1450.271, 11702.00
1451.316, 11874.00
1452.361, 11704.00
1453.405, 11658.00
1454.450, 11801.00
1455.494, 11830.00
1456.538, 11785.00
1457.582, 11891.00
1458.626, 11745.00
1459.670, 11682.00
1460.713, 11837.00
1461.757, 11812.00
1462.800, 11647.00
1463.843, 11883.00
1464.886, 11798.00
1465.928, 11859.00
1466.971, 11904.00
1468.013, 11951.00
1469.055, 11983.00
1470.097, 11866.00
1471.139, 11801.00
1472.181, 11881.00
1473.222, 11770.00
1474.263, 11789.00
1475.305, 11885.00
1476.346, 11930.00
1477.386, 11929.00
1478.427, 11872.00
1479.468, 11996.00
1480.508, 11928.00
1481.548, 11875.00
1482.588, 11978.00
1483.628, 11938.00
1484.668, 11718.00
1485.707, 11863.00
1486.747, 11834.00
1487.786, 12018.00
1488.825, 11945.00
1489.864, 11962.00
1490.902, 11979.00
1491.941, 12015.00
1492.979, 12026.00
1494.017, 11887.00
1495.055, 12023.00
1496.093, 11938.00
1497.131, 12049.00
1498.168, 12002.00
1499.206, 11964.00
1500.243, 12179.00
1501.280, 11934.00
1502.317, 11961.00
1503.354, 12066.00
1504.390, 12000.00
1505.426, 12006.00
1506.463, 11929.00
1507.499, 12018.00
1508.535, 12109.00
1509.570, 12076.00
1510.606, 12201.00
1511.641, 12076.00
1512.676, 12161.00
1513.711, 12163.00
1514.746, 12129.00
1515.781, 12105.00
1516.816, 12092.00
1517.850, 12181.00
1518.884, 12123.00
1519.918, 12179.00
1520.952, 12113.00
1521.986, 12101.00
1523.019, 12271.00
1524.053, 12249.00
1525.086, 12181.00
1526.119, 12222.00
1527.152, 12125.00
1528.185, 12222.00
1529.217, 12174.00
1530.250, 12183.00
1531.282, 12275.00
1532.314, 12154.00
1533.346, 12236.00
1534.377, 12221.00
1535.409, 12257.00
1536.440, 12323.00
1537.472, 12373.00
1538.503, 12314.00
1539.534, 12297.00
1540.564, 12298.00
1541.595, 12311.00
1542.625, 12267.00
1543.656, 12344.00
1544.686, 12356.34
1545.716, 12482.00
1546.745, 12401.00
1547.775, 12421.00
1548.804, 12343.00
1549.834, 12447.00
1550.863, 12377.00
1551.892, 12402.00
1552.920, 12468.00
1553.949, 12402.00
1554.977, 12494.00
1556.006, 12587.00
1557.034, 12410.00
1558.062, 12522.00
1559.089, 12422.00
1560.117, 12408.00
1561.144, 12501.00
1562.172, 12387.00
1563.199, 12512.00
1564.226, 12371.00
1565.252, 12525.00
1566.279, 12566.00
1567.305, 12447.00
1568.332, 12552.00
1569.358, 12580.00
1570.384, 12659.00
##END=



