##NAMES=Beryl
##RRUFFID=R060942
##IDEAL CHEMISTRY=Be_3_Al_2_Si_6_O_18_
##LOCALITY=Mingore mine, Swat Valley, Pakistan
##OWNER=RRUFF
##SOURCE=Lawrence W. Snee
##DESCRIPTION=Green hexagonal prisms, variety emerald
##STATUS=The identification of this mineral has been confirmed by X-ray diffraction and chemical analysis
##URL=rruff.info/R060942
##MEASURED CHEMISTRY=(Be_2.94_Li_0.06_)_Σ=3_(Al_1.55_Mg_0.37_Fe^3+^_0.06_Cr^3+^_0.02_)_Σ=2_Si_6.00_O_18_·Na_0.42_; Be and Li not measured but estimated by stoichiometry
##PIN_ID=L01655
##ORIENTATION=Laser parallel to c* (0 0 1). Fiducial mark perpendicular to laser is parallel to [-1 -1 0]
130.4390, 10253.00
131.6680, 10403.00
132.8980, 10356.00
134.1270, 10384.00
135.3560, 10513.00
136.5850, 10408.00
137.8140, 10747.00
139.0430, 10834.00
140.2710, 10823.00
141.5000, 10886.00
142.7280, 10731.00
143.9560, 10813.00
145.1840, 10732.00
146.4120, 10616.00
147.6390, 10632.00
148.8670, 10692.00
150.0940, 10648.00
151.3210, 10840.00
152.5490, 10659.00
153.7750, 10565.00
155.0020, 10443.00
156.2290, 10527.00
157.4550, 10411.00
158.6810, 10473.00
159.9080, 10307.00
161.1340, 10243.00
162.3590, 10388.00
163.5850, 10564.00
164.8110, 10662.00
166.0360, 10658.00
167.2610, 10602.00
168.4860, 10641.56
169.7110, 10594.00
170.9360, 10613.00
172.1610, 10645.00
173.3850, 10607.90
174.6100, 10590.65
175.8340, 10606.82
177.0580, 10492.00
178.2820, 10602.00
179.5050, 10546.00
180.7290, 10497.00
181.9520, 10397.00
183.1760, 10527.00
184.3990, 10506.00
185.6220, 10551.00
186.8450, 10594.00
188.0670, 10584.00
189.2900, 10562.00
190.5120, 10501.00
191.7340, 10669.00
192.9560, 10631.00
194.1780, 10637.00
195.4000, 10835.00
196.6220, 10782.00
197.8430, 10857.00
199.0640, 10949.00
200.2860, 10996.00
201.5070, 11034.00
202.7270, 10961.00
203.9480, 10804.00
205.1690, 10271.00
206.3890, 10088.00
207.6090, 9852.000
208.8290, 9717.000
210.0490, 9702.000
211.2690, 9748.000
212.4890, 9801.000
213.7080, 9848.000
214.9280, 9692.000
216.1470, 9730.000
217.3660, 9559.000
218.5850, 9732.000
219.8030, 9692.000
221.0220, 9672.000
222.2400, 9734.000
223.4590, 9656.000
224.6770, 9754.000
225.8950, 9741.000
227.1120, 9821.000
228.3300, 9707.000
229.5480, 9823.000
230.7650, 9815.000
231.9820, 9890.000
233.1990, 9775.000
234.4160, 9779.000
235.6330, 9752.000
236.8490, 9825.000
238.0660, 9786.000
239.2820, 9887.000
240.4980, 9742.000
241.7140, 9871.000
242.9300, 9678.000
244.1460, 9924.000
245.3610, 9708.000
246.5770, 9686.000
247.7920, 9688.000
249.0070, 9623.000
250.2220, 9687.000
251.4370, 9566.000
252.6510, 9499.000
253.8660, 9569.000
255.0800, 9512.000
256.2940, 9672.000
257.5080, 9957.000
258.7220, 9906.800
259.9360, 9925.222
261.1490, 10106.00
262.3630, 9873.000
263.5760, 10197.00
264.7890, 10513.00
266.0020, 11010.00
267.2150, 11034.00
268.4270, 11097.00
269.6400, 10924.00
270.8520, 10460.00
272.0640, 10267.00
273.2760, 10100.00
274.4880, 9924.000
275.7000, 9881.000
276.9120, 9768.000
278.1230, 9852.000
279.3340, 9798.000
280.5450, 9818.000
281.7560, 9889.000
282.9670, 9955.000
284.1780, 10024.00
285.3880, 10109.00
286.5980, 10189.00
287.8090, 10217.00
289.0190, 10214.00
290.2290, 10276.00
291.4380, 10213.18
292.6480, 10208.00
293.8570, 10099.00
295.0670, 9899.000
296.2760, 9828.000
297.4850, 9653.000
298.6930, 9509.000
299.9020, 9344.000
301.1110, 9227.000
302.3190, 9200.000
303.5270, 9202.000
304.7350, 9151.688
305.9430, 9177.000
307.1510, 9166.000
308.3580, 9231.000
309.5660, 9329.000
310.7730, 9369.000
311.9800, 9564.000
313.1870, 9494.000
314.3940, 9683.000
315.6010, 9785.000
316.8070, 9764.000
318.0130, 9981.000
319.2200, 10134.00
320.4260, 10214.00
321.6310, 10580.00
322.8370, 11125.00
324.0430, 10979.00
325.2480, 10664.00
326.4540, 10295.00
327.6590, 9899.000
328.8640, 9734.000
330.0680, 9474.000
331.2730, 9281.000
332.4780, 9051.000
333.6820, 8993.000
334.8860, 8890.000
336.0900, 8698.000
337.2940, 8754.000
338.4980, 8587.000
339.7010, 8667.000
340.9050, 8620.000
342.1080, 8578.000
343.3110, 8455.000
344.5140, 8579.000
345.7170, 8509.000
346.9200, 8586.000
348.1220, 8513.000
349.3240, 8597.000
350.5270, 8616.000
351.7290, 8599.000
352.9310, 8658.000
354.1320, 8559.000
355.3340, 8465.000
356.5350, 8619.000
357.7370, 8551.000
358.9380, 8500.000
360.1390, 8632.000
361.3400, 8646.000
362.5400, 8581.000
363.7410, 8577.000
364.9410, 8776.000
366.1410, 8686.000
367.3410, 8816.000
368.5410, 8732.000
369.7410, 8797.750
370.9400, 8839.000
372.1400, 8845.000
373.3390, 8905.444
374.5380, 8927.000
375.7370, 9014.000
376.9360, 9076.000
378.1350, 9186.000
379.3330, 9165.000
380.5310, 9271.000
381.7300, 9732.000
382.9280, 9920.000
384.1260, 10433.00
385.3230, 10816.00
386.5210, 11131.00
387.7180, 11685.00
388.9160, 12677.00
390.1130, 13572.00
391.3100, 14680.00
392.5060, 16153.00
393.7030, 17718.00
394.9000, 19737.00
396.0960, 22106.00
397.2920, 23780.00
398.4880, 24764.00
399.6840, 24874.00
400.8800, 24097.00
402.0750, 22767.00
403.2710, 20463.00
404.4660, 19244.00
405.6610, 17676.00
406.8560, 16478.00
408.0510, 15541.00
409.2450, 14825.00
410.4400, 14290.00
411.6340, 13835.00
412.8280, 13145.00
414.0220, 13014.00
415.2160, 12640.00
416.4100, 12175.00
417.6030, 11928.00
418.7970, 11497.00
419.9900, 11422.00
421.1830, 11099.00
422.3760, 10934.00
423.5690, 10563.00
424.7610, 10399.00
425.9540, 10403.00
427.1460, 10177.00
428.3380, 10279.00
429.5300, 10234.00
430.7220, 10206.00
431.9140, 10354.00
433.1050, 10351.00
434.2970, 10455.00
435.4880, 10520.00
436.6790, 10654.00
437.8700, 10537.00
439.0610, 10462.00
440.2510, 10597.00
441.4420, 10600.00
442.6320, 10233.00
443.8220, 9941.000
445.0120, 9883.000
446.2020, 9690.000
447.3910, 9340.000
448.5810, 9127.000
449.7700, 9116.000
450.9600, 9022.000
452.1490, 8995.000
453.3370, 9059.000
454.5260, 8947.000
455.7150, 8801.000
456.9030, 8860.000
458.0910, 8904.000
459.2800, 8759.000
460.4670, 8828.000
461.6550, 8690.000
462.8430, 8750.000
464.0300, 8683.000
465.2180, 8657.000
466.4050, 8623.000
467.5920, 8570.000
468.7790, 8672.000
469.9650, 8841.000
471.1520, 8806.459
472.3380, 8836.000
473.5250, 8814.000
474.7110, 8831.845
475.8970, 8838.000
477.0820, 8868.000
478.2680, 8915.000
479.4540, 8933.000
480.6390, 8963.000
481.8240, 8921.000
483.0090, 8834.000
484.1940, 8911.000
485.3780, 8712.000
486.5630, 8719.000
487.7470, 8779.000
488.9320, 8788.000
490.1160, 8719.000
491.3000, 8778.000
492.4830, 8832.000
493.6670, 8851.000
494.8500, 8750.000
496.0340, 8867.000
497.2170, 8801.000
498.4000, 8698.000
499.5820, 8839.000
500.7650, 8888.000
501.9480, 8805.000
503.1300, 8899.000
504.3120, 8873.000
505.4940, 8897.000
506.6760, 8980.000
507.8580, 8705.000
509.0390, 8832.000
510.2210, 8766.000
511.4020, 8902.000
512.5830, 8844.000
513.7640, 8770.000
514.9450, 8863.000
516.1250, 8766.000
517.3060, 8903.000
518.4860, 8974.000
519.6660, 8867.000
520.8460, 8821.000
522.0260, 8823.000
523.2060, 8690.000
524.3850, 8707.216
525.5650, 8592.000
526.7440, 8642.000
527.9230, 8637.000
529.1020, 8529.000
530.2810, 8549.000
531.4590, 8647.000
532.6380, 8410.000
533.8160, 9060.000
534.9940, 8738.019
536.1720, 9221.000
537.3500, 8572.000
538.5270, 8527.000
539.7050, 8592.000
540.8820, 8570.000
542.0590, 8569.000
543.2360, 8557.000
544.4130, 8568.000
545.5900, 8633.000
546.7660, 8704.350
547.9430, 8716.000
549.1190, 8877.000
550.2950, 9051.000
551.4710, 9056.000
552.6470, 9286.000
553.8220, 9353.000
554.9980, 9637.000
556.1730, 9863.000
557.3480, 10239.00
558.5230, 10454.00
559.6980, 10728.00
560.8730, 10899.00
562.0470, 10943.00
563.2220, 10885.00
564.3960, 10984.00
565.5700, 10936.00
566.7440, 10764.00
567.9170, 10838.00
569.0910, 10795.00
570.2640, 10739.00
571.4380, 10724.00
572.6110, 10703.00
573.7840, 10663.00
574.9570, 10580.00
576.1290, 10522.00
577.3020, 10447.00
578.4740, 10370.00
579.6460, 10257.00
580.8180, 10270.00
581.9900, 10307.00
583.1620, 10140.00
584.3330, 10232.00
585.5040, 10252.00
586.6760, 10114.00
587.8470, 10067.00
589.0180, 10010.00
590.1880, 10081.00
591.3590, 9992.000
592.5290, 9883.000
593.7000, 9975.000
594.8700, 9891.000
596.0400, 9852.000
597.2090, 9736.000
598.3790, 9683.000
599.5490, 9702.000
600.7180, 9447.000
601.8870, 9520.000
603.0560, 9319.000
604.2250, 9392.000
605.3940, 9224.000
606.5620, 9319.000
607.7300, 9916.000
608.8990, 9857.000
610.0670, 9967.000
611.2350, 10007.43
612.4020, 9854.000
613.5700, 9715.000
614.7370, 9515.000
615.9050, 9176.000
617.0720, 8972.000
618.2390, 8803.000
619.4060, 8788.000
620.5720, 8822.000
621.7390, 8689.000
622.9050, 8606.000
624.0710, 8614.000
625.2370, 8579.000
626.4030, 8598.000
627.5690, 8661.000
628.7340, 8545.000
629.9000, 8681.000
631.0650, 8502.000
632.2300, 8557.000
633.3950, 8542.000
634.5600, 8575.000
635.7240, 8680.000
636.8890, 8603.000
638.0530, 8560.000
639.2170, 8757.000
640.3810, 8674.000
641.5450, 8629.000
642.7080, 8667.000
643.8720, 8626.000
645.0350, 8584.000
646.1980, 8761.000
647.3610, 8611.000
648.5240, 8724.000
649.6870, 8542.000
650.8490, 8709.000
652.0120, 8722.000
653.1740, 8802.000
654.3360, 8936.000
655.4980, 8835.000
656.6600, 8971.000
657.8210, 9111.000
658.9830, 9051.000
660.1440, 9286.000
661.3050, 9329.000
662.4660, 9438.000
663.6270, 9694.000
664.7870, 9919.000
665.9480, 10138.00
667.1080, 10568.00
668.2680, 10883.00
669.4280, 11267.00
670.5880, 11801.00
671.7480, 12334.00
672.9070, 13238.00
674.0670, 14345.00
675.2260, 15740.00
676.3850, 17525.00
677.5440, 20114.00
678.7030, 23110.00
679.8610, 27019.00
681.0200, 31679.00
682.1780, 37218.00
683.3360, 43960.00
684.4940, 50760.00
685.6520, 57078.00
686.8090, 60332.00
687.9670, 59567.00
689.1240, 55092.00
690.2810, 48737.00
691.4380, 41487.00
692.5950, 34906.00
693.7520, 29624.00
694.9080, 25458.00
696.0650, 22219.00
697.2210, 19728.00
698.3770, 17947.00
699.5330, 16553.00
700.6880, 15387.00
701.8440, 14525.00
702.9990, 13743.00
704.1550, 13258.00
705.3100, 12540.00
706.4650, 12143.00
707.6190, 11762.00
708.7740, 11354.00
709.9290, 11248.00
711.0830, 10956.00
712.2370, 10662.00
713.3910, 10455.00
714.5450, 10245.00
715.6980, 10117.00
716.8520, 9972.000
718.0050, 9836.738
719.1580, 9750.867
720.3110, 9613.000
721.4640, 9615.000
722.6170, 9527.000
723.7700, 9512.000
724.9220, 9509.000
726.0740, 9419.000
727.2260, 9316.000
728.3780, 9296.000
729.5300, 9276.000
730.6810, 9195.000
731.8330, 9136.000
732.9840, 9100.000
734.1350, 9254.000
735.2860, 9130.000
736.4370, 9141.000
737.5880, 9292.000
738.7380, 9223.000
739.8880, 9232.000
741.0390, 9193.000
742.1890, 9229.000
743.3380, 9297.000
744.4880, 9189.000
745.6380, 9212.000
746.7870, 9193.000
747.9360, 9298.000
749.0850, 9236.204
750.2340, 9242.000
751.3830, 9174.000
752.5310, 9139.000
753.6800, 9126.000
754.8280, 9070.513
755.9760, 9064.000
757.1240, 8987.000
758.2720, 8958.000
759.4190, 8905.000
760.5670, 8949.000
761.7140, 9018.000
762.8610, 8970.000
764.0080, 9086.000
765.1550, 9015.000
766.3020, 8774.000
767.4480, 8987.000
768.5950, 8873.000
769.7410, 8910.000
770.8870, 8877.000
772.0330, 8871.000
773.1780, 8788.000
774.3240, 8844.000
775.4690, 8823.000
776.6140, 8857.000
777.7590, 8767.000
778.9040, 8763.000
780.0490, 8615.000
781.1940, 8671.000
782.3380, 8651.000
783.4820, 8729.000
784.6260, 8722.000
785.7700, 8615.000
786.9140, 8678.000
788.0580, 8624.000
789.2010, 8686.000
790.3450, 8666.000
791.4880, 8673.000
792.6310, 8552.000
793.7730, 8690.000
794.9160, 8491.000
796.0590, 8558.000
797.2010, 8539.000
798.3430, 8594.000
799.4850, 8703.000
800.6270, 8677.000
801.7690, 8499.000
802.9100, 8578.000
804.0520, 8527.000
805.1930, 8521.000
806.3340, 8490.000
807.4750, 8440.000
808.6160, 8479.000
809.7560, 8395.000
810.8970, 8317.000
812.0370, 8419.000
813.1770, 8374.000
814.3170, 8369.085
815.4570, 8468.000
816.5960, 8362.000
817.7360, 8417.000
818.8750, 8459.000
820.0140, 8295.000
821.1530, 8411.000
822.2920, 8440.000
823.4310, 8426.000
824.5690, 8287.000
825.7070, 8293.000
826.8460, 8352.000
827.9840, 8364.000
829.1220, 8423.000
830.2590, 8372.000
831.3970, 8349.000
832.5340, 8329.000
833.6710, 8329.435
834.8080, 8344.000
835.9450, 8366.000
837.0820, 8424.000
838.2190, 8465.000
839.3550, 8473.000
840.4910, 8490.000
841.6270, 8492.000
842.7630, 8404.000
843.8990, 8463.000
845.0350, 8414.000
846.1700, 8426.000
847.3060, 8456.000
848.4410, 8370.000
849.5760, 8344.000
850.7100, 8372.000
851.8450, 8508.000
852.9800, 8435.000
854.1140, 8509.000
855.2480, 8507.000
856.3820, 8472.000
857.5160, 8356.000
858.6500, 8396.000
859.7830, 8470.000
860.9170, 8378.000
862.0500, 8468.000
863.1830, 8511.000
864.3160, 8370.000
865.4480, 8509.000
866.5810, 8399.000
867.7130, 8379.000
868.8460, 8451.000
869.9780, 8382.000
871.1100, 8581.000
872.2410, 8746.000
873.3730, 8996.000
874.5050, 8455.000
875.6360, 8409.000
876.7670, 8281.000
877.8980, 8418.000
879.0290, 8425.000
880.1590, 8562.000
881.2900, 8386.000
882.4200, 8380.000
883.5500, 8421.000
884.6800, 8488.000
885.8100, 8414.000
886.9400, 8485.000
888.0690, 8484.000
889.1990, 8591.000
890.3280, 8568.000
891.4570, 8558.000
892.5860, 8582.000
893.7140, 8619.000
894.8430, 8732.000
895.9710, 8848.000
897.1000, 8874.496
898.2280, 8915.000
899.3560, 8966.000
900.4830, 8998.000
901.6110, 9059.000
902.7380, 8998.000
903.8660, 9067.000
904.9930, 9047.000
906.1200, 9146.000
907.2460, 9150.000
908.3730, 9262.000
909.5000, 9165.000
910.6260, 9198.000
911.7520, 9118.000
912.8780, 9138.000
914.0040, 9081.000
915.1290, 9073.000
916.2550, 9129.000
917.3800, 9084.000
918.5050, 9066.000
919.6300, 9071.000
920.7550, 9111.000
921.8800, 8973.000
923.0040, 9138.000
924.1290, 9051.000
925.2530, 9110.000
926.3770, 8933.000
927.5010, 8936.000
928.6250, 8880.000
929.7480, 8954.000
930.8720, 8856.000
931.9950, 8892.000
933.1180, 8909.000
934.2410, 8828.000
935.3640, 8782.000
936.4860, 8829.000
937.6090, 8882.000
938.7310, 8808.000
939.8530, 8736.000
940.9750, 8792.000
942.0970, 8853.000
943.2180, 8835.000
944.3400, 8822.000
945.4610, 8725.000
946.5820, 8785.000
947.7030, 8658.000
948.8240, 8728.000
949.9450, 8701.000
951.0650, 8748.000
952.1860, 8759.000
953.3060, 8678.000
954.4260, 8780.000
955.5460, 8697.000
956.6650, 8723.000
957.7850, 8689.000
958.9040, 8657.000
960.0230, 8784.000
961.1420, 8733.000
962.2610, 8752.000
963.3800, 8721.000
964.4990, 8711.000
965.6170, 8879.000
966.7350, 8827.000
967.8530, 8888.000
968.9710, 8723.000
970.0890, 8855.000
971.2070, 8877.000
972.3240, 8805.000
973.4410, 8886.000
974.5580, 8937.000
975.6750, 9046.000
976.7920, 9006.000
977.9090, 9009.000
979.0250, 9060.000
980.1410, 9156.000
981.2580, 9200.000
982.3740, 9323.649
983.4890, 9505.000
984.6050, 9579.000
985.7200, 9701.000
986.8360, 9849.000
987.9510, 10108.00
989.0660, 10229.00
990.1810, 10349.00
991.2950, 10637.00
992.4100, 10816.00
993.5240, 11068.00
994.6390, 11218.00
995.7530, 11345.00
996.8660, 11537.00
997.9800, 11715.00
999.0940, 11702.00
1000.207, 11716.00
1001.320, 11587.00
1002.433, 11481.00
1003.546, 11297.00
1004.659, 11163.00
1005.772, 10836.00
1006.884, 10875.00
1007.996, 10630.00
1009.108, 10630.00
1010.220, 10359.00
1011.332, 10316.00
1012.444, 10147.00
1013.555, 10178.00
1014.666, 9937.000
1015.777, 10106.00
1016.888, 10000.00
1017.999, 9987.000
1019.110, 9879.000
1020.220, 9736.000
1021.331, 9781.000
1022.441, 9779.000
1023.551, 9564.000
1024.661, 9673.000
1025.770, 9550.000
1026.880, 9636.000
1027.989, 9697.269
1029.098, 9609.266
1030.207, 9598.108
1031.316, 9514.000
1032.425, 9448.000
1033.533, 9407.000
1034.642, 9373.000
1035.750, 9354.731
1036.858, 9422.000
1037.966, 9394.000
1039.073, 9427.000
1040.181, 9553.000
1041.288, 9435.000
1042.396, 9636.000
1043.503, 9500.000
1044.610, 9673.000
1045.716, 9618.000
1046.823, 9756.000
1047.929, 9751.000
1049.036, 9888.000
1050.142, 10092.00
1051.248, 10233.00
1052.353, 10352.00
1053.459, 10588.00
1054.564, 10725.00
1055.670, 10993.00
1056.775, 11351.00
1057.880, 11672.63
1058.985, 12203.00
1060.089, 12551.00
1061.194, 13064.00
1062.298, 13657.00
1063.402, 14060.00
1064.506, 14459.00
1065.610, 14853.00
1066.713, 15176.00
1067.817, 15461.00
1068.920, 15658.00
1070.023, 15808.00
1071.126, 15659.00
1072.229, 15636.00
1073.332, 15580.00
1074.435, 15146.00
1075.537, 14658.00
1076.639, 14484.00
1077.741, 14070.00
1078.843, 13848.00
1079.945, 13459.00
1081.046, 13293.00
1082.148, 12975.00
1083.249, 12747.00
1084.350, 12573.00
1085.451, 12471.00
1086.551, 12224.00
1087.652, 11978.00
1088.752, 12041.00
1089.853, 11852.00
1090.953, 11677.00
1092.053, 11749.00
1093.152, 11601.00
1094.252, 11609.00
1095.351, 11404.00
1096.451, 11370.00
1097.550, 11354.00
1098.649, 11085.00
1099.748, 11043.00
1100.846, 10976.00
1101.945, 11080.00
1103.043, 10955.00
1104.141, 10857.00
1105.239, 10799.00
1106.337, 10769.31
1107.434, 10689.00
1108.532, 10739.00
1109.629, 10764.00
1110.726, 10674.00
1111.823, 10665.00
1112.920, 10666.00
1114.017, 10582.00
1115.113, 10849.00
1116.210, 10812.00
1117.306, 10901.00
1118.402, 11107.00
1119.498, 11138.00
1120.593, 11155.00
1121.689, 11153.00
1122.784, 11248.00
1123.879, 11251.00
1124.974, 11154.00
1126.069, 10929.00
1127.164, 10875.00
1128.259, 10812.00
1129.353, 10646.00
1130.447, 10606.00
1131.541, 10467.00
1132.635, 10341.00
1133.729, 10180.00
1134.822, 10148.00
1135.916, 10052.00
1137.009, 10028.00
1138.102, 9964.000
1139.195, 9868.000
1140.288, 9824.000
1141.380, 9707.000
1142.473, 9725.000
1143.565, 9637.000
1144.657, 9761.000
1145.749, 9695.000
1146.841, 9538.000
1147.932, 9613.000
1149.024, 9419.000
1150.115, 9457.000
1151.206, 9505.000
1152.297, 9301.000
1153.388, 9421.000
1154.479, 9333.000
1155.569, 9314.000
1156.659, 9086.000
1157.750, 9319.000
1158.839, 9081.000
1159.929, 9152.000
1161.019, 9219.000
1162.108, 8990.000
1163.198, 9082.000
1164.287, 9220.000
1165.376, 9173.000
1166.465, 9169.000
1167.553, 9278.000
1168.642, 9209.000
1169.730, 9257.000
1170.818, 9264.000
1171.906, 9299.000
1172.994, 9434.000
1174.082, 9387.000
1175.170, 9487.000
1176.257, 9677.000
1177.344, 9714.000
1178.431, 9808.488
1179.518, 9856.000
1180.605, 9934.000
1181.691, 9876.000
1182.778, 9959.000
1183.864, 9817.000
1184.950, 10002.00
1186.036, 10093.00
1187.122, 10046.00
1188.207, 9986.000
1189.292, 10089.00
1190.378, 10040.00
1191.463, 10064.58
1192.548, 10171.00
1193.632, 10100.00
1194.717, 10113.00
1195.801, 10152.00
1196.886, 10170.00
1197.970, 10392.00
1199.054, 10645.00
1200.137, 10366.00
1201.221, 10309.00
1202.305, 10333.00
1203.388, 10471.00
1204.471, 10562.00
1205.554, 10569.00
1206.637, 10582.00
1207.719, 10804.00
1208.802, 10783.00
1209.884, 10789.00
1210.966, 10846.00
1212.048, 10848.00
1213.130, 10852.00
1214.212, 10752.00
1215.293, 10852.00
1216.374, 10581.00
1217.456, 10584.00
1218.536, 10288.00
1219.617, 10126.00
1220.698, 9960.000
1221.778, 9936.000
1222.859, 9613.000
1223.939, 9642.000
1225.019, 9515.000
1226.099, 9443.000
1227.178, 9257.000
1228.258, 9211.000
1229.337, 9200.000
1230.417, 9202.000
1231.496, 9117.433
1232.574, 9078.048
1233.653, 8974.000
1234.732, 8913.000
1235.810, 8867.000
1236.888, 8743.000
1237.966, 8789.000
1239.044, 8891.000
1240.122, 8780.000
1241.199, 8710.000
1242.277, 8566.000
1243.354, 8667.000
1244.431, 8599.000
1245.508, 8591.000
1246.585, 8582.564
1247.661, 8486.000
1248.738, 8504.000
1249.814, 8487.000
1250.890, 8431.000
1251.966, 8450.000
1253.042, 8446.000
1254.117, 8335.000
1255.193, 8458.000
1256.268, 8410.000
1257.343, 8286.000
1258.418, 8344.000
1259.493, 8354.000
1260.567, 8345.000
1261.642, 8332.000
1262.716, 8323.376
1263.790, 8337.284
1264.864, 8299.000
1265.938, 8368.000
1267.011, 8381.000
1268.085, 8386.357
1269.158, 8370.000
1270.231, 8364.000
1271.304, 8306.000
1272.377, 8289.000
1273.450, 8244.000
1274.522, 8318.000
1275.594, 8259.208
1276.666, 8287.000
1277.738, 8220.000
1278.810, 8300.000
1279.882, 8316.000
1280.953, 8338.000
1282.025, 8251.000
1283.096, 8293.000
1284.167, 8273.000
1285.238, 8334.000
1286.308, 8318.000
1287.379, 8243.000
1288.449, 8253.000
1289.519, 8284.000
1290.589, 8241.000
1291.659, 8284.000
1292.729, 8271.000
1293.798, 8324.000
1294.868, 8135.000
1295.937, 8234.000
1297.006, 8225.000
1298.075, 8248.000
1299.143, 8311.000
1300.212, 8270.000
1301.280, 8242.000
1302.348, 8345.000
1303.416, 8235.000
1304.484, 8220.000
1305.552, 8304.000
1306.620, 8208.000
1307.687, 8258.000
1308.754, 8236.000
1309.821, 8207.000
1310.888, 8245.000
1311.955, 8097.000
1313.021, 8217.000
1314.088, 8198.000
1315.154, 8274.000
1316.220, 8130.000
1317.286, 8256.000
1318.352, 8182.000
1319.417, 8201.000
1320.483, 8225.000
1321.548, 8189.000
1322.613, 8215.000
1323.678, 8215.804
1324.743, 8241.000
1325.807, 8194.000
1326.872, 8257.000
1327.936, 8168.000
1329.000, 8234.000
1330.064, 8233.000
1331.128, 8307.000
1332.191, 8214.000
1333.255, 8315.000
1334.318, 8239.000
1335.381, 8305.000
1336.444, 8227.000
1337.507, 8225.000
1338.569, 8336.000
1339.632, 8227.000
1340.694, 8226.000
1341.756, 8285.000
1342.818, 8142.000
1343.880, 8198.000
1344.941, 8232.000
1346.003, 8228.000
1347.064, 8354.000
1348.125, 8369.116
1349.186, 8178.000
1350.247, 8396.000
1351.308, 8341.000
1352.368, 8176.000
1353.428, 8246.000
1354.489, 8239.000
1355.549, 8215.000
1356.608, 8125.000
1357.668, 8147.000
1358.727, 8119.601
1359.787, 8116.686
1360.846, 8106.000
1361.905, 8163.000
1362.964, 8132.000
1364.022, 8195.000
1365.081, 8212.000
1366.139, 8133.000
1367.197, 8181.000
1368.255, 8146.000
1369.313, 8234.000
1370.371, 8111.000
1371.428, 8172.000
1372.486, 8055.000
1373.543, 8151.000
1374.600, 8085.000
1375.657, 8141.000
1376.713, 8057.000
1377.770, 8092.000
1378.826, 8072.000
1379.882, 8174.000
1380.938, 8269.000
1381.994, 8324.000
1383.050, 8390.000
1384.106, 8583.000
1385.161, 8586.000
1386.216, 8521.000
1387.271, 8453.000
1388.326, 8266.000
1389.381, 8241.000
1390.435, 8136.000
1391.490, 8060.000
1392.544, 8170.000
1393.598, 8034.000
1394.652, 8241.000
1395.705, 8006.000
1396.759, 7962.000
1397.812, 8125.000
1398.866, 8156.000
1399.919, 8114.000
1400.972, 8073.000
1402.024, 8117.000
1403.077, 8083.000
1404.129, 8092.200
1405.181, 8064.000
1406.233, 8075.560
1407.285, 8066.000
1408.337, 8106.000
1409.389, 8128.000
1410.440, 8156.000
1411.491, 8122.000
1412.542, 8138.120
1413.593, 8145.000
1414.644, 8114.000
1415.695, 8127.000
1416.745, 8092.000
1417.795, 8062.000
1418.845, 8025.000
1419.895, 8049.000
1420.945, 8053.000
1421.995, 7977.000
1423.044, 8049.000
1424.093, 8106.000
1425.142, 8052.000
1426.191, 8020.000
1427.240, 7972.000
1428.289, 8063.000
1429.337, 8162.000
1430.385, 8129.000
1431.433, 8130.000
1432.481, 8152.000
1433.529, 8092.000
1434.577, 8122.000
1435.624, 8266.000
1436.672, 8074.000
1437.719, 8166.000
1438.766, 8314.000
1439.812, 8224.955
1440.859, 8300.379
1441.905, 8273.000
1442.952, 8203.000
1443.998, 8309.000
1445.044, 8073.000
1446.090, 8052.000
1447.135, 8207.000
1448.181, 8153.000
1449.226, 8079.000
1450.271, 8139.000
1451.316, 8068.000
1452.361, 8154.000
1453.405, 8240.000
1454.450, 8268.000
1455.494, 8163.000
1456.538, 8612.000
1457.582, 8190.000
1458.626, 8406.000
1459.670, 8910.000
1460.713, 9714.000
1461.757, 9267.000
1462.800, 9643.000
1463.843, 8843.000
1464.886, 8149.000
1465.928, 8115.000
1466.971, 8158.000
1468.013, 8053.000
1469.055, 8191.000
1470.097, 8090.000
1471.139, 8074.000
1472.181, 8239.000
1473.222, 8066.000
1474.263, 8220.000
1475.305, 8097.000
1476.346, 8032.000
1477.386, 8168.000
1478.427, 8168.000
1479.468, 8093.000
1480.508, 8121.000
1481.548, 8088.000
1482.588, 8068.191
1483.628, 8139.000
1484.668, 8076.000
1485.707, 8062.000
1486.747, 8143.000
1487.786, 8205.000
1488.825, 8243.000
1489.864, 8084.000
1490.902, 8139.000
1491.941, 8175.000
1492.979, 8328.000
1494.017, 8266.912
1495.055, 8296.000
1496.093, 8181.000
1497.131, 8180.000
1498.168, 8112.000
1499.206, 8098.457
1500.243, 8184.000
1501.280, 8101.000
1502.317, 8159.000
1503.354, 8179.000
1504.390, 8181.000
1505.426, 8163.000
1506.463, 8188.000
1507.499, 8103.000
1508.535, 8063.000
1509.570, 8153.000
1510.606, 8110.000
1511.641, 8143.000
1512.676, 8191.000
1513.711, 8188.000
1514.746, 8161.000
1515.781, 8186.000
1516.816, 8183.000
1517.850, 8118.000
1518.884, 8228.000
1519.918, 8268.000
1520.952, 8240.000
1521.986, 8094.000
1523.019, 8165.000
1524.053, 8196.000
1525.086, 8219.000
1526.119, 8242.000
1527.152, 8281.000
1528.185, 8174.000
1529.217, 8199.000
1530.250, 8116.000
1531.282, 8175.000
1532.314, 8224.000
1533.346, 8256.000
1534.377, 8222.000
1535.409, 8112.000
1536.440, 8257.000
1537.472, 8180.000
1538.503, 8155.000
1539.534, 8180.000
1540.564, 8224.000
1541.595, 8160.000
1542.625, 8108.000
1543.656, 8141.000
1544.686, 8259.000
1545.716, 8215.000
1546.745, 8393.000
1547.775, 8162.000
1548.804, 8283.000
1549.834, 8310.000
1550.863, 8244.000
1551.892, 8379.000
1552.920, 8341.000
1553.949, 8303.000
1554.977, 8391.000
1556.006, 8333.000
1557.034, 8247.000
1558.062, 8266.000
1559.089, 8172.000
1560.117, 8164.000
1561.144, 8179.000
1562.172, 8229.000
1563.199, 8309.000
1564.226, 8210.000
1565.252, 8201.000
1566.279, 8298.000
1567.305, 8174.000
1568.332, 8270.000
1569.358, 8204.000
1570.384, 8250.000
1571.409, 8277.000
##END=



