##NAMES=Beryl
##RRUFFID=R060943
##IDEAL CHEMISTRY=Be_3_Al_2_Si_6_O_18_
##LOCALITY=Xinjiang, China
##OWNER=RRUFF
##SOURCE=Lawrence W. Snee
##DESCRIPTION=Green hexagonal prisms, variety emerald
##STATUS=The identification of this mineral has been confirmed by X-ray diffraction and chemical analysis
##URL=rruff.info/R060943
##MEASURED CHEMISTRY=(Be_2.96_Li_0.04_)_Σ=3_(Al_1.64_Mg_0.21_V^3+^_0.06_Fe^3+^_0.04_Sc^3+^_0.03_Cr^3+^_0.02_)_Σ=2_Si_6.00_O_18_·Na_0.25_
##PIN_ID=L01186
##ORIENTATION=Laser parallel to -c* (0 0 -1). Fiducial mark perpendicular to laser is parallel to a [1 0 0]
167.3340, 9348.000
168.5670, 9338.426
169.8000, 9360.000
171.0320, 9275.000
172.2650, 9302.000
173.4970, 9283.000
174.7290, 9329.000
175.9610, 9277.000
177.1930, 9394.000
178.4240, 9304.000
179.6550, 9288.000
180.8870, 9421.000
182.1170, 9322.000
183.3480, 9359.000
184.5790, 9450.000
185.8090, 9523.000
187.0390, 9668.000
188.2690, 9767.000
189.4990, 9742.000
190.7290, 9799.000
191.9580, 9776.000
193.1870, 9878.000
194.4160, 9930.000
195.6450, 9821.000
196.8740, 9970.000
198.1020, 9822.000
199.3310, 9907.000
200.5590, 9800.000
201.7870, 9845.000
203.0140, 9681.000
204.2420, 9443.000
205.4690, 9259.000
206.6960, 9043.000
207.9230, 9005.000
209.1500, 8783.000
210.3760, 8936.000
211.6030, 8944.000
212.8290, 8963.000
214.0550, 8957.000
215.2810, 8947.000
216.5060, 8950.034
217.7320, 9034.000
218.9570, 8967.000
220.1820, 8974.000
221.4070, 9044.000
222.6320, 9139.000
223.8560, 8981.000
225.0800, 9083.000
226.3040, 9099.000
227.5280, 9023.000
228.7520, 8888.000
229.9760, 9093.000
231.1990, 9046.000
232.4220, 9127.000
233.6450, 9143.000
234.8680, 9297.000
236.0910, 9310.000
237.3130, 9308.000
238.5350, 9285.000
239.7570, 9356.000
240.9790, 9394.000
242.2010, 9557.000
243.4220, 9616.000
244.6430, 9646.000
245.8640, 9785.000
247.0850, 9818.000
248.3060, 9823.000
249.5270, 9932.000
250.7470, 9895.000
251.9670, 9648.000
253.1870, 9278.000
254.4070, 9045.000
255.6260, 8666.000
256.8460, 8600.000
258.0650, 8596.000
259.2840, 8331.494
260.5030, 8248.399
261.7220, 8041.000
262.9400, 7926.000
264.1580, 7858.000
265.3760, 7738.000
266.5940, 7854.000
267.8120, 8040.000
269.0290, 8011.000
270.2470, 8161.000
271.4640, 8020.000
272.6810, 7875.000
273.8980, 8001.000
275.1140, 7869.000
276.3310, 7883.000
277.5470, 7942.000
278.7630, 7941.000
279.9790, 8000.000
281.1940, 8054.000
282.4100, 8113.916
283.6250, 8153.000
284.8400, 8286.000
286.0550, 8356.000
287.2700, 8475.000
288.4850, 8420.000
289.6990, 8489.000
290.9130, 8679.000
292.1270, 8673.000
293.3410, 8542.000
294.5540, 8516.000
295.7680, 8661.000
296.9810, 8461.000
298.1940, 8592.000
299.4070, 8595.000
300.6200, 8594.000
301.8320, 8575.000
303.0450, 8614.000
304.2570, 8711.000
305.4690, 8857.000
306.6800, 9001.000
307.8920, 9080.000
309.1030, 9255.000
310.3150, 9583.000
311.5260, 9838.000
312.7360, 10334.00
313.9470, 10857.00
315.1580, 11453.00
316.3680, 12022.00
317.5780, 12840.00
318.7880, 13764.00
319.9980, 14879.00
321.2070, 16139.00
322.4170, 17296.00
323.6260, 18558.00
324.8350, 18288.00
326.0430, 17222.00
327.2520, 15614.00
328.4610, 13576.00
329.6690, 11697.00
330.8770, 10497.00
332.0850, 9562.000
333.2920, 8825.000
334.5000, 8437.000
335.7070, 8040.000
336.9140, 7889.000
338.1210, 7715.000
339.3280, 7591.000
340.5350, 7415.000
341.7410, 7512.000
342.9470, 7451.000
344.1540, 7476.000
345.3590, 7412.000
346.5650, 7389.428
347.7710, 7373.875
348.9760, 7361.000
350.1810, 7297.000
351.3860, 7360.000
352.5910, 7266.000
353.7950, 7325.000
355.0000, 7379.000
356.2040, 7313.000
357.4080, 7235.000
358.6120, 7348.000
359.8150, 7385.000
361.0190, 7288.000
362.2220, 7305.000
363.4250, 7398.000
364.6280, 7389.000
365.8310, 7302.000
367.0340, 7420.000
368.2360, 7480.000
369.4380, 7353.000
370.6400, 7511.000
371.8420, 7489.000
373.0440, 7734.000
374.2450, 7705.000
375.4470, 7879.000
376.6480, 7939.000
377.8490, 8061.000
379.0490, 8260.000
380.2500, 8366.000
381.4500, 8616.000
382.6510, 8805.000
383.8510, 8941.000
385.0500, 9032.000
386.2500, 9345.000
387.4500, 9623.000
388.6490, 9936.000
389.8480, 10262.00
391.0470, 10704.00
392.2460, 11285.00
393.4440, 11926.00
394.6430, 12562.00
395.8410, 13242.00
397.0390, 13954.00
398.2370, 14082.00
399.4340, 13860.00
400.6320, 13327.00
401.8290, 12377.00
403.0260, 11504.00
404.2230, 10729.00
405.4200, 10018.00
406.6170, 9557.000
407.8130, 9234.000
409.0090, 8687.000
410.2050, 8647.000
411.4010, 8531.000
412.5970, 8349.000
413.7920, 8331.000
414.9880, 8325.000
416.1830, 8317.000
417.3780, 8285.000
418.5730, 8176.000
419.7670, 8186.000
420.9620, 8089.000
422.1560, 8150.000
423.3500, 8072.000
424.5440, 7936.000
425.7380, 7969.000
426.9310, 7844.000
428.1240, 7989.000
429.3180, 8028.000
430.5110, 8114.000
431.7030, 8184.000
432.8960, 8280.643
434.0890, 8399.000
435.2810, 8495.000
436.4730, 8712.000
437.6650, 8826.000
438.8570, 9041.000
440.0480, 9129.000
441.2390, 9166.000
442.4310, 9318.000
443.6220, 9306.000
444.8120, 9096.000
446.0030, 8923.000
447.1940, 8676.000
448.3840, 8454.000
449.5740, 8126.000
450.7640, 8034.000
451.9540, 7934.000
453.1430, 7879.000
454.3330, 7898.000
455.5220, 7732.000
456.7110, 7821.000
457.9000, 7778.000
459.0890, 7694.000
460.2770, 7697.000
461.4650, 7632.000
462.6540, 7675.000
463.8420, 7637.000
465.0290, 7553.000
466.2170, 7577.000
467.4050, 7572.000
468.5920, 7609.000
469.7790, 7682.000
470.9660, 7549.000
472.1530, 7561.000
473.3390, 7633.000
474.5250, 7546.000
475.7120, 7585.000
476.8980, 7623.000
478.0840, 7740.000
479.2690, 7786.000
480.4550, 7569.000
481.6400, 7651.000
482.8250, 7691.000
484.0100, 7646.000
485.1950, 7689.000
486.3800, 7726.000
487.5640, 7658.000
488.7480, 7708.000
489.9320, 7707.000
491.1160, 7693.000
492.3000, 7698.000
493.4840, 7728.059
494.6670, 7705.000
495.8500, 7824.000
497.0330, 7907.000
498.2160, 8000.000
499.3990, 7937.000
500.5810, 8153.000
501.7630, 8019.000
502.9460, 8127.000
504.1280, 8163.000
505.3090, 8308.000
506.4910, 8242.000
507.6720, 8369.000
508.8540, 8402.000
510.0350, 8654.000
511.2160, 8662.000
512.3960, 8963.000
513.5770, 9098.000
514.7570, 9406.000
515.9380, 9699.000
517.1180, 9922.000
518.2970, 10260.00
519.4770, 10632.00
520.6570, 10912.00
521.8360, 11193.00
523.0150, 11249.00
524.1940, 11562.00
525.3730, 11385.00
526.5510, 11166.00
527.7300, 10728.00
528.9080, 10301.00
530.0860, 9826.000
531.2640, 9416.000
532.4420, 8979.000
533.6200, 8673.000
534.7970, 8362.000
535.9740, 8156.000
537.1510, 8019.000
538.3280, 7812.000
539.5050, 7717.000
540.6810, 7649.000
541.8580, 7521.000
543.0340, 7491.000
544.2100, 7336.000
545.3860, 7327.000
546.5610, 7294.000
547.7370, 7194.000
548.9120, 7195.000
550.0870, 7177.000
551.2620, 7072.000
552.4370, 7194.000
553.6120, 7137.000
554.7860, 7111.000
555.9600, 7164.000
557.1340, 7233.000
558.3080, 7275.000
559.4820, 7366.000
560.6560, 7403.000
561.8290, 7428.000
563.0020, 7331.000
564.1750, 7416.000
565.3480, 7488.000
566.5210, 7383.000
567.6930, 7442.000
568.8660, 7467.000
570.0380, 7538.000
571.2100, 7604.163
572.3820, 7663.000
573.5530, 7781.000
574.7250, 7668.000
575.8960, 7789.000
577.0670, 7649.000
578.2380, 7763.000
579.4090, 7855.000
580.5800, 7673.000
581.7500, 7777.000
582.9210, 7678.000
584.0910, 7846.000
585.2610, 7779.141
586.4300, 7652.000
587.6000, 7693.000
588.7690, 7744.000
589.9390, 7659.000
591.1080, 7702.000
592.2770, 7662.000
593.4450, 7640.000
594.6140, 7694.000
595.7820, 7672.000
596.9500, 7686.638
598.1190, 7660.000
599.2860, 7679.000
600.4540, 7681.000
601.6220, 7631.000
602.7890, 7709.000
603.9560, 7606.000
605.1230, 7710.000
606.2900, 7712.843
607.4570, 7743.557
608.6230, 7794.000
609.7890, 7896.000
610.9560, 7977.000
612.1220, 8155.000
613.2870, 8332.000
614.4530, 8485.000
615.6180, 8626.000
616.7840, 8875.000
617.9490, 8954.000
619.1140, 9078.000
620.2790, 8956.000
621.4430, 8803.000
622.6080, 8541.000
623.7720, 8405.000
624.9360, 8071.000
626.1000, 7978.000
627.2640, 7814.000
628.4270, 7756.000
629.5910, 7719.000
630.7540, 7621.000
631.9170, 7581.000
633.0800, 7687.000
634.2430, 7621.000
635.4050, 7716.000
636.5680, 7632.000
637.7300, 7619.000
638.8920, 7631.000
640.0540, 7682.000
641.2150, 7676.015
642.3770, 7677.000
643.5380, 7723.000
644.7000, 7726.000
645.8610, 7787.000
647.0210, 7776.446
648.1820, 7808.000
649.3430, 7815.000
650.5030, 7800.000
651.6630, 7923.000
652.8230, 7917.000
653.9830, 8026.000
655.1430, 8122.000
656.3020, 8105.000
657.4620, 8205.000
658.6210, 8475.000
659.7800, 8465.000
660.9390, 8624.000
662.0970, 8856.000
663.2560, 8944.000
664.4140, 9313.000
665.5720, 9624.000
666.7300, 10105.00
667.8880, 10420.00
669.0460, 10962.00
670.2030, 11646.00
671.3600, 12656.00
672.5180, 13842.00
673.6740, 15067.00
674.8310, 17131.00
675.9880, 19484.00
677.1440, 22415.00
678.3010, 26230.00
679.4570, 30540.00
680.6130, 35469.00
681.7690, 41223.00
682.9240, 47385.00
684.0800, 53291.00
685.2350, 57981.00
686.3900, 59534.00
687.5450, 56488.00
688.7000, 51080.00
689.8540, 43379.00
691.0090, 35950.00
692.1630, 29571.00
693.3170, 24744.00
694.4710, 21168.00
695.6250, 18134.00
696.7780, 16380.00
697.9320, 14651.00
699.0850, 13750.00
700.2380, 12686.00
701.3910, 12021.00
702.5440, 11207.00
703.6970, 10894.00
704.8490, 10449.00
706.0010, 10074.00
707.1530, 9695.000
708.3050, 9564.000
709.4570, 9338.000
710.6090, 9164.000
711.7600, 8885.000
712.9110, 8764.000
714.0620, 8554.000
715.2130, 8464.000
716.3640, 8344.000
717.5150, 8187.000
718.6650, 8144.000
719.8150, 8045.000
720.9650, 7981.241
722.1150, 7896.402
723.2650, 7807.630
724.4150, 7715.000
725.5640, 7643.000
726.7130, 7545.000
727.8630, 7486.127
729.0110, 7449.496
730.1600, 7445.000
731.3090, 7448.000
732.4570, 7499.000
733.6060, 7600.000
734.7540, 7554.000
735.9020, 7571.000
737.0490, 7540.000
738.1970, 7506.000
739.3440, 7475.000
740.4920, 7435.000
741.6390, 7417.000
742.7860, 7417.530
743.9320, 7414.421
745.0790, 7453.000
746.2250, 7447.000
747.3720, 7493.000
748.5180, 7526.281
749.6640, 7452.000
750.8100, 7625.000
751.9550, 7602.000
753.1010, 7633.000
754.2460, 7574.000
755.3910, 7602.000
756.5360, 7647.523
757.6810, 7775.000
758.8250, 7795.000
759.9700, 7850.000
761.1140, 7978.000
762.2580, 7907.000
763.4020, 7988.000
764.5460, 7921.000
765.6900, 7988.000
766.8330, 8114.000
767.9760, 8060.000
769.1200, 7992.000
770.2620, 8097.000
771.4050, 8105.000
772.5480, 8086.000
773.6900, 8030.000
774.8330, 7980.000
775.9750, 7881.000
777.1170, 7897.000
778.2590, 7909.000
779.4000, 7829.979
780.5420, 7734.000
781.6830, 7741.000
782.8240, 7698.000
783.9650, 7696.000
785.1060, 7624.000
786.2470, 7620.000
787.3870, 7588.222
788.5280, 7518.000
789.6680, 7535.000
790.8080, 7417.000
791.9480, 7375.000
793.0870, 7345.000
794.2270, 7330.913
795.3660, 7358.000
796.5060, 7355.000
797.6450, 7347.000
798.7830, 7326.000
799.9220, 7310.000
801.0610, 7270.000
802.1990, 7267.000
803.3370, 7255.896
804.4750, 7255.454
805.6130, 7282.000
806.7510, 7263.000
807.8890, 7338.000
809.0260, 7324.000
810.1630, 7313.000
811.3000, 7270.000
812.4370, 7260.000
813.5740, 7229.000
814.7110, 7256.000
815.8470, 7230.377
816.9830, 7209.000
818.1190, 7199.000
819.2550, 7165.000
820.3910, 7125.000
821.5270, 7125.385
822.6620, 7120.000
823.7970, 7127.000
824.9330, 7255.000
826.0670, 7294.000
827.2020, 7240.000
828.3370, 7194.000
829.4710, 7211.000
830.6060, 7205.000
831.7400, 7145.000
832.8740, 7203.000
834.0080, 7225.000
835.1410, 7241.000
836.2750, 7190.000
837.4080, 7245.000
838.5410, 7275.000
839.6740, 7300.000
840.8070, 7216.000
841.9400, 7278.000
843.0730, 7124.000
844.2050, 7299.000
845.3370, 7226.000
846.4690, 7369.000
847.6010, 7270.000
848.7330, 7281.000
849.8640, 7369.000
850.9960, 7347.000
852.1270, 7305.000
853.2580, 7380.000
854.3890, 7371.000
855.5200, 7343.169
856.6500, 7326.000
857.7810, 7262.000
858.9110, 7281.000
860.0410, 7212.000
861.1710, 7293.000
862.3010, 7415.000
863.4310, 7356.000
864.5600, 7336.000
865.6900, 7254.000
866.8190, 7408.000
867.9480, 7454.000
869.0770, 7362.000
870.2050, 7373.000
871.3340, 7329.000
872.4620, 7351.000
873.5900, 7389.000
874.7180, 7398.000
875.8460, 7365.362
876.9740, 7424.000
878.1010, 7342.000
879.2290, 7408.000
880.3560, 7557.000
881.4830, 7484.000
882.6100, 7357.000
883.7370, 7478.000
884.8630, 7534.000
885.9900, 7542.000
887.1160, 7547.000
888.2420, 7569.000
889.3680, 7644.000
890.4940, 7610.000
891.6200, 7715.000
892.7450, 7591.000
893.8700, 7728.000
894.9960, 7702.000
896.1210, 7839.000
897.2460, 7825.000
898.3700, 7987.000
899.4950, 7974.000
900.6190, 7977.000
901.7430, 8014.000
902.8670, 8060.000
903.9910, 8078.000
905.1150, 8164.000
906.2390, 8318.000
907.3620, 8351.000
908.4850, 8367.000
909.6080, 8366.000
910.7310, 8538.000
911.8540, 8637.000
912.9770, 8729.000
914.0990, 8683.000
915.2210, 8807.000
916.3440, 8925.000
917.4660, 8784.000
918.5870, 8745.000
919.7090, 8895.000
920.8310, 8738.000
921.9520, 8652.000
923.0730, 8715.000
924.1940, 8636.000
925.3150, 8519.000
926.4360, 8549.000
927.5560, 8392.000
928.6770, 8394.000
929.7970, 8422.000
930.9170, 8342.000
932.0370, 8327.000
933.1570, 8367.000
934.2760, 8171.000
935.3960, 8206.000
936.5150, 8167.000
937.6340, 8095.000
938.7530, 8043.000
939.8720, 7960.000
940.9910, 8021.000
942.1090, 8035.000
943.2280, 8108.000
944.3460, 8031.300
945.4640, 7949.000
946.5820, 7907.000
947.6990, 7838.000
948.8170, 7862.000
949.9340, 7755.000
951.0520, 7893.000
952.1690, 7795.000
953.2860, 7925.000
954.4030, 7876.000
955.5190, 7813.000
956.6360, 7832.000
957.7520, 7879.000
958.8680, 7903.000
959.9840, 7931.000
961.1000, 7936.000
962.2160, 7934.543
963.3310, 7893.000
964.4470, 7926.000
965.5620, 7933.000
966.6770, 7965.000
967.7920, 8036.000
968.9060, 7915.000
970.0210, 7988.000
971.1360, 7985.000
972.2500, 8069.000
973.3640, 8056.000
974.4780, 8236.000
975.5920, 8244.000
976.7050, 8280.000
977.8190, 8269.000
978.9320, 8176.000
980.0450, 8370.000
981.1580, 8404.000
982.2710, 8620.000
983.3840, 8579.000
984.4970, 8862.000
985.6090, 8957.000
986.7210, 9201.000
987.8330, 9329.000
988.9450, 9504.000
990.0570, 9784.000
991.1690, 10063.00
992.2800, 10277.00
993.3920, 10615.00
994.5030, 10890.00
995.6140, 11248.00
996.7250, 11640.00
997.8350, 11912.18
998.9460, 12290.00
1000.056, 12514.00
1001.167, 12815.00
1002.277, 13113.00
1003.387, 13508.00
1004.496, 13528.00
1005.606, 13945.00
1006.715, 13949.00
1007.825, 14133.00
1008.934, 14177.00
1010.043, 14106.00
1011.152, 14015.00
1012.260, 13781.00
1013.369, 13585.00
1014.477, 13293.00
1015.586, 13134.00
1016.694, 12783.00
1017.802, 12574.00
1018.909, 12282.00
1020.017, 12023.00
1021.124, 11914.00
1022.232, 11751.00
1023.339, 11482.00
1024.446, 11276.00
1025.553, 11102.00
1026.659, 10992.99
1027.766, 10968.00
1028.872, 10913.00
1029.979, 10952.00
1031.085, 11023.00
1032.191, 11007.00
1033.296, 10829.00
1034.402, 11112.00
1035.507, 11154.00
1036.613, 11194.00
1037.718, 11442.00
1038.823, 11615.00
1039.928, 11743.00
1041.032, 11963.00
1042.137, 12224.20
1043.241, 12656.00
1044.346, 12840.00
1045.450, 13385.00
1046.554, 13760.00
1047.657, 14451.00
1048.761, 15224.00
1049.864, 15948.00
1050.968, 16976.00
1052.071, 18068.00
1053.174, 19325.00
1054.277, 20895.00
1055.379, 22763.00
1056.482, 24968.00
1057.584, 27451.00
1058.687, 29799.00
1059.789, 33004.00
1060.891, 35979.00
1061.992, 39330.00
1063.094, 42251.00
1064.196, 44853.00
1065.297, 46462.00
1066.398, 47886.00
1067.499, 48031.00
1068.600, 47389.00
1069.701, 46564.00
1070.801, 44565.00
1071.902, 42799.00
1073.002, 40145.00
1074.102, 37898.00
1075.202, 35718.00
1076.302, 33072.00
1077.402, 30480.00
1078.501, 28363.00
1079.600, 26278.00
1080.700, 24626.00
1081.799, 23109.00
1082.898, 21981.00
1083.996, 20762.00
1085.095, 19799.00
1086.193, 18770.00
1087.292, 17924.00
1088.390, 17126.00
1089.488, 16443.00
1090.586, 15838.00
1091.683, 15506.00
1092.781, 15014.00
1093.878, 14614.00
1094.975, 14241.00
1096.073, 13822.00
1097.169, 13414.00
1098.266, 13164.52
1099.363, 12914.00
1100.459, 12640.00
1101.556, 12483.77
1102.652, 12306.00
1103.748, 12197.00
1104.844, 12089.00
1105.940, 11992.00
1107.035, 11961.00
1108.131, 11662.00
1109.226, 11527.00
1110.321, 11452.00
1111.416, 11441.00
1112.511, 11445.00
1113.605, 11497.00
1114.700, 11444.14
1115.794, 11247.00
1116.889, 11381.00
1117.983, 11321.00
1119.077, 11312.00
1120.170, 11431.00
1121.264, 11585.00
1122.357, 11678.00
1123.451, 11744.00
1124.544, 11793.00
1125.637, 11942.00
1126.730, 11956.00
1127.823, 12067.00
1128.915, 12031.00
1130.008, 12028.00
1131.100, 12103.00
1132.192, 12072.00
1133.284, 11893.00
1134.376, 11647.00
1135.467, 11554.00
1136.559, 11354.00
1137.650, 11114.00
1138.742, 10886.00
1139.833, 10709.00
1140.924, 10417.00
1142.014, 10174.00
1143.105, 10089.00
1144.195, 9849.000
1145.286, 9690.000
1146.376, 9487.000
1147.466, 9448.000
1148.556, 9382.000
1149.646, 9129.000
1150.735, 9089.000
1151.825, 8943.000
1152.914, 8872.000
1154.003, 8781.000
1155.092, 8669.000
1156.181, 8607.000
1157.270, 8598.000
1158.358, 8441.000
1159.447, 8501.000
1160.535, 8425.000
1161.623, 8406.000
1162.711, 8217.000
1163.799, 8267.000
1164.886, 8372.000
1165.974, 8288.000
1167.061, 8087.000
1168.148, 8150.000
1169.235, 8175.000
1170.322, 8115.000
1171.409, 8155.000
1172.496, 8235.000
1173.582, 8198.000
1174.669, 8226.000
1175.755, 8200.000
1176.841, 8237.000
1177.927, 8181.000
1179.012, 8203.000
1180.098, 8198.000
1181.183, 8202.000
1182.269, 8229.000
1183.354, 8173.000
1184.439, 8187.000
1185.524, 8233.000
1186.608, 8053.000
1187.693, 8097.000
1188.777, 8038.000
1189.862, 8147.000
1190.946, 8056.000
1192.030, 8143.000
1193.113, 8028.000
1194.197, 8100.000
1195.281, 8035.000
1196.364, 8047.000
1197.447, 8083.000
1198.530, 8005.000
1199.613, 8142.000
1200.696, 8006.000
1201.779, 7976.000
1202.861, 8000.000
1203.944, 8076.000
1205.026, 8022.000
1206.108, 8103.000
1207.190, 8111.000
1208.271, 8118.611
1209.353, 8132.000
1210.435, 8174.000
1211.516, 8114.000
1212.597, 8184.000
1213.678, 8149.000
1214.759, 8163.285
1215.840, 8276.000
1216.920, 8206.000
1218.001, 8210.000
1219.081, 8272.000
1220.161, 8276.000
1221.241, 8299.000
1222.321, 8192.000
1223.401, 8256.000
1224.480, 8167.000
1225.560, 8105.000
1226.639, 8209.000
1227.718, 8208.000
1228.797, 8308.000
1229.876, 8137.000
1230.955, 8152.000
1232.033, 8039.000
1233.112, 7944.000
1234.190, 8008.000
1235.268, 7984.000
1236.346, 7929.000
1237.424, 7767.000
1238.501, 7870.000
1239.579, 7782.000
1240.656, 7832.000
1241.733, 7914.000
1242.811, 7838.000
1243.888, 7810.000
1244.964, 7763.000
1246.041, 7697.000
1247.117, 7774.000
1248.194, 7663.000
1249.270, 7699.000
1250.346, 7769.000
1251.422, 7712.000
1252.498, 7736.000
1253.573, 7673.000
1254.649, 7646.000
1255.724, 7603.000
1256.800, 7639.000
1257.875, 7563.000
1258.950, 7625.000
1260.024, 7594.000
1261.099, 7646.000
1262.173, 7620.000
1263.248, 7718.000
1264.322, 7642.000
1265.396, 7629.000
1266.470, 7642.000
1267.544, 7575.000
1268.617, 7687.000
1269.691, 7791.000
1270.764, 7697.000
1271.837, 7653.000
1272.910, 7787.000
1273.983, 7718.000
1275.056, 7613.000
1276.129, 7690.000
1277.201, 7710.000
1278.273, 7617.000
1279.346, 7568.000
1280.418, 7563.000
1281.489, 7590.000
1282.561, 7603.000
1283.633, 7553.000
1284.704, 7637.000
1285.776, 7595.877
1286.847, 7684.000
1287.918, 7588.000
1288.989, 7647.000
1290.059, 7681.000
1291.130, 7722.000
1292.200, 7720.686
1293.271, 7684.000
1294.341, 7728.000
1295.411, 7590.000
1296.481, 7648.000
1297.551, 7685.000
1298.620, 7615.000
1299.690, 7722.000
1300.759, 7692.000
1301.828, 7553.000
1302.897, 7594.000
1303.966, 7557.000
1305.035, 7702.000
1306.103, 7691.000
1307.172, 7698.000
1308.240, 7669.000
1309.308, 7605.000
1310.376, 7646.000
1311.444, 7561.000
1312.512, 7642.000
1313.580, 7665.000
1314.647, 7586.000
1315.714, 7680.000
1316.781, 7573.000
1317.848, 7771.000
1318.915, 7714.000
1319.982, 7634.000
1321.049, 7621.000
1322.115, 7691.000
1323.181, 7602.000
1324.248, 7579.000
1325.314, 7696.000
1326.380, 7559.000
1327.445, 7615.000
1328.511, 7614.000
1329.576, 7608.000
1330.642, 7618.000
1331.707, 7575.000
1332.772, 7665.000
1333.837, 7597.000
1334.902, 7604.000
1335.966, 7570.000
1337.031, 7615.000
1338.095, 7615.000
1339.159, 7640.000
1340.223, 7689.000
1341.287, 7662.522
1342.351, 7566.000
1343.415, 7635.000
1344.478, 7609.000
1345.541, 7603.000
1346.605, 7654.000
1347.668, 7728.000
1348.731, 7657.000
1349.793, 7662.000
1350.856, 7560.000
1351.918, 7613.000
1352.981, 7624.000
1354.043, 7584.000
1355.105, 7645.000
1356.167, 7718.000
1357.229, 7651.000
1358.290, 7582.000
1359.352, 7673.000
1360.413, 7557.000
1361.475, 7550.000
1362.536, 7620.000
1363.597, 7619.000
1364.657, 7699.000
1365.718, 7555.000
1366.779, 7609.000
1367.839, 7607.000
1368.899, 7671.000
1369.959, 7675.000
1371.019, 7637.000
1372.079, 7681.834
1373.139, 7720.000
1374.198, 7692.000
1375.258, 7672.000
1376.317, 7634.000
1377.376, 7753.000
1378.435, 7806.000
1379.494, 7746.000
1380.553, 7985.000
1381.611, 8164.000
1382.670, 8363.000
1383.728, 8762.000
1384.786, 9048.000
1385.844, 8980.000
1386.902, 8565.000
1387.960, 8126.000
1389.017, 8038.000
1390.075, 7813.000
1391.132, 7683.000
1392.189, 7761.000
1393.246, 7701.000
1394.303, 7732.000
1395.360, 7627.000
1396.417, 7612.000
1397.473, 7794.000
1398.529, 7656.000
1399.585, 7705.000
1400.642, 7642.000
1401.697, 7711.000
1402.753, 7701.000
1403.809, 7616.000
1404.864, 7707.000
1405.920, 7686.000
1406.975, 7639.000
1408.030, 7675.000
1409.085, 7675.000
1410.140, 7620.000
1411.194, 7713.000
1412.249, 7555.000
1413.303, 7598.000
1414.358, 7739.000
1415.412, 7733.000
1416.466, 7643.000
1417.520, 7585.000
1418.573, 7683.000
1419.627, 7657.000
1420.680, 7680.000
1421.733, 7700.000
1422.787, 7679.526
1423.840, 7677.000
1424.892, 7647.000
1425.945, 7694.000
1426.998, 7659.000
1428.050, 7694.776
1429.103, 7722.825
1430.155, 7759.664
1431.207, 7798.000
1432.259, 7843.000
1433.310, 7893.000
1434.362, 7769.000
1435.414, 7821.000
1436.465, 7841.000
1437.516, 7904.000
1438.567, 7850.000
1439.618, 7856.000
1440.669, 7899.000
1441.720, 7917.000
1442.770, 7916.000
1443.820, 7877.000
1444.871, 7882.000
1445.921, 7850.000
1446.971, 7901.000
1448.021, 7874.000
1449.070, 7850.000
1450.120, 7785.000
1451.169, 7881.000
1452.219, 7830.001
1453.268, 7868.000
1454.317, 7828.000
1455.366, 7897.000
1456.414, 7912.000
1457.463, 7830.000
1458.511, 7816.000
1459.560, 7806.000
1460.608, 7784.000
1461.656, 7851.000
1462.704, 7739.000
1463.752, 7840.000
1464.799, 7781.000
1465.847, 7731.000
1466.894, 7741.000
1467.941, 7825.000
1468.988, 7782.000
1470.035, 7862.000
1471.082, 7804.000
1472.129, 7631.000
1473.175, 7776.000
1474.222, 7731.000
1475.268, 7772.000
1476.314, 7797.000
1477.360, 7731.000
1478.406, 7690.000
1479.452, 7779.000
1480.498, 7717.140
1481.543, 7736.500
1482.588, 7717.000
1483.633, 7731.000
1484.679, 7767.000
1485.723, 7764.000
1486.768, 7828.000
1487.813, 7872.000
1488.857, 7724.000
1489.902, 7772.000
1490.946, 7730.000
1491.990, 7740.000
1493.034, 7723.000
1494.078, 7747.000
1495.122, 7698.000
1496.165, 7648.000
1497.209, 7741.000
1498.252, 7708.000
1499.295, 7807.000
1500.338, 7752.000
1501.381, 7771.000
1502.424, 7725.000
1503.466, 7644.896
1504.509, 7760.571
1505.551, 7827.229
1506.593, 7847.508
1507.635, 7682.498
1508.677, 7756.750
1509.719, 7735.117
1510.761, 7709.551
1511.802, 7817.476
1512.844, 7679.415
1513.885, 7785.222
1514.926, 7793.681
1515.967, 7846.693
1517.008, 7803.228
1518.049, 7789.561
1519.089, 7872.400
1520.130, 7901.805
1521.170, 7847.230
1522.210, 7774.000
1523.250, 7714.000
1524.290, 7829.000
1525.330, 7895.000
1526.370, 7704.000
1527.409, 7779.000
1528.448, 7845.000
1529.488, 7771.000
1530.527, 7737.000
1531.566, 7748.000
1532.605, 7852.000
1533.643, 7773.000
1534.682, 7787.000
1535.720, 7675.000
1536.759, 7797.000
1537.797, 7767.246
1538.835, 8064.000
1539.873, 7887.000
1540.910, 7768.000
1541.948, 7964.000
1542.986, 7905.000
1544.023, 7907.000
1545.060, 7766.000
1546.097, 7971.000
1547.134, 7824.000
1548.171, 7846.000
1549.208, 7808.000
1550.244, 7953.000
1551.281, 7982.000
1552.317, 7798.000
1553.353, 8059.000
1554.389, 8106.000
1555.425, 8003.000
1556.461, 7879.000
1557.497, 7892.000
1558.532, 7894.000
1559.567, 7929.000
1560.603, 7829.000
1561.638, 7873.000
1562.673, 7855.000
1563.708, 7902.000
##END=



