##NAMES=Beryl
##RRUFFID=R060942
##IDEAL CHEMISTRY=Be_3_Al_2_Si_6_O_18_
##LOCALITY=Mingore mine, Swat Valley, Pakistan
##OWNER=RRUFF
##SOURCE=Lawrence W. Snee
##DESCRIPTION=Green hexagonal prisms, variety emerald
##STATUS=The identification of this mineral has been confirmed by X-ray diffraction and chemical analysis
##URL=rruff.info/R060942
##MEASURED CHEMISTRY=(Be_2.94_Li_0.06_)_Σ=3_(Al_1.55_Mg_0.37_Fe^3+^_0.06_Cr^3+^_0.02_)_Σ=2_Si_6.00_O_18_·Na_0.42_; Be and Li not measured but estimated by stoichiometry
##PIN_ID=L01519
##ORIENTATION=Laser parallel to a* (1 0 0). Fiducial mark perpendicular to laser is parallel to -c [0 0 -1]
119.3650, 11497.00
120.5960, 11441.00
121.8270, 11452.00
123.0580, 11473.71
124.2880, 11511.84
125.5190, 11575.00
126.7490, 11600.00
127.9790, 11724.00
129.2090, 11671.00
130.4390, 11732.00
131.6680, 11785.00
132.8980, 11692.00
134.1270, 11754.00
135.3560, 11774.00
136.5850, 11744.00
137.8140, 11920.00
139.0430, 11966.00
140.2710, 12019.00
141.5000, 11846.00
142.7280, 11698.00
143.9560, 11683.00
145.1840, 11766.00
146.4120, 11573.00
147.6390, 11727.00
148.8670, 11684.00
150.0940, 11731.00
151.3210, 11797.00
152.5490, 11717.00
153.7750, 11600.00
155.0020, 11732.00
156.2290, 11463.00
157.4550, 11546.00
158.6810, 11753.00
159.9080, 11697.00
161.1340, 11784.29
162.3590, 11835.65
163.5850, 11789.00
164.8110, 11873.00
166.0360, 11822.00
167.2610, 11784.00
168.4860, 11832.00
169.7110, 11839.00
170.9360, 11918.00
172.1610, 11929.55
173.3850, 11951.00
174.6100, 11973.00
175.8340, 12019.00
177.0580, 12028.00
178.2820, 12159.00
179.5050, 12168.00
180.7290, 12081.00
181.9520, 12000.00
183.1760, 12161.00
184.3990, 12068.00
185.6220, 12217.00
186.8450, 12205.00
188.0670, 12212.38
189.2900, 12267.10
190.5120, 12258.00
191.7340, 12265.00
192.9560, 12340.00
194.1780, 12268.00
195.4000, 12365.00
196.6220, 12371.00
197.8430, 12369.00
199.0640, 12191.00
200.2860, 12321.00
201.5070, 12572.00
202.7270, 12380.00
203.9480, 12346.00
205.1690, 12130.00
206.3890, 11816.00
207.6090, 11787.00
208.8290, 11955.00
210.0490, 11734.00
211.2690, 11928.00
212.4890, 11846.00
213.7080, 11797.00
214.9280, 11797.00
216.1470, 11869.00
217.3660, 11927.00
218.5850, 11895.00
219.8030, 11922.00
221.0220, 11986.00
222.2400, 11992.25
223.4590, 11997.00
224.6770, 12033.00
225.8950, 12067.00
227.1120, 12016.00
228.3300, 12075.70
229.5480, 12040.00
230.7650, 12142.00
231.9820, 12184.00
233.1990, 12228.00
234.4160, 12234.00
235.6330, 12349.06
236.8490, 12385.00
238.0660, 12559.00
239.2820, 12544.00
240.4980, 12614.00
241.7140, 12737.00
242.9300, 12790.00
244.1460, 12799.00
245.3610, 12768.00
246.5770, 12627.00
247.7920, 12541.00
249.0070, 12513.00
250.2220, 12306.00
251.4370, 12285.00
252.6510, 12086.00
253.8660, 11844.00
255.0800, 11837.00
256.2940, 11777.00
257.5080, 11989.00
258.7220, 12026.75
259.9360, 12017.97
261.1490, 12230.00
262.3630, 12117.00
263.5760, 12063.00
264.7890, 12366.00
266.0020, 12293.00
267.2150, 12220.00
268.4270, 12301.00
269.6400, 12230.00
270.8520, 12178.00
272.0640, 12017.00
273.2760, 12021.18
274.4880, 11879.00
275.7000, 11970.00
276.9120, 11982.00
278.1230, 11947.00
279.3340, 12050.00
280.5450, 11852.00
281.7560, 11994.00
282.9670, 12116.00
284.1780, 12043.00
285.3880, 12210.00
286.5980, 12178.00
287.8090, 12030.00
289.0190, 12143.00
290.2290, 12117.00
291.4380, 12117.08
292.6480, 12120.00
293.8570, 12195.00
295.0670, 12200.00
296.2760, 12313.00
297.4850, 12250.10
298.6930, 12082.00
299.9020, 12165.00
301.1110, 12179.00
302.3190, 12195.00
303.5270, 12187.00
304.7350, 12127.00
305.9430, 12364.00
307.1510, 12465.00
308.3580, 12475.00
309.5660, 12691.00
310.7730, 13017.00
311.9800, 13281.00
313.1870, 13907.00
314.3940, 14393.00
315.6010, 15017.00
316.8070, 15797.00
318.0130, 16648.00
319.2200, 17210.00
320.4260, 18160.00
321.6310, 18848.00
322.8370, 19298.00
324.0430, 19085.00
325.2480, 18609.00
326.4540, 17648.00
327.6590, 16699.00
328.8640, 15681.00
330.0680, 14810.00
331.2730, 13812.00
332.4780, 13088.00
333.6820, 12585.00
334.8860, 12230.00
336.0900, 11923.00
337.2940, 11884.00
338.4980, 11694.00
339.7010, 11781.00
340.9050, 11598.00
342.1080, 11531.00
343.3110, 11647.00
344.5140, 11556.00
345.7170, 11638.00
346.9200, 11573.00
348.1220, 11527.00
349.3240, 11538.19
350.5270, 11427.00
351.7290, 11532.00
352.9310, 11450.00
354.1320, 11519.00
355.3340, 11503.00
356.5350, 11445.00
357.7370, 11379.00
358.9380, 11562.00
360.1390, 11593.00
361.3400, 11590.00
362.5400, 11623.00
363.7410, 11726.00
364.9410, 11630.00
366.1410, 11633.00
367.3410, 11705.00
368.5410, 11788.00
369.7410, 11902.00
370.9400, 11986.00
372.1400, 11782.00
373.3390, 12094.00
374.5380, 12042.00
375.7370, 12241.00
376.9360, 12339.00
378.1350, 12427.00
379.3330, 12655.00
380.5310, 12835.00
381.7300, 13122.00
382.9280, 13719.00
384.1260, 14386.00
385.3230, 14327.00
386.5210, 15056.00
387.7180, 15918.00
388.9160, 16758.00
390.1130, 18163.00
391.3100, 19687.00
392.5060, 20943.00
393.7030, 22120.00
394.9000, 23504.00
396.0960, 24718.00
397.2920, 25043.00
398.4880, 24818.00
399.6840, 24149.00
400.8800, 22974.00
402.0750, 21565.00
403.2710, 20269.00
404.4660, 18667.00
405.6610, 17530.00
406.8560, 16388.00
408.0510, 15613.00
409.2450, 15059.00
410.4400, 14522.00
411.6340, 14230.00
412.8280, 13823.00
414.0220, 13628.00
415.2160, 13460.00
416.4100, 13215.00
417.6030, 13031.00
418.7970, 12956.00
419.9900, 12813.00
421.1830, 12786.00
422.3760, 12827.00
423.5690, 12852.00
424.7610, 12779.00
425.9540, 12613.00
427.1460, 12603.00
428.3380, 12677.00
429.5300, 12527.00
430.7220, 12815.00
431.9140, 12756.00
433.1050, 12850.00
434.2970, 12949.00
435.4880, 12728.00
436.6790, 12771.00
437.8700, 12663.00
439.0610, 12576.17
440.2510, 12642.00
441.4420, 12402.00
442.6320, 12371.00
443.8220, 12219.00
445.0120, 12276.00
446.2020, 12145.00
447.3910, 11872.00
448.5810, 12049.00
449.7700, 11908.00
450.9600, 11813.00
452.1490, 12175.00
453.3370, 12132.00
454.5260, 11811.00
455.7150, 11965.00
456.9030, 11722.00
458.0910, 11740.00
459.2800, 11816.00
460.4670, 11746.00
461.6550, 11829.00
462.8430, 11714.00
464.0300, 11819.00
465.2180, 11821.00
466.4050, 11877.00
467.5920, 11760.00
468.7790, 11731.00
469.9650, 11823.00
471.1520, 11853.00
472.3380, 11914.00
473.5250, 11908.00
474.7110, 11951.13
475.8970, 12025.00
477.0820, 11997.34
478.2680, 12013.00
479.4540, 12021.00
480.6390, 11968.00
481.8240, 11934.00
483.0090, 12017.00
484.1940, 12000.00
485.3780, 12031.00
486.5630, 12064.00
487.7470, 12122.00
488.9320, 11995.00
490.1160, 12083.00
491.3000, 12281.00
492.4830, 12058.00
493.6670, 12115.00
494.8500, 12251.00
496.0340, 12117.00
497.2170, 12131.00
498.4000, 12276.00
499.5820, 12283.00
500.7650, 12289.00
501.9480, 12519.00
503.1300, 12527.00
504.3120, 12475.00
505.4940, 12663.00
506.6760, 12598.00
507.8580, 12610.00
509.0390, 12878.00
510.2210, 13063.00
511.4020, 13115.00
512.5830, 13282.00
513.7640, 13392.00
514.9450, 13751.00
516.1250, 13816.00
517.3060, 13956.00
518.4860, 13823.00
519.6660, 14018.00
520.8460, 13814.00
522.0260, 13544.00
523.2060, 13513.00
524.3850, 13284.00
525.5650, 13026.00
526.7440, 12783.00
527.9230, 12656.00
529.1020, 12416.00
530.2810, 12417.00
531.4590, 12229.00
532.6380, 12157.00
533.8160, 12072.00
534.9940, 12006.00
536.1720, 11955.00
537.3500, 11951.00
538.5270, 11844.00
539.7050, 11867.00
540.8820, 11779.00
542.0590, 11923.00
543.2360, 11940.00
544.4130, 11671.00
545.5900, 11827.00
546.7660, 11786.00
547.9430, 11935.00
549.1190, 11932.00
550.2950, 11946.00
551.4710, 11963.00
552.6470, 11937.00
553.8220, 12035.19
554.9980, 12208.00
556.1730, 12220.00
557.3480, 12403.00
558.5230, 12498.00
559.6980, 12585.00
560.8730, 12502.00
562.0470, 12706.00
563.2220, 12631.00
564.3960, 12521.00
565.5700, 12550.00
566.7440, 12566.75
567.9170, 12754.00
569.0910, 12665.00
570.2640, 12741.00
571.4380, 12690.00
572.6110, 12778.00
573.7840, 12884.00
574.9570, 12809.00
576.1290, 12715.00
577.3020, 12930.00
578.4740, 12845.00
579.6460, 12724.00
580.8180, 12711.00
581.9900, 12787.00
583.1620, 12687.00
584.3330, 12659.00
585.5040, 12739.00
586.6760, 12690.00
587.8470, 12823.00
589.0180, 12744.00
590.1880, 12626.00
591.3590, 12715.00
592.5290, 12663.00
593.7000, 12653.00
594.8700, 12613.00
596.0400, 12632.00
597.2090, 12660.00
598.3790, 12689.00
599.5490, 12698.00
600.7180, 12764.64
601.8870, 12855.00
603.0560, 12944.00
604.2250, 13113.00
605.3940, 13320.00
606.5620, 13631.00
607.7300, 13595.00
608.8990, 13878.00
610.0670, 14280.00
611.2350, 14082.00
612.4020, 14122.00
613.5700, 14027.00
614.7370, 13976.00
615.9050, 13755.00
617.0720, 13232.00
618.2390, 13180.00
619.4060, 12977.00
620.5720, 12902.00
621.7390, 12609.00
622.9050, 12388.00
624.0710, 12506.00
625.2370, 12428.00
626.4030, 12428.00
627.5690, 12404.00
628.7340, 12254.00
629.9000, 12399.00
631.0650, 12228.00
632.2300, 12328.00
633.3950, 12240.00
634.5600, 12418.00
635.7240, 12625.00
636.8890, 12448.00
638.0530, 12479.00
639.2170, 12321.00
640.3810, 12414.00
641.5450, 12569.00
642.7080, 12470.00
643.8720, 12529.00
645.0350, 12393.00
646.1980, 12634.00
647.3610, 12682.00
648.5240, 12589.00
649.6870, 12466.00
650.8490, 12621.00
652.0120, 12828.00
653.1740, 12775.00
654.3360, 12935.00
655.4980, 13032.00
656.6600, 13026.00
657.8210, 13167.00
658.9830, 13256.00
660.1440, 13405.00
661.3050, 13537.20
662.4660, 13718.37
663.6270, 13875.00
664.7870, 14186.00
665.9480, 14482.00
667.1080, 14873.00
668.2680, 15355.00
669.4280, 15932.00
670.5880, 16635.00
671.7480, 17540.00
672.9070, 18542.00
674.0670, 19879.00
675.2260, 21720.00
676.3850, 24138.00
677.5440, 27430.00
678.7030, 31637.00
679.8610, 36749.00
681.0200, 41870.00
682.1780, 47713.00
683.3360, 52991.00
684.4940, 58070.00
685.6520, 60657.00
686.8090, 60866.00
687.9670, 58499.00
689.1240, 53851.00
690.2810, 48334.00
691.4380, 42316.00
692.5950, 36571.00
693.7520, 31702.00
694.9080, 27861.00
696.0650, 24639.00
697.2210, 22508.00
698.3770, 20863.00
699.5330, 19334.00
700.6880, 18291.00
701.8440, 17414.00
702.9990, 16808.00
704.1550, 16209.00
705.3100, 15771.00
706.4650, 15484.00
707.6190, 15040.00
708.7740, 14617.00
709.9290, 14539.00
711.0830, 14276.00
712.2370, 14095.00
713.3910, 13923.00
714.5450, 13904.00
715.6980, 13429.00
716.8520, 13656.00
718.0050, 13315.00
719.1580, 13269.00
720.3110, 13270.00
721.4640, 13182.00
722.6170, 13153.00
723.7700, 13119.00
724.9220, 13014.00
726.0740, 13034.00
727.2260, 12974.00
728.3780, 12920.00
729.5300, 12993.00
730.6810, 12893.00
731.8330, 12869.00
732.9840, 12901.00
734.1350, 12847.00
735.2860, 12909.00
736.4370, 12918.00
737.5880, 12645.00
738.7380, 12758.00
739.8880, 12943.00
741.0390, 12732.00
742.1890, 12860.00
743.3380, 12857.00
744.4880, 12567.00
745.6380, 12701.00
746.7870, 12803.00
747.9360, 12791.00
749.0850, 12752.00
750.2340, 12738.00
751.3830, 12738.03
752.5310, 12760.00
753.6800, 12712.00
754.8280, 12849.00
755.9760, 12769.00
757.1240, 12860.00
758.2720, 12679.00
759.4190, 12889.00
760.5670, 12843.00
761.7140, 12713.00
762.8610, 12704.00
764.0080, 12755.00
765.1550, 12711.00
766.3020, 12852.00
767.4480, 12790.00
768.5950, 12815.00
769.7410, 12877.00
770.8870, 12893.00
772.0330, 12907.28
773.1780, 12833.00
774.3240, 12920.00
775.4690, 12907.00
776.6140, 12924.00
777.7590, 12953.00
778.9040, 12852.00
780.0490, 12869.00
781.1940, 12776.00
782.3380, 12852.00
783.4820, 12677.00
784.6260, 12611.00
785.7700, 12680.00
786.9140, 12828.00
788.0580, 12807.00
789.2010, 12800.00
790.3450, 12754.00
791.4880, 12762.00
792.6310, 12761.26
793.7730, 12785.00
794.9160, 12766.00
796.0590, 12728.00
797.2010, 12685.00
798.3430, 12744.00
799.4850, 12611.00
800.6270, 12679.00
801.7690, 12626.00
802.9100, 12604.00
804.0520, 12831.00
805.1930, 12695.00
806.3340, 12700.00
807.4750, 12570.00
808.6160, 12685.00
809.7560, 12727.00
810.8970, 12723.49
812.0370, 12700.00
813.1770, 12752.00
814.3170, 12723.00
815.4570, 12638.00
816.5960, 12768.00
817.7360, 12674.00
818.8750, 12691.00
820.0140, 12638.00
821.1530, 12666.00
822.2920, 12615.00
823.4310, 12491.00
824.5690, 12658.00
825.7070, 12740.00
826.8460, 12683.00
827.9840, 12833.00
829.1220, 12798.00
830.2590, 12718.00
831.3970, 12799.00
832.5340, 12898.00
833.6710, 12735.00
834.8080, 12763.00
835.9450, 12684.00
837.0820, 12695.00
838.2190, 12830.00
839.3550, 12660.00
840.4910, 12853.00
841.6270, 12692.00
842.7630, 12724.00
843.8990, 12756.00
845.0350, 12726.13
846.1700, 12734.00
847.3060, 12778.00
848.4410, 12758.00
849.5760, 12777.00
850.7100, 12882.00
851.8450, 12675.00
852.9800, 12813.00
854.1140, 12808.00
855.2480, 12654.00
856.3820, 12955.00
857.5160, 12849.00
858.6500, 12797.00
859.7830, 12824.00
860.9170, 12944.00
862.0500, 12851.00
863.1830, 12716.00
864.3160, 12723.00
865.4480, 12911.00
866.5810, 12819.00
867.7130, 12955.00
868.8460, 12960.00
869.9780, 12736.00
871.1100, 12789.00
872.2410, 12916.00
873.3730, 12919.00
874.5050, 12959.00
875.6360, 12900.00
876.7670, 12950.00
877.8980, 12962.36
879.0290, 12975.76
880.1590, 13004.00
881.2900, 13010.00
882.4200, 12995.00
883.5500, 13010.04
884.6800, 13030.00
885.8100, 13003.00
886.9400, 13026.00
888.0690, 13005.00
889.1990, 13021.44
890.3280, 13059.00
891.4570, 13068.00
892.5860, 13090.00
893.7140, 13145.00
894.8430, 13070.00
895.9710, 13375.32
897.1000, 13578.00
898.2280, 13831.91
899.3560, 13767.70
900.4830, 13210.00
901.6110, 13554.00
902.7380, 13434.00
903.8660, 13354.00
904.9930, 13463.00
906.1200, 13403.00
907.2460, 13454.00
908.3730, 13531.00
909.5000, 13460.00
910.6260, 13488.00
911.7520, 13572.00
912.8780, 13604.00
914.0040, 13638.00
915.1290, 13732.00
916.2550, 13741.81
917.3800, 13753.17
918.5050, 13807.00
919.6300, 13726.00
920.7550, 13762.00
921.8800, 13738.00
923.0040, 13754.00
924.1290, 13611.00
925.2530, 13691.00
926.3770, 13590.00
927.5010, 13607.00
928.6250, 13579.00
929.7480, 13695.00
930.8720, 13528.00
931.9950, 13547.00
933.1180, 13454.00
934.2410, 13540.00
935.3640, 13553.00
936.4860, 13614.00
937.6090, 13474.00
938.7310, 13533.00
939.8530, 13522.00
940.9750, 13387.00
942.0970, 13500.00
943.2180, 13525.00
944.3400, 13453.00
945.4610, 13581.00
946.5820, 13431.00
947.7030, 13432.00
948.8240, 13521.00
949.9450, 13359.00
951.0650, 13430.00
952.1860, 13651.00
953.3060, 13466.00
954.4260, 13513.00
955.5460, 13551.00
956.6650, 13513.00
957.7850, 13478.00
958.9040, 13538.00
960.0230, 13493.00
961.1420, 13523.00
962.2610, 13567.00
963.3800, 13508.00
964.4990, 13465.00
965.6170, 13649.00
966.7350, 13729.00
967.8530, 13386.00
968.9710, 13569.00
970.0890, 13676.00
971.2070, 13744.00
972.3240, 13866.00
973.4410, 13808.00
974.5580, 13781.00
975.6750, 13857.00
976.7920, 13851.00
977.9090, 13908.00
979.0250, 14026.00
980.1410, 14170.00
981.2580, 14086.00
982.3740, 14317.00
983.4890, 14315.00
984.6050, 14487.00
985.7200, 14637.00
986.8360, 14701.00
987.9510, 14890.92
989.0660, 15130.00
990.1810, 15229.00
991.2950, 15330.00
992.4100, 15551.00
993.5240, 15794.00
994.6390, 15925.00
995.7530, 16184.00
996.8660, 16425.00
997.9800, 16331.00
999.0940, 16603.00
1000.207, 16527.00
1001.320, 16616.00
1002.433, 16638.00
1003.546, 16857.00
1004.659, 16865.00
1005.772, 16892.00
1006.884, 16891.00
1007.996, 17050.00
1009.108, 17162.00
1010.220, 17223.00
1011.332, 17086.00
1012.444, 17051.00
1013.555, 17104.00
1014.666, 17122.00
1015.777, 17028.00
1016.888, 16978.00
1017.999, 16921.00
1019.110, 16865.00
1020.220, 16687.00
1021.331, 16697.00
1022.441, 16599.00
1023.551, 16561.00
1024.661, 16602.00
1025.770, 16427.00
1026.880, 16377.00
1027.989, 16350.00
1029.098, 16461.00
1030.207, 16418.00
1031.316, 16512.00
1032.425, 16590.00
1033.533, 16550.00
1034.642, 16644.00
1035.750, 16774.00
1036.858, 16919.00
1037.966, 16967.00
1039.073, 16990.00
1040.181, 17209.00
1041.288, 17484.00
1042.396, 17800.00
1043.503, 18129.00
1044.610, 18441.00
1045.716, 18763.00
1046.823, 19214.00
1047.929, 19707.00
1049.036, 20401.00
1050.142, 21235.00
1051.248, 22091.00
1052.353, 23208.00
1053.459, 24202.00
1054.564, 25562.00
1055.670, 27096.00
1056.775, 28845.00
1057.880, 30843.00
1058.985, 33080.00
1060.089, 35454.00
1061.194, 37496.00
1062.298, 39496.00
1063.402, 41374.00
1064.506, 43419.00
1065.610, 44721.00
1066.713, 45732.00
1067.817, 46194.00
1068.920, 46397.00
1070.023, 46091.38
1071.126, 45500.00
1072.229, 44214.00
1073.332, 42818.00
1074.435, 40718.00
1075.537, 38694.00
1076.639, 36878.00
1077.741, 34967.00
1078.843, 33616.00
1079.945, 31703.00
1081.046, 30536.00
1082.148, 29365.00
1083.249, 28358.00
1084.350, 27166.00
1085.451, 26365.00
1086.551, 25825.00
1087.652, 25409.00
1088.752, 24474.00
1089.853, 24120.00
1090.953, 23638.00
1092.053, 23251.00
1093.152, 22782.00
1094.252, 22464.00
1095.351, 22200.00
1096.451, 21934.00
1097.550, 21615.00
1098.649, 21157.00
1099.748, 21059.00
1100.846, 20797.00
1101.945, 20490.00
1103.043, 20516.00
1104.141, 20257.00
1105.239, 20020.00
1106.337, 19853.00
1107.434, 20121.00
1108.532, 19920.00
1109.629, 19664.00
1110.726, 19352.00
1111.823, 19713.00
1112.920, 19548.00
1114.017, 19650.00
1115.113, 19554.00
1116.210, 19567.00
1117.306, 19866.00
1118.402, 19953.00
1119.498, 20035.00
1120.593, 20101.00
1121.689, 20128.00
1122.784, 20251.00
1123.879, 20245.00
1124.974, 20173.00
1126.069, 20151.00
1127.164, 19910.00
1128.259, 19820.00
1129.353, 19458.00
1130.447, 19270.00
1131.541, 19069.00
1132.635, 18899.00
1133.729, 18667.00
1134.822, 18598.00
1135.916, 18312.00
1137.009, 18164.00
1138.102, 17871.00
1139.195, 17900.00
1140.288, 17732.00
1141.380, 17642.00
1142.473, 17273.00
1143.565, 16936.00
1144.657, 17132.00
1145.749, 16824.00
1146.841, 16815.00
1147.932, 16551.00
1149.024, 16532.00
1150.115, 16476.00
1151.206, 16393.00
1152.297, 16301.72
1153.388, 16247.00
1154.479, 16080.00
1155.569, 15891.00
1156.659, 15805.00
1157.750, 15770.00
1158.839, 15537.00
1159.929, 15543.00
1161.019, 15422.00
1162.108, 15366.00
1163.198, 15352.00
1164.287, 15295.00
1165.376, 15312.00
1166.465, 15149.00
1167.553, 15027.00
1168.642, 15223.00
1169.730, 15095.00
1170.818, 15087.00
1171.906, 15198.00
1172.994, 15056.00
1174.082, 15068.00
1175.170, 15069.00
1176.257, 15175.00
1177.344, 15175.00
1178.431, 15153.00
1179.518, 15127.00
1180.605, 15105.00
1181.691, 15032.00
1182.778, 15079.00
1183.864, 15122.00
1184.950, 15101.00
1186.036, 15218.00
1187.122, 15214.11
1188.207, 15214.91
1189.292, 15242.00
1190.378, 15167.00
1191.463, 15112.00
1192.548, 15036.00
1193.632, 15169.00
1194.717, 15189.00
1195.801, 15021.00
1196.886, 15033.00
1197.970, 14895.00
1199.054, 14946.08
1200.137, 15016.00
1201.221, 15038.00
1202.305, 15104.00
1203.388, 15088.00
1204.471, 15111.00
1205.554, 15238.00
1206.637, 15164.00
1207.719, 15291.00
1208.802, 15283.00
1209.884, 15268.00
1210.966, 15346.00
1212.048, 15264.00
1213.130, 15164.00
1214.212, 15082.00
1215.293, 15088.00
1216.374, 15150.00
1217.456, 15107.00
1218.536, 15140.00
1219.617, 15081.86
1220.698, 15038.11
1221.778, 14942.00
1222.859, 14944.00
1223.939, 14867.00
1225.019, 14882.00
1226.099, 15074.00
1227.178, 14786.00
1228.258, 14606.00
1229.337, 14813.00
1230.417, 14788.00
1231.496, 14847.00
1232.574, 14783.00
1233.653, 14826.00
1234.732, 14584.00
1235.810, 14674.00
1236.888, 14708.00
1237.966, 14568.00
1239.044, 14651.00
1240.122, 14539.00
1241.199, 14765.00
1242.277, 14747.00
1243.354, 14730.00
1244.431, 14552.00
1245.508, 14667.00
1246.585, 14768.00
1247.661, 14593.00
1248.738, 14507.00
1249.814, 14658.00
1250.890, 14664.00
1251.966, 14609.00
1253.042, 14666.00
1254.117, 14535.00
1255.193, 14713.00
1256.268, 14658.00
1257.343, 14616.00
1258.418, 14775.00
1259.493, 14518.00
1260.567, 14573.00
1261.642, 14520.00
1262.716, 14659.00
1263.790, 14676.00
1264.864, 14606.00
1265.938, 14676.00
1267.011, 14618.00
1268.085, 14650.00
1269.158, 14649.00
1270.231, 14662.00
1271.304, 14469.00
1272.377, 14564.00
1273.450, 14529.00
1274.522, 14577.00
1275.594, 14650.00
1276.666, 14920.00
1277.738, 14636.00
1278.810, 14872.00
1279.882, 14748.00
1280.953, 14620.00
1282.025, 14582.00
1283.096, 14469.00
1284.167, 14767.00
1285.238, 14629.00
1286.308, 14850.00
1287.379, 14718.00
1288.449, 14839.00
1289.519, 14711.00
1290.589, 14701.00
1291.659, 14802.00
1292.729, 14719.00
1293.798, 14784.00
1294.868, 14637.00
1295.937, 14657.00
1297.006, 14667.00
1298.075, 14856.00
1299.143, 14760.00
1300.212, 14789.00
1301.280, 14636.00
1302.348, 14763.00
1303.416, 14744.00
1304.484, 14820.00
1305.552, 14844.00
1306.620, 14809.00
1307.687, 14873.00
1308.754, 14697.00
1309.821, 14960.00
1310.888, 14737.00
1311.955, 14903.00
1313.021, 14753.00
1314.088, 14871.00
1315.154, 14886.00
1316.220, 14805.00
1317.286, 14781.00
1318.352, 14760.00
1319.417, 14802.00
1320.483, 14710.00
1321.548, 14905.00
1322.613, 14849.00
1323.678, 14941.00
1324.743, 14868.00
1325.807, 14897.00
1326.872, 14768.00
1327.936, 14993.00
1329.000, 14821.00
1330.064, 14860.00
1331.128, 14800.00
1332.191, 15013.00
1333.255, 14909.00
1334.318, 14899.00
1335.381, 14915.00
1336.444, 14909.00
1337.507, 14942.00
1338.569, 15010.00
1339.632, 15096.00
1340.694, 14856.00
1341.756, 14987.00
1342.818, 14829.00
1343.880, 14932.00
1344.941, 14929.00
1346.003, 14923.00
1347.064, 14906.00
1348.125, 15050.00
1349.186, 14913.00
1350.247, 14965.00
1351.308, 14857.00
1352.368, 14916.00
1353.428, 15018.00
1354.489, 15085.00
1355.549, 14971.00
1356.608, 14965.00
1357.668, 14935.00
1358.727, 14836.00
1359.787, 15037.00
1360.846, 14909.00
1361.905, 15153.00
1362.964, 15030.00
1364.022, 14983.00
1365.081, 15023.00
1366.139, 14935.00
1367.197, 14938.00
1368.255, 14940.00
1369.313, 14947.25
1370.371, 14996.00
1371.428, 15037.00
1372.486, 15035.00
1373.543, 15107.00
1374.600, 14974.00
1375.657, 15015.00
1376.713, 15060.00
1377.770, 14907.00
1378.826, 15207.00
1379.882, 15028.00
1380.938, 15069.00
1381.994, 15198.00
1383.050, 15347.00
1384.106, 15241.00
1385.161, 15234.00
1386.216, 15291.00
1387.271, 15066.00
1388.326, 15249.00
1389.381, 15151.00
1390.435, 15072.00
1391.490, 15031.00
1392.544, 15148.00
1393.598, 15097.00
1394.652, 15104.00
1395.705, 15150.00
1396.759, 15162.00
1397.812, 15193.50
1398.866, 15054.00
1399.919, 15196.00
1400.972, 15217.00
1402.024, 15094.00
1403.077, 15201.00
1404.129, 15233.00
1405.181, 15183.00
1406.233, 15143.00
1407.285, 15280.00
1408.337, 15205.00
1409.389, 15204.00
1410.440, 15135.00
1411.491, 15159.00
1412.542, 15217.00
1413.593, 15200.00
1414.644, 15190.00
1415.695, 15181.00
1416.745, 15137.00
1417.795, 15294.00
1418.845, 15226.00
1419.895, 15038.00
1420.945, 15145.00
1421.995, 15382.00
1423.044, 15128.00
1424.093, 15350.00
1425.142, 15232.00
1426.191, 15238.00
1427.240, 15234.00
1428.289, 15218.21
1429.337, 15244.01
1430.385, 15274.00
1431.433, 15274.00
1432.481, 15338.00
1433.529, 15327.00
1434.577, 15265.00
1435.624, 15373.00
1436.672, 15227.00
1437.719, 15493.00
1438.766, 15330.00
1439.812, 15412.00
1440.859, 15422.00
1441.905, 15382.00
1442.952, 15395.00
1443.998, 15313.00
1445.044, 15387.00
1446.090, 15345.00
1447.135, 15365.00
1448.181, 15534.00
1449.226, 15225.00
1450.271, 15465.00
1451.316, 15399.00
1452.361, 15537.00
1453.405, 15482.00
1454.450, 15533.00
1455.494, 15547.00
1456.538, 15445.00
1457.582, 15452.00
1458.626, 15566.00
1459.670, 15655.00
1460.713, 15532.00
1461.757, 15447.00
1462.800, 15524.00
1463.843, 15376.00
1464.886, 15459.00
1465.928, 15379.00
1466.971, 15486.00
1468.013, 15471.00
1469.055, 15571.00
1470.097, 15596.00
1471.139, 15629.00
1472.181, 15654.00
1473.222, 15664.00
1474.263, 15485.00
1475.305, 15602.00
1476.346, 15545.00
1477.386, 15638.00
1478.427, 15514.00
1479.468, 15451.00
1480.508, 15558.00
1481.548, 15591.00
1482.588, 15619.00
1483.628, 15615.00
1484.668, 15632.16
1485.707, 15619.00
1486.747, 15658.00
1487.786, 15690.00
1488.825, 15751.00
1489.864, 15717.21
1490.902, 15626.00
1491.941, 15641.00
1492.979, 15630.00
1494.017, 15575.00
1495.055, 15701.00
1496.093, 15599.00
1497.131, 15709.00
1498.168, 15829.00
1499.206, 15765.00
1500.243, 15748.00
1501.280, 15770.00
1502.317, 15668.00
1503.354, 15734.00
1504.390, 15615.00
1505.426, 15716.00
1506.463, 15751.00
1507.499, 15811.00
1508.535, 15711.00
1509.570, 15697.00
1510.606, 15683.00
1511.641, 15628.00
1512.676, 15675.92
1513.711, 15864.00
1514.746, 15738.00
1515.781, 15789.00
1516.816, 15780.00
1517.850, 15746.00
1518.884, 15783.00
1519.918, 15748.00
1520.952, 15769.00
1521.986, 15763.00
1523.019, 15835.00
1524.053, 16003.00
1525.086, 15792.00
1526.119, 15998.00
1527.152, 15882.00
1528.185, 15885.00
1529.217, 16486.00
1530.250, 16150.75
1531.282, 16248.00
1532.314, 15918.00
1533.346, 16006.00
1534.377, 15910.00
1535.409, 15884.00
1536.440, 15753.00
1537.472, 16016.00
1538.503, 15966.00
1539.534, 15946.00
1540.564, 15899.00
1541.595, 16003.00
1542.625, 16081.00
1543.656, 15972.00
1544.686, 16014.00
1545.716, 15923.00
1546.745, 16017.00
1547.775, 16020.00
1548.804, 16172.00
1549.834, 16191.00
1550.863, 16274.00
1551.892, 16227.00
1552.920, 16303.00
1553.949, 16339.00
1554.977, 16267.00
1556.006, 16086.00
1557.034, 16128.00
1558.062, 16140.00
1559.089, 16057.81
1560.117, 16086.00
1561.144, 16006.00
1562.172, 16011.00
1563.199, 16026.00
1564.226, 15952.34
1565.252, 16150.00
1566.279, 15968.00
1567.305, 16008.00
1568.332, 16278.00
1569.358, 16022.00
1570.384, 16197.00
1571.409, 16197.00
##END=



