##NAMES=Beryl
##RRUFFID=R050368
##IDEAL CHEMISTRY=Be_3_Al_2_Si_6_O_18_
##LOCALITY=Wah Wah Mountains, Utah, USA
##OWNER=RRUFF
##SOURCE=Eugene Schlepp
##DESCRIPTION=Red-violet hexagonal prism
##STATUS=The identification of this mineral has been confirmed by X-ray diffraction and chemical analysis
##URL=rruff.info/R050368
##MEASURED CHEMISTRY=(Be_0.99_Li_0.01_)_3_(Al_0.95_Fe^3+^_0.05_)_2_Si_6.00_O_18_Î‡K_0.02_Na_0.01_
##PIN_ID=L01133
##ORIENTATION=Laser parallel to -a* (-1 0 0). Fiducial mark perpendicular to laser is parallel to -c [0 0 -1]
82.36700, 12100.00
83.60200, 12379.00
84.83700, 12504.00
86.07200, 12436.00
87.30800, 12630.00
88.54200, 12878.00
89.77700, 13348.00
91.01200, 14041.00
92.24600, 14140.00
93.48000, 13983.00
94.71400, 13859.00
95.94800, 13801.00
97.18200, 13569.00
98.41600, 13599.00
99.64900, 13464.00
100.8830, 13467.00
102.1160, 13187.00
103.3490, 12979.76
104.5820, 13094.17
105.8150, 13141.91
107.0470, 13126.58
108.2800, 12859.16
109.5120, 12917.26
110.7440, 12844.91
111.9760, 12767.22
113.2080, 12871.13
114.4400, 12640.40
115.6710, 12741.46
116.9030, 12710.06
118.1340, 12739.30
119.3650, 12637.29
120.5960, 12621.00
121.8270, 12648.00
123.0580, 12939.00
124.2880, 12769.00
125.5190, 12884.94
126.7490, 12646.00
127.9790, 12935.00
129.2090, 13038.00
130.4390, 13130.00
131.6680, 13209.00
132.8980, 13137.00
134.1270, 13152.00
135.3560, 13321.00
136.5850, 13530.00
137.8140, 13449.00
139.0430, 13510.00
140.2710, 12955.00
141.5000, 12592.00
142.7280, 11963.00
143.9560, 11709.00
145.1840, 11360.00
146.4120, 11413.00
147.6390, 11144.00
148.8670, 10876.00
150.0940, 10926.63
151.3210, 10813.35
152.5490, 10905.00
153.7750, 10737.00
155.0020, 10735.00
156.2290, 10426.00
157.4550, 10352.00
158.6810, 10323.00
159.9080, 10362.00
161.1340, 10379.00
162.3590, 10580.00
163.5850, 10678.00
164.8110, 10803.00
166.0360, 10999.00
167.2610, 11069.00
168.4860, 11003.00
169.7110, 11139.00
170.9360, 10984.00
172.1610, 11216.00
173.3850, 10958.00
174.6100, 11045.00
175.8340, 11064.00
177.0580, 11294.00
178.2820, 11294.00
179.5050, 11357.00
180.7290, 11563.00
181.9520, 11456.00
183.1760, 11530.00
184.3990, 11595.00
185.6220, 11914.00
186.8450, 11840.00
188.0670, 11738.00
189.2900, 11883.00
190.5120, 11760.00
191.7340, 12051.00
192.9560, 11976.00
194.1780, 12040.00
195.4000, 12176.00
196.6220, 12108.00
197.8430, 12201.00
199.0640, 12186.00
200.2860, 12397.00
201.5070, 12518.00
202.7270, 12715.00
203.9480, 12028.00
205.1690, 11267.00
206.3890, 10947.00
207.6090, 10912.00
208.8290, 10725.00
210.0490, 10681.00
211.2690, 10582.00
212.4890, 10648.00
213.7080, 10532.00
214.9280, 10578.00
216.1470, 10603.00
217.3660, 10834.00
218.5850, 10648.00
219.8030, 11099.00
221.0220, 10881.00
222.2400, 10837.00
223.4590, 10829.00
224.6770, 10887.00
225.8950, 10970.00
227.1120, 11123.00
228.3300, 11154.00
229.5480, 11257.00
230.7650, 11260.00
231.9820, 11422.00
233.1990, 11493.00
234.4160, 11458.00
235.6330, 11402.00
236.8490, 11577.00
238.0660, 11634.00
239.2820, 11623.00
240.4980, 11591.00
241.7140, 11812.00
242.9300, 11785.00
244.1460, 12122.00
245.3610, 12144.00
246.5770, 12394.00
247.7920, 12837.00
249.0070, 12961.00
250.2220, 12877.00
251.4370, 12495.00
252.6510, 12022.00
253.8660, 11856.00
255.0800, 11319.00
256.2940, 11151.00
257.5080, 11040.00
258.7220, 11265.00
259.9360, 11000.78
261.1490, 11032.00
262.3630, 10692.00
263.5760, 10763.00
264.7890, 10566.00
266.0020, 10860.00
267.2150, 10731.00
268.4270, 10851.00
269.6400, 10809.00
270.8520, 10789.00
272.0640, 10833.00
273.2760, 10899.00
274.4880, 10881.00
275.7000, 11593.00
276.9120, 12200.00
278.1230, 11649.00
279.3340, 11796.00
280.5450, 11525.00
281.7560, 10848.00
282.9670, 10951.00
284.1780, 10910.00
285.3880, 10936.00
286.5980, 10940.00
287.8090, 10944.89
289.0190, 10987.00
290.2290, 11002.00
291.4380, 11071.00
292.6480, 11156.00
293.8570, 11184.43
295.0670, 11208.00
296.2760, 11285.00
297.4850, 11387.00
298.6930, 11455.00
299.9020, 11646.00
301.1110, 11740.25
302.3190, 11914.00
303.5270, 12035.00
304.7350, 12306.00
305.9430, 12532.00
307.1510, 13096.00
308.3580, 13745.83
309.5660, 14488.00
310.7730, 15525.00
311.9800, 16858.00
313.1870, 18117.00
314.3940, 19223.00
315.6010, 20476.00
316.8070, 22046.00
318.0130, 23301.00
319.2200, 23377.00
320.4260, 22067.00
321.6310, 20127.00
322.8370, 18083.00
324.0430, 16011.00
325.2480, 14062.00
326.4540, 12886.00
327.6590, 11779.00
328.8640, 11112.00
330.0680, 10959.00
331.2730, 10742.00
332.4780, 10438.00
333.6820, 10424.00
334.8860, 10297.00
336.0900, 10110.00
337.2940, 10199.00
338.4980, 10190.00
339.7010, 10199.00
340.9050, 10090.00
342.1080, 10165.00
343.3110, 10288.00
344.5140, 10139.00
345.7170, 10199.00
346.9200, 10120.00
348.1220, 10241.00
349.3240, 10104.00
350.5270, 10119.00
351.7290, 10145.00
352.9310, 10083.00
354.1320, 10145.00
355.3340, 10137.00
356.5350, 10155.00
357.7370, 10159.00
358.9380, 10196.10
360.1390, 10243.83
361.3400, 10285.00
362.5400, 10356.00
363.7410, 10409.00
364.9410, 10444.00
366.1410, 10373.00
367.3410, 10493.20
368.5410, 10567.33
369.7410, 10690.00
370.9400, 10888.00
372.1400, 11050.00
373.3390, 11352.00
374.5380, 11561.00
375.7370, 11985.00
376.9360, 12498.00
378.1350, 12736.00
379.3330, 13134.00
380.5310, 13230.00
381.7300, 14228.00
382.9280, 14202.00
384.1260, 14799.00
385.3230, 15798.00
386.5210, 17182.00
387.7180, 18107.00
388.9160, 19347.00
390.1130, 20555.00
391.3100, 21501.00
392.5060, 21929.00
393.7030, 21351.00
394.9000, 20259.00
396.0960, 18713.00
397.2920, 17177.00
398.4880, 15688.00
399.6840, 14450.00
400.8800, 13553.00
402.0750, 12774.00
403.2710, 12360.00
404.4660, 12126.00
405.6610, 11751.00
406.8560, 11612.00
408.0510, 11494.00
409.2450, 11634.00
410.4400, 11620.00
411.6340, 11636.00
412.8280, 11667.00
414.0220, 11636.00
415.2160, 11674.00
416.4100, 11621.00
417.6030, 11707.00
418.7970, 11558.00
419.9900, 11454.00
421.1830, 11473.00
422.3760, 11404.00
423.5690, 11235.00
424.7610, 11172.00
425.9540, 11168.91
427.1460, 11222.00
428.3380, 11239.00
429.5300, 11296.00
430.7220, 11382.00
431.9140, 11582.00
433.1050, 11901.00
434.2970, 12075.00
435.4880, 12436.00
436.6790, 12961.00
437.8700, 13400.00
439.0610, 13834.00
440.2510, 13941.00
441.4420, 14476.00
442.6320, 14454.00
443.8220, 14363.00
445.0120, 14104.00
446.2020, 13817.00
447.3910, 13349.00
448.5810, 12987.00
449.7700, 12554.00
450.9600, 12219.00
452.1490, 11927.00
453.3370, 11880.00
454.5260, 11767.00
455.7150, 11724.00
456.9030, 11637.00
458.0910, 11531.00
459.2800, 11492.00
460.4670, 11419.18
461.6550, 11403.00
462.8430, 11317.00
464.0300, 11197.00
465.2180, 11136.00
466.4050, 11171.00
467.5920, 11186.25
468.7790, 11116.00
469.9650, 11307.00
471.1520, 11305.00
472.3380, 11274.00
473.5250, 11194.00
474.7110, 11382.00
475.8970, 11426.00
477.0820, 11466.00
478.2680, 11523.00
479.4540, 11525.00
480.6390, 11571.00
481.8240, 11582.00
483.0090, 11760.00
484.1940, 11805.00
485.3780, 11733.00
486.5630, 11892.00
487.7470, 11700.00
488.9320, 11952.00
490.1160, 11805.00
491.3000, 11959.00
492.4830, 12081.00
493.6670, 12066.00
494.8500, 12155.00
496.0340, 12262.00
497.2170, 12367.00
498.4000, 12445.00
499.5820, 12381.00
500.7650, 12587.00
501.9480, 12542.00
503.1300, 12721.00
504.3120, 12620.00
505.4940, 12636.00
506.6760, 12697.00
507.8580, 12673.00
509.0390, 12795.00
510.2210, 12802.00
511.4020, 12933.00
512.5830, 13026.00
513.7640, 13398.00
514.9450, 13578.00
516.1250, 13979.00
517.3060, 14586.00
518.4860, 14895.00
519.6660, 15600.00
520.8460, 15884.00
522.0260, 16299.00
523.2060, 16535.00
524.3850, 16502.00
525.5650, 16406.00
526.7440, 16101.00
527.9230, 15459.00
529.1020, 14982.00
530.2810, 14527.00
531.4590, 13977.00
532.6380, 13755.00
533.8160, 13425.00
534.9940, 13072.00
536.1720, 12881.00
537.3500, 12485.00
538.5270, 12449.00
539.7050, 12190.00
540.8820, 12141.00
542.0590, 11871.00
543.2360, 11810.00
544.4130, 11757.00
545.5900, 11778.00
546.7660, 11586.00
547.9430, 11616.00
549.1190, 11573.01
550.2950, 11618.00
551.4710, 11550.00
552.6470, 11587.00
553.8220, 11586.00
554.9980, 11685.00
556.1730, 11759.00
557.3480, 11756.88
558.5230, 11776.00
559.6980, 11730.00
560.8730, 11730.00
562.0470, 11759.38
563.2220, 11776.48
564.3960, 11819.00
565.5700, 11914.00
566.7440, 11930.00
567.9170, 12096.00
569.0910, 12026.00
570.2640, 12054.00
571.4380, 12058.00
572.6110, 12433.00
573.7840, 12370.00
574.9570, 12378.00
576.1290, 12618.00
577.3020, 12609.00
578.4740, 12942.00
579.6460, 13036.00
580.8180, 13237.00
581.9900, 13262.00
583.1620, 13541.00
584.3330, 13583.00
585.5040, 13686.00
586.6760, 13891.00
587.8470, 13820.00
589.0180, 13975.00
590.1880, 14077.00
591.3590, 14242.00
592.5290, 14208.00
593.7000, 14153.00
594.8700, 14243.00
596.0400, 14151.98
597.2090, 14253.00
598.3790, 14066.00
599.5490, 14001.00
600.7180, 13982.00
601.8870, 14039.00
603.0560, 13872.00
604.2250, 14033.00
605.3940, 13853.00
606.5620, 13997.00
607.7300, 13931.00
608.8990, 13966.00
610.0670, 14061.00
611.2350, 14212.00
612.4020, 14266.55
613.5700, 14471.00
614.7370, 14418.00
615.9050, 14521.00
617.0720, 14536.00
618.2390, 14481.00
619.4060, 14291.00
620.5720, 14069.00
621.7390, 13975.00
622.9050, 13788.00
624.0710, 13665.00
625.2370, 13465.00
626.4030, 13196.00
627.5690, 13209.00
628.7340, 13184.00
629.9000, 13183.00
631.0650, 13270.00
632.2300, 13365.00
633.3950, 13471.00
634.5600, 13506.00
635.7240, 13699.00
636.8890, 13688.00
638.0530, 13939.00
639.2170, 14005.00
640.3810, 14082.00
641.5450, 13981.00
642.7080, 14018.00
643.8720, 14129.00
645.0350, 14139.00
646.1980, 13951.00
647.3610, 13892.00
648.5240, 13936.00
649.6870, 13848.00
650.8490, 13860.00
652.0120, 13901.00
653.1740, 14009.99
654.3360, 14169.00
655.4980, 14378.00
656.6600, 14591.00
657.8210, 14859.00
658.9830, 15414.00
660.1440, 15832.00
661.3050, 16493.00
662.4660, 17073.00
663.6270, 17915.00
664.7870, 18523.00
665.9480, 19251.00
667.1080, 20059.00
668.2680, 21274.00
669.4280, 22560.00
670.5880, 24053.00
671.7480, 26243.00
672.9070, 29813.00
674.0670, 33604.00
675.2260, 37877.00
676.3850, 42837.00
677.5440, 47854.00
678.7030, 51848.00
679.8610, 55080.00
681.0200, 55086.00
682.1780, 52633.00
683.3360, 48176.00
684.4940, 42450.00
685.6520, 36937.00
686.8090, 31928.00
687.9670, 27906.00
689.1240, 25019.00
690.2810, 22584.00
691.4380, 21198.00
692.5950, 19781.00
693.7520, 18646.00
694.9080, 17713.00
696.0650, 17042.00
697.2210, 16327.00
698.3770, 15844.00
699.5330, 15306.00
700.6880, 14866.94
701.8440, 14658.00
702.9990, 14166.00
704.1550, 14061.00
705.3100, 13845.00
706.4650, 13365.00
707.6190, 13360.00
708.7740, 13124.00
709.9290, 12917.00
711.0830, 12843.00
712.2370, 12656.00
713.3910, 12580.00
714.5450, 12441.00
715.6980, 12250.00
716.8520, 12371.00
718.0050, 12062.00
719.1580, 12160.00
720.3110, 12216.00
721.4640, 11982.00
722.6170, 12072.00
723.7700, 12017.00
724.9220, 12015.00
726.0740, 12008.00
727.2260, 11919.00
728.3780, 11852.00
729.5300, 12064.00
730.6810, 12046.00
731.8330, 11979.00
732.9840, 12086.00
734.1350, 11946.00
735.2860, 12158.00
736.4370, 12352.00
737.5880, 12294.83
738.7380, 12344.00
739.8880, 12298.00
741.0390, 12328.00
742.1890, 12254.00
743.3380, 12329.00
744.4880, 12307.00
745.6380, 12443.00
746.7870, 12334.00
747.9360, 12447.87
749.0850, 12496.38
750.2340, 12631.00
751.3830, 12577.00
752.5310, 12737.00
753.6800, 12661.00
754.8280, 12803.00
755.9760, 12960.00
757.1240, 13051.00
758.2720, 13175.46
759.4190, 13277.00
760.5670, 13392.00
761.7140, 13579.00
762.8610, 13726.00
764.0080, 14064.00
765.1550, 14231.00
766.3020, 14154.00
767.4480, 14458.00
768.5950, 14243.00
769.7410, 14046.00
770.8870, 14001.00
772.0330, 13811.00
773.1780, 13446.00
774.3240, 13345.00
775.4690, 13191.00
776.6140, 12865.00
777.7590, 12803.00
778.9040, 12794.00
780.0490, 12711.00
781.1940, 12538.00
782.3380, 12319.00
783.4820, 12226.00
784.6260, 12324.00
785.7700, 12182.00
786.9140, 12178.00
788.0580, 12159.00
789.2010, 12076.00
790.3450, 11989.00
791.4880, 12016.00
792.6310, 11926.28
793.7730, 11894.81
794.9160, 11853.00
796.0590, 11861.00
797.2010, 11883.00
798.3430, 11988.00
799.4850, 11894.00
800.6270, 12022.00
801.7690, 12031.00
802.9100, 11962.00
804.0520, 11985.00
805.1930, 11950.66
806.3340, 11954.00
807.4750, 11907.00
808.6160, 11879.00
809.7560, 11857.00
810.8970, 11831.00
812.0370, 11859.45
813.1770, 12017.00
814.3170, 11945.00
815.4570, 11962.00
816.5960, 12035.00
817.7360, 11905.00
818.8750, 12012.00
820.0140, 11946.00
821.1530, 12045.00
822.2920, 12046.00
823.4310, 11969.00
824.5690, 12026.00
825.7070, 11860.00
826.8460, 12110.00
827.9840, 12024.00
829.1220, 11999.00
830.2590, 11881.00
831.3970, 12059.00
832.5340, 11948.00
833.6710, 11986.00
834.8080, 11929.00
835.9450, 11942.00
837.0820, 11961.00
838.2190, 11964.00
839.3550, 12036.00
840.4910, 12141.00
841.6270, 12014.00
842.7630, 12240.00
843.8990, 12153.00
845.0350, 12106.00
846.1700, 12211.00
847.3060, 12248.00
848.4410, 12105.00
849.5760, 12207.00
850.7100, 12140.00
851.8450, 12156.00
852.9800, 12182.00
854.1140, 12287.00
855.2480, 12269.00
856.3820, 12298.00
857.5160, 12430.00
858.6500, 12449.00
859.7830, 12374.00
860.9170, 12373.00
862.0500, 12461.00
863.1830, 12369.00
864.3160, 12498.00
865.4480, 12578.00
866.5810, 12546.00
867.7130, 12516.00
868.8460, 12619.00
869.9780, 12676.00
871.1100, 12706.00
872.2410, 12821.00
873.3730, 12861.89
874.5050, 12887.00
875.6360, 13013.00
876.7670, 13150.00
877.8980, 13278.00
879.0290, 13367.00
880.1590, 13500.00
881.2900, 13443.00
882.4200, 13593.00
883.5500, 13605.00
884.6800, 13692.00
885.8100, 13671.00
886.9400, 13935.00
888.0690, 13840.00
889.1990, 14017.00
890.3280, 14016.00
891.4570, 13992.00
892.5860, 14080.00
893.7140, 14217.00
894.8430, 14214.00
895.9710, 14443.00
897.1000, 14496.00
898.2280, 14611.00
899.3560, 14694.00
900.4830, 14991.00
901.6110, 15264.00
902.7380, 15466.00
903.8660, 15858.00
904.9930, 16271.00
906.1200, 16505.00
907.2460, 16979.00
908.3730, 17576.00
909.5000, 18015.00
910.6260, 18615.00
911.7520, 19068.00
912.8780, 19246.00
914.0040, 19390.00
915.1290, 19364.00
916.2550, 19367.00
917.3800, 18943.00
918.5050, 18452.00
919.6300, 18077.00
920.7550, 17316.00
921.8800, 16848.00
923.0040, 16403.00
924.1290, 15878.00
925.2530, 15523.00
926.3770, 15204.00
927.5010, 14895.00
928.6250, 14599.00
929.7480, 14581.00
930.8720, 14355.00
931.9950, 14068.99
933.1180, 14141.71
934.2410, 14147.74
935.3640, 14090.68
936.4860, 13781.62
937.6090, 13797.99
938.7310, 13683.98
939.8530, 13564.62
940.9750, 13626.88
942.0970, 13354.48
943.2180, 13413.91
944.3400, 13340.85
945.4610, 13328.46
946.5820, 13347.00
947.7030, 13226.43
948.8240, 13265.00
949.9450, 13279.00
951.0650, 13196.00
952.1860, 13223.00
953.3060, 13176.00
954.4260, 13161.57
955.5460, 13193.77
956.6650, 13153.00
957.7850, 13275.00
958.9040, 13308.00
960.0230, 13396.00
961.1420, 13365.00
962.2610, 13415.00
963.3800, 13447.00
964.4990, 13440.00
965.6170, 13502.00
966.7350, 13612.00
967.8530, 13558.00
968.9710, 13564.00
970.0890, 13702.00
971.2070, 13654.00
972.3240, 13828.00
973.4410, 13820.00
974.5580, 13868.00
975.6750, 14012.00
976.7920, 14019.00
977.9090, 14268.00
979.0250, 14078.00
980.1410, 14114.00
981.2580, 14266.00
982.3740, 14411.00
983.4890, 14477.00
984.6050, 14745.00
985.7200, 14963.00
986.8360, 15241.00
987.9510, 15482.20
989.0660, 15651.00
990.1810, 16027.00
991.2950, 16221.00
992.4100, 16586.00
993.5240, 17130.00
994.6390, 17638.00
995.7530, 17819.00
996.8660, 18487.00
997.9800, 18975.00
999.0940, 19479.00
1000.207, 20157.00
1001.320, 20707.00
1002.433, 21233.00
1003.546, 22154.00
1004.659, 22122.00
1005.772, 22722.00
1006.884, 22774.00
1007.996, 22664.00
1009.108, 22534.00
1010.220, 22181.00
1011.332, 21466.00
1012.444, 20929.00
1013.555, 20189.00
1014.666, 19673.03
1015.777, 18951.00
1016.888, 18695.00
1017.999, 18194.00
1019.110, 17879.00
1020.220, 17584.00
1021.331, 17244.00
1022.441, 16983.00
1023.551, 16935.00
1024.661, 16710.00
1025.770, 16749.00
1026.880, 16673.00
1027.989, 16600.00
1029.098, 16589.00
1030.207, 16578.00
1031.316, 16721.00
1032.425, 16756.05
1033.533, 16775.00
1034.642, 16988.00
1035.750, 17092.00
1036.858, 17286.00
1037.966, 17337.00
1039.073, 17656.00
1040.181, 17884.00
1041.288, 18180.00
1042.396, 18597.00
1043.503, 18898.00
1044.610, 19350.00
1045.716, 19895.00
1046.823, 20399.00
1047.929, 21198.00
1049.036, 22125.00
1050.142, 23026.80
1051.248, 24556.00
1052.353, 25490.00
1053.459, 27045.00
1054.564, 29051.00
1055.670, 31351.00
1056.775, 34122.00
1057.880, 37416.00
1058.985, 40801.00
1060.089, 44801.00
1061.194, 48618.00
1062.298, 52130.00
1063.402, 54859.00
1064.506, 56960.00
1065.610, 57224.00
1066.713, 56877.00
1067.817, 54570.00
1068.920, 51246.00
1070.023, 47643.00
1071.126, 44485.00
1072.229, 40806.00
1073.332, 38015.00
1074.435, 34999.00
1075.537, 32851.00
1076.639, 30567.00
1077.741, 29092.00
1078.843, 27586.00
1079.945, 26313.00
1081.046, 25365.00
1082.148, 24233.00
1083.249, 23325.00
1084.350, 22677.00
1085.451, 21737.00
1086.551, 21328.00
1087.652, 20725.00
1088.752, 20164.00
1089.853, 19773.00
1090.953, 19214.00
1092.053, 18838.00
1093.152, 18575.00
1094.252, 18176.00
1095.351, 17996.00
1096.451, 17726.00
1097.550, 17552.00
1098.649, 17261.00
1099.748, 17226.00
1100.846, 16939.00
1101.945, 16733.00
1103.043, 16739.00
1104.141, 16611.00
1105.239, 16409.00
1106.337, 16360.00
1107.434, 16262.00
1108.532, 16195.00
1109.629, 16168.00
1110.726, 15890.00
1111.823, 15920.00
1112.920, 15826.00
1114.017, 15921.00
1115.113, 15920.00
1116.210, 15840.00
1117.306, 15865.00
1118.402, 15840.00
1119.498, 15533.00
1120.593, 15651.00
1121.689, 15604.00
1122.784, 15598.00
1123.879, 15751.00
1124.974, 15579.00
1126.069, 15588.00
1127.164, 15552.00
1128.259, 15237.00
1129.353, 15481.00
1130.447, 15246.00
1131.541, 15234.00
1132.635, 15244.00
1133.729, 15118.00
1134.822, 15192.00
1135.916, 15100.00
1137.009, 15138.00
1138.102, 15027.00
1139.195, 15079.00
1140.288, 14874.00
1141.380, 14847.00
1142.473, 14599.00
1143.565, 14666.00
1144.657, 14431.00
1145.749, 14527.00
1146.841, 14426.00
1147.932, 14559.00
1149.024, 14442.00
1150.115, 14430.00
1151.206, 14445.00
1152.297, 14401.00
1153.388, 14338.00
1154.479, 14257.00
1155.569, 14377.00
1156.659, 14504.00
1157.750, 14328.00
1158.839, 14481.00
1159.929, 14376.00
1161.019, 14484.00
1162.108, 14575.00
1163.198, 14261.00
1164.287, 14530.00
1165.376, 14436.00
1166.465, 14401.00
1167.553, 14338.00
1168.642, 14505.00
1169.730, 14597.00
1170.818, 14665.00
1171.906, 14507.00
1172.994, 14791.00
1174.082, 14597.00
1175.170, 14847.00
1176.257, 14713.00
1177.344, 14836.00
1178.431, 14901.00
1179.518, 14912.00
1180.605, 14951.00
1181.691, 15085.00
1182.778, 14996.00
1183.864, 15185.00
1184.950, 15158.00
1186.036, 15272.00
1187.122, 15293.00
1188.207, 15361.00
1189.292, 15310.00
1190.378, 15566.00
1191.463, 15603.00
1192.548, 15628.00
1193.632, 15605.00
1194.717, 15613.53
1195.801, 15613.99
1196.886, 15586.00
1197.970, 15596.00
1199.054, 15591.00
1200.137, 15546.99
1201.221, 15587.00
1202.305, 15538.00
1203.388, 15476.00
1204.471, 15555.00
1205.554, 15571.00
1206.637, 15713.00
1207.719, 15789.00
1208.802, 15703.00
1209.884, 15874.00
1210.966, 15801.00
1212.048, 16072.00
1213.130, 16119.80
1214.212, 16109.00
1215.293, 16372.00
1216.374, 16519.00
1217.456, 16721.26
1218.536, 16872.00
1219.617, 17000.00
1220.698, 17032.00
1221.778, 17180.00
1222.859, 17149.00
1223.939, 17126.37
1225.019, 17112.00
1226.099, 16974.00
1227.178, 16973.00
1228.258, 16884.00
1229.337, 17273.00
1230.417, 16853.48
1231.496, 16966.00
1232.574, 16408.00
1233.653, 16530.00
1234.732, 16734.00
1235.810, 16644.00
1236.888, 16674.00
1237.966, 16807.00
1239.044, 16916.00
1240.122, 16879.00
1241.199, 16926.40
1242.277, 16824.00
1243.354, 16800.00
1244.431, 16610.00
1245.508, 16358.00
1246.585, 16299.00
1247.661, 16061.00
1248.738, 16062.00
1249.814, 16060.00
1250.890, 15961.00
1251.966, 15947.00
1253.042, 15776.00
1254.117, 15892.00
1255.193, 15790.00
1256.268, 15921.00
1257.343, 15739.00
1258.418, 15631.00
1259.493, 15846.00
1260.567, 15841.00
1261.642, 15697.00
1262.716, 15719.00
1263.790, 15842.00
1264.864, 15967.00
1265.938, 15773.00
1267.011, 16029.00
1268.085, 15788.00
1269.158, 15828.00
1270.231, 15718.00
1271.304, 15925.00
1272.377, 15964.00
1273.450, 15847.00
1274.522, 15828.00
1275.594, 15903.00
1276.666, 15817.00
1277.738, 15917.00
1278.810, 15894.00
1279.882, 15816.00
1280.953, 15834.00
1282.025, 15924.00
1283.096, 15882.00
1284.167, 15808.00
1285.238, 15913.00
1286.308, 16032.00
1287.379, 16044.00
1288.449, 15842.00
1289.519, 15924.00
1290.589, 15988.00
1291.659, 15974.00
1292.729, 16118.00
1293.798, 16042.00
1294.868, 15946.00
1295.937, 16070.00
1297.006, 16229.00
1298.075, 16230.00
1299.143, 16284.00
1300.212, 16297.00
1301.280, 16003.00
1302.348, 16215.00
1303.416, 16074.00
1304.484, 16135.00
1305.552, 16316.00
1306.620, 16108.00
1307.687, 16151.00
1308.754, 16065.00
1309.821, 16208.00
1310.888, 16362.00
1311.955, 16263.00
1313.021, 16313.00
1314.088, 16283.00
1315.154, 16210.00
1316.220, 16451.00
1317.286, 16222.00
1318.352, 16340.00
1319.417, 16339.00
1320.483, 16286.00
1321.548, 16387.00
1322.613, 16568.00
1323.678, 16487.00
1324.743, 16513.00
1325.807, 16457.00
1326.872, 16390.00
1327.936, 16542.00
1329.000, 16462.00
1330.064, 16608.00
1331.128, 16706.00
1332.191, 16752.00
1333.255, 16603.00
1334.318, 16740.00
1335.381, 16712.38
1336.444, 16804.00
1337.507, 16779.00
1338.569, 16848.00
1339.632, 16905.00
1340.694, 16839.00
1341.756, 16945.11
1342.818, 17040.00
1343.880, 17058.00
1344.941, 16941.00
1346.003, 16955.00
1347.064, 17025.00
1348.125, 17114.00
1349.186, 17074.00
1350.247, 17087.00
1351.308, 17155.00
1352.368, 17179.00
1353.428, 17095.00
1354.489, 17246.00
1355.549, 17215.00
1356.608, 17251.00
1357.668, 17058.00
1358.727, 17119.00
1359.787, 17329.00
1360.846, 17082.00
1361.905, 17162.00
1362.964, 17360.00
1364.022, 17360.00
1365.081, 17449.60
1366.139, 17504.70
1367.197, 17482.00
1368.255, 17525.00
1369.313, 17537.70
1370.371, 17558.50
1371.428, 17565.00
1372.486, 17540.00
1373.543, 17542.00
1374.600, 17368.00
1375.657, 17498.00
1376.713, 17587.00
1377.770, 17385.00
1378.826, 17707.00
1379.882, 17580.00
1380.938, 17542.00
1381.994, 17564.00
1383.050, 17549.45
1384.106, 17641.75
1385.161, 17645.00
1386.216, 17818.00
1387.271, 17909.00
1388.326, 17912.00
1389.381, 17842.00
1390.435, 17839.00
1391.490, 17862.00
1392.544, 17861.31
1393.598, 17993.00
1394.652, 17981.00
1395.705, 17930.00
1396.759, 18104.00
1397.812, 17960.00
1398.866, 18072.00
1399.919, 18088.00
1400.972, 18133.00
1402.024, 18182.68
1403.077, 18072.00
1404.129, 18254.00
1405.181, 18258.00
1406.233, 18304.00
1407.285, 18466.00
1408.337, 18312.00
1409.389, 18338.00
1410.440, 18345.00
1411.491, 18345.00
1412.542, 18630.00
1413.593, 18496.00
1414.644, 18589.00
1415.695, 18664.00
1416.745, 18604.00
1417.795, 18727.00
1418.845, 18746.00
1419.895, 18757.00
1420.945, 18776.00
1421.995, 18823.00
1423.044, 18832.45
1424.093, 18812.00
1425.142, 18868.00
1426.191, 19058.00
1427.240, 19075.00
1428.289, 19053.00
1429.337, 19312.00
1430.385, 19194.00
1431.433, 19173.00
1432.481, 19397.00
1433.529, 19628.00
1434.577, 19494.00
1435.624, 19521.00
1436.672, 19425.00
1437.719, 19552.00
1438.766, 19748.00
1439.812, 19636.00
1440.859, 19653.00
1441.905, 19779.00
1442.952, 19789.00
1443.998, 19801.00
1445.044, 19884.00
1446.090, 20094.00
1447.135, 20045.00
1448.181, 19885.00
1449.226, 20095.00
1450.271, 19956.00
1451.316, 20015.00
1452.361, 20082.00
1453.405, 20076.00
1454.450, 20066.00
1455.494, 20012.00
1456.538, 20279.00
1457.582, 20293.00
1458.626, 20242.00
1459.670, 20317.00
1460.713, 20267.00
1461.757, 20309.00
1462.800, 20542.00
1463.843, 20448.00
1464.886, 20506.00
1465.928, 20385.00
1466.971, 20643.00
1468.013, 20690.00
1469.055, 20556.00
1470.097, 20783.00
1471.139, 20754.37
1472.181, 20757.00
1473.222, 20850.00
1474.263, 20750.00
1475.305, 20741.00
1476.346, 21049.00
1477.386, 20902.00
1478.427, 20875.00
1479.468, 21222.00
1480.508, 21136.00
1481.548, 21271.00
1482.588, 21343.00
1483.628, 21093.00
1484.668, 21382.00
1485.707, 21197.00
1486.747, 21574.00
1487.786, 21475.00
1488.825, 21666.00
1489.864, 21586.00
1490.902, 21615.00
1491.941, 21608.00
1492.979, 21655.00
1494.017, 21785.00
1495.055, 21837.00
1496.093, 21829.00
1497.131, 21786.00
1498.168, 21933.00
1499.206, 22050.00
1500.243, 22112.00
1501.280, 22099.00
1502.317, 22188.00
1503.354, 22198.00
1504.390, 22356.00
1505.426, 22276.00
1506.463, 22536.00
1507.499, 22533.00
1508.535, 22352.00
1509.570, 22374.00
1510.606, 22685.00
1511.641, 22678.00
1512.676, 22710.00
1513.711, 22581.00
1514.746, 22975.00
1515.781, 23067.00
1516.816, 22983.00
1517.850, 22953.00
1518.884, 22914.00
1519.918, 22989.64
1520.952, 23244.00
1521.986, 23170.00
1523.019, 23377.00
1524.053, 23418.00
1525.086, 23267.00
1526.119, 23638.00
1527.152, 23487.00
1528.185, 23611.00
1529.217, 23913.00
1530.250, 23808.00
1531.282, 23693.00
1532.314, 23742.00
1533.346, 23762.35
1534.377, 24014.00
1535.409, 23983.00
1536.440, 24023.00
1537.472, 24195.00
1538.503, 24247.00
1539.534, 24192.00
1540.564, 24497.00
1541.595, 24396.00
1542.625, 24478.00
1543.656, 24406.00
1544.686, 24514.00
1545.716, 24704.00
1546.745, 24639.00
1547.775, 24621.00
1548.804, 24752.00
1549.834, 24720.00
1550.863, 24833.00
1551.892, 25166.00
1552.920, 25574.00
1553.949, 25460.00
1554.977, 25508.00
1556.006, 25256.00
1557.034, 25279.00
1558.062, 25297.00
1559.089, 25304.00
1560.117, 25454.00
1561.144, 25405.00
1562.172, 25703.00
1563.199, 25464.00
1564.226, 25727.91
1565.252, 26153.00
1566.279, 26018.00
1567.305, 25933.00
1568.332, 25921.00
1569.358, 25888.00
1570.384, 26017.00
##END=



