##NAMES=Beryl
##RRUFFID=R060943
##IDEAL CHEMISTRY=Be_3_Al_2_Si_6_O_18_
##LOCALITY=Xinjiang, China
##OWNER=RRUFF
##SOURCE=Lawrence W. Snee
##DESCRIPTION=Green hexagonal prisms, variety emerald
##STATUS=The identification of this mineral has been confirmed by X-ray diffraction and chemical analysis
##URL=rruff.info/R060943
##MEASURED CHEMISTRY=(Be_2.96_Li_0.04_)_Σ=3_(Al_1.64_Mg_0.21_V^3+^_0.06_Fe^3+^_0.04_Sc^3+^_0.03_Cr^3+^_0.02_)_Σ=2_Si_6.00_O_18_·Na_0.25_
##PIN_ID=L00265
##ORIENTATION=Laser parallel to a* (1 0 0). Fiducial mark perpendicular to laser is parallel to -c [0 0 -1]
167.3340, 4059.000
168.5670, 4093.000
169.8000, 4100.000
171.0320, 4040.000
172.2650, 4175.000
173.4970, 4089.000
174.7290, 4174.000
175.9610, 4268.000
177.1930, 4191.000
178.4240, 4286.000
179.6550, 4322.000
180.8870, 4266.000
182.1170, 4324.000
183.3480, 4310.000
184.5790, 4379.000
185.8090, 4315.000
187.0390, 4396.000
188.2690, 4383.000
189.4990, 4478.000
190.7290, 4471.000
191.9580, 4427.000
193.1870, 4430.000
194.4160, 4399.000
195.6450, 4508.000
196.8740, 4426.000
198.1020, 4445.000
199.3310, 4409.000
200.5590, 4401.000
201.7870, 4435.000
203.0140, 4415.000
204.2420, 4412.000
205.4690, 4373.000
206.6960, 4346.000
207.9230, 4363.000
209.1500, 4386.000
210.3760, 4322.000
211.6030, 4357.318
212.8290, 4419.000
214.0550, 4375.000
215.2810, 4369.000
216.5060, 4386.000
217.7320, 4428.000
218.9570, 4444.000
220.1820, 4499.000
221.4070, 4415.000
222.6320, 4462.000
223.8560, 4468.000
225.0800, 4528.000
226.3040, 4405.000
227.5280, 4450.000
228.7520, 4443.000
229.9760, 4501.000
231.1990, 4432.000
232.4220, 4457.000
233.6450, 4485.000
234.8680, 4423.000
236.0910, 4430.000
237.3130, 4452.000
238.5350, 4397.000
239.7570, 4360.000
240.9790, 4409.000
242.2010, 4391.000
243.4220, 4465.000
244.6430, 4421.000
245.8640, 4497.000
247.0850, 4406.000
248.3060, 4430.000
249.5270, 4445.000
250.7470, 4420.000
251.9670, 4400.000
253.1870, 4324.000
254.4070, 4348.000
255.6260, 4265.000
256.8460, 4111.000
258.0650, 4203.000
259.2840, 4257.000
260.5030, 4224.000
261.7220, 4075.000
262.9400, 4112.000
264.1580, 4123.000
265.3760, 4236.000
266.5940, 4252.000
267.8120, 4303.000
269.0290, 4353.000
270.2470, 4445.000
271.4640, 4335.000
272.6810, 4368.000
273.8980, 4270.000
275.1140, 4174.000
276.3310, 4268.000
277.5470, 4255.000
278.7630, 4211.000
279.9790, 4314.000
281.1940, 4282.000
282.4100, 4290.000
283.6250, 4346.000
284.8400, 4256.000
286.0550, 4333.000
287.2700, 4325.000
288.4850, 4439.000
289.6990, 4476.000
290.9130, 4406.000
292.1270, 4482.000
293.3410, 4534.000
294.5540, 4515.000
295.7680, 4558.000
296.9810, 4656.000
298.1940, 4607.000
299.4070, 4784.000
300.6200, 4797.000
301.8320, 4873.000
303.0450, 4972.000
304.2570, 5046.000
305.4690, 5174.000
306.6800, 5293.000
307.8920, 5521.000
309.1030, 5710.000
310.3150, 5983.000
311.5260, 6322.000
312.7360, 6799.000
313.9470, 7428.000
315.1580, 8196.000
316.3680, 9077.000
317.5780, 10257.69
318.7880, 11365.00
319.9980, 13137.00
321.2070, 14950.00
322.4170, 16939.00
323.6260, 18100.00
324.8350, 18064.00
326.0430, 16423.00
327.2520, 13896.00
328.4610, 11245.00
329.6690, 9086.000
330.8770, 7453.000
332.0850, 6310.000
333.2920, 5530.000
334.5000, 4914.000
335.7070, 4591.000
336.9140, 4390.000
338.1210, 4232.000
339.3280, 4269.000
340.5350, 4047.000
341.7410, 3970.000
342.9470, 4003.000
344.1540, 3895.000
345.3590, 3921.000
346.5650, 3853.000
347.7710, 3885.000
348.9760, 3841.000
350.1810, 3857.000
351.3860, 3834.694
352.5910, 3777.000
353.7950, 3805.000
355.0000, 3821.000
356.2040, 3843.000
357.4080, 3869.000
358.6120, 3800.000
359.8150, 3808.000
361.0190, 3762.000
362.2220, 3812.000
363.4250, 3887.000
364.6280, 3929.000
365.8310, 3972.457
367.0340, 4002.000
368.2360, 4039.000
369.4380, 4106.000
370.6400, 4132.000
371.8420, 4193.874
373.0440, 4219.000
374.2450, 4283.000
375.4470, 4406.000
376.6480, 4496.739
377.8490, 4595.000
379.0490, 4759.000
380.2500, 4928.000
381.4500, 5072.000
382.6510, 5434.000
383.8510, 5708.000
385.0500, 6169.000
386.2500, 6623.000
387.4500, 7261.000
388.6490, 8029.000
389.8480, 8960.000
391.0470, 9875.000
392.2460, 11114.00
393.4440, 12478.00
394.6430, 13971.00
395.8410, 15119.00
397.0390, 15961.00
398.2370, 16155.00
399.4340, 15298.00
400.6320, 13605.00
401.8290, 11855.00
403.0260, 9998.000
404.2230, 8587.000
405.4200, 7380.000
406.6170, 6387.000
407.8130, 5763.000
409.0090, 5224.000
410.2050, 4866.000
411.4010, 4649.000
412.5970, 4493.000
413.7920, 4262.000
414.9880, 4139.000
416.1830, 4084.000
417.3780, 4027.000
418.5730, 3969.000
419.7670, 3968.000
420.9620, 3914.526
422.1560, 3835.000
423.3500, 3858.000
424.5440, 3810.000
425.7380, 3797.000
426.9310, 3837.000
428.1240, 3873.000
429.3180, 3805.000
430.5110, 3867.000
431.7030, 3770.000
432.8960, 3870.000
434.0890, 3878.000
435.2810, 3891.000
436.4730, 3921.000
437.6650, 3889.000
438.8570, 3905.000
440.0480, 3937.000
441.2390, 3898.000
442.4310, 3983.000
443.6220, 3923.000
444.8120, 3857.000
446.0030, 3763.000
447.1940, 3802.000
448.3840, 3784.000
449.5740, 3738.000
450.7640, 3741.000
451.9540, 3646.000
453.1430, 3664.000
454.3330, 3640.000
455.5220, 3572.000
456.7110, 3609.000
457.9000, 3694.000
459.0890, 3569.000
460.2770, 3561.000
461.4650, 3656.000
462.6540, 3615.000
463.8420, 3590.000
465.0290, 3552.000
466.2170, 3639.000
467.4050, 3609.000
468.5920, 3594.000
469.7790, 3625.000
470.9660, 3543.000
472.1530, 3651.000
473.3390, 3596.000
474.5250, 3607.000
475.7120, 3630.000
476.8980, 3661.000
478.0840, 3622.000
479.2690, 3726.000
480.4550, 3720.506
481.6400, 3856.000
482.8250, 3775.000
484.0100, 3737.000
485.1950, 3754.000
486.3800, 3735.000
487.5640, 3763.000
488.7480, 3733.000
489.9320, 3706.000
491.1160, 3744.000
492.3000, 3670.000
493.4840, 3755.000
494.6670, 3726.000
495.8500, 3671.000
497.0330, 3748.000
498.2160, 3759.000
499.3990, 3797.000
500.5810, 3725.000
501.7630, 3733.000
502.9460, 3817.000
504.1280, 3731.000
505.3090, 3822.000
506.4910, 3777.000
507.6720, 3846.000
508.8540, 3851.000
510.0350, 3874.000
511.2160, 3857.000
512.3960, 3871.000
513.5770, 3910.000
514.7570, 4002.000
515.9380, 4039.000
517.1180, 4004.000
518.2970, 3981.000
519.4770, 4096.000
520.6570, 4184.000
521.8360, 4274.000
523.0150, 4210.000
524.1940, 4221.000
525.3730, 4211.000
526.5510, 4147.657
527.7300, 4093.000
528.9080, 4003.000
530.0860, 3963.000
531.2640, 3820.000
532.4420, 3823.000
533.6200, 3730.000
534.7970, 3717.000
535.9740, 3662.000
537.1510, 3581.000
538.3280, 3640.000
539.5050, 3557.000
540.6810, 3535.000
541.8580, 3518.000
543.0340, 3579.000
544.2100, 3531.000
545.3860, 3475.000
546.5610, 3402.000
547.7370, 3505.000
548.9120, 3431.000
550.0870, 3404.000
551.2620, 3465.000
552.4370, 3434.000
553.6120, 3418.000
554.7860, 3498.000
555.9600, 3509.000
557.1340, 3476.000
558.3080, 3451.000
559.4820, 3495.000
560.6560, 3478.000
561.8290, 3549.000
563.0020, 3468.000
564.1750, 3514.000
565.3480, 3560.000
566.5210, 3524.000
567.6930, 3577.000
568.8660, 3601.000
570.0380, 3620.000
571.2100, 3603.000
572.3820, 3630.000
573.5530, 3644.000
574.7250, 3669.591
575.8960, 3715.000
577.0670, 3766.000
578.2380, 3806.000
579.4090, 3910.000
580.5800, 3818.000
581.7500, 3868.000
582.9210, 3861.000
584.0910, 3951.000
585.2610, 3945.000
586.4300, 3947.000
587.6000, 3956.000
588.7690, 3938.000
589.9390, 3937.000
591.1080, 3996.000
592.2770, 3896.000
593.4450, 3943.000
594.6140, 4021.000
595.7820, 3998.000
596.9500, 3964.000
598.1190, 4023.000
599.2860, 3980.000
600.4540, 4055.000
601.6220, 3991.000
602.7890, 4070.000
603.9560, 4083.000
605.1230, 4079.000
606.2900, 4179.000
607.4570, 4231.000
608.6230, 4286.000
609.7890, 4406.000
610.9560, 4492.000
612.1220, 4671.330
613.2870, 4943.000
614.4530, 5103.000
615.6180, 5357.000
616.7840, 5663.000
617.9490, 5856.000
619.1140, 5890.000
620.2790, 5814.000
621.4430, 5571.000
622.6080, 5141.000
623.7720, 4850.000
624.9360, 4607.000
626.1000, 4417.000
627.2640, 4230.000
628.4270, 4143.000
629.5910, 4112.000
630.7540, 4033.000
631.9170, 3977.000
633.0800, 3952.000
634.2430, 3959.000
635.4050, 4018.000
636.5680, 3988.000
637.7300, 3949.000
638.8920, 3997.000
640.0540, 3902.000
641.2150, 3952.000
642.3770, 4029.000
643.5380, 4097.000
644.7000, 4118.561
645.8610, 4090.000
647.0210, 4136.000
648.1820, 4186.000
649.3430, 4148.000
650.5030, 4201.000
651.6630, 4316.000
652.8230, 4323.000
653.9830, 4391.000
655.1430, 4391.000
656.3020, 4551.000
657.4620, 4663.000
658.6210, 4688.000
659.7800, 4884.000
660.9390, 4966.000
662.0970, 5212.000
663.2560, 5343.000
664.4140, 5656.000
665.5720, 5947.000
666.7300, 6372.000
667.8880, 6723.000
669.0460, 7362.000
670.2030, 7898.000
671.3600, 8607.000
672.5180, 9723.000
673.6740, 11099.00
674.8310, 12820.00
675.9880, 14971.00
677.1440, 18132.00
678.3010, 21689.00
679.4570, 25912.00
680.6130, 31493.00
681.7690, 37707.00
682.9240, 44300.00
684.0800, 51245.00
685.2350, 55794.00
686.3900, 56949.00
687.5450, 53462.00
688.7000, 46336.00
689.8540, 38167.00
691.0090, 30725.00
692.1630, 24314.00
693.3170, 19671.00
694.4710, 16241.00
695.6250, 13553.00
696.7780, 11792.00
697.9320, 10445.00
699.0850, 9522.000
700.2380, 8550.000
701.3910, 7986.000
702.5440, 7307.000
703.6970, 7008.000
704.8490, 6566.000
706.0010, 6164.000
707.1530, 5958.000
708.3050, 5624.000
709.4570, 5460.000
710.6090, 5278.000
711.7600, 5186.000
712.9110, 5123.000
714.0620, 4895.000
715.2130, 4814.000
716.3640, 4590.000
717.5150, 4497.000
718.6650, 4503.000
719.8150, 4289.000
720.9650, 4317.000
722.1150, 4215.000
723.2650, 4175.000
724.4150, 4089.000
725.5640, 4001.000
726.7130, 4001.000
727.8630, 3941.000
729.0110, 3976.000
730.1600, 3897.000
731.3090, 3913.000
732.4570, 3891.000
733.6060, 3726.000
734.7540, 3811.000
735.9020, 3744.000
737.0490, 3771.000
738.1970, 3746.000
739.3440, 3788.000
740.4920, 3769.000
741.6390, 3719.000
742.7860, 3691.000
743.9320, 3693.000
745.0790, 3657.000
746.2250, 3702.000
747.3720, 3605.000
748.5180, 3603.000
749.6640, 3669.000
750.8100, 3653.000
751.9550, 3719.000
753.1010, 3610.000
754.2460, 3672.000
755.3910, 3658.000
756.5360, 3688.000
757.6810, 3727.000
758.8250, 3729.000
759.9700, 3759.000
761.1140, 3704.000
762.2580, 3800.000
763.4020, 3760.000
764.5460, 3739.000
765.6900, 3790.000
766.8330, 3711.000
767.9760, 3775.000
769.1200, 3838.000
770.2620, 3792.000
771.4050, 3816.000
772.5480, 3793.000
773.6900, 3808.000
774.8330, 3702.000
775.9750, 3830.000
777.1170, 3743.000
778.2590, 3771.000
779.4000, 3777.000
780.5420, 3777.000
781.6830, 3776.005
782.8240, 3741.000
783.9650, 3743.000
785.1060, 3663.000
786.2470, 3619.000
787.3870, 3706.000
788.5280, 3655.000
789.6680, 3706.000
790.8080, 3694.000
791.9480, 3679.000
793.0870, 3754.000
794.2270, 3675.000
795.3660, 3729.000
796.5060, 3729.322
797.6450, 3651.000
798.7830, 3733.000
799.9220, 3701.000
801.0610, 3672.000
802.1990, 3584.000
803.3370, 3694.000
804.4750, 3669.000
805.6130, 3645.000
806.7510, 3568.000
807.8890, 3678.000
809.0260, 3646.000
810.1630, 3591.000
811.3000, 3602.000
812.4370, 3708.000
813.5740, 3546.000
814.7110, 3624.000
815.8470, 3591.000
816.9830, 3569.000
818.1190, 3647.000
819.2550, 3686.000
820.3910, 3637.000
821.5270, 3557.000
822.6620, 3592.000
823.7970, 3539.000
824.9330, 3621.000
826.0670, 3653.000
827.2020, 3600.000
828.3370, 3606.000
829.4710, 3642.000
830.6060, 3595.000
831.7400, 3618.000
832.8740, 3603.000
834.0080, 3701.000
835.1410, 3626.000
836.2750, 3705.000
837.4080, 3633.000
838.5410, 3592.000
839.6740, 3639.000
840.8070, 3604.000
841.9400, 3651.000
843.0730, 3652.000
844.2050, 3679.000
845.3370, 3607.000
846.4690, 3702.000
847.6010, 3606.000
848.7330, 3601.000
849.8640, 3660.000
850.9960, 3777.000
852.1270, 3602.000
853.2580, 3789.000
854.3890, 3662.000
855.5200, 3645.000
856.6500, 3639.000
857.7810, 3680.000
858.9110, 3680.000
860.0410, 3730.000
861.1710, 3644.000
862.3010, 3642.000
863.4310, 3675.000
864.5600, 3670.000
865.6900, 3572.000
866.8190, 3691.000
867.9480, 3610.000
869.0770, 3578.000
870.2050, 3648.000
871.3340, 3666.000
872.4620, 3641.000
873.5900, 3607.000
874.7180, 3581.000
875.8460, 3586.684
876.9740, 3615.000
878.1010, 3603.000
879.2290, 3597.000
880.3560, 3593.000
881.4830, 3644.000
882.6100, 3690.000
883.7370, 3684.000
884.8630, 3657.000
885.9900, 3679.000
887.1160, 3653.000
888.2420, 3712.000
889.3680, 3604.000
890.4940, 3674.000
891.6200, 3614.000
892.7450, 3677.000
893.8700, 3689.000
894.9960, 3675.000
896.1210, 3711.000
897.2460, 3744.000
898.3700, 3746.000
899.4950, 3787.000
900.6190, 3794.872
901.7430, 3796.688
902.8670, 3778.000
903.9910, 3791.000
905.1150, 3788.729
906.2390, 3784.000
907.3620, 3809.000
908.4850, 3826.000
909.6080, 3828.000
910.7310, 3881.000
911.8540, 3870.000
912.9770, 3858.000
914.0990, 3906.000
915.2210, 3855.000
916.3440, 3864.000
917.4660, 3871.574
918.5870, 3845.000
919.7090, 3909.000
920.8310, 3867.000
921.9520, 3944.000
923.0730, 3910.000
924.1940, 3939.000
925.3150, 3891.000
926.4360, 3817.000
927.5560, 3852.000
928.6770, 3896.000
929.7970, 3846.000
930.9170, 3737.000
932.0370, 3894.000
933.1570, 3936.000
934.2760, 3797.000
935.3960, 3801.000
936.5150, 3875.000
937.6340, 3841.000
938.7530, 3776.000
939.8720, 3745.000
940.9910, 3805.000
942.1090, 3804.000
943.2280, 3852.000
944.3460, 3743.000
945.4640, 3785.000
946.5820, 3756.000
947.6990, 3778.000
948.8170, 3766.000
949.9340, 3842.000
951.0520, 3868.000
952.1690, 3818.000
953.2860, 3788.000
954.4030, 3738.000
955.5190, 3787.000
956.6360, 3788.000
957.7520, 3823.000
958.8680, 3803.000
959.9840, 3759.000
961.1000, 3796.000
962.2160, 3905.000
963.3310, 3886.000
964.4470, 3830.000
965.5620, 3757.000
966.6770, 3887.000
967.7920, 3895.000
968.9060, 3930.000
970.0210, 3881.000
971.1360, 3869.000
972.2500, 3909.000
973.3640, 3886.314
974.4780, 3924.000
975.5920, 3917.000
976.7050, 3951.000
977.8190, 4002.000
978.9320, 3959.000
980.0450, 3956.000
981.1580, 4040.000
982.2710, 3966.000
983.3840, 4071.000
984.4970, 4059.000
985.6090, 4161.000
986.7210, 4208.000
987.8330, 4217.000
988.9450, 4357.000
990.0570, 4420.000
991.1690, 4368.000
992.2800, 4529.000
993.3920, 4501.000
994.5030, 4732.000
995.6140, 4736.000
996.7250, 4896.000
997.8350, 5025.000
998.9460, 5046.000
1000.056, 5237.000
1001.167, 5300.000
1002.277, 5347.000
1003.387, 5513.000
1004.496, 5493.000
1005.606, 5658.000
1006.715, 5837.000
1007.825, 5822.000
1008.934, 5896.000
1010.043, 5938.000
1011.152, 5991.000
1012.260, 5840.000
1013.369, 5864.000
1014.477, 5878.000
1015.586, 5902.000
1016.694, 5839.000
1017.802, 5754.000
1018.909, 5715.000
1020.017, 5716.643
1021.124, 5753.000
1022.232, 5776.000
1023.339, 5795.000
1024.446, 5856.000
1025.553, 5910.000
1026.659, 6017.000
1027.766, 6002.000
1028.872, 6139.000
1029.979, 6200.000
1031.085, 6381.000
1032.191, 6499.000
1033.296, 6594.000
1034.402, 6823.000
1035.507, 6918.000
1036.613, 7269.000
1037.718, 7440.000
1038.823, 7842.000
1039.928, 7898.000
1041.032, 8370.000
1042.137, 8756.000
1043.241, 9183.000
1044.346, 9762.000
1045.450, 10280.00
1046.554, 10839.00
1047.657, 11672.00
1048.761, 12605.00
1049.864, 13630.00
1050.968, 14864.00
1052.071, 16217.00
1053.174, 17952.00
1054.277, 19635.00
1055.379, 22235.00
1056.482, 24538.00
1057.584, 27653.00
1058.687, 30934.00
1059.789, 34439.00
1060.891, 38584.00
1061.992, 42609.00
1063.094, 45934.00
1064.196, 48873.00
1065.297, 51113.00
1066.398, 52588.00
1067.499, 52428.00
1068.600, 51447.00
1069.701, 49534.00
1070.801, 47609.00
1071.902, 44859.00
1073.002, 42047.00
1074.102, 39134.00
1075.202, 35798.00
1076.302, 32737.00
1077.402, 29977.00
1078.501, 27321.67
1079.600, 25004.00
1080.700, 22797.00
1081.799, 20927.00
1082.898, 19303.00
1083.996, 17940.00
1085.095, 16838.00
1086.193, 15713.00
1087.292, 14740.00
1088.390, 13979.00
1089.488, 13213.00
1090.586, 12646.00
1091.683, 12033.00
1092.781, 11453.00
1093.878, 11015.00
1094.975, 10708.00
1096.073, 10351.00
1097.169, 9985.000
1098.266, 9615.000
1099.363, 9316.000
1100.459, 9118.000
1101.556, 8904.000
1102.652, 8691.793
1103.748, 8553.000
1104.844, 8331.000
1105.940, 8255.000
1107.035, 8109.000
1108.131, 8055.000
1109.226, 7873.000
1110.321, 7823.000
1111.416, 7740.000
1112.511, 7580.000
1113.605, 7669.000
1114.700, 7717.000
1115.794, 7576.000
1116.889, 7485.000
1117.983, 7559.000
1119.077, 7613.000
1120.170, 7517.000
1121.264, 7749.000
1122.357, 7752.000
1123.451, 7856.000
1124.544, 8053.000
1125.637, 8168.000
1126.730, 8192.000
1127.823, 8294.155
1128.915, 8426.000
1130.008, 8335.000
1131.100, 8391.000
1132.192, 8331.000
1133.284, 8288.000
1134.376, 8184.000
1135.467, 7829.000
1136.559, 7602.000
1137.650, 7376.000
1138.742, 7119.000
1139.833, 6969.000
1140.924, 6715.000
1142.014, 6376.000
1143.105, 6144.000
1144.195, 5992.000
1145.286, 5771.000
1146.376, 5597.000
1147.466, 5496.000
1148.556, 5284.000
1149.646, 5159.000
1150.735, 5036.000
1151.825, 4886.000
1152.914, 4748.000
1154.003, 4676.000
1155.092, 4565.748
1156.181, 4457.000
1157.270, 4415.000
1158.358, 4417.000
1159.447, 4361.000
1160.535, 4328.000
1161.623, 4209.000
1162.711, 4217.000
1163.799, 4135.000
1164.886, 4210.000
1165.974, 4058.000
1167.061, 4111.000
1168.148, 4046.000
1169.235, 4030.000
1170.322, 3968.000
1171.409, 3958.004
1172.496, 3902.000
1173.582, 3942.000
1174.669, 3965.000
1175.755, 3968.000
1176.841, 3946.451
1177.927, 3923.000
1179.012, 3865.000
1180.098, 3881.000
1181.183, 3843.000
1182.269, 3851.000
1183.354, 3836.000
1184.439, 3806.000
1185.524, 3755.000
1186.608, 3772.000
1187.693, 3741.000
1188.777, 3712.000
1189.862, 3833.000
1190.946, 3729.000
1192.030, 3770.000
1193.113, 3762.000
1194.197, 3637.000
1195.281, 3673.000
1196.364, 3667.000
1197.447, 3647.000
1198.530, 3614.000
1199.613, 3618.000
1200.696, 3523.000
1201.779, 3606.000
1202.861, 3585.000
1203.944, 3561.000
1205.026, 3618.000
1206.108, 3560.000
1207.190, 3577.000
1208.271, 3589.000
1209.353, 3554.000
1210.435, 3537.000
1211.516, 3488.000
1212.597, 3475.410
1213.678, 3540.000
1214.759, 3474.000
1215.840, 3482.000
1216.920, 3557.000
1218.001, 3522.000
1219.081, 3421.000
1220.161, 3474.000
1221.241, 3478.000
1222.321, 3542.000
1223.401, 3490.000
1224.480, 3433.000
1225.560, 3465.000
1226.639, 3431.000
1227.718, 3442.000
1228.797, 3450.000
1229.876, 3483.000
1230.955, 3392.000
1232.033, 3411.000
1233.112, 3394.000
1234.190, 3486.000
1235.268, 3444.000
1236.346, 3342.000
1237.424, 3433.000
1238.501, 3328.000
1239.579, 3428.000
1240.656, 3345.000
1241.733, 3459.000
1242.811, 3397.000
1243.888, 3354.000
1244.964, 3341.000
1246.041, 3311.000
1247.117, 3437.000
1248.194, 3358.000
1249.270, 3380.000
1250.346, 3425.000
1251.422, 3370.000
1252.498, 3347.000
1253.573, 3318.000
1254.649, 3368.000
1255.724, 3367.000
1256.800, 3416.000
1257.875, 3377.000
1258.950, 3294.000
1260.024, 3306.000
1261.099, 3386.000
1262.173, 3339.000
1263.248, 3390.000
1264.322, 3326.000
1265.396, 3391.000
1266.470, 3311.000
1267.544, 3363.000
1268.617, 3425.000
1269.691, 3388.000
1270.764, 3352.000
1271.837, 3373.000
1272.910, 3327.000
1273.983, 3400.000
1275.056, 3375.000
1276.129, 3334.000
1277.201, 3397.000
1278.273, 3378.000
1279.346, 3354.000
1280.418, 3311.000
1281.489, 3337.000
1282.561, 3321.000
1283.633, 3332.000
1284.704, 3295.000
1285.776, 3281.000
1286.847, 3275.000
1287.918, 3305.000
1288.989, 3319.000
1290.059, 3338.000
1291.130, 3306.000
1292.200, 3334.000
1293.271, 3362.000
1294.341, 3352.000
1295.411, 3295.000
1296.481, 3311.000
1297.551, 3287.000
1298.620, 3344.000
1299.690, 3335.000
1300.759, 3280.000
1301.828, 3242.000
1302.897, 3307.000
1303.966, 3313.000
1305.035, 3379.000
1306.103, 3277.000
1307.172, 3247.000
1308.240, 3264.000
1309.308, 3287.000
1310.376, 3285.000
1311.444, 3251.000
1312.512, 3258.000
1313.580, 3255.000
1314.647, 3229.000
1315.714, 3316.000
1316.781, 3257.000
1317.848, 3234.000
1318.915, 3193.000
1319.982, 3325.000
1321.049, 3230.000
1322.115, 3266.000
1323.181, 3317.000
1324.248, 3292.000
1325.314, 3269.000
1326.380, 3285.000
1327.445, 3244.000
1328.511, 3228.000
1329.576, 3234.000
1330.642, 3250.000
1331.707, 3310.000
1332.772, 3218.000
1333.837, 3222.000
1334.902, 3270.000
1335.966, 3170.000
1337.031, 3220.000
1338.095, 3241.000
1339.159, 3261.000
1340.223, 3257.059
1341.287, 3224.000
1342.351, 3227.000
1343.415, 3222.000
1344.478, 3217.000
1345.541, 3256.000
1346.605, 3210.000
1347.668, 3238.000
1348.731, 3214.000
1349.793, 3274.000
1350.856, 3243.000
1351.918, 3246.000
1352.981, 3178.000
1354.043, 3232.000
1355.105, 3250.000
1356.167, 3244.000
1357.229, 3278.000
1358.290, 3243.000
1359.352, 3252.952
1360.413, 3246.534
1361.475, 3239.000
1362.536, 3236.000
1363.597, 3222.000
1364.657, 3233.017
1365.718, 3213.000
1366.779, 3197.000
1367.839, 3216.000
1368.899, 3179.000
1369.959, 3147.000
1371.019, 3237.000
1372.079, 3200.000
1373.139, 3198.000
1374.198, 3203.000
1375.258, 3179.000
1376.317, 3182.015
1377.376, 3172.000
1378.435, 3180.000
1379.494, 3236.000
1380.553, 3260.000
1381.611, 3335.000
1382.670, 3497.000
1383.728, 3604.000
1384.786, 3569.000
1385.844, 3521.000
1386.902, 3458.000
1387.960, 3302.000
1389.017, 3236.000
1390.075, 3157.000
1391.132, 3115.000
1392.189, 3146.000
1393.246, 3195.000
1394.303, 3148.000
1395.360, 3117.000
1396.417, 3142.000
1397.473, 3123.715
1398.529, 3179.000
1399.585, 3158.000
1400.642, 3151.000
1401.697, 3200.000
1402.753, 3210.000
1403.809, 3184.000
1404.864, 3135.000
1405.920, 3142.000
1406.975, 3122.492
1408.030, 3110.000
1409.085, 3131.000
1410.140, 3127.000
1411.194, 3161.000
1412.249, 3116.000
1413.303, 3179.000
1414.358, 3133.000
1415.412, 3137.000
1416.466, 3108.000
1417.520, 3095.000
1418.573, 3161.000
1419.627, 3124.000
1420.680, 3134.000
1421.733, 3092.000
1422.787, 3098.448
1423.840, 3107.000
1424.892, 3111.000
1425.945, 3128.000
1426.998, 3152.000
1428.050, 3110.000
1429.103, 3163.000
1430.155, 3104.000
1431.207, 3093.000
1432.259, 3142.000
1433.310, 3147.000
1434.362, 3151.000
1435.414, 3069.000
1436.465, 3071.000
1437.516, 3105.000
1438.567, 3108.000
1439.618, 3105.364
1440.669, 3131.000
1441.720, 3092.000
1442.770, 3116.000
1443.820, 3118.000
1444.871, 3123.000
1445.921, 3147.000
1446.971, 3182.000
1448.021, 3133.000
1449.070, 3178.000
1450.120, 3210.000
1451.169, 3128.000
1452.219, 3141.000
1453.268, 3082.000
1454.317, 3128.000
1455.366, 3131.000
1456.414, 3170.000
1457.463, 3174.000
1458.511, 3119.000
1459.560, 3143.000
1460.608, 3145.000
1461.656, 3124.000
1462.704, 3156.000
1463.752, 3110.000
1464.799, 3205.000
1465.847, 3199.000
1466.894, 3182.000
1467.941, 3212.000
1468.988, 3181.000
1470.035, 3167.000
1471.082, 3112.000
1472.129, 3090.000
1473.175, 3125.000
1474.222, 3112.000
1475.268, 3098.000
1476.314, 3064.000
1477.360, 3055.000
1478.406, 3101.000
1479.452, 3150.000
1480.498, 3049.000
1481.543, 3119.000
1482.588, 3060.000
1483.633, 3085.000
1484.679, 3055.000
1485.723, 3119.000
1486.768, 3126.000
1487.813, 3117.000
1488.857, 3067.000
1489.902, 3069.000
1490.946, 3100.000
1491.990, 3123.000
1493.034, 3030.000
1494.078, 3070.000
1495.122, 3069.000
1496.165, 3060.000
1497.209, 3098.000
1498.252, 3052.000
1499.295, 3036.000
1500.338, 3043.000
1501.381, 2993.000
1502.424, 3041.000
1503.466, 3118.000
1504.509, 3123.000
1505.551, 3075.000
1506.593, 3007.000
1507.635, 3088.000
1508.677, 3052.000
1509.719, 3080.000
1510.761, 3061.000
1511.802, 3088.000
1512.844, 3069.000
1513.885, 2994.000
1514.926, 3021.000
1515.967, 3049.000
1517.008, 3020.000
1518.049, 3064.000
1519.089, 2995.000
1520.130, 3048.000
1521.170, 3023.000
1522.210, 3058.000
1523.250, 3091.000
1524.290, 3041.000
1525.330, 3062.000
1526.370, 3072.000
1527.409, 3056.000
1528.448, 3109.000
1529.488, 3023.000
1530.527, 3036.000
1531.566, 3148.000
1532.605, 3029.000
1533.643, 3045.000
1534.682, 3054.000
1535.720, 2990.000
1536.759, 2993.000
1537.797, 3073.000
1538.835, 3031.000
1539.873, 3086.000
1540.910, 3071.000
1541.948, 3044.000
1542.986, 3101.000
1544.023, 3033.000
1545.060, 3119.000
1546.097, 3062.000
1547.134, 2971.000
1548.171, 3112.000
1549.208, 3082.000
1550.244, 3093.000
1551.281, 3101.000
1552.317, 3066.000
1553.353, 3048.000
1554.389, 3078.000
1555.425, 3076.000
1556.461, 3051.000
1557.497, 3053.000
1558.532, 3016.000
1559.567, 3047.000
1560.603, 3030.000
1561.638, 3022.000
1562.673, 3047.000
1563.708, 3098.000
##END=



