##NAMES=Beryl
##RRUFFID=R060944
##IDEAL CHEMISTRY=Be_3_Al_2_Si_6_O_18_
##LOCALITY=Habachtal, Salzburg, Austria
##OWNER=RRUFF
##SOURCE=Lawrence W. Snee
##DESCRIPTION=Green hexagonal prisms in a muscovite schist, variety emerald. Note that there are micro inclusions of actinolite. The Raman signal is a mixture of the two phases.
##STATUS=The identification of this mineral has been confirmed by X-ray diffraction and chemical analysis
##URL=rruff.info/R060944
##MEASURED CHEMISTRY=Be_3.00_(Al_1.59_Mg_0.33_Fe^3+^_0.04_Cr^3+^_0.04_)_Σ=2_Si_6.00_O_18_·Na_0.33_ ; bright inclusions are actinolite
##PIN_ID=L01950
##ORIENTATION=Laser parallel to c* (0 0 1). Fiducial mark perpendicular to laser is parallel to -b [0 -1 0]
130.4390, 10570.00
131.6680, 10665.00
132.8980, 10635.00
134.1270, 10558.00
135.3560, 10746.00
136.5850, 10753.00
137.8140, 11021.00
139.0430, 11063.00
140.2710, 11114.00
141.5000, 11029.00
142.7280, 11003.00
143.9560, 11024.00
145.1840, 10985.00
146.4120, 11014.00
147.6390, 11538.00
148.8670, 11606.00
150.0940, 11962.00
151.3210, 12530.00
152.5490, 13422.00
153.7750, 14730.00
155.0020, 16957.00
156.2290, 20365.00
157.4550, 22982.00
158.6810, 21571.00
159.9080, 18597.00
161.1340, 16300.00
162.3590, 15284.00
163.5850, 14701.00
164.8110, 14311.00
166.0360, 13942.00
167.2610, 14048.00
168.4860, 14313.00
169.7110, 14783.00
170.9360, 15886.00
172.1610, 17267.00
173.3850, 19775.00
174.6100, 23388.00
175.8340, 27261.00
177.0580, 29805.00
178.2820, 28415.00
179.5050, 24243.00
180.7290, 20356.00
181.9520, 17605.00
183.1760, 15990.00
184.3990, 14859.00
185.6220, 14370.00
186.8450, 13977.00
188.0670, 13844.00
189.2900, 13645.00
190.5120, 13767.00
191.7340, 13438.00
192.9560, 13240.00
194.1780, 12963.00
195.4000, 12778.00
196.6220, 12557.00
197.8430, 12687.00
199.0640, 12574.00
200.2860, 12746.00
201.5070, 12960.00
202.7270, 12938.00
203.9480, 12770.00
205.1690, 12744.00
206.3890, 12969.00
207.6090, 13295.00
208.8290, 13663.00
210.0490, 14210.00
211.2690, 14934.90
212.4890, 15794.85
213.7080, 17005.00
214.9280, 18268.00
216.1470, 20129.00
217.3660, 22342.00
218.5850, 25137.00
219.8030, 28271.00
221.0220, 29922.00
222.2400, 30075.00
223.4590, 27598.00
224.6770, 24302.00
225.8950, 21367.00
227.1120, 18667.00
228.3300, 17086.00
229.5480, 16112.00
230.7650, 14594.34
231.9820, 13826.00
233.1990, 12984.00
234.4160, 12577.00
235.6330, 12272.00
236.8490, 11909.00
238.0660, 11654.00
239.2820, 11614.00
240.4980, 11307.00
241.7140, 11516.00
242.9300, 11451.00
244.1460, 11660.00
245.3610, 11482.00
246.5770, 11528.00
247.7920, 11597.00
249.0070, 11575.00
250.2220, 11393.00
251.4370, 11278.00
252.6510, 11146.00
253.8660, 10928.00
255.0800, 10913.00
256.2940, 10882.00
257.5080, 11153.00
258.7220, 11056.91
259.9360, 11494.00
261.1490, 11041.00
262.3630, 10901.00
263.5760, 10838.00
264.7890, 11106.00
266.0020, 11155.00
267.2150, 11424.00
268.4270, 11351.00
269.6400, 10849.00
270.8520, 10844.00
272.0640, 10505.00
273.2760, 10603.00
274.4880, 10574.00
275.7000, 10591.00
276.9120, 10559.00
278.1230, 10547.00
279.3340, 10666.00
280.5450, 10618.00
281.7560, 10781.00
282.9670, 10970.00
284.1780, 10994.00
285.3880, 11161.00
286.5980, 11358.00
287.8090, 11436.00
289.0190, 11574.00
290.2290, 11703.00
291.4380, 11758.00
292.6480, 11625.00
293.8570, 11524.00
295.0670, 11504.00
296.2760, 11448.00
297.4850, 11576.00
298.6930, 11684.00
299.9020, 11552.00
301.1110, 11647.00
302.3190, 11501.00
303.5270, 11401.00
304.7350, 11239.00
305.9430, 11273.00
307.1510, 11037.00
308.3580, 11047.00
309.5660, 11207.00
310.7730, 11358.00
311.9800, 11207.00
313.1870, 11408.00
314.3940, 11405.00
315.6010, 11580.00
316.8070, 11771.00
318.0130, 12020.00
319.2200, 12126.00
320.4260, 12532.00
321.6310, 12641.00
322.8370, 12802.00
324.0430, 12601.00
325.2480, 12571.00
326.4540, 12105.00
327.6590, 12030.00
328.8640, 11675.00
330.0680, 11374.00
331.2730, 11186.00
332.4780, 10886.00
333.6820, 10649.00
334.8860, 10633.00
336.0900, 10768.00
337.2940, 10634.00
338.4980, 10660.00
339.7010, 10894.00
340.9050, 10871.00
342.1080, 10926.00
343.3110, 10994.00
344.5140, 11072.00
345.7170, 11085.00
346.9200, 11115.00
348.1220, 11050.51
349.3240, 11029.26
350.5270, 10851.00
351.7290, 10950.00
352.9310, 10823.00
354.1320, 10852.00
355.3340, 10784.00
356.5350, 10815.00
357.7370, 10753.00
358.9380, 10789.00
360.1390, 10845.55
361.3400, 10927.22
362.5400, 10986.00
363.7410, 11158.00
364.9410, 11208.00
366.1410, 11264.00
367.3410, 11292.00
368.5410, 11252.00
369.7410, 11233.00
370.9400, 11358.00
372.1400, 11273.00
373.3390, 11305.00
374.5380, 11195.00
375.7370, 11076.00
376.9360, 11036.00
378.1350, 11165.00
379.3330, 11140.00
380.5310, 11287.00
381.7300, 11497.00
382.9280, 11555.00
384.1260, 11942.77
385.3230, 12577.00
386.5210, 12818.00
387.7180, 13588.00
388.9160, 14327.00
390.1130, 15136.00
391.3100, 15832.00
392.5060, 16646.00
393.7030, 17311.00
394.9000, 18086.00
396.0960, 18810.00
397.2920, 19253.00
398.4880, 19016.00
399.6840, 18402.00
400.8800, 17509.00
402.0750, 16346.00
403.2710, 15762.00
404.4660, 14876.00
405.6610, 14208.00
406.8560, 13962.00
408.0510, 13668.00
409.2450, 13535.00
410.4400, 13411.00
411.6340, 13284.00
412.8280, 13082.00
414.0220, 12946.00
415.2160, 12650.00
416.4100, 12420.00
417.6030, 12170.00
418.7970, 12007.00
419.9900, 11814.00
421.1830, 11579.50
422.3760, 11491.00
423.5690, 11144.00
424.7610, 11036.00
425.9540, 10862.00
427.1460, 10977.00
428.3380, 10794.00
429.5300, 10934.00
430.7220, 10823.00
431.9140, 10798.00
433.1050, 11005.00
434.2970, 11146.00
435.4880, 11065.00
436.6790, 11043.00
437.8700, 11152.00
439.0610, 11245.00
440.2510, 11103.00
441.4420, 11041.00
442.6320, 10808.00
443.8220, 10527.00
445.0120, 10510.00
446.2020, 10201.00
447.3910, 10176.00
448.5810, 10087.00
449.7700, 9791.000
450.9600, 9920.000
452.1490, 9897.000
453.3370, 9967.000
454.5260, 9877.000
455.7150, 9988.000
456.9030, 9708.000
458.0910, 9823.000
459.2800, 9839.000
460.4670, 9678.000
461.6550, 9756.000
462.8430, 9704.000
464.0300, 9730.000
465.2180, 9669.000
466.4050, 9760.000
467.5920, 9710.000
468.7790, 9662.000
469.9650, 9708.000
471.1520, 9686.000
472.3380, 9654.000
473.5250, 9774.000
474.7110, 9819.000
475.8970, 9712.000
477.0820, 9827.000
478.2680, 9737.000
479.4540, 9656.000
480.6390, 9845.000
481.8240, 9796.000
483.0090, 9896.000
484.1940, 9703.000
485.3780, 9902.000
486.5630, 9758.000
487.7470, 9828.000
488.9320, 9781.000
490.1160, 9742.000
491.3000, 9715.000
492.4830, 9873.000
493.6670, 9791.000
494.8500, 9730.000
496.0340, 9917.000
497.2170, 9754.000
498.4000, 9848.000
499.5820, 9922.000
500.7650, 10024.00
501.9480, 9951.000
503.1300, 9934.000
504.3120, 9920.000
505.4940, 9993.000
506.6760, 10038.00
507.8580, 9938.000
509.0390, 10019.00
510.2210, 10154.00
511.4020, 10268.00
512.5830, 10405.00
513.7640, 10574.00
514.9450, 10592.00
516.1250, 10536.00
517.3060, 10514.00
518.4860, 10765.00
519.6660, 10647.00
520.8460, 10655.00
522.0260, 10806.00
523.2060, 10721.00
524.3850, 10720.00
525.5650, 10873.00
526.7440, 10862.00
527.9230, 10807.00
529.1020, 10556.00
530.2810, 10391.00
531.4590, 10332.00
532.6380, 10181.00
533.8160, 10145.00
534.9940, 10103.00
536.1720, 10142.00
537.3500, 10058.10
538.5270, 10038.00
539.7050, 9912.000
540.8820, 9859.000
542.0590, 9736.000
543.2360, 9869.000
544.4130, 9767.000
545.5900, 9810.000
546.7660, 9961.000
547.9430, 9823.000
549.1190, 10011.00
550.2950, 10093.00
551.4710, 10131.00
552.6470, 10138.00
553.8220, 10237.00
554.9980, 10323.00
556.1730, 10616.00
557.3480, 10691.00
558.5230, 11052.00
559.6980, 11056.00
560.8730, 11226.00
562.0470, 11054.00
563.2220, 11335.00
564.3960, 11291.00
565.5700, 11301.00
566.7440, 11184.00
567.9170, 11201.00
569.0910, 11234.00
570.2640, 11234.00
571.4380, 11110.00
572.6110, 11190.00
573.7840, 10908.00
574.9570, 11024.00
576.1290, 10878.00
577.3020, 10900.00
578.4740, 10818.00
579.6460, 10798.00
580.8180, 10731.00
581.9900, 10690.99
583.1620, 10670.00
584.3330, 10634.00
585.5040, 10611.00
586.6760, 10630.00
587.8470, 10581.00
589.0180, 10443.00
590.1880, 10512.00
591.3590, 10284.00
592.5290, 10393.00
593.7000, 10384.00
594.8700, 10428.00
596.0400, 10368.00
597.2090, 10383.00
598.3790, 10322.00
599.5490, 10340.00
600.7180, 10300.86
601.8870, 10226.00
603.0560, 10215.00
604.2250, 10322.00
605.3940, 10246.00
606.5620, 10220.00
607.7300, 10041.00
608.8990, 10292.00
610.0670, 10190.00
611.2350, 10305.00
612.4020, 10294.00
613.5700, 10358.00
614.7370, 10258.00
615.9050, 10230.00
617.0720, 10335.00
618.2390, 10149.00
619.4060, 10112.00
620.5720, 10266.00
621.7390, 10363.00
622.9050, 10181.00
624.0710, 10280.00
625.2370, 10331.00
626.4030, 10236.00
627.5690, 10340.00
628.7340, 10360.00
629.9000, 10405.00
631.0650, 10576.00
632.2300, 10503.00
633.3950, 10600.00
634.5600, 10740.00
635.7240, 10694.00
636.8890, 10881.00
638.0530, 10949.00
639.2170, 11135.00
640.3810, 11271.00
641.5450, 11530.00
642.7080, 11572.00
643.8720, 11770.00
645.0350, 11808.00
646.1980, 12129.00
647.3610, 12268.00
648.5240, 12534.00
649.6870, 12882.00
650.8490, 13160.00
652.0120, 13456.00
653.1740, 13821.00
654.3360, 14374.00
655.4980, 14854.00
656.6600, 15510.00
657.8210, 16396.00
658.9830, 17458.00
660.1440, 18694.00
661.3050, 20192.00
662.4660, 22442.00
663.6270, 24991.00
664.7870, 28335.00
665.9480, 32603.00
667.1080, 38254.00
668.2680, 44182.00
669.4280, 51206.00
670.5880, 56615.00
671.7480, 59546.00
672.9070, 58687.00
674.0670, 53773.00
675.2260, 47987.00
676.3850, 42294.00
677.5440, 37830.00
678.7030, 34996.00
679.8610, 33786.00
681.0200, 34149.00
682.1780, 35689.00
683.3360, 38490.00
684.4940, 42098.00
685.6520, 44414.00
686.8090, 44607.00
687.9670, 42658.00
689.1240, 38687.00
690.2810, 34071.00
691.4380, 29639.00
692.5950, 25891.00
693.7520, 22651.00
694.9080, 20340.00
696.0650, 18488.00
697.2210, 17292.00
698.3770, 16111.00
699.5330, 15306.00
700.6880, 14679.00
701.8440, 14065.00
702.9990, 13516.00
704.1550, 13113.00
705.3100, 12656.00
706.4650, 12632.00
707.6190, 12011.00
708.7740, 12033.00
709.9290, 11680.00
711.0830, 11673.00
712.2370, 11460.00
713.3910, 11266.00
714.5450, 11090.00
715.6980, 11112.00
716.8520, 11005.00
718.0050, 10956.00
719.1580, 10790.00
720.3110, 10666.00
721.4640, 10804.00
722.6170, 10583.00
723.7700, 10612.00
724.9220, 10526.00
726.0740, 10555.00
727.2260, 10362.00
728.3780, 10416.00
729.5300, 10558.00
730.6810, 10419.00
731.8330, 10432.00
732.9840, 10405.00
734.1350, 10410.00
735.2860, 10416.01
736.4370, 10400.00
737.5880, 10438.00
738.7380, 10461.00
739.8880, 10483.00
741.0390, 10533.00
742.1890, 10415.00
743.3380, 10529.00
744.4880, 10491.00
745.6380, 10673.00
746.7870, 10520.00
747.9360, 10497.00
749.0850, 10589.00
750.2340, 10579.00
751.3830, 10500.00
752.5310, 10628.00
753.6800, 10532.00
754.8280, 10557.00
755.9760, 10529.00
757.1240, 10506.00
758.2720, 10421.00
759.4190, 10420.00
760.5670, 10422.00
761.7140, 10299.00
762.8610, 10274.00
764.0080, 10224.00
765.1550, 10174.00
766.3020, 10299.00
767.4480, 10219.00
768.5950, 10247.00
769.7410, 10129.00
770.8870, 10069.00
772.0330, 10188.00
773.1780, 10098.00
774.3240, 9983.000
775.4690, 10134.00
776.6140, 10122.00
777.7590, 10063.00
778.9040, 10101.00
780.0490, 9946.000
781.1940, 10033.00
782.3380, 9950.000
783.4820, 9961.000
784.6260, 9987.000
785.7700, 10008.00
786.9140, 10023.00
788.0580, 10020.38
789.2010, 10099.00
790.3450, 10001.00
791.4880, 9962.000
792.6310, 9949.000
793.7730, 9992.000
794.9160, 9881.000
796.0590, 9882.000
797.2010, 9825.000
798.3430, 9896.000
799.4850, 9969.000
800.6270, 9902.000
801.7690, 9908.000
802.9100, 9798.000
804.0520, 9869.000
805.1930, 9779.000
806.3340, 9843.000
807.4750, 9815.838
808.6160, 9865.000
809.7560, 9814.000
810.8970, 9808.000
812.0370, 9872.000
813.1770, 9804.000
814.3170, 9888.000
815.4570, 9750.000
816.5960, 9845.000
817.7360, 9873.000
818.8750, 9792.000
820.0140, 9811.000
821.1530, 9910.000
822.2920, 9838.000
823.4310, 9948.000
824.5690, 9803.000
825.7070, 9854.000
826.8460, 9758.000
827.9840, 9824.000
829.1220, 9858.000
830.2590, 9903.000
831.3970, 9888.000
832.5340, 9792.000
833.6710, 10019.00
834.8080, 9847.000
835.9450, 9887.000
837.0820, 9892.000
838.2190, 9998.000
839.3550, 9840.000
840.4910, 9817.000
841.6270, 9892.000
842.7630, 9988.000
843.8990, 10005.00
845.0350, 9903.000
846.1700, 9885.000
847.3060, 9966.000
848.4410, 9959.000
849.5760, 9988.000
850.7100, 9917.000
851.8450, 9966.000
852.9800, 10030.00
854.1140, 10108.00
855.2480, 9956.000
856.3820, 9914.000
857.5160, 10027.00
858.6500, 9937.000
859.7830, 10003.00
860.9170, 10118.00
862.0500, 9952.000
863.1830, 9908.000
864.3160, 9941.000
865.4480, 10146.00
866.5810, 9978.000
867.7130, 10136.00
868.8460, 10051.00
869.9780, 10111.00
871.1100, 10072.00
872.2410, 10076.00
873.3730, 10236.00
874.5050, 10014.00
875.6360, 9940.000
876.7670, 10081.00
877.8980, 10061.00
879.0290, 10212.00
880.1590, 10260.00
881.2900, 10044.00
882.4200, 10183.00
883.5500, 10181.00
884.6800, 10216.00
885.8100, 10313.00
886.9400, 10296.00
888.0690, 10427.00
889.1990, 10378.00
890.3280, 10284.00
891.4570, 10211.00
892.5860, 10498.00
893.7140, 10526.00
894.8430, 10629.00
895.9710, 10580.00
897.1000, 10799.00
898.2280, 10697.00
899.3560, 10855.00
900.4830, 10869.00
901.6110, 10955.00
902.7380, 11000.00
903.8660, 11050.55
904.9930, 11065.00
906.1200, 11151.00
907.2460, 11215.00
908.3730, 11246.00
909.5000, 11358.00
910.6260, 11485.00
911.7520, 11565.00
912.8780, 11569.00
914.0040, 11648.00
915.1290, 11827.00
916.2550, 12011.00
917.3800, 12131.00
918.5050, 12388.00
919.6300, 12682.00
920.7550, 13079.00
921.8800, 13313.00
923.0040, 13692.00
924.1290, 14231.00
925.2530, 14817.00
926.3770, 15162.00
927.5010, 15647.00
928.6250, 15985.00
929.7480, 15878.00
930.8720, 15437.00
931.9950, 14762.00
933.1180, 14180.00
934.2410, 13580.00
935.3640, 13231.00
936.4860, 12646.00
937.6090, 12442.00
938.7310, 12027.00
939.8530, 11893.00
940.9750, 11809.00
942.0970, 11720.00
943.2180, 11698.00
944.3400, 11671.00
945.4610, 11950.00
946.5820, 11808.00
947.7030, 11818.00
948.8240, 11604.00
949.9450, 11549.00
951.0650, 11449.00
952.1860, 11336.00
953.3060, 11286.05
954.4260, 11189.00
955.5460, 11165.00
956.6650, 11198.00
957.7850, 11158.00
958.9040, 11127.00
960.0230, 11161.00
961.1420, 11059.00
962.2610, 11084.00
963.3800, 10960.00
964.4990, 10973.51
965.6170, 10973.67
966.7350, 11019.00
967.8530, 11026.00
968.9710, 11150.00
970.0890, 11224.00
971.2070, 11188.00
972.3240, 11121.00
973.4410, 11272.00
974.5580, 11218.00
975.6750, 11271.00
976.7920, 11377.00
977.9090, 11417.00
979.0250, 11487.59
980.1410, 11541.00
981.2580, 11606.00
982.3740, 11600.00
983.4890, 11653.00
984.6050, 11754.90
985.7200, 11832.49
986.8360, 11977.00
987.9510, 12119.00
989.0660, 12221.00
990.1810, 12469.00
991.2950, 12720.00
992.4100, 12764.00
993.5240, 12954.00
994.6390, 13243.00
995.7530, 13374.00
996.8660, 13351.00
997.9800, 13695.00
999.0940, 13635.00
1000.207, 13575.00
1001.320, 13835.00
1002.433, 13747.00
1003.546, 13830.00
1004.659, 13546.00
1005.772, 13468.00
1006.884, 13392.00
1007.996, 13449.00
1009.108, 13414.00
1010.220, 13417.00
1011.332, 13450.64
1012.444, 13352.00
1013.555, 13513.00
1014.666, 13509.00
1015.777, 13561.00
1016.888, 13525.00
1017.999, 13663.00
1019.110, 13687.00
1020.220, 13833.00
1021.331, 13814.00
1022.441, 13898.00
1023.551, 13996.00
1024.661, 13847.00
1025.770, 14099.00
1026.880, 13903.00
1027.989, 13844.00
1029.098, 13747.00
1030.207, 13706.00
1031.316, 13705.00
1032.425, 13669.00
1033.533, 13634.00
1034.642, 13682.00
1035.750, 13808.00
1036.858, 13861.00
1037.966, 14090.00
1039.073, 14295.00
1040.181, 14500.00
1041.288, 14945.33
1042.396, 15301.00
1043.503, 15961.00
1044.610, 16553.00
1045.716, 17243.00
1046.823, 18529.00
1047.929, 19739.00
1049.036, 21438.49
1050.142, 23449.00
1051.248, 25487.00
1052.353, 27972.00
1053.459, 30480.00
1054.564, 32088.00
1055.670, 33616.00
1056.775, 33919.00
1057.880, 33040.00
1058.985, 30991.00
1060.089, 28447.00
1061.194, 26538.00
1062.298, 24469.00
1063.402, 23304.00
1064.506, 22356.00
1065.610, 21618.00
1066.713, 20817.00
1067.817, 20448.00
1068.920, 19856.00
1070.023, 19665.00
1071.126, 19132.00
1072.229, 18700.00
1073.332, 18163.00
1074.435, 17561.00
1075.537, 17099.00
1076.639, 16580.00
1077.741, 16076.07
1078.843, 15652.00
1079.945, 15194.00
1081.046, 14835.00
1082.148, 14587.00
1083.249, 14491.00
1084.350, 14153.00
1085.451, 13911.00
1086.551, 13957.00
1087.652, 13578.00
1088.752, 13431.00
1089.853, 13412.00
1090.953, 13206.00
1092.053, 13209.00
1093.152, 13034.00
1094.252, 13127.00
1095.351, 13059.00
1096.451, 12770.00
1097.550, 12800.00
1098.649, 12648.00
1099.748, 12616.00
1100.846, 12398.00
1101.945, 12604.00
1103.043, 12385.00
1104.141, 12388.00
1105.239, 12436.00
1106.337, 12168.00
1107.434, 12088.00
1108.532, 12202.00
1109.629, 12172.00
1110.726, 12111.00
1111.823, 12140.00
1112.920, 12048.00
1114.017, 12310.00
1115.113, 12417.00
1116.210, 12703.00
1117.306, 13070.00
1118.402, 13376.00
1119.498, 13597.00
1120.593, 13891.00
1121.689, 14115.00
1122.784, 14198.00
1123.879, 14112.00
1124.974, 13814.00
1126.069, 13369.00
1127.164, 12992.00
1128.259, 12545.00
1129.353, 12228.00
1130.447, 12134.00
1131.541, 12063.00
1132.635, 12198.93
1133.729, 12064.17
1134.822, 11983.42
1135.916, 11983.00
1137.009, 11670.00
1138.102, 11685.00
1139.195, 11467.00
1140.288, 11451.00
1141.380, 11486.00
1142.473, 11316.00
1143.565, 11241.00
1144.657, 11177.00
1145.749, 11155.00
1146.841, 11197.00
1147.932, 11154.00
1149.024, 11153.00
1150.115, 11056.00
1151.206, 11072.00
1152.297, 11103.00
1153.388, 11014.00
1154.479, 11078.00
1155.569, 11190.00
1156.659, 10955.00
1157.750, 10874.00
1158.839, 11045.00
1159.929, 10906.00
1161.019, 10884.00
1162.108, 10895.00
1163.198, 10904.00
1164.287, 10899.49
1165.376, 10847.00
1166.465, 10882.00
1167.553, 10855.00
1168.642, 10790.00
1169.730, 10930.00
1170.818, 10963.00
1171.906, 10936.00
1172.994, 11114.00
1174.082, 11122.00
1175.170, 11122.00
1176.257, 11117.00
1177.344, 11162.00
1178.431, 11193.00
1179.518, 11300.00
1180.605, 11305.71
1181.691, 11361.00
1182.778, 11351.00
1183.864, 11360.00
1184.950, 11367.00
1186.036, 11482.00
1187.122, 11386.00
1188.207, 11338.00
1189.292, 11467.00
1190.378, 11431.00
1191.463, 11331.00
1192.548, 11346.00
1193.632, 11398.00
1194.717, 11321.00
1195.801, 11418.00
1196.886, 11433.00
1197.970, 11523.00
1199.054, 11466.00
1200.137, 11516.00
1201.221, 11585.00
1202.305, 11623.00
1203.388, 11654.00
1204.471, 11623.00
1205.554, 11734.00
1206.637, 11881.00
1207.719, 11970.00
1208.802, 11794.00
1209.884, 12127.00
1210.966, 11920.00
1212.048, 12169.00
1213.130, 12093.00
1214.212, 12030.00
1215.293, 12155.00
1216.374, 11965.00
1217.456, 12094.00
1218.536, 11954.00
1219.617, 11993.00
1220.698, 11785.00
1221.778, 11818.00
1222.859, 11593.00
1223.939, 11733.00
1225.019, 11528.00
1226.099, 11459.00
1227.178, 11393.00
1228.258, 11379.00
1229.337, 11307.00
1230.417, 11269.97
1231.496, 11229.00
1232.574, 11182.00
1233.653, 11138.00
1234.732, 11094.38
1235.810, 10968.00
1236.888, 10965.00
1237.966, 10979.00
1239.044, 10911.00
1240.122, 10944.00
1241.199, 11019.00
1242.277, 10920.00
1243.354, 10861.00
1244.431, 10856.00
1245.508, 10750.00
1246.585, 10766.25
1247.661, 10762.00
1248.738, 10742.00
1249.814, 10744.00
1250.890, 10721.67
1251.966, 10719.00
1253.042, 10685.00
1254.117, 10658.00
1255.193, 10645.00
1256.268, 10681.00
1257.343, 10693.00
1258.418, 10527.00
1259.493, 10607.00
1260.567, 10494.00
1261.642, 10623.00
1262.716, 10553.00
1263.790, 10702.00
1264.864, 10754.00
1265.938, 10596.00
1267.011, 10623.00
1268.085, 10644.00
1269.158, 10629.00
1270.231, 10652.00
1271.304, 10703.00
1272.377, 10624.00
1273.450, 10760.00
1274.522, 10734.00
1275.594, 10660.00
1276.666, 10659.00
1277.738, 10684.00
1278.810, 10645.00
1279.882, 10606.00
1280.953, 10630.36
1282.025, 10597.00
1283.096, 10672.00
1284.167, 10592.00
1285.238, 10647.00
1286.308, 10617.00
1287.379, 10633.00
1288.449, 10633.95
1289.519, 10632.26
1290.589, 10613.00
1291.659, 10651.00
1292.729, 10627.00
1293.798, 10649.00
1294.868, 10558.00
1295.937, 10730.00
1297.006, 10596.00
1298.075, 10644.00
1299.143, 10698.00
1300.212, 10644.00
1301.280, 10642.00
1302.348, 10641.00
1303.416, 10619.00
1304.484, 10725.00
1305.552, 10680.00
1306.620, 10708.56
1307.687, 10739.11
1308.754, 10706.00
1309.821, 10742.00
1310.888, 10714.00
1311.955, 10645.00
1313.021, 10659.00
1314.088, 10717.00
1315.154, 10657.00
1316.220, 10693.00
1317.286, 10766.00
1318.352, 10714.00
1319.417, 10818.00
1320.483, 10725.00
1321.548, 10657.00
1322.613, 10872.00
1323.678, 10633.00
1324.743, 10625.00
1325.807, 10688.00
1326.872, 10797.00
1327.936, 10722.00
1329.000, 10793.00
1330.064, 10754.00
1331.128, 10870.00
1332.191, 10829.00
1333.255, 10765.00
1334.318, 10830.00
1335.381, 10741.00
1336.444, 10726.00
1337.507, 10833.00
1338.569, 10912.00
1339.632, 10767.00
1340.694, 10851.00
1341.756, 10822.00
1342.818, 10728.00
1343.880, 10829.00
1344.941, 10873.00
1346.003, 10832.00
1347.064, 10870.00
1348.125, 10896.00
1349.186, 10834.00
1350.247, 10897.00
1351.308, 10853.00
1352.368, 10696.00
1353.428, 10824.00
1354.489, 10831.00
1355.549, 10754.00
1356.608, 10922.00
1357.668, 10897.00
1358.727, 10809.00
1359.787, 10724.00
1360.846, 10851.00
1361.905, 10755.00
1362.964, 10826.00
1364.022, 10859.00
1365.081, 10862.00
1366.139, 10920.00
1367.197, 10892.73
1368.255, 10825.00
1369.313, 10852.00
1370.371, 10923.00
1371.428, 10912.00
1372.486, 10910.95
1373.543, 10920.66
1374.600, 10851.00
1375.657, 10915.00
1376.713, 10874.90
1377.770, 10906.00
1378.826, 10840.00
1379.882, 10861.00
1380.938, 11013.00
1381.994, 11235.00
1383.050, 11280.00
1384.106, 11581.00
1385.161, 11516.00
1386.216, 11379.00
1387.271, 11116.00
1388.326, 10957.00
1389.381, 10947.00
1390.435, 10760.00
1391.490, 10866.00
1392.544, 10910.00
1393.598, 10921.00
1394.652, 10756.00
1395.705, 10882.00
1396.759, 10883.00
1397.812, 10724.00
1398.866, 10876.00
1399.919, 10935.00
1400.972, 10832.00
1402.024, 10809.00
1403.077, 10898.00
1404.129, 10752.00
1405.181, 10924.00
1406.233, 10909.00
1407.285, 10959.00
1408.337, 10801.00
1409.389, 10902.00
1410.440, 10805.00
1411.491, 10781.00
1412.542, 10870.00
1413.593, 11006.00
1414.644, 11048.00
1415.695, 10812.00
1416.745, 10934.00
1417.795, 10889.00
1418.845, 10852.00
1419.895, 10935.00
1420.945, 10893.00
1421.995, 10875.00
1423.044, 10900.00
1424.093, 10908.17
1425.142, 10895.00
1426.191, 10945.00
1427.240, 10937.00
1428.289, 10879.00
1429.337, 10959.00
1430.385, 10991.00
1431.433, 10911.00
1432.481, 11011.00
1433.529, 11102.00
1434.577, 11121.00
1435.624, 11067.00
1436.672, 11158.00
1437.719, 10900.00
1438.766, 11046.00
1439.812, 11072.00
1440.859, 10929.00
1441.905, 10994.00
1442.952, 11104.00
1443.998, 11080.00
1445.044, 11147.93
1446.090, 11119.00
1447.135, 11180.00
1448.181, 11235.00
1449.226, 11202.00
1450.271, 11147.00
1451.316, 11139.00
1452.361, 11159.00
1453.405, 11186.00
1454.450, 11172.00
1455.494, 11150.00
1456.538, 11172.00
1457.582, 11147.00
1458.626, 11186.00
1459.670, 11183.00
1460.713, 11171.00
1461.757, 11166.00
1462.800, 11239.00
1463.843, 11149.00
1464.886, 11252.00
1465.928, 11311.00
1466.971, 11170.00
1468.013, 11157.00
1469.055, 11188.00
1470.097, 11332.00
1471.139, 11221.00
1472.181, 11118.00
1473.222, 11099.00
1474.263, 11270.00
1475.305, 11066.00
1476.346, 11314.00
1477.386, 11316.00
1478.427, 11284.00
1479.468, 11175.00
1480.508, 11270.00
1481.548, 11201.00
1482.588, 11282.00
1483.628, 11220.00
1484.668, 11296.00
1485.707, 11258.00
1486.747, 11345.00
1487.786, 11329.00
1488.825, 11272.00
1489.864, 11328.00
1490.902, 11286.00
1491.941, 11360.00
1492.979, 11376.00
1494.017, 11323.00
1495.055, 11348.00
1496.093, 11346.00
1497.131, 11338.00
1498.168, 11355.58
1499.206, 11379.00
1500.243, 11357.00
1501.280, 11386.82
1502.317, 11354.45
1503.354, 11392.00
1504.390, 11358.00
1505.426, 11350.00
1506.463, 11390.00
1507.499, 11521.00
1508.535, 11367.00
1509.570, 11452.00
1510.606, 11475.00
1511.641, 11423.00
1512.676, 11452.00
1513.711, 11505.00
1514.746, 11490.00
1515.781, 11539.01
1516.816, 11552.00
1517.850, 11599.00
1518.884, 11557.00
1519.918, 11575.00
1520.952, 11526.00
1521.986, 11346.00
1523.019, 11597.00
1524.053, 11465.00
1525.086, 11676.00
1526.119, 11540.00
1527.152, 11492.00
1528.185, 11580.00
1529.217, 11696.00
1530.250, 11576.00
1531.282, 11619.00
1532.314, 11629.00
1533.346, 11732.00
1534.377, 11719.00
1535.409, 11819.00
1536.440, 11545.00
1537.472, 11635.00
1538.503, 11661.00
1539.534, 11766.00
1540.564, 11791.00
1541.595, 11573.00
1542.625, 11734.00
1543.656, 11603.00
1544.686, 11802.00
1545.716, 11586.00
1546.745, 11747.00
1547.775, 11834.00
1548.804, 11722.00
1549.834, 11717.00
1550.863, 11765.27
1551.892, 11773.00
1552.920, 11883.00
1553.949, 11832.00
1554.977, 11956.00
1556.006, 11819.00
1557.034, 11743.00
1558.062, 11847.00
1559.089, 11845.00
1560.117, 11777.00
1561.144, 11871.00
1562.172, 11841.00
1563.199, 11884.00
1564.226, 11832.00
1565.252, 11878.00
1566.279, 11873.00
1567.305, 11837.00
1568.332, 11901.00
1569.358, 11926.00
1570.384, 11889.00
1571.409, 11865.00
##END=



