##NAMES=Beryl
##RRUFFID=R050368
##IDEAL CHEMISTRY=Be_3_Al_2_Si_6_O_18_
##LOCALITY=Wah Wah Mountains, Utah, USA
##OWNER=RRUFF
##SOURCE=Eugene Schlepp
##DESCRIPTION=Red-violet hexagonal prism
##STATUS=The identification of this mineral has been confirmed by X-ray diffraction and chemical analysis
##URL=rruff.info/R050368
##MEASURED CHEMISTRY=(Be_0.99_Li_0.01_)_3_(Al_0.95_Fe^3+^_0.05_)_2_Si_6.00_O_18_Î‡K_0.02_Na_0.01_
##PIN_ID=L01802
##ORIENTATION=Laser parallel to -c* (0 0 -1). Fiducial mark perpendicular to laser is parallel to b [0 1 0]
82.36700, 7540.000
83.60200, 7717.834
84.83700, 7961.258
86.07200, 8145.000
87.30800, 8365.000
88.54200, 8603.396
89.77700, 8711.000
91.01200, 9111.000
92.24600, 9458.000
93.48000, 9785.000
94.71400, 9399.000
95.94800, 9283.000
97.18200, 9157.000
98.41600, 9173.000
99.64900, 9060.633
100.8830, 9229.000
102.1160, 8969.000
103.3490, 9085.000
104.5820, 9121.000
105.8150, 9390.000
107.0470, 9977.000
108.2800, 10995.00
109.5120, 11449.00
110.7440, 10131.00
111.9760, 9119.000
113.2080, 8875.000
114.4400, 9042.000
115.6710, 9261.000
116.9030, 9239.000
118.1340, 9062.000
119.3650, 8849.000
120.5960, 8786.000
121.8270, 8791.000
123.0580, 8941.000
124.2880, 9017.000
125.5190, 8904.000
126.7490, 9047.328
127.9790, 8790.000
129.2090, 9190.000
130.4390, 9037.990
131.6680, 9152.000
132.8980, 9156.000
134.1270, 9230.000
135.3560, 9401.000
136.5850, 9337.000
137.8140, 9719.000
139.0430, 9814.000
140.2710, 9913.000
141.5000, 9962.000
142.7280, 9694.000
143.9560, 9684.000
145.1840, 9589.000
146.4120, 9365.000
147.6390, 9191.000
148.8670, 8961.000
150.0940, 8747.000
151.3210, 8802.000
152.5490, 8912.000
153.7750, 8667.000
155.0020, 8674.000
156.2290, 8539.000
157.4550, 8574.000
158.6810, 8565.000
159.9080, 8477.000
161.1340, 8429.000
162.3590, 8675.000
163.5850, 8657.000
164.8110, 8903.000
166.0360, 9192.000
167.2610, 9179.000
168.4860, 9336.000
169.7110, 9308.000
170.9360, 9401.941
172.1610, 9439.028
173.3850, 9553.000
174.6100, 9552.000
175.8340, 9627.000
177.0580, 9806.000
178.2820, 9931.000
179.5050, 10181.00
180.7290, 10493.00
181.9520, 10778.00
183.1760, 10863.00
184.3990, 11052.00
185.6220, 11207.00
186.8450, 11298.00
188.0670, 11160.00
189.2900, 11314.00
190.5120, 11378.00
191.7340, 11519.00
192.9560, 11656.00
194.1780, 11682.00
195.4000, 11839.00
196.6220, 11834.00
197.8430, 11794.00
199.0640, 11660.00
200.2860, 11795.00
201.5070, 11984.00
202.7270, 11976.00
203.9480, 11604.00
205.1690, 11003.00
206.3890, 10520.00
207.6090, 10546.00
208.8290, 10373.00
210.0490, 10339.00
211.2690, 10325.00
212.4890, 10278.00
213.7080, 10331.00
214.9280, 10310.00
216.1470, 10254.00
217.3660, 10382.00
218.5850, 10403.00
219.8030, 10457.00
221.0220, 10427.00
222.2400, 10440.00
223.4590, 10413.00
224.6770, 10496.00
225.8950, 10444.00
227.1120, 10353.00
228.3300, 10435.00
229.5480, 10342.00
230.7650, 10333.00
231.9820, 10187.00
233.1990, 10326.00
234.4160, 10420.00
235.6330, 10321.00
236.8490, 10440.00
238.0660, 10273.00
239.2820, 10183.00
240.4980, 10012.00
241.7140, 9995.000
242.9300, 9894.000
244.1460, 9719.000
245.3610, 9751.000
246.5770, 9850.000
247.7920, 9956.000
249.0070, 9879.000
250.2220, 9829.000
251.4370, 10031.00
252.6510, 10086.00
253.8660, 10076.00
255.0800, 9990.000
256.2940, 9968.000
257.5080, 10024.00
258.7220, 10461.00
259.9360, 10786.00
261.1490, 10446.00
262.3630, 10205.00
263.5760, 10224.00
264.7890, 10212.00
266.0020, 10308.00
267.2150, 10611.00
268.4270, 10871.00
269.6400, 11156.00
270.8520, 11484.00
272.0640, 11521.00
273.2760, 11345.00
274.4880, 11061.00
275.7000, 10999.00
276.9120, 10722.00
278.1230, 10745.00
279.3340, 10976.00
280.5450, 10891.00
281.7560, 10979.00
282.9670, 10941.00
284.1780, 10905.00
285.3880, 10827.71
286.5980, 10829.00
287.8090, 10590.00
289.0190, 10453.00
290.2290, 10353.00
291.4380, 10249.00
292.6480, 10174.00
293.8570, 10288.00
295.0670, 10270.00
296.2760, 10316.00
297.4850, 10454.00
298.6930, 10546.45
299.9020, 10790.00
301.1110, 10847.00
302.3190, 11077.00
303.5270, 11219.00
304.7350, 11491.00
305.9430, 12005.00
307.1510, 12189.00
308.3580, 12792.00
309.5660, 13497.00
310.7730, 14320.00
311.9800, 15289.45
313.1870, 16484.00
314.3940, 17490.00
315.6010, 18706.00
316.8070, 19902.00
318.0130, 21597.00
319.2200, 23205.00
320.4260, 24075.00
321.6310, 22839.00
322.8370, 20527.00
324.0430, 17659.00
325.2480, 15020.00
326.4540, 13046.00
327.6590, 11742.00
328.8640, 10909.00
330.0680, 10415.00
331.2730, 10028.00
332.4780, 9897.000
333.6820, 9694.000
334.8860, 9582.000
336.0900, 9597.000
337.2940, 9517.000
338.4980, 9537.000
339.7010, 9364.000
340.9050, 9408.000
342.1080, 9344.000
343.3110, 9243.000
344.5140, 9336.000
345.7170, 9320.000
346.9200, 9108.000
348.1220, 9113.000
349.3240, 9213.000
350.5270, 9098.000
351.7290, 9054.000
352.9310, 8897.000
354.1320, 9017.000
355.3340, 8952.000
356.5350, 8852.000
357.7370, 8756.000
358.9380, 8717.000
360.1390, 8670.207
361.3400, 8619.726
362.5400, 8628.000
363.7410, 8584.000
364.9410, 8548.000
366.1410, 8607.000
367.3410, 8559.928
368.5410, 8620.000
369.7410, 8549.000
370.9400, 8577.000
372.1400, 8597.000
373.3390, 8606.000
374.5380, 8700.000
375.7370, 8763.000
376.9360, 8851.000
378.1350, 9097.005
379.3330, 9286.858
380.5310, 9705.000
381.7300, 10035.00
382.9280, 10498.00
384.1260, 11336.00
385.3230, 12204.00
386.5210, 13362.00
387.7180, 14848.00
388.9160, 16454.00
390.1130, 18701.00
391.3100, 21394.00
392.5060, 23900.00
393.7030, 26073.00
394.9000, 26523.00
396.0960, 25193.00
397.2920, 23060.00
398.4880, 20247.00
399.6840, 18006.00
400.8800, 15970.00
402.0750, 14605.00
403.2710, 13757.00
404.4660, 12931.00
405.6610, 12659.00
406.8560, 12322.00
408.0510, 12481.00
409.2450, 12496.00
410.4400, 12575.00
411.6340, 12732.00
412.8280, 12927.00
414.0220, 13158.00
415.2160, 13388.00
416.4100, 13495.00
417.6030, 13421.00
418.7970, 13374.00
419.9900, 13152.00
421.1830, 12901.00
422.3760, 12400.00
423.5690, 12147.00
424.7610, 11820.00
425.9540, 11674.00
427.1460, 11479.03
428.3380, 11184.00
429.5300, 11303.00
430.7220, 11330.00
431.9140, 11461.00
433.1050, 11858.00
434.2970, 12331.00
435.4880, 12943.00
436.6790, 13448.00
437.8700, 14260.00
439.0610, 15221.00
440.2510, 15798.00
441.4420, 16280.00
442.6320, 15908.00
443.8220, 15157.00
445.0120, 13800.00
446.2020, 12645.00
447.3910, 11684.00
448.5810, 11066.00
449.7700, 10575.00
450.9600, 9921.000
452.1490, 9822.000
453.3370, 9507.000
454.5260, 9385.000
455.7150, 9185.000
456.9030, 9136.000
458.0910, 9197.000
459.2800, 9112.000
460.4670, 9073.000
461.6550, 9097.000
462.8430, 9047.000
464.0300, 9053.000
465.2180, 8988.000
466.4050, 8865.000
467.5920, 8873.000
468.7790, 8812.000
469.9650, 8829.000
471.1520, 8915.000
472.3380, 8974.000
473.5250, 8954.000
474.7110, 9032.000
475.8970, 9031.196
477.0820, 9200.000
478.2680, 9131.000
479.4540, 9248.000
480.6390, 9471.000
481.8240, 9399.000
483.0090, 9377.000
484.1940, 9579.000
485.3780, 9637.000
486.5630, 9631.000
487.7470, 9749.000
488.9320, 9751.000
490.1160, 9621.000
491.3000, 9548.000
492.4830, 9675.000
493.6670, 9577.000
494.8500, 9415.000
496.0340, 9476.000
497.2170, 9449.000
498.4000, 9527.000
499.5820, 9544.000
500.7650, 9561.000
501.9480, 9652.000
503.1300, 9675.000
504.3120, 9721.000
505.4940, 9746.000
506.6760, 9813.000
507.8580, 9943.000
509.0390, 9802.000
510.2210, 9823.000
511.4020, 9872.000
512.5830, 10014.00
513.7640, 9975.000
514.9450, 9999.000
516.1250, 10120.00
517.3060, 10148.00
518.4860, 10195.00
519.6660, 10308.31
520.8460, 10515.00
522.0260, 10477.00
523.2060, 10605.00
524.3850, 10624.00
525.5650, 10600.00
526.7440, 10685.00
527.9230, 10599.00
529.1020, 10578.00
530.2810, 10421.00
531.4590, 10276.00
532.6380, 10160.00
533.8160, 9981.000
534.9940, 9858.000
536.1720, 9789.000
537.3500, 9634.000
538.5270, 9615.000
539.7050, 9511.000
540.8820, 9407.000
542.0590, 9353.000
543.2360, 9390.000
544.4130, 9325.000
545.5900, 9302.000
546.7660, 9209.000
547.9430, 9136.000
549.1190, 9214.000
550.2950, 9180.000
551.4710, 9078.000
552.6470, 9099.000
553.8220, 9187.000
554.9980, 9132.000
556.1730, 9334.000
557.3480, 9269.000
558.5230, 9464.000
559.6980, 9564.000
560.8730, 9617.000
562.0470, 9716.000
563.2220, 9719.000
564.3960, 9728.000
565.5700, 9703.000
566.7440, 9867.000
567.9170, 10008.00
569.0910, 10115.78
570.2640, 10121.00
571.4380, 10376.00
572.6110, 10758.00
573.7840, 10800.00
574.9570, 11037.00
576.1290, 11512.00
577.3020, 11752.00
578.4740, 11952.00
579.6460, 12296.00
580.8180, 12650.00
581.9900, 12885.00
583.1620, 13138.00
584.3330, 13453.00
585.5040, 13790.00
586.6760, 13956.00
587.8470, 14369.00
589.0180, 14854.00
590.1880, 15122.00
591.3590, 15778.00
592.5290, 15806.00
593.7000, 16027.00
594.8700, 15968.00
596.0400, 15878.00
597.2090, 15839.00
598.3790, 15525.00
599.5490, 15285.00
600.7180, 15054.00
601.8870, 14756.00
603.0560, 14476.00
604.2250, 14140.00
605.3940, 13817.00
606.5620, 13600.00
607.7300, 13376.16
608.8990, 13235.00
610.0670, 13082.00
611.2350, 13029.00
612.4020, 12980.00
613.5700, 12989.00
614.7370, 12983.00
615.9050, 13025.00
617.0720, 13197.00
618.2390, 13262.00
619.4060, 13147.00
620.5720, 13211.00
621.7390, 13125.00
622.9050, 12653.00
624.0710, 12128.00
625.2370, 11775.00
626.4030, 11225.00
627.5690, 11014.00
628.7340, 10509.00
629.9000, 10358.00
631.0650, 10182.00
632.2300, 10206.00
633.3950, 10216.00
634.5600, 9993.000
635.7240, 10192.00
636.8890, 10147.00
638.0530, 10227.00
639.2170, 10235.00
640.3810, 10321.00
641.5450, 10346.00
642.7080, 10410.02
643.8720, 10559.00
645.0350, 10516.00
646.1980, 10569.00
647.3610, 10571.00
648.5240, 10433.00
649.6870, 10439.00
650.8490, 10386.69
652.0120, 10309.00
653.1740, 10317.00
654.3360, 10269.00
655.4980, 10233.00
656.6600, 10312.00
657.8210, 10415.00
658.9830, 10613.00
660.1440, 10854.00
661.3050, 11117.00
662.4660, 11335.00
663.6270, 11825.00
664.7870, 12319.00
665.9480, 12753.00
667.1080, 13657.00
668.2680, 14461.00
669.4280, 15643.00
670.5880, 16937.00
671.7480, 18844.00
672.9070, 21614.00
674.0670, 24630.00
675.2260, 28640.00
676.3850, 33031.00
677.5440, 38475.00
678.7030, 44682.00
679.8610, 51360.00
681.0200, 56103.00
682.1780, 57746.00
683.3360, 54963.00
684.4940, 48650.00
685.6520, 41547.00
686.8090, 34517.00
687.9670, 28705.00
689.1240, 24397.00
690.2810, 21352.00
691.4380, 19112.00
692.5950, 17123.00
693.7520, 15931.00
694.9080, 15009.00
696.0650, 13869.00
697.2210, 13267.00
698.3770, 12671.00
699.5330, 12171.00
700.6880, 11641.00
701.8440, 11264.00
702.9990, 11093.00
704.1550, 10719.00
705.3100, 10582.00
706.4650, 10330.00
707.6190, 10013.00
708.7740, 9957.000
709.9290, 9897.000
711.0830, 9754.000
712.2370, 9649.964
713.3910, 9346.000
714.5450, 9357.000
715.6980, 9241.000
716.8520, 9076.000
718.0050, 9215.000
719.1580, 9155.000
720.3110, 9105.000
721.4640, 9030.000
722.6170, 8966.484
723.7700, 8897.973
724.9220, 8865.000
726.0740, 8751.000
727.2260, 8784.000
728.3780, 8712.000
729.5300, 8732.000
730.6810, 8666.000
731.8330, 8762.000
732.9840, 8706.000
734.1350, 8722.000
735.2860, 8804.000
736.4370, 8807.000
737.5880, 8837.000
738.7380, 8839.000
739.8880, 8839.000
741.0390, 8790.000
742.1890, 8839.000
743.3380, 9002.000
744.4880, 9011.000
745.6380, 8917.000
746.7870, 8815.000
747.9360, 8857.000
749.0850, 8946.000
750.2340, 8933.000
751.3830, 9025.459
752.5310, 9082.000
753.6800, 9143.000
754.8280, 9212.000
755.9760, 9219.000
757.1240, 9442.000
758.2720, 9657.000
759.4190, 10041.00
760.5670, 10353.59
761.7140, 10755.00
762.8610, 11196.00
764.0080, 11841.00
765.1550, 12440.00
766.3020, 13024.00
767.4480, 13590.00
768.5950, 13770.00
769.7410, 13686.00
770.8870, 13302.00
772.0330, 12503.00
773.1780, 11814.00
774.3240, 11164.00
775.4690, 10675.14
776.6140, 10239.00
777.7590, 9915.000
778.9040, 9722.000
780.0490, 9499.000
781.1940, 9304.000
782.3380, 9218.000
783.4820, 9142.000
784.6260, 8954.000
785.7700, 8905.026
786.9140, 8988.000
788.0580, 8800.000
789.2010, 8777.000
790.3450, 8863.000
791.4880, 8828.665
792.6310, 8822.521
793.7730, 8934.000
794.9160, 8779.000
796.0590, 8784.000
797.2010, 8783.000
798.3430, 8728.000
799.4850, 8801.000
800.6270, 8756.000
801.7690, 8870.000
802.9100, 8864.000
804.0520, 8816.000
805.1930, 8914.000
806.3340, 8797.000
807.4750, 8841.000
808.6160, 8798.000
809.7560, 8824.000
810.8970, 8850.000
812.0370, 8694.000
813.1770, 8870.000
814.3170, 8850.000
815.4570, 8808.000
816.5960, 8962.000
817.7360, 8884.000
818.8750, 8917.000
820.0140, 8961.000
821.1530, 8990.000
822.2920, 8958.000
823.4310, 8939.000
824.5690, 8979.000
825.7070, 8925.077
826.8460, 8943.000
827.9840, 8904.000
829.1220, 8989.000
830.2590, 9081.000
831.3970, 8983.000
832.5340, 9158.000
833.6710, 9103.599
834.8080, 9056.000
835.9450, 9133.000
837.0820, 9032.000
838.2190, 9150.000
839.3550, 9150.000
840.4910, 9112.000
841.6270, 9048.000
842.7630, 9161.000
843.8990, 9297.000
845.0350, 9213.000
846.1700, 9328.000
847.3060, 9205.000
848.4410, 9462.000
849.5760, 9425.000
850.7100, 9357.000
851.8450, 9368.000
852.9800, 9374.000
854.1140, 9384.000
855.2480, 9396.106
856.3820, 9409.178
857.5160, 9398.000
858.6500, 9427.000
859.7830, 9379.000
860.9170, 9354.000
862.0500, 9301.000
863.1830, 9245.000
864.3160, 9319.000
865.4480, 9330.000
866.5810, 9250.000
867.7130, 9248.000
868.8460, 9351.000
869.9780, 9286.000
871.1100, 9338.000
872.2410, 9313.000
873.3730, 9313.000
874.5050, 9217.000
875.6360, 9296.000
876.7670, 9258.000
877.8980, 9374.000
879.0290, 9376.000
880.1590, 9482.000
881.2900, 9517.000
882.4200, 9490.000
883.5500, 9392.000
884.6800, 9390.000
885.8100, 9478.000
886.9400, 9480.000
888.0690, 9529.000
889.1990, 9474.000
890.3280, 9539.000
891.4570, 9553.000
892.5860, 9562.000
893.7140, 9646.000
894.8430, 9660.904
895.9710, 9787.000
897.1000, 9736.000
898.2280, 9842.000
899.3560, 9867.000
900.4830, 9853.000
901.6110, 9929.000
902.7380, 10085.00
903.8660, 10203.00
904.9930, 10424.00
906.1200, 10602.00
907.2460, 10791.00
908.3730, 10939.46
909.5000, 11057.47
910.6260, 11160.00
911.7520, 11239.00
912.8780, 11241.00
914.0040, 11294.00
915.1290, 11497.00
916.2550, 11495.00
917.3800, 11373.00
918.5050, 11438.00
919.6300, 11213.00
920.7550, 11135.00
921.8800, 10996.00
923.0040, 10775.00
924.1290, 10677.00
925.2530, 10750.00
926.3770, 10605.00
927.5010, 10479.00
928.6250, 10511.00
929.7480, 10362.00
930.8720, 10369.00
931.9950, 10392.00
933.1180, 10415.00
934.2410, 10237.00
935.3640, 10177.00
936.4860, 10111.00
937.6090, 10024.00
938.7310, 9978.000
939.8530, 9923.023
940.9750, 9888.449
942.0970, 9848.000
943.2180, 9830.000
944.3400, 9817.000
945.4610, 9761.000
946.5820, 9832.000
947.7030, 9838.000
948.8240, 9843.000
949.9450, 9786.000
951.0650, 9819.000
952.1860, 9863.000
953.3060, 9798.000
954.4260, 9817.000
955.5460, 9968.000
956.6650, 10043.00
957.7850, 9970.000
958.9040, 10031.00
960.0230, 10041.00
961.1420, 10105.01
962.2610, 10346.00
963.3800, 10255.00
964.4990, 10287.00
965.6170, 10292.00
966.7350, 10206.00
967.8530, 10270.65
968.9710, 10309.42
970.0890, 10369.00
971.2070, 10466.00
972.3240, 10605.00
973.4410, 10681.00
974.5580, 10781.57
975.6750, 10870.51
976.7920, 10934.00
977.9090, 10966.00
979.0250, 10994.00
980.1410, 11057.37
981.2580, 11078.00
982.3740, 11180.00
983.4890, 11250.00
984.6050, 11338.00
985.7200, 11286.00
986.8360, 11414.00
987.9510, 11593.00
989.0660, 11767.00
990.1810, 11964.00
991.2950, 12108.00
992.4100, 12338.00
993.5240, 12558.19
994.6390, 12724.00
995.7530, 13067.00
996.8660, 13205.00
997.9800, 13495.00
999.0940, 13665.00
1000.207, 13856.00
1001.320, 14057.00
1002.433, 14109.00
1003.546, 14165.00
1004.659, 14096.00
1005.772, 13937.00
1006.884, 13858.00
1007.996, 13732.00
1009.108, 13502.00
1010.220, 13544.00
1011.332, 13266.00
1012.444, 13194.00
1013.555, 12845.00
1014.666, 12829.00
1015.777, 12696.00
1016.888, 12599.00
1017.999, 12470.00
1019.110, 12416.00
1020.220, 12431.00
1021.331, 12255.00
1022.441, 12174.00
1023.551, 12102.00
1024.661, 11897.00
1025.770, 11835.00
1026.880, 11855.00
1027.989, 11935.00
1029.098, 11775.00
1030.207, 11757.00
1031.316, 11730.00
1032.425, 11683.00
1033.533, 11646.00
1034.642, 11614.00
1035.750, 11675.00
1036.858, 11755.00
1037.966, 11538.00
1039.073, 11647.00
1040.181, 11510.00
1041.288, 11524.00
1042.396, 11602.00
1043.503, 11534.00
1044.610, 11438.00
1045.716, 11483.00
1046.823, 11435.00
1047.929, 11589.00
1049.036, 11778.00
1050.142, 11566.00
1051.248, 11617.00
1052.353, 11935.00
1053.459, 12082.00
1054.564, 12256.00
1055.670, 12406.00
1056.775, 12765.00
1057.880, 13076.00
1058.985, 13249.00
1060.089, 13736.00
1061.194, 14263.00
1062.298, 14652.00
1063.402, 15212.00
1064.506, 15532.00
1065.610, 15673.00
1066.713, 15743.00
1067.817, 15686.00
1068.920, 15245.00
1070.023, 14965.00
1071.126, 14679.00
1072.229, 14265.00
1073.332, 13964.00
1074.435, 13665.49
1075.537, 13327.00
1076.639, 13086.00
1077.741, 12910.00
1078.843, 12608.00
1079.945, 12620.00
1081.046, 12474.00
1082.148, 12484.00
1083.249, 12168.00
1084.350, 12157.00
1085.451, 11971.00
1086.551, 11940.00
1087.652, 11794.00
1088.752, 11723.00
1089.853, 11671.00
1090.953, 11585.00
1092.053, 11546.20
1093.152, 11436.00
1094.252, 11436.00
1095.351, 11325.00
1096.451, 11214.00
1097.550, 11259.00
1098.649, 11172.00
1099.748, 11088.00
1100.846, 11043.00
1101.945, 11078.00
1103.043, 11051.00
1104.141, 11030.00
1105.239, 11003.00
1106.337, 10878.00
1107.434, 10938.00
1108.532, 10885.00
1109.629, 10850.00
1110.726, 10931.00
1111.823, 10991.00
1112.920, 10925.00
1114.017, 10950.00
1115.113, 10931.00
1116.210, 10906.00
1117.306, 10998.00
1118.402, 11046.00
1119.498, 11133.00
1120.593, 10950.00
1121.689, 11101.00
1122.784, 10977.00
1123.879, 11063.00
1124.974, 11076.00
1126.069, 11025.00
1127.164, 11084.00
1128.259, 11117.00
1129.353, 11066.00
1130.447, 10898.00
1131.541, 10956.00
1132.635, 10820.00
1133.729, 10814.00
1134.822, 10801.00
1135.916, 10740.00
1137.009, 10814.00
1138.102, 10789.18
1139.195, 10755.00
1140.288, 10792.00
1141.380, 10703.00
1142.473, 10643.00
1143.565, 10732.00
1144.657, 10643.00
1145.749, 10701.00
1146.841, 10797.00
1147.932, 10620.00
1149.024, 10570.00
1150.115, 10722.00
1151.206, 10662.00
1152.297, 10516.00
1153.388, 10723.00
1154.479, 10636.00
1155.569, 10677.00
1156.659, 10844.00
1157.750, 10768.83
1158.839, 10804.70
1159.929, 10719.00
1161.019, 10803.00
1162.108, 10681.00
1163.198, 10790.00
1164.287, 10866.00
1165.376, 10872.00
1166.465, 10896.00
1167.553, 10856.00
1168.642, 10843.00
1169.730, 10926.00
1170.818, 10818.00
1171.906, 10878.35
1172.994, 11062.00
1174.082, 10976.00
1175.170, 10990.00
1176.257, 11167.00
1177.344, 11276.00
1178.431, 11272.00
1179.518, 11208.00
1180.605, 11215.00
1181.691, 11244.00
1182.778, 11385.00
1183.864, 11408.00
1184.950, 11434.00
1186.036, 11335.00
1187.122, 11441.00
1188.207, 11531.00
1189.292, 11737.00
1190.378, 11693.00
1191.463, 11800.00
1192.548, 11699.00
1193.632, 11825.00
1194.717, 11774.00
1195.801, 11868.00
1196.886, 11943.00
1197.970, 11911.00
1199.054, 11857.00
1200.137, 11790.00
1201.221, 11899.00
1202.305, 12022.00
1203.388, 12021.00
1204.471, 12164.00
1205.554, 12352.00
1206.637, 12323.00
1207.719, 12240.00
1208.802, 12538.00
1209.884, 12537.00
1210.966, 12692.00
1212.048, 12731.00
1213.130, 13074.00
1214.212, 13209.00
1215.293, 13617.00
1216.374, 13974.00
1217.456, 14267.00
1218.536, 14538.00
1219.617, 14990.00
1220.698, 15522.00
1221.778, 15806.00
1222.859, 16226.00
1223.939, 16523.00
1225.019, 16781.00
1226.099, 16375.00
1227.178, 16494.00
1228.258, 16117.00
1229.337, 16133.00
1230.417, 15877.00
1231.496, 15793.00
1232.574, 15798.00
1233.653, 15901.00
1234.732, 16172.00
1235.810, 16268.00
1236.888, 16606.00
1237.966, 16893.00
1239.044, 17111.00
1240.122, 17521.00
1241.199, 17450.50
1242.277, 17435.00
1243.354, 17092.00
1244.431, 16623.00
1245.508, 15894.00
1246.585, 15386.00
1247.661, 14773.00
1248.738, 14334.00
1249.814, 13874.00
1250.890, 13628.00
1251.966, 13243.00
1253.042, 12934.00
1254.117, 12809.00
1255.193, 12611.00
1256.268, 12476.46
1257.343, 12508.00
1258.418, 12326.00
1259.493, 12344.00
1260.567, 12391.00
1261.642, 12463.00
1262.716, 12619.00
1263.790, 12292.00
1264.864, 12137.00
1265.938, 12050.00
1267.011, 12152.00
1268.085, 12079.00
1269.158, 12061.00
1270.231, 12146.00
1271.304, 12080.00
1272.377, 12121.00
1273.450, 12051.00
1274.522, 12032.00
1275.594, 12116.00
1276.666, 12117.00
1277.738, 12104.00
1278.810, 12049.00
1279.882, 12014.28
1280.953, 11939.00
1282.025, 11902.00
1283.096, 11855.65
1284.167, 11807.00
1285.238, 11786.00
1286.308, 11876.00
1287.379, 11834.00
1288.449, 11812.00
1289.519, 11859.00
1290.589, 11835.00
1291.659, 11799.00
1292.729, 11742.00
1293.798, 11778.00
1294.868, 11749.21
1295.937, 11802.00
1297.006, 11754.00
1298.075, 11789.00
1299.143, 11795.00
1300.212, 11833.00
1301.280, 11898.00
1302.348, 11866.00
1303.416, 11792.00
1304.484, 11826.00
1305.552, 11872.00
1306.620, 11852.00
1307.687, 11870.00
1308.754, 11971.00
1309.821, 11881.00
1310.888, 12005.00
1311.955, 11937.00
1313.021, 11980.00
1314.088, 11806.00
1315.154, 11849.00
1316.220, 11900.00
1317.286, 11885.00
1318.352, 12066.00
1319.417, 12023.00
1320.483, 12020.00
1321.548, 12056.00
1322.613, 11972.00
1323.678, 12063.00
1324.743, 12095.00
1325.807, 12205.00
1326.872, 12130.00
1327.936, 12123.00
1329.000, 12189.00
1330.064, 12388.00
1331.128, 12268.00
1332.191, 12389.00
1333.255, 12377.00
1334.318, 12397.00
1335.381, 12396.00
1336.444, 12406.00
1337.507, 12406.82
1338.569, 12554.00
1339.632, 12416.00
1340.694, 12423.00
1341.756, 12456.00
1342.818, 12647.00
1343.880, 12664.00
1344.941, 12606.00
1346.003, 12648.00
1347.064, 12699.00
1348.125, 12603.00
1349.186, 12675.00
1350.247, 12837.00
1351.308, 12644.00
1352.368, 12762.00
1353.428, 12957.00
1354.489, 12920.00
1355.549, 12862.00
1356.608, 12806.00
1357.668, 12987.00
1358.727, 12809.00
1359.787, 12847.00
1360.846, 13009.00
1361.905, 12956.00
1362.964, 12849.00
1364.022, 12973.00
1365.081, 12941.00
1366.139, 12956.00
1367.197, 12943.00
1368.255, 13055.00
1369.313, 13081.00
1370.371, 13233.00
1371.428, 13107.00
1372.486, 13129.49
1373.543, 13214.00
1374.600, 13025.00
1375.657, 13224.00
1376.713, 13204.00
1377.770, 13190.00
1378.826, 13175.00
1379.882, 13093.00
1380.938, 13154.00
1381.994, 13381.00
1383.050, 13338.00
1384.106, 13296.00
1385.161, 13360.00
1386.216, 13252.00
1387.271, 13265.00
1388.326, 13399.00
1389.381, 13391.00
1390.435, 13356.00
1391.490, 13400.00
1392.544, 13388.00
1393.598, 13476.00
1394.652, 13477.62
1395.705, 13502.87
1396.759, 13501.00
1397.812, 13560.00
1398.866, 13532.00
1399.919, 13599.00
1400.972, 13694.00
1402.024, 13685.00
1403.077, 13736.00
1404.129, 13683.00
1405.181, 13790.00
1406.233, 13737.00
1407.285, 13837.00
1408.337, 13776.00
1409.389, 13888.00
1410.440, 13905.00
1411.491, 14079.00
1412.542, 14032.00
1413.593, 14018.00
1414.644, 14017.00
1415.695, 14109.00
1416.745, 14214.00
1417.795, 14257.00
1418.845, 14176.00
1419.895, 14206.00
1420.945, 14213.00
1421.995, 14304.00
1423.044, 14415.00
1424.093, 14382.00
1425.142, 14491.00
1426.191, 14518.00
1427.240, 14522.00
1428.289, 14565.00
1429.337, 14596.00
1430.385, 14511.00
1431.433, 14676.00
1432.481, 14648.00
1433.529, 14778.00
1434.577, 14737.00
1435.624, 14773.00
1436.672, 14998.00
1437.719, 14998.00
1438.766, 14983.00
1439.812, 15008.00
1440.859, 14944.00
1441.905, 15159.00
1442.952, 15211.00
1443.998, 15144.00
1445.044, 15169.00
1446.090, 15187.00
1447.135, 15243.00
1448.181, 15307.60
1449.226, 15282.00
1450.271, 15461.00
1451.316, 15437.00
1452.361, 15481.00
1453.405, 15432.00
1454.450, 15486.00
1455.494, 15526.79
1456.538, 15540.00
1457.582, 15632.00
1458.626, 15750.00
1459.670, 15779.00
1460.713, 15841.00
1461.757, 15751.00
1462.800, 15789.00
1463.843, 15865.00
1464.886, 15848.64
1465.928, 15894.42
1466.971, 15923.00
1468.013, 15981.00
1469.055, 16036.00
1470.097, 16180.00
1471.139, 16199.00
1472.181, 16245.00
1473.222, 16301.00
1474.263, 16284.00
1475.305, 16354.35
1476.346, 16402.69
1477.386, 16480.00
1478.427, 16526.00
1479.468, 16650.00
1480.508, 16704.00
1481.548, 16679.00
1482.588, 16851.00
1483.628, 16753.00
1484.668, 16848.00
1485.707, 16999.00
1486.747, 17059.00
1487.786, 17099.00
1488.825, 17236.00
1489.864, 17069.00
1490.902, 17309.00
1491.941, 17280.00
1492.979, 17396.00
1494.017, 17321.00
1495.055, 17456.00
1496.093, 17581.00
1497.131, 17433.00
1498.168, 17513.00
1499.206, 17887.00
1500.243, 17831.00
1501.280, 18449.00
1502.317, 18193.25
1503.354, 18382.00
1504.390, 17865.00
1505.426, 18079.00
1506.463, 17994.00
1507.499, 18158.00
1508.535, 18139.00
1509.570, 18270.00
1510.606, 18443.00
1511.641, 18300.00
1512.676, 18618.00
1513.711, 18705.00
1514.746, 18494.00
1515.781, 18679.00
1516.816, 18695.00
1517.850, 18786.00
1518.884, 18725.00
1519.918, 19068.00
1520.952, 19028.00
1521.986, 18871.00
1523.019, 19250.00
1524.053, 19114.00
1525.086, 19221.00
1526.119, 19021.00
1527.152, 19357.00
1528.185, 19351.00
1529.217, 19368.00
1530.250, 19487.00
1531.282, 19500.44
1532.314, 19427.00
1533.346, 19618.00
1534.377, 19731.00
1535.409, 19796.00
1536.440, 19720.00
1537.472, 19895.00
1538.503, 19876.00
1539.534, 20034.00
1540.564, 20008.00
1541.595, 20106.00
1542.625, 20287.00
1543.656, 20228.00
1544.686, 20227.00
1545.716, 20411.00
1546.745, 20402.00
1547.775, 20318.00
1548.804, 20603.00
1549.834, 20623.00
1550.863, 20759.00
1551.892, 20688.00
1552.920, 20957.00
1553.949, 21037.00
1554.977, 21181.00
1556.006, 20969.00
1557.034, 20835.00
1558.062, 20939.00
1559.089, 20943.00
1560.117, 21221.00
1561.144, 21196.00
1562.172, 21301.00
1563.199, 21314.00
1564.226, 21188.00
1565.252, 21413.00
1566.279, 21288.00
1567.305, 21506.00
1568.332, 21558.00
1569.358, 21530.00
1570.384, 21775.00
##END=



