##NAMES=Bikitaite
##RRUFFID=R050160
##IDEAL CHEMISTRY=LiAlSi_2_O_6_&#183;H_2_O
##LOCALITY=Foote mine, Kings Mountain, Cleveland County, North Carolina, USA
##OWNER=RRUFF
##SOURCE=Jim McGlasson
##DESCRIPTION=Colorless prismatic crystals
##STATUS=The identification of this mineral has been confirmed by X-ray diffraction and chemical analysis
##URL=rruff.info/R050160
##MEASURED CHEMISTRY=Li_1.00_Si_2.00_O_6_Â·1.25H_2_O ; Li not measured but estimated by stoichiometry
##PIN_ID=M00294
##ORIENTATION=Laser parallel to (1 0 1). Fiducial mark perpendicular to laser is parallel to -b [0 -1 0]
88.54200, 23972.00
89.77700, 23649.00
91.01200, 23834.00
92.24600, 24137.00
93.48000, 25148.00
94.71400, 26129.00
95.94800, 27215.00
97.18200, 28106.00
98.41600, 29647.00
99.64900, 30974.00
100.8830, 31852.00
102.1160, 32878.00
103.3490, 33130.00
104.5820, 33145.00
105.8150, 33425.00
107.0470, 33151.00
108.2800, 33623.00
109.5120, 34295.00
110.7440, 35036.00
111.9760, 36757.00
113.2080, 38231.00
114.4400, 38446.00
115.6710, 37746.00
116.9030, 36090.00
118.1340, 33579.00
119.3650, 31289.00
120.5960, 29429.00
121.8270, 27926.00
123.0580, 26620.00
124.2880, 25374.00
125.5190, 24256.00
126.7490, 23069.00
127.9790, 22563.00
129.2090, 21850.00
130.4390, 21627.00
131.6680, 21301.00
132.8980, 21233.00
134.1270, 21221.00
135.3560, 21383.00
136.5850, 21464.00
137.8140, 21776.73
139.0430, 22370.00
140.2710, 22636.00
141.5000, 23179.00
142.7280, 23923.00
143.9560, 24576.00
145.1840, 25319.00
146.4120, 25861.00
147.6390, 26184.00
148.8670, 26294.00
150.0940, 26145.00
151.3210, 25991.00
152.5490, 25607.00
153.7750, 25493.00
155.0020, 25293.00
156.2290, 25233.00
157.4550, 25176.00
158.6810, 25122.00
159.9080, 24915.00
161.1340, 24452.00
162.3590, 23814.00
163.5850, 22814.00
164.8110, 22611.00
166.0360, 22256.00
167.2610, 21870.00
168.4860, 21653.00
169.7110, 21649.00
170.9360, 21435.00
172.1610, 21271.00
173.3850, 21166.03
174.6100, 20975.00
175.8340, 20876.00
177.0580, 20806.00
178.2820, 20657.00
179.5050, 20494.00
180.7290, 20369.00
181.9520, 20454.00
183.1760, 20519.00
184.3990, 20502.00
185.6220, 20577.00
186.8450, 20666.89
188.0670, 20702.00
189.2900, 20933.00
190.5120, 21100.00
191.7340, 21336.00
192.9560, 21693.00
194.1780, 21844.00
195.4000, 22274.00
196.6220, 22605.00
197.8430, 23134.00
199.0640, 23563.00
200.2860, 24121.00
201.5070, 25142.00
202.7270, 26178.00
203.9480, 27048.00
205.1690, 27023.00
206.3890, 27107.00
207.6090, 26267.00
208.8290, 25408.00
210.0490, 24660.00
211.2690, 24052.00
212.4890, 23842.00
213.7080, 23751.00
214.9280, 23706.00
216.1470, 23918.00
217.3660, 24494.00
218.5850, 24935.00
219.8030, 25210.00
221.0220, 25615.00
222.2400, 25941.00
223.4590, 25582.00
224.6770, 25508.00
225.8950, 24953.00
227.1120, 24587.00
228.3300, 24388.00
229.5480, 23765.00
230.7650, 23672.00
231.9820, 23546.00
233.1990, 23284.00
234.4160, 23177.00
235.6330, 23125.00
236.8490, 23034.00
238.0660, 23033.00
239.2820, 23062.00
240.4980, 23071.00
241.7140, 22786.00
242.9300, 22940.00
244.1460, 22881.00
245.3610, 23024.00
246.5770, 22950.00
247.7920, 22892.00
249.0070, 23054.00
250.2220, 23083.00
251.4370, 23231.00
252.6510, 23415.58
253.8660, 23595.53
255.0800, 23872.00
256.2940, 24088.00
257.5080, 24421.00
258.7220, 24714.00
259.9360, 24774.00
261.1490, 24483.00
262.3630, 24167.00
263.5760, 24124.00
264.7890, 24126.00
266.0020, 23914.00
267.2150, 23587.00
268.4270, 23249.00
269.6400, 23103.00
270.8520, 22745.00
272.0640, 22770.00
273.2760, 22860.00
274.4880, 22715.00
275.7000, 22795.00
276.9120, 22663.00
278.1230, 22765.00
279.3340, 22824.00
280.5450, 22853.00
281.7560, 22847.00
282.9670, 23065.00
284.1780, 23218.00
285.3880, 23479.00
286.5980, 23972.00
287.8090, 23958.00
289.0190, 24239.00
290.2290, 24778.00
291.4380, 24960.00
292.6480, 25345.00
293.8570, 25472.50
295.0670, 25523.20
296.2760, 25521.00
297.4850, 25355.00
298.6930, 25134.00
299.9020, 24755.00
301.1110, 25035.00
302.3190, 25084.00
303.5270, 24962.00
304.7350, 24635.00
305.9430, 24314.00
307.1510, 24223.00
308.3580, 23789.00
309.5660, 24014.00
310.7730, 23843.00
311.9800, 24118.00
313.1870, 24127.00
314.3940, 24157.00
315.6010, 24185.00
316.8070, 23973.00
318.0130, 23973.00
319.2200, 23812.00
320.4260, 23807.00
321.6310, 23754.00
322.8370, 23711.62
324.0430, 23571.00
325.2480, 23768.00
326.4540, 23589.00
327.6590, 23779.00
328.8640, 23792.00
330.0680, 23793.00
331.2730, 24023.00
332.4780, 23844.00
333.6820, 24180.00
334.8860, 24388.00
336.0900, 24816.00
337.2940, 25057.00
338.4980, 25568.00
339.7010, 25808.00
340.9050, 26250.00
342.1080, 26705.00
343.3110, 27196.00
344.5140, 27564.00
345.7170, 27547.00
346.9200, 27731.00
348.1220, 28072.00
349.3240, 27987.00
350.5270, 28164.00
351.7290, 28328.00
352.9310, 28381.00
354.1320, 28301.00
355.3340, 28154.00
356.5350, 28080.00
357.7370, 27742.00
358.9380, 27628.00
360.1390, 27564.00
361.3400, 27420.00
362.5400, 27486.00
363.7410, 27842.00
364.9410, 28085.00
366.1410, 28489.00
367.3410, 28984.00
368.5410, 29413.00
369.7410, 29979.00
370.9400, 30591.00
372.1400, 31664.00
373.3390, 32769.00
374.5380, 33674.00
375.7370, 35149.00
376.9360, 36733.00
378.1350, 37977.00
379.3330, 39867.00
380.5310, 41539.00
381.7300, 42272.00
382.9280, 43324.00
384.1260, 43764.00
385.3230, 44253.00
386.5210, 43929.00
387.7180, 42953.00
388.9160, 42438.00
390.1130, 42113.00
391.3100, 42033.00
392.5060, 42078.00
393.7030, 42462.00
394.9000, 43099.00
396.0960, 43930.00
397.2920, 43898.00
398.4880, 43801.00
399.6840, 42890.00
400.8800, 41812.00
402.0750, 40122.00
403.2710, 38768.00
404.4660, 37404.00
405.6610, 36217.00
406.8560, 35833.00
408.0510, 34545.00
409.2450, 34011.00
410.4400, 33282.00
411.6340, 32633.00
412.8280, 32656.00
414.0220, 32087.00
415.2160, 31809.00
416.4100, 31554.00
417.6030, 31359.00
418.7970, 31525.00
419.9900, 31370.00
421.1830, 30990.00
422.3760, 30811.00
423.5690, 30231.00
424.7610, 30174.00
425.9540, 29395.00
427.1460, 29063.00
428.3380, 29023.00
429.5300, 28731.00
430.7220, 28334.00
431.9140, 28196.00
433.1050, 28170.00
434.2970, 27931.00
435.4880, 27798.00
436.6790, 27949.00
437.8700, 27701.00
439.0610, 27566.00
440.2510, 27752.00
441.4420, 27717.00
442.6320, 27780.00
443.8220, 27628.00
445.0120, 27861.00
446.2020, 27740.00
447.3910, 27777.00
448.5810, 27734.00
449.7700, 27548.00
450.9600, 27869.00
452.1490, 27698.00
453.3370, 27832.00
454.5260, 27772.00
455.7150, 27890.00
456.9030, 28020.00
458.0910, 28577.00
459.2800, 28832.00
460.4670, 29165.00
461.6550, 29771.00
462.8430, 29847.00
464.0300, 30537.00
465.2180, 31182.00
466.4050, 31374.00
467.5920, 31778.00
468.7790, 32016.00
469.9650, 32272.00
471.1520, 32635.00
472.3380, 33169.00
473.5250, 33850.00
474.7110, 34609.00
475.8970, 35590.00
477.0820, 36388.00
478.2680, 37030.00
479.4540, 37066.00
480.6390, 37139.00
481.8240, 36802.00
483.0090, 36576.00
484.1940, 36654.00
485.3780, 36641.00
486.5630, 37282.00
487.7470, 37628.00
488.9320, 38219.00
490.1160, 38984.00
491.3000, 39674.00
492.4830, 40891.00
493.6670, 42018.00
494.8500, 43134.00
496.0340, 44272.00
497.2170, 44679.00
498.4000, 45164.00
499.5820, 45030.00
500.7650, 44283.00
501.9480, 43125.00
503.1300, 41265.00
504.3120, 39696.00
505.4940, 38449.00
506.6760, 36707.00
507.8580, 35635.00
509.0390, 34538.00
510.2210, 33902.00
511.4020, 33040.00
512.5830, 32387.00
513.7640, 32125.00
514.9450, 31648.00
516.1250, 31345.00
517.3060, 30948.00
518.4860, 30743.00
519.6660, 30386.00
520.8460, 30505.00
522.0260, 30222.00
523.2060, 30308.00
524.3850, 30185.00
525.5650, 30218.00
526.7440, 30184.00
527.9230, 30235.00
529.1020, 30257.51
530.2810, 30341.39
531.4590, 30394.00
532.6380, 30547.00
533.8160, 30751.00
534.9940, 30849.00
536.1720, 31419.00
537.3500, 31359.00
538.5270, 31658.00
539.7050, 31686.00
540.8820, 31800.00
542.0590, 31777.00
543.2360, 31471.00
544.4130, 31227.00
545.5900, 30889.00
546.7660, 30564.00
547.9430, 30416.00
549.1190, 30038.00
550.2950, 30094.00
551.4710, 29617.00
552.6470, 29818.00
553.8220, 29605.00
554.9980, 29673.00
556.1730, 29811.00
557.3480, 29439.00
558.5230, 29483.00
559.6980, 29813.00
560.8730, 29433.00
562.0470, 29527.00
563.2220, 29487.00
564.3960, 29559.00
565.5700, 29552.00
566.7440, 29564.00
567.9170, 29493.00
569.0910, 29443.00
570.2640, 29565.00
571.4380, 29390.00
572.6110, 29447.00
573.7840, 29522.00
574.9570, 29343.00
576.1290, 29464.00
577.3020, 29629.00
578.4740, 29415.00
579.6460, 29619.00
580.8180, 29523.00
581.9900, 29653.00
583.1620, 29609.00
584.3330, 29513.00
585.5040, 29489.00
586.6760, 29686.00
587.8470, 29751.00
589.0180, 29884.00
590.1880, 29822.00
591.3590, 29787.00
592.5290, 29643.00
593.7000, 29577.00
594.8700, 29742.00
596.0400, 29716.00
597.2090, 29561.00
598.3790, 29807.00
599.5490, 29873.00
600.7180, 29852.00
601.8870, 29687.00
603.0560, 29665.00
604.2250, 29821.00
605.3940, 29803.00
606.5620, 29775.00
607.7300, 29931.00
608.8990, 29999.00
610.0670, 29874.00
611.2350, 29855.00
612.4020, 29889.00
613.5700, 29911.49
614.7370, 29950.00
615.9050, 30099.00
617.0720, 30169.00
618.2390, 30309.00
619.4060, 30670.00
620.5720, 30548.00
621.7390, 31079.00
622.9050, 31122.00
624.0710, 31175.00
625.2370, 31276.00
626.4030, 31453.00
627.5690, 31439.00
628.7340, 31354.00
629.9000, 31124.00
631.0650, 30910.00
632.2300, 30871.00
633.3950, 30780.00
634.5600, 30854.00
635.7240, 30769.42
636.8890, 30762.52
638.0530, 30721.00
639.2170, 30781.00
640.3810, 30833.00
641.5450, 30977.00
642.7080, 31363.00
643.8720, 31162.00
645.0350, 31377.00
646.1980, 31668.00
647.3610, 31365.00
648.5240, 31567.00
649.6870, 31439.00
650.8490, 31529.00
652.0120, 31246.00
653.1740, 31600.00
654.3360, 31390.00
655.4980, 31419.00
656.6600, 31560.00
657.8210, 31111.00
658.9830, 31186.00
660.1440, 31338.00
661.3050, 31240.00
662.4660, 30986.00
663.6270, 30988.00
664.7870, 31060.00
665.9480, 31199.00
667.1080, 31236.19
668.2680, 31302.00
669.4280, 31431.00
670.5880, 31334.00
671.7480, 31487.00
672.9070, 31348.00
674.0670, 31522.00
675.2260, 31444.00
676.3850, 31586.00
677.5440, 31698.00
678.7030, 31957.00
679.8610, 31806.00
681.0200, 32184.00
682.1780, 32368.00
683.3360, 32386.00
684.4940, 32661.00
685.6520, 32412.00
686.8090, 32553.00
687.9670, 32738.00
689.1240, 32387.00
690.2810, 32279.00
691.4380, 32530.00
692.5950, 32312.00
693.7520, 32262.00
694.9080, 32443.00
696.0650, 32507.00
697.2210, 32449.00
698.3770, 32706.00
699.5330, 32972.00
700.6880, 33133.00
701.8440, 33511.00
702.9990, 33494.00
704.1550, 33745.00
705.3100, 33784.00
706.4650, 33657.00
707.6190, 33971.00
708.7740, 33854.00
709.9290, 33550.00
711.0830, 33532.00
712.2370, 33368.00
713.3910, 33123.00
714.5450, 33172.00
715.6980, 33269.00
716.8520, 33043.00
718.0050, 32930.00
719.1580, 32860.00
720.3110, 32782.00
721.4640, 32919.00
722.6170, 33019.00
723.7700, 32898.00
724.9220, 33059.00
726.0740, 33011.00
727.2260, 32933.00
728.3780, 33040.00
729.5300, 32983.00
730.6810, 32950.00
731.8330, 32969.00
732.9840, 32944.72
734.1350, 32937.75
735.2860, 32947.00
736.4370, 32897.00
737.5880, 32881.00
738.7380, 32811.00
739.8880, 33205.00
741.0390, 32901.00
742.1890, 33112.00
743.3380, 32975.00
744.4880, 33093.00
745.6380, 33008.00
746.7870, 33130.00
747.9360, 33018.00
749.0850, 33429.00
750.2340, 33393.00
751.3830, 33252.00
752.5310, 33340.00
753.6800, 33151.00
754.8280, 33216.00
755.9760, 33286.00
757.1240, 33288.00
758.2720, 33286.00
759.4190, 33331.00
760.5670, 33478.00
761.7140, 33399.00
762.8610, 33500.00
764.0080, 33502.00
765.1550, 33534.00
766.3020, 33668.00
767.4480, 33535.00
768.5950, 33707.00
769.7410, 33942.00
770.8870, 33903.00
772.0330, 34083.00
773.1780, 33728.00
774.3240, 33825.00
775.4690, 33720.00
776.6140, 33927.00
777.7590, 33954.00
778.9040, 34283.00
780.0490, 34140.00
781.1940, 34143.00
782.3380, 33943.00
783.4820, 34109.00
784.6260, 34166.00
785.7700, 34102.00
786.9140, 34323.00
788.0580, 34093.00
789.2010, 34526.00
790.3450, 34265.00
791.4880, 34522.00
792.6310, 34325.00
793.7730, 34621.00
794.9160, 34493.00
796.0590, 34544.00
797.2010, 34368.00
798.3430, 34683.00
799.4850, 34504.00
800.6270, 34624.00
801.7690, 34641.00
802.9100, 34834.00
804.0520, 34614.00
805.1930, 34911.00
806.3340, 34742.00
807.4750, 34900.00
808.6160, 34897.00
809.7560, 34840.00
810.8970, 34934.00
812.0370, 34908.00
813.1770, 35041.00
814.3170, 35007.00
815.4570, 34977.00
816.5960, 35243.00
817.7360, 35297.00
818.8750, 35209.00
820.0140, 35349.00
821.1530, 35315.00
822.2920, 35294.00
823.4310, 35339.00
824.5690, 35294.00
825.7070, 35666.00
826.8460, 35460.00
827.9840, 35589.00
829.1220, 35553.00
830.2590, 35373.00
831.3970, 35409.00
832.5340, 35607.00
833.6710, 35638.00
834.8080, 35367.00
835.9450, 35934.00
837.0820, 36103.00
838.2190, 35776.00
839.3550, 36144.00
840.4910, 36138.00
841.6270, 36118.00
842.7630, 36289.00
843.8990, 36201.00
845.0350, 36316.00
846.1700, 36110.00
847.3060, 36502.00
848.4410, 36233.00
849.5760, 36384.00
850.7100, 36642.00
851.8450, 36394.00
852.9800, 36517.00
854.1140, 36771.00
855.2480, 36884.00
856.3820, 36941.00
857.5160, 37205.00
858.6500, 37235.00
859.7830, 37359.00
860.9170, 37324.00
862.0500, 37470.00
863.1830, 37449.00
864.3160, 37212.00
865.4480, 37265.00
866.5810, 37165.00
867.7130, 36964.00
868.8460, 37242.00
869.9780, 37013.00
871.1100, 37138.00
872.2410, 36999.00
873.3730, 37086.00
874.5050, 37055.00
875.6360, 37139.00
876.7670, 36966.00
877.8980, 37173.00
879.0290, 37217.00
880.1590, 37116.00
881.2900, 37224.00
882.4200, 37347.00
883.5500, 37217.00
884.6800, 37095.00
885.8100, 37366.00
886.9400, 37250.00
888.0690, 37392.00
889.1990, 37563.00
890.3280, 37352.00
891.4570, 37645.00
892.5860, 37616.00
893.7140, 37361.00
894.8430, 37393.00
895.9710, 37646.00
897.1000, 37727.00
898.2280, 37679.00
899.3560, 37737.00
900.4830, 37821.00
901.6110, 37881.00
902.7380, 37764.00
903.8660, 37795.00
904.9930, 37782.00
906.1200, 37919.00
907.2460, 37837.00
908.3730, 37804.00
909.5000, 38072.00
910.6260, 37833.00
911.7520, 38050.00
912.8780, 38074.00
914.0040, 38117.00
915.1290, 38026.00
916.2550, 38138.00
917.3800, 37901.00
918.5050, 38058.00
919.6300, 38209.00
920.7550, 38105.00
921.8800, 38105.00
923.0040, 38175.00
924.1290, 38178.00
925.2530, 38196.50
926.3770, 38218.42
927.5010, 38217.00
928.6250, 38263.00
929.7480, 38275.00
930.8720, 38360.00
931.9950, 38405.00
933.1180, 38386.00
934.2410, 38491.00
935.3640, 38516.00
936.4860, 38520.00
937.6090, 38866.00
938.7310, 38754.00
939.8530, 38886.00
940.9750, 38815.00
942.0970, 38690.00
943.2180, 38921.00
944.3400, 39207.00
945.4610, 38933.00
946.5820, 39254.00
947.7030, 39230.00
948.8240, 39523.00
949.9450, 39885.00
951.0650, 40006.00
952.1860, 40420.00
953.3060, 41125.00
954.4260, 41647.00
955.5460, 42277.00
956.6650, 43415.00
957.7850, 44105.00
958.9040, 45186.00
960.0230, 45616.00
961.1420, 45679.00
962.2610, 45165.00
963.3800, 45171.00
964.4990, 44992.00
965.6170, 44871.00
966.7350, 44905.00
967.8530, 45526.00
968.9710, 45888.00
970.0890, 44996.00
971.2070, 44275.00
972.3240, 43169.00
973.4410, 42441.00
974.5580, 41951.00
975.6750, 41477.00
976.7920, 41325.00
977.9090, 40727.00
979.0250, 40878.00
980.1410, 40582.00
981.2580, 40370.00
982.3740, 40086.00
983.4890, 40096.00
984.6050, 40084.67
985.7200, 40530.00
986.8360, 40306.00
987.9510, 40650.00
989.0660, 40792.00
990.1810, 41051.00
991.2950, 41036.00
992.4100, 40920.00
993.5240, 41595.00
994.6390, 41959.00
995.7530, 42481.00
996.8660, 43182.00
997.9800, 43661.00
999.0940, 44392.00
1000.207, 45564.00
1001.320, 46076.00
1002.433, 46587.00
1003.546, 46129.00
1004.659, 45033.00
1005.772, 44208.00
1006.884, 43402.00
1007.996, 42704.00
1009.108, 42337.00
1010.220, 41837.00
1011.332, 42179.00
1012.444, 42064.00
1013.555, 42027.00
1014.666, 42119.00
1015.777, 42500.00
1016.888, 42705.00
1017.999, 42877.00
1019.110, 43498.00
1020.220, 43765.00
1021.331, 43992.00
1022.441, 44283.00
1023.551, 45220.00
1024.661, 45551.00
1025.770, 45796.00
1026.880, 45639.00
1027.989, 45279.00
1029.098, 44588.00
1030.207, 44103.00
1031.316, 43256.00
1032.425, 42762.00
1033.533, 42379.00
1034.642, 42369.00
1035.750, 42024.00
1036.858, 41901.00
1037.966, 42015.00
1039.073, 41802.00
1040.181, 41922.00
1041.288, 41750.00
1042.396, 41833.00
1043.503, 41723.00
1044.610, 41711.00
1045.716, 41722.00
1046.823, 41825.00
1047.929, 41690.00
1049.036, 41673.00
1050.142, 42003.00
1051.248, 41910.00
1052.353, 41939.00
1053.459, 41960.00
1054.564, 41697.00
1055.670, 41676.00
1056.775, 41901.00
1057.880, 41884.00
1058.985, 42092.00
1060.089, 42103.00
1061.194, 42094.00
1062.298, 42134.00
1063.402, 41996.00
1064.506, 41992.00
1065.610, 42048.00
1066.713, 42226.00
1067.817, 42429.00
1068.920, 42274.00
1070.023, 42336.00
1071.126, 42214.00
1072.229, 42507.00
1073.332, 42646.00
1074.435, 42710.00
1075.537, 42706.00
1076.639, 42738.00
1077.741, 42901.00
1078.843, 42820.00
1079.945, 43180.00
1081.046, 43297.00
1082.148, 43165.00
1083.249, 43218.00
1084.350, 43262.00
1085.451, 43263.00
1086.551, 43297.00
1087.652, 43150.00
1088.752, 43270.00
1089.853, 43248.00
1090.953, 43206.00
1092.053, 43269.00
1093.152, 43254.00
1094.252, 42964.00
1095.351, 42998.00
1096.451, 43153.00
1097.550, 42923.00
1098.649, 43132.00
1099.748, 43445.00
1100.846, 43067.00
1101.945, 43146.00
1103.043, 43359.00
1104.141, 43375.00
1105.239, 43301.00
1106.337, 43288.00
1107.434, 43351.00
1108.532, 43591.00
1109.629, 43408.00
1110.726, 43552.00
1111.823, 43544.00
1112.920, 43568.00
1114.017, 43532.00
1115.113, 43464.00
1116.210, 43490.00
1117.306, 43714.00
1118.402, 43592.00
1119.498, 43916.00
1120.593, 43748.00
1121.689, 44000.00
1122.784, 43969.00
1123.879, 43823.00
1124.974, 43624.00
1126.069, 44140.00
1127.164, 44117.00
1128.259, 44198.00
1129.353, 44155.00
1130.447, 44351.00
1131.541, 43929.00
1132.635, 44147.00
1133.729, 44281.00
1134.822, 43936.00
1135.916, 44337.00
1137.009, 44050.00
1138.102, 44267.00
1139.195, 44197.00
1140.288, 44233.00
1141.380, 44324.00
1142.473, 44429.00
1143.565, 44238.00
1144.657, 44339.00
1145.749, 44406.00
1146.841, 44620.00
1147.932, 44293.00
1149.024, 44443.00
1150.115, 44541.00
1151.206, 44756.00
1152.297, 44879.00
1153.388, 44931.00
1154.479, 44858.00
1155.569, 45195.00
1156.659, 45327.00
1157.750, 45401.00
1158.839, 45198.00
1159.929, 45245.00
1161.019, 45397.00
1162.108, 45325.00
1163.198, 45481.00
1164.287, 45478.00
1165.376, 45347.00
1166.465, 45536.00
1167.553, 45235.00
1168.642, 45471.00
1169.730, 45788.00
1170.818, 45502.00
1171.906, 45356.00
1172.994, 45357.00
1174.082, 45481.00
1175.170, 45650.00
1176.257, 45153.00
1177.344, 45620.00
1178.431, 45556.00
1179.518, 45269.00
1180.605, 45424.00
1181.691, 45696.00
1182.778, 45639.00
1183.864, 45752.95
1184.950, 45509.00
1186.036, 45760.00
1187.122, 45599.00
1188.207, 45555.00
1189.292, 45724.00
1190.378, 45664.00
1191.463, 45712.00
1192.548, 45660.00
1193.632, 45596.00
1194.717, 45481.00
1195.801, 45917.00
1196.886, 45726.00
1197.970, 45784.00
1199.054, 46019.00
1200.137, 45731.00
1201.221, 46055.00
1202.305, 46226.00
1203.388, 46133.00
1204.471, 46037.00
1205.554, 45941.00
1206.637, 45722.00
1207.719, 46124.00
1208.802, 45871.00
1209.884, 46138.00
1210.966, 46098.00
1212.048, 46327.00
1213.130, 46229.00
1214.212, 46356.00
1215.293, 46415.00
1216.374, 46451.00
1217.456, 46458.37
1218.536, 46389.00
1219.617, 46355.00
1220.698, 46516.00
1221.778, 46389.00
1222.859, 46524.00
1223.939, 46370.00
1225.019, 46528.00
1226.099, 46594.00
1227.178, 46683.00
1228.258, 46758.00
1229.337, 46724.00
1230.417, 47036.00
1231.496, 46818.00
1232.574, 46921.00
1233.653, 46855.00
1234.732, 47118.00
1235.810, 47066.00
1236.888, 47125.00
1237.966, 47283.00
1239.044, 47231.00
1240.122, 47153.00
1241.199, 47181.00
1242.277, 47221.00
1243.354, 47239.00
1244.431, 47405.00
1245.508, 46992.00
1246.585, 47445.00
1247.661, 47231.00
1248.738, 47516.00
1249.814, 47619.00
1250.890, 47541.00
1251.966, 47408.00
1253.042, 47493.00
1254.117, 47876.00
1255.193, 47559.00
1256.268, 47486.00
1257.343, 47771.00
1258.418, 47534.00
1259.493, 47882.00
1260.567, 47852.00
1261.642, 47969.00
1262.716, 47936.00
1263.790, 47988.36
1264.864, 47936.00
1265.938, 48076.00
1267.011, 48220.00
1268.085, 48299.00
1269.158, 48354.96
1270.231, 48501.00
1271.304, 48381.00
1272.377, 48568.00
1273.450, 48556.00
1274.522, 48669.00
1275.594, 48625.91
1276.666, 48745.00
1277.738, 48493.00
1278.810, 48542.00
1279.882, 48488.00
1280.953, 48455.00
1282.025, 48677.00
1283.096, 48604.00
1284.167, 48829.00
1285.238, 48656.00
1286.308, 48324.00
1287.379, 48734.00
1288.449, 48565.00
1289.519, 48806.00
1290.589, 48765.00
1291.659, 48935.00
1292.729, 49326.00
1293.798, 49206.00
1294.868, 49200.00
1295.937, 49198.00
1297.006, 49050.00
1298.075, 49099.59
1299.143, 48966.00
1300.212, 49091.00
1301.280, 49053.00
1302.348, 49012.00
1303.416, 49253.00
1304.484, 49530.00
1305.552, 49180.00
1306.620, 49246.00
1307.687, 49501.00
1308.754, 49473.00
1309.821, 49413.00
1310.888, 49488.00
1311.955, 49582.59
1313.021, 49879.00
1314.088, 49786.00
1315.154, 49785.00
1316.220, 49652.00
1317.286, 49708.00
1318.352, 50028.00
1319.417, 50158.00
1320.483, 49893.00
1321.548, 49644.00
1322.613, 49757.00
1323.678, 49443.00
1324.743, 49732.00
1325.807, 49691.00
1326.872, 49736.00
1327.936, 49710.00
1329.000, 49706.72
1330.064, 49708.23
1331.128, 49673.00
1332.191, 49692.00
1333.255, 49635.00
1334.318, 49632.00
1335.381, 49657.00
1336.444, 49697.17
1337.507, 49845.00
1338.569, 49804.00
1339.632, 49935.00
1340.694, 49905.00
1341.756, 50180.00
1342.818, 50148.00
1343.880, 50221.28
1344.941, 49942.00
1346.003, 50343.00
1347.064, 50023.00
1348.125, 50161.00
1349.186, 50213.00
1350.247, 50230.00
1351.308, 50369.00
1352.368, 50260.00
1353.428, 50218.00
1354.489, 50266.00
1355.549, 50247.00
1356.608, 50132.00
1357.668, 50196.00
1358.727, 50408.00
1359.787, 50249.00
1360.846, 50133.00
1361.905, 50584.00
1362.964, 50589.00
1364.022, 50883.00
1365.081, 50633.00
1366.139, 50576.00
1367.197, 50466.00
1368.255, 50524.00
1369.313, 50655.00
1370.371, 50747.00
1371.428, 50896.00
1372.486, 50788.00
1373.543, 50484.00
1374.600, 50501.00
1375.657, 50717.00
1376.713, 51062.00
1377.770, 50866.00
1378.826, 50957.00
1379.882, 51170.00
1380.938, 50765.00
1381.994, 51016.00
1383.050, 51426.00
1384.106, 51318.00
1385.161, 51313.00
1386.216, 51083.00
1387.271, 51273.00
1388.326, 51291.00
1389.381, 50950.00
1390.435, 51379.00
1391.490, 51155.00
1392.544, 50996.00
1393.598, 51170.00
1394.652, 51340.00
1395.705, 51286.00
1396.759, 51286.00
1397.812, 51181.00
1398.866, 51301.00
1399.919, 51458.00
1400.972, 51309.00
1402.024, 51540.00
1403.077, 51717.00
1404.129, 51427.00
1405.181, 51748.00
1406.233, 51614.00
1407.285, 51508.00
1408.337, 51615.00
1409.389, 51712.00
1410.440, 51880.00
1411.491, 51774.00
1412.542, 51796.00
1413.593, 51961.00
1414.644, 51907.00
1415.695, 51757.00
1416.745, 51845.00
1417.795, 51743.00
1418.845, 52009.00
1419.895, 52120.00
1420.945, 51987.00
1421.995, 52029.00
1423.044, 52223.00
1424.093, 52134.00
1425.142, 51974.00
1426.191, 52201.00
1427.240, 52568.00
1428.289, 52298.00
1429.337, 52654.00
1430.385, 52579.00
1431.433, 52227.00
1432.481, 52531.00
1433.529, 52553.00
1434.577, 52536.00
1435.624, 52964.00
1436.672, 53118.00
1437.719, 53137.00
1438.766, 53328.00
1439.812, 53563.00
1440.859, 53491.00
1441.905, 53664.00
1442.952, 53805.00
1443.998, 53926.00
1445.044, 53968.00
1446.090, 53996.00
1447.135, 54065.00
1448.181, 54139.00
1449.226, 53939.00
1450.271, 54063.00
1451.316, 54425.00
1452.361, 54231.00
1453.405, 54669.00
1454.450, 54400.00
1455.494, 54346.00
1456.538, 54268.00
1457.582, 54720.00
1458.626, 54401.00
1459.670, 54408.00
1460.713, 54356.00
1461.757, 54204.00
1462.800, 54320.00
1463.843, 54146.00
1464.886, 54253.00
1465.928, 54234.00
1466.971, 54203.00
1468.013, 54036.00
1469.055, 54064.00
1470.097, 53848.00
1471.139, 53930.84
1472.181, 54368.00
1473.222, 54102.00
1474.263, 54193.00
1475.305, 54371.00
1476.346, 54181.00
1477.386, 54051.00
1478.427, 54258.00
1479.468, 53937.00
1480.508, 54238.00
1481.548, 54202.00
1482.588, 54204.00
1483.628, 54241.00
1484.668, 54548.00
1485.707, 54350.00
1486.747, 54048.00
1487.786, 54302.00
1488.825, 54164.00
1489.864, 54124.00
1490.902, 54113.00
1491.941, 54196.00
1492.979, 54298.00
1494.017, 54046.00
1495.055, 54140.00
1496.093, 54058.00
1497.131, 54077.00
1498.168, 54300.00
1499.206, 54394.00
1500.243, 53897.00
1501.280, 54145.00
1502.317, 54208.00
1503.354, 54175.00
1504.390, 54411.00
1505.426, 54255.00
1506.463, 54737.00
1507.499, 54500.00
1508.535, 54707.00
1509.570, 54600.00
1510.606, 54562.00
1511.641, 54704.00
1512.676, 54677.00
1513.711, 54595.00
1514.746, 54677.00
1515.781, 54806.00
1516.816, 54974.00
1517.850, 54792.00
1518.884, 54958.00
1519.918, 54934.00
1520.952, 54728.00
1521.986, 55040.00
1523.019, 55403.00
1524.053, 55133.00
1525.086, 55367.00
1526.119, 55401.00
1527.152, 55290.00
1528.185, 55292.00
1529.217, 55481.00
1530.250, 55554.00
1531.282, 55452.00
1532.314, 55501.00
1533.346, 55506.00
1534.377, 55649.00
1535.409, 55854.00
1536.440, 55945.00
1537.472, 55760.00
1538.503, 55668.00
1539.534, 55708.00
1540.564, 55758.00
1541.595, 55827.00
1542.625, 55929.00
1543.656, 56054.00
1544.686, 55851.00
1545.716, 55982.00
1546.745, 55775.00
1547.775, 55869.05
1548.804, 56180.00
1549.834, 56065.00
1550.863, 56134.00
1551.892, 56327.00
1552.920, 56538.00
1553.949, 56394.00
1554.977, 56255.00
1556.006, 56532.00
1557.034, 56089.00
1558.062, 56137.00
1559.089, 56586.00
1560.117, 56571.00
1561.144, 56384.00
1562.172, 56553.00
1563.199, 56463.00
1564.226, 56698.00
1565.252, 56554.00
1566.279, 56781.00
1567.305, 56821.00
1568.332, 56759.00
1569.358, 56553.00
1570.384, 57159.00
##END=



