##NAMES=Bikitaite
##RRUFFID=R050160
##IDEAL CHEMISTRY=LiAlSi_2_O_6_&#183;H_2_O
##LOCALITY=Foote mine, Kings Mountain, Cleveland County, North Carolina, USA
##OWNER=RRUFF
##SOURCE=Jim McGlasson
##DESCRIPTION=Colorless prismatic crystals
##STATUS=The identification of this mineral has been confirmed by X-ray diffraction and chemical analysis
##URL=rruff.info/R050160
##MEASURED CHEMISTRY=Li_1.00_Si_2.00_O_6_Â·1.25H_2_O ; Li not measured but estimated by stoichiometry
##PIN_ID=M00294
##ORIENTATION=Laser parallel to (1 0 1). Fiducial mark perpendicular to laser is parallel to -b [0 -1 0]
87.30800, 14856.00
88.54200, 15507.00
89.77700, 16344.00
91.01200, 17160.00
92.24600, 17926.00
93.48000, 18234.00
94.71400, 18829.00
95.94800, 19522.00
97.18200, 19989.00
98.41600, 20594.00
99.64900, 20809.00
100.8830, 21419.00
102.1160, 21646.00
103.3490, 21481.00
104.5820, 21830.00
105.8150, 21759.00
107.0470, 21995.00
108.2800, 21922.00
109.5120, 21882.00
110.7440, 21341.00
111.9760, 20921.00
113.2080, 20895.00
114.4400, 20965.00
115.6710, 20836.00
116.9030, 20781.00
118.1340, 20056.00
119.3650, 19298.00
120.5960, 18752.00
121.8270, 18162.00
123.0580, 17811.00
124.2880, 17533.00
125.5190, 17127.00
126.7490, 16915.00
127.9790, 17464.00
129.2090, 17555.00
130.4390, 18042.00
131.6680, 18489.00
132.8980, 19177.00
134.1270, 19881.00
135.3560, 20894.00
136.5850, 21971.00
137.8140, 23209.00
139.0430, 24475.00
140.2710, 25623.00
141.5000, 26232.00
142.7280, 27165.00
143.9560, 27866.00
145.1840, 28179.00
146.4120, 28107.00
147.6390, 27686.00
148.8670, 26947.00
150.0940, 26295.00
151.3210, 25720.00
152.5490, 24788.00
153.7750, 24320.00
155.0020, 23711.00
156.2290, 23138.00
157.4550, 22669.00
158.6810, 22165.00
159.9080, 22096.00
161.1340, 21773.00
162.3590, 21331.00
163.5850, 20936.00
164.8110, 20398.00
166.0360, 20084.00
167.2610, 19527.00
168.4860, 18946.11
169.7110, 18566.00
170.9360, 17836.00
172.1610, 17365.00
173.3850, 17144.00
174.6100, 16668.00
175.8340, 16324.00
177.0580, 16078.00
178.2820, 16073.00
179.5050, 15929.00
180.7290, 16097.00
181.9520, 16351.00
183.1760, 16265.00
184.3990, 16517.00
185.6220, 16568.00
186.8450, 17133.00
188.0670, 17602.00
189.2900, 18164.00
190.5120, 18861.00
191.7340, 19944.00
192.9560, 20985.00
194.1780, 22406.00
195.4000, 23488.00
196.6220, 24754.00
197.8430, 25774.00
199.0640, 26886.00
200.2860, 27775.00
201.5070, 28558.00
202.7270, 28468.00
203.9480, 28400.00
205.1690, 27423.00
206.3890, 26437.00
207.6090, 25257.00
208.8290, 24051.00
210.0490, 23363.00
211.2690, 22936.00
212.4890, 22714.00
213.7080, 22857.00
214.9280, 23291.00
216.1470, 23289.00
217.3660, 23533.00
218.5850, 23728.00
219.8030, 23576.00
221.0220, 23201.00
222.2400, 22402.00
223.4590, 22041.00
224.6770, 21230.00
225.8950, 20458.00
227.1120, 19828.00
228.3300, 19332.00
229.5480, 18845.00
230.7650, 18513.00
231.9820, 18392.00
233.1990, 18556.00
234.4160, 18519.00
235.6330, 18531.00
236.8490, 18800.00
238.0660, 18982.00
239.2820, 19423.00
240.4980, 19986.00
241.7140, 20544.00
242.9300, 21367.00
244.1460, 21983.00
245.3610, 22996.00
246.5770, 23992.00
247.7920, 24831.00
249.0070, 25595.00
250.2220, 26369.00
251.4370, 26827.00
252.6510, 26942.00
253.8660, 27019.00
255.0800, 26546.00
256.2940, 26126.00
257.5080, 25352.00
258.7220, 24236.00
259.9360, 23557.00
261.1490, 21861.00
262.3630, 20770.00
263.5760, 19785.00
264.7890, 19176.00
266.0020, 18718.00
267.2150, 18226.00
268.4270, 17905.00
269.6400, 17569.00
270.8520, 17504.00
272.0640, 17381.00
273.2760, 17472.00
274.4880, 17596.00
275.7000, 17559.00
276.9120, 17886.00
278.1230, 18234.00
279.3340, 18579.00
280.5450, 19146.00
281.7560, 19609.00
282.9670, 20142.00
284.1780, 20771.00
285.3880, 21078.00
286.5980, 21838.00
287.8090, 22028.00
289.0190, 22127.00
290.2290, 22150.00
291.4380, 22092.00
292.6480, 21513.00
293.8570, 21062.00
295.0670, 20524.00
296.2760, 19853.00
297.4850, 19839.00
298.6930, 19209.00
299.9020, 18939.00
301.1110, 18773.00
302.3190, 19304.00
303.5270, 19182.00
304.7350, 19437.00
305.9430, 19605.00
307.1510, 19510.00
308.3580, 19839.00
309.5660, 20144.00
310.7730, 20411.00
311.9800, 20344.00
313.1870, 20419.00
314.3940, 20375.00
315.6010, 20302.00
316.8070, 20226.00
318.0130, 19857.00
319.2200, 19534.00
320.4260, 19483.00
321.6310, 19241.00
322.8370, 19484.00
324.0430, 19376.00
325.2480, 19387.00
326.4540, 19398.00
327.6590, 19092.00
328.8640, 18863.00
330.0680, 18543.00
331.2730, 18408.00
332.4780, 18341.00
333.6820, 18324.00
334.8860, 18526.00
336.0900, 18454.00
337.2940, 18613.00
338.4980, 19104.00
339.7010, 19721.00
340.9050, 19990.00
342.1080, 20560.00
343.3110, 20871.00
344.5140, 21353.00
345.7170, 21548.00
346.9200, 21985.00
348.1220, 22197.00
349.3240, 22253.00
350.5270, 22197.00
351.7290, 22219.00
352.9310, 21945.00
354.1320, 21734.00
355.3340, 21621.00
356.5350, 21487.00
357.7370, 21435.00
358.9380, 21348.00
360.1390, 21378.00
361.3400, 21471.00
362.5400, 21956.00
363.7410, 22333.00
364.9410, 23094.00
366.1410, 23901.00
367.3410, 24860.00
368.5410, 26038.00
369.7410, 27449.00
370.9400, 28811.00
372.1400, 30576.00
373.3390, 32507.00
374.5380, 34276.00
375.7370, 36104.00
376.9360, 38257.00
378.1350, 40165.00
379.3330, 42162.00
380.5310, 43599.00
381.7300, 45045.00
382.9280, 46398.00
384.1260, 47758.00
385.3230, 48535.00
386.5210, 49455.00
387.7180, 50269.00
388.9160, 50496.00
390.1130, 50647.00
391.3100, 50443.00
392.5060, 50030.00
393.7030, 49149.00
394.9000, 47937.00
396.0960, 46039.00
397.2920, 43423.00
398.4880, 40526.00
399.6840, 37610.00
400.8800, 34628.00
402.0750, 32081.00
403.2710, 29388.00
404.4660, 27704.00
405.6610, 26002.00
406.8560, 25042.00
408.0510, 23879.00
409.2450, 23346.00
410.4400, 22721.00
411.6340, 22398.00
412.8280, 22045.00
414.0220, 21786.61
415.2160, 21683.00
416.4100, 21536.00
417.6030, 21565.00
418.7970, 21607.00
419.9900, 21345.00
421.1830, 21302.00
422.3760, 21431.00
423.5690, 21291.00
424.7610, 21215.00
425.9540, 21276.00
427.1460, 21014.00
428.3380, 21171.00
429.5300, 20996.00
430.7220, 20768.00
431.9140, 20883.00
433.1050, 20824.00
434.2970, 20956.00
435.4880, 21172.00
436.6790, 20986.00
437.8700, 21199.00
439.0610, 21272.00
440.2510, 21266.00
441.4420, 21160.00
442.6320, 21277.00
443.8220, 21305.00
445.0120, 21407.00
446.2020, 21183.00
447.3910, 21208.00
448.5810, 21264.00
449.7700, 21216.00
450.9600, 21288.00
452.1490, 21317.00
453.3370, 21611.00
454.5260, 22026.00
455.7150, 22618.00
456.9030, 23123.00
458.0910, 23557.00
459.2800, 24118.67
460.4670, 24607.45
461.6550, 25132.00
462.8430, 25621.00
464.0300, 26096.00
465.2180, 26545.31
466.4050, 26824.00
467.5920, 27237.00
468.7790, 27723.00
469.9650, 27963.00
471.1520, 28685.00
472.3380, 28822.00
473.5250, 29661.00
474.7110, 30536.00
475.8970, 31665.00
477.0820, 32680.00
478.2680, 34010.00
479.4540, 35532.00
480.6390, 36931.00
481.8240, 38628.00
483.0090, 40550.00
484.1940, 42215.00
485.3780, 44499.00
486.5630, 46808.00
487.7470, 49367.00
488.9320, 52044.00
490.1160, 54830.00
491.3000, 57343.00
492.4830, 59880.00
493.6670, 61356.00
494.8500, 62805.00
496.0340, 62774.00
497.2170, 62433.00
498.4000, 60888.00
499.5820, 58390.00
500.7650, 55168.00
501.9480, 51376.00
503.1300, 47290.00
504.3120, 43404.00
505.4940, 39820.00
506.6760, 36699.00
507.8580, 33839.00
509.0390, 31486.00
510.2210, 29608.00
511.4020, 28176.00
512.5830, 26925.00
513.7640, 25942.00
514.9450, 24773.00
516.1250, 24342.00
517.3060, 23571.00
518.4860, 23176.00
519.6660, 22410.00
520.8460, 22030.00
522.0260, 21832.00
523.2060, 21649.00
524.3850, 21479.00
525.5650, 21324.51
526.7440, 21124.00
527.9230, 21099.00
529.1020, 20988.00
530.2810, 20999.00
531.4590, 20787.00
532.6380, 20961.00
533.8160, 20881.00
534.9940, 20856.00
536.1720, 21033.00
537.3500, 20992.00
538.5270, 20893.00
539.7050, 20797.00
540.8820, 20582.00
542.0590, 20480.00
543.2360, 20226.00
544.4130, 20128.00
545.5900, 19946.00
546.7660, 19720.00
547.9430, 19475.00
549.1190, 19263.00
550.2950, 19402.00
551.4710, 19111.00
552.6470, 19073.00
553.8220, 19209.00
554.9980, 18793.00
556.1730, 18749.00
557.3480, 18961.00
558.5230, 18698.00
559.6980, 18751.00
560.8730, 18818.00
562.0470, 18614.00
563.2220, 18557.00
564.3960, 18501.00
565.5700, 18753.00
566.7440, 18573.00
567.9170, 18725.00
569.0910, 18709.00
570.2640, 18609.00
571.4380, 18675.00
572.6110, 18647.00
573.7840, 18655.00
574.9570, 18782.00
576.1290, 18609.00
577.3020, 18808.00
578.4740, 18529.00
579.6460, 18807.00
580.8180, 18869.00
581.9900, 18753.00
583.1620, 18727.00
584.3330, 18867.00
585.5040, 19036.00
586.6760, 18999.00
587.8470, 18947.00
589.0180, 19025.00
590.1880, 18957.00
591.3590, 19006.04
592.5290, 19084.00
593.7000, 19020.00
594.8700, 18968.00
596.0400, 18849.00
597.2090, 18956.00
598.3790, 18921.21
599.5490, 18955.00
600.7180, 19039.00
601.8870, 19077.00
603.0560, 19229.00
604.2250, 19180.00
605.3940, 19205.00
606.5620, 19132.00
607.7300, 19073.00
608.8990, 19190.00
610.0670, 18972.00
611.2350, 18980.00
612.4020, 19192.00
613.5700, 19130.00
614.7370, 19396.00
615.9050, 19470.00
617.0720, 19811.00
618.2390, 19982.00
619.4060, 20061.00
620.5720, 20355.00
621.7390, 20610.00
622.9050, 20878.00
624.0710, 21304.00
625.2370, 21450.00
626.4030, 21420.00
627.5690, 21254.00
628.7340, 20963.00
629.9000, 20383.00
631.0650, 20262.00
632.2300, 20010.00
633.3950, 20012.00
634.5600, 19831.00
635.7240, 19826.49
636.8890, 19678.00
638.0530, 19919.00
639.2170, 19983.00
640.3810, 20182.00
641.5450, 20236.00
642.7080, 20391.00
643.8720, 20489.00
645.0350, 20608.39
646.1980, 20731.00
647.3610, 20782.00
648.5240, 20866.00
649.6870, 20775.00
650.8490, 20901.00
652.0120, 20575.00
653.1740, 20653.00
654.3360, 20537.00
655.4980, 20349.00
656.6600, 20157.00
657.8210, 19971.00
658.9830, 19900.00
660.1440, 19675.00
661.3050, 19491.00
662.4660, 19482.00
663.6270, 19720.00
664.7870, 19635.00
665.9480, 19488.00
667.1080, 19753.00
668.2680, 19511.00
669.4280, 19756.00
670.5880, 19527.00
671.7480, 19740.00
672.9070, 19774.00
674.0670, 19981.00
675.2260, 19919.00
676.3850, 20163.00
677.5440, 20177.00
678.7030, 20253.00
679.8610, 20091.00
681.0200, 20114.75
682.1780, 20013.00
683.3360, 20016.00
684.4940, 19973.00
685.6520, 19928.00
686.8090, 19959.00
687.9670, 19977.39
689.1240, 19986.00
690.2810, 20096.00
691.4380, 20274.00
692.5950, 20367.00
693.7520, 20562.00
694.9080, 20704.00
696.0650, 21013.00
697.2210, 21379.00
698.3770, 21676.00
699.5330, 22052.00
700.6880, 22165.00
701.8440, 22369.00
702.9990, 22598.00
704.1550, 22589.00
705.3100, 22584.00
706.4650, 22432.00
707.6190, 22093.00
708.7740, 22016.00
709.9290, 22082.00
711.0830, 21573.00
712.2370, 21392.00
713.3910, 21419.00
714.5450, 21117.00
715.6980, 21211.00
716.8520, 21129.00
718.0050, 21177.00
719.1580, 21161.00
720.3110, 21227.00
721.4640, 21180.00
722.6170, 21167.00
723.7700, 21160.28
724.9220, 21121.73
726.0740, 21136.00
727.2260, 21059.00
728.3780, 21105.00
729.5300, 21066.00
730.6810, 21105.00
731.8330, 20800.00
732.9840, 20821.00
734.1350, 20681.00
735.2860, 20619.00
736.4370, 20633.00
737.5880, 20607.00
738.7380, 20565.00
739.8880, 20627.00
741.0390, 20622.00
742.1890, 20699.00
743.3380, 20763.00
744.4880, 20929.00
745.6380, 20993.00
746.7870, 20955.00
747.9360, 21248.00
749.0850, 21104.00
750.2340, 21585.00
751.3830, 21703.00
752.5310, 21859.00
753.6800, 21979.00
754.8280, 22286.00
755.9760, 22500.00
757.1240, 22742.00
758.2720, 22946.38
759.4190, 23061.00
760.5670, 23269.31
761.7140, 23403.80
762.8610, 23471.00
764.0080, 23541.00
765.1550, 23532.00
766.3020, 23490.38
767.4480, 23370.09
768.5950, 23286.00
769.7410, 23035.00
770.8870, 22841.00
772.0330, 22694.00
773.1780, 22570.00
774.3240, 22299.00
775.4690, 22232.00
776.6140, 22012.00
777.7590, 22127.00
778.9040, 22057.00
780.0490, 21973.00
781.1940, 22018.00
782.3380, 21941.83
783.4820, 21900.00
784.6260, 21849.00
785.7700, 21897.00
786.9140, 21796.00
788.0580, 21873.00
789.2010, 21684.00
790.3450, 21783.00
791.4880, 21821.00
792.6310, 21747.00
793.7730, 21820.00
794.9160, 21729.00
796.0590, 21794.00
797.2010, 21817.00
798.3430, 21771.00
799.4850, 21696.00
800.6270, 21887.00
801.7690, 21840.00
802.9100, 21636.00
804.0520, 21624.00
805.1930, 21826.00
806.3340, 21975.00
807.4750, 21798.00
808.6160, 21699.00
809.7560, 21818.00
810.8970, 21873.00
812.0370, 21713.00
813.1770, 21814.00
814.3170, 21870.00
815.4570, 22002.00
816.5960, 21822.00
817.7360, 21877.00
818.8750, 21927.00
820.0140, 22121.00
821.1530, 22138.00
822.2920, 22100.00
823.4310, 22273.00
824.5690, 22243.00
825.7070, 22335.00
826.8460, 22267.00
827.9840, 22165.00
829.1220, 22332.00
830.2590, 22383.00
831.3970, 22374.00
832.5340, 22460.00
833.6710, 22259.00
834.8080, 22494.00
835.9450, 22740.00
837.0820, 22544.00
838.2190, 22597.00
839.3550, 22739.00
840.4910, 22808.00
841.6270, 22684.00
842.7630, 22832.00
843.8990, 22844.00
845.0350, 23051.00
846.1700, 23117.00
847.3060, 23190.00
848.4410, 23040.00
849.5760, 23172.00
850.7100, 23107.00
851.8450, 23254.00
852.9800, 23449.00
854.1140, 23632.00
855.2480, 23640.00
856.3820, 24077.00
857.5160, 24090.00
858.6500, 24487.00
859.7830, 24455.00
860.9170, 24384.00
862.0500, 24305.00
863.1830, 24213.07
864.3160, 23976.00
865.4480, 23963.00
866.5810, 23783.00
867.7130, 23590.00
868.8460, 23732.00
869.9780, 23354.00
871.1100, 23422.00
872.2410, 23435.00
873.3730, 23355.00
874.5050, 23427.00
875.6360, 23294.00
876.7670, 23500.00
877.8980, 23316.00
879.0290, 23323.00
880.1590, 23484.00
881.2900, 23337.00
882.4200, 23361.00
883.5500, 23339.00
884.6800, 23351.00
885.8100, 23242.00
886.9400, 23546.00
888.0690, 23365.00
889.1990, 23468.00
890.3280, 23307.00
891.4570, 23540.00
892.5860, 23277.00
893.7140, 23496.00
894.8430, 23559.00
895.9710, 23684.00
897.1000, 23631.00
898.2280, 23649.55
899.3560, 23511.00
900.4830, 23565.00
901.6110, 23626.00
902.7380, 23583.00
903.8660, 23621.00
904.9930, 23662.00
906.1200, 23593.00
907.2460, 23455.00
908.3730, 23441.00
909.5000, 23438.00
910.6260, 23413.67
911.7520, 23670.00
912.8780, 23501.00
914.0040, 23557.00
915.1290, 23706.00
916.2550, 23452.00
917.3800, 23269.00
918.5050, 23461.00
919.6300, 23426.00
920.7550, 23166.00
921.8800, 23320.00
923.0040, 23384.00
924.1290, 23224.00
925.2530, 23388.00
926.3770, 23595.00
927.5010, 23515.00
928.6250, 23683.00
929.7480, 23616.00
930.8720, 23497.00
931.9950, 23739.00
933.1180, 23779.00
934.2410, 23880.00
935.3640, 23933.00
936.4860, 23895.00
937.6090, 23823.00
938.7310, 23956.00
939.8530, 24198.00
940.9750, 24248.00
942.0970, 24089.00
943.2180, 24395.00
944.3400, 24508.00
945.4610, 24729.00
946.5820, 24891.00
947.7030, 25519.00
948.8240, 26065.00
949.9450, 26870.00
951.0650, 27839.00
952.1860, 29067.00
953.3060, 30825.00
954.4260, 32530.00
955.5460, 34358.00
956.6650, 35705.00
957.7850, 36469.00
958.9040, 36837.00
960.0230, 36201.00
961.1420, 35228.00
962.2610, 33267.00
963.3800, 31640.00
964.4990, 29980.00
965.6170, 28636.00
966.7350, 27590.00
967.8530, 27073.00
968.9710, 26655.00
970.0890, 26426.00
971.2070, 26088.00
972.3240, 25888.63
973.4410, 25608.00
974.5580, 25588.00
975.6750, 25337.00
976.7920, 25277.00
977.9090, 24898.00
979.0250, 24672.00
980.1410, 24659.00
981.2580, 24483.00
982.3740, 24438.00
983.4890, 24326.00
984.6050, 24499.00
985.7200, 24735.00
986.8360, 24875.00
987.9510, 24965.54
989.0660, 25011.00
990.1810, 25062.00
991.2950, 25048.00
992.4100, 25050.00
993.5240, 25537.00
994.6390, 25755.00
995.7530, 26546.00
996.8660, 27147.00
997.9800, 27702.00
999.0940, 28483.00
1000.207, 29175.00
1001.320, 29807.00
1002.433, 30104.00
1003.546, 29410.00
1004.659, 28440.00
1005.772, 27647.00
1006.884, 27209.00
1007.996, 26973.00
1009.108, 26928.00
1010.220, 27137.00
1011.332, 27450.00
1012.444, 27796.00
1013.555, 28416.00
1014.666, 29009.00
1015.777, 29677.00
1016.888, 30413.00
1017.999, 30896.00
1019.110, 30803.00
1020.220, 31044.00
1021.331, 30917.00
1022.441, 30721.00
1023.551, 30140.00
1024.661, 29431.00
1025.770, 28862.00
1026.880, 28500.00
1027.989, 27991.00
1029.098, 27377.00
1030.207, 26771.00
1031.316, 26406.00
1032.425, 26114.00
1033.533, 25765.00
1034.642, 25593.00
1035.750, 25414.00
1036.858, 25316.00
1037.966, 25286.00
1039.073, 25089.00
1040.181, 25181.00
1041.288, 25227.00
1042.396, 25097.00
1043.503, 25030.00
1044.610, 24836.00
1045.716, 24938.00
1046.823, 24822.00
1047.929, 25032.00
1049.036, 25133.00
1050.142, 25176.00
1051.248, 25075.00
1052.353, 25074.00
1053.459, 25078.00
1054.564, 25056.00
1055.670, 25119.00
1056.775, 25095.00
1057.880, 25022.00
1058.985, 24874.00
1060.089, 25018.00
1061.194, 25090.00
1062.298, 25061.00
1063.402, 24868.00
1064.506, 25197.00
1065.610, 25043.00
1066.713, 25063.00
1067.817, 25127.00
1068.920, 25070.00
1070.023, 25198.00
1071.126, 25130.00
1072.229, 25413.00
1073.332, 25466.00
1074.435, 25570.00
1075.537, 25770.00
1076.639, 25944.00
1077.741, 25879.00
1078.843, 26249.00
1079.945, 26386.00
1081.046, 26229.00
1082.148, 26573.00
1083.249, 26503.00
1084.350, 26513.00
1085.451, 26501.00
1086.551, 26437.00
1087.652, 26426.00
1088.752, 26514.00
1089.853, 26503.00
1090.953, 26519.41
1092.053, 26466.00
1093.152, 26569.00
1094.252, 26632.00
1095.351, 26752.00
1096.451, 26910.00
1097.550, 27199.00
1098.649, 27447.00
1099.748, 27618.00
1100.846, 27821.00
1101.945, 27929.00
1103.043, 28126.00
1104.141, 28252.00
1105.239, 28211.00
1106.337, 28314.00
1107.434, 27926.00
1108.532, 27731.00
1109.629, 27602.00
1110.726, 27337.00
1111.823, 27161.00
1112.920, 27063.00
1114.017, 27153.00
1115.113, 26839.00
1116.210, 27191.00
1117.306, 27300.00
1118.402, 27208.00
1119.498, 27230.00
1120.593, 27353.00
1121.689, 27535.00
1122.784, 27850.00
1123.879, 28060.00
1124.974, 28304.00
1126.069, 28337.00
1127.164, 28503.00
1128.259, 28287.00
1129.353, 28243.00
1130.447, 28131.00
1131.541, 27805.00
1132.635, 27803.00
1133.729, 27356.00
1134.822, 27331.00
1135.916, 27304.00
1137.009, 27002.00
1138.102, 27048.00
1139.195, 26903.00
1140.288, 26965.00
1141.380, 27070.00
1142.473, 26819.00
1143.565, 27029.00
1144.657, 26912.00
1145.749, 27060.00
1146.841, 27166.00
1147.932, 27333.00
1149.024, 27294.00
1150.115, 27544.00
1151.206, 27524.00
1152.297, 28012.00
1153.388, 28189.00
1154.479, 28256.00
1155.569, 28654.00
1156.659, 28708.00
1157.750, 28719.00
1158.839, 29371.00
1159.929, 29443.00
1161.019, 29306.00
1162.108, 29064.00
1163.198, 29181.00
1164.287, 28876.00
1165.376, 28867.00
1166.465, 28546.00
1167.553, 28453.00
1168.642, 28505.00
1169.730, 28432.00
1170.818, 28131.00
1171.906, 28007.00
1172.994, 28021.00
1174.082, 27943.00
1175.170, 27692.00
1176.257, 27597.00
1177.344, 27517.00
1178.431, 27437.00
1179.518, 27350.58
1180.605, 27302.00
1181.691, 27188.00
1182.778, 27204.00
1183.864, 27135.00
1184.950, 27286.00
1186.036, 27133.00
1187.122, 27053.00
1188.207, 27194.00
1189.292, 27133.00
1190.378, 26916.00
1191.463, 26873.00
1192.548, 26898.00
1193.632, 27186.00
1194.717, 26775.00
1195.801, 26782.00
1196.886, 26976.00
1197.970, 26790.00
1199.054, 26834.00
1200.137, 26998.00
1201.221, 27158.00
1202.305, 26834.00
1203.388, 26900.00
1204.471, 26768.00
1205.554, 26874.00
1206.637, 26939.00
1207.719, 26735.00
1208.802, 26964.00
1209.884, 26715.00
1210.966, 26863.00
1212.048, 27009.00
1213.130, 27219.00
1214.212, 26911.00
1215.293, 27129.00
1216.374, 27147.00
1217.456, 27060.00
1218.536, 27092.00
1219.617, 26958.00
1220.698, 27124.00
1221.778, 27056.00
1222.859, 27015.00
1223.939, 27031.00
1225.019, 27021.00
1226.099, 27119.00
1227.178, 27033.00
1228.258, 27099.00
1229.337, 27125.00
1230.417, 27281.00
1231.496, 27083.00
1232.574, 27365.00
1233.653, 27410.00
1234.732, 27560.00
1235.810, 27742.00
1236.888, 27631.00
1237.966, 27713.00
1239.044, 27738.00
1240.122, 27682.00
1241.199, 27636.00
1242.277, 27506.00
1243.354, 27567.00
1244.431, 27732.00
1245.508, 27647.00
1246.585, 27610.00
1247.661, 27857.00
1248.738, 27529.00
1249.814, 27954.00
1250.890, 27828.00
1251.966, 27738.00
1253.042, 27794.00
1254.117, 27700.00
1255.193, 27677.00
1256.268, 27716.96
1257.343, 27795.00
1258.418, 27773.00
1259.493, 27808.00
1260.567, 27814.00
1261.642, 27899.00
1262.716, 27890.00
1263.790, 28006.00
1264.864, 28040.00
1265.938, 28441.00
1267.011, 28265.00
1268.085, 28521.00
1269.158, 28333.00
1270.231, 28831.00
1271.304, 28565.00
1272.377, 28556.00
1273.450, 28857.00
1274.522, 28711.00
1275.594, 28656.00
1276.666, 28616.00
1277.738, 28565.00
1278.810, 28434.00
1279.882, 28426.00
1280.953, 28403.00
1282.025, 28430.00
1283.096, 28400.41
1284.167, 28195.00
1285.238, 28356.00
1286.308, 28397.00
1287.379, 28357.00
1288.449, 28041.00
1289.519, 28416.00
1290.589, 28335.00
1291.659, 28632.00
1292.729, 28713.00
1293.798, 28664.00
1294.868, 28788.00
1295.937, 28838.00
1297.006, 28800.00
1298.075, 28640.00
1299.143, 28721.00
1300.212, 28631.00
1301.280, 28568.00
1302.348, 28678.00
1303.416, 28639.00
1304.484, 28837.00
1305.552, 28724.00
1306.620, 28768.00
1307.687, 29043.00
1308.754, 29156.00
1309.821, 29073.00
1310.888, 29220.00
1311.955, 29145.00
1313.021, 29032.00
1314.088, 29021.00
1315.154, 29137.00
1316.220, 29325.00
1317.286, 29544.00
1318.352, 29237.00
1319.417, 29368.00
1320.483, 29236.00
1321.548, 29162.00
1322.613, 29180.00
1323.678, 28871.00
1324.743, 28915.00
1325.807, 28995.00
1326.872, 28850.00
1327.936, 28922.00
1329.000, 28710.00
1330.064, 28591.00
1331.128, 28556.00
1332.191, 28541.00
1333.255, 28217.00
1334.318, 28346.00
1335.381, 28306.00
1336.444, 28479.00
1337.507, 28431.00
1338.569, 28089.00
1339.632, 28227.00
1340.694, 28535.00
1341.756, 28265.00
1342.818, 28464.00
1343.880, 28597.00
1344.941, 28546.00
1346.003, 28628.88
1347.064, 28394.00
1348.125, 28519.00
1349.186, 28532.00
1350.247, 28302.00
1351.308, 28581.00
1352.368, 28418.00
1353.428, 28425.00
1354.489, 28521.00
1355.549, 28392.00
1356.608, 28466.00
1357.668, 28346.00
1358.727, 28309.00
1359.787, 28486.00
1360.846, 28615.00
1361.905, 28311.00
1362.964, 28704.00
1364.022, 28497.00
1365.081, 28605.00
1366.139, 28361.00
1367.197, 28690.00
1368.255, 28887.00
1369.313, 28652.00
1370.371, 28878.00
1371.428, 28591.00
1372.486, 28748.00
1373.543, 28581.00
1374.600, 28904.00
1375.657, 28783.00
1376.713, 28809.00
1377.770, 28836.00
1378.826, 28911.00
1379.882, 29121.00
1380.938, 29094.00
1381.994, 29121.00
1383.050, 28984.00
1384.106, 29038.00
1385.161, 29088.00
1386.216, 29044.00
1387.271, 28977.00
1388.326, 28917.00
1389.381, 28861.62
1390.435, 28941.00
1391.490, 28819.00
1392.544, 28760.00
1393.598, 28900.00
1394.652, 28919.00
1395.705, 28761.00
1396.759, 28639.00
1397.812, 28903.00
1398.866, 28696.00
1399.919, 28706.00
1400.972, 28831.00
1402.024, 29031.00
1403.077, 28685.00
1404.129, 28824.00
1405.181, 28900.00
1406.233, 28834.00
1407.285, 28962.00
1408.337, 28917.00
1409.389, 29036.00
1410.440, 28952.00
1411.491, 28907.00
1412.542, 29135.00
1413.593, 28888.00
1414.644, 29324.00
##END=



