##NAMES=Braunite
##RRUFFID=R050385
##IDEAL CHEMISTRY=Mn^2+^Mn^3+^_6_SiO_12_
##LOCALITY=Jhabua District, Madhya Pradesh, India
##OWNER=RRUFF
##SOURCE=University of Arizona Mineral Museum
##DESCRIPTION=Black prismatic crystals
##STATUS=The identification of this mineral has been confirmed by X-ray diffraction and chemical analysis
##URL=rruff.info/R050385
##MEASURED CHEMISTRY=(Fe^2+^_0.61_Mn^2+^_0.39_)_Σ=1_(Mn^3+^_5.94_Al_0.06_)_Σ=6_Si_1.00_O_12_
##PIN_ID=L01451
##ORIENTATION=Laser parallel to a* (1 0 0). Fiducial mark perpendicular to laser is parallel to c [0 0 1]
178.2820, 17229.00
179.5050, 17112.00
180.7290, 17170.00
181.9520, 17386.00
183.1760, 17582.00
184.3990, 17691.00
185.6220, 17959.00
186.8450, 18155.60
188.0670, 18439.00
189.2900, 18717.00
190.5120, 19039.27
191.7340, 19259.00
192.9560, 19747.00
194.1780, 20034.00
195.4000, 20381.00
196.6220, 21001.00
197.8430, 21182.00
199.0640, 21937.00
200.2860, 23094.00
201.5070, 24391.00
202.7270, 25202.00
203.9480, 25005.00
205.1690, 23398.00
206.3890, 22373.00
207.6090, 21979.00
208.8290, 22285.00
210.0490, 22535.00
211.2690, 23107.00
212.4890, 23422.00
213.7080, 23934.00
214.9280, 23781.00
216.1470, 23520.00
217.3660, 23413.00
218.5850, 23473.00
219.8030, 23256.00
221.0220, 23258.00
222.2400, 22832.00
223.4590, 22527.00
224.6770, 22341.00
225.8950, 22040.00
227.1120, 21542.00
228.3300, 21221.00
229.5480, 20878.00
230.7650, 20439.80
231.9820, 19992.00
233.1990, 19730.00
234.4160, 19239.00
235.6330, 19079.00
236.8490, 18752.00
238.0660, 18446.00
239.2820, 18466.00
240.4980, 18198.00
241.7140, 18035.00
242.9300, 17871.00
244.1460, 17689.11
245.3610, 17517.00
246.5770, 17399.00
247.7920, 17242.00
249.0070, 17116.00
250.2220, 16951.17
251.4370, 16625.00
252.6510, 16606.00
253.8660, 16510.00
255.0800, 16216.61
256.2940, 16282.99
257.5080, 16292.50
258.7220, 16248.19
259.9360, 15988.87
261.1490, 16007.24
262.3630, 15914.29
263.5760, 15816.84
264.7890, 15874.28
266.0020, 15888.00
267.2150, 15906.00
268.4270, 15714.00
269.6400, 15868.00
270.8520, 15770.00
272.0640, 15781.00
273.2760, 15643.00
274.4880, 15758.00
275.7000, 15743.32
276.9120, 15909.00
278.1230, 15806.00
279.3340, 15800.00
280.5450, 15769.00
281.7560, 15936.00
282.9670, 15826.00
284.1780, 16110.00
285.3880, 16145.00
286.5980, 16355.00
287.8090, 16518.00
289.0190, 16692.00
290.2290, 16702.00
291.4380, 16624.00
292.6480, 16720.00
293.8570, 16575.00
295.0670, 16376.00
296.2760, 16279.00
297.4850, 16033.00
298.6930, 15802.00
299.9020, 15675.00
301.1110, 15353.00
302.3190, 15220.00
303.5270, 15000.00
304.7350, 14939.56
305.9430, 15112.00
307.1510, 14968.00
308.3580, 14999.00
309.5660, 15166.00
310.7730, 15201.00
311.9800, 15071.00
313.1870, 15190.00
314.3940, 15441.00
315.6010, 15465.33
316.8070, 15716.71
318.0130, 15794.00
319.2200, 16145.00
320.4260, 16413.00
321.6310, 16643.00
322.8370, 17017.00
324.0430, 17573.00
325.2480, 17879.00
326.4540, 18080.00
327.6590, 18175.00
328.8640, 18304.88
330.0680, 18369.00
331.2730, 18334.00
332.4780, 18190.00
333.6820, 18051.00
334.8860, 17902.00
336.0900, 17596.00
337.2940, 17381.66
338.4980, 17153.22
339.7010, 16878.00
340.9050, 16652.00
342.1080, 16543.00
343.3110, 16245.00
344.5140, 16275.00
345.7170, 16214.00
346.9200, 16041.00
348.1220, 16040.00
349.3240, 16179.00
350.5270, 15918.00
351.7290, 15877.00
352.9310, 16109.00
354.1320, 16425.00
355.3340, 15723.00
356.5350, 15911.00
357.7370, 15922.00
358.9380, 15793.55
360.1390, 15821.00
361.3400, 15924.00
362.5400, 16103.00
363.7410, 16189.00
364.9410, 16066.00
366.1410, 16094.00
367.3410, 16055.00
368.5410, 16112.00
369.7410, 16139.00
370.9400, 16109.00
372.1400, 16173.00
373.3390, 16053.00
374.5380, 16152.00
375.7370, 16042.00
376.9360, 16015.00
378.1350, 16023.00
379.3330, 15955.00
380.5310, 15865.00
381.7300, 15795.00
382.9280, 15739.00
384.1260, 15741.74
385.3230, 15620.00
386.5210, 15804.00
387.7180, 15762.00
388.9160, 15819.00
390.1130, 15770.00
391.3100, 15726.00
392.5060, 15671.00
393.7030, 15778.00
394.9000, 15559.00
396.0960, 15766.00
397.2920, 15667.00
398.4880, 15602.00
399.6840, 15702.00
400.8800, 15713.00
402.0750, 15644.00
403.2710, 15519.00
404.4660, 16063.00
405.6610, 15669.00
406.8560, 15838.00
408.0510, 15739.00
409.2450, 15695.00
410.4400, 15634.00
411.6340, 15743.53
412.8280, 15876.00
414.0220, 16021.00
415.2160, 15913.00
416.4100, 16021.00
417.6030, 16005.00
418.7970, 15948.00
419.9900, 15938.00
421.1830, 16132.00
422.3760, 16180.00
423.5690, 16149.00
424.7610, 16095.00
425.9540, 16217.00
427.1460, 16278.00
428.3380, 16121.00
429.5300, 16131.00
430.7220, 16115.00
431.9140, 16223.00
433.1050, 16027.00
434.2970, 16188.00
435.4880, 16150.00
436.6790, 16033.00
437.8700, 16132.00
439.0610, 16209.00
440.2510, 16349.00
441.4420, 16218.00
442.6320, 16388.00
443.8220, 16300.00
445.0120, 16511.00
446.2020, 16514.00
447.3910, 16616.63
448.5810, 16800.37
449.7700, 16796.00
450.9600, 17148.00
452.1490, 17164.00
453.3370, 17323.00
454.5260, 17328.00
455.7150, 17515.00
456.9030, 17780.00
458.0910, 17988.00
459.2800, 18247.00
460.4670, 19228.00
461.6550, 18798.00
462.8430, 19579.00
464.0300, 19487.00
465.2180, 19658.00
466.4050, 20119.00
467.5920, 20421.00
468.7790, 20696.00
469.9650, 20866.58
471.1520, 20969.67
472.3380, 20951.00
473.5250, 21013.00
474.7110, 20844.00
475.8970, 20797.00
477.0820, 20615.00
478.2680, 20288.00
479.4540, 20049.67
480.6390, 19940.00
481.8240, 19530.00
483.0090, 19114.00
484.1940, 19209.00
485.3780, 19029.00
486.5630, 18833.00
487.7470, 18535.00
488.9320, 18549.68
490.1160, 18515.00
491.3000, 18573.00
492.4830, 18631.87
493.6670, 18705.66
494.8500, 18836.00
496.0340, 18949.00
497.2170, 19111.00
498.4000, 19300.00
499.5820, 19609.00
500.7650, 19900.00
501.9480, 20258.00
503.1300, 20595.00
504.3120, 21052.00
505.4940, 21556.00
506.6760, 21754.00
507.8580, 22114.00
509.0390, 22235.00
510.2210, 22415.00
511.4020, 22316.00
512.5830, 22104.00
513.7640, 21976.00
514.9450, 21601.59
516.1250, 21239.00
517.3060, 20770.00
518.4860, 20355.00
519.6660, 20040.64
520.8460, 19594.00
522.0260, 19457.00
523.2060, 19240.00
524.3850, 19035.00
525.5650, 18763.00
526.7440, 18504.00
527.9230, 18391.90
529.1020, 18106.00
530.2810, 18221.00
531.4590, 18052.00
532.6380, 18064.00
533.8160, 17964.00
534.9940, 17896.00
536.1720, 17590.00
537.3500, 17597.00
538.5270, 17444.00
539.7050, 17460.00
540.8820, 17444.00
542.0590, 17394.00
543.2360, 17349.00
544.4130, 17388.00
545.5900, 17373.00
546.7660, 17386.00
547.9430, 17522.00
549.1190, 17556.77
550.2950, 17553.08
551.4710, 17658.00
552.6470, 17611.00
553.8220, 17471.00
554.9980, 17690.00
556.1730, 17764.00
557.3480, 18018.00
558.5230, 17952.00
559.6980, 18118.00
560.8730, 18311.00
562.0470, 18564.00
563.2220, 18714.00
564.3960, 18860.00
565.5700, 19136.00
566.7440, 19372.00
567.9170, 19552.00
569.0910, 19771.00
570.2640, 19798.00
571.4380, 19949.06
572.6110, 20240.00
573.7840, 20035.00
574.9570, 20102.00
576.1290, 19966.00
577.3020, 19875.35
578.4740, 19783.00
579.6460, 19645.00
580.8180, 19471.00
581.9900, 19263.00
583.1620, 19171.00
584.3330, 19037.00
585.5040, 19111.00
586.6760, 18908.00
587.8470, 18780.00
589.0180, 18825.00
590.1880, 19092.00
591.3590, 18945.00
592.5290, 19026.01
593.7000, 19187.28
594.8700, 19083.00
596.0400, 19469.00
597.2090, 19747.00
598.3790, 19874.00
599.5490, 20181.00
600.7180, 20360.00
601.8870, 20757.00
603.0560, 21013.00
604.2250, 21683.00
605.3940, 21840.00
606.5620, 22140.00
607.7300, 22723.00
608.8990, 22981.00
610.0670, 23346.00
611.2350, 23679.00
612.4020, 24143.00
613.5700, 24110.00
614.7370, 24380.00
615.9050, 24315.00
617.0720, 24555.00
618.2390, 24344.98
619.4060, 24127.00
620.5720, 23840.00
621.7390, 23629.57
622.9050, 23270.00
624.0710, 22866.00
625.2370, 22682.00
626.4030, 22168.00
627.5690, 21867.00
628.7340, 21364.00
629.9000, 21231.00
631.0650, 20651.00
632.2300, 20601.00
633.3950, 20394.00
634.5600, 20166.62
635.7240, 19987.17
636.8890, 19931.00
638.0530, 19696.00
639.2170, 19627.00
640.3810, 19882.00
641.5450, 19718.00
642.7080, 19581.00
643.8720, 19683.68
645.0350, 19516.75
646.1980, 19749.00
647.3610, 19406.00
648.5240, 19520.00
649.6870, 19556.00
650.8490, 19498.03
652.0120, 19517.61
653.1740, 19630.00
654.3360, 19434.00
655.4980, 19575.00
656.6600, 19555.00
657.8210, 19267.00
658.9830, 19440.00
660.1440, 19440.00
661.3050, 19161.00
662.4660, 19331.00
663.6270, 19346.00
664.7870, 19401.00
665.9480, 19353.00
667.1080, 19407.40
668.2680, 19503.00
669.4280, 19483.00
670.5880, 19511.00
671.7480, 19584.00
672.9070, 19678.10
674.0670, 19850.19
675.2260, 20014.00
676.3850, 20238.00
677.5440, 20554.00
678.7030, 20699.00
679.8610, 20998.00
681.0200, 21282.00
682.1780, 21379.00
683.3360, 21776.00
684.4940, 21849.00
685.6520, 21824.00
686.8090, 22050.00
687.9670, 21929.00
689.1240, 21970.00
690.2810, 21958.00
691.4380, 21683.00
692.5950, 21420.00
693.7520, 21160.91
694.9080, 20859.00
696.0650, 20570.00
697.2210, 20327.03
698.3770, 20145.00
699.5330, 19836.00
700.6880, 19636.00
701.8440, 19392.00
702.9990, 19385.00
704.1550, 19298.00
705.3100, 19147.00
706.4650, 18838.00
707.6190, 18772.00
708.7740, 18737.00
709.9290, 18664.00
711.0830, 18580.00
712.2370, 18286.00
713.3910, 18163.00
714.5450, 18244.00
715.6980, 17935.00
716.8520, 18013.00
718.0050, 17991.00
719.1580, 17715.00
720.3110, 17806.00
721.4640, 17932.00
722.6170, 17721.00
723.7700, 17617.00
724.9220, 17633.00
726.0740, 17379.00
727.2260, 17339.00
728.3780, 17530.00
729.5300, 17345.00
730.6810, 17454.00
731.8330, 17377.00
732.9840, 17298.00
734.1350, 17401.00
735.2860, 17385.00
736.4370, 17366.00
737.5880, 17244.00
738.7380, 17315.00
739.8880, 17164.00
741.0390, 17220.00
742.1890, 17199.00
743.3380, 17184.00
744.4880, 17261.00
745.6380, 17195.00
746.7870, 17176.00
747.9360, 17346.00
749.0850, 17127.00
750.2340, 17202.00
751.3830, 17193.00
752.5310, 17113.00
753.6800, 17170.00
754.8280, 17071.00
755.9760, 17311.00
757.1240, 17192.96
758.2720, 17196.00
759.4190, 17110.00
760.5670, 17275.00
761.7140, 17275.00
762.8610, 17134.00
764.0080, 17287.00
765.1550, 17130.00
766.3020, 17123.00
767.4480, 17226.00
768.5950, 17533.00
769.7410, 17297.00
770.8870, 17517.00
772.0330, 17194.00
773.1780, 17299.00
774.3240, 17764.00
775.4690, 17688.00
776.6140, 17333.00
777.7590, 17155.00
778.9040, 17124.00
780.0490, 17122.00
781.1940, 17159.00
782.3380, 17076.00
783.4820, 16979.00
784.6260, 17089.00
785.7700, 17089.00
786.9140, 17213.00
788.0580, 17207.00
789.2010, 17210.00
790.3450, 17159.00
791.4880, 17199.00
792.6310, 17041.00
793.7730, 17084.00
794.9160, 17271.00
796.0590, 17639.00
797.2010, 17175.00
798.3430, 17302.00
799.4850, 17133.00
800.6270, 17100.00
801.7690, 17265.00
802.9100, 17455.00
804.0520, 17114.00
805.1930, 17277.00
806.3340, 17216.51
807.4750, 17251.00
808.6160, 17275.00
809.7560, 17270.81
810.8970, 17291.00
812.0370, 17314.00
813.1770, 17226.00
814.3170, 17251.00
815.4570, 17277.00
816.5960, 17220.00
817.7360, 17274.00
818.8750, 17310.26
820.0140, 17326.00
821.1530, 17433.00
822.2920, 17400.06
823.4310, 17453.00
824.5690, 17285.00
825.7070, 17357.00
826.8460, 17297.00
827.9840, 17414.00
829.1220, 17299.00
830.2590, 17272.00
831.3970, 17482.00
832.5340, 17335.00
833.6710, 17134.00
834.8080, 17286.00
835.9450, 17429.00
837.0820, 17342.89
838.2190, 17451.25
839.3550, 17374.00
840.4910, 17439.00
841.6270, 17535.00
842.7630, 17440.00
843.8990, 17421.00
845.0350, 17615.00
846.1700, 17544.00
847.3060, 17488.00
848.4410, 17469.00
849.5760, 17555.00
850.7100, 17492.00
851.8450, 17563.00
852.9800, 17455.00
854.1140, 17792.00
855.2480, 17603.00
856.3820, 17807.00
857.5160, 17808.00
858.6500, 17690.00
859.7830, 17714.00
860.9170, 17652.17
862.0500, 17677.00
863.1830, 17615.00
864.3160, 17716.00
865.4480, 17809.00
866.5810, 17974.00
867.7130, 17936.00
868.8460, 17984.08
869.9780, 17920.00
871.1100, 17953.00
872.2410, 17885.00
873.3730, 17875.00
874.5050, 17798.00
875.6360, 17906.00
876.7670, 17809.00
877.8980, 18041.00
879.0290, 17920.00
880.1590, 17916.00
881.2900, 18101.00
882.4200, 18126.63
883.5500, 18108.46
884.6800, 18319.00
885.8100, 18117.00
886.9400, 18004.00
888.0690, 18191.00
889.1990, 18002.00
890.3280, 18119.00
891.4570, 18256.00
892.5860, 18080.00
893.7140, 18228.00
894.8430, 18162.00
895.9710, 18288.00
897.1000, 18429.00
898.2280, 18625.00
899.3560, 18402.00
900.4830, 18136.00
901.6110, 18189.00
902.7380, 18452.00
903.8660, 18352.00
904.9930, 18524.00
906.1200, 18446.00
907.2460, 18468.00
908.3730, 18679.00
909.5000, 18585.00
910.6260, 18696.00
911.7520, 18615.00
912.8780, 18482.00
914.0040, 18373.00
915.1290, 18465.00
916.2550, 18538.00
917.3800, 18650.00
918.5050, 18662.00
919.6300, 18837.00
920.7550, 18885.00
921.8800, 18768.00
923.0040, 19036.00
924.1290, 18901.00
925.2530, 19486.00
926.3770, 19036.00
927.5010, 19084.00
928.6250, 19663.00
929.7480, 19256.00
930.8720, 19152.00
931.9950, 19439.00
933.1180, 19450.00
934.2410, 19655.00
935.3640, 19714.00
936.4860, 19759.00
937.6090, 20100.00
938.7310, 19998.00
939.8530, 20128.00
940.9750, 20119.00
942.0970, 20300.00
943.2180, 20508.00
944.3400, 20671.00
945.4610, 20767.41
946.5820, 20845.89
947.7030, 20921.00
948.8240, 20963.63
949.9450, 20976.00
951.0650, 20998.00
952.1860, 20951.00
953.3060, 20903.00
954.4260, 21150.00
955.5460, 21008.00
956.6650, 21125.00
957.7850, 20868.00
958.9040, 21046.00
960.0230, 21040.00
961.1420, 20821.00
962.2610, 21004.00
963.3800, 20808.00
964.4990, 20605.00
965.6170, 20622.00
966.7350, 20609.00
967.8530, 20448.00
968.9710, 20524.74
970.0890, 20445.10
971.2070, 20579.00
972.3240, 20349.00
973.4410, 20371.00
974.5580, 20253.00
975.6750, 20161.00
976.7920, 20132.00
977.9090, 19927.00
979.0250, 20102.00
980.1410, 19777.00
981.2580, 19903.00
982.3740, 19749.00
983.4890, 19745.00
984.6050, 19857.00
985.7200, 19769.85
986.8360, 19708.00
987.9510, 19747.00
989.0660, 19790.00
990.1810, 19754.00
991.2950, 19818.00
992.4100, 19801.00
993.5240, 19870.00
994.6390, 19732.00
995.7530, 19678.00
996.8660, 19652.00
997.9800, 19613.00
999.0940, 19804.00
1000.207, 19688.00
1001.320, 19753.00
1002.433, 19843.00
1003.546, 19736.00
1004.659, 19798.00
1005.772, 19755.00
1006.884, 19655.00
1007.996, 19812.00
1009.108, 19692.00
1010.220, 19963.00
1011.332, 19815.00
1012.444, 19550.00
1013.555, 19764.00
1014.666, 19749.00
1015.777, 19732.00
1016.888, 19793.00
1017.999, 19848.00
1019.110, 19741.00
1020.220, 19756.00
1021.331, 19726.00
1022.441, 19662.00
1023.551, 19828.00
1024.661, 19856.00
1025.770, 19788.00
1026.880, 19693.00
1027.989, 19855.00
1029.098, 19781.00
1030.207, 19740.00
1031.316, 19861.00
1032.425, 19869.00
1033.533, 19971.00
1034.642, 19900.00
1035.750, 19973.38
1036.858, 19947.41
1037.966, 20020.00
1039.073, 19899.00
1040.181, 19850.00
1041.288, 19825.00
1042.396, 19807.23
1043.503, 19855.02
1044.610, 19911.00
1045.716, 19949.00
1046.823, 20012.25
1047.929, 20112.00
1049.036, 20140.00
1050.142, 20093.00
1051.248, 20163.38
1052.353, 20114.93
1053.459, 20146.84
1054.564, 20076.00
1055.670, 20171.00
1056.775, 20208.00
1057.880, 20178.00
1058.985, 20144.00
1060.089, 20357.00
1061.194, 20332.00
1062.298, 20309.00
1063.402, 20222.00
1064.506, 20278.00
1065.610, 20274.00
1066.713, 20279.66
1067.817, 20525.00
1068.920, 20360.00
1070.023, 20347.00
1071.126, 20450.00
1072.229, 20267.00
1073.332, 20241.00
1074.435, 20404.00
1075.537, 20361.00
1076.639, 20218.00
1077.741, 20469.00
1078.843, 20259.00
1079.945, 20327.00
1081.046, 20312.00
1082.148, 20305.00
1083.249, 20289.00
1084.350, 20312.41
1085.451, 20290.51
1086.551, 20348.00
1087.652, 20303.00
1088.752, 20277.00
1089.853, 20356.00
1090.953, 20672.00
1092.053, 20538.18
1093.152, 20620.00
1094.252, 20502.00
1095.351, 20365.00
1096.451, 20424.00
1097.550, 20406.00
1098.649, 20436.00
1099.748, 20401.00
1100.846, 20298.00
1101.945, 20239.00
1103.043, 20396.00
1104.141, 20470.00
1105.239, 20312.00
1106.337, 20379.00
1107.434, 20236.00
1108.532, 20431.00
1109.629, 20370.00
1110.726, 20388.00
1111.823, 20264.00
1112.920, 20375.00
1114.017, 20360.00
1115.113, 20411.59
1116.210, 20403.00
1117.306, 20547.00
1118.402, 20491.00
1119.498, 20513.00
1120.593, 20590.00
1121.689, 20851.00
1122.784, 20811.00
1123.879, 20698.00
1124.974, 20719.00
1126.069, 20415.00
1127.164, 20475.00
1128.259, 20182.00
1129.353, 20467.00
1130.447, 20146.00
1131.541, 20251.00
1132.635, 20109.00
1133.729, 20064.88
1134.822, 20895.00
1135.916, 20163.00
1137.009, 20409.00
1138.102, 20743.00
1139.195, 20302.00
1140.288, 20191.00
1141.380, 20306.00
1142.473, 20182.00
1143.565, 20158.00
1144.657, 20168.00
1145.749, 20180.00
1146.841, 20209.41
1147.932, 20253.00
1149.024, 20307.00
1150.115, 20250.00
1151.206, 20311.00
1152.297, 20328.00
1153.388, 20224.00
1154.479, 20212.00
1155.569, 20184.29
1156.659, 20167.00
1157.750, 20138.00
1158.839, 20203.00
1159.929, 20192.45
1161.019, 20293.00
1162.108, 20341.00
1163.198, 20346.18
1164.287, 20390.49
1165.376, 20348.00
1166.465, 20335.00
1167.553, 20292.00
1168.642, 20256.74
1169.730, 20231.15
1170.818, 20194.00
1171.906, 20193.00
1172.994, 20199.00
1174.082, 20232.00
1175.170, 20436.00
1176.257, 20300.00
1177.344, 20478.00
1178.431, 20372.00
1179.518, 20266.00
1180.605, 20243.00
1181.691, 20157.00
1182.778, 20173.00
1183.864, 20112.00
1184.950, 20325.00
1186.036, 20337.65
1187.122, 20368.66
1188.207, 20412.00
1189.292, 20475.00
1190.378, 20484.00
1191.463, 20402.00
1192.548, 20522.00
1193.632, 20364.00
1194.717, 20381.00
1195.801, 20236.00
1196.886, 20490.00
1197.970, 20349.00
1199.054, 20414.00
1200.137, 20393.00
1201.221, 20250.00
1202.305, 20246.00
1203.388, 20499.00
1204.471, 20487.00
1205.554, 20586.00
1206.637, 20586.49
1207.719, 20550.00
1208.802, 20460.00
1209.884, 20564.00
1210.966, 20436.00
1212.048, 20451.00
1213.130, 20493.00
1214.212, 20457.00
1215.293, 20623.00
1216.374, 20717.00
1217.456, 20756.00
1218.536, 20810.00
1219.617, 21038.00
1220.698, 20626.00
1221.778, 20345.00
1222.859, 20487.00
1223.939, 20573.00
1225.019, 20800.00
1226.099, 21009.00
1227.178, 20649.00
1228.258, 20652.00
1229.337, 20698.00
1230.417, 20625.00
1231.496, 20651.00
1232.574, 20769.00
1233.653, 20836.00
1234.732, 20646.00
1235.810, 20698.00
1236.888, 20809.00
1237.966, 20728.00
1239.044, 20804.00
1240.122, 20754.00
1241.199, 20834.00
1242.277, 20809.00
1243.354, 20832.00
1244.431, 20901.00
1245.508, 20894.00
1246.585, 20897.00
1247.661, 20603.00
1248.738, 20730.00
1249.814, 20633.00
1250.890, 20460.00
1251.966, 20597.00
1253.042, 20387.00
1254.117, 20376.00
1255.193, 20429.00
1256.268, 20386.00
1257.343, 20634.00
1258.418, 20481.00
1259.493, 20648.00
1260.567, 20558.00
1261.642, 20828.00
1262.716, 20721.00
1263.790, 20887.00
1264.864, 20813.00
1265.938, 20883.00
1267.011, 20739.00
1268.085, 20821.00
1269.158, 20767.00
1270.231, 20839.00
1271.304, 20719.00
1272.377, 20753.72
1273.450, 20781.00
1274.522, 20727.00
1275.594, 20938.00
1276.666, 20881.00
1277.738, 20742.00
1278.810, 20837.00
1279.882, 21064.00
1280.953, 20979.51
1282.025, 21057.55
1283.096, 21042.00
1284.167, 21003.00
1285.238, 21079.00
1286.308, 20994.00
1287.379, 21100.00
1288.449, 21074.00
1289.519, 20974.00
1290.589, 20877.00
1291.659, 21173.00
1292.729, 20764.00
1293.798, 21237.00
1294.868, 21183.00
1295.937, 21104.00
1297.006, 21109.00
1298.075, 21045.68
1299.143, 21119.00
1300.212, 20967.00
1301.280, 21149.00
1302.348, 21125.00
1303.416, 21199.00
1304.484, 21163.00
1305.552, 21359.00
1306.620, 21062.00
1307.687, 21241.49
1308.754, 21227.47
1309.821, 21399.00
1310.888, 21396.00
1311.955, 21496.00
1313.021, 21417.81
1314.088, 21407.00
1315.154, 21262.00
1316.220, 21289.66
1317.286, 21351.00
1318.352, 21316.00
1319.417, 21321.00
1320.483, 21374.43
1321.548, 21500.00
1322.613, 21464.00
1323.678, 21462.64
1324.743, 21599.26
1325.807, 21678.99
1326.872, 21704.91
1327.936, 21515.82
1329.000, 21604.36
1330.064, 21581.64
1331.128, 21554.36
1332.191, 21681.97
1333.255, 21524.15
1334.318, 21649.31
1335.381, 21661.50
1336.444, 21725.40
1337.507, 21677.34
1338.569, 21663.86
1339.632, 21762.37
1340.694, 21798.86
1341.756, 21737.91
1342.818, 21805.09
1343.880, 21643.34
1344.941, 21682.47
1346.003, 21808.28
1347.064, 21752.95
1348.125, 21822.16
1349.186, 21843.95
1350.247, 21650.16
1351.308, 21831.27
1352.368, 21850.24
1353.428, 21491.00
1354.489, 21728.00
1355.549, 21787.00
1356.608, 21776.00
1357.668, 21705.00
1358.727, 21703.00
1359.787, 21727.00
1360.846, 21777.61
1361.905, 21796.44
1362.964, 21835.24
1364.022, 21848.00
1365.081, 21920.00
1366.139, 21902.00
1367.197, 21974.00
1368.255, 21910.00
1369.313, 22080.00
1370.371, 21906.00
1371.428, 22013.55
1372.486, 22212.00
1373.543, 22092.00
1374.600, 22029.00
1375.657, 22011.00
1376.713, 22200.00
1377.770, 22194.00
1378.826, 22134.00
1379.882, 22123.00
1380.938, 22162.00
1381.994, 22367.00
1383.050, 22148.00
1384.106, 22177.00
1385.161, 21999.00
1386.216, 22103.00
1387.271, 22025.00
1388.326, 22110.00
1389.381, 22182.00
1390.435, 22107.70
1391.490, 22248.00
1392.544, 22001.00
1393.598, 22044.00
1394.652, 21962.00
1395.705, 22102.00
1396.759, 22147.00
1397.812, 22081.00
1398.866, 22007.00
1399.919, 22024.20
1400.972, 21902.00
1402.024, 22077.00
1403.077, 22020.00
1404.129, 22208.00
1405.181, 22382.00
1406.233, 22207.00
1407.285, 21997.00
1408.337, 22064.00
1409.389, 22325.00
1410.440, 22094.49
1411.491, 22226.00
1412.542, 21997.00
1413.593, 21952.00
1414.644, 22145.00
1415.695, 22046.00
1416.745, 22093.00
1417.795, 22086.00
1418.845, 22108.00
1419.895, 22126.00
1420.945, 22085.00
1421.995, 22080.00
1423.044, 22175.00
1424.093, 22081.00
1425.142, 22011.00
1426.191, 21855.00
1427.240, 21925.00
1428.289, 22122.00
1429.337, 22091.00
1430.385, 22146.00
1431.433, 21965.00
1432.481, 22460.00
1433.529, 22062.00
1434.577, 22177.00
1435.624, 22131.00
1436.672, 21915.00
1437.719, 22010.00
1438.766, 21976.00
1439.812, 22023.00
1440.859, 22001.00
1441.905, 22040.00
1442.952, 22086.00
1443.998, 22064.75
1445.044, 21986.00
1446.090, 22051.00
1447.135, 21937.00
1448.181, 21917.00
1449.226, 22195.00
1450.271, 22366.00
1451.316, 22389.00
1452.361, 21998.00
1453.405, 22021.00
1454.450, 21949.00
1455.494, 22068.00
1456.538, 21949.00
1457.582, 22245.00
1458.626, 22036.00
1459.670, 21853.00
1460.713, 22087.00
1461.757, 21873.00
1462.800, 21935.00
1463.843, 21858.00
1464.886, 21919.00
1465.928, 22039.00
1466.971, 22147.00
1468.013, 22229.00
1469.055, 22086.00
1470.097, 22006.00
1471.139, 22103.00
1472.181, 22187.00
1473.222, 22129.00
1474.263, 21963.00
1475.305, 22049.00
1476.346, 21969.00
1477.386, 21834.00
1478.427, 22001.00
1479.468, 21935.00
1480.508, 22123.00
1481.548, 21942.00
1482.588, 22125.23
1483.628, 22152.20
1484.668, 22314.00
1485.707, 22260.00
1486.747, 22183.00
1487.786, 22177.00
1488.825, 22192.00
1489.864, 22259.00
1490.902, 21934.94
1491.941, 22067.38
1492.979, 22142.94
1494.017, 22164.69
1495.055, 21971.43
1496.093, 22055.80
1497.131, 22028.91
1498.168, 21997.46
1499.206, 22120.91
1500.243, 21958.92
1501.280, 22225.00
1502.317, 22252.00
1503.354, 22235.00
1504.390, 22228.00
1505.426, 22283.27
1506.463, 22299.00
1507.499, 22336.92
1508.535, 22378.00
1509.570, 22428.00
1510.606, 22466.00
1511.641, 22527.00
1512.676, 22307.00
1513.711, 22607.00
1514.746, 22353.00
1515.781, 22341.00
1516.816, 22406.45
1517.850, 22310.00
1518.884, 22426.00
1519.918, 22419.00
1520.952, 22423.00
1521.986, 22550.00
1523.019, 22417.00
1524.053, 22465.00
1525.086, 22690.00
1526.119, 22443.00
1527.152, 22396.00
1528.185, 22555.00
1529.217, 22427.00
1530.250, 22449.70
1531.282, 22629.00
1532.314, 22349.00
1533.346, 22644.00
1534.377, 22543.00
1535.409, 22765.00
1536.440, 22548.00
1537.472, 22553.00
1538.503, 22546.00
1539.534, 22733.00
1540.564, 22781.00
1541.595, 22604.00
1542.625, 22614.00
1543.656, 22655.41
1544.686, 22953.00
1545.716, 22519.41
1546.745, 22671.24
1547.775, 22766.22
1548.804, 22807.36
1549.834, 22633.51
1550.863, 22737.28
1551.892, 22729.78
1552.920, 22717.70
1553.949, 22860.54
1554.977, 22717.93
1556.006, 22858.31
1557.034, 22885.72
1558.062, 22964.82
1559.089, 22931.95
1560.117, 22933.68
1561.144, 23047.37
1562.172, 23099.08
1563.199, 22972.00
1564.226, 23054.00
1565.252, 22908.00
1566.279, 23063.00
1567.305, 23085.00
1568.332, 23158.00
1569.358, 22908.00
1570.384, 23012.00
##END=



