##NAMES=Braunite
##RRUFFID=R050385
##IDEAL CHEMISTRY=Mn^2+^Mn^3+^_6_SiO_12_
##LOCALITY=Jhabua District, Madhya Pradesh, India
##OWNER=RRUFF
##SOURCE=University of Arizona Mineral Museum
##DESCRIPTION=Black prismatic crystals
##STATUS=The identification of this mineral has been confirmed by X-ray diffraction and chemical analysis
##URL=rruff.info/R050385
##MEASURED CHEMISTRY=(Fe^2+^_0.61_Mn^2+^_0.39_)_Σ=1_(Mn^3+^_5.94_Al_0.06_)_Σ=6_Si_1.00_O_12_
##PIN_ID=M00114
##ORIENTATION=Laser parallel to c* (0 0 1). Fiducial mark perpendicular to laser is parallel to -b [0 -1 0]
178.2820, 8902.000
179.5050, 8953.000
180.7290, 8901.000
181.9520, 8874.000
183.1760, 9337.000
184.3990, 8754.017
185.6220, 9521.000
186.8450, 9579.000
188.0670, 10159.00
189.2900, 10160.89
190.5120, 9893.000
191.7340, 10142.00
192.9560, 10339.00
194.1780, 10517.00
195.4000, 10960.00
196.6220, 11148.00
197.8430, 11790.00
199.0640, 11772.00
200.2860, 12500.00
201.5070, 13171.00
202.7270, 13484.00
203.9480, 12971.00
205.1690, 11932.00
206.3890, 11451.00
207.6090, 11415.00
208.8290, 11637.00
210.0490, 11892.00
211.2690, 12020.00
212.4890, 12102.00
213.7080, 12152.85
214.9280, 12274.00
216.1470, 12000.00
217.3660, 11869.00
218.5850, 11534.00
219.8030, 11375.00
221.0220, 11113.00
222.2400, 10928.00
223.4590, 10727.61
224.6770, 10513.47
225.8950, 10343.00
227.1120, 10129.00
228.3300, 9961.620
229.5480, 9796.000
230.7650, 9563.000
231.9820, 9523.000
233.1990, 9371.000
234.4160, 9263.000
235.6330, 9252.234
236.8490, 9156.000
238.0660, 9218.000
239.2820, 9201.000
240.4980, 9170.000
241.7140, 9134.000
242.9300, 9074.000
244.1460, 8846.000
245.3610, 8863.000
246.5770, 8782.000
247.7920, 8537.000
249.0070, 8461.000
250.2220, 8356.000
251.4370, 8212.722
252.6510, 8209.300
253.8660, 8181.751
255.0800, 8131.463
256.2940, 7990.144
257.5080, 7966.375
258.7220, 7895.497
259.9360, 7822.686
261.1490, 7815.509
262.3630, 7687.429
263.5760, 7679.213
264.7890, 7623.167
266.0020, 7589.011
267.2150, 7398.000
268.4270, 7405.000
269.6400, 7414.000
270.8520, 7367.000
272.0640, 7276.000
273.2760, 7142.000
274.4880, 7324.000
275.7000, 7373.000
276.9120, 7232.000
278.1230, 7237.000
279.3340, 6993.000
280.5450, 6932.000
281.7560, 7004.000
282.9670, 6939.000
284.1780, 6930.201
285.3880, 7037.000
286.5980, 6919.000
287.8090, 6892.000
289.0190, 6971.000
290.2290, 7069.000
291.4380, 6899.000
292.6480, 6899.000
293.8570, 6926.000
295.0670, 6888.000
296.2760, 6905.688
297.4850, 6953.000
298.6930, 6844.000
299.9020, 6925.000
301.1110, 6762.526
302.3190, 6937.000
303.5270, 6904.000
304.7350, 6948.000
305.9430, 6868.000
307.1510, 6886.000
308.3580, 6868.000
309.5660, 7031.000
310.7730, 7020.510
311.9800, 7063.000
313.1870, 7103.000
314.3940, 7169.000
315.6010, 7194.000
316.8070, 7319.000
318.0130, 7360.000
319.2200, 7647.000
320.4260, 7616.000
321.6310, 7791.000
322.8370, 7873.000
324.0430, 8160.000
325.2480, 8164.000
326.4540, 8400.000
327.6590, 8366.000
328.8640, 8289.000
330.0680, 8253.000
331.2730, 8222.000
332.4780, 8241.000
333.6820, 8153.532
334.8860, 7980.000
336.0900, 7972.000
337.2940, 7870.000
338.4980, 7707.000
339.7010, 7668.000
340.9050, 7559.000
342.1080, 7526.000
343.3110, 7445.000
344.5140, 7388.000
345.7170, 7363.000
346.9200, 7428.000
348.1220, 7381.000
349.3240, 7339.000
350.5270, 7382.000
351.7290, 7307.000
352.9310, 7161.000
354.1320, 7138.000
355.3340, 7314.000
356.5350, 7171.000
357.7370, 7249.000
358.9380, 7171.000
360.1390, 7303.000
361.3400, 7175.000
362.5400, 7283.000
363.7410, 7256.000
364.9410, 7280.000
366.1410, 7327.000
367.3410, 7229.000
368.5410, 7273.000
369.7410, 7183.000
370.9400, 7306.000
372.1400, 7251.000
373.3390, 7192.000
374.5380, 7301.000
375.7370, 7150.000
376.9360, 7166.000
378.1350, 7122.000
379.3330, 7196.000
380.5310, 7083.000
381.7300, 7158.000
382.9280, 7213.000
384.1260, 7262.000
385.3230, 7218.822
386.5210, 7165.000
387.7180, 7080.000
388.9160, 7128.000
390.1130, 7047.000
391.3100, 7148.000
392.5060, 7122.000
393.7030, 7152.000
394.9000, 7129.000
396.0960, 7146.000
397.2920, 7177.000
398.4880, 7215.000
399.6840, 7113.000
400.8800, 7136.000
402.0750, 7133.000
403.2710, 7168.000
404.4660, 7250.000
405.6610, 7263.000
406.8560, 7336.000
408.0510, 7317.000
409.2450, 7267.000
410.4400, 7267.000
411.6340, 7286.000
412.8280, 7360.000
414.0220, 7375.000
415.2160, 7338.000
416.4100, 7404.000
417.6030, 7399.000
418.7970, 7423.000
419.9900, 7390.000
421.1830, 7351.000
422.3760, 7388.000
423.5690, 7390.000
424.7610, 7331.000
425.9540, 7260.000
427.1460, 7429.000
428.3380, 7352.000
429.5300, 7225.000
430.7220, 7379.000
431.9140, 7354.000
433.1050, 7350.000
434.2970, 7443.000
435.4880, 7349.000
436.6790, 7325.000
437.8700, 7346.000
439.0610, 7320.000
440.2510, 7233.000
441.4420, 7368.000
442.6320, 7409.000
443.8220, 7287.000
445.0120, 7348.000
446.2020, 7366.000
447.3910, 7395.000
448.5810, 7429.489
449.7700, 7524.000
450.9600, 7498.000
452.1490, 7462.000
453.3370, 7525.000
454.5260, 7478.000
455.7150, 7630.000
456.9030, 7610.000
458.0910, 7711.000
459.2800, 7668.000
460.4670, 7860.000
461.6550, 7807.000
462.8430, 7969.000
464.0300, 7919.000
465.2180, 8072.000
466.4050, 7998.000
467.5920, 8148.000
468.7790, 8192.000
469.9650, 8322.000
471.1520, 8339.599
472.3380, 8250.000
473.5250, 8382.000
474.7110, 8280.858
475.8970, 8337.365
477.0820, 8254.000
478.2680, 8273.000
479.4540, 8294.000
480.6390, 8280.000
481.8240, 8282.899
483.0090, 8162.000
484.1940, 8222.000
485.3780, 8185.000
486.5630, 8072.000
487.7470, 8134.000
488.9320, 8048.000
490.1160, 8163.000
491.3000, 8198.000
492.4830, 8151.000
493.6670, 8279.000
494.8500, 8281.000
496.0340, 8305.000
497.2170, 8375.000
498.4000, 8372.000
499.5820, 8399.000
500.7650, 8596.000
501.9480, 8889.000
503.1300, 8872.000
504.3120, 8997.000
505.4940, 9170.000
506.6760, 9285.000
507.8580, 9189.000
509.0390, 9227.000
510.2210, 9162.000
511.4020, 9158.000
512.5830, 9139.000
513.7640, 9094.000
514.9450, 8917.000
516.1250, 8933.000
517.3060, 8831.000
518.4860, 8660.000
519.6660, 8651.000
520.8460, 8519.000
522.0260, 8558.000
523.2060, 8408.000
524.3850, 8253.000
525.5650, 8199.000
526.7440, 8175.000
527.9230, 8134.000
529.1020, 8161.000
530.2810, 8161.000
531.4590, 8217.000
532.6380, 8238.000
533.8160, 8179.000
534.9940, 8194.000
536.1720, 8255.000
537.3500, 8135.571
538.5270, 8191.796
539.7050, 8223.941
540.8820, 8233.300
542.0590, 8151.626
543.2360, 8187.501
544.4130, 8176.268
545.5900, 8163.103
546.7660, 8233.000
547.9430, 8191.000
549.1190, 8146.000
550.2950, 8242.000
551.4710, 8246.000
552.6470, 8173.000
553.8220, 8279.000
554.9980, 8213.000
556.1730, 8306.000
557.3480, 8347.000
558.5230, 8350.000
559.6980, 8229.000
560.8730, 8554.000
562.0470, 8389.000
563.2220, 8562.000
564.3960, 8492.000
565.5700, 8496.000
566.7440, 8572.000
567.9170, 8538.967
569.0910, 8568.794
570.2640, 8567.000
571.4380, 8630.000
572.6110, 8650.000
573.7840, 8780.000
574.9570, 8546.000
576.1290, 8360.000
577.3020, 8522.000
578.4740, 8461.000
579.6460, 8309.000
580.8180, 8352.000
581.9900, 8274.000
583.1620, 8194.000
584.3330, 8212.000
585.5040, 8302.000
586.6760, 8272.000
587.8470, 8180.000
589.0180, 8142.000
590.1880, 8125.000
591.3590, 8151.000
592.5290, 8166.000
593.7000, 8199.571
594.8700, 8264.994
596.0400, 8293.000
597.2090, 8386.000
598.3790, 8445.000
599.5490, 8442.000
600.7180, 8531.000
601.8870, 8521.000
603.0560, 8731.000
604.2250, 8723.182
605.3940, 8802.963
606.5620, 8784.000
607.7300, 8877.000
608.8990, 8867.000
610.0670, 8817.000
611.2350, 8858.000
612.4020, 8935.000
613.5700, 8890.000
614.7370, 9046.000
615.9050, 9153.000
617.0720, 9016.747
618.2390, 9067.000
619.4060, 8782.000
620.5720, 8852.000
621.7390, 8781.000
622.9050, 8750.000
624.0710, 8713.000
625.2370, 8731.000
626.4030, 8670.000
627.5690, 8510.000
628.7340, 8405.000
629.9000, 8417.000
631.0650, 8434.000
632.2300, 8432.000
633.3950, 8338.000
634.5600, 8452.000
635.7240, 8286.000
636.8890, 8271.000
638.0530, 8212.000
639.2170, 8328.000
640.3810, 8290.000
641.5450, 8260.000
642.7080, 8264.000
643.8720, 8246.000
645.0350, 8262.000
646.1980, 8319.000
647.3610, 8257.000
648.5240, 8407.000
649.6870, 8358.000
650.8490, 8363.000
652.0120, 8341.000
653.1740, 8363.000
654.3360, 8409.000
655.4980, 8437.000
656.6600, 8474.166
657.8210, 8496.000
658.9830, 8556.000
660.1440, 8605.000
661.3050, 8662.000
662.4660, 8746.000
663.6270, 8853.000
664.7870, 8834.000
665.9480, 8937.000
667.1080, 9093.000
668.2680, 9123.000
669.4280, 9397.000
670.5880, 9356.000
671.7480, 9632.000
672.9070, 9766.000
674.0670, 9889.000
675.2260, 10384.00
676.3850, 10604.00
677.5440, 10832.00
678.7030, 11274.00
679.8610, 11467.00
681.0200, 11746.00
682.1780, 12000.00
683.3360, 12326.00
684.4940, 12398.00
685.6520, 12561.00
686.8090, 12626.00
687.9670, 12541.00
689.1240, 12588.00
690.2810, 12415.00
691.4380, 12316.00
692.5950, 12066.21
693.7520, 11825.00
694.9080, 11454.00
696.0650, 11100.00
697.2210, 10787.00
698.3770, 10473.00
699.5330, 10260.00
700.6880, 10142.00
701.8440, 9792.000
702.9990, 9667.000
704.1550, 9521.000
705.3100, 9319.000
706.4650, 9225.000
707.6190, 9131.000
708.7740, 8987.000
709.9290, 8785.000
711.0830, 8694.490
712.2370, 8755.000
713.3910, 8448.000
714.5450, 8565.000
715.6980, 8456.000
716.8520, 8368.000
718.0050, 8398.000
719.1580, 8375.000
720.3110, 8305.683
721.4640, 8270.792
722.6170, 8219.000
723.7700, 8130.000
724.9220, 8165.000
726.0740, 8107.000
727.2260, 8157.000
728.3780, 8129.000
729.5300, 8089.706
730.6810, 8040.123
731.8330, 8057.000
732.9840, 7922.000
734.1350, 8014.000
735.2860, 8070.000
736.4370, 8081.000
737.5880, 8086.954
738.7380, 8113.000
739.8880, 8018.283
741.0390, 7990.000
742.1890, 7933.000
743.3380, 7879.074
744.4880, 7855.000
745.6380, 7808.825
746.7870, 7861.180
747.9360, 7889.455
749.0850, 7894.944
750.2340, 7809.401
751.3830, 7841.408
752.5310, 7826.308
753.6800, 7809.274
754.8280, 7857.827
755.9760, 7785.527
757.1240, 7833.040
758.2720, 7832.726
759.4190, 7854.303
760.5670, 7828.479
761.7140, 7817.297
762.8610, 7853.529
764.0080, 7863.508
765.1550, 7832.230
766.3020, 7850.000
767.4480, 7886.000
768.5950, 7782.000
769.7410, 7854.000
770.8870, 7802.000
772.0330, 7887.000
773.1780, 7727.000
774.3240, 7798.000
775.4690, 7736.000
776.6140, 7807.000
777.7590, 7891.000
778.9040, 7746.000
780.0490, 7846.000
781.1940, 7885.000
782.3380, 7785.000
783.4820, 7892.000
784.6260, 7743.000
785.7700, 7777.000
786.9140, 7774.000
788.0580, 7717.000
789.2010, 7829.000
790.3450, 7837.000
791.4880, 7717.000
792.6310, 7866.000
793.7730, 7797.000
794.9160, 7698.000
796.0590, 7718.000
797.2010, 7880.000
798.3430, 7845.000
799.4850, 7789.000
800.6270, 7767.000
801.7690, 7733.000
802.9100, 7726.000
804.0520, 7872.000
805.1930, 7803.701
806.3340, 7885.000
807.4750, 7749.000
808.6160, 7819.000
809.7560, 7726.000
810.8970, 7696.000
812.0370, 7835.000
813.1770, 7854.000
814.3170, 7791.000
815.4570, 7726.000
816.5960, 7745.000
817.7360, 7712.000
818.8750, 7736.000
820.0140, 7779.759
821.1530, 7763.016
822.2920, 7802.728
823.4310, 7766.000
824.5690, 7830.000
825.7070, 7824.000
826.8460, 7793.339
827.9840, 7812.000
829.1220, 7773.000
830.2590, 7844.000
831.3970, 7803.000
832.5340, 7915.000
833.6710, 7920.000
834.8080, 7830.000
835.9450, 7839.000
837.0820, 7871.000
838.2190, 7781.000
839.3550, 7858.000
840.4910, 7921.000
841.6270, 7758.000
842.7630, 7822.000
843.8990, 7945.000
845.0350, 7797.000
846.1700, 7907.000
847.3060, 7823.000
848.4410, 7841.000
849.5760, 7823.000
850.7100, 7814.701
851.8450, 7852.000
852.9800, 7831.000
854.1140, 7896.000
855.2480, 7905.000
856.3820, 7913.000
857.5160, 7958.000
858.6500, 7915.000
859.7830, 7939.245
860.9170, 7877.000
862.0500, 7963.000
863.1830, 7955.000
864.3160, 8011.000
865.4480, 7987.823
866.5810, 7982.000
867.7130, 7933.000
868.8460, 7907.000
869.9780, 7903.000
871.1100, 7922.346
872.2410, 7881.000
873.3730, 7992.000
874.5050, 8023.000
875.6360, 8031.000
876.7670, 8040.000
877.8980, 8055.000
879.0290, 8047.133
880.1590, 8008.000
881.2900, 8029.000
882.4200, 7998.000
883.5500, 7980.000
884.6800, 7985.000
885.8100, 8025.000
886.9400, 8067.000
888.0690, 7931.000
889.1990, 8164.000
890.3280, 8083.000
891.4570, 8027.000
892.5860, 8139.000
893.7140, 8159.000
894.8430, 8123.000
895.9710, 8151.000
897.1000, 8174.000
898.2280, 8191.000
899.3560, 8167.000
900.4830, 8189.000
901.6110, 8174.000
902.7380, 8190.000
903.8660, 8300.000
904.9930, 8160.000
906.1200, 8261.000
907.2460, 8210.000
908.3730, 8168.000
909.5000, 8226.000
910.6260, 8246.000
911.7520, 8313.000
912.8780, 8415.000
914.0040, 8421.000
915.1290, 8316.000
916.2550, 8366.000
917.3800, 8278.000
918.5050, 8294.000
919.6300, 8397.000
920.7550, 8367.000
921.8800, 8413.000
923.0040, 8415.000
924.1290, 8428.000
925.2530, 8417.000
926.3770, 8422.393
927.5010, 8525.285
928.6250, 8604.101
929.7480, 8660.086
930.8720, 8625.083
931.9950, 8707.585
933.1180, 8742.978
934.2410, 8776.441
935.3640, 8875.487
936.4860, 8853.639
937.6090, 8951.644
938.7310, 9001.780
939.8530, 9099.000
940.9750, 9223.000
942.0970, 9293.000
943.2180, 9242.000
944.3400, 9358.000
945.4610, 9429.648
946.5820, 9483.885
947.7030, 9697.000
948.8240, 9641.000
949.9450, 9868.000
951.0650, 9928.000
952.1860, 10119.00
953.3060, 10088.00
954.4260, 10134.00
955.5460, 10357.00
956.6650, 10243.00
957.7850, 10560.00
958.9040, 10429.00
960.0230, 10303.00
961.1420, 10126.00
962.2610, 10129.00
963.3800, 10005.00
964.4990, 9813.000
965.6170, 9781.958
966.7350, 9646.422
967.8530, 9620.000
968.9710, 9488.000
970.0890, 9428.000
971.2070, 9404.000
972.3240, 9327.000
973.4410, 9326.000
974.5580, 9283.000
975.6750, 9233.000
976.7920, 9122.000
977.9090, 9008.000
979.0250, 9021.000
980.1410, 9245.000
981.2580, 8967.000
982.3740, 9092.000
983.4890, 8972.000
984.6050, 8991.000
985.7200, 9004.000
986.8360, 8887.000
987.9510, 8988.000
989.0660, 8978.000
990.1810, 8969.000
991.2950, 8871.000
992.4100, 8953.000
993.5240, 8905.000
994.6390, 8918.000
995.7530, 9001.000
996.8660, 8962.000
997.9800, 9007.000
999.0940, 8948.000
1000.207, 8879.000
1001.320, 9000.000
1002.433, 8907.000
1003.546, 9061.000
1004.659, 8902.000
1005.772, 8831.000
1006.884, 8807.000
1007.996, 8897.000
1009.108, 8997.000
1010.220, 8779.000
1011.332, 8985.000
1012.444, 8912.000
1013.555, 8866.000
1014.666, 8871.000
1015.777, 8876.000
1016.888, 8915.000
1017.999, 8916.000
1019.110, 8862.000
1020.220, 8814.000
1021.331, 8931.000
1022.441, 8834.000
1023.551, 8938.000
1024.661, 8888.000
1025.770, 9005.000
1026.880, 8796.000
1027.989, 8952.000
1029.098, 8807.000
1030.207, 8892.000
1031.316, 8929.000
1032.425, 8907.000
1033.533, 8823.000
1034.642, 8869.021
1035.750, 8896.000
1036.858, 8895.000
1037.966, 8953.000
1039.073, 8974.000
1040.181, 8938.000
1041.288, 8960.000
1042.396, 8998.000
1043.503, 8960.000
1044.610, 8906.000
1045.716, 8997.000
1046.823, 8949.000
1047.929, 9112.000
1049.036, 8951.000
1050.142, 9104.000
1051.248, 9154.000
1052.353, 8923.000
1053.459, 9022.000
1054.564, 9068.000
1055.670, 8997.000
1056.775, 9119.000
1057.880, 8969.000
1058.985, 9055.000
1060.089, 9064.000
1061.194, 9029.000
1062.298, 9196.000
1063.402, 9070.000
1064.506, 9155.000
1065.610, 9042.000
1066.713, 9099.000
1067.817, 9216.000
1068.920, 9102.000
1070.023, 9053.000
1071.126, 9053.000
1072.229, 9098.000
1073.332, 9129.000
1074.435, 9134.255
1075.537, 9159.206
1076.639, 9133.000
1077.741, 9159.000
1078.843, 9114.000
1079.945, 9066.000
1081.046, 9059.000
1082.148, 9107.000
1083.249, 8912.000
1084.350, 9088.000
1085.451, 9063.000
1086.551, 9040.000
1087.652, 9168.000
1088.752, 9063.000
1089.853, 9001.000
1090.953, 9105.000
1092.053, 9056.000
1093.152, 9114.000
1094.252, 8966.000
1095.351, 9060.000
1096.451, 9103.000
1097.550, 9021.000
1098.649, 9038.000
1099.748, 8979.000
1100.846, 8959.000
1101.945, 8948.000
1103.043, 8956.000
1104.141, 9099.000
1105.239, 9068.000
1106.337, 9041.000
1107.434, 8975.000
1108.532, 8924.000
1109.629, 8989.000
1110.726, 8997.000
1111.823, 9029.000
1112.920, 8941.000
1114.017, 8877.000
1115.113, 9124.000
1116.210, 9068.000
1117.306, 9186.000
1118.402, 9365.000
1119.498, 9465.000
1120.593, 9525.000
1121.689, 9574.000
1122.784, 9636.000
1123.879, 9446.000
1124.974, 9361.000
1126.069, 9291.000
1127.164, 9166.000
1128.259, 9134.000
1129.353, 8998.000
1130.447, 8962.000
1131.541, 8967.000
1132.635, 8814.000
1133.729, 8925.000
1134.822, 8861.000
1135.916, 8962.000
1137.009, 8927.000
1138.102, 8790.000
1139.195, 8823.275
1140.288, 8882.000
1141.380, 8769.000
1142.473, 8680.100
1143.565, 8735.094
1144.657, 8766.008
1145.749, 8774.137
1146.841, 8691.233
1147.932, 8725.879
1149.024, 8713.416
1150.115, 8699.022
1151.206, 8750.212
1152.297, 8680.549
1153.388, 8730.699
1154.479, 8733.022
1155.569, 8757.234
1156.659, 8734.048
1157.750, 8725.501
1158.839, 8764.368
1159.929, 8776.982
1161.019, 8748.339
1162.108, 8773.943
1163.198, 8702.624
1164.287, 8716.356
1165.376, 8766.784
1166.465, 8740.524
1167.553, 8675.000
1168.642, 8738.000
1169.730, 8714.000
1170.818, 8670.000
1171.906, 8829.000
1172.994, 8718.000
1174.082, 8727.000
1175.170, 8681.000
1176.257, 8638.000
1177.344, 8637.004
1178.431, 8813.000
1179.518, 8590.000
1180.605, 8809.000
1181.691, 8758.000
1182.778, 8733.000
1183.864, 8713.000
1184.950, 8759.000
1186.036, 8700.000
1187.122, 8842.000
1188.207, 8727.000
1189.292, 8768.000
1190.378, 8728.000
1191.463, 8773.000
1192.548, 8736.000
1193.632, 8809.000
1194.717, 8628.000
1195.801, 8735.000
1196.886, 8696.000
1197.970, 8794.000
1199.054, 8771.000
1200.137, 8708.000
1201.221, 8889.000
1202.305, 8722.000
1203.388, 8702.000
1204.471, 8774.000
1205.554, 8753.000
1206.637, 8750.000
1207.719, 8665.000
1208.802, 8743.000
1209.884, 8802.000
1210.966, 8744.909
1212.048, 8768.000
1213.130, 8741.000
1214.212, 8752.000
1215.293, 8860.000
1216.374, 8689.000
1217.456, 8804.000
1218.536, 8941.000
1219.617, 8755.000
1220.698, 8640.000
1221.778, 8794.000
1222.859, 8715.000
1223.939, 8863.000
1225.019, 8745.000
1226.099, 8851.000
1227.178, 8867.000
1228.258, 8766.000
1229.337, 8800.000
1230.417, 8741.000
1231.496, 8879.000
1232.574, 8872.000
1233.653, 8848.000
1234.732, 8713.000
1235.810, 8945.000
1236.888, 8879.000
1237.966, 8931.000
1239.044, 8943.428
1240.122, 8986.000
1241.199, 8918.000
1242.277, 8713.000
1243.354, 8774.000
1244.431, 8786.000
1245.508, 8679.000
1246.585, 8764.000
1247.661, 8837.000
1248.738, 8764.955
1249.814, 8945.000
1250.890, 8772.000
1251.966, 8607.000
1253.042, 8753.000
1254.117, 8700.000
1255.193, 8654.000
1256.268, 8651.000
1257.343, 8666.000
1258.418, 8696.000
1259.493, 8630.000
1260.567, 8748.000
1261.642, 8746.604
1262.716, 8854.000
1263.790, 8718.000
1264.864, 8788.396
1265.938, 8928.000
1267.011, 8782.000
1268.085, 8852.000
1269.158, 8789.000
1270.231, 8721.000
1271.304, 8713.000
1272.377, 8732.000
1273.450, 8760.000
1274.522, 8705.000
1275.594, 8776.000
1276.666, 8810.000
1277.738, 8769.000
1278.810, 8746.000
1279.882, 8873.000
1280.953, 8892.000
1282.025, 8956.000
1283.096, 8766.000
1284.167, 8846.945
1285.238, 8826.583
1286.308, 8932.000
1287.379, 8781.000
1288.449, 8975.000
1289.519, 8798.000
1290.589, 8823.000
1291.659, 8887.000
1292.729, 8809.000
1293.798, 8860.000
1294.868, 8971.000
1295.937, 8832.000
1297.006, 8852.000
1298.075, 8794.000
1299.143, 8884.000
1300.212, 8804.000
1301.280, 8918.000
1302.348, 8898.000
1303.416, 8950.000
1304.484, 8935.000
1305.552, 8886.000
1306.620, 8799.000
1307.687, 8890.000
1308.754, 8877.000
1309.821, 8872.000
1310.888, 8916.000
1311.955, 8938.829
1313.021, 8897.000
1314.088, 9041.000
1315.154, 8991.037
1316.220, 9050.760
1317.286, 9024.000
1318.352, 9032.000
1319.417, 8996.000
1320.483, 9047.000
1321.548, 9037.000
1322.613, 8925.000
1323.678, 8983.000
1324.743, 9013.000
1325.807, 9066.000
1326.872, 8992.000
1327.936, 8988.000
1329.000, 8927.000
1330.064, 8938.461
1331.128, 8950.065
1332.191, 8982.000
1333.255, 8963.000
1334.318, 9008.000
1335.381, 8921.000
1336.444, 9013.000
1337.507, 9061.000
1338.569, 9042.000
1339.632, 8969.000
1340.694, 9094.000
1341.756, 9049.000
1342.818, 8987.000
1343.880, 9151.000
1344.941, 8967.000
1346.003, 9044.000
1347.064, 9017.000
1348.125, 9041.000
1349.186, 9027.000
1350.247, 9020.951
1351.308, 8993.000
1352.368, 9047.000
1353.428, 8905.000
1354.489, 8992.000
1355.549, 8949.000
1356.608, 9127.000
1357.668, 9035.000
1358.727, 9001.000
1359.787, 9118.000
1360.846, 8985.000
1361.905, 9035.000
1362.964, 9168.000
1364.022, 9059.000
1365.081, 9022.000
1366.139, 9144.000
1367.197, 9034.000
1368.255, 9237.000
1369.313, 9101.000
1370.371, 9179.000
1371.428, 9170.456
1372.486, 9189.000
1373.543, 9104.000
1374.600, 9140.000
1375.657, 9082.000
1376.713, 9049.000
1377.770, 9001.000
1378.826, 9016.000
1379.882, 8965.000
1380.938, 9077.000
1381.994, 9138.000
1383.050, 9103.000
1384.106, 9165.000
1385.161, 9114.000
1386.216, 9122.000
1387.271, 9033.000
1388.326, 9153.000
1389.381, 9026.000
1390.435, 9121.000
1391.490, 8966.000
1392.544, 9062.000
1393.598, 9062.000
1394.652, 9022.000
1395.705, 9000.000
1396.759, 9002.000
1397.812, 8947.000
1398.866, 9101.000
1399.919, 9075.000
1400.972, 9083.000
1402.024, 9049.000
1403.077, 8921.000
1404.129, 8994.000
1405.181, 8914.000
1406.233, 9013.000
1407.285, 9012.000
1408.337, 9013.000
1409.389, 9063.631
1410.440, 9001.000
1411.491, 9097.000
1412.542, 9040.000
1413.593, 9016.000
1414.644, 9018.000
1415.695, 9000.000
1416.745, 9002.000
1417.795, 8937.000
1418.845, 9161.000
1419.895, 9149.000
1420.945, 9100.000
1421.995, 9000.000
1423.044, 9015.100
1424.093, 9033.000
1425.142, 8984.000
1426.191, 9070.000
1427.240, 9030.000
1428.289, 9011.000
1429.337, 8877.000
1430.385, 8970.000
1431.433, 8971.000
1432.481, 8879.000
1433.529, 8892.000
1434.577, 8894.000
1435.624, 9022.000
1436.672, 8995.000
1437.719, 9032.456
1438.766, 9018.000
1439.812, 9045.000
1440.859, 8978.000
1441.905, 8959.000
1442.952, 9029.000
1443.998, 8963.000
1445.044, 8964.000
1446.090, 9040.000
1447.135, 8911.000
1448.181, 9111.000
1449.226, 8946.000
1450.271, 9026.000
1451.316, 9016.000
1452.361, 9009.000
1453.405, 9010.000
1454.450, 9048.000
1455.494, 8967.000
1456.538, 9039.000
1457.582, 9035.000
1458.626, 9035.000
1459.670, 8890.000
1460.713, 9037.000
1461.757, 8973.000
1462.800, 8868.000
1463.843, 8949.000
1464.886, 8925.399
1465.928, 8890.530
1466.971, 8955.155
1468.013, 8995.692
1469.055, 9013.443
1470.097, 8940.162
1471.139, 8984.430
1472.181, 8981.589
1473.222, 8976.808
1474.263, 9037.609
1475.305, 8977.569
1476.346, 9037.331
1477.386, 9049.258
1478.427, 9083.083
1479.468, 9069.509
1480.508, 9070.565
1481.548, 9119.036
1482.588, 9141.254
1483.628, 9122.214
1484.668, 9157.421
1485.707, 9095.696
1486.747, 9119.031
1487.786, 9179.054
1488.825, 9162.388
1489.864, 9198.452
1490.902, 9214.425
1491.941, 9116.000
1492.979, 9086.000
1494.017, 9069.000
1495.055, 9012.000
1496.093, 9161.000
1497.131, 9080.020
1498.168, 9170.000
1499.206, 9037.000
1500.243, 9042.000
1501.280, 9021.000
1502.317, 9121.000
1503.354, 9100.000
1504.390, 9045.000
1505.426, 9129.000
1506.463, 9133.000
1507.499, 9161.000
1508.535, 9011.000
1509.570, 9123.000
1510.606, 9038.000
1511.641, 9106.000
1512.676, 9141.000
1513.711, 9133.000
1514.746, 9161.961
1515.781, 9183.027
1516.816, 9160.000
1517.850, 9217.000
1518.884, 9211.000
1519.918, 9195.000
1520.952, 9108.000
1521.986, 9123.000
1523.019, 9055.000
1524.053, 9090.000
1525.086, 9161.000
1526.119, 9161.841
1527.152, 9232.000
1528.185, 9255.000
1529.217, 9253.067
1530.250, 9291.574
1531.282, 9240.000
1532.314, 9274.000
1533.346, 9265.926
1534.377, 9151.000
1535.409, 9210.000
1536.440, 9214.000
1537.472, 9166.000
1538.503, 9178.000
1539.534, 9148.340
1540.564, 9210.299
1541.595, 9248.185
1542.625, 9263.279
1543.656, 9187.348
1544.686, 9228.959
1545.716, 9223.461
1546.745, 9216.024
1547.775, 9274.181
1548.804, 9211.476
1549.834, 9268.591
1550.863, 9277.872
1551.892, 9309.043
1552.920, 9292.808
1553.949, 9291.219
1554.977, 9337.038
1556.006, 9356.610
1557.034, 9334.919
1558.062, 9367.474
1559.089, 9303.100
1560.117, 9323.783
1561.144, 9381.156
1562.172, 9361.847
1563.199, 9395.262
1564.226, 9350.000
1565.252, 9379.886
1566.279, 9294.000
1567.305, 9345.000
1568.332, 9361.000
1569.358, 9353.000
1570.384, 9426.000
##END=



