##NAMES=Braunite
##RRUFFID=R050385
##IDEAL CHEMISTRY=Mn^2+^Mn^3+^_6_SiO_12_
##LOCALITY=Jhabua District, Madhya Pradesh, India
##OWNER=RRUFF
##SOURCE=University of Arizona Mineral Museum
##DESCRIPTION=Black prismatic crystals
##STATUS=The identification of this mineral has been confirmed by X-ray diffraction and chemical analysis
##URL=rruff.info/R050385
##MEASURED CHEMISTRY=(Fe^2+^_0.61_Mn^2+^_0.39_)_Σ=1_(Mn^3+^_5.94_Al_0.06_)_Σ=6_Si_1.00_O_12_
##PIN_ID=L01451
##ORIENTATION=Laser parallel to a* (1 0 0). Fiducial mark perpendicular to laser is parallel to c [0 0 1]
178.2820, 11733.00
179.5050, 11574.00
180.7290, 11536.00
181.9520, 11554.00
183.1760, 11523.00
184.3990, 11953.00
185.6220, 12119.00
186.8450, 12555.00
188.0670, 12494.11
189.2900, 12557.00
190.5120, 12391.00
191.7340, 12747.00
192.9560, 12844.00
194.1780, 13144.00
195.4000, 13562.00
196.6220, 13679.00
197.8430, 13819.00
199.0640, 14181.00
200.2860, 15406.00
201.5070, 15624.00
202.7270, 16185.00
203.9480, 15283.00
205.1690, 13910.00
206.3890, 12484.00
207.6090, 11883.00
208.8290, 11994.00
210.0490, 12224.00
211.2690, 12637.00
212.4890, 12910.00
213.7080, 13145.88
214.9280, 13354.86
216.1470, 13570.00
217.3660, 13691.66
218.5850, 13771.00
219.8030, 13868.00
221.0220, 13871.55
222.2400, 13883.76
223.4590, 13824.00
224.6770, 13766.00
225.8950, 13641.00
227.1120, 13544.00
228.3300, 13444.00
229.5480, 13167.00
230.7650, 12990.00
231.9820, 12814.52
233.1990, 12571.00
234.4160, 12388.00
235.6330, 12203.85
236.8490, 12021.00
238.0660, 11867.00
239.2820, 11632.00
240.4980, 11495.00
241.7140, 11296.00
242.9300, 11269.00
244.1460, 11113.00
245.3610, 11149.00
246.5770, 11021.51
247.7920, 10926.99
249.0070, 10816.00
250.2220, 10796.00
251.4370, 10431.12
252.6510, 10694.38
253.8660, 10827.82
255.0800, 10838.47
256.2940, 10358.44
257.5080, 10512.01
258.7220, 10411.67
259.9360, 10300.91
261.1490, 10543.70
262.3630, 10135.03
263.5760, 10372.21
264.7890, 10351.59
266.0020, 10636.00
267.2150, 10393.00
268.4270, 10545.00
269.6400, 10313.00
270.8520, 10497.00
272.0640, 10532.00
273.2760, 10532.00
274.4880, 10526.00
275.7000, 10749.00
276.9120, 10670.00
278.1230, 10719.00
279.3340, 10503.00
280.5450, 10496.80
281.7560, 10285.00
282.9670, 10366.00
284.1780, 10319.00
285.3880, 10269.00
286.5980, 10353.00
287.8090, 10339.00
289.0190, 10377.00
290.2290, 10455.00
291.4380, 10652.00
292.6480, 10699.00
293.8570, 10784.00
295.0670, 10772.00
296.2760, 10718.00
297.4850, 10584.00
298.6930, 10526.00
299.9020, 10312.00
301.1110, 10197.00
302.3190, 10131.00
303.5270, 9980.000
304.7350, 10062.00
305.9430, 9929.000
307.1510, 9836.000
308.3580, 9865.000
309.5660, 10015.00
310.7730, 10050.00
311.9800, 10082.00
313.1870, 10094.98
314.3940, 10181.67
315.6010, 10304.21
316.8070, 10366.00
318.0130, 10601.00
319.2200, 10734.00
320.4260, 10842.00
321.6310, 11152.00
322.8370, 11317.00
324.0430, 11665.00
325.2480, 11983.00
326.4540, 12572.00
327.6590, 13059.00
328.8640, 13628.00
330.0680, 14056.00
331.2730, 14459.00
332.4780, 14639.00
333.6820, 14640.00
334.8860, 14565.00
336.0900, 14303.00
337.2940, 13884.00
338.4980, 13595.00
339.7010, 13130.00
340.9050, 12896.00
342.1080, 12745.00
343.3110, 12377.00
344.5140, 11971.00
345.7170, 11919.00
346.9200, 11671.00
348.1220, 11575.00
349.3240, 11444.00
350.5270, 11333.00
351.7290, 11183.00
352.9310, 11033.00
354.1320, 10968.00
355.3340, 10964.74
356.5350, 10995.85
357.7370, 11005.00
358.9380, 11134.00
360.1390, 11047.00
361.3400, 10992.00
362.5400, 11130.00
363.7410, 11141.00
364.9410, 11153.87
366.1410, 11183.13
367.3410, 11165.00
368.5410, 11217.00
369.7410, 11188.00
370.9400, 11319.00
372.1400, 11246.00
373.3390, 11212.00
374.5380, 11234.00
375.7370, 11080.00
376.9360, 11062.00
378.1350, 11161.00
379.3330, 10936.00
380.5310, 10973.00
381.7300, 10691.00
382.9280, 10736.00
384.1260, 10724.00
385.3230, 10680.00
386.5210, 10664.00
387.7180, 10620.40
388.9160, 10614.00
390.1130, 10597.79
391.3100, 10596.00
392.5060, 10585.00
393.7030, 10563.00
394.9000, 10563.00
396.0960, 10474.00
397.2920, 10455.00
398.4880, 10509.00
399.6840, 10324.00
400.8800, 10537.00
402.0750, 10379.00
403.2710, 10384.00
404.4660, 10520.00
405.6610, 10575.00
406.8560, 10442.00
408.0510, 10514.00
409.2450, 10570.00
410.4400, 10429.00
411.6340, 10585.00
412.8280, 10637.00
414.0220, 10730.00
415.2160, 10696.00
416.4100, 10786.00
417.6030, 10854.00
418.7970, 11015.00
419.9900, 10949.00
421.1830, 11049.00
422.3760, 10993.00
423.5690, 11097.00
424.7610, 11213.00
425.9540, 11010.00
427.1460, 11162.00
428.3380, 10989.00
429.5300, 11001.00
430.7220, 11058.00
431.9140, 11020.00
433.1050, 10923.00
434.2970, 11089.00
435.4880, 11029.94
436.6790, 10873.00
437.8700, 11057.00
439.0610, 10983.00
440.2510, 10946.00
441.4420, 11045.00
442.6320, 11043.00
443.8220, 11135.00
445.0120, 11180.00
446.2020, 11427.00
447.3910, 11422.62
448.5810, 11557.94
449.7700, 11588.00
450.9600, 11680.00
452.1490, 11913.00
453.3370, 11838.00
454.5260, 12170.00
455.7150, 12454.00
456.9030, 12540.00
458.0910, 12633.00
459.2800, 13034.00
460.4670, 13372.00
461.6550, 13825.00
462.8430, 14267.30
464.0300, 14814.00
465.2180, 15305.00
466.4050, 15879.00
467.5920, 16585.00
468.7790, 17054.00
469.9650, 17837.00
471.1520, 18325.54
472.3380, 18993.00
473.5250, 19247.00
474.7110, 19471.00
475.8970, 19617.00
477.0820, 19502.00
478.2680, 19155.00
479.4540, 19054.00
480.6390, 18001.00
481.8240, 17513.00
483.0090, 16875.00
484.1940, 16293.00
485.3780, 15906.00
486.5630, 15601.00
487.7470, 15035.00
488.9320, 14845.00
490.1160, 14598.00
491.3000, 14371.00
492.4830, 14286.00
493.6670, 14242.03
494.8500, 14219.80
496.0340, 14389.00
497.2170, 14289.00
498.4000, 14501.00
499.5820, 14491.00
500.7650, 14944.00
501.9480, 15347.00
503.1300, 15526.00
504.3120, 16072.00
505.4940, 16586.00
506.6760, 17135.00
507.8580, 17727.00
509.0390, 18275.00
510.2210, 18833.00
511.4020, 19200.00
512.5830, 19170.68
513.7640, 19254.00
514.9450, 18765.00
516.1250, 18182.00
517.3060, 17808.00
518.4860, 17150.00
519.6660, 16410.00
520.8460, 15737.00
522.0260, 15193.00
523.2060, 14813.00
524.3850, 14674.00
525.5650, 13819.00
526.7440, 13652.62
527.9230, 13828.00
529.1020, 13001.00
530.2810, 12743.00
531.4590, 12548.00
532.6380, 12450.00
533.8160, 12144.00
534.9940, 12069.00
536.1720, 12019.00
537.3500, 11758.00
538.5270, 11717.00
539.7050, 11719.00
540.8820, 11440.00
542.0590, 11391.00
543.2360, 11620.00
544.4130, 11338.00
545.5900, 11496.00
546.7660, 11417.00
547.9430, 11366.00
549.1190, 11390.00
550.2950, 11540.00
551.4710, 11570.00
552.6470, 11511.00
553.8220, 11433.00
554.9980, 11484.00
556.1730, 11595.00
557.3480, 11631.00
558.5230, 11792.00
559.6980, 11841.95
560.8730, 11804.00
562.0470, 11982.00
563.2220, 12015.00
564.3960, 12069.00
565.5700, 12470.00
566.7440, 12518.00
567.9170, 12589.00
569.0910, 12688.00
570.2640, 12783.00
571.4380, 13005.00
572.6110, 13192.00
573.7840, 13279.00
574.9570, 13250.00
576.1290, 13307.00
577.3020, 13199.00
578.4740, 13291.00
579.6460, 13152.00
580.8180, 13224.00
581.9900, 13071.00
583.1620, 12999.00
584.3330, 12916.00
585.5040, 12869.00
586.6760, 12710.00
587.8470, 12743.00
589.0180, 12796.00
590.1880, 12780.00
591.3590, 12888.73
592.5290, 12977.00
593.7000, 13101.00
594.8700, 13264.14
596.0400, 13415.37
597.2090, 13607.00
598.3790, 13916.00
599.5490, 14147.00
600.7180, 14539.00
601.8870, 14741.00
603.0560, 15220.00
604.2250, 15595.84
605.3940, 16277.00
606.5620, 16534.00
607.7300, 17085.00
608.8990, 17701.00
610.0670, 18042.00
611.2350, 18313.00
612.4020, 18594.00
613.5700, 19159.00
614.7370, 19259.00
615.9050, 19474.00
617.0720, 19349.00
618.2390, 19153.00
619.4060, 18915.00
620.5720, 18792.00
621.7390, 18323.00
622.9050, 18111.00
624.0710, 17692.00
625.2370, 17134.00
626.4030, 16702.00
627.5690, 16306.00
628.7340, 15821.00
629.9000, 15561.80
631.0650, 15241.51
632.2300, 15038.00
633.3950, 14735.00
634.5600, 14473.59
635.7240, 14186.00
636.8890, 13982.00
638.0530, 13948.00
639.2170, 13658.00
640.3810, 13720.00
641.5450, 13441.00
642.7080, 13535.00
643.8720, 13381.00
645.0350, 13469.00
646.1980, 13293.00
647.3610, 13320.00
648.5240, 13381.00
649.6870, 13324.00
650.8490, 13411.00
652.0120, 13294.00
653.1740, 13391.00
654.3360, 13324.06
655.4980, 13274.00
656.6600, 13182.00
657.8210, 13282.00
658.9830, 13131.00
660.1440, 13051.00
661.3050, 13079.60
662.4660, 13245.00
663.6270, 13059.00
664.7870, 12857.00
665.9480, 12574.52
667.1080, 12893.92
668.2680, 13083.52
669.4280, 13150.30
670.5880, 12726.41
671.7480, 12936.12
672.9070, 12891.89
674.0670, 12837.26
675.2260, 13226.00
676.3850, 13193.00
677.5440, 13446.00
678.7030, 13539.00
679.8610, 13665.00
681.0200, 13943.00
682.1780, 14029.00
683.3360, 14103.00
684.4940, 14297.00
685.6520, 14554.00
686.8090, 14458.00
687.9670, 14556.00
689.1240, 14325.00
690.2810, 14332.00
691.4380, 14238.00
692.5950, 14040.00
693.7520, 13838.00
694.9080, 13808.00
696.0650, 13667.00
697.2210, 13431.00
698.3770, 13121.00
699.5330, 13185.00
700.6880, 12992.00
701.8440, 12782.00
702.9990, 12721.00
704.1550, 12427.00
705.3100, 12502.00
706.4650, 12346.48
707.6190, 12129.00
708.7740, 12221.00
709.9290, 11984.00
711.0830, 11978.00
712.2370, 11665.00
713.3910, 11631.00
714.5450, 11458.00
715.6980, 11476.00
716.8520, 11433.00
718.0050, 11198.00
719.1580, 11146.00
720.3110, 11100.00
721.4640, 10942.00
722.6170, 10866.00
723.7700, 10825.63
724.9220, 10698.33
726.0740, 10749.00
727.2260, 10567.00
728.3780, 10491.00
729.5300, 10545.00
730.6810, 10441.00
731.8330, 10438.00
732.9840, 10367.00
734.1350, 10355.00
735.2860, 10240.00
736.4370, 10166.00
737.5880, 10235.00
738.7380, 10222.00
739.8880, 10298.00
741.0390, 10258.87
742.1890, 10159.00
743.3380, 10181.00
744.4880, 10178.00
745.6380, 10132.93
746.7870, 10413.00
747.9360, 10088.00
749.0850, 10033.00
750.2340, 10200.00
751.3830, 9974.000
752.5310, 10023.00
753.6800, 9992.000
754.8280, 9979.000
755.9760, 9925.000
757.1240, 9920.000
758.2720, 9876.000
759.4190, 10010.00
760.5670, 10006.00
761.7140, 10029.00
762.8610, 9875.000
764.0080, 10002.00
765.1550, 9897.000
766.3020, 9916.000
767.4480, 9936.000
768.5950, 9878.000
769.7410, 9818.000
770.8870, 9703.000
772.0330, 9845.000
773.1780, 9801.000
774.3240, 9739.000
775.4690, 9856.000
776.6140, 9920.000
777.7590, 9858.000
778.9040, 9799.000
780.0490, 9850.000
781.1940, 9766.000
782.3380, 9746.000
783.4820, 9816.000
784.6260, 9771.000
785.7700, 9665.000
786.9140, 9649.000
788.0580, 9671.000
789.2010, 9539.000
790.3450, 9593.000
791.4880, 9661.000
792.6310, 9648.000
793.7730, 9683.937
794.9160, 9560.000
796.0590, 9661.000
797.2010, 9629.000
798.3430, 9537.000
799.4850, 9619.000
800.6270, 9597.000
801.7690, 9659.000
802.9100, 9482.000
804.0520, 9620.000
805.1930, 9520.000
806.3340, 9645.000
807.4750, 9590.000
808.6160, 9676.000
809.7560, 9694.000
810.8970, 9683.000
812.0370, 9599.000
813.1770, 9609.000
814.3170, 9600.000
815.4570, 9628.000
816.5960, 9550.000
817.7360, 9625.000
818.8750, 9553.000
820.0140, 9617.000
821.1530, 9546.000
822.2920, 9563.000
823.4310, 9582.000
824.5690, 9611.000
825.7070, 9651.000
826.8460, 9553.000
827.9840, 9625.000
829.1220, 9601.000
830.2590, 9685.000
831.3970, 9639.966
832.5340, 9661.623
833.6710, 9577.000
834.8080, 9646.000
835.9450, 9659.000
837.0820, 9610.000
838.2190, 9800.000
839.3550, 9579.000
840.4910, 9712.000
841.6270, 9590.000
842.7630, 9692.000
843.8990, 9753.000
845.0350, 9768.000
846.1700, 9743.000
847.3060, 9737.000
848.4410, 9686.000
849.5760, 9720.000
850.7100, 9838.000
851.8450, 9778.000
852.9800, 9753.000
854.1140, 9758.000
855.2480, 9645.000
856.3820, 9682.642
857.5160, 9798.000
858.6500, 9747.000
859.7830, 9681.000
860.9170, 9810.000
862.0500, 9791.000
863.1830, 9859.000
864.3160, 9800.000
865.4480, 9835.000
866.5810, 9714.000
867.7130, 9852.000
868.8460, 9745.000
869.9780, 9767.000
871.1100, 9801.000
872.2410, 9791.000
873.3730, 9937.000
874.5050, 9826.000
875.6360, 9837.000
876.7670, 9936.000
877.8980, 9822.000
879.0290, 9947.000
880.1590, 10011.00
881.2900, 9836.000
882.4200, 9878.000
883.5500, 9792.000
884.6800, 9990.000
885.8100, 9948.000
886.9400, 9947.000
888.0690, 9825.000
889.1990, 9957.000
890.3280, 9987.000
891.4570, 10035.00
892.5860, 9997.000
893.7140, 10052.00
894.8430, 10113.00
895.9710, 10027.00
897.1000, 10039.00
898.2280, 10053.00
899.3560, 10120.00
900.4830, 10152.00
901.6110, 10183.20
902.7380, 10201.14
903.8660, 10215.23
904.9930, 10212.00
906.1200, 10220.00
907.2460, 10231.00
908.3730, 10215.00
909.5000, 10222.01
910.6260, 10237.44
911.7520, 10216.00
912.8780, 10288.00
914.0040, 10289.00
915.1290, 10340.00
916.2550, 10303.00
917.3800, 10354.00
918.5050, 10326.00
919.6300, 10411.00
920.7550, 10294.00
921.8800, 10262.00
923.0040, 10259.00
924.1290, 10390.00
925.2530, 10370.00
926.3770, 10471.00
927.5010, 10464.00
928.6250, 10492.11
929.7480, 10597.00
930.8720, 10545.00
931.9950, 10621.00
933.1180, 10683.00
934.2410, 10553.00
935.3640, 10866.00
936.4860, 10781.00
937.6090, 10867.00
938.7310, 11013.00
939.8530, 10971.75
940.9750, 11084.86
942.0970, 11063.00
943.2180, 11174.00
944.3400, 11329.00
945.4610, 11317.00
946.5820, 11390.00
947.7030, 11399.00
948.8240, 11523.00
949.9450, 11479.00
951.0650, 11596.00
952.1860, 11565.00
953.3060, 11486.00
954.4260, 11449.00
955.5460, 11473.00
956.6650, 11456.00
957.7850, 11520.00
958.9040, 11465.00
960.0230, 11450.00
961.1420, 11466.00
962.2610, 11428.00
963.3800, 11442.00
964.4990, 11450.00
965.6170, 11436.00
966.7350, 11410.00
967.8530, 11374.00
968.9710, 11384.00
970.0890, 11268.00
971.2070, 11225.00
972.3240, 11312.00
973.4410, 11239.00
974.5580, 11362.00
975.6750, 11321.00
976.7920, 11263.00
977.9090, 11163.00
979.0250, 11251.00
980.1410, 11051.00
981.2580, 11062.00
982.3740, 10910.00
983.4890, 10960.00
984.6050, 11010.00
985.7200, 10916.00
986.8360, 10839.00
987.9510, 10836.00
989.0660, 10652.00
990.1810, 10831.00
991.2950, 10841.00
992.4100, 10883.00
993.5240, 10774.00
994.6390, 10867.00
995.7530, 10836.00
996.8660, 10852.38
997.9800, 10876.00
999.0940, 10919.00
1000.207, 10965.00
1001.320, 11022.00
1002.433, 10892.00
1003.546, 10841.00
1004.659, 10851.00
1005.772, 10768.00
1006.884, 10803.00
1007.996, 10716.00
1009.108, 10725.00
1010.220, 10768.00
1011.332, 10694.00
1012.444, 10783.00
1013.555, 10861.00
1014.666, 10888.00
1015.777, 10837.78
1016.888, 10744.00
1017.999, 10684.00
1019.110, 10750.00
1020.220, 10738.00
1021.331, 10569.00
1022.441, 10754.00
1023.551, 10671.00
1024.661, 10606.00
1025.770, 10823.00
1026.880, 10775.00
1027.989, 10767.00
1029.098, 10704.00
1030.207, 10724.00
1031.316, 10643.00
1032.425, 10718.00
1033.533, 10760.00
1034.642, 10756.00
1035.750, 10636.00
1036.858, 10644.00
1037.966, 10828.00
1039.073, 10743.00
1040.181, 10834.00
1041.288, 10942.00
1042.396, 10797.46
1043.503, 10867.00
1044.610, 10721.00
1045.716, 10759.00
1046.823, 11038.00
1047.929, 10940.95
1049.036, 10996.00
1050.142, 11060.00
1051.248, 10816.00
1052.353, 10951.00
1053.459, 10889.00
1054.564, 10856.00
1055.670, 10912.00
1056.775, 10924.00
1057.880, 10967.00
1058.985, 10951.00
1060.089, 11001.00
1061.194, 11021.00
1062.298, 10910.00
1063.402, 10977.00
1064.506, 11087.00
1065.610, 11194.00
1066.713, 11057.00
1067.817, 11072.00
1068.920, 11106.00
1070.023, 11041.00
1071.126, 10995.00
1072.229, 11049.00
1073.332, 10998.00
1074.435, 10974.00
1075.537, 10989.00
1076.639, 11033.00
1077.741, 10902.00
1078.843, 11100.00
1079.945, 11299.00
1081.046, 11069.00
1082.148, 11073.00
1083.249, 11112.00
1084.350, 11008.00
1085.451, 11052.00
1086.551, 10913.00
1087.652, 11062.00
1088.752, 11004.00
1089.853, 11053.00
1090.953, 11003.00
1092.053, 10931.00
1093.152, 10882.00
1094.252, 10982.00
1095.351, 11084.00
1096.451, 11027.00
1097.550, 11071.00
1098.649, 10898.00
1099.748, 10927.00
1100.846, 10917.00
1101.945, 10864.00
1103.043, 10982.00
1104.141, 10912.00
1105.239, 10890.00
1106.337, 10850.00
1107.434, 10894.00
1108.532, 10870.00
1109.629, 10759.00
1110.726, 10639.00
1111.823, 10860.00
1112.920, 10937.00
1114.017, 10881.00
1115.113, 11029.00
1116.210, 11069.00
1117.306, 11050.00
1118.402, 11065.00
1119.498, 11039.00
1120.593, 11108.00
1121.689, 11013.00
1122.784, 11197.00
1123.879, 11157.00
1124.974, 11070.00
1126.069, 10930.00
1127.164, 11058.00
1128.259, 10816.00
1129.353, 10816.00
1130.447, 10746.00
1131.541, 10808.00
1132.635, 10748.00
1133.729, 10646.00
1134.822, 10851.00
1135.916, 10657.00
1137.009, 10555.00
1138.102, 10731.00
1139.195, 10601.00
1140.288, 10628.51
1141.380, 10599.11
1142.473, 10621.00
1143.565, 10629.48
1144.657, 10564.00
1145.749, 10671.00
1146.841, 10640.00
1147.932, 10689.00
1149.024, 10531.00
1150.115, 10627.00
1151.206, 10522.00
1152.297, 10460.00
1153.388, 10627.00
1154.479, 10493.00
1155.569, 10533.00
1156.659, 10474.00
1157.750, 10514.26
1158.839, 10542.00
1159.929, 10600.00
1161.019, 10539.00
1162.108, 10491.00
1163.198, 10535.00
1164.287, 10496.00
1165.376, 10193.34
1166.465, 10488.76
1167.553, 10654.39
1168.642, 10697.20
1169.730, 10249.33
1170.818, 10435.08
1171.906, 10366.90
1172.994, 10288.30
1174.082, 10563.22
1175.170, 10186.72
1176.257, 10456.04
1177.344, 10467.55
1178.431, 10597.06
1179.518, 10471.07
1180.605, 10424.00
1181.691, 10632.50
1182.778, 10699.49
1183.864, 10544.09
1184.950, 10681.10
1186.036, 10295.67
1187.122, 10368.69
1188.207, 10639.50
1189.292, 10496.95
1190.378, 10638.63
1191.463, 10672.06
1192.548, 10213.54
1193.632, 10610.57
1194.717, 10637.60
1195.801, 10284.73
1196.886, 10536.00
1197.970, 10380.00
1199.054, 10501.00
1200.137, 10575.00
1201.221, 10489.00
1202.305, 10479.61
1203.388, 10424.00
1204.471, 10393.00
1205.554, 10449.00
1206.637, 10639.00
1207.719, 10494.00
1208.802, 10581.00
1209.884, 10489.00
1210.966, 10513.00
1212.048, 10533.00
1213.130, 10513.00
1214.212, 10460.00
1215.293, 10533.00
1216.374, 10596.00
1217.456, 10481.00
1218.536, 10537.00
1219.617, 10554.00
1220.698, 10557.00
1221.778, 10420.00
1222.859, 10598.00
1223.939, 10524.00
1225.019, 10553.00
1226.099, 10738.00
1227.178, 10626.00
1228.258, 10574.00
1229.337, 10572.00
1230.417, 10581.00
1231.496, 10616.00
1232.574, 10681.00
1233.653, 10693.00
1234.732, 10555.00
1235.810, 10646.00
1236.888, 10733.00
1237.966, 10617.00
1239.044, 10705.00
1240.122, 10835.00
1241.199, 10594.00
1242.277, 10720.00
1243.354, 10561.00
1244.431, 10620.00
1245.508, 10526.00
1246.585, 10700.00
1247.661, 10587.00
1248.738, 10824.00
1249.814, 10610.00
1250.890, 10621.00
1251.966, 10596.00
1253.042, 10636.00
1254.117, 10688.00
1255.193, 10673.42
1256.268, 10697.50
1257.343, 10701.00
1258.418, 10687.00
1259.493, 10738.46
1260.567, 10715.41
1261.642, 10776.00
1262.716, 10666.00
1263.790, 10649.00
1264.864, 10760.00
1265.938, 10555.00
1267.011, 10603.00
1268.085, 10687.00
1269.158, 10660.00
1270.231, 10598.00
1271.304, 10566.00
1272.377, 10589.00
1273.450, 10579.11
1274.522, 10628.00
1275.594, 10670.00
1276.666, 10522.00
1277.738, 10648.00
1278.810, 10737.00
1279.882, 10578.00
1280.953, 10547.00
1282.025, 10601.00
1283.096, 10690.00
1284.167, 10572.00
1285.238, 10562.00
1286.308, 10587.00
1287.379, 10547.40
1288.449, 10640.00
1289.519, 10591.00
1290.589, 10725.00
1291.659, 10827.00
1292.729, 10783.00
1293.798, 10593.00
1294.868, 10608.00
1295.937, 10675.00
1297.006, 10723.00
1298.075, 10703.00
1299.143, 10764.46
1300.212, 10774.53
1301.280, 10798.00
1302.348, 10797.00
1303.416, 10747.20
1304.484, 10709.04
1305.552, 10816.00
1306.620, 10879.00
1307.687, 10865.00
1308.754, 11011.00
1309.821, 10775.00
1310.888, 10790.00
1311.955, 10937.00
1313.021, 10839.00
1314.088, 10926.00
1315.154, 10900.00
1316.220, 10857.00
1317.286, 10889.00
1318.352, 11030.00
1319.417, 11044.00
1320.483, 11018.00
1321.548, 11053.00
1322.613, 11061.10
1323.678, 11037.72
1324.743, 11086.00
1325.807, 11001.00
1326.872, 10965.00
1327.936, 10954.00
1329.000, 11107.00
1330.064, 10990.00
1331.128, 11015.00
1332.191, 11192.00
1333.255, 11120.10
1334.318, 11130.05
1335.381, 11170.00
1336.444, 11040.00
1337.507, 11076.00
1338.569, 11071.00
1339.632, 11121.00
1340.694, 11219.00
1341.756, 11039.00
1342.818, 11342.00
1343.880, 11322.00
1344.941, 11165.00
1346.003, 11090.00
1347.064, 11176.00
1348.125, 11114.00
1349.186, 11091.00
1350.247, 11291.00
1351.308, 11106.00
1352.368, 11199.00
1353.428, 11113.00
1354.489, 11250.00
1355.549, 11231.00
1356.608, 11261.00
1357.668, 11155.00
1358.727, 11186.00
1359.787, 11365.00
1360.846, 11191.00
1361.905, 11333.00
1362.964, 11270.00
1364.022, 11241.00
1365.081, 11481.00
1366.139, 11772.00
1367.197, 11313.00
1368.255, 11538.00
1369.313, 11364.00
1370.371, 11385.00
1371.428, 11438.00
1372.486, 11462.00
1373.543, 11474.00
1374.600, 11481.00
1375.657, 11405.00
1376.713, 11439.00
1377.770, 11371.00
1378.826, 11472.00
1379.882, 11531.00
1380.938, 11498.00
1381.994, 11654.00
1383.050, 11537.00
1384.106, 11488.00
1385.161, 11614.00
1386.216, 11512.00
1387.271, 11520.00
1388.326, 11597.00
1389.381, 11474.00
1390.435, 11437.00
1391.490, 11512.00
1392.544, 11374.00
1393.598, 11365.00
1394.652, 11439.00
1395.705, 11467.00
1396.759, 11410.00
1397.812, 11510.00
1398.866, 11454.00
1399.919, 11378.00
1400.972, 11388.00
1402.024, 11432.00
1403.077, 11267.00
1404.129, 11349.00
1405.181, 11301.00
1406.233, 11369.00
1407.285, 11343.00
1408.337, 11267.00
1409.389, 11306.00
1410.440, 11478.00
1411.491, 11322.64
1412.542, 11303.00
1413.593, 11199.00
1414.644, 11128.00
1415.695, 11199.00
1416.745, 11203.00
1417.795, 11216.00
1418.845, 11174.00
1419.895, 11060.00
1420.945, 11031.00
1421.995, 11004.24
1423.044, 10981.23
1424.093, 10965.00
1425.142, 11031.00
1426.191, 10969.00
1427.240, 11065.00
1428.289, 10956.41
1429.337, 11037.00
1430.385, 10815.00
1431.433, 10905.00
1432.481, 10970.00
1433.529, 11005.00
1434.577, 11006.91
1435.624, 10950.00
1436.672, 10969.00
1437.719, 10859.00
1438.766, 10861.00
1439.812, 10958.00
1440.859, 10946.00
1441.905, 10884.00
1442.952, 10761.00
1443.998, 10890.00
1445.044, 10701.00
1446.090, 10725.00
1447.135, 10826.00
1448.181, 10672.00
1449.226, 10684.00
1450.271, 10720.00
1451.316, 10673.00
1452.361, 10767.00
1453.405, 10622.00
1454.450, 10682.00
1455.494, 10713.00
1456.538, 10728.00
1457.582, 10748.00
1458.626, 10657.00
1459.670, 10747.00
1460.713, 10597.00
1461.757, 10589.00
1462.800, 10566.00
1463.843, 10569.00
1464.886, 10617.00
1465.928, 10616.00
1466.971, 10597.00
1468.013, 10567.00
1469.055, 10616.00
1470.097, 10500.00
1471.139, 10622.00
1472.181, 10626.00
1473.222, 10578.00
1474.263, 10586.00
1475.305, 10479.00
1476.346, 10556.00
1477.386, 10722.00
1478.427, 10578.00
1479.468, 10517.00
1480.508, 10663.00
1481.548, 10598.00
1482.588, 10607.00
1483.628, 10658.00
1484.668, 10593.00
1485.707, 10556.00
1486.747, 10633.00
1487.786, 10552.00
1488.825, 10439.00
1489.864, 10578.00
1490.902, 10495.00
1491.941, 10610.00
1492.979, 10615.00
1494.017, 10794.31
1495.055, 10816.70
1496.093, 10826.73
1497.131, 10825.05
1498.168, 10776.66
1499.206, 10788.60
1500.243, 10776.36
1501.280, 10763.13
1502.317, 10783.57
1503.354, 10741.97
1504.390, 10680.00
1505.426, 10637.00
1506.463, 10587.00
1507.499, 10543.00
1508.535, 10520.83
1509.570, 10507.00
1510.606, 10511.00
1511.641, 10488.00
1512.676, 10542.00
1513.711, 10574.70
1514.746, 10637.00
1515.781, 10655.00
1516.816, 10698.00
1517.850, 10655.00
1518.884, 10580.00
1519.918, 10708.00
1520.952, 10528.00
1521.986, 10647.00
1523.019, 10551.00
1524.053, 10621.00
1525.086, 10658.00
1526.119, 10636.00
1527.152, 10684.79
1528.185, 10656.00
1529.217, 10696.00
1530.250, 10739.00
1531.282, 10696.00
1532.314, 10890.00
1533.346, 10785.64
1534.377, 10868.00
1535.409, 10711.00
1536.440, 10644.00
1537.472, 10673.00
1538.503, 10670.00
1539.534, 10610.00
1540.564, 10712.00
1541.595, 10624.00
1542.625, 10798.00
1543.656, 10741.00
1544.686, 10626.36
1545.716, 10772.13
1546.745, 10853.01
1547.775, 10872.47
1548.804, 10646.60
1549.834, 10737.52
1550.863, 10701.49
1551.892, 10660.26
1552.920, 10795.78
1553.949, 10605.59
1554.977, 10738.31
1556.006, 10742.12
1557.034, 10804.94
1558.062, 10740.01
1559.089, 10714.54
1560.117, 10816.85
1561.144, 10848.40
1562.172, 10768.77
1563.199, 10835.33
1564.226, 10640.69
1565.252, 10675.26
1566.279, 10801.00
1567.305, 10820.00
1568.332, 10846.00
1569.358, 10769.00
1570.384, 10945.00
##END=



