##NAMES=Braunite
##RRUFFID=R050385
##IDEAL CHEMISTRY=Mn^2+^Mn^3+^_6_SiO_12_
##LOCALITY=Jhabua District, Madhya Pradesh, India
##OWNER=RRUFF
##SOURCE=University of Arizona Mineral Museum
##DESCRIPTION=Black prismatic crystals
##STATUS=The identification of this mineral has been confirmed by X-ray diffraction and chemical analysis
##URL=rruff.info/R050385
##MEASURED CHEMISTRY=(Fe^2+^_0.61_Mn^2+^_0.39_)_Σ=1_(Mn^3+^_5.94_Al_0.06_)_Σ=6_Si_1.00_O_12_
##PIN_ID=M00114
##ORIENTATION=Laser parallel to c* (0 0 1). Fiducial mark perpendicular to laser is parallel to -b [0 -1 0]
178.2820, 8482.000
179.5050, 8338.404
180.7290, 8488.000
181.9520, 8314.000
183.1760, 8377.000
184.3990, 8576.000
185.6220, 8772.000
186.8450, 8978.000
188.0670, 9048.000
189.2900, 9389.000
190.5120, 9493.413
191.7340, 9627.000
192.9560, 9883.000
194.1780, 10001.00
195.4000, 10325.00
196.6220, 10694.00
197.8430, 10849.00
199.0640, 11300.00
200.2860, 11874.00
201.5070, 12773.00
202.7270, 12938.00
203.9480, 12473.00
205.1690, 11477.00
206.3890, 10999.00
207.6090, 10781.00
208.8290, 11024.00
210.0490, 11072.00
211.2690, 11386.00
212.4890, 11543.00
213.7080, 11734.00
214.9280, 11519.00
216.1470, 11225.00
217.3660, 11228.00
218.5850, 10991.64
219.8030, 10878.25
221.0220, 10708.00
222.2400, 10599.00
223.4590, 10476.00
224.6770, 10242.00
225.8950, 9905.000
227.1120, 9515.000
228.3300, 9429.000
229.5480, 8960.000
230.7650, 8779.000
231.9820, 8487.000
233.1990, 8264.833
234.4160, 8173.396
235.6330, 8060.006
236.8490, 7925.956
238.0660, 7708.794
239.2820, 7598.920
240.4980, 7446.096
241.7140, 7291.511
242.9300, 7196.723
244.1460, 7170.000
245.3610, 7046.000
246.5770, 6875.000
247.7920, 6927.000
249.0070, 6866.868
250.2220, 6813.497
251.4370, 6899.000
252.6510, 6726.513
253.8660, 6759.643
255.0800, 6770.832
256.2940, 6761.246
257.5080, 6668.665
258.7220, 6683.255
259.9360, 6654.896
261.1490, 6624.790
262.3630, 6654.464
263.5760, 6573.968
264.7890, 6602.708
266.0020, 6587.843
267.2150, 6471.000
268.4270, 6432.000
269.6400, 6427.000
270.8520, 6374.000
272.0640, 6376.361
273.2760, 6341.000
274.4880, 6386.000
275.7000, 6408.000
276.9120, 6449.000
278.1230, 6407.000
279.3340, 6351.000
280.5450, 6412.000
281.7560, 6307.000
282.9670, 6288.000
284.1780, 6374.000
285.3880, 6299.000
286.5980, 6331.000
287.8090, 6356.000
289.0190, 6424.000
290.2290, 6505.000
291.4380, 6436.000
292.6480, 6602.000
293.8570, 6456.000
295.0670, 6415.000
296.2760, 6360.000
297.4850, 6473.000
298.6930, 6303.910
299.9020, 6401.000
301.1110, 6343.000
302.3190, 6312.000
303.5270, 6337.141
304.7350, 6294.312
305.9430, 6333.000
307.1510, 6316.000
308.3580, 6290.114
309.5660, 6374.521
310.7730, 6436.946
311.9800, 6478.596
313.1870, 6437.250
314.3940, 6503.077
315.6010, 6525.955
316.8070, 6547.042
318.0130, 6627.925
319.2200, 6598.651
320.4260, 6739.000
321.6310, 6919.000
322.8370, 7001.000
324.0430, 7187.000
325.2480, 7214.000
326.4540, 7230.000
327.6590, 7455.000
328.8640, 7329.000
330.0680, 7344.000
331.2730, 7272.000
332.4780, 7217.000
333.6820, 7167.000
334.8860, 7124.000
336.0900, 7056.484
337.2940, 7012.000
338.4980, 6917.000
339.7010, 6840.000
340.9050, 6751.000
342.1080, 6720.000
343.3110, 6741.000
344.5140, 6686.000
345.7170, 6649.000
346.9200, 6623.000
348.1220, 6543.000
349.3240, 6632.000
350.5270, 6621.000
351.7290, 6512.000
352.9310, 6471.000
354.1320, 6568.000
355.3340, 6479.000
356.5350, 6476.000
357.7370, 6584.000
358.9380, 6553.000
360.1390, 6472.000
361.3400, 6554.000
362.5400, 6576.000
363.7410, 6500.000
364.9410, 6639.000
366.1410, 6614.000
367.3410, 6641.000
368.5410, 6608.000
369.7410, 6602.509
370.9400, 6637.000
372.1400, 6596.000
373.3390, 6596.000
374.5380, 6642.000
375.7370, 6543.000
376.9360, 6463.000
378.1350, 6650.000
379.3330, 6596.000
380.5310, 6537.000
381.7300, 6535.000
382.9280, 6531.000
384.1260, 6450.000
385.3230, 6534.000
386.5210, 6441.000
387.7180, 6451.000
388.9160, 6552.000
390.1130, 6572.000
391.3100, 6508.000
392.5060, 6538.603
393.7030, 6581.000
394.9000, 6484.000
396.0960, 6485.000
397.2920, 6455.000
398.4880, 6468.000
399.6840, 6519.000
400.8800, 6493.000
402.0750, 6574.000
403.2710, 6534.000
404.4660, 6520.000
405.6610, 6464.000
406.8560, 6544.000
408.0510, 6630.000
409.2450, 6618.000
410.4400, 6606.000
411.6340, 6676.000
412.8280, 6607.000
414.0220, 6684.000
415.2160, 6699.000
416.4100, 6730.000
417.6030, 6693.000
418.7970, 6911.000
419.9900, 6763.000
421.1830, 6820.861
422.3760, 6933.000
423.5690, 6767.000
424.7610, 6864.000
425.9540, 6786.000
427.1460, 6748.000
428.3380, 6730.000
429.5300, 6690.000
430.7220, 6789.000
431.9140, 6773.000
433.1050, 6818.000
434.2970, 6713.000
435.4880, 6829.000
436.6790, 6897.000
437.8700, 6818.000
439.0610, 6898.000
440.2510, 6975.000
441.4420, 6929.000
442.6320, 6982.791
443.8220, 7020.000
445.0120, 7001.000
446.2020, 7023.000
447.3910, 7054.000
448.5810, 7090.000
449.7700, 6973.000
450.9600, 7053.000
452.1490, 7078.000
453.3370, 6998.000
454.5260, 7080.000
455.7150, 7122.000
456.9030, 7103.000
458.0910, 7188.000
459.2800, 7146.000
460.4670, 7189.000
461.6550, 7197.000
462.8430, 7182.000
464.0300, 7312.000
465.2180, 7360.000
466.4050, 7433.000
467.5920, 7406.000
468.7790, 7451.000
469.9650, 7516.000
471.1520, 7639.000
472.3380, 7429.000
473.5250, 7436.000
474.7110, 7519.000
475.8970, 7505.000
477.0820, 7583.000
478.2680, 7455.000
479.4540, 7444.000
480.6390, 7416.000
481.8240, 7469.000
483.0090, 7434.000
484.1940, 7361.000
485.3780, 7366.000
486.5630, 7325.000
487.7470, 7323.000
488.9320, 7372.000
490.1160, 7453.000
491.3000, 7404.000
492.4830, 7426.000
493.6670, 7494.000
494.8500, 7507.000
496.0340, 7552.000
497.2170, 7610.185
498.4000, 7660.284
499.5820, 7755.000
500.7650, 7817.000
501.9480, 7954.000
503.1300, 8090.000
504.3120, 8224.000
505.4940, 8325.000
506.6760, 8390.119
507.8580, 8442.000
509.0390, 8468.971
510.2210, 8470.298
511.4020, 8457.000
512.5830, 8418.000
513.7640, 8360.000
514.9450, 8228.000
516.1250, 8168.000
517.3060, 8080.176
518.4860, 8005.965
519.6660, 7911.000
520.8460, 7880.000
522.0260, 7781.000
523.2060, 7712.000
524.3850, 7476.000
525.5650, 7556.000
526.7440, 7554.000
527.9230, 7382.000
529.1020, 7461.000
530.2810, 7375.000
531.4590, 7413.000
532.6380, 7571.000
533.8160, 7249.000
534.9940, 7226.000
536.1720, 7227.000
537.3500, 7304.000
538.5270, 7327.000
539.7050, 7250.000
540.8820, 7248.000
542.0590, 7250.000
543.2360, 7237.000
544.4130, 7245.000
545.5900, 7269.000
546.7660, 7291.000
547.9430, 7197.000
549.1190, 7320.000
550.2950, 7239.466
551.4710, 7371.000
552.6470, 7180.000
553.8220, 7318.000
554.9980, 7335.000
556.1730, 7374.000
557.3480, 7473.000
558.5230, 7333.000
559.6980, 7475.000
560.8730, 7430.000
562.0470, 7456.000
563.2220, 7554.000
564.3960, 7529.000
565.5700, 7604.000
566.7440, 7706.000
567.9170, 7562.000
569.0910, 7624.000
570.2640, 7682.000
571.4380, 7746.000
572.6110, 7676.000
573.7840, 7800.000
574.9570, 7711.000
576.1290, 7746.000
577.3020, 7746.000
578.4740, 7823.000
579.6460, 7748.000
580.8180, 7792.000
581.9900, 7730.000
583.1620, 7637.000
584.3330, 7819.000
585.5040, 7816.000
586.6760, 7756.000
587.8470, 7842.000
589.0180, 7923.000
590.1880, 7977.000
591.3590, 8060.687
592.5290, 8100.000
593.7000, 8220.000
594.8700, 8223.000
596.0400, 8328.000
597.2090, 8536.000
598.3790, 8610.000
599.5490, 8782.000
600.7180, 9099.000
601.8870, 9199.000
603.0560, 9514.000
604.2250, 9656.000
605.3940, 9803.000
606.5620, 10221.00
607.7300, 11138.00
608.8990, 11144.00
610.0670, 11222.00
611.2350, 11188.00
612.4020, 11239.00
613.5700, 11425.00
614.7370, 11481.00
615.9050, 11599.00
617.0720, 11500.00
618.2390, 11417.00
619.4060, 11135.00
620.5720, 11188.00
621.7390, 10982.00
622.9050, 10760.87
624.0710, 10585.00
625.2370, 10296.00
626.4030, 10151.00
627.5690, 9959.000
628.7340, 9717.000
629.9000, 9456.000
631.0650, 9311.000
632.2300, 9207.000
633.3950, 9028.000
634.5600, 9122.000
635.7240, 9095.000
636.8890, 8497.000
638.0530, 8417.000
639.2170, 8436.000
640.3810, 8374.000
641.5450, 8245.000
642.7080, 8234.000
643.8720, 8254.000
645.0350, 8040.000
646.1980, 8037.000
647.3610, 8073.000
648.5240, 7988.503
649.6870, 8058.000
650.8490, 7996.000
652.0120, 8000.000
653.1740, 8064.000
654.3360, 7905.000
655.4980, 8012.000
656.6600, 7951.000
657.8210, 8096.000
658.9830, 7997.000
660.1440, 8085.000
661.3050, 8191.000
662.4660, 8483.000
663.6270, 8142.000
664.7870, 8287.000
665.9480, 8180.000
667.1080, 8167.000
668.2680, 8224.000
669.4280, 8260.000
670.5880, 8392.000
671.7480, 8453.000
672.9070, 8577.000
674.0670, 8477.000
675.2260, 8709.000
676.3850, 8777.000
677.5440, 8898.000
678.7030, 9117.000
679.8610, 9164.000
681.0200, 9273.000
682.1780, 9404.000
683.3360, 9445.000
684.4940, 9378.000
685.6520, 9537.000
686.8090, 9478.000
687.9670, 9293.000
689.1240, 9649.000
690.2810, 9341.066
691.4380, 9848.000
692.5950, 9083.000
693.7520, 8891.000
694.9080, 8915.000
696.0650, 8791.000
697.2210, 8419.000
698.3770, 8408.000
699.5330, 8231.000
700.6880, 8119.000
701.8440, 8061.000
702.9990, 7937.000
704.1550, 7742.000
705.3100, 7764.000
706.4650, 7653.000
707.6190, 7594.000
708.7740, 7574.000
709.9290, 7567.000
711.0830, 7570.000
712.2370, 7496.000
713.3910, 7451.000
714.5450, 7375.000
715.6980, 7332.382
716.8520, 7374.000
718.0050, 7296.000
719.1580, 7230.000
720.3110, 7321.000
721.4640, 7268.000
722.6170, 7255.000
723.7700, 7212.000
724.9220, 7178.948
726.0740, 7171.000
727.2260, 7112.000
728.3780, 7092.000
729.5300, 7059.142
730.6810, 7115.000
731.8330, 7106.000
732.9840, 7074.000
734.1350, 7165.000
735.2860, 7159.000
736.4370, 7179.000
737.5880, 7149.000
738.7380, 7153.000
739.8880, 7100.000
741.0390, 7150.000
742.1890, 7113.000
743.3380, 7001.000
744.4880, 7153.000
745.6380, 7165.000
746.7870, 7130.000
747.9360, 7034.000
749.0850, 7132.000
750.2340, 7089.000
751.3830, 7201.000
752.5310, 7014.000
753.6800, 7110.000
754.8280, 7050.000
755.9760, 7129.000
757.1240, 6961.000
758.2720, 7072.050
759.4190, 7110.781
760.5670, 7127.548
761.7140, 7123.550
762.8610, 7036.557
764.0080, 7056.736
765.1550, 7033.964
766.3020, 7009.433
767.4480, 7044.706
768.5950, 6969.784
769.7410, 7004.108
770.8870, 6994.828
772.0330, 7005.504
773.1780, 7061.000
774.3240, 7143.000
775.4690, 7042.000
776.6140, 6979.000
777.7590, 7030.000
778.9040, 6955.000
780.0490, 6998.000
781.1940, 7057.000
782.3380, 7134.000
783.4820, 7024.000
784.6260, 7024.000
785.7700, 7034.000
786.9140, 7058.000
788.0580, 7004.000
789.2010, 7058.000
790.3450, 7070.000
791.4880, 6999.000
792.6310, 7051.000
793.7730, 7085.000
794.9160, 7101.000
796.0590, 7044.000
797.2010, 6973.000
798.3430, 7132.000
799.4850, 7021.000
800.6270, 7024.000
801.7690, 7070.000
802.9100, 7024.000
804.0520, 7084.000
805.1930, 7032.000
806.3340, 7005.000
807.4750, 7011.000
808.6160, 6979.422
809.7560, 6981.000
810.8970, 6975.000
812.0370, 6982.014
813.1770, 7078.000
814.3170, 7037.000
815.4570, 7054.000
816.5960, 7131.000
817.7360, 7090.000
818.8750, 7076.193
820.0140, 7060.911
821.1530, 7003.000
822.2920, 7009.000
823.4310, 7030.000
824.5690, 7075.000
825.7070, 7048.000
826.8460, 7141.000
827.9840, 7136.000
829.1220, 7125.000
830.2590, 7038.000
831.3970, 7059.205
832.5340, 7075.000
833.6710, 7066.000
834.8080, 7065.000
835.9450, 7104.000
837.0820, 7042.000
838.2190, 7054.000
839.3550, 7040.976
840.4910, 7094.000
841.6270, 7006.000
842.7630, 7150.000
843.8990, 7127.000
845.0350, 7082.000
846.1700, 7150.000
847.3060, 7184.000
848.4410, 7226.000
849.5760, 7090.000
850.7100, 7117.000
851.8450, 7116.000
852.9800, 7191.000
854.1140, 7183.000
855.2480, 7106.000
856.3820, 7180.000
857.5160, 7200.000
858.6500, 7242.000
859.7830, 7125.000
860.9170, 7191.000
862.0500, 7114.000
863.1830, 7162.000
864.3160, 7295.000
865.4480, 7269.000
866.5810, 7201.000
867.7130, 7215.000
868.8460, 7213.000
869.9780, 7119.000
871.1100, 7364.000
872.2410, 7255.000
873.3730, 7244.000
874.5050, 7170.000
875.6360, 7196.000
876.7670, 7324.000
877.8980, 7277.000
879.0290, 7387.000
880.1590, 7258.000
881.2900, 7352.000
882.4200, 7374.000
883.5500, 7343.000
884.6800, 7370.443
885.8100, 7260.000
886.9400, 7342.000
888.0690, 7301.000
889.1990, 7290.000
890.3280, 7345.000
891.4570, 7347.000
892.5860, 7395.000
893.7140, 7364.000
894.8430, 7329.000
895.9710, 7380.000
897.1000, 7356.000
898.2280, 7338.000
899.3560, 7369.000
900.4830, 7473.000
901.6110, 7573.000
902.7380, 7441.000
903.8660, 7606.000
904.9930, 7390.000
906.1200, 7451.000
907.2460, 7501.000
908.3730, 7528.000
909.5000, 7465.000
910.6260, 7503.816
911.7520, 7551.000
912.8780, 7555.000
914.0040, 7424.000
915.1290, 7551.000
916.2550, 7454.000
917.3800, 7566.000
918.5050, 7593.000
919.6300, 7545.000
920.7550, 7528.000
921.8800, 7553.000
923.0040, 7657.000
924.1290, 7609.000
925.2530, 7678.000
926.3770, 7651.000
927.5010, 7721.022
928.6250, 7721.533
929.7480, 7814.000
930.8720, 7778.000
931.9950, 7699.000
933.1180, 7807.000
934.2410, 7774.000
935.3640, 7778.000
936.4860, 7916.000
937.6090, 7841.000
938.7310, 8010.000
939.8530, 7918.000
940.9750, 8011.000
942.0970, 7969.000
943.2180, 8012.000
944.3400, 8174.000
945.4610, 8188.000
946.5820, 8222.000
947.7030, 8077.000
948.8240, 8115.000
949.9450, 8372.000
951.0650, 8203.000
952.1860, 8263.000
953.3060, 8353.979
954.4260, 8335.831
955.5460, 8507.000
956.6650, 8398.000
957.7850, 8502.000
958.9040, 8414.000
960.0230, 8505.000
961.1420, 8450.000
962.2610, 8394.000
963.3800, 8404.293
964.4990, 8418.595
965.6170, 8410.975
966.7350, 8382.581
967.8530, 8271.189
968.9710, 8266.972
970.0890, 8219.804
971.2070, 8170.875
972.3240, 8117.000
973.4410, 8161.000
974.5580, 8185.000
975.6750, 8214.000
976.7920, 8229.000
977.9090, 8147.000
979.0250, 8116.000
980.1410, 8077.000
981.2580, 8112.000
982.3740, 8172.000
983.4890, 8132.000
984.6050, 8118.000
985.7200, 8003.000
986.8360, 8096.000
987.9510, 8082.000
989.0660, 8128.000
990.1810, 8034.000
991.2950, 8041.000
992.4100, 8109.000
993.5240, 8027.000
994.6390, 8020.000
995.7530, 8050.000
996.8660, 8050.000
997.9800, 8072.000
999.0940, 8003.000
1000.207, 8024.464
1001.320, 7989.000
1002.433, 8031.000
1003.546, 8104.000
1004.659, 8149.000
1005.772, 8006.000
1006.884, 8019.000
1007.996, 7964.000
1009.108, 8041.000
1010.220, 7992.000
1011.332, 8002.000
1012.444, 8012.000
1013.555, 8178.000
1014.666, 8104.000
1015.777, 8141.000
1016.888, 8077.000
1017.999, 8104.000
1019.110, 8104.000
1020.220, 7948.000
1021.331, 8151.000
1022.441, 8063.667
1023.551, 7963.000
1024.661, 8111.000
1025.770, 8071.000
1026.880, 8183.000
1027.989, 8125.000
1029.098, 8182.000
1030.207, 8052.000
1031.316, 8088.000
1032.425, 8054.000
1033.533, 8066.000
1034.642, 8138.000
1035.750, 8079.000
1036.858, 8145.000
1037.966, 8043.000
1039.073, 8129.000
1040.181, 8151.000
1041.288, 8122.000
1042.396, 8144.000
1043.503, 8110.000
1044.610, 8169.000
1045.716, 8073.000
1046.823, 8113.000
1047.929, 8038.000
1049.036, 8115.000
1050.142, 8178.000
1051.248, 8161.000
1052.353, 8242.000
1053.459, 8194.000
1054.564, 8117.000
1055.670, 8268.000
1056.775, 8136.000
1057.880, 8189.000
1058.985, 8281.000
1060.089, 8198.000
1061.194, 8210.000
1062.298, 8280.000
1063.402, 8301.000
1064.506, 8265.000
1065.610, 8218.000
1066.713, 8323.000
1067.817, 8292.000
1068.920, 8253.000
1070.023, 8264.000
1071.126, 8239.000
1072.229, 8242.000
1073.332, 8267.843
1074.435, 8256.862
1075.537, 8310.000
1076.639, 8280.000
1077.741, 8255.000
1078.843, 8292.000
1079.945, 8238.000
1081.046, 8298.000
1082.148, 8265.954
1083.249, 8279.576
1084.350, 8234.000
1085.451, 8262.000
1086.551, 8256.000
1087.652, 8267.767
1088.752, 8283.000
1089.853, 8330.000
1090.953, 8311.000
1092.053, 8379.195
1093.152, 8185.000
1094.252, 8387.000
1095.351, 8289.000
1096.451, 8212.000
1097.550, 8285.000
1098.649, 8214.000
1099.748, 8256.000
1100.846, 8152.000
1101.945, 8231.000
1103.043, 8251.000
1104.141, 8256.000
1105.239, 8284.999
1106.337, 8151.000
1107.434, 8264.000
1108.532, 8240.000
1109.629, 8161.000
1110.726, 8245.000
1111.823, 8095.000
1112.920, 8164.000
1114.017, 8194.189
1115.113, 8233.564
1116.210, 8250.979
1117.306, 8247.625
1118.402, 8161.277
1119.498, 8182.101
1120.593, 8159.985
1121.689, 8136.099
1122.784, 8172.016
1123.879, 8097.750
1124.974, 8132.719
1126.069, 8124.084
1127.164, 8135.406
1128.259, 8103.512
1129.353, 8084.976
1130.447, 8109.668
1131.541, 8110.426
1132.635, 8073.567
1133.729, 8086.167
1134.822, 8010.410
1135.916, 8102.000
1137.009, 8116.000
1138.102, 8031.000
1139.195, 8124.000
1140.288, 8036.000
1141.380, 7960.000
1142.473, 7946.000
1143.565, 8000.000
1144.657, 7995.148
1145.749, 8002.517
1146.841, 8085.000
1147.932, 8034.000
1149.024, 8083.000
1150.115, 8160.000
1151.206, 7969.000
1152.297, 8026.000
1153.388, 7913.000
1154.479, 7962.646
1155.569, 7956.608
1156.659, 8083.000
1157.750, 7990.000
1158.839, 8001.000
1159.929, 8042.000
1161.019, 8074.000
1162.108, 7972.000
1163.198, 8021.000
1164.287, 7990.000
1165.376, 8099.000
1166.465, 7911.000
1167.553, 8019.000
1168.642, 8040.000
1169.730, 7986.000
1170.818, 8025.000
1171.906, 7956.000
1172.994, 7926.000
1174.082, 8039.000
1175.170, 7966.000
1176.257, 7868.000
1177.344, 8025.000
1178.431, 7991.000
1179.518, 7918.000
1180.605, 7944.000
1181.691, 7956.000
1182.778, 7958.000
1183.864, 7919.000
1184.950, 7940.083
1186.036, 7943.000
1187.122, 7940.000
1188.207, 7976.000
1189.292, 7957.000
1190.378, 7861.000
1191.463, 7985.000
1192.548, 8036.000
1193.632, 7896.000
1194.717, 7975.000
1195.801, 8022.000
1196.886, 8077.000
1197.970, 7987.000
1199.054, 7912.000
1200.137, 8036.000
1201.221, 7895.000
1202.305, 7935.000
1203.388, 7947.000
1204.471, 7988.000
1205.554, 8080.000
1206.637, 8072.000
1207.719, 8087.000
1208.802, 8020.000
1209.884, 7964.000
1210.966, 8039.000
1212.048, 7967.617
1213.130, 7987.922
1214.212, 7968.000
1215.293, 7950.000
1216.374, 8042.000
1217.456, 7937.000
1218.536, 8129.000
1219.617, 8036.000
1220.698, 8039.000
1221.778, 8033.000
1222.859, 8077.000
1223.939, 7998.000
1225.019, 8054.000
1226.099, 8064.000
1227.178, 7943.000
1228.258, 8096.000
1229.337, 8016.074
1230.417, 8190.000
1231.496, 8019.000
1232.574, 7984.000
1233.653, 8063.000
1234.732, 8030.000
1235.810, 8052.000
1236.888, 7993.000
1237.966, 8080.000
1239.044, 8030.000
1240.122, 8072.000
1241.199, 8112.000
1242.277, 8066.000
1243.354, 8049.000
1244.431, 8042.000
1245.508, 7986.000
1246.585, 8087.000
1247.661, 8051.000
1248.738, 8138.000
1249.814, 8060.000
1250.890, 8093.000
1251.966, 8014.000
1253.042, 8038.000
1254.117, 8004.000
1255.193, 7997.000
1256.268, 8035.000
1257.343, 8014.507
1258.418, 7940.000
1259.493, 8012.000
1260.567, 7973.000
1261.642, 7948.000
1262.716, 8073.000
1263.790, 7930.000
1264.864, 8086.000
1265.938, 8066.000
1267.011, 8070.000
1268.085, 8151.000
1269.158, 8058.000
1270.231, 8060.000
1271.304, 8023.000
1272.377, 8042.000
1273.450, 8027.000
1274.522, 8100.000
1275.594, 8025.000
1276.666, 8014.000
1277.738, 8146.000
1278.810, 8078.000
1279.882, 8128.000
1280.953, 8101.000
1282.025, 8054.000
1283.096, 8041.000
1284.167, 8090.000
1285.238, 8039.000
1286.308, 8102.000
1287.379, 7997.000
1288.449, 8029.000
1289.519, 8088.000
1290.589, 8117.000
1291.659, 8157.000
1292.729, 8149.196
1293.798, 7977.000
1294.868, 8191.000
1295.937, 7981.000
1297.006, 8154.000
1298.075, 7957.000
1299.143, 8102.000
1300.212, 8082.000
1301.280, 8233.000
1302.348, 8138.000
1303.416, 8184.011
1304.484, 8184.186
1305.552, 8171.000
1306.620, 8167.000
1307.687, 8138.000
1308.754, 8167.000
1309.821, 8109.710
1310.888, 8160.704
1311.955, 8189.744
1313.021, 8198.009
1314.088, 8123.278
1315.154, 8155.719
1316.220, 8145.209
1317.286, 8132.939
1318.352, 8180.464
1319.417, 8117.803
1320.483, 8164.380
1321.548, 8167.351
1322.613, 8190.278
1323.678, 8169.990
1324.743, 8163.051
1325.807, 8199.339
1326.872, 8211.692
1327.936, 8186.429
1329.000, 8210.624
1330.064, 8146.453
1331.128, 8159.825
1332.191, 8206.652
1333.255, 8183.562
1334.318, 8208.547
1335.381, 8215.222
1336.444, 8138.685
1337.507, 8206.861
1338.569, 8212.453
1339.632, 8153.787
1340.694, 8217.004
1341.756, 8167.195
1342.818, 8157.729
1343.880, 8178.625
1344.941, 8167.870
1346.003, 8207.015
1347.064, 8198.087
1348.125, 8184.864
1349.186, 8190.386
1350.247, 8142.792
1351.308, 8193.736
1352.368, 8177.371
1353.428, 8194.463
1354.489, 8219.140
1355.549, 8185.747
1356.608, 8213.829
1357.668, 8146.579
1358.727, 8159.097
1359.787, 8163.025
1360.846, 8217.940
1361.905, 8151.154
1362.964, 8161.455
1364.022, 8204.579
1365.081, 8201.776
1366.139, 8218.176
1367.197, 8177.728
1368.255, 8190.683
1369.313, 8188.919
1370.371, 8238.021
1371.428, 8246.965
1372.486, 8207.481
1373.543, 8168.202
1374.600, 8220.964
1375.657, 8186.488
1376.713, 8199.075
1377.770, 8163.057
1378.826, 8169.005
1379.882, 8174.289
1380.938, 8201.086
1381.994, 8162.646
1383.050, 8208.829
1384.106, 8206.103
1385.161, 8217.782
1386.216, 8227.859
1387.271, 8172.306
1388.326, 8170.553
1389.381, 8245.785
1390.435, 8203.611
1391.490, 8185.135
1392.544, 8183.503
1393.598, 8261.371
1394.652, 8265.345
1395.705, 8180.990
1396.759, 8255.355
1397.812, 8232.073
1398.866, 8237.809
1399.919, 8232.957
1400.972, 8231.238
1402.024, 8189.657
1403.077, 8200.608
1404.129, 8254.271
1405.181, 8235.115
1406.233, 8265.439
1407.285, 8205.587
1408.337, 8199.263
1409.389, 8207.146
1410.440, 8220.209
1411.491, 8191.871
1412.542, 8246.332
1413.593, 8245.662
1414.644, 8197.218
1415.695, 8200.599
1416.745, 8195.374
1417.795, 8279.732
1418.845, 8240.925
1419.895, 8193.396
1420.945, 8243.507
1421.995, 8262.322
1423.044, 8238.827
1424.093, 8237.814
1425.142, 8194.148
1426.191, 8215.893
1427.240, 8215.141
1428.289, 8251.454
1429.337, 8207.959
1430.385, 8256.340
1431.433, 8214.985
1432.481, 8338.000
1433.529, 8368.000
1434.577, 8321.000
1435.624, 8341.715
1436.672, 8200.000
1437.719, 8296.000
1438.766, 8247.000
1439.812, 8250.000
1440.859, 8306.000
1441.905, 8348.000
1442.952, 8352.815
1443.998, 8232.000
1445.044, 8323.000
1446.090, 8276.000
1447.135, 8146.000
1448.181, 8197.000
1449.226, 8215.000
1450.271, 8310.000
1451.316, 8267.000
1452.361, 8230.000
1453.405, 8248.000
1454.450, 8161.000
1455.494, 8310.000
1456.538, 8322.000
1457.582, 8350.000
1458.626, 8283.000
1459.670, 8251.000
1460.713, 8256.346
1461.757, 8352.000
1462.800, 8257.179
1463.843, 8274.000
1464.886, 8296.000
1465.928, 8247.000
1466.971, 8283.000
1468.013, 8281.000
1469.055, 8204.000
1470.097, 8228.000
1471.139, 8325.000
1472.181, 8314.000
1473.222, 8309.000
1474.263, 8326.000
1475.305, 8312.046
1476.346, 8283.582
1477.386, 8306.000
1478.427, 8275.000
1479.468, 8278.000
1480.508, 8423.000
1481.548, 8423.000
1482.588, 8357.000
1483.628, 8402.000
1484.668, 8317.000
1485.707, 8248.000
1486.747, 8256.000
1487.786, 8356.000
1488.825, 8295.000
1489.864, 8329.000
1490.902, 8348.000
1491.941, 8371.000
1492.979, 8240.000
1494.017, 8443.000
1495.055, 8341.000
1496.093, 8493.000
1497.131, 8304.000
1498.168, 8357.000
1499.206, 8371.000
1500.243, 8196.000
1501.280, 8243.000
1502.317, 8354.000
1503.354, 8374.000
1504.390, 8381.000
1505.426, 8424.000
1506.463, 8415.797
1507.499, 8509.000
1508.535, 8399.000
1509.570, 8392.000
1510.606, 8352.000
1511.641, 8471.000
1512.676, 8307.000
1513.711, 8518.000
1514.746, 8443.795
1515.781, 8438.000
1516.816, 8373.000
1517.850, 8368.406
1518.884, 8403.000
1519.918, 8391.000
1520.952, 8401.000
1521.986, 8477.000
1523.019, 8356.000
1524.053, 8411.000
1525.086, 8349.000
1526.119, 8349.000
1527.152, 8475.000
1528.185, 8523.000
1529.217, 8550.000
1530.250, 8553.662
1531.282, 8576.195
1532.314, 8574.832
1533.346, 8582.000
1534.377, 8562.236
1535.409, 8548.246
1536.440, 8526.000
1537.472, 8445.000
1538.503, 8418.782
1539.534, 8472.145
1540.564, 8503.549
1541.595, 8514.182
1542.625, 8441.815
1543.656, 8476.624
1544.686, 8468.480
1545.716, 8458.575
1546.745, 8508.463
1547.775, 8448.168
1548.804, 8497.106
1549.834, 8502.443
1550.863, 8527.733
1551.892, 8509.809
1552.920, 8505.229
1553.949, 8543.881
1554.977, 8558.594
1556.006, 8535.693
1557.034, 8562.250
1558.062, 8500.438
1559.089, 8516.168
1560.117, 8565.355
1561.144, 8544.623
1562.172, 8571.969
1563.199, 8581.002
1564.226, 8506.823
1565.252, 8577.354
1566.279, 8615.000
1567.305, 8560.000
1568.332, 8663.000
1569.358, 8727.000
1570.384, 8613.000
##END=



