##NAMES=Braunite
##RRUFFID=R050388
##IDEAL CHEMISTRY=Mn^2+^Mn^3+^_6_SiO_12_
##LOCALITY=Langban, Filipstad, Varmland, Sweden
##OWNER=RRUFF
##SOURCE=University of Arizona Mineral Museum
##DESCRIPTION=Black crystals
##STATUS=The identification of this mineral has been confirmed by X-ray diffraction and chemical analysis
##URL=rruff.info/R050388
##MEASURED CHEMISTRY=(Mn^2+^_0.96_Mg_0.04_)_Î£=1_Mn^3+^_6.00_Si_1.00_O_12_
##PIN_ID=M00455
##ORIENTATION=Laser parallel to a* (1 0 0). Fiducial mark perpendicular to laser is parallel to c [0 0 1]
175.8340, 45115.00
177.0580, 45084.00
178.2820, 44855.00
179.5050, 44811.00
180.7290, 45085.00
181.9520, 44934.00
183.1760, 44685.00
184.3990, 44428.00
185.6220, 45134.00
186.8450, 45262.00
188.0670, 45360.00
189.2900, 45629.00
190.5120, 45606.17
191.7340, 46212.00
192.9560, 45817.00
194.1780, 46296.00
195.4000, 46827.00
196.6220, 47021.00
197.8430, 47265.00
199.0640, 47320.00
200.2860, 47507.00
201.5070, 47864.00
202.7270, 48715.00
203.9480, 48469.00
205.1690, 47600.00
206.3890, 46645.00
207.6090, 46007.00
208.8290, 45712.00
210.0490, 45768.00
211.2690, 46535.00
212.4890, 46951.00
213.7080, 47596.00
214.9280, 48046.72
216.1470, 48949.00
217.3660, 48843.00
218.5850, 49465.00
219.8030, 49774.00
221.0220, 49731.00
222.2400, 49446.00
223.4590, 49313.00
224.6770, 48890.00
225.8950, 48256.00
227.1120, 48091.00
228.3300, 47802.00
229.5480, 47191.00
230.7650, 46990.00
231.9820, 47007.00
233.1990, 47201.00
234.4160, 46913.00
235.6330, 47068.00
236.8490, 46876.00
238.0660, 46340.00
239.2820, 46408.00
240.4980, 46253.00
241.7140, 45780.00
242.9300, 45910.00
244.1460, 45377.00
245.3610, 45342.18
246.5770, 45537.79
247.7920, 45647.61
249.0070, 45676.26
250.2220, 45380.61
251.4370, 45503.72
252.6510, 45459.01
253.8660, 45407.42
255.0800, 45589.47
256.2940, 45340.99
257.5080, 45519.34
258.7220, 45527.30
259.9360, 45613.25
261.1490, 45530.33
262.3630, 45499.57
263.5760, 45637.73
264.7890, 45682.36
266.0020, 45580.00
267.2150, 45670.91
268.4270, 45416.52
269.6400, 45465.14
270.8520, 45644.47
272.0640, 45550.61
273.2760, 45644.60
274.4880, 45667.05
275.7000, 45364.36
276.9120, 45627.11
278.1230, 45645.33
279.3340, 45412.46
280.5450, 45655.84
281.7560, 45457.59
282.9670, 45416.97
284.1780, 45420.00
285.3880, 45423.00
286.5980, 45341.00
287.8090, 45391.46
289.0190, 45320.00
290.2290, 45487.00
291.4380, 45347.16
292.6480, 45577.04
293.8570, 45721.12
295.0670, 45784.04
296.2760, 45522.64
297.4850, 45680.00
298.6930, 45669.52
299.9020, 45652.18
301.1110, 45868.48
302.3190, 45654.22
303.5270, 45866.79
304.7350, 45908.97
305.9430, 46029.14
307.1510, 45980.45
308.3580, 45983.88
309.5660, 45890.00
310.7730, 45942.47
311.9800, 45961.00
313.1870, 45996.00
314.3940, 46059.00
315.6010, 46102.00
316.8070, 46120.42
318.0130, 46113.00
319.2200, 46228.00
320.4260, 46005.00
321.6310, 46206.00
322.8370, 46085.00
324.0430, 46394.00
325.2480, 46443.00
326.4540, 46554.00
327.6590, 46851.00
328.8640, 46765.00
330.0680, 46974.00
331.2730, 47064.00
332.4780, 47059.00
333.6820, 47821.00
334.8860, 48348.00
336.0900, 48109.00
337.2940, 48345.00
338.4980, 48672.00
339.7010, 48656.00
340.9050, 48702.41
342.1080, 48714.00
343.3110, 48439.00
344.5140, 48233.00
345.7170, 47894.00
346.9200, 48270.00
348.1220, 49052.00
349.3240, 49152.00
350.5270, 49383.00
351.7290, 48858.00
352.9310, 49379.00
354.1320, 49606.00
355.3340, 48710.29
356.5350, 47729.00
357.7370, 47245.00
358.9380, 47426.00
360.1390, 47218.00
361.3400, 47444.00
362.5400, 47410.00
363.7410, 47640.00
364.9410, 47753.96
366.1410, 47759.00
367.3410, 47943.00
368.5410, 47979.37
369.7410, 47854.04
370.9400, 47956.00
372.1400, 47853.00
373.3390, 47749.00
374.5380, 47898.00
375.7370, 48062.00
376.9360, 48232.00
378.1350, 48161.00
379.3330, 47983.00
380.5310, 48176.00
381.7300, 48355.00
382.9280, 48545.00
384.1260, 48564.00
385.3230, 48676.09
386.5210, 48495.00
387.7180, 48631.00
388.9160, 48611.00
390.1130, 48304.00
391.3100, 47997.00
392.5060, 48126.00
393.7030, 48321.00
394.9000, 48420.00
396.0960, 48523.00
397.2920, 48234.00
398.4880, 48441.00
399.6840, 48433.00
400.8800, 48653.00
402.0750, 48651.00
403.2710, 48993.00
404.4660, 48665.00
405.6610, 48826.00
406.8560, 48672.00
408.0510, 48591.00
409.2450, 48600.00
410.4400, 48584.00
411.6340, 48531.00
412.8280, 48786.00
414.0220, 48787.00
415.2160, 48934.00
416.4100, 48973.22
417.6030, 48638.00
418.7970, 48969.00
419.9900, 48837.00
421.1830, 48756.00
422.3760, 49325.00
423.5690, 49379.00
424.7610, 49242.00
425.9540, 49428.00
427.1460, 49397.00
428.3380, 49501.00
429.5300, 49326.00
430.7220, 49486.00
431.9140, 49745.00
433.1050, 49946.00
434.2970, 49611.00
435.4880, 49795.00
436.6790, 49806.00
437.8700, 49818.00
439.0610, 49748.00
440.2510, 49845.78
441.4420, 49932.00
442.6320, 49970.00
443.8220, 50081.00
445.0120, 50075.00
446.2020, 50157.00
447.3910, 50315.00
448.5810, 50103.00
449.7700, 50180.00
450.9600, 50330.00
452.1490, 50271.00
453.3370, 49983.00
454.5260, 50429.00
455.7150, 50482.00
456.9030, 50281.00
458.0910, 50683.00
459.2800, 50707.00
460.4670, 50783.00
461.6550, 50739.00
462.8430, 50899.00
464.0300, 50745.00
465.2180, 50671.00
466.4050, 51018.00
467.5920, 51200.00
468.7790, 51393.00
469.9650, 51456.00
471.1520, 51476.00
472.3380, 51654.00
473.5250, 52227.00
474.7110, 51967.00
475.8970, 52429.00
477.0820, 52514.00
478.2680, 53256.00
479.4540, 52793.00
480.6390, 52974.00
481.8240, 52861.00
483.0090, 52589.00
484.1940, 52953.00
485.3780, 52772.00
486.5630, 52573.00
487.7470, 52644.00
488.9320, 52403.00
490.1160, 52291.00
491.3000, 52264.00
492.4830, 52098.00
493.6670, 52092.48
494.8500, 52244.00
496.0340, 52078.00
497.2170, 52282.00
498.4000, 52374.00
499.5820, 52258.00
500.7650, 52555.00
501.9480, 52519.00
503.1300, 52531.00
504.3120, 52537.00
505.4940, 52850.00
506.6760, 53007.00
507.8580, 52907.00
509.0390, 52870.00
510.2210, 53069.00
511.4020, 53168.00
512.5830, 53402.00
513.7640, 53853.00
514.9450, 54342.00
516.1250, 54489.00
517.3060, 54725.00
518.4860, 54833.00
519.6660, 54970.00
520.8460, 54975.62
522.0260, 55011.00
523.2060, 54771.00
524.3850, 54523.00
525.5650, 54133.00
526.7440, 54168.00
527.9230, 53984.00
529.1020, 53917.00
530.2810, 53582.00
531.4590, 53372.00
532.6380, 53426.00
533.8160, 53447.00
534.9940, 53431.00
536.1720, 53218.00
537.3500, 53193.00
538.5270, 53245.00
539.7050, 53248.00
540.8820, 53344.00
542.0590, 53188.00
543.2360, 53386.00
544.4130, 53435.00
545.5900, 53631.00
546.7660, 53561.67
547.9430, 53331.00
549.1190, 53412.00
550.2950, 53423.00
551.4710, 53376.00
552.6470, 53438.37
553.8220, 53298.00
554.9980, 53420.00
556.1730, 53512.00
557.3480, 53366.00
558.5230, 53453.00
559.6980, 53597.00
560.8730, 53589.00
562.0470, 53685.00
563.2220, 53817.00
564.3960, 53694.00
565.5700, 53900.00
566.7440, 54076.00
567.9170, 53861.00
569.0910, 54067.71
570.2640, 54277.58
571.4380, 53957.16
572.6110, 54051.07
573.7840, 54059.20
574.9570, 53986.16
576.1290, 53588.90
577.3020, 53610.32
578.4740, 53464.01
579.6460, 53310.81
580.8180, 53391.26
581.9900, 53041.17
583.1620, 53117.91
584.3330, 53024.35
585.5040, 53358.00
586.6760, 53114.00
587.8470, 52942.00
589.0180, 53129.00
590.1880, 52896.00
591.3590, 52689.00
592.5290, 52669.00
593.7000, 52572.00
594.8700, 52665.00
596.0400, 52762.00
597.2090, 52969.00
598.3790, 52771.00
599.5490, 52854.00
600.7180, 52802.00
601.8870, 52895.00
603.0560, 52866.00
604.2250, 52915.00
605.3940, 52966.54
606.5620, 53071.00
607.7300, 53074.00
608.8990, 53255.00
610.0670, 53336.00
611.2350, 53643.00
612.4020, 54207.00
613.5700, 54229.00
614.7370, 54515.61
615.9050, 54297.00
617.0720, 54879.00
618.2390, 55090.00
619.4060, 55471.00
620.5720, 55535.00
621.7390, 56109.00
622.9050, 56435.00
624.0710, 56525.00
625.2370, 56779.00
626.4030, 56801.00
627.5690, 56921.00
628.7340, 56384.00
629.9000, 56438.00
631.0650, 55902.00
632.2300, 55708.00
633.3950, 55176.00
634.5600, 54930.00
635.7240, 54675.00
636.8890, 54718.00
638.0530, 54546.00
639.2170, 54040.00
640.3810, 54565.00
641.5450, 54725.00
642.7080, 53624.00
643.8720, 53498.00
645.0350, 53289.00
646.1980, 53328.00
647.3610, 53535.00
648.5240, 53596.00
649.6870, 53370.00
650.8490, 53325.00
652.0120, 53340.00
653.1740, 53226.00
654.3360, 53426.00
655.4980, 53284.00
656.6600, 53284.00
657.8210, 53138.00
658.9830, 53246.00
660.1440, 53050.00
661.3050, 53195.00
662.4660, 53140.00
663.6270, 53247.00
664.7870, 53160.00
665.9480, 52990.00
667.1080, 53110.00
668.2680, 53373.00
669.4280, 53073.00
670.5880, 53272.00
671.7480, 53228.00
672.9070, 53144.00
674.0670, 53303.00
675.2260, 53246.00
676.3850, 53334.00
677.5440, 53280.00
678.7030, 53236.20
679.8610, 53186.23
681.0200, 53109.00
682.1780, 53139.00
683.3360, 53088.00
684.4940, 53365.00
685.6520, 53247.19
686.8090, 53422.00
687.9670, 53310.00
689.1240, 53392.00
690.2810, 53704.00
691.4380, 54007.00
692.5950, 53788.00
693.7520, 53685.00
694.9080, 54014.00
696.0650, 54179.00
697.2210, 54121.00
698.3770, 53922.00
699.5330, 54116.00
700.6880, 54031.00
701.8440, 53823.00
702.9990, 53757.00
704.1550, 53687.00
705.3100, 53511.00
706.4650, 53132.00
707.6190, 53495.00
708.7740, 53157.00
709.9290, 53146.00
711.0830, 53425.00
712.2370, 53331.00
713.3910, 53328.00
714.5450, 53086.00
715.6980, 53070.46
716.8520, 52971.00
718.0050, 52902.00
719.1580, 52908.00
720.3110, 52792.00
721.4640, 53015.00
722.6170, 53012.00
723.7700, 52963.00
724.9220, 52898.00
726.0740, 52909.00
727.2260, 53036.07
728.3780, 52994.98
729.5300, 53410.00
730.6810, 52913.00
731.8330, 53098.00
732.9840, 52807.00
734.1350, 52970.00
735.2860, 53010.00
736.4370, 52887.00
737.5880, 53274.00
738.7380, 53404.00
739.8880, 52883.00
741.0390, 53442.00
742.1890, 53309.00
743.3380, 52944.00
744.4880, 52992.00
745.6380, 53291.00
746.7870, 53374.00
747.9360, 53277.00
749.0850, 53330.00
750.2340, 53287.00
751.3830, 53481.00
752.5310, 53306.00
753.6800, 53468.00
754.8280, 53527.00
755.9760, 53507.00
757.1240, 53545.00
758.2720, 53574.00
759.4190, 53472.00
760.5670, 53393.00
761.7140, 53679.00
762.8610, 53543.00
764.0080, 53537.00
765.1550, 53626.00
766.3020, 53341.00
767.4480, 53355.00
768.5950, 53504.55
769.7410, 53690.00
770.8870, 53759.00
772.0330, 53760.00
773.1780, 53600.00
774.3240, 53644.00
775.4690, 53457.00
776.6140, 53678.00
777.7590, 53698.00
778.9040, 53496.00
780.0490, 53514.00
781.1940, 53698.00
782.3380, 53785.00
783.4820, 53547.00
784.6260, 53918.00
785.7700, 53722.54
786.9140, 53638.00
788.0580, 53635.00
789.2010, 53449.00
790.3450, 53521.00
791.4880, 53885.00
792.6310, 53564.00
793.7730, 53338.00
794.9160, 53705.00
796.0590, 53810.00
797.2010, 53814.00
798.3430, 53630.00
799.4850, 53542.00
800.6270, 53595.00
801.7690, 53752.00
802.9100, 53972.00
804.0520, 53876.87
805.1930, 53749.00
806.3340, 53771.00
807.4750, 53642.00
808.6160, 53653.00
809.7560, 53945.00
810.8970, 53848.00
812.0370, 54060.00
813.1770, 53589.00
814.3170, 53812.00
815.4570, 53886.00
816.5960, 53708.00
817.7360, 54180.00
818.8750, 53547.00
820.0140, 54090.00
821.1530, 54313.00
822.2920, 53838.00
823.4310, 53921.00
824.5690, 54160.00
825.7070, 54216.00
826.8460, 54078.00
827.9840, 54115.00
829.1220, 54102.01
830.2590, 53986.00
831.3970, 54144.00
832.5340, 54152.00
833.6710, 54250.77
834.8080, 54203.62
835.9450, 54421.00
837.0820, 54000.00
838.2190, 54284.00
839.3550, 54078.11
840.4910, 54216.00
841.6270, 54320.00
842.7630, 54153.00
843.8990, 54161.00
845.0350, 54223.00
846.1700, 54413.00
847.3060, 54260.00
848.4410, 54246.93
849.5760, 54460.45
850.7100, 54588.17
851.8450, 54634.73
852.9800, 54356.99
854.1140, 54498.00
855.2480, 54471.20
856.3820, 54437.50
857.5160, 54637.45
858.6500, 54406.87
859.7830, 54603.10
860.9170, 54628.96
862.0500, 54732.79
863.1830, 54667.76
864.3160, 54654.88
865.4480, 54810.91
866.5810, 54873.41
867.7130, 54788.93
868.8460, 54897.71
869.9780, 54661.20
871.1100, 54727.67
872.2410, 54924.86
873.3730, 54848.87
874.5050, 54960.72
875.6360, 55001.02
876.7670, 54716.18
877.8980, 54996.79
879.0290, 55032.85
880.1590, 54817.82
881.2900, 55079.05
882.4200, 54898.63
883.5500, 54913.00
884.6800, 55034.00
885.8100, 54961.00
886.9400, 55075.00
888.0690, 55104.46
889.1990, 55041.00
890.3280, 55189.00
891.4570, 55081.00
892.5860, 55090.00
893.7140, 55294.00
894.8430, 55225.00
895.9710, 55319.00
897.1000, 55300.00
898.2280, 55330.00
899.3560, 55345.56
900.4830, 55546.00
901.6110, 55442.00
902.7380, 55349.00
903.8660, 55594.00
904.9930, 55865.00
906.1200, 55664.00
907.2460, 55813.87
908.3730, 55649.00
909.5000, 55822.00
910.6260, 55730.00
911.7520, 55881.00
912.8780, 55812.00
914.0040, 55962.00
915.1290, 55876.00
916.2550, 55736.00
917.3800, 55717.00
918.5050, 55925.00
919.6300, 55945.00
920.7550, 56086.00
921.8800, 55880.00
923.0040, 56037.78
924.1290, 55981.00
925.2530, 56214.00
926.3770, 56206.00
927.5010, 56357.00
928.6250, 56317.00
929.7480, 56088.00
930.8720, 56744.00
931.9950, 56291.00
933.1180, 56739.00
934.2410, 56500.00
935.3640, 56477.00
936.4860, 56295.00
937.6090, 56844.00
938.7310, 56607.00
939.8530, 56899.00
940.9750, 56913.00
942.0970, 56735.00
943.2180, 57348.00
944.3400, 57029.00
945.4610, 57165.00
946.5820, 57149.00
947.7030, 57138.00
948.8240, 57431.00
949.9450, 57259.00
951.0650, 57478.00
952.1860, 57491.00
953.3060, 57317.39
954.4260, 57769.00
955.5460, 57101.00
956.6650, 57158.00
957.7850, 57330.00
958.9040, 57472.00
960.0230, 57466.00
961.1420, 57609.00
962.2610, 57527.00
963.3800, 57320.00
964.4990, 57653.00
965.6170, 57528.00
966.7350, 57514.00
967.8530, 57605.00
968.9710, 57553.00
970.0890, 57525.00
971.2070, 57447.00
972.3240, 57626.00
973.4410, 57638.00
974.5580, 57708.00
975.6750, 57642.00
976.7920, 57653.96
977.9090, 57791.00
979.0250, 57601.00
980.1410, 57646.00
981.2580, 57625.00
982.3740, 57728.00
983.4890, 57804.00
984.6050, 57777.00
985.7200, 57807.00
986.8360, 57976.00
987.9510, 57891.00
989.0660, 58065.00
990.1810, 57957.00
991.2950, 58326.00
992.4100, 58204.00
993.5240, 58235.00
994.6390, 58128.00
995.7530, 58203.00
996.8660, 58106.00
997.9800, 58266.00
999.0940, 58272.00
1000.207, 58151.00
1001.320, 58184.00
1002.433, 58247.00
1003.546, 58125.00
1004.659, 58302.00
1005.772, 58171.00
1006.884, 58482.00
1007.996, 58226.00
1009.108, 58528.00
1010.220, 58397.00
1011.332, 58233.00
1012.444, 58604.00
1013.555, 58332.00
1014.666, 58538.00
1015.777, 58303.00
1016.888, 58527.00
1017.999, 58195.71
1019.110, 58418.80
1020.220, 58556.07
1021.331, 58612.20
1022.441, 58344.00
1023.551, 58494.57
1024.661, 58477.31
1025.770, 58453.15
1026.880, 58662.66
1027.989, 58441.60
1029.098, 58647.38
1030.207, 58682.77
1031.316, 58796.14
1032.425, 58740.66
1033.533, 58737.30
1034.642, 58902.88
1035.750, 58974.91
1036.858, 58899.96
1037.966, 58905.00
1039.073, 59000.00
1040.181, 58619.00
1041.288, 59076.00
1042.396, 58742.00
1043.503, 58620.00
1044.610, 59089.00
1045.716, 58854.00
1046.823, 58925.00
1047.929, 58994.00
1049.036, 59009.00
1050.142, 58849.00
1051.248, 59309.00
1052.353, 58869.00
1053.459, 59089.00
1054.564, 59270.00
1055.670, 59212.00
1056.775, 59317.00
1057.880, 59133.00
1058.985, 59420.00
1060.089, 59179.00
1061.194, 59045.00
1062.298, 59277.00
1063.402, 59220.00
1064.506, 59514.00
1065.610, 59605.00
1066.713, 59616.00
1067.817, 59643.69
1068.920, 59650.00
1070.023, 59412.00
1071.126, 59640.00
1072.229, 59386.00
1073.332, 59578.00
1074.435, 59620.00
1075.537, 59369.00
1076.639, 59370.00
1077.741, 59481.00
1078.843, 59430.00
1079.945, 59465.00
1081.046, 59764.00
1082.148, 59447.00
1083.249, 59485.00
1084.350, 59684.00
1085.451, 59391.00
1086.551, 59229.00
1087.652, 59867.00
1088.752, 59579.62
1089.853, 59868.00
1090.953, 59674.00
1092.053, 59485.00
1093.152, 59559.00
1094.252, 59693.00
1095.351, 59486.00
1096.451, 59524.00
1097.550, 59328.00
1098.649, 59230.00
1099.748, 59294.00
1100.846, 59181.00
1101.945, 59093.00
1103.043, 58840.34
1104.141, 59022.38
1105.239, 59118.64
1106.337, 59133.72
1107.434, 58824.52
1108.532, 58934.07
1109.629, 58875.80
1110.726, 58810.66
1111.823, 58979.16
1112.920, 58717.12
1114.017, 58881.93
1115.113, 58876.35
1116.210, 58948.74
1117.306, 58852.29
1118.402, 58807.99
1119.498, 58932.61
1120.593, 58963.71
1121.689, 58847.82
1122.784, 58925.19
1123.879, 58657.28
1124.974, 58692.36
1126.069, 58858.18
1127.164, 58750.79
1128.259, 58831.25
1129.353, 58840.18
1130.447, 58523.97
1131.541, 58773.22
1132.635, 58777.92
1133.729, 58531.54
1134.822, 58761.42
1135.916, 58549.65
1137.009, 58495.53
1138.102, 58560.04
1139.195, 58500.89
1140.288, 58636.71
1141.380, 58584.71
1142.473, 58515.91
1143.565, 58520.37
1144.657, 58317.29
1145.749, 58499.23
1146.841, 58418.16
1147.932, 58467.85
1149.024, 58547.15
1150.115, 58399.57
1151.206, 58492.20
1152.297, 58392.00
1153.388, 58322.15
1154.479, 58613.00
1155.569, 58242.00
1156.659, 58041.00
1157.750, 58199.00
1158.839, 58202.00
1159.929, 58341.00
1161.019, 58073.00
1162.108, 58128.00
1163.198, 57987.00
1164.287, 58095.00
1165.376, 58321.00
1166.465, 58316.00
1167.553, 57998.00
1168.642, 58149.00
1169.730, 57736.00
1170.818, 57975.00
1171.906, 57717.00
1172.994, 58147.00
1174.082, 58057.00
1175.170, 58147.00
1176.257, 58027.00
1177.344, 58215.00
1178.431, 57920.00
1179.518, 58210.00
1180.605, 58040.00
1181.691, 58217.00
1182.778, 58069.00
1183.864, 58001.00
1184.950, 57773.00
1186.036, 57931.00
1187.122, 57953.00
1188.207, 57886.00
1189.292, 58158.00
1190.378, 57976.00
1191.463, 58269.00
1192.548, 57818.00
1193.632, 58063.00
1194.717, 58041.00
1195.801, 57945.00
1196.886, 58046.00
1197.970, 58135.00
1199.054, 58166.00
1200.137, 58046.02
1201.221, 58019.00
1202.305, 57777.00
1203.388, 57896.00
1204.471, 57946.00
1205.554, 58041.00
1206.637, 57892.00
1207.719, 58104.00
1208.802, 58002.00
1209.884, 57844.00
1210.966, 57876.00
1212.048, 57929.00
1213.130, 57984.00
1214.212, 57991.27
1215.293, 57994.40
1216.374, 58003.98
1217.456, 58012.91
1218.536, 58011.52
1219.617, 58041.00
1220.698, 58020.00
1221.778, 58045.75
1222.859, 58074.00
1223.939, 58062.00
1225.019, 58219.00
1226.099, 58158.00
1227.178, 57944.00
1228.258, 58186.00
1229.337, 57928.00
1230.417, 58271.00
1231.496, 58053.00
1232.574, 58510.00
1233.653, 57958.00
1234.732, 58109.00
1235.810, 58073.00
1236.888, 58284.00
1237.966, 58219.19
1239.044, 58231.33
1240.122, 58170.00
1241.199, 58123.00
1242.277, 58161.00
1243.354, 58021.00
1244.431, 58286.00
1245.508, 57942.00
1246.585, 57793.00
1247.661, 58324.00
1248.738, 58012.00
1249.814, 57996.00
1250.890, 58234.00
1251.966, 58002.00
1253.042, 58198.00
1254.117, 58217.00
1255.193, 58071.00
1256.268, 58285.00
1257.343, 58152.00
1258.418, 58163.00
1259.493, 57909.00
1260.567, 58053.00
1261.642, 58247.00
1262.716, 58129.00
1263.790, 58198.00
1264.864, 58128.00
1265.938, 58260.00
1267.011, 58013.00
1268.085, 58265.00
1269.158, 57961.00
1270.231, 58249.00
1271.304, 58507.00
1272.377, 57999.00
1273.450, 58202.00
1274.522, 58377.00
1275.594, 58571.00
1276.666, 58380.00
1277.738, 58421.33
1278.810, 58175.00
1279.882, 58209.00
1280.953, 58251.00
1282.025, 58192.00
1283.096, 58181.00
1284.167, 58333.00
1285.238, 58428.00
1286.308, 58288.00
1287.379, 58421.00
1288.449, 58187.00
1289.519, 58365.00
1290.589, 58482.00
1291.659, 57935.00
1292.729, 58244.00
1293.798, 58481.00
1294.868, 58224.00
1295.937, 58200.00
1297.006, 58278.00
1298.075, 58306.00
1299.143, 58004.00
1300.212, 58047.00
1301.280, 58132.00
1302.348, 58109.00
1303.416, 58618.00
1304.484, 58215.00
1305.552, 58676.00
1306.620, 58421.00
1307.687, 58465.00
1308.754, 58529.00
1309.821, 58206.00
1310.888, 58838.00
1311.955, 58546.00
1313.021, 58474.00
1314.088, 58549.00
1315.154, 58416.00
1316.220, 58910.00
1317.286, 58841.00
1318.352, 58481.00
1319.417, 58810.00
1320.483, 58623.00
1321.548, 58669.00
1322.613, 58725.00
1323.678, 58744.00
1324.743, 58497.00
1325.807, 58819.00
1326.872, 58920.00
1327.936, 58840.00
1329.000, 58522.00
1330.064, 58929.00
1331.128, 58836.00
1332.191, 58997.00
1333.255, 59071.23
1334.318, 58775.00
1335.381, 59064.00
1336.444, 59034.00
1337.507, 58913.00
1338.569, 58940.00
1339.632, 58843.17
1340.694, 58747.00
1341.756, 58736.00
1342.818, 58717.00
1343.880, 58735.00
1344.941, 58991.00
1346.003, 58980.00
1347.064, 58987.00
1348.125, 58865.00
1349.186, 58968.00
1350.247, 58834.00
1351.308, 59155.00
1352.368, 58730.00
1353.428, 58997.00
1354.489, 58783.00
1355.549, 58939.00
1356.608, 59152.00
1357.668, 59096.00
1358.727, 59196.03
1359.787, 58785.00
1360.846, 59259.00
1361.905, 58885.00
1362.964, 58997.00
1364.022, 59269.00
1365.081, 59353.00
1366.139, 58983.00
1367.197, 59057.00
1368.255, 58923.00
1369.313, 58889.00
1370.371, 59081.00
1371.428, 58981.00
1372.486, 59141.00
1373.543, 59312.00
1374.600, 59237.00
1375.657, 59260.00
1376.713, 59299.00
1377.770, 58861.00
1378.826, 59445.00
1379.882, 59009.00
1380.938, 58855.00
1381.994, 59251.00
1383.050, 59137.00
1384.106, 59237.00
1385.161, 59351.00
1386.216, 59167.00
1387.271, 59240.84
1388.326, 59343.00
1389.381, 59074.00
1390.435, 59452.00
1391.490, 59204.00
1392.544, 59277.00
1393.598, 59185.00
1394.652, 59327.00
1395.705, 59035.00
1396.759, 59171.00
1397.812, 59312.00
1398.866, 59398.00
1399.919, 59224.00
1400.972, 59272.00
1402.024, 59290.00
1403.077, 59227.58
1404.129, 59326.00
1405.181, 59205.00
1406.233, 59191.00
1407.285, 59189.00
1408.337, 59163.00
1409.389, 59237.00
1410.440, 59483.00
1411.491, 59243.00
1412.542, 59303.00
1413.593, 59450.00
1414.644, 59344.00
1415.695, 59671.00
1416.745, 59458.00
1417.795, 59487.00
1418.845, 59579.00
1419.895, 59394.00
1420.945, 59350.00
1421.995, 59555.00
1423.044, 59407.00
1424.093, 59420.00
1425.142, 59534.00
1426.191, 59384.00
1427.240, 59392.00
1428.289, 59332.00
1429.337, 59305.00
1430.385, 59271.00
1431.433, 59527.00
1432.481, 59779.00
1433.529, 59574.00
1434.577, 59359.00
1435.624, 59461.00
1436.672, 59213.00
1437.719, 59283.64
1438.766, 59373.00
1439.812, 59382.00
1440.859, 59439.62
1441.905, 59495.81
1442.952, 59534.00
1443.998, 59550.00
1445.044, 59669.00
1446.090, 59589.00
1447.135, 59494.00
1448.181, 59263.00
1449.226, 59778.00
1450.271, 59366.00
1451.316, 60266.00
1452.361, 60020.00
1453.405, 59372.00
1454.450, 59718.00
1455.494, 59360.00
1456.538, 59579.00
1457.582, 59772.00
1458.626, 59583.00
1459.670, 59592.00
1460.713, 59872.00
1461.757, 59204.00
1462.800, 59663.00
1463.843, 59462.00
1464.886, 59434.00
1465.928, 59460.00
1466.971, 59643.00
1468.013, 59689.00
1469.055, 59601.00
1470.097, 59714.00
1471.139, 59600.00
1472.181, 59777.00
1473.222, 59739.00
1474.263, 59298.00
1475.305, 59774.00
1476.346, 60275.00
1477.386, 59755.00
1478.427, 59690.00
1479.468, 59624.00
1480.508, 59680.00
1481.548, 59660.00
1482.588, 59757.00
1483.628, 59950.00
1484.668, 59819.00
1485.707, 59920.00
1486.747, 59925.00
1487.786, 59641.00
1488.825, 59849.00
1489.864, 59893.00
1490.902, 59733.00
1491.941, 59653.00
1492.979, 59950.00
1494.017, 60103.00
1495.055, 60036.00
1496.093, 60115.00
1497.131, 59739.00
1498.168, 59696.00
1499.206, 59924.00
1500.243, 59631.00
1501.280, 59912.00
1502.317, 59857.00
1503.354, 59727.00
1504.390, 59861.00
1505.426, 60000.00
1506.463, 60147.00
1507.499, 60130.00
1508.535, 60177.00
1509.570, 60004.00
1510.606, 59978.00
1511.641, 60105.00
1512.676, 59981.00
1513.711, 60102.00
1514.746, 59899.00
1515.781, 59856.00
1516.816, 59938.00
1517.850, 60032.00
1518.884, 60357.00
1519.918, 60201.00
1520.952, 60166.00
1521.986, 60326.00
1523.019, 60130.00
1524.053, 60085.00
1525.086, 60502.00
1526.119, 60157.00
1527.152, 59834.00
1528.185, 60101.00
1529.217, 60411.00
1530.250, 60380.00
1531.282, 60516.09
1532.314, 60434.00
1533.346, 60360.00
1534.377, 60302.00
1535.409, 59875.00
1536.440, 59957.00
1537.472, 60217.00
1538.503, 60539.00
1539.534, 60369.00
1540.564, 60466.71
1541.595, 60520.31
1542.625, 60255.13
1543.656, 60463.29
1544.686, 60585.64
1545.716, 60626.83
1546.745, 60343.70
1547.775, 60479.35
1548.804, 60447.17
1549.834, 60408.11
1550.863, 60602.70
1551.892, 60366.73
1552.920, 60557.60
1553.949, 60578.09
1554.977, 60676.55
1556.006, 60606.16
1557.034, 60587.91
1558.062, 60738.58
1559.089, 60795.70
1560.117, 60705.86
1561.144, 60809.27
1562.172, 60567.39
1563.199, 60628.51
1564.226, 60820.34
1565.252, 60738.97
1566.279, 60471.00
1567.305, 60934.00
1568.332, 60432.00
1569.358, 60583.00
1570.384, 60583.00
1571.409, 60785.00
1572.435, 61145.00
##END=



