##NAMES=Braunite
##RRUFFID=R050385
##IDEAL CHEMISTRY=Mn^2+^Mn^3+^_6_SiO_12_
##LOCALITY=Jhabua District, Madhya Pradesh, India
##OWNER=RRUFF
##SOURCE=University of Arizona Mineral Museum
##DESCRIPTION=Black prismatic crystals
##STATUS=The identification of this mineral has been confirmed by X-ray diffraction and chemical analysis
##URL=rruff.info/R050385
##MEASURED CHEMISTRY=(Fe^2+^_0.61_Mn^2+^_0.39_)_Σ=1_(Mn^3+^_5.94_Al_0.06_)_Σ=6_Si_1.00_O_12_
##PIN_ID=M00114
##ORIENTATION=Laser parallel to c* (0 0 1). Fiducial mark perpendicular to laser is parallel to -b [0 -1 0]
178.2820, 7032.000
179.5050, 7000.000
180.7290, 7092.000
181.9520, 7252.000
183.1760, 7143.000
184.3990, 7380.000
185.6220, 7480.000
186.8450, 7641.000
188.0670, 7653.000
189.2900, 7673.000
190.5120, 7918.000
191.7340, 8139.000
192.9560, 8162.000
194.1780, 8306.000
195.4000, 8549.000
196.6220, 8669.000
197.8430, 8904.000
199.0640, 9214.000
200.2860, 9549.000
201.5070, 10160.00
202.7270, 10381.00
203.9480, 9785.000
205.1690, 9315.000
206.3890, 8950.000
207.6090, 8964.000
208.8290, 9256.000
210.0490, 9329.000
211.2690, 9639.000
212.4890, 9845.000
213.7080, 10204.00
214.9280, 10156.00
216.1470, 10207.00
217.3660, 10060.00
218.5850, 10192.00
219.8030, 10159.00
221.0220, 10152.00
222.2400, 9903.000
223.4590, 9863.000
224.6770, 9687.000
225.8950, 9460.000
227.1120, 9245.000
228.3300, 8964.000
229.5480, 8752.000
230.7650, 8469.000
231.9820, 8264.000
233.1990, 8045.000
234.4160, 7918.000
235.6330, 7655.000
236.8490, 7551.000
238.0660, 7392.000
239.2820, 7159.000
240.4980, 7008.000
241.7140, 6896.000
242.9300, 6771.000
244.1460, 6697.000
245.3610, 6625.000
246.5770, 6575.000
247.7920, 6454.000
249.0070, 6369.000
250.2220, 6313.000
251.4370, 6305.000
252.6510, 6170.164
253.8660, 6189.006
255.0800, 6191.960
256.2940, 6179.866
257.5080, 6107.652
258.7220, 6113.071
259.9360, 6087.378
261.1490, 6060.424
262.3630, 6076.769
263.5760, 6013.314
264.7890, 6028.986
266.0020, 6013.073
267.2150, 6011.616
268.4270, 5978.870
269.6400, 5901.000
270.8520, 5912.000
272.0640, 5807.000
273.2760, 5805.000
274.4880, 5870.000
275.7000, 5933.000
276.9120, 5916.000
278.1230, 5941.000
279.3340, 5914.335
280.5450, 5859.000
281.7560, 5856.000
282.9670, 5829.000
284.1780, 5843.000
285.3880, 5890.000
286.5980, 5948.000
287.8090, 6023.000
289.0190, 5991.000
290.2290, 5916.000
291.4380, 5939.000
292.6480, 6000.000
293.8570, 6044.000
295.0670, 5992.729
296.2760, 5943.000
297.4850, 5888.000
298.6930, 5823.000
299.9020, 5799.000
301.1110, 5722.000
302.3190, 5736.000
303.5270, 5769.000
304.7350, 5582.000
305.9430, 5712.000
307.1510, 5591.000
308.3580, 5695.000
309.5660, 5689.000
310.7730, 5804.000
311.9800, 5787.000
313.1870, 5809.000
314.3940, 5878.016
315.6010, 5891.247
316.8070, 5952.000
318.0130, 6028.000
319.2200, 6086.459
320.4260, 6184.000
321.6310, 6242.000
322.8370, 6337.000
324.0430, 6408.000
325.2480, 6556.000
326.4540, 6572.000
327.6590, 6586.000
328.8640, 6653.000
330.0680, 6531.000
331.2730, 6526.000
332.4780, 6520.000
333.6820, 6466.000
334.8860, 6461.000
336.0900, 6332.000
337.2940, 6191.000
338.4980, 6222.000
339.7010, 6147.000
340.9050, 6041.000
342.1080, 6089.000
343.3110, 5944.000
344.5140, 5949.000
345.7170, 6001.000
346.9200, 5855.000
348.1220, 5923.000
349.3240, 5889.000
350.5270, 5920.000
351.7290, 5810.000
352.9310, 5844.000
354.1320, 5907.000
355.3340, 5761.000
356.5350, 5861.000
357.7370, 5943.000
358.9380, 5766.000
360.1390, 5841.000
361.3400, 5838.000
362.5400, 5917.000
363.7410, 5983.000
364.9410, 6053.000
366.1410, 5984.000
367.3410, 5922.000
368.5410, 5916.000
369.7410, 5893.617
370.9400, 5973.000
372.1400, 5886.000
373.3390, 5933.000
374.5380, 5892.000
375.7370, 5900.000
376.9360, 5930.000
378.1350, 5739.257
379.3330, 5782.495
380.5310, 5809.830
381.7300, 5822.122
382.9280, 5774.289
384.1260, 5804.087
385.3230, 5802.769
386.5210, 5800.181
387.7180, 5840.900
388.9160, 5801.811
390.1130, 5841.844
391.3100, 5850.290
392.5060, 5873.187
393.7030, 5864.785
394.9000, 5724.000
396.0960, 5894.000
397.2920, 5803.000
398.4880, 5771.000
399.6840, 5892.000
400.8800, 5784.000
402.0750, 5856.000
403.2710, 5879.000
404.4660, 5982.000
405.6610, 5932.000
406.8560, 5975.000
408.0510, 5993.532
409.2450, 6111.000
410.4400, 6004.000
411.6340, 6001.000
412.8280, 5982.000
414.0220, 5880.000
415.2160, 6011.000
416.4100, 6023.000
417.6030, 6014.000
418.7970, 6125.000
419.9900, 6050.000
421.1830, 5974.681
422.3760, 6017.856
423.5690, 6045.128
424.7610, 6057.347
425.9540, 6009.451
427.1460, 6039.182
428.3380, 6037.801
429.5300, 6035.145
430.7220, 6075.803
431.9140, 6036.646
433.1050, 6076.611
434.2970, 6084.996
435.4880, 6107.831
436.6790, 6105.000
437.8700, 6077.000
439.0610, 6123.000
440.2510, 6165.000
441.4420, 6291.000
442.6320, 6276.000
443.8220, 6382.000
445.0120, 6325.000
446.2020, 6402.000
447.3910, 6396.000
448.5810, 6297.000
449.7700, 6376.000
450.9600, 6412.000
452.1490, 6370.000
453.3370, 6490.000
454.5260, 6542.000
455.7150, 6440.000
456.9030, 6515.000
458.0910, 6626.000
459.2800, 6536.000
460.4670, 6567.000
461.6550, 6596.000
462.8430, 6718.000
464.0300, 6787.000
465.2180, 6815.000
466.4050, 6927.000
467.5920, 6926.000
468.7790, 7079.000
469.9650, 7072.334
471.1520, 7065.396
472.3380, 7103.000
473.5250, 7010.000
474.7110, 7031.000
475.8970, 7039.000
477.0820, 6912.000
478.2680, 6955.000
479.4540, 6879.000
480.6390, 6850.000
481.8240, 6760.000
483.0090, 6685.000
484.1940, 6691.000
485.3780, 6722.000
486.5630, 6684.000
487.7470, 6779.000
488.9320, 6618.000
490.1160, 6673.000
491.3000, 6722.000
492.4830, 6765.000
493.6670, 6849.000
494.8500, 6867.000
496.0340, 6908.000
497.2170, 6989.000
498.4000, 7069.640
499.5820, 7216.000
500.7650, 7312.000
501.9480, 7443.000
503.1300, 7622.000
504.3120, 7585.000
505.4940, 7894.000
506.6760, 7853.000
507.8580, 7879.000
509.0390, 7951.000
510.2210, 7962.000
511.4020, 7949.000
512.5830, 7899.596
513.7640, 7732.000
514.9450, 7686.000
516.1250, 7502.000
517.3060, 7299.000
518.4860, 7297.000
519.6660, 7118.000
520.8460, 7117.000
522.0260, 6929.000
523.2060, 6914.000
524.3850, 6803.000
525.5650, 6739.000
526.7440, 6798.000
527.9230, 6691.000
529.1020, 6665.000
530.2810, 6550.000
531.4590, 6604.000
532.6380, 6494.000
533.8160, 6564.000
534.9940, 6566.000
536.1720, 6462.000
537.3500, 6450.000
538.5270, 6456.000
539.7050, 6455.000
540.8820, 6486.000
542.0590, 6482.067
543.2360, 6520.000
544.4130, 6465.000
545.5900, 6451.000
546.7660, 6382.000
547.9430, 6474.000
549.1190, 6455.000
550.2950, 6557.000
551.4710, 6529.000
552.6470, 6549.000
553.8220, 6556.000
554.9980, 6614.000
556.1730, 6660.000
557.3480, 6667.719
558.5230, 6685.000
559.6980, 6701.000
560.8730, 6735.000
562.0470, 6765.000
563.2220, 6779.000
564.3960, 6880.000
565.5700, 6916.000
566.7440, 6885.000
567.9170, 7004.000
569.0910, 7047.000
570.2640, 7010.000
571.4380, 6989.000
572.6110, 7025.000
573.7840, 6935.000
574.9570, 7060.000
576.1290, 6974.000
577.3020, 7072.000
578.4740, 7040.000
579.6460, 7003.000
580.8180, 6991.000
581.9900, 7023.383
583.1620, 7022.229
584.3330, 7085.000
585.5040, 7075.000
586.6760, 7024.000
587.8470, 7050.000
589.0180, 7191.000
590.1880, 7221.000
591.3590, 7442.000
592.5290, 7513.000
593.7000, 7567.000
594.8700, 7754.000
596.0400, 7768.000
597.2090, 7999.000
598.3790, 8019.000
599.5490, 8368.000
600.7180, 8511.000
601.8870, 8670.000
603.0560, 8976.000
604.2250, 9183.000
605.3940, 9327.000
606.5620, 9677.000
607.7300, 9698.000
608.8990, 10158.00
610.0670, 10266.00
611.2350, 10487.00
612.4020, 10448.00
613.5700, 10555.83
614.7370, 10566.00
615.9050, 10633.00
617.0720, 10406.00
618.2390, 10438.00
619.4060, 10314.00
620.5720, 10333.00
621.7390, 9956.000
622.9050, 9709.000
624.0710, 9501.000
625.2370, 9254.896
626.4030, 9131.000
627.5690, 8891.000
628.7340, 8763.000
629.9000, 8613.000
631.0650, 8410.000
632.2300, 8412.000
633.3950, 8270.776
634.5600, 8075.600
635.7240, 8134.000
636.8890, 7741.000
638.0530, 7675.000
639.2170, 7680.000
640.3810, 7556.000
641.5450, 7521.789
642.7080, 7525.971
643.8720, 7450.000
645.0350, 7479.000
646.1980, 7568.000
647.3610, 7405.000
648.5240, 7439.000
649.6870, 7307.000
650.8490, 7289.000
652.0120, 7358.000
653.1740, 7405.000
654.3360, 7320.000
655.4980, 7439.000
656.6600, 7386.000
657.8210, 7371.000
658.9830, 7351.000
660.1440, 7413.000
661.3050, 7463.000
662.4660, 7446.000
663.6270, 7504.000
664.7870, 7501.000
665.9480, 7512.000
667.1080, 7678.000
668.2680, 7680.000
669.4280, 7735.000
670.5880, 7740.000
671.7480, 7853.000
672.9070, 7878.000
674.0670, 8092.000
675.2260, 8149.000
676.3850, 8232.000
677.5440, 8298.000
678.7030, 8379.485
679.8610, 8418.000
681.0200, 8543.000
682.1780, 8632.000
683.3360, 8706.000
684.4940, 8754.000
685.6520, 8749.690
686.8090, 8633.000
687.9670, 8626.000
689.1240, 8564.000
690.2810, 8358.000
691.4380, 8272.000
692.5950, 8180.000
693.7520, 8011.000
694.9080, 7885.000
696.0650, 7758.000
697.2210, 7589.000
698.3770, 7583.000
699.5330, 7504.000
700.6880, 7434.000
701.8440, 7334.342
702.9990, 7195.000
704.1550, 7133.000
705.3100, 7032.000
706.4650, 7030.000
707.6190, 6926.000
708.7740, 6881.000
709.9290, 6849.000
711.0830, 6774.000
712.2370, 6756.000
713.3910, 6777.000
714.5450, 6692.000
715.6980, 6749.000
716.8520, 6586.000
718.0050, 6656.000
719.1580, 6600.000
720.3110, 6563.000
721.4640, 6646.000
722.6170, 6613.000
723.7700, 6522.000
724.9220, 6547.000
726.0740, 6506.000
727.2260, 6544.000
728.3780, 6561.000
729.5300, 6569.000
730.6810, 6484.000
731.8330, 6518.000
732.9840, 6463.000
734.1350, 6537.000
735.2860, 6413.000
736.4370, 6415.000
737.5880, 6453.000
738.7380, 6420.000
739.8880, 6351.000
741.0390, 6396.000
742.1890, 6384.000
743.3380, 6417.000
744.4880, 6267.000
745.6380, 6378.000
746.7870, 6299.000
747.9360, 6329.000
749.0850, 6391.000
750.2340, 6375.000
751.3830, 6466.000
752.5310, 6504.000
753.6800, 6364.000
754.8280, 6342.000
755.9760, 6408.000
757.1240, 6301.000
758.2720, 6401.000
759.4190, 6433.000
760.5670, 6433.000
761.7140, 6288.000
762.8610, 6371.000
764.0080, 6382.000
765.1550, 6392.000
766.3020, 6417.000
767.4480, 6335.000
768.5950, 6383.000
769.7410, 6334.000
770.8870, 6245.000
772.0330, 6347.000
773.1780, 6399.000
774.3240, 6277.000
775.4690, 6337.000
776.6140, 6318.000
777.7590, 6363.000
778.9040, 6323.000
780.0490, 6410.000
781.1940, 6349.000
782.3380, 6348.000
783.4820, 6354.000
784.6260, 6344.000
785.7700, 6329.000
786.9140, 6354.000
788.0580, 6323.000
789.2010, 6363.000
790.3450, 6361.410
791.4880, 6367.000
792.6310, 6379.000
793.7730, 6380.000
794.9160, 6384.000
796.0590, 6333.000
797.2010, 6272.000
798.3430, 6274.000
799.4850, 6241.140
800.6270, 6342.000
801.7690, 6288.000
802.9100, 6330.000
804.0520, 6498.000
805.1930, 6396.000
806.3340, 6286.000
807.4750, 6324.000
808.6160, 6402.000
809.7560, 6266.000
810.8970, 6339.000
812.0370, 6301.000
813.1770, 6331.000
814.3170, 6320.000
815.4570, 6328.333
816.5960, 6327.000
817.7360, 6330.000
818.8750, 6378.650
820.0140, 6329.991
821.1530, 6392.000
822.2920, 6502.000
823.4310, 6415.000
824.5690, 6441.180
825.7070, 6375.000
826.8460, 6395.000
827.9840, 6306.000
829.1220, 6357.000
830.2590, 6359.462
831.3970, 6483.000
832.5340, 6441.000
833.6710, 6388.000
834.8080, 6470.000
835.9450, 6351.000
837.0820, 6427.000
838.2190, 6334.000
839.3550, 6441.000
840.4910, 6446.000
841.6270, 6324.000
842.7630, 6397.000
843.8990, 6523.000
845.0350, 6387.000
846.1700, 6449.000
847.3060, 6435.000
848.4410, 6485.000
849.5760, 6464.000
850.7100, 6505.000
851.8450, 6417.000
852.9800, 6421.000
854.1140, 6414.000
855.2480, 6564.000
856.3820, 6432.000
857.5160, 6603.000
858.6500, 6499.000
859.7830, 6533.000
860.9170, 6604.000
862.0500, 6527.314
863.1830, 6463.000
864.3160, 6478.000
865.4480, 6441.000
866.5810, 6443.000
867.7130, 6471.000
868.8460, 6488.000
869.9780, 6471.000
871.1100, 6615.000
872.2410, 6697.000
873.3730, 6691.950
874.5050, 6686.095
875.6360, 6704.000
876.7670, 6549.000
877.8980, 6538.000
879.0290, 6480.000
880.1590, 6575.000
881.2900, 6528.000
882.4200, 6593.000
883.5500, 6537.000
884.6800, 6515.000
885.8100, 6646.000
886.9400, 6522.000
888.0690, 6609.000
889.1990, 6651.000
890.3280, 6588.000
891.4570, 6652.000
892.5860, 6621.000
893.7140, 6519.000
894.8430, 6600.000
895.9710, 6577.000
897.1000, 6709.000
898.2280, 6808.000
899.3560, 6785.000
900.4830, 6699.000
901.6110, 6809.000
902.7380, 6736.000
903.8660, 6699.000
904.9930, 6796.000
906.1200, 6742.000
907.2460, 6647.000
908.3730, 6831.000
909.5000, 6824.000
910.6260, 6745.000
911.7520, 6863.000
912.8780, 6817.000
914.0040, 6864.000
915.1290, 6764.000
916.2550, 6840.000
917.3800, 6771.000
918.5050, 6753.000
919.6300, 6746.000
920.7550, 6808.000
921.8800, 6862.000
923.0040, 6846.000
924.1290, 6871.000
925.2530, 6960.000
926.3770, 7003.000
927.5010, 6954.000
928.6250, 7134.000
929.7480, 6846.000
930.8720, 6985.000
931.9950, 7004.000
933.1180, 7109.000
934.2410, 7048.000
935.3640, 7077.000
936.4860, 7107.000
937.6090, 7173.000
938.7310, 7211.000
939.8530, 7358.000
940.9750, 7261.000
942.0970, 7201.000
943.2180, 7258.000
944.3400, 7364.000
945.4610, 7317.000
946.5820, 7415.000
947.7030, 7413.000
948.8240, 7529.000
949.9450, 7532.000
951.0650, 7572.000
952.1860, 7569.000
953.3060, 7596.000
954.4260, 7743.000
955.5460, 7670.000
956.6650, 7733.000
957.7850, 7712.717
958.9040, 7838.000
960.0230, 7669.000
961.1420, 7664.000
962.2610, 7708.000
963.3800, 7800.000
964.4990, 7694.000
965.6170, 7658.000
966.7350, 7636.000
967.8530, 7619.000
968.9710, 7608.000
970.0890, 7566.000
971.2070, 7535.000
972.3240, 7580.000
973.4410, 7585.000
974.5580, 7486.000
975.6750, 7502.000
976.7920, 7544.000
977.9090, 7474.335
979.0250, 7449.735
980.1410, 7449.000
981.2580, 7316.000
982.3740, 7380.000
983.4890, 7319.000
984.6050, 7242.000
985.7200, 7219.000
986.8360, 7208.000
987.9510, 7288.000
989.0660, 7224.000
990.1810, 7284.000
991.2950, 7354.000
992.4100, 7260.000
993.5240, 7387.000
994.6390, 7263.000
995.7530, 7355.000
996.8660, 7304.000
997.9800, 7280.000
999.0940, 7340.000
1000.207, 7325.000
1001.320, 7377.000
1002.433, 7279.000
1003.546, 7350.000
1004.659, 7344.000
1005.772, 7394.000
1006.884, 7401.000
1007.996, 7307.000
1009.108, 7254.000
1010.220, 7365.000
1011.332, 7216.000
1012.444, 7212.000
1013.555, 7249.000
1014.666, 7207.000
1015.777, 7237.000
1016.888, 7345.000
1017.999, 7264.000
1019.110, 7368.000
1020.220, 7352.000
1021.331, 7298.000
1022.441, 7367.000
1023.551, 7330.000
1024.661, 7237.000
1025.770, 7351.000
1026.880, 7323.000
1027.989, 7188.000
1029.098, 7296.000
1030.207, 7325.000
1031.316, 7279.905
1032.425, 7308.118
1033.533, 7319.000
1034.642, 7251.000
1035.750, 7292.405
1036.858, 7283.994
1037.966, 7316.000
1039.073, 7324.000
1040.181, 7342.000
1041.288, 7391.000
1042.396, 7384.000
1043.503, 7375.000
1044.610, 7421.000
1045.716, 7408.000
1046.823, 7418.252
1047.929, 7411.000
1049.036, 7406.000
1050.142, 7431.000
1051.248, 7391.000
1052.353, 7481.000
1053.459, 7432.000
1054.564, 7429.000
1055.670, 7388.000
1056.775, 7462.000
1057.880, 7491.000
1058.985, 7427.000
1060.089, 7544.000
1061.194, 7601.000
1062.298, 7577.090
1063.402, 7562.145
1064.506, 7512.000
1065.610, 7502.000
1066.713, 7345.000
1067.817, 7496.000
1068.920, 7473.000
1070.023, 7565.000
1071.126, 7474.000
1072.229, 7572.000
1073.332, 7667.000
1074.435, 7534.000
1075.537, 7545.000
1076.639, 7602.000
1077.741, 7478.000
1078.843, 7438.000
1079.945, 7385.000
1081.046, 7409.000
1082.148, 7585.000
1083.249, 7488.000
1084.350, 7466.000
1085.451, 7590.000
1086.551, 7502.000
1087.652, 7554.000
1088.752, 7553.000
1089.853, 7462.000
1090.953, 7483.000
1092.053, 7462.000
1093.152, 7450.000
1094.252, 7532.000
1095.351, 7567.000
1096.451, 7505.000
1097.550, 7485.000
1098.649, 7437.000
1099.748, 7438.726
1100.846, 7478.000
1101.945, 7461.000
1103.043, 7492.000
1104.141, 7518.000
1105.239, 7421.000
1106.337, 7440.000
1107.434, 7422.000
1108.532, 7462.000
1109.629, 7356.000
1110.726, 7373.000
1111.823, 7484.000
1112.920, 7437.000
1114.017, 7535.000
1115.113, 7476.000
1116.210, 7684.000
1117.306, 7635.000
1118.402, 7801.000
1119.498, 7981.000
1120.593, 8010.000
1121.689, 8026.000
1122.784, 8022.000
1123.879, 8078.000
1124.974, 7948.000
1126.069, 7885.000
1127.164, 7658.000
1128.259, 7669.000
1129.353, 7599.000
1130.447, 7477.000
1131.541, 7403.000
1132.635, 7382.000
1133.729, 7261.000
1134.822, 7373.000
1135.916, 7294.000
1137.009, 7439.000
1138.102, 7473.000
1139.195, 7452.000
1140.288, 7533.000
1141.380, 7372.000
1142.473, 7354.000
1143.565, 7293.000
1144.657, 7327.000
1145.749, 7394.000
1146.841, 7273.000
1147.932, 7378.000
1149.024, 7220.000
1150.115, 7465.000
1151.206, 7390.000
1152.297, 7338.000
1153.388, 7426.000
1154.479, 7400.000
1155.569, 7328.000
1156.659, 7414.000
1157.750, 7375.000
1158.839, 7309.000
1159.929, 7339.000
1161.019, 7301.000
1162.108, 7321.000
1163.198, 7341.000
1164.287, 7434.000
1165.376, 7386.000
1166.465, 7405.000
1167.553, 7331.000
1168.642, 7301.000
1169.730, 7346.000
1170.818, 7402.000
1171.906, 7291.000
1172.994, 7303.000
1174.082, 7265.000
1175.170, 7406.000
1176.257, 7357.000
1177.344, 7358.000
1178.431, 7436.000
1179.518, 7450.000
1180.605, 7486.000
1181.691, 7391.000
1182.778, 7484.000
1183.864, 7345.000
1184.950, 7394.000
1186.036, 7380.000
1187.122, 7379.000
1188.207, 7322.000
1189.292, 7378.000
1190.378, 7336.000
1191.463, 7428.000
1192.548, 7394.000
1193.632, 7419.000
1194.717, 7331.000
1195.801, 7418.000
1196.886, 7384.000
1197.970, 7320.000
1199.054, 7474.000
1200.137, 7506.000
1201.221, 7339.000
1202.305, 7450.000
1203.388, 7441.000
1204.471, 7521.000
1205.554, 7532.000
1206.637, 7511.078
1207.719, 7510.000
1208.802, 7454.000
1209.884, 7462.000
1210.966, 7441.000
1212.048, 7366.000
1213.130, 7478.000
1214.212, 7427.000
1215.293, 7549.000
1216.374, 7541.000
1217.456, 7506.000
1218.536, 7681.000
1219.617, 7597.000
1220.698, 7478.000
1221.778, 7485.000
1222.859, 7538.154
1223.939, 7576.290
1225.019, 7598.522
1226.099, 7605.707
1227.178, 7552.770
1228.258, 7577.466
1229.337, 7571.049
1230.417, 7563.358
1231.496, 7598.979
1232.574, 7554.784
1233.653, 7589.718
1234.732, 7554.000
1235.810, 7641.000
1236.888, 7518.000
1237.966, 7490.000
1239.044, 7554.000
1240.122, 7446.000
1241.199, 7438.000
1242.277, 7631.000
1243.354, 7486.000
1244.431, 7614.000
1245.508, 7575.000
1246.585, 7690.000
1247.661, 7693.000
1248.738, 7607.000
1249.814, 7517.000
1250.890, 7435.000
1251.966, 7579.000
1253.042, 7488.000
1254.117, 7514.000
1255.193, 7340.000
1256.268, 7479.000
1257.343, 7448.000
1258.418, 7587.000
1259.493, 7640.000
1260.567, 7618.000
1261.642, 7542.000
1262.716, 7594.979
1263.790, 7527.000
1264.864, 7560.000
1265.938, 7581.000
1267.011, 7555.524
1268.085, 7515.000
1269.158, 7555.000
1270.231, 7572.000
1271.304, 7588.000
1272.377, 7620.608
1273.450, 7601.000
1274.522, 7642.000
1275.594, 7588.000
1276.666, 7524.000
1277.738, 7605.000
1278.810, 7568.000
1279.882, 7572.000
1280.953, 7573.000
1282.025, 7494.000
1283.096, 7623.000
1284.167, 7608.000
1285.238, 7745.000
1286.308, 7686.000
1287.379, 7620.000
1288.449, 7624.000
1289.519, 7567.000
1290.589, 7613.000
1291.659, 7615.000
1292.729, 7632.000
1293.798, 7651.000
1294.868, 7691.000
1295.937, 7692.721
1297.006, 7719.000
1298.075, 7679.000
1299.143, 7668.000
1300.212, 7596.000
1301.280, 7777.000
1302.348, 7723.000
1303.416, 7689.000
1304.484, 7624.000
1305.552, 7631.000
1306.620, 7658.000
1307.687, 7656.976
1308.754, 7646.316
1309.821, 7766.000
1310.888, 7627.000
1311.955, 7775.000
1313.021, 7820.000
1314.088, 7832.000
1315.154, 7767.000
1316.220, 7737.000
1317.286, 7771.000
1318.352, 7868.000
1319.417, 7823.000
1320.483, 7685.000
1321.548, 7921.000
1322.613, 7720.000
1323.678, 7834.000
1324.743, 7790.000
1325.807, 7821.000
1326.872, 7855.000
1327.936, 7830.182
1329.000, 7849.449
1330.064, 7816.000
1331.128, 7831.000
1332.191, 7820.000
1333.255, 7785.000
1334.318, 7896.000
1335.381, 7785.000
1336.444, 7722.000
1337.507, 7883.000
1338.569, 7798.000
1339.632, 7974.000
1340.694, 7871.000
1341.756, 7813.000
1342.818, 7826.000
1343.880, 7804.843
1344.941, 7830.000
1346.003, 7821.000
1347.064, 7875.000
1348.125, 7814.000
1349.186, 7779.000
1350.247, 7714.000
1351.308, 7835.000
1352.368, 7809.000
1353.428, 7920.000
1354.489, 7929.000
1355.549, 7847.000
1356.608, 7828.000
1357.668, 7866.000
1358.727, 7896.000
1359.787, 7833.000
1360.846, 7918.000
1361.905, 7912.000
1362.964, 7862.000
1364.022, 7878.000
1365.081, 7946.000
1366.139, 7962.000
1367.197, 7888.000
1368.255, 7992.000
1369.313, 7902.000
1370.371, 7822.000
1371.428, 7963.000
1372.486, 7978.000
1373.543, 7970.308
1374.600, 7985.000
1375.657, 7963.000
1376.713, 7923.000
1377.770, 7898.000
1378.826, 7956.000
1379.882, 8025.000
1380.938, 7967.000
1381.994, 7978.000
1383.050, 7872.000
1384.106, 7817.000
1385.161, 7910.000
1386.216, 7902.000
1387.271, 7885.000
1388.326, 7860.000
1389.381, 7995.000
1390.435, 7973.000
1391.490, 7939.000
1392.544, 7831.000
1393.598, 7984.000
1394.652, 7882.000
1395.705, 7864.000
1396.759, 7970.000
1397.812, 7874.000
1398.866, 7939.000
1399.919, 7871.000
1400.972, 7780.000
1402.024, 7733.000
1403.077, 7787.000
1404.129, 7897.000
1405.181, 7985.000
1406.233, 7964.000
1407.285, 7940.000
1408.337, 7813.000
1409.389, 7821.035
1410.440, 7782.000
1411.491, 7783.000
1412.542, 7824.000
1413.593, 7845.000
1414.644, 7812.000
1415.695, 7801.000
1416.745, 7876.000
1417.795, 7912.000
1418.845, 7786.000
1419.895, 7829.000
1420.945, 7877.000
1421.995, 7937.000
1423.044, 7857.000
1424.093, 7771.000
1425.142, 7811.000
1426.191, 7778.000
1427.240, 7782.000
1428.289, 7811.000
1429.337, 7808.015
1430.385, 7800.000
1431.433, 7819.000
1432.481, 7847.000
1433.529, 7801.000
1434.577, 7929.000
1435.624, 7763.000
1436.672, 7743.000
1437.719, 7786.944
1438.766, 7823.968
1439.812, 7845.089
1440.859, 7851.163
1441.905, 7797.115
1442.952, 7820.701
1443.998, 7813.174
1445.044, 7804.372
1446.090, 7838.884
1447.135, 7793.581
1448.181, 7827.405
1449.226, 7829.643
1450.271, 7846.337
1451.316, 7831.728
1452.361, 7826.787
1453.405, 7853.159
1454.450, 7862.193
1455.494, 7843.979
1456.538, 7861.592
1457.582, 7815.194
1458.626, 7746.000
1459.670, 7810.000
1460.713, 7765.000
1461.757, 7839.000
1462.800, 7839.000
1463.843, 7715.000
1464.886, 7781.000
1465.928, 7662.000
1466.971, 7826.000
1468.013, 7767.000
1469.055, 7788.000
1470.097, 7977.000
1471.139, 7861.000
1472.181, 7882.000
1473.222, 7916.000
1474.263, 7920.000
1475.305, 7890.000
1476.346, 7883.542
1477.386, 7892.000
1478.427, 7822.000
1479.468, 7798.000
1480.508, 7766.000
1481.548, 7875.000
1482.588, 7845.000
1483.628, 7963.000
1484.668, 7871.000
1485.707, 7894.000
1486.747, 7904.000
1487.786, 7879.176
1488.825, 7931.000
1489.864, 7902.000
1490.902, 7872.750
1491.941, 7919.000
1492.979, 7804.000
1494.017, 7793.000
1495.055, 7894.000
1496.093, 7800.000
1497.131, 7911.000
1498.168, 7816.000
1499.206, 8006.000
1500.243, 7894.000
1501.280, 7930.000
1502.317, 7948.000
1503.354, 7874.000
1504.390, 7827.000
1505.426, 7908.000
1506.463, 7921.000
1507.499, 7838.000
1508.535, 7854.000
1509.570, 7994.000
1510.606, 7909.000
1511.641, 8034.000
1512.676, 8003.000
1513.711, 8062.000
1514.746, 8022.000
1515.781, 7999.000
1516.816, 8022.000
1517.850, 7988.897
1518.884, 7991.367
1519.918, 7962.000
1520.952, 7962.000
1521.986, 7942.000
1523.019, 7887.000
1524.053, 7940.000
1525.086, 7925.333
1526.119, 8096.000
1527.152, 7984.000
1528.185, 8030.000
1529.217, 8107.000
1530.250, 8050.000
1531.282, 7956.000
1532.314, 7976.000
1533.346, 7916.000
1534.377, 8005.000
1535.409, 8029.000
1536.440, 8020.000
1537.472, 8124.000
1538.503, 8010.000
1539.534, 8090.000
1540.564, 8161.000
1541.595, 8131.000
1542.625, 8220.000
1543.656, 8074.000
1544.686, 8028.000
1545.716, 8020.904
1546.745, 8066.689
1547.775, 8096.582
1548.804, 8111.415
1549.834, 8066.138
1550.863, 8098.485
1551.892, 8099.719
1552.920, 8099.670
1553.949, 8142.942
1554.977, 8106.392
1556.006, 8148.978
1557.034, 8159.969
1558.062, 8185.415
1559.089, 8179.548
1560.117, 8183.360
1561.144, 8218.477
1562.172, 8122.000
1563.199, 8175.000
1564.226, 8281.000
1565.252, 8208.000
1566.279, 8251.000
1567.305, 8182.000
1568.332, 8252.000
1569.358, 8315.000
1570.384, 8228.000
##END=



