##NAMES=Braunite
##RRUFFID=R050388
##IDEAL CHEMISTRY=Mn^2+^Mn^3+^_6_SiO_12_
##LOCALITY=Langban, Filipstad, Varmland, Sweden
##OWNER=RRUFF
##SOURCE=University of Arizona Mineral Museum
##DESCRIPTION=Black crystals
##STATUS=The identification of this mineral has been confirmed by X-ray diffraction and chemical analysis
##URL=rruff.info/R050388
##MEASURED CHEMISTRY=(Mn^2+^_0.96_Mg_0.04_)_Î£=1_Mn^3+^_6.00_Si_1.00_O_12_
##PIN_ID=M00354
##ORIENTATION=Laser parallel to -c* (0 0 -1). Fiducial mark perpendicular to laser is parallel to a [1 0 0]
157.4550, 44548.00
158.6810, 44621.00
159.9080, 44757.00
161.1340, 44915.00
162.3590, 45187.00
163.5850, 45355.00
164.8110, 45345.00
166.0360, 45595.00
167.2610, 45534.00
168.4860, 45881.00
169.7110, 45904.00
170.9360, 45719.00
172.1610, 45855.00
173.3850, 46033.00
174.6100, 45888.00
175.8340, 46230.00
177.0580, 46183.00
178.2820, 46422.00
179.5050, 46647.00
180.7290, 46820.00
181.9520, 47117.00
183.1760, 47278.66
184.3990, 47513.00
185.6220, 47770.00
186.8450, 48217.00
188.0670, 48728.00
189.2900, 49211.00
190.5120, 49537.00
191.7340, 50383.00
192.9560, 50722.00
194.1780, 50912.00
195.4000, 51641.00
196.6220, 52162.13
197.8430, 52865.00
199.0640, 53649.00
200.2860, 54713.00
201.5070, 55617.00
202.7270, 55876.61
203.9480, 56907.00
205.1690, 56220.00
206.3890, 56247.00
207.6090, 56318.00
208.8290, 56648.00
210.0490, 56993.00
211.2690, 57115.00
212.4890, 56934.00
213.7080, 56300.00
214.9280, 55534.00
216.1470, 55017.00
217.3660, 54218.50
218.5850, 53337.00
219.8030, 52701.00
221.0220, 52103.00
222.2400, 51339.00
223.4590, 50824.00
224.6770, 50909.00
225.8950, 49981.00
227.1120, 49643.00
228.3300, 49365.00
229.5480, 48742.00
230.7650, 48429.00
231.9820, 48371.00
233.1990, 47937.00
234.4160, 47680.00
235.6330, 47657.00
236.8490, 47808.00
238.0660, 47907.00
239.2820, 47665.00
240.4980, 47873.00
241.7140, 48023.00
242.9300, 47622.00
244.1460, 48291.00
245.3610, 48720.00
246.5770, 47828.00
247.7920, 47853.00
249.0070, 47541.00
250.2220, 47569.00
251.4370, 47281.00
252.6510, 47078.00
253.8660, 47141.00
255.0800, 46974.00
256.2940, 47234.00
257.5080, 47522.00
258.7220, 47558.23
259.9360, 47376.10
261.1490, 47826.00
262.3630, 46845.00
263.5760, 46768.00
264.7890, 46780.00
266.0020, 46643.00
267.2150, 46676.00
268.4270, 46381.00
269.6400, 46695.00
270.8520, 46759.00
272.0640, 46770.00
273.2760, 46535.00
274.4880, 46693.00
275.7000, 46838.00
276.9120, 46751.00
278.1230, 46827.00
279.3340, 46698.00
280.5450, 46875.00
281.7560, 46767.00
282.9670, 46786.00
284.1780, 46746.00
285.3880, 46944.00
286.5980, 46758.00
287.8090, 47129.00
289.0190, 46914.00
290.2290, 46865.00
291.4380, 47405.00
292.6480, 47024.00
293.8570, 47280.00
295.0670, 47144.00
296.2760, 47054.00
297.4850, 47404.00
298.6930, 47420.00
299.9020, 47154.00
301.1110, 47282.00
302.3190, 47249.00
303.5270, 47743.00
304.7350, 47479.00
305.9430, 47415.00
307.1510, 47613.00
308.3580, 47452.00
309.5660, 48093.00
310.7730, 47869.00
311.9800, 47989.00
313.1870, 48317.00
314.3940, 48239.00
315.6010, 48339.00
316.8070, 48360.00
318.0130, 48283.00
319.2200, 48565.00
320.4260, 49039.00
321.6310, 48891.00
322.8370, 49511.00
324.0430, 49917.00
325.2480, 49763.00
326.4540, 50295.00
327.6590, 50282.00
328.8640, 50440.00
330.0680, 50647.00
331.2730, 50601.00
332.4780, 50078.45
333.6820, 50198.50
334.8860, 50216.84
336.0900, 50138.93
337.2940, 49676.46
338.4980, 49710.56
339.7010, 49545.75
340.9050, 49372.68
342.1080, 49476.76
343.3110, 49198.00
344.5140, 49104.00
345.7170, 49146.42
346.9200, 49117.43
348.1220, 49226.00
349.3240, 49198.00
350.5270, 49199.00
351.7290, 49202.00
352.9310, 49251.00
354.1320, 49200.00
355.3340, 49134.00
356.5350, 49221.25
357.7370, 49281.00
358.9380, 49349.00
360.1390, 49530.00
361.3400, 49595.00
362.5400, 49672.00
363.7410, 49806.00
364.9410, 49734.00
366.1410, 49653.00
367.3410, 49554.00
368.5410, 49965.00
369.7410, 50069.00
370.9400, 50098.00
372.1400, 49878.00
373.3390, 50247.00
374.5380, 50047.00
375.7370, 50108.00
376.9360, 50220.00
378.1350, 50005.00
379.3330, 50445.00
380.5310, 50050.00
381.7300, 50093.00
382.9280, 50104.00
384.1260, 50221.00
385.3230, 50203.92
386.5210, 50338.00
387.7180, 50248.00
388.9160, 50109.00
390.1130, 50179.00
391.3100, 50846.00
392.5060, 50801.00
393.7030, 50291.00
394.9000, 50680.00
396.0960, 50392.00
397.2920, 50330.00
398.4880, 50545.00
399.6840, 50534.00
400.8800, 50571.00
402.0750, 50606.00
403.2710, 50660.15
404.4660, 50806.00
405.6610, 50793.00
406.8560, 51016.00
408.0510, 51073.00
409.2450, 51268.00
410.4400, 50815.00
411.6340, 51590.00
412.8280, 51817.00
414.0220, 51058.00
415.2160, 51348.00
416.4100, 51284.00
417.6030, 51450.00
418.7970, 51549.00
419.9900, 51566.00
421.1830, 51756.00
422.3760, 51786.00
423.5690, 51813.00
424.7610, 51845.00
425.9540, 51852.13
427.1460, 51926.00
428.3380, 51856.00
429.5300, 51853.00
430.7220, 51839.00
431.9140, 51760.00
433.1050, 51847.63
434.2970, 51830.27
435.4880, 51999.00
436.6790, 51941.00
437.8700, 52018.00
439.0610, 52184.00
440.2510, 52361.00
441.4420, 52317.00
442.6320, 52582.00
443.8220, 52299.00
445.0120, 52572.00
446.2020, 52336.00
447.3910, 52499.00
448.5810, 52230.00
449.7700, 52452.00
450.9600, 52765.00
452.1490, 52753.00
453.3370, 52569.00
454.5260, 52607.00
455.7150, 52697.00
456.9030, 52564.00
458.0910, 52844.00
459.2800, 53136.00
460.4670, 53180.00
461.6550, 52935.00
462.8430, 53132.00
464.0300, 53208.00
465.2180, 53417.00
466.4050, 53535.42
467.5920, 53569.00
468.7790, 53832.00
469.9650, 53786.00
471.1520, 53986.00
472.3380, 53852.00
473.5250, 54238.00
474.7110, 54226.00
475.8970, 54250.00
477.0820, 54043.00
478.2680, 54286.00
479.4540, 54172.00
480.6390, 54443.00
481.8240, 54360.00
483.0090, 54384.00
484.1940, 54530.00
485.3780, 54581.00
486.5630, 54505.00
487.7470, 54652.00
488.9320, 54578.00
490.1160, 54441.00
491.3000, 54584.00
492.4830, 54650.00
493.6670, 54660.00
494.8500, 54620.00
496.0340, 54861.00
497.2170, 55086.00
498.4000, 55182.00
499.5820, 55225.00
500.7650, 55452.28
501.9480, 55739.00
503.1300, 55809.00
504.3120, 56100.00
505.4940, 56275.00
506.6760, 56511.00
507.8580, 56678.00
509.0390, 57146.00
510.2210, 57066.00
511.4020, 56856.00
512.5830, 56621.00
513.7640, 56921.00
514.9450, 56786.00
516.1250, 56402.00
517.3060, 56597.00
518.4860, 56448.00
519.6660, 56202.00
520.8460, 55976.00
522.0260, 56015.00
523.2060, 55695.00
524.3850, 55766.00
525.5650, 55693.00
526.7440, 55661.00
527.9230, 55975.00
529.1020, 56001.00
530.2810, 55820.00
531.4590, 55569.00
532.6380, 55683.00
533.8160, 55628.00
534.9940, 55505.00
536.1720, 55840.00
537.3500, 55630.00
538.5270, 55962.00
539.7050, 55833.00
540.8820, 56318.00
542.0590, 55806.00
543.2360, 56095.00
544.4130, 55771.00
545.5900, 56246.00
546.7660, 56384.00
547.9430, 56135.00
549.1190, 56489.00
550.2950, 56177.00
551.4710, 56286.00
552.6470, 56247.00
553.8220, 56205.00
554.9980, 56297.00
556.1730, 56378.00
557.3480, 56290.00
558.5230, 56415.00
559.6980, 56499.00
560.8730, 56682.00
562.0470, 56662.00
563.2220, 56526.00
564.3960, 56656.00
565.5700, 56860.00
566.7440, 56627.00
567.9170, 56907.39
569.0910, 56898.54
570.2640, 57195.00
571.4380, 57001.00
572.6110, 57076.00
573.7840, 57074.00
574.9570, 56858.18
576.1290, 56743.00
577.3020, 56434.00
578.4740, 56226.00
579.6460, 55924.00
580.8180, 55848.00
581.9900, 55693.00
583.1620, 55563.00
584.3330, 55543.36
585.5040, 55451.83
586.6760, 55426.00
587.8470, 55433.00
589.0180, 55418.98
590.1880, 55304.00
591.3590, 55415.00
592.5290, 55506.00
593.7000, 55409.00
594.8700, 55685.00
596.0400, 55405.00
597.2090, 55644.00
598.3790, 55853.00
599.5490, 55849.28
600.7180, 56132.00
601.8870, 56037.00
603.0560, 56711.00
604.2250, 56707.00
605.3940, 57216.00
606.5620, 57183.00
607.7300, 57368.00
608.8990, 57937.00
610.0670, 58464.00
611.2350, 58517.00
612.4020, 58860.00
613.5700, 58983.00
614.7370, 59405.00
615.9050, 59543.00
617.0720, 59607.00
618.2390, 59757.00
619.4060, 59402.00
620.5720, 59374.00
621.7390, 59095.00
622.9050, 58980.00
624.0710, 58676.00
625.2370, 58457.58
626.4030, 57893.00
627.5690, 57917.00
628.7340, 57600.00
629.9000, 57223.00
631.0650, 57146.00
632.2300, 57017.00
633.3950, 56862.00
634.5600, 56386.00
635.7240, 56720.00
636.8890, 56514.00
638.0530, 56351.00
639.2170, 56508.00
640.3810, 56115.00
641.5450, 55880.00
642.7080, 55887.00
643.8720, 56072.00
645.0350, 55895.00
646.1980, 55810.00
647.3610, 56116.00
648.5240, 56142.00
649.6870, 55612.00
650.8490, 56311.00
652.0120, 56051.00
653.1740, 55862.00
654.3360, 56078.00
655.4980, 56217.00
656.6600, 56338.00
657.8210, 56054.00
658.9830, 56287.00
660.1440, 56187.00
661.3050, 56155.00
662.4660, 56592.00
663.6270, 56880.00
664.7870, 56588.00
665.9480, 56664.00
667.1080, 56996.00
668.2680, 56939.00
669.4280, 57497.00
670.5880, 57152.00
671.7480, 57656.00
672.9070, 58430.00
674.0670, 57864.00
675.2260, 58252.00
676.3850, 58487.00
677.5440, 58724.00
678.7030, 59021.00
679.8610, 59596.00
681.0200, 59802.00
682.1780, 60506.00
683.3360, 60755.00
684.4940, 61536.00
685.6520, 61608.00
686.8090, 61995.00
687.9670, 62306.00
689.1240, 62065.00
690.2810, 62518.00
691.4380, 62147.47
692.5950, 61768.00
693.7520, 61323.00
694.9080, 60992.00
696.0650, 60158.00
697.2210, 59491.00
698.3770, 59210.00
699.5330, 58818.00
700.6880, 58573.00
701.8440, 58426.00
702.9990, 57625.00
704.1550, 57541.00
705.3100, 57551.00
706.4650, 57141.00
707.6190, 57244.00
708.7740, 57217.00
709.9290, 56949.00
711.0830, 56558.00
712.2370, 56572.00
713.3910, 56732.00
714.5450, 56417.00
715.6980, 56425.00
716.8520, 56289.00
718.0050, 56299.00
719.1580, 56365.00
720.3110, 56453.00
721.4640, 56327.00
722.6170, 55981.00
723.7700, 56096.00
724.9220, 55938.00
726.0740, 55992.00
727.2260, 56051.80
728.3780, 56148.00
729.5300, 56139.00
730.6810, 56204.00
731.8330, 56113.00
732.9840, 56188.00
734.1350, 56083.00
735.2860, 55824.00
736.4370, 56091.00
737.5880, 56060.00
738.7380, 55770.00
739.8880, 55989.00
741.0390, 56018.00
742.1890, 55832.00
743.3380, 56050.00
744.4880, 55854.00
745.6380, 56294.00
746.7870, 56007.00
747.9360, 56156.00
749.0850, 55903.00
750.2340, 56022.00
751.3830, 56274.00
752.5310, 56190.00
753.6800, 56253.33
754.8280, 56294.55
755.9760, 56030.00
757.1240, 56266.00
758.2720, 55873.00
759.4190, 55766.00
760.5670, 55753.00
761.7140, 56237.00
762.8610, 56048.00
764.0080, 56355.00
765.1550, 55906.00
766.3020, 56432.00
767.4480, 56106.00
768.5950, 56298.00
769.7410, 56086.00
770.8870, 56218.00
772.0330, 56347.00
773.1780, 56079.00
774.3240, 56300.00
775.4690, 56348.00
776.6140, 56283.00
777.7590, 56391.00
778.9040, 56368.00
780.0490, 56112.00
781.1940, 56400.00
782.3380, 56501.00
783.4820, 56070.00
784.6260, 56133.00
785.7700, 56648.00
786.9140, 56168.00
788.0580, 56354.00
789.2010, 56581.00
790.3450, 56189.00
791.4880, 56229.00
792.6310, 56282.00
793.7730, 56211.00
794.9160, 56274.23
796.0590, 56502.00
797.2010, 56337.00
798.3430, 56522.00
799.4850, 56603.00
800.6270, 56484.00
801.7690, 56564.00
802.9100, 56403.00
804.0520, 56385.00
805.1930, 56677.00
806.3340, 56222.00
807.4750, 56543.00
808.6160, 56047.00
809.7560, 56512.00
810.8970, 56541.00
812.0370, 56642.00
813.1770, 56854.00
814.3170, 56856.20
815.4570, 56893.51
816.5960, 56903.00
817.7360, 56733.00
818.8750, 56603.00
820.0140, 56279.00
821.1530, 56791.00
822.2920, 56575.00
823.4310, 56646.00
824.5690, 57282.00
825.7070, 56487.00
826.8460, 56869.00
827.9840, 56775.00
829.1220, 56248.00
830.2590, 57242.00
831.3970, 56837.00
832.5340, 56796.00
833.6710, 56668.00
834.8080, 56695.00
835.9450, 56660.43
837.0820, 56752.00
838.2190, 56741.00
839.3550, 56786.00
840.4910, 56978.00
841.6270, 56492.00
842.7630, 56515.00
843.8990, 56712.00
845.0350, 56839.00
846.1700, 56646.00
847.3060, 56580.00
848.4410, 56808.00
849.5760, 56930.00
850.7100, 56699.00
851.8450, 56705.00
852.9800, 57100.00
854.1140, 56806.00
855.2480, 56565.00
856.3820, 56465.00
857.5160, 57068.00
858.6500, 56972.00
859.7830, 56889.00
860.9170, 57017.76
862.0500, 56849.00
863.1830, 56866.00
864.3160, 56795.00
865.4480, 56698.00
866.5810, 57122.00
867.7130, 56961.00
868.8460, 56941.00
869.9780, 57306.00
871.1100, 57054.00
872.2410, 56939.00
873.3730, 57025.00
874.5050, 56980.00
875.6360, 56896.00
876.7670, 57115.00
877.8980, 57027.00
879.0290, 56754.00
880.1590, 57138.00
881.2900, 57411.00
882.4200, 57273.00
883.5500, 57536.00
884.6800, 57371.00
885.8100, 57217.00
886.9400, 57350.00
888.0690, 57388.00
889.1990, 57325.00
890.3280, 57270.00
891.4570, 57323.91
892.5860, 57241.00
893.7140, 57372.00
894.8430, 57444.00
895.9710, 57411.00
897.1000, 57553.00
898.2280, 57448.00
899.3560, 57310.00
900.4830, 57708.00
901.6110, 57510.00
902.7380, 57889.00
903.8660, 57305.00
904.9930, 57494.00
906.1200, 57683.00
907.2460, 57558.00
908.3730, 57522.00
909.5000, 57732.00
910.6260, 57694.00
911.7520, 57462.00
912.8780, 57770.00
914.0040, 57709.00
915.1290, 57454.00
916.2550, 57778.00
917.3800, 57725.00
918.5050, 57591.00
919.6300, 57900.00
920.7550, 57886.00
921.8800, 57749.00
923.0040, 57832.00
924.1290, 57809.12
925.2530, 57798.72
926.3770, 57957.00
927.5010, 57852.00
928.6250, 58094.00
929.7480, 58203.00
930.8720, 57946.00
931.9950, 57860.00
933.1180, 58279.00
934.2410, 57991.00
935.3640, 58133.00
936.4860, 58039.00
937.6090, 58541.00
938.7310, 58531.00
939.8530, 58520.00
940.9750, 58655.00
942.0970, 58660.00
943.2180, 58766.00
944.3400, 58615.00
945.4610, 59206.00
946.5820, 59349.00
947.7030, 59168.00
948.8240, 59919.00
949.9450, 60080.00
951.0650, 59969.00
952.1860, 60688.00
953.3060, 61243.00
954.4260, 60554.00
955.5460, 60665.00
956.6650, 60717.00
957.7850, 59934.00
958.9040, 60255.00
960.0230, 59730.00
961.1420, 59661.00
962.2610, 59320.00
963.3800, 59731.00
964.4990, 59031.00
965.6170, 59362.00
966.7350, 58803.00
967.8530, 58818.00
968.9710, 58789.00
970.0890, 59061.00
971.2070, 59144.00
972.3240, 58852.00
973.4410, 58590.00
974.5580, 58661.00
975.6750, 58333.00
976.7920, 58465.00
977.9090, 58465.00
979.0250, 58712.00
980.1410, 58876.00
981.2580, 58518.00
982.3740, 58726.00
983.4890, 58367.00
984.6050, 58725.00
985.7200, 58882.00
986.8360, 58632.00
987.9510, 58586.00
989.0660, 58536.00
990.1810, 58771.00
991.2950, 58457.00
992.4100, 58705.00
993.5240, 59076.00
994.6390, 58793.00
995.7530, 58589.00
996.8660, 58778.00
997.9800, 58837.00
999.0940, 58542.00
1000.207, 59116.00
1001.320, 58330.00
1002.433, 58634.00
1003.546, 59133.00
1004.659, 58953.00
1005.772, 58802.00
1006.884, 58503.00
1007.996, 58848.00
1009.108, 59003.00
1010.220, 59095.00
1011.332, 58882.00
1012.444, 58852.00
1013.555, 58856.00
1014.666, 59011.00
1015.777, 58753.00
1016.888, 59058.00
1017.999, 59045.00
1019.110, 59230.00
1020.220, 59104.00
1021.331, 58914.00
1022.441, 58935.00
1023.551, 58786.00
1024.661, 59191.00
1025.770, 58679.00
1026.880, 58921.00
1027.989, 58833.00
1029.098, 59246.00
1030.207, 58894.00
1031.316, 59078.00
1032.425, 59190.00
1033.533, 59256.00
1034.642, 59054.00
1035.750, 59229.00
1036.858, 59196.00
1037.966, 59280.00
1039.073, 59229.00
1040.181, 59008.00
1041.288, 59103.00
1042.396, 59196.00
1043.503, 59394.00
1044.610, 59262.00
1045.716, 59368.00
1046.823, 59467.00
1047.929, 59361.00
1049.036, 59516.00
1050.142, 59599.00
1051.248, 59618.00
1052.353, 59375.00
1053.459, 59580.00
1054.564, 59262.00
1055.670, 59378.00
1056.775, 59596.00
1057.880, 59351.79
1058.985, 59578.32
1060.089, 59703.14
1061.194, 59731.70
1062.298, 59375.71
1063.402, 59516.29
1064.506, 59457.88
1065.610, 59391.29
1066.713, 59601.77
1067.817, 59301.71
1068.920, 59507.79
1070.023, 59511.84
1071.126, 59608.35
1072.229, 59504.63
1073.332, 59462.75
1074.435, 59621.17
1075.537, 59668.69
1076.639, 59541.93
1077.741, 59644.32
1078.843, 59337.28
1079.945, 59389.53
1081.046, 59596.79
1082.148, 59480.09
1083.249, 59586.15
1084.350, 59607.38
1085.451, 59243.05
1086.551, 59427.00
1087.652, 59346.00
1088.752, 59702.00
1089.853, 59849.00
1090.953, 59766.00
1092.053, 60045.00
1093.152, 59628.00
1094.252, 59642.00
1095.351, 59737.00
1096.451, 59720.00
1097.550, 59825.00
1098.649, 59822.00
1099.748, 59810.00
1100.846, 59889.00
1101.945, 59805.00
1103.043, 60119.00
1104.141, 59845.00
1105.239, 59600.00
1106.337, 59792.00
1107.434, 59876.00
1108.532, 59766.00
1109.629, 59742.00
1110.726, 59748.00
1111.823, 59656.06
1112.920, 59666.41
1114.017, 59580.00
1115.113, 59623.00
1116.210, 59691.00
1117.306, 59649.00
1118.402, 59762.00
1119.498, 59828.00
1120.593, 59748.00
1121.689, 59929.00
1122.784, 59601.00
1123.879, 59406.00
1124.974, 59548.00
1126.069, 59567.00
1127.164, 59517.00
1128.259, 59289.00
1129.353, 59595.00
1130.447, 59407.00
1131.541, 59296.00
1132.635, 59628.00
1133.729, 59274.00
1134.822, 59507.00
1135.916, 59489.00
1137.009, 59617.00
1138.102, 59599.22
1139.195, 59883.00
1140.288, 59584.00
1141.380, 59363.00
1142.473, 59511.00
1143.565, 59402.00
1144.657, 59555.00
1145.749, 59163.00
1146.841, 59259.00
1147.932, 59311.00
1149.024, 59397.00
1150.115, 59425.00
1151.206, 59120.00
1152.297, 59488.00
1153.388, 59316.00
1154.479, 59436.00
1155.569, 59116.00
1156.659, 59190.00
1157.750, 59290.00
1158.839, 59302.00
1159.929, 59322.04
1161.019, 59311.00
1162.108, 59253.00
1163.198, 59234.00
1164.287, 59111.00
1165.376, 59334.00
1166.465, 59375.00
1167.553, 59588.00
1168.642, 59537.45
1169.730, 59226.00
1170.818, 59320.00
1171.906, 59499.00
1172.994, 59198.00
1174.082, 59365.00
1175.170, 59607.00
1176.257, 59182.00
1177.344, 59473.00
1178.431, 59219.00
1179.518, 59599.00
1180.605, 59873.00
1181.691, 59443.00
1182.778, 59689.00
1183.864, 59661.00
1184.950, 59177.00
1186.036, 59194.00
1187.122, 59393.00
1188.207, 59500.00
1189.292, 59297.00
1190.378, 59357.00
1191.463, 59335.61
1192.548, 59236.00
1193.632, 59190.00
1194.717, 59456.00
1195.801, 59113.00
1196.886, 59338.00
1197.970, 59142.00
1199.054, 59223.00
1200.137, 59114.00
1201.221, 59087.76
1202.305, 59079.51
1203.388, 59053.00
1204.471, 59115.00
1205.554, 59106.00
1206.637, 59322.00
1207.719, 59289.00
1208.802, 59331.00
1209.884, 59381.00
1210.966, 59180.00
1212.048, 59756.00
1213.130, 59397.00
1214.212, 58954.00
1215.293, 59338.00
1216.374, 59141.00
1217.456, 59406.00
1218.536, 59613.00
1219.617, 59089.00
1220.698, 59337.00
1221.778, 59375.00
1222.859, 59074.00
1223.939, 59504.00
1225.019, 59499.00
1226.099, 59015.00
1227.178, 59222.00
1228.258, 59370.00
1229.337, 59197.00
1230.417, 59227.00
1231.496, 59128.00
1232.574, 59585.00
1233.653, 59505.00
1234.732, 59298.00
1235.810, 59462.00
1236.888, 59286.00
1237.966, 59354.00
1239.044, 59183.00
1240.122, 59463.00
1241.199, 58995.00
1242.277, 59446.00
1243.354, 59256.00
1244.431, 59370.00
1245.508, 59199.00
1246.585, 59397.00
1247.661, 59060.00
1248.738, 59563.00
1249.814, 59537.00
1250.890, 59419.00
1251.966, 59168.00
1253.042, 59303.00
1254.117, 59001.00
1255.193, 59297.00
1256.268, 59291.00
1257.343, 59370.00
1258.418, 59562.00
1259.493, 59349.00
1260.567, 59472.00
1261.642, 59642.00
1262.716, 59568.00
1263.790, 59340.00
1264.864, 59490.00
1265.938, 59468.00
1267.011, 59310.00
1268.085, 59720.08
1269.158, 59640.00
1270.231, 59844.00
1271.304, 59766.56
1272.377, 59647.52
1273.450, 59510.00
1274.522, 59376.00
1275.594, 59278.00
1276.666, 59292.00
1277.738, 59216.00
1278.810, 59216.00
1279.882, 59138.00
1280.953, 59145.98
1282.025, 59015.41
1283.096, 59444.00
1284.167, 58813.00
1285.238, 59523.00
1286.308, 59622.00
1287.379, 59721.00
1288.449, 59392.00
1289.519, 59345.00
1290.589, 59268.00
1291.659, 59562.00
1292.729, 59268.00
1293.798, 59569.00
1294.868, 59481.00
1295.937, 59260.00
1297.006, 59450.00
1298.075, 59610.00
1299.143, 59304.00
1300.212, 59499.00
1301.280, 59772.00
1302.348, 59640.00
1303.416, 59301.00
1304.484, 59405.00
1305.552, 59573.00
1306.620, 59730.00
1307.687, 59622.00
1308.754, 59369.00
1309.821, 59583.00
1310.888, 59577.00
1311.955, 59312.00
1313.021, 59585.00
1314.088, 59466.00
1315.154, 59536.00
1316.220, 59596.00
1317.286, 59402.00
1318.352, 59581.00
1319.417, 59796.00
1320.483, 59656.00
1321.548, 59638.00
1322.613, 59624.00
1323.678, 59620.00
1324.743, 59566.00
1325.807, 59565.70
1326.872, 59541.91
1327.936, 59546.00
1329.000, 59506.00
1330.064, 59516.00
1331.128, 59495.00
1332.191, 59528.91
1333.255, 59743.00
1334.318, 59548.00
1335.381, 59627.00
1336.444, 59500.00
1337.507, 59607.00
1338.569, 59795.00
1339.632, 59899.00
1340.694, 59663.00
1341.756, 59816.00
1342.818, 59503.00
1343.880, 59721.00
1344.941, 59758.00
1346.003, 59578.00
1347.064, 59521.00
1348.125, 59720.00
1349.186, 59721.00
1350.247, 59626.00
1351.308, 59864.00
1352.368, 59701.00
1353.428, 59847.00
1354.489, 59727.00
1355.549, 59473.00
1356.608, 59607.00
1357.668, 59634.00
1358.727, 59774.00
1359.787, 59802.00
1360.846, 59734.89
1361.905, 60019.00
1362.964, 59620.00
1364.022, 59686.00
1365.081, 59812.00
1366.139, 59985.00
1367.197, 59903.00
1368.255, 59902.00
1369.313, 59784.00
1370.371, 60022.00
1371.428, 59733.00
1372.486, 59701.00
1373.543, 60110.00
1374.600, 59928.68
1375.657, 59706.00
1376.713, 59936.00
1377.770, 59891.00
1378.826, 59694.00
1379.882, 59658.00
1380.938, 59653.00
1381.994, 59637.00
1383.050, 59749.00
1384.106, 59817.00
1385.161, 59792.86
1386.216, 59854.79
1387.271, 59720.00
1388.326, 59828.00
1389.381, 59710.00
1390.435, 59575.00
1391.490, 59739.00
1392.544, 59804.00
1393.598, 59974.00
1394.652, 59852.00
1395.705, 59961.00
1396.759, 59729.00
1397.812, 59868.00
1398.866, 59987.00
1399.919, 59943.00
1400.972, 59739.00
1402.024, 59890.00
1403.077, 59808.00
1404.129, 59654.00
1405.181, 59640.00
1406.233, 59859.00
1407.285, 59789.00
1408.337, 59726.00
1409.389, 59891.00
1410.440, 59791.00
1411.491, 59985.00
1412.542, 59730.00
1413.593, 59506.00
1414.644, 59734.00
1415.695, 59788.00
1416.745, 59896.00
1417.795, 59860.00
1418.845, 59840.81
1419.895, 59750.00
1420.945, 59740.00
1421.995, 59707.00
1423.044, 59746.00
1424.093, 59878.00
1425.142, 59611.00
1426.191, 59555.00
1427.240, 59466.00
1428.289, 59733.00
1429.337, 59653.00
1430.385, 59924.00
1431.433, 59777.00
1432.481, 59778.00
1433.529, 59878.78
1434.577, 59838.60
1435.624, 59936.00
1436.672, 59933.00
1437.719, 59876.00
1438.766, 59942.00
1439.812, 59803.00
1440.859, 59748.00
1441.905, 59565.00
1442.952, 60043.00
1443.998, 59921.00
1445.044, 59903.00
1446.090, 60036.00
1447.135, 59808.00
1448.181, 59755.00
1449.226, 59537.00
1450.271, 59743.00
1451.316, 59583.00
1452.361, 59895.00
1453.405, 59794.00
1454.450, 59542.00
1455.494, 59772.00
1456.538, 59941.00
1457.582, 60026.00
1458.626, 59778.00
1459.670, 59974.00
1460.713, 59727.00
1461.757, 59571.00
1462.800, 59661.00
1463.843, 59632.93
1464.886, 59882.00
1465.928, 59814.00
1466.971, 59885.00
1468.013, 59891.00
1469.055, 59801.00
1470.097, 59965.00
1471.139, 59913.71
1472.181, 59940.96
1473.222, 59968.00
1474.263, 59895.00
1475.305, 59964.00
1476.346, 59783.00
1477.386, 59934.00
1478.427, 59930.00
1479.468, 59749.00
1480.508, 59998.00
1481.548, 59937.00
1482.588, 60165.00
1483.628, 59698.00
1484.668, 59896.00
1485.707, 59725.00
1486.747, 59861.00
1487.786, 60004.00
1488.825, 59613.00
1489.864, 59943.00
1490.902, 59821.00
1491.941, 59884.00
1492.979, 59948.00
1494.017, 60003.00
1495.055, 60025.00
1496.093, 59969.00
1497.131, 59782.00
1498.168, 59897.00
1499.206, 59712.00
1500.243, 59611.00
1501.280, 59903.00
1502.317, 59956.00
1503.354, 59630.00
1504.390, 60005.00
1505.426, 60144.00
1506.463, 59900.00
1507.499, 59904.00
1508.535, 60036.00
1509.570, 59773.00
1510.606, 59873.00
1511.641, 59880.00
1512.676, 60042.00
1513.711, 60031.00
1514.746, 60003.00
1515.781, 59913.00
1516.816, 60198.00
1517.850, 59992.00
1518.884, 60158.00
1519.918, 60179.00
1520.952, 60130.00
1521.986, 60127.00
1523.019, 60174.00
1524.053, 60405.00
1525.086, 60022.00
1526.119, 60142.00
1527.152, 60185.00
1528.185, 60448.00
1529.217, 59964.00
1530.250, 60134.00
1531.282, 60026.00
1532.314, 59815.00
1533.346, 60716.00
1534.377, 60349.72
1535.409, 60237.00
1536.440, 60405.00
1537.472, 60047.00
1538.503, 60201.00
1539.534, 60280.00
1540.564, 60233.00
1541.595, 59982.16
1542.625, 60241.63
1543.656, 60399.40
1544.686, 60460.90
1545.716, 60137.84
1546.745, 60311.32
1547.775, 60285.83
1548.804, 60252.15
1549.834, 60495.55
1550.863, 60228.39
1551.892, 60467.37
1552.920, 60504.29
1553.949, 60633.69
1554.977, 60562.84
1556.006, 60553.86
1557.034, 60745.15
1558.062, 60825.54
1559.089, 60731.61
1560.117, 60866.87
1561.144, 60592.67
1562.172, 60677.77
1563.199, 60749.00
1564.226, 60683.00
1565.252, 60560.00
1566.279, 60468.00
1567.305, 60394.00
1568.332, 60388.00
1569.358, 60472.00
1570.384, 60942.00
##END=



