##NAMES=Braunite
##RRUFFID=R050385
##IDEAL CHEMISTRY=Mn^2+^Mn^3+^_6_SiO_12_
##LOCALITY=Jhabua District, Madhya Pradesh, India
##OWNER=RRUFF
##SOURCE=University of Arizona Mineral Museum
##DESCRIPTION=Black prismatic crystals
##STATUS=The identification of this mineral has been confirmed by X-ray diffraction and chemical analysis
##URL=rruff.info/R050385
##MEASURED CHEMISTRY=(Fe^2+^_0.61_Mn^2+^_0.39_)_Σ=1_(Mn^3+^_5.94_Al_0.06_)_Σ=6_Si_1.00_O_12_
##PIN_ID=L01451
##ORIENTATION=Laser parallel to a* (1 0 0). Fiducial mark perpendicular to laser is parallel to c [0 0 1]
178.2820, 13826.00
179.5050, 13866.00
180.7290, 13785.00
181.9520, 14047.00
183.1760, 14229.00
184.3990, 14592.00
185.6220, 14882.00
186.8450, 15123.79
188.0670, 15633.00
189.2900, 15661.00
190.5120, 16117.00
191.7340, 16440.00
192.9560, 17286.00
194.1780, 17536.00
195.4000, 18267.00
196.6220, 19059.00
197.8430, 19597.00
199.0640, 20295.00
200.2860, 21868.00
201.5070, 23600.00
202.7270, 24747.00
203.9480, 24674.00
205.1690, 23292.00
206.3890, 22649.00
207.6090, 23633.00
208.8290, 23212.00
210.0490, 23466.00
211.2690, 24131.00
212.4890, 24419.00
213.7080, 24997.00
214.9280, 24912.00
216.1470, 24146.00
217.3660, 23762.00
218.5850, 23793.00
219.8030, 23625.00
221.0220, 22873.00
222.2400, 22457.00
223.4590, 21913.00
224.6770, 21181.00
225.8950, 21697.00
227.1120, 20366.15
228.3300, 20249.00
229.5480, 18555.00
230.7650, 17632.00
231.9820, 17170.00
233.1990, 16389.00
234.4160, 16026.00
235.6330, 15497.00
236.8490, 14997.00
238.0660, 14644.00
239.2820, 14261.00
240.4980, 14021.00
241.7140, 13681.00
242.9300, 13445.51
244.1460, 13188.00
245.3610, 13006.93
246.5770, 12759.00
247.7920, 12559.00
249.0070, 12243.00
250.2220, 12079.00
251.4370, 11882.00
252.6510, 11533.41
253.8660, 11555.72
255.0800, 11528.53
256.2940, 11454.42
257.5080, 11192.88
258.7220, 11173.37
259.9360, 11056.86
261.1490, 10936.46
262.3630, 10951.01
263.5760, 10716.81
264.7890, 10729.29
266.0020, 10643.31
267.2150, 10602.39
268.4270, 10450.00
269.6400, 10294.00
270.8520, 10202.00
272.0640, 10213.00
273.2760, 10052.00
274.4880, 10101.00
275.7000, 10224.00
276.9120, 10060.44
278.1230, 10094.17
279.3340, 10042.00
280.5450, 9808.000
281.7560, 10146.00
282.9670, 9676.000
284.1780, 9758.000
285.3880, 9719.000
286.5980, 9821.000
287.8090, 9842.000
289.0190, 9854.000
290.2290, 9982.000
291.4380, 9929.000
292.6480, 9866.000
293.8570, 9854.000
295.0670, 9705.000
296.2760, 9688.000
297.4850, 9653.000
298.6930, 9603.000
299.9020, 9637.000
301.1110, 9478.000
302.3190, 9603.000
303.5270, 9413.000
304.7350, 9592.000
305.9430, 9576.000
307.1510, 9575.000
308.3580, 9701.000
309.5660, 9612.000
310.7730, 9850.000
311.9800, 9798.000
313.1870, 9890.000
314.3940, 9941.000
315.6010, 10109.00
316.8070, 10278.00
318.0130, 10543.00
319.2200, 10763.00
320.4260, 11058.00
321.6310, 11294.00
322.8370, 11428.00
324.0430, 11889.00
325.2480, 12137.00
326.4540, 12588.00
327.6590, 12522.00
328.8640, 12853.00
330.0680, 12718.58
331.2730, 12626.00
332.4780, 12346.00
333.6820, 12112.00
334.8860, 11844.00
336.0900, 11607.88
337.2940, 11406.00
338.4980, 11219.00
339.7010, 10957.00
340.9050, 10928.00
342.1080, 10772.00
343.3110, 10557.00
344.5140, 10429.00
345.7170, 10409.00
346.9200, 10115.69
348.1220, 10199.36
349.3240, 10233.45
350.5270, 10220.60
351.7290, 10020.35
352.9310, 10062.12
354.1320, 10006.93
355.3340, 9947.729
356.5350, 10023.59
357.7370, 9850.598
358.9380, 10042.00
360.1390, 9811.000
361.3400, 9949.000
362.5400, 10023.00
363.7410, 10077.00
364.9410, 10006.00
366.1410, 10077.00
367.3410, 10191.00
368.5410, 9984.374
369.7410, 10073.96
370.9400, 10113.99
372.1400, 10107.08
373.3390, 9912.767
374.5380, 9960.477
375.7370, 9911.192
376.9360, 9857.931
378.1350, 9939.706
379.3330, 9871.000
380.5310, 9730.000
381.7300, 9804.000
382.9280, 9703.000
384.1260, 9679.000
385.3230, 9591.000
386.5210, 9551.907
387.7180, 9553.000
388.9160, 9558.000
390.1130, 9505.000
391.3100, 9497.311
392.5060, 9500.000
393.7030, 9454.000
394.9000, 9558.000
396.0960, 9581.000
397.2920, 9551.153
398.4880, 9578.000
399.6840, 9531.000
400.8800, 9654.000
402.0750, 9728.000
403.2710, 9686.000
404.4660, 9802.000
405.6610, 9772.000
406.8560, 9735.000
408.0510, 9803.000
409.2450, 9809.000
410.4400, 9970.000
411.6340, 9972.315
412.8280, 10031.12
414.0220, 10095.00
415.2160, 10039.00
416.4100, 10190.00
417.6030, 10054.00
418.7970, 10175.00
419.9900, 10187.00
421.1830, 10305.00
422.3760, 10316.00
423.5690, 10412.00
424.7610, 10222.00
425.9540, 10247.00
427.1460, 10112.00
428.3380, 10254.00
429.5300, 10115.99
430.7220, 10225.37
431.9140, 10285.17
433.1050, 10298.06
434.2970, 10123.51
435.4880, 10191.00
436.6790, 10161.49
437.8700, 10128.00
439.0610, 10190.00
440.2510, 10233.00
441.4420, 10312.88
442.6320, 10322.00
443.8220, 10383.42
445.0120, 10520.16
446.2020, 10607.31
447.3910, 10647.54
448.5810, 10500.35
449.7700, 10595.17
450.9600, 10593.01
452.1490, 10586.86
453.3370, 10715.73
454.5260, 10595.78
455.7150, 10722.52
456.9030, 10850.00
458.0910, 10929.00
459.2800, 10937.95
460.4670, 11024.00
461.6550, 11102.00
462.8430, 11218.00
464.0300, 11363.00
465.2180, 11346.00
466.4050, 11486.00
467.5920, 11923.00
468.7790, 11846.37
469.9650, 11995.00
471.1520, 11990.00
472.3380, 12011.00
473.5250, 12138.00
474.7110, 12039.78
475.8970, 12099.00
477.0820, 11987.00
478.2680, 11806.00
479.4540, 11937.00
480.6390, 11834.00
481.8240, 11714.00
483.0090, 11726.00
484.1940, 11583.00
485.3780, 11512.00
486.5630, 11557.00
487.7470, 11431.00
488.9320, 11550.00
490.1160, 11502.00
491.3000, 11526.00
492.4830, 11568.00
493.6670, 11645.38
494.8500, 11751.50
496.0340, 11890.00
497.2170, 12059.00
498.4000, 12218.00
499.5820, 12461.36
500.7650, 12793.00
501.9480, 13064.00
503.1300, 13428.00
504.3120, 13823.00
505.4940, 14002.00
506.6760, 14409.00
507.8580, 14494.00
509.0390, 14610.00
510.2210, 14595.00
511.4020, 14467.00
512.5830, 14489.00
513.7640, 14248.00
514.9450, 14582.00
516.1250, 13727.00
517.3060, 13288.61
518.4860, 13120.31
519.6660, 12902.42
520.8460, 12613.00
522.0260, 12192.00
523.2060, 12180.00
524.3850, 11903.15
525.5650, 11647.00
526.7440, 11446.00
527.9230, 11268.00
529.1020, 11134.00
530.2810, 11089.00
531.4590, 11046.00
532.6380, 10886.00
533.8160, 10822.00
534.9940, 10957.00
536.1720, 11140.00
537.3500, 10887.00
538.5270, 10913.00
539.7050, 10905.00
540.8820, 10804.00
542.0590, 10823.00
543.2360, 10819.00
544.4130, 10789.63
545.5900, 10861.00
546.7660, 10773.00
547.9430, 10826.00
549.1190, 10804.00
550.2950, 10812.00
551.4710, 10840.75
552.6470, 10803.00
553.8220, 10899.00
554.9980, 10947.00
556.1730, 11011.95
557.3480, 11027.00
558.5230, 11110.00
559.6980, 11101.00
560.8730, 11115.00
562.0470, 11307.00
563.2220, 11230.00
564.3960, 11467.00
565.5700, 11351.00
566.7440, 11527.00
567.9170, 11522.00
569.0910, 11449.00
570.2640, 11573.00
571.4380, 11749.00
572.6110, 11715.00
573.7840, 11791.35
574.9570, 11829.00
576.1290, 11788.00
577.3020, 11735.00
578.4740, 11707.00
579.6460, 11651.00
580.8180, 11690.00
581.9900, 11644.00
583.1620, 11616.00
584.3330, 11689.00
585.5040, 11722.00
586.6760, 11858.00
587.8470, 11827.00
589.0180, 12084.00
590.1880, 12131.00
591.3590, 12359.24
592.5290, 12507.44
593.7000, 12851.00
594.8700, 12961.00
596.0400, 13208.43
597.2090, 13737.00
598.3790, 13954.00
599.5490, 14364.00
600.7180, 14903.00
601.8870, 15199.00
603.0560, 15755.00
604.2250, 16240.18
605.3940, 16839.00
606.5620, 17414.00
607.7300, 17857.00
608.8990, 18705.00
610.0670, 19213.00
611.2350, 19857.00
612.4020, 20085.00
613.5700, 20662.00
614.7370, 20926.00
615.9050, 20812.00
617.0720, 20897.00
618.2390, 20662.00
619.4060, 20426.00
620.5720, 20099.28
621.7390, 19587.00
622.9050, 19117.00
624.0710, 18473.00
625.2370, 17769.00
626.4030, 17383.00
627.5690, 16875.00
628.7340, 16284.00
629.9000, 15818.00
631.0650, 15324.00
632.2300, 14926.81
633.3950, 14579.20
634.5600, 14234.00
635.7240, 14023.00
636.8890, 13735.00
638.0530, 13563.00
639.2170, 13295.00
640.3810, 13034.00
641.5450, 12952.00
642.7080, 12755.00
643.8720, 12738.00
645.0350, 12621.00
646.1980, 12653.00
647.3610, 12426.00
648.5240, 12425.00
649.6870, 12497.18
650.8490, 12377.54
652.0120, 12685.00
653.1740, 12350.00
654.3360, 12349.00
655.4980, 12417.00
656.6600, 12792.00
657.8210, 12674.00
658.9830, 12412.00
660.1440, 12809.00
661.3050, 12565.00
662.4660, 12722.00
663.6270, 12874.00
664.7870, 13141.00
665.9480, 13302.00
667.1080, 13326.00
668.2680, 13557.00
669.4280, 13848.00
670.5880, 13816.00
671.7480, 14187.00
672.9070, 14433.00
674.0670, 14868.00
675.2260, 15262.00
676.3850, 15617.00
677.5440, 16067.43
678.7030, 16499.24
679.8610, 16953.00
681.0200, 17445.00
682.1780, 17950.00
683.3360, 18465.00
684.4940, 19015.00
685.6520, 19120.00
686.8090, 19043.00
687.9670, 19108.00
689.1240, 18849.00
690.2810, 18701.00
691.4380, 18384.00
692.5950, 17813.00
693.7520, 17478.00
694.9080, 16972.00
696.0650, 16340.00
697.2210, 15740.00
698.3770, 15426.00
699.5330, 14873.00
700.6880, 14318.49
701.8440, 14178.30
702.9990, 13988.75
704.1550, 13752.06
705.3100, 13328.17
706.4650, 13146.30
707.6190, 12867.66
708.7740, 12584.83
709.9290, 12437.02
711.0830, 12040.61
712.2370, 11890.88
713.3910, 11642.69
714.5450, 11558.00
715.6980, 11448.00
716.8520, 11280.90
718.0050, 11159.63
719.1580, 10957.00
720.3110, 10794.00
721.4640, 10910.00
722.6170, 10668.00
723.7700, 10636.00
724.9220, 10711.00
726.0740, 10501.00
727.2260, 10552.00
728.3780, 10676.00
729.5300, 10462.29
730.6810, 10349.00
731.8330, 10312.00
732.9840, 10221.00
734.1350, 10398.00
735.2860, 10395.00
736.4370, 10035.00
737.5880, 10286.00
738.7380, 10174.00
739.8880, 10117.00
741.0390, 10108.00
742.1890, 10076.00
743.3380, 10094.00
744.4880, 10084.00
745.6380, 9997.000
746.7870, 10260.43
747.9360, 10087.44
749.0850, 10089.64
750.2340, 9973.000
751.3830, 9944.000
752.5310, 9988.000
753.6800, 9937.000
754.8280, 9889.000
755.9760, 9817.000
757.1240, 9921.000
758.2720, 9832.000
759.4190, 9872.000
760.5670, 9837.000
761.7140, 9936.000
762.8610, 9834.000
764.0080, 9900.000
765.1550, 9891.000
766.3020, 9850.000
767.4480, 9861.141
768.5950, 9920.000
769.7410, 9839.000
770.8870, 9820.000
772.0330, 9861.000
773.1780, 9820.000
774.3240, 9782.000
775.4690, 9767.000
776.6140, 9812.000
777.7590, 9790.000
778.9040, 9685.000
780.0490, 9829.000
781.1940, 9696.573
782.3380, 9732.000
783.4820, 9657.000
784.6260, 9629.000
785.7700, 9638.915
786.9140, 9729.000
788.0580, 9627.000
789.2010, 9709.000
790.3450, 9679.000
791.4880, 9571.000
792.6310, 9601.774
793.7730, 9717.000
794.9160, 9569.000
796.0590, 9518.286
797.2010, 9630.177
798.3430, 9692.488
799.4850, 9707.884
800.6270, 9535.846
801.7690, 9605.839
802.9100, 9578.838
804.0520, 9547.858
805.1930, 9651.916
806.3340, 9673.000
807.4750, 9638.000
808.6160, 9572.000
809.7560, 9750.000
810.8970, 9657.000
812.0370, 9652.000
813.1770, 9724.000
814.3170, 9603.000
815.4570, 9643.194
816.5960, 9551.000
817.7360, 9640.000
818.8750, 9576.000
820.0140, 9604.000
821.1530, 9669.000
822.2920, 9588.000
823.4310, 9593.000
824.5690, 9577.000
825.7070, 9670.000
826.8460, 9614.060
827.9840, 9608.247
829.1220, 9588.000
830.2590, 9565.000
831.3970, 9615.000
832.5340, 9667.000
833.6710, 9657.000
834.8080, 9617.000
835.9450, 9625.000
837.0820, 9637.000
838.2190, 9583.000
839.3550, 9644.000
840.4910, 9629.000
841.6270, 9566.000
842.7630, 9727.000
843.8990, 9634.000
845.0350, 9591.000
846.1700, 9738.000
847.3060, 9684.000
848.4410, 9679.000
849.5760, 9702.000
850.7100, 9730.000
851.8450, 9649.000
852.9800, 9573.000
854.1140, 9680.000
855.2480, 9539.000
856.3820, 9635.000
857.5160, 9721.000
858.6500, 9739.000
859.7830, 9708.000
860.9170, 9803.000
862.0500, 9735.000
863.1830, 9688.000
864.3160, 9695.000
865.4480, 9752.000
866.5810, 9667.000
867.7130, 9847.000
868.8460, 9736.000
869.9780, 9754.000
871.1100, 9886.000
872.2410, 9851.000
873.3730, 9789.312
874.5050, 9901.277
875.6360, 9963.665
876.7670, 9979.136
877.8980, 9807.175
879.0290, 9877.245
880.1590, 9850.320
881.2900, 9819.419
882.4200, 9923.555
883.5500, 9808.000
884.6800, 9833.000
885.8100, 9820.000
886.9400, 9827.305
888.0690, 9877.000
889.1990, 9842.000
890.3280, 9889.000
891.4570, 9907.000
892.5860, 9895.000
893.7140, 9927.123
894.8430, 9943.488
895.9710, 9944.000
897.1000, 10025.00
898.2280, 10019.00
899.3560, 10119.00
900.4830, 10170.00
901.6110, 10025.00
902.7380, 10196.00
903.8660, 10124.00
904.9930, 10258.00
906.1200, 10149.00
907.2460, 10170.00
908.3730, 10186.00
909.5000, 10354.00
910.6260, 10247.00
911.7520, 10355.00
912.8780, 10284.00
914.0040, 10329.00
915.1290, 10237.00
916.2550, 10243.00
917.3800, 10309.00
918.5050, 10431.00
919.6300, 10341.00
920.7550, 10461.00
921.8800, 10421.00
923.0040, 10602.00
924.1290, 10502.00
925.2530, 10487.00
926.3770, 10488.00
927.5010, 10530.00
928.6250, 10735.00
929.7480, 10848.00
930.8720, 10798.00
931.9950, 10864.00
933.1180, 10933.00
934.2410, 11046.66
935.3640, 11088.00
936.4860, 11300.00
937.6090, 11410.00
938.7310, 11392.00
939.8530, 11390.00
940.9750, 11502.00
942.0970, 11615.00
943.2180, 11743.00
944.3400, 11792.00
945.4610, 11901.00
946.5820, 12086.00
947.7030, 11946.00
948.8240, 12154.00
949.9450, 12421.00
951.0650, 12606.00
952.1860, 12564.00
953.3060, 12588.00
954.4260, 12666.00
955.5460, 12679.99
956.6650, 12727.00
957.7850, 12784.00
958.9040, 12905.00
960.0230, 12951.00
961.1420, 12629.00
962.2610, 12814.00
963.3800, 12499.00
964.4990, 12693.00
965.6170, 12479.00
966.7350, 12244.00
967.8530, 12341.00
968.9710, 12164.00
970.0890, 12083.00
971.2070, 11901.00
972.3240, 11852.00
973.4410, 11731.00
974.5580, 11692.00
975.6750, 11613.00
976.7920, 11518.38
977.9090, 11426.00
979.0250, 11345.00
980.1410, 11243.59
981.2580, 11186.47
982.3740, 11086.00
983.4890, 11075.00
984.6050, 11084.00
985.7200, 11043.00
986.8360, 10974.00
987.9510, 11101.00
989.0660, 10944.00
990.1810, 10961.00
991.2950, 11087.00
992.4100, 10889.00
993.5240, 11062.00
994.6390, 10971.00
995.7530, 10966.00
996.8660, 10901.00
997.9800, 10905.29
999.0940, 10974.00
1000.207, 10938.00
1001.320, 10911.00
1002.433, 10943.00
1003.546, 10932.00
1004.659, 10881.00
1005.772, 10848.00
1006.884, 10913.00
1007.996, 10957.00
1009.108, 10875.00
1010.220, 10795.00
1011.332, 10921.00
1012.444, 10876.00
1013.555, 10890.00
1014.666, 10880.00
1015.777, 10938.00
1016.888, 10823.00
1017.999, 10793.00
1019.110, 10834.00
1020.220, 10729.00
1021.331, 10887.00
1022.441, 10841.00
1023.551, 10897.00
1024.661, 10893.00
1025.770, 10909.00
1026.880, 10955.00
1027.989, 10947.54
1029.098, 10929.00
1030.207, 10952.00
1031.316, 10920.00
1032.425, 10897.00
1033.533, 10897.71
1034.642, 10828.00
1035.750, 10891.00
1036.858, 10860.00
1037.966, 10884.00
1039.073, 10751.00
1040.181, 11014.00
1041.288, 10871.00
1042.396, 10946.00
1043.503, 11074.00
1044.610, 10846.00
1045.716, 10924.00
1046.823, 11103.00
1047.929, 10890.00
1049.036, 11020.00
1050.142, 10994.00
1051.248, 10964.00
1052.353, 10818.00
1053.459, 10897.00
1054.564, 10958.00
1055.670, 11081.00
1056.775, 11163.00
1057.880, 11036.00
1058.985, 11118.20
1060.089, 11011.00
1061.194, 11123.00
1062.298, 11052.00
1063.402, 11097.00
1064.506, 10960.94
1065.610, 11089.83
1066.713, 11169.13
1067.817, 11201.53
1068.920, 11046.48
1070.023, 11133.46
1071.126, 11123.44
1072.229, 11109.45
1073.332, 11230.49
1074.435, 11102.70
1075.537, 11221.59
1076.639, 11242.00
1077.741, 11153.00
1078.843, 11135.00
1079.945, 11068.00
1081.046, 11095.00
1082.148, 11040.00
1083.249, 11058.00
1084.350, 11073.00
1085.451, 11034.00
1086.551, 11080.00
1087.652, 11033.00
1088.752, 10980.00
1089.853, 11065.00
1090.953, 10972.00
1092.053, 11036.00
1093.152, 10965.00
1094.252, 10989.00
1095.351, 11009.00
1096.451, 11000.00
1097.550, 10980.00
1098.649, 11002.41
1099.748, 10966.44
1100.846, 10987.00
1101.945, 10963.00
1103.043, 10865.00
1104.141, 10961.00
1105.239, 10927.00
1106.337, 10873.00
1107.434, 10814.86
1108.532, 10918.75
1109.629, 10973.08
1110.726, 10980.49
1111.823, 10800.47
1112.920, 10862.48
1114.017, 10827.50
1115.113, 10788.54
1116.210, 10884.62
1117.306, 10731.86
1118.402, 10825.80
1119.498, 10821.27
1120.593, 10861.81
1121.689, 10804.76
1122.784, 10777.85
1123.879, 10848.57
1124.974, 10865.23
1126.069, 10796.95
1127.164, 10840.36
1128.259, 10684.21
1129.353, 10703.18
1130.447, 10797.71
1131.541, 10734.34
1132.635, 10779.54
1133.729, 10783.39
1134.822, 10599.34
1135.916, 10742.08
1137.009, 10743.49
1138.102, 10599.79
1139.195, 10731.35
1140.288, 10673.00
1141.380, 10639.81
1142.473, 10674.00
1143.565, 10584.00
1144.657, 10624.00
1145.749, 10643.00
1146.841, 10817.00
1147.932, 10734.88
1149.024, 10474.00
1150.115, 10683.00
1151.206, 10487.00
1152.297, 10528.00
1153.388, 10562.00
1154.479, 10574.00
1155.569, 10506.00
1156.659, 10504.00
1157.750, 10461.00
1158.839, 10525.00
1159.929, 10464.00
1161.019, 10518.00
1162.108, 10569.00
1163.198, 10484.00
1164.287, 10423.00
1165.376, 10377.00
1166.465, 10332.00
1167.553, 10419.00
1168.642, 10415.00
1169.730, 10459.00
1170.818, 10471.17
1171.906, 10470.33
1172.994, 10474.00
1174.082, 10459.00
1175.170, 10458.00
1176.257, 10438.00
1177.344, 10380.00
1178.431, 10395.53
1179.518, 10385.00
1180.605, 10368.00
1181.691, 10403.00
1182.778, 10334.84
1183.864, 10350.16
1184.950, 10317.00
1186.036, 10372.00
1187.122, 10388.00
1188.207, 10482.00
1189.292, 10384.00
1190.378, 10504.00
1191.463, 10507.00
1192.548, 10330.00
1193.632, 10588.00
1194.717, 10364.00
1195.801, 10361.00
1196.886, 10366.00
1197.970, 10416.00
1199.054, 10460.00
1200.137, 10529.00
1201.221, 10346.00
1202.305, 10473.00
1203.388, 10392.00
1204.471, 10358.00
1205.554, 10410.00
1206.637, 10464.00
1207.719, 10455.00
1208.802, 10476.27
1209.884, 10473.37
1210.966, 10455.12
1212.048, 10453.00
1213.130, 10421.00
1214.212, 10429.44
1215.293, 10466.24
1216.374, 10501.00
1217.456, 10500.00
1218.536, 10506.15
1219.617, 10554.00
1220.698, 10491.00
1221.778, 10542.00
1222.859, 10556.00
1223.939, 10514.00
1225.019, 10523.00
1226.099, 10633.00
1227.178, 10627.41
1228.258, 10730.03
1229.337, 10659.00
1230.417, 10805.21
1231.496, 10696.00
1232.574, 10481.00
1233.653, 10646.00
1234.732, 10485.00
1235.810, 10521.00
1236.888, 10644.00
1237.966, 10591.00
1239.044, 10599.00
1240.122, 10494.00
1241.199, 10544.00
1242.277, 10684.00
1243.354, 10767.00
1244.431, 10538.00
1245.508, 10419.00
1246.585, 10442.00
1247.661, 10537.00
1248.738, 10577.00
1249.814, 10451.00
1250.890, 10283.00
1251.966, 10469.00
1253.042, 10378.00
1254.117, 10399.00
1255.193, 10352.00
1256.268, 10396.00
1257.343, 10355.00
1258.418, 10423.00
1259.493, 10388.00
1260.567, 10399.00
1261.642, 10629.00
1262.716, 10585.00
1263.790, 10459.00
1264.864, 10515.00
1265.938, 10362.00
1267.011, 10537.00
1268.085, 10422.87
1269.158, 10504.00
1270.231, 10378.00
1271.304, 10359.00
1272.377, 10490.00
1273.450, 10422.77
1274.522, 10413.00
1275.594, 10453.00
1276.666, 10442.00
1277.738, 10345.43
1278.810, 10462.94
1279.882, 10530.86
1280.953, 10551.86
1282.025, 10385.43
1283.096, 10461.03
1284.167, 10439.64
1285.238, 10414.27
1286.308, 10523.93
1287.379, 10384.76
1288.449, 10492.28
1289.519, 10501.32
1290.589, 10555.43
1291.659, 10511.95
1292.729, 10498.62
1293.798, 10582.90
1294.868, 10613.13
1295.937, 10558.42
1297.006, 10615.39
1298.075, 10472.80
1299.143, 10505.33
1300.212, 10613.42
1301.280, 10563.60
1302.348, 10622.36
1303.416, 10639.76
1304.484, 10469.25
1305.552, 10625.54
1306.620, 10640.51
1307.687, 10510.35
1308.754, 10655.44
1309.821, 10545.28
1310.888, 10526.24
1311.955, 10575.75
1313.021, 10553.79
1314.088, 10644.52
1315.154, 10626.69
1316.220, 10573.00
1317.286, 10506.00
1318.352, 10743.00
1319.417, 10616.00
1320.483, 10674.00
1321.548, 10611.00
1322.613, 10572.00
1323.678, 10613.00
1324.743, 10597.00
1325.807, 10715.00
1326.872, 10670.58
1327.936, 10658.00
1329.000, 10604.00
1330.064, 10625.00
1331.128, 10527.00
1332.191, 10673.00
1333.255, 10669.00
1334.318, 10577.00
1335.381, 10698.00
1336.444, 10742.00
1337.507, 10661.00
1338.569, 10556.00
1339.632, 10581.00
1340.694, 10620.00
1341.756, 10595.00
1342.818, 10654.00
1343.880, 10659.00
1344.941, 10628.00
1346.003, 10562.00
1347.064, 10549.00
1348.125, 10680.00
1349.186, 10597.00
1350.247, 10689.00
1351.308, 10590.00
1352.368, 10593.00
1353.428, 10630.00
1354.489, 10597.00
1355.549, 10684.00
1356.608, 10586.00
1357.668, 10638.00
1358.727, 10640.00
1359.787, 10560.00
1360.846, 10737.00
1361.905, 10652.00
1362.964, 10615.00
1364.022, 10588.00
1365.081, 10595.00
1366.139, 10631.00
1367.197, 10643.35
1368.255, 10706.00
1369.313, 10673.00
1370.371, 10696.00
1371.428, 10623.00
1372.486, 10541.00
1373.543, 10661.00
1374.600, 10632.00
1375.657, 10596.00
1376.713, 10625.00
1377.770, 10639.00
1378.826, 10612.40
1379.882, 10632.00
1380.938, 10648.00
1381.994, 10654.00
1383.050, 10666.15
1384.106, 10705.00
1385.161, 10673.00
1386.216, 10714.00
1387.271, 10706.00
1388.326, 10667.00
1389.381, 10672.00
1390.435, 10628.00
1391.490, 10641.20
1392.544, 10647.00
1393.598, 10648.00
1394.652, 10661.00
1395.705, 10633.00
1396.759, 10603.00
1397.812, 10566.00
1398.866, 10667.00
1399.919, 10531.00
1400.972, 10565.00
1402.024, 10639.00
1403.077, 10553.00
1404.129, 10569.00
1405.181, 10430.00
1406.233, 10558.00
1407.285, 10499.00
1408.337, 10621.00
1409.389, 10563.00
1410.440, 10435.00
1411.491, 10462.00
1412.542, 10513.00
1413.593, 10448.00
1414.644, 10509.00
1415.695, 10555.00
1416.745, 10443.00
1417.795, 10525.00
1418.845, 10329.00
1419.895, 10507.00
1420.945, 10428.00
1421.995, 10352.05
1423.044, 10458.46
1424.093, 10515.29
1425.142, 10525.20
1426.191, 10347.68
1427.240, 10412.19
1428.289, 10379.70
1429.337, 10343.24
1430.385, 10441.83
1431.433, 10291.57
1432.481, 10388.01
1433.529, 10385.97
1434.577, 10429.01
1435.624, 10374.46
1436.672, 10350.04
1437.719, 10423.25
1438.766, 10442.41
1439.812, 10376.63
1440.859, 10422.54
1441.905, 10268.89
1442.952, 10290.35
1443.998, 10387.37
1445.044, 10285.00
1446.090, 10188.00
1447.135, 10368.00
1448.181, 10134.00
1449.226, 10313.00
1450.271, 10223.00
1451.316, 10281.00
1452.361, 10212.00
1453.405, 10254.00
1454.450, 10296.00
1455.494, 10046.00
1456.538, 10335.00
1457.582, 10157.00
1458.626, 10433.00
1459.670, 10325.08
1460.713, 10242.00
1461.757, 10206.00
1462.800, 10121.00
1463.843, 10178.00
1464.886, 10347.00
1465.928, 10171.00
1466.971, 10157.00
1468.013, 10258.00
1469.055, 10178.00
1470.097, 10197.00
1471.139, 10272.00
1472.181, 10200.00
1473.222, 10335.00
1474.263, 10269.00
1475.305, 10239.00
1476.346, 10214.00
1477.386, 10250.00
1478.427, 10214.00
1479.468, 10295.00
1480.508, 10195.00
1481.548, 10274.00
1482.588, 10259.07
1483.628, 10426.00
1484.668, 10244.00
1485.707, 10214.00
1486.747, 10164.00
1487.786, 10290.00
1488.825, 10237.31
1489.864, 10271.72
1490.902, 10230.00
1491.941, 10290.00
1492.979, 10252.00
1494.017, 10230.00
1495.055, 10250.00
1496.093, 10292.00
1497.131, 10094.00
1498.168, 10128.00
1499.206, 10111.00
1500.243, 10159.00
1501.280, 10161.30
1502.317, 10247.00
1503.354, 10206.00
1504.390, 10247.00
1505.426, 10317.00
1506.463, 10150.00
1507.499, 10311.00
1508.535, 10287.00
1509.570, 10242.00
1510.606, 10271.00
1511.641, 10230.00
1512.676, 10296.00
1513.711, 10269.00
1514.746, 10239.00
1515.781, 10294.00
1516.816, 10344.00
1517.850, 10338.00
1518.884, 10268.00
1519.918, 10370.00
1520.952, 10357.00
1521.986, 10206.00
1523.019, 10346.00
1524.053, 10321.00
1525.086, 10331.00
1526.119, 10342.00
1527.152, 10210.95
1528.185, 10326.01
1529.217, 10391.49
1530.250, 10410.05
1531.282, 10241.18
1532.314, 10314.34
1533.346, 10290.51
1534.377, 10262.70
1535.409, 10369.92
1536.440, 10228.31
1537.472, 10333.39
1538.503, 10340.00
1539.534, 10391.67
1540.564, 10345.75
1541.595, 10329.98
1542.625, 10411.83
1543.656, 10439.62
1544.686, 10382.47
1545.716, 10437.01
1546.745, 10291.99
1547.775, 10322.08
1548.804, 10427.73
1549.834, 10375.48
1550.863, 10431.80
1551.892, 10446.78
1552.920, 10273.83
1553.949, 10427.69
1554.977, 10440.22
1556.006, 10307.63
1557.034, 10450.29
1558.062, 10337.70
1559.089, 10316.22
1560.117, 10363.31
1561.144, 10338.92
1562.172, 10427.22
1563.199, 10406.95
1564.226, 10470.00
1565.252, 10494.00
1566.279, 10459.00
1567.305, 10469.00
1568.332, 10523.00
1569.358, 10902.00
1570.384, 11547.00
##END=



