##NAMES=Braunite
##RRUFFID=R050388
##IDEAL CHEMISTRY=Mn^2+^Mn^3+^_6_SiO_12_
##LOCALITY=Langban, Filipstad, Varmland, Sweden
##OWNER=RRUFF
##SOURCE=University of Arizona Mineral Museum
##DESCRIPTION=Black crystals
##STATUS=The identification of this mineral has been confirmed by X-ray diffraction and chemical analysis
##URL=rruff.info/R050388
##MEASURED CHEMISTRY=(Mn^2+^_0.96_Mg_0.04_)_Î£=1_Mn^3+^_6.00_Si_1.00_O_12_
##PIN_ID=M00455
##ORIENTATION=Laser parallel to a* (1 0 0). Fiducial mark perpendicular to laser is parallel to c [0 0 1]
175.8340, 41779.00
177.0580, 41617.00
178.2820, 41536.51
179.5050, 41782.00
180.7290, 41391.00
181.9520, 41424.00
183.1760, 41317.00
184.3990, 41838.00
185.6220, 41546.00
186.8450, 41700.00
188.0670, 42140.00
189.2900, 42169.00
190.5120, 42358.00
191.7340, 42488.00
192.9560, 42664.00
194.1780, 42938.00
195.4000, 43259.00
196.6220, 43125.00
197.8430, 43500.00
199.0640, 43312.00
200.2860, 43756.00
201.5070, 43870.00
202.7270, 44227.00
203.9480, 43650.00
205.1690, 43131.00
206.3890, 42530.00
207.6090, 42046.00
208.8290, 42177.00
210.0490, 42614.00
211.2690, 43155.00
212.4890, 43285.00
213.7080, 43651.87
214.9280, 44502.00
216.1470, 44241.00
217.3660, 44586.00
218.5850, 45178.00
219.8030, 45030.00
221.0220, 44668.00
222.2400, 44673.00
223.4590, 44351.00
224.6770, 44070.00
225.8950, 43936.33
227.1120, 43725.00
228.3300, 43675.00
229.5480, 43523.10
230.7650, 43449.00
231.9820, 43345.00
233.1990, 43425.00
234.4160, 43444.00
235.6330, 43425.07
236.8490, 42997.16
238.0660, 43097.31
239.2820, 43111.77
240.4980, 43045.04
241.7140, 42654.02
242.9300, 42681.76
244.1460, 42541.68
245.3610, 42394.80
246.5770, 42481.48
247.7920, 42137.70
249.0070, 42063.87
250.2220, 42251.39
251.4370, 42353.12
252.6510, 42373.70
253.8660, 42069.96
255.0800, 42185.00
256.2940, 42132.21
257.5080, 42072.54
258.7220, 42246.52
259.9360, 41989.96
261.1490, 42160.24
262.3630, 42160.13
263.5760, 42238.00
264.7890, 42147.02
266.0020, 42108.20
267.2150, 42238.28
268.4270, 42274.84
269.6400, 42164.43
270.8520, 42247.27
272.0640, 41984.82
273.2760, 42025.00
274.4880, 41841.00
275.7000, 42507.00
276.9120, 42440.00
278.1230, 42510.00
279.3340, 42325.00
280.5450, 42389.00
281.7560, 42375.00
282.9670, 42218.00
284.1780, 42258.00
285.3880, 42199.00
286.5980, 42440.00
287.8090, 42155.00
289.0190, 42314.00
290.2290, 42207.00
291.4380, 42301.00
292.6480, 42449.00
293.8570, 42759.00
295.0670, 43079.00
296.2760, 42988.00
297.4850, 43307.00
298.6930, 43263.00
299.9020, 43382.00
301.1110, 43641.00
302.3190, 43246.00
303.5270, 43057.00
304.7350, 43013.00
305.9430, 42720.00
307.1510, 42866.00
308.3580, 42824.00
309.5660, 42752.93
310.7730, 42822.58
311.9800, 42716.00
313.1870, 42841.00
314.3940, 42849.00
315.6010, 42853.00
316.8070, 42874.43
318.0130, 42887.20
319.2200, 42820.00
320.4260, 42916.00
321.6310, 42856.00
322.8370, 42844.00
324.0430, 43025.00
325.2480, 43176.00
326.4540, 43111.00
327.6590, 43356.00
328.8640, 43560.00
330.0680, 43401.00
331.2730, 43629.00
332.4780, 43679.00
333.6820, 43766.00
334.8860, 44174.00
336.0900, 44205.00
337.2940, 44181.00
338.4980, 44661.00
339.7010, 44749.00
340.9050, 44691.00
342.1080, 44423.00
343.3110, 44293.00
344.5140, 44405.00
345.7170, 44034.00
346.9200, 43892.00
348.1220, 44057.00
349.3240, 43825.00
350.5270, 43793.00
351.7290, 43930.00
352.9310, 44047.00
354.1320, 44057.00
355.3340, 44102.00
356.5350, 44093.81
357.7370, 43985.00
358.9380, 44022.00
360.1390, 44090.00
361.3400, 44051.00
362.5400, 44115.00
363.7410, 44146.00
364.9410, 44039.00
366.1410, 44011.00
367.3410, 44020.00
368.5410, 44297.00
369.7410, 44439.00
370.9400, 44319.00
372.1400, 44403.00
373.3390, 44274.00
374.5380, 44570.00
375.7370, 44502.00
376.9360, 44674.00
378.1350, 44507.00
379.3330, 44807.00
380.5310, 44638.00
381.7300, 44947.00
382.9280, 44675.00
384.1260, 44516.00
385.3230, 44541.00
386.5210, 44740.00
387.7180, 44750.00
388.9160, 44678.00
390.1130, 44783.97
391.3100, 44617.00
392.5060, 44811.00
393.7030, 44786.00
394.9000, 44747.00
396.0960, 44681.00
397.2920, 44921.00
398.4880, 45147.00
399.6840, 45002.00
400.8800, 45114.00
402.0750, 44874.00
403.2710, 44646.00
404.4660, 44714.00
405.6610, 45040.00
406.8560, 44934.00
408.0510, 45021.00
409.2450, 45227.00
410.4400, 44860.00
411.6340, 45212.00
412.8280, 44718.00
414.0220, 45079.00
415.2160, 45397.00
416.4100, 45097.00
417.6030, 44909.00
418.7970, 45360.00
419.9900, 45219.00
421.1830, 45170.00
422.3760, 45232.00
423.5690, 45297.00
424.7610, 45336.00
425.9540, 45434.28
427.1460, 45319.00
428.3380, 45562.00
429.5300, 45665.00
430.7220, 45601.00
431.9140, 45965.00
433.1050, 45720.00
434.2970, 45834.00
435.4880, 46089.00
436.6790, 45868.00
437.8700, 45845.00
439.0610, 45686.00
440.2510, 45995.00
441.4420, 45881.00
442.6320, 46021.00
443.8220, 45970.00
445.0120, 46484.00
446.2020, 46174.00
447.3910, 46090.00
448.5810, 46430.00
449.7700, 46024.00
450.9600, 46306.00
452.1490, 46441.00
453.3370, 46269.00
454.5260, 46434.00
455.7150, 46396.00
456.9030, 46551.00
458.0910, 46526.00
459.2800, 46743.00
460.4670, 46636.66
461.6550, 46719.73
462.8430, 46478.00
464.0300, 46844.00
465.2180, 46836.00
466.4050, 47045.00
467.5920, 46786.00
468.7790, 47376.00
469.9650, 47313.00
471.1520, 47637.00
472.3380, 47657.00
473.5250, 47763.00
474.7110, 47993.00
475.8970, 47964.00
477.0820, 47928.00
478.2680, 48071.00
479.4540, 48124.00
480.6390, 48138.00
481.8240, 48105.00
483.0090, 48209.00
484.1940, 48148.41
485.3780, 48098.00
486.5630, 48045.00
487.7470, 47931.00
488.9320, 47775.00
490.1160, 47902.00
491.3000, 48337.00
492.4830, 47951.00
493.6670, 48430.00
494.8500, 47819.00
496.0340, 48165.00
497.2170, 47708.00
498.4000, 47746.00
499.5820, 47791.00
500.7650, 47916.00
501.9480, 48245.00
503.1300, 47967.00
504.3120, 47982.00
505.4940, 48368.00
506.6760, 48173.00
507.8580, 48071.00
509.0390, 48616.00
510.2210, 48348.00
511.4020, 48799.00
512.5830, 48596.00
513.7640, 48958.00
514.9450, 48973.00
516.1250, 49526.00
517.3060, 49553.00
518.4860, 49885.00
519.6660, 49439.00
520.8460, 49334.00
522.0260, 49459.00
523.2060, 49484.00
524.3850, 49562.00
525.5650, 49356.00
526.7440, 49100.00
527.9230, 49307.00
529.1020, 48757.00
530.2810, 48740.00
531.4590, 48450.00
532.6380, 48874.00
533.8160, 48581.00
534.9940, 48755.00
536.1720, 48672.00
537.3500, 48493.00
538.5270, 48842.00
539.7050, 48617.00
540.8820, 48441.00
542.0590, 48768.00
543.2360, 48735.00
544.4130, 48739.00
545.5900, 48792.00
546.7660, 48739.00
547.9430, 48516.00
549.1190, 48834.00
550.2950, 48986.00
551.4710, 48867.00
552.6470, 48631.00
553.8220, 48734.00
554.9980, 48810.00
556.1730, 48827.00
557.3480, 48910.90
558.5230, 48879.00
559.6980, 49072.00
560.8730, 48950.00
562.0470, 49129.00
563.2220, 48931.00
564.3960, 48924.00
565.5700, 49020.00
566.7440, 49258.00
567.9170, 49356.00
569.0910, 49785.00
570.2640, 49305.00
571.4380, 49716.00
572.6110, 49628.00
573.7840, 49448.00
574.9570, 49899.00
576.1290, 49727.00
577.3020, 49761.00
578.4740, 49732.00
579.6460, 50008.00
580.8180, 50591.00
581.9900, 49954.00
583.1620, 49697.00
584.3330, 49145.00
585.5040, 49385.00
586.6760, 49189.00
587.8470, 49368.00
589.0180, 48892.00
590.1880, 49173.00
591.3590, 48824.00
592.5290, 49119.00
593.7000, 48723.00
594.8700, 48895.00
596.0400, 48695.00
597.2090, 48613.00
598.3790, 48910.00
599.5490, 48744.00
600.7180, 48841.00
601.8870, 48625.00
603.0560, 48628.00
604.2250, 49063.00
605.3940, 48670.00
606.5620, 48903.00
607.7300, 49022.00
608.8990, 48945.00
610.0670, 49075.00
611.2350, 49171.00
612.4020, 49285.19
613.5700, 49285.00
614.7370, 49647.00
615.9050, 49798.00
617.0720, 50030.00
618.2390, 49975.00
619.4060, 50345.00
620.5720, 50538.00
621.7390, 50421.00
622.9050, 50685.00
624.0710, 50680.00
625.2370, 50708.00
626.4030, 51004.00
627.5690, 50946.00
628.7340, 50566.00
629.9000, 50700.00
631.0650, 50413.00
632.2300, 50311.00
633.3950, 50117.00
634.5600, 50014.00
635.7240, 49734.00
636.8890, 49542.00
638.0530, 50044.00
639.2170, 50359.00
640.3810, 49867.00
641.5450, 49689.00
642.7080, 49372.00
643.8720, 49133.00
645.0350, 49441.00
646.1980, 49504.00
647.3610, 49321.00
648.5240, 49340.00
649.6870, 49318.98
650.8490, 49409.00
652.0120, 49279.00
653.1740, 49407.00
654.3360, 49346.00
655.4980, 49388.00
656.6600, 49561.00
657.8210, 49612.00
658.9830, 49483.00
660.1440, 49646.00
661.3050, 49501.00
662.4660, 49466.00
663.6270, 49360.00
664.7870, 49421.00
665.9480, 49237.00
667.1080, 49452.00
668.2680, 49328.00
669.4280, 49243.83
670.5880, 48946.00
671.7480, 49153.00
672.9070, 49130.00
674.0670, 49388.00
675.2260, 49211.00
676.3850, 49312.00
677.5440, 49294.00
678.7030, 49110.00
679.8610, 49284.00
681.0200, 49029.00
682.1780, 49095.00
683.3360, 49341.00
684.4940, 49130.00
685.6520, 49516.00
686.8090, 49372.00
687.9670, 49135.00
689.1240, 49298.00
690.2810, 49336.00
691.4380, 49320.00
692.5950, 49627.00
693.7520, 49383.00
694.9080, 49269.00
696.0650, 49460.00
697.2210, 49402.00
698.3770, 49298.00
699.5330, 49372.00
700.6880, 49310.90
701.8440, 49406.00
702.9990, 49287.00
704.1550, 49285.00
705.3100, 49244.00
706.4650, 49096.00
707.6190, 49458.00
708.7740, 49306.00
709.9290, 49207.00
711.0830, 48981.00
712.2370, 49160.00
713.3910, 49255.00
714.5450, 49198.00
715.6980, 49162.00
716.8520, 49402.00
718.0050, 49497.00
719.1580, 49274.00
720.3110, 49453.00
721.4640, 49019.00
722.6170, 48983.00
723.7700, 48957.00
724.9220, 49076.00
726.0740, 49253.00
727.2260, 49248.00
728.3780, 49342.00
729.5300, 49212.00
730.6810, 49307.00
731.8330, 49394.00
732.9840, 49357.00
734.1350, 49131.00
735.2860, 49066.00
736.4370, 49246.00
737.5880, 49427.00
738.7380, 49304.00
739.8880, 49345.00
741.0390, 49252.00
742.1890, 49272.00
743.3380, 49260.00
744.4880, 49229.00
745.6380, 49526.00
746.7870, 49610.00
747.9360, 49826.00
749.0850, 49781.41
750.2340, 49665.00
751.3830, 49609.00
752.5310, 49573.00
753.6800, 49477.00
754.8280, 49677.00
755.9760, 49748.00
757.1240, 49654.00
758.2720, 49722.00
759.4190, 49625.00
760.5670, 49818.00
761.7140, 49762.00
762.8610, 49661.00
764.0080, 49529.00
765.1550, 49712.00
766.3020, 49641.39
767.4480, 49762.00
768.5950, 49787.00
769.7410, 49894.00
770.8870, 50098.00
772.0330, 49906.00
773.1780, 49815.00
774.3240, 49571.00
775.4690, 49786.00
776.6140, 49972.00
777.7590, 50015.00
778.9040, 49914.00
780.0490, 50274.00
781.1940, 49934.00
782.3380, 49837.00
783.4820, 49733.00
784.6260, 49838.00
785.7700, 49795.81
786.9140, 50188.00
788.0580, 49773.00
789.2010, 50328.00
790.3450, 50137.00
791.4880, 49955.00
792.6310, 50319.00
793.7730, 49971.00
794.9160, 50273.00
796.0590, 50211.00
797.2010, 49893.00
798.3430, 50092.00
799.4850, 50091.00
800.6270, 49845.00
801.7690, 50358.00
802.9100, 49878.00
804.0520, 50194.00
805.1930, 49959.00
806.3340, 50185.00
807.4750, 50149.00
808.6160, 50131.00
809.7560, 50163.00
810.8970, 49856.00
812.0370, 50205.00
813.1770, 50034.00
814.3170, 50150.00
815.4570, 50264.00
816.5960, 50441.00
817.7360, 50406.00
818.8750, 50453.27
820.0140, 50357.00
821.1530, 50417.00
822.2920, 50497.00
823.4310, 50524.00
824.5690, 50561.00
825.7070, 50582.00
826.8460, 50596.64
827.9840, 50506.00
829.1220, 50567.00
830.2590, 50605.61
831.3970, 50251.00
832.5340, 50729.00
833.6710, 50718.00
834.8080, 50711.00
835.9450, 50305.00
837.0820, 50340.00
838.2190, 50599.00
839.3550, 50388.00
840.4910, 50790.00
841.6270, 50593.00
842.7630, 50445.00
843.8990, 50676.00
845.0350, 50778.00
846.1700, 50753.00
847.3060, 50934.05
848.4410, 50604.00
849.5760, 50982.00
850.7100, 50861.00
851.8450, 50536.00
852.9800, 50643.00
854.1140, 50898.00
855.2480, 50926.00
856.3820, 50970.00
857.5160, 50668.00
858.6500, 50986.00
859.7830, 50738.82
860.9170, 50954.90
862.0500, 51085.18
863.1830, 51134.28
864.3160, 50859.07
865.4480, 51002.63
866.5810, 50978.38
867.7130, 50947.22
868.8460, 51149.73
869.9780, 50921.69
871.1100, 51120.48
872.2410, 51345.00
873.3730, 51351.00
874.5050, 51058.00
875.6360, 51206.00
876.7670, 51115.00
877.8980, 51296.00
879.0290, 51532.00
880.1590, 51404.00
881.2900, 51675.00
882.4200, 51449.00
883.5500, 51385.00
884.6800, 51321.00
885.8100, 51574.00
886.9400, 51546.00
888.0690, 51666.89
889.1990, 51682.00
890.3280, 51780.00
891.4570, 51787.00
892.5860, 51624.00
893.7140, 51723.00
894.8430, 51478.00
895.9710, 51602.00
897.1000, 51910.00
898.2280, 51715.00
899.3560, 51850.00
900.4830, 51938.00
901.6110, 51650.00
902.7380, 52226.00
903.8660, 51931.00
904.9930, 51928.00
906.1200, 52152.00
907.2460, 52076.00
908.3730, 52037.00
909.5000, 52210.00
910.6260, 52426.00
911.7520, 52249.00
912.8780, 52399.00
914.0040, 52284.00
915.1290, 52211.00
916.2550, 52395.00
917.3800, 52331.00
918.5050, 52536.00
919.6300, 52313.00
920.7550, 52567.00
921.8800, 52322.00
923.0040, 52719.00
924.1290, 52694.00
925.2530, 52600.00
926.3770, 52633.00
927.5010, 52704.00
928.6250, 52889.00
929.7480, 52618.00
930.8720, 52832.00
931.9950, 52858.00
933.1180, 52761.00
934.2410, 52771.00
935.3640, 53104.00
936.4860, 53045.00
937.6090, 53132.00
938.7310, 53252.00
939.8530, 53280.59
940.9750, 53529.00
942.0970, 53479.00
943.2180, 53508.00
944.3400, 53676.00
945.4610, 53681.00
946.5820, 53965.00
947.7030, 53992.00
948.8240, 53772.00
949.9450, 53755.00
951.0650, 54066.00
952.1860, 53778.75
953.3060, 53846.61
954.4260, 53561.00
955.5460, 53786.00
956.6650, 53808.00
957.7850, 53977.00
958.9040, 53871.00
960.0230, 54018.00
961.1420, 53822.00
962.2610, 53804.00
963.3800, 53940.16
964.4990, 54192.29
965.6170, 54358.59
966.7350, 54443.71
967.8530, 54204.53
968.9710, 54384.12
970.0890, 54395.89
971.2070, 54400.77
972.3240, 54639.26
973.4410, 54447.20
974.5580, 54681.98
975.6750, 54459.00
976.7920, 54302.00
977.9090, 54128.88
979.0250, 54399.89
980.1410, 54585.12
981.2580, 54689.24
982.3740, 54468.99
983.4890, 54667.45
984.6050, 54698.14
985.7200, 54721.88
986.8360, 54979.34
987.9510, 54806.19
989.0660, 55059.88
990.1810, 55143.18
991.2950, 55304.39
992.4100, 55296.81
993.5240, 55341.32
994.6390, 55554.80
995.7530, 55674.70
996.8660, 55647.54
997.9800, 55556.00
999.0940, 55668.00
1000.207, 55653.00
1001.320, 55577.00
1002.433, 55676.00
1003.546, 55555.00
1004.659, 55579.63
1005.772, 55414.00
1006.884, 55548.00
1007.996, 55576.00
1009.108, 55529.00
1010.220, 55456.00
1011.332, 55314.00
1012.444, 55698.00
1013.555, 55713.00
1014.666, 55708.00
1015.777, 55511.00
1016.888, 55322.00
1017.999, 55580.00
1019.110, 55563.00
1020.220, 55353.00
1021.331, 55686.00
1022.441, 55779.00
1023.551, 55472.00
1024.661, 55632.00
1025.770, 55555.00
1026.880, 55886.00
1027.989, 55867.00
1029.098, 55786.00
1030.207, 56138.00
1031.316, 55612.00
1032.425, 55829.00
1033.533, 56233.00
1034.642, 55972.00
1035.750, 56093.00
1036.858, 56175.00
1037.966, 55966.00
1039.073, 56187.00
1040.181, 56029.00
1041.288, 55872.00
1042.396, 56365.00
1043.503, 56174.00
1044.610, 56078.00
1045.716, 55909.00
1046.823, 56025.00
1047.929, 56245.00
1049.036, 56131.00
1050.142, 56604.00
1051.248, 56206.00
1052.353, 56293.00
1053.459, 56470.00
1054.564, 56443.00
1055.670, 56377.00
1056.775, 56670.00
1057.880, 56582.00
1058.985, 56457.00
1060.089, 56528.00
1061.194, 56329.00
1062.298, 56489.00
1063.402, 56453.00
1064.506, 56392.46
1065.610, 56479.01
1066.713, 56304.00
1067.817, 56521.00
1068.920, 56486.00
1070.023, 56473.00
1071.126, 56582.00
1072.229, 56527.00
1073.332, 56392.00
1074.435, 56599.00
1075.537, 56332.00
1076.639, 56354.00
1077.741, 56450.00
1078.843, 56558.00
1079.945, 56564.00
1081.046, 56622.00
1082.148, 56598.00
1083.249, 56476.00
1084.350, 56320.00
1085.451, 56434.00
1086.551, 56112.00
1087.652, 56231.00
1088.752, 56457.00
1089.853, 56235.00
1090.953, 56186.00
1092.053, 56086.00
1093.152, 56038.00
1094.252, 56335.00
1095.351, 56145.00
1096.451, 56497.00
1097.550, 56326.00
1098.649, 56019.00
1099.748, 56154.00
1100.846, 56174.00
1101.945, 56140.00
1103.043, 56245.00
1104.141, 55994.00
1105.239, 55821.09
1106.337, 55980.70
1107.434, 56054.56
1108.532, 56047.21
1109.629, 55715.59
1110.726, 55802.75
1111.823, 55722.08
1112.920, 55634.52
1114.017, 55780.62
1115.113, 55496.20
1116.210, 55638.59
1117.306, 55610.62
1118.402, 55660.64
1119.498, 55541.80
1120.593, 55475.14
1121.689, 55577.37
1122.784, 55586.09
1123.879, 55447.85
1124.974, 55502.86
1126.069, 55212.57
1127.164, 55225.29
1128.259, 55368.73
1129.353, 55239.00
1130.447, 55297.13
1131.541, 55283.71
1132.635, 54945.15
1133.729, 55172.05
1134.822, 55154.43
1135.916, 54885.70
1137.009, 55229.00
1138.102, 54939.00
1139.195, 54919.00
1140.288, 55265.00
1141.380, 55063.00
1142.473, 55021.00
1143.565, 54813.00
1144.657, 55126.00
1145.749, 54835.00
1146.841, 54881.00
1147.932, 54989.00
1149.024, 54917.00
1150.115, 54876.00
1151.206, 54729.00
1152.297, 54775.00
1153.388, 54641.00
1154.479, 54711.00
1155.569, 54903.00
1156.659, 54796.52
1157.750, 54731.00
1158.839, 54800.00
1159.929, 54640.00
1161.019, 54704.00
1162.108, 54617.00
1163.198, 54714.00
1164.287, 54414.00
1165.376, 54800.00
1166.465, 54446.00
1167.553, 54826.00
1168.642, 54718.00
1169.730, 54535.00
1170.818, 54305.00
1171.906, 54123.00
1172.994, 54685.00
1174.082, 54558.00
1175.170, 54620.00
1176.257, 54983.00
1177.344, 54195.00
1178.431, 54226.00
1179.518, 54410.00
1180.605, 54477.00
1181.691, 54750.00
1182.778, 54527.00
1183.864, 54490.00
1184.950, 54558.00
1186.036, 54288.00
1187.122, 54555.68
1188.207, 54739.79
1189.292, 54838.11
1190.378, 54855.25
1191.463, 54548.11
1192.548, 54659.72
1193.632, 54603.53
1194.717, 54540.44
1195.801, 54711.01
1196.886, 54451.03
1197.970, 54617.90
1199.054, 54614.38
1200.137, 54688.85
1201.221, 54594.45
1202.305, 54552.20
1203.388, 54678.89
1204.471, 54712.04
1205.554, 54598.21
1206.637, 54677.64
1207.719, 54411.79
1208.802, 54448.93
1209.884, 54616.80
1210.966, 54511.48
1212.048, 54424.00
1213.130, 54570.00
1214.212, 54420.00
1215.293, 54533.00
1216.374, 54198.00
1217.456, 54441.00
1218.536, 54489.00
1219.617, 54639.00
1220.698, 54529.00
1221.778, 54706.00
1222.859, 54457.00
1223.939, 54674.00
1225.019, 54438.00
1226.099, 54598.00
1227.178, 54966.00
1228.258, 54306.00
1229.337, 54476.00
1230.417, 54589.00
1231.496, 54735.00
1232.574, 54722.00
1233.653, 54648.00
1234.732, 54743.05
1235.810, 54683.34
1236.888, 54719.00
1237.966, 54665.00
1239.044, 54640.43
1240.122, 54658.39
1241.199, 54619.00
1242.277, 54645.00
1243.354, 54737.00
1244.431, 54674.00
1245.508, 54541.00
1246.585, 54854.00
1247.661, 54547.00
1248.738, 54695.00
1249.814, 54624.00
1250.890, 54478.00
1251.966, 54695.00
1253.042, 54583.00
1254.117, 54576.00
1255.193, 54546.00
1256.268, 54642.00
1257.343, 54524.00
1258.418, 54576.00
1259.493, 54449.00
1260.567, 54495.00
1261.642, 54604.00
1262.716, 54798.00
1263.790, 54756.00
1264.864, 54608.00
1265.938, 54827.00
1267.011, 54578.00
1268.085, 54325.13
1269.158, 54529.04
1270.231, 54647.16
1271.304, 54684.12
1272.377, 54396.77
1273.450, 54528.18
1274.522, 54491.77
1275.594, 54448.47
1276.666, 54638.82
1277.738, 54398.63
1278.810, 54585.28
1279.882, 54601.54
1280.953, 54695.77
1282.025, 54621.15
1283.096, 54598.68
1284.167, 54745.12
1285.238, 54798.04
1286.308, 54703.96
1287.379, 54803.16
1288.449, 54557.05
1289.519, 54613.95
1290.589, 54801.56
1291.659, 54715.98
1292.729, 54818.25
1293.798, 54848.97
1294.868, 54554.55
1295.937, 54825.58
1297.006, 54852.07
1298.075, 54627.48
1299.143, 54879.12
1300.212, 54689.14
1301.280, 54656.79
1302.348, 54743.07
1303.416, 54705.68
1304.484, 54863.27
1305.552, 54833.02
1306.620, 54785.99
1307.687, 54812.19
1308.754, 54630.85
1309.821, 54834.54
1310.888, 54775.22
1311.955, 54846.64
1313.021, 54947.68
1314.088, 54821.84
1315.154, 54936.19
1316.220, 54678.04
1317.286, 54731.58
1318.352, 54751.55
1319.417, 54970.75
1320.483, 54714.41
1321.548, 54759.29
1322.613, 54932.41
1323.678, 54926.08
1324.743, 54994.78
1325.807, 54918.00
1326.872, 54966.00
1327.936, 54951.00
1329.000, 54972.00
1330.064, 55231.00
1331.128, 55246.00
1332.191, 55091.00
1333.255, 55159.61
1334.318, 55144.00
1335.381, 55079.00
1336.444, 55086.93
1337.507, 55175.20
1338.569, 55363.00
1339.632, 54889.00
1340.694, 55324.00
1341.756, 54890.00
1342.818, 55198.00
1343.880, 55080.00
1344.941, 55144.00
1346.003, 54912.00
1347.064, 54911.46
1348.125, 55118.18
1349.186, 55239.12
1350.247, 55278.89
1351.308, 54994.35
1352.368, 55128.57
1353.428, 55094.97
1354.489, 55054.50
1355.549, 55247.66
1356.608, 55010.27
1357.668, 55199.72
1358.727, 55218.79
1359.787, 55315.84
1360.846, 55244.02
1361.905, 55224.36
1362.964, 55373.61
1364.022, 55429.32
1365.081, 55338.07
1366.139, 55440.05
1367.197, 55196.76
1368.255, 55256.46
1369.313, 55446.88
1370.371, 55364.11
1371.428, 55469.17
1372.486, 55502.70
1373.543, 55312.00
1374.600, 55224.00
1375.657, 55121.00
1376.713, 55129.00
1377.770, 55066.00
1378.826, 55050.00
1379.882, 55147.00
1380.938, 55376.00
1381.994, 55269.00
1383.050, 55354.04
1384.106, 55237.00
1385.161, 55355.00
1386.216, 55397.00
1387.271, 55462.00
1388.326, 55288.00
1389.381, 55410.00
1390.435, 54989.00
1391.490, 55237.00
1392.544, 55223.62
1393.598, 55069.00
1394.652, 55283.00
1395.705, 55388.00
1396.759, 55096.00
1397.812, 55411.00
1398.866, 55361.00
1399.919, 55281.00
1400.972, 55225.00
1402.024, 55381.00
1403.077, 55173.00
1404.129, 54823.82
1405.181, 55036.64
1406.233, 55163.66
1407.285, 55209.52
1408.337, 54931.07
1409.389, 55071.39
1410.440, 55043.86
1411.491, 55009.46
1412.542, 55208.71
1413.593, 54977.41
1414.644, 55172.95
1415.695, 55198.10
1416.745, 55301.22
1417.795, 55235.48
1418.845, 55221.89
1419.895, 55377.22
1420.945, 55484.00
1421.995, 55339.00
1423.044, 55400.00
1424.093, 55201.00
1425.142, 55224.00
1426.191, 55190.19
1427.240, 55143.00
1428.289, 55136.00
1429.337, 55221.00
1430.385, 55161.00
1431.433, 55377.00
1432.481, 55471.00
1433.529, 55269.00
1434.577, 55144.00
1435.624, 55275.00
1436.672, 55467.00
1437.719, 55290.00
1438.766, 55158.00
1439.812, 55301.00
1440.859, 55330.00
1441.905, 55502.00
1442.952, 55546.00
1443.998, 55789.00
1445.044, 55410.00
1446.090, 55696.00
1447.135, 55462.00
1448.181, 55393.00
1449.226, 55476.00
1450.271, 55517.00
1451.316, 55560.14
1452.361, 55573.24
1453.405, 55604.00
1454.450, 55521.00
1455.494, 55528.79
1456.538, 55504.48
1457.582, 55500.00
1458.626, 55434.00
1459.670, 55489.00
1460.713, 55400.00
1461.757, 55422.54
1462.800, 55410.00
1463.843, 55450.00
1464.886, 55527.00
1465.928, 55582.00
1466.971, 55484.00
1468.013, 55556.00
1469.055, 55435.00
1470.097, 55577.00
1471.139, 55394.00
1472.181, 55329.00
1473.222, 55453.00
1474.263, 55546.00
1475.305, 55527.00
1476.346, 55371.00
1477.386, 55407.00
1478.427, 55435.00
1479.468, 55470.00
1480.508, 55538.98
1481.548, 55692.00
1482.588, 55613.00
1483.628, 55473.00
1484.668, 55333.00
1485.707, 55519.00
1486.747, 55637.00
1487.786, 55646.00
1488.825, 55728.00
1489.864, 55732.00
1490.902, 55836.00
1491.941, 55806.01
1492.979, 55621.82
1494.017, 55822.28
1495.055, 55936.95
1496.093, 55970.45
1497.131, 55679.65
1498.168, 55807.61
1499.206, 55767.75
1500.243, 55721.01
1501.280, 55907.91
1502.317, 55664.28
1503.354, 55847.48
1504.390, 55860.29
1505.426, 55951.07
1506.463, 55873.01
1507.499, 55847.09
1508.535, 55990.09
1509.570, 56039.56
1510.606, 55942.05
1511.641, 56037.79
1512.676, 55788.25
1513.711, 55841.70
1514.746, 56025.88
1515.781, 55936.86
1516.816, 56035.69
1517.850, 56062.97
1518.884, 56031.00
1519.918, 56044.00
1520.952, 56091.00
1521.986, 55824.00
1523.019, 55949.00
1524.053, 55903.00
1525.086, 56028.00
1526.119, 55968.00
1527.152, 56036.00
1528.185, 55801.00
1529.217, 55950.00
1530.250, 56166.00
1531.282, 55955.00
1532.314, 56022.00
1533.346, 55824.00
1534.377, 55899.00
1535.409, 56025.00
1536.440, 55931.00
1537.472, 55893.00
1538.503, 56192.00
1539.534, 56111.00
1540.564, 56038.00
1541.595, 55740.77
1542.625, 55939.25
1543.656, 56051.96
1544.686, 56083.48
1545.716, 55790.70
1546.745, 55916.70
1547.775, 55874.86
1548.804, 55826.15
1549.834, 56011.08
1550.863, 55765.47
1551.892, 55946.70
1552.920, 55957.53
1553.949, 56046.35
1554.977, 55966.31
1556.006, 55938.43
1557.034, 56079.46
1558.062, 56126.95
1559.089, 56027.47
1560.117, 56121.25
1561.144, 55869.73
1562.172, 56034.00
1563.199, 55937.00
1564.226, 55977.00
1565.252, 56169.00
1566.279, 56156.00
1567.305, 56408.00
1568.332, 56054.00
1569.358, 56306.00
1570.384, 56179.00
1571.409, 56214.00
1572.435, 56308.00
##END=



