##NAMES=Braunite
##RRUFFID=R050388
##IDEAL CHEMISTRY=Mn^2+^Mn^3+^_6_SiO_12_
##LOCALITY=Langban, Filipstad, Varmland, Sweden
##OWNER=RRUFF
##SOURCE=University of Arizona Mineral Museum
##DESCRIPTION=Black crystals
##STATUS=The identification of this mineral has been confirmed by X-ray diffraction and chemical analysis
##URL=rruff.info/R050388
##MEASURED CHEMISTRY=(Mn^2+^_0.96_Mg_0.04_)_Î£=1_Mn^3+^_6.00_Si_1.00_O_12_
##PIN_ID=M00455
##ORIENTATION=Laser parallel to a* (1 0 0). Fiducial mark perpendicular to laser is parallel to c [0 0 1]
175.8340, 43286.46
177.0580, 43524.00
178.2820, 43293.00
179.5050, 43364.00
180.7290, 43500.00
181.9520, 43215.00
183.1760, 43327.00
184.3990, 43506.00
185.6220, 43480.00
186.8450, 43799.00
188.0670, 44152.00
189.2900, 43710.00
190.5120, 44386.00
191.7340, 44338.00
192.9560, 44587.00
194.1780, 44845.00
195.4000, 44898.00
196.6220, 45005.00
197.8430, 45113.00
199.0640, 45518.00
200.2860, 45784.00
201.5070, 46567.00
202.7270, 46630.00
203.9480, 46293.00
205.1690, 45497.00
206.3890, 44835.00
207.6090, 44334.00
208.8290, 44614.00
210.0490, 45276.00
211.2690, 45620.00
212.4890, 46347.00
213.7080, 47361.00
214.9280, 47899.00
216.1470, 47979.00
217.3660, 49002.00
218.5850, 49343.00
219.8030, 49664.00
221.0220, 49333.00
222.2400, 48974.00
223.4590, 48842.00
224.6770, 48036.00
225.8950, 47816.00
227.1120, 47190.00
228.3300, 46048.00
229.5480, 45772.00
230.7650, 45549.00
231.9820, 45188.00
233.1990, 45221.00
234.4160, 45019.00
235.6330, 45192.00
236.8490, 44511.00
238.0660, 44266.00
239.2820, 43715.00
240.4980, 43281.00
241.7140, 43155.00
242.9300, 42976.00
244.1460, 42723.00
245.3610, 42765.00
246.5770, 42442.00
247.7920, 42307.00
249.0070, 42145.46
250.2220, 42348.23
251.4370, 42465.20
252.6510, 42501.00
253.8660, 42212.50
255.0800, 42342.76
256.2940, 42305.20
257.5080, 42260.75
258.7220, 42449.96
259.9360, 42208.62
261.1490, 42394.11
262.3630, 42409.23
263.5760, 42502.32
264.7890, 42426.55
266.0020, 42402.93
267.2150, 42548.23
268.4270, 42599.99
269.6400, 42504.79
270.8520, 42602.83
272.0640, 42355.58
273.2760, 42411.33
274.4880, 42597.81
275.7000, 42440.00
276.9120, 42449.00
278.1230, 42588.00
279.3340, 42394.00
280.5450, 42324.66
281.7560, 42336.54
282.9670, 42061.00
284.1780, 42211.00
285.3880, 42294.00
286.5980, 42087.00
287.8090, 42159.00
289.0190, 42117.47
290.2290, 42047.28
291.4380, 42079.00
292.6480, 42041.22
293.8570, 42297.95
295.0670, 42468.95
296.2760, 42558.73
297.4850, 42324.20
298.6930, 42508.39
299.9020, 42524.82
301.1110, 42534.35
302.3190, 42777.48
303.5270, 42616.00
304.7350, 42612.00
305.9430, 42779.00
307.1510, 42807.00
308.3580, 42830.00
309.5660, 42721.00
310.7730, 42873.00
311.9800, 42636.00
313.1870, 42677.00
314.3940, 42591.00
315.6010, 42789.00
316.8070, 42760.00
318.0130, 42817.00
319.2200, 43096.00
320.4260, 42979.00
321.6310, 42925.00
322.8370, 43002.00
324.0430, 42924.00
325.2480, 43021.00
326.4540, 43187.00
327.6590, 43404.00
328.8640, 43588.00
330.0680, 43722.00
331.2730, 43667.00
332.4780, 43734.00
333.6820, 44054.00
334.8860, 43968.00
336.0900, 44573.00
337.2940, 44787.00
338.4980, 44563.00
339.7010, 44722.00
340.9050, 44682.00
342.1080, 44573.00
343.3110, 44513.00
344.5140, 44255.00
345.7170, 43862.00
346.9200, 43935.00
348.1220, 43938.00
349.3240, 43879.00
350.5270, 44189.00
351.7290, 43830.00
352.9310, 43855.00
354.1320, 43709.00
355.3340, 43910.00
356.5350, 43625.00
357.7370, 43859.00
358.9380, 44041.00
360.1390, 44105.00
361.3400, 43752.00
362.5400, 43904.00
363.7410, 43915.00
364.9410, 44000.00
366.1410, 44205.00
367.3410, 44304.00
368.5410, 43985.00
369.7410, 43766.00
370.9400, 44152.00
372.1400, 44097.00
373.3390, 44163.00
374.5380, 44393.00
375.7370, 44304.00
376.9360, 44298.00
378.1350, 44543.00
379.3330, 44254.00
380.5310, 44254.00
381.7300, 44811.00
382.9280, 44535.00
384.1260, 44687.00
385.3230, 44689.25
386.5210, 44605.00
387.7180, 44526.00
388.9160, 44609.00
390.1130, 44542.00
391.3100, 44646.00
392.5060, 44429.00
393.7030, 44298.00
394.9000, 44435.00
396.0960, 44615.00
397.2920, 44591.00
398.4880, 44699.00
399.6840, 44564.00
400.8800, 44356.00
402.0750, 44544.00
403.2710, 44453.00
404.4660, 44681.00
405.6610, 44665.00
406.8560, 44742.78
408.0510, 44849.35
409.2450, 44749.00
410.4400, 44978.00
411.6340, 44687.00
412.8280, 44672.74
414.0220, 44961.00
415.2160, 44808.00
416.4100, 44810.00
417.6030, 44903.00
418.7970, 45074.00
419.9900, 45237.00
421.1830, 45330.00
422.3760, 45452.71
423.5690, 45277.00
424.7610, 45489.00
425.9540, 45466.00
427.1460, 45171.00
428.3380, 45555.00
429.5300, 45635.00
430.7220, 45479.00
431.9140, 45658.00
433.1050, 45497.00
434.2970, 45960.00
435.4880, 45878.00
436.6790, 45903.00
437.8700, 45477.00
439.0610, 45913.00
440.2510, 45582.00
441.4420, 45755.00
442.6320, 46002.00
443.8220, 45837.00
445.0120, 45884.00
446.2020, 46218.00
447.3910, 45962.00
448.5810, 45949.00
449.7700, 46241.00
450.9600, 46119.00
452.1490, 46050.00
453.3370, 46220.21
454.5260, 46232.00
455.7150, 46385.00
456.9030, 46500.00
458.0910, 46557.00
459.2800, 46439.00
460.4670, 46302.00
461.6550, 46716.00
462.8430, 46808.00
464.0300, 46202.00
465.2180, 46500.00
466.4050, 46707.00
467.5920, 46455.00
468.7790, 46472.00
469.9650, 46511.00
471.1520, 46428.00
472.3380, 46575.00
473.5250, 47048.00
474.7110, 46819.00
475.8970, 46905.00
477.0820, 47355.00
478.2680, 47046.00
479.4540, 47120.00
480.6390, 47097.00
481.8240, 47196.00
483.0090, 47354.00
484.1940, 47050.00
485.3780, 47377.00
486.5630, 47311.00
487.7470, 47130.00
488.9320, 47194.00
490.1160, 47259.00
491.3000, 47271.00
492.4830, 47367.00
493.6670, 47393.00
494.8500, 47396.00
496.0340, 47437.80
497.2170, 47548.00
498.4000, 47496.00
499.5820, 47610.00
500.7650, 47721.00
501.9480, 47776.00
503.1300, 47600.00
504.3120, 47990.00
505.4940, 47915.00
506.6760, 48187.00
507.8580, 48185.72
509.0390, 47936.00
510.2210, 48149.00
511.4020, 48186.00
512.5830, 48173.00
513.7640, 48515.00
514.9450, 48825.00
516.1250, 49070.00
517.3060, 49161.00
518.4860, 49101.00
519.6660, 49247.56
520.8460, 49013.00
522.0260, 49245.00
523.2060, 49084.00
524.3850, 48861.00
525.5650, 48956.00
526.7440, 48616.00
527.9230, 48517.00
529.1020, 48684.00
530.2810, 48526.00
531.4590, 48330.00
532.6380, 48394.00
533.8160, 48354.00
534.9940, 48107.00
536.1720, 48237.00
537.3500, 48088.00
538.5270, 48108.00
539.7050, 48265.00
540.8820, 48274.00
542.0590, 48203.00
543.2360, 48254.39
544.4130, 48183.00
545.5900, 48281.00
546.7660, 48209.00
547.9430, 48370.00
549.1190, 48189.00
550.2950, 48371.00
551.4710, 48427.00
552.6470, 48454.00
553.8220, 48282.00
554.9980, 48355.00
556.1730, 48542.00
557.3480, 48351.00
558.5230, 48748.00
559.6980, 48561.00
560.8730, 48466.00
562.0470, 48444.00
563.2220, 48580.00
564.3960, 48574.00
565.5700, 48631.00
566.7440, 48434.00
567.9170, 48795.00
569.0910, 48570.00
570.2640, 48543.00
571.4380, 48892.00
572.6110, 48730.00
573.7840, 48953.00
574.9570, 48807.00
576.1290, 48488.00
577.3020, 48388.00
578.4740, 48755.00
579.6460, 48427.00
580.8180, 48732.00
581.9900, 48625.00
583.1620, 48317.00
584.3330, 48239.00
585.5040, 48312.00
586.6760, 48045.00
587.8470, 48303.00
589.0180, 48076.00
590.1880, 48340.00
591.3590, 48219.00
592.5290, 48300.00
593.7000, 48049.00
594.8700, 48188.00
596.0400, 48364.00
597.2090, 48323.00
598.3790, 48395.00
599.5490, 48320.00
600.7180, 48364.00
601.8870, 48497.00
603.0560, 48836.00
604.2250, 48820.00
605.3940, 48906.00
606.5620, 49224.00
607.7300, 48999.00
608.8990, 49048.00
610.0670, 49580.00
611.2350, 49597.00
612.4020, 50009.00
613.5700, 50061.00
614.7370, 50392.00
615.9050, 50700.00
617.0720, 50835.00
618.2390, 51403.00
619.4060, 51838.00
620.5720, 52161.00
621.7390, 52430.00
622.9050, 52926.00
624.0710, 52919.00
625.2370, 53096.00
626.4030, 53319.00
627.5690, 52935.00
628.7340, 53055.00
629.9000, 53160.00
631.0650, 52853.00
632.2300, 52482.00
633.3950, 52006.00
634.5600, 51168.00
635.7240, 50890.00
636.8890, 50661.00
638.0530, 50609.00
639.2170, 50296.00
640.3810, 50310.00
641.5450, 49845.00
642.7080, 49660.00
643.8720, 49374.00
645.0350, 49341.00
646.1980, 49278.00
647.3610, 49232.00
648.5240, 49113.00
649.6870, 49009.00
650.8490, 48785.00
652.0120, 48932.00
653.1740, 49159.00
654.3360, 49024.00
655.4980, 48811.00
656.6600, 48940.00
657.8210, 48800.00
658.9830, 48723.00
660.1440, 48814.49
661.3050, 48995.00
662.4660, 48878.00
663.6270, 49092.00
664.7870, 49040.00
665.9480, 48698.00
667.1080, 49011.00
668.2680, 48783.00
669.4280, 48831.00
670.5880, 49159.00
671.7480, 49073.00
672.9070, 49091.00
674.0670, 49321.00
675.2260, 49320.00
676.3850, 49368.45
677.5440, 49470.00
678.7030, 49223.00
679.8610, 49564.00
681.0200, 49162.00
682.1780, 49292.00
683.3360, 49545.00
684.4940, 49866.00
685.6520, 49590.00
686.8090, 49724.00
687.9670, 49961.00
689.1240, 50153.00
690.2810, 50493.00
691.4380, 50930.00
692.5950, 51028.00
693.7520, 51027.00
694.9080, 51195.00
696.0650, 51082.00
697.2210, 51192.00
698.3770, 51091.00
699.5330, 50856.00
700.6880, 50706.00
701.8440, 50506.00
702.9990, 50514.00
704.1550, 50641.00
705.3100, 50143.00
706.4650, 49854.00
707.6190, 49334.00
708.7740, 49499.00
709.9290, 49060.00
711.0830, 49090.00
712.2370, 49504.00
713.3910, 49035.00
714.5450, 49104.00
715.6980, 48749.00
716.8520, 48710.00
718.0050, 48968.00
719.1580, 49104.00
720.3110, 49255.00
721.4640, 49143.00
722.6170, 49063.00
723.7700, 49005.00
724.9220, 49125.00
726.0740, 49024.00
727.2260, 48845.00
728.3780, 48750.00
729.5300, 49059.00
730.6810, 49335.00
731.8330, 48890.00
732.9840, 48528.00
734.1350, 48758.00
735.2860, 49114.00
736.4370, 49045.00
737.5880, 48839.00
738.7380, 49306.00
739.8880, 49138.00
741.0390, 49124.00
742.1890, 49132.00
743.3380, 49047.00
744.4880, 49053.00
745.6380, 49217.00
746.7870, 49320.00
747.9360, 49313.00
749.0850, 49194.00
750.2340, 49191.00
751.3830, 49183.00
752.5310, 49321.00
753.6800, 49483.00
754.8280, 49320.00
755.9760, 49371.00
757.1240, 49615.00
758.2720, 49351.00
759.4190, 49371.00
760.5670, 49613.00
761.7140, 49315.00
762.8610, 49410.00
764.0080, 49470.00
765.1550, 49415.00
766.3020, 49319.00
767.4480, 49360.00
768.5950, 49655.00
769.7410, 49643.00
770.8870, 49594.00
772.0330, 49376.00
773.1780, 49530.00
774.3240, 49364.00
775.4690, 49584.00
776.6140, 49465.00
777.7590, 49265.00
778.9040, 49564.00
780.0490, 49536.00
781.1940, 49616.00
782.3380, 49695.00
783.4820, 49531.00
784.6260, 49481.00
785.7700, 49633.00
786.9140, 49433.00
788.0580, 49548.00
789.2010, 49453.00
790.3450, 49481.00
791.4880, 49419.00
792.6310, 49676.00
793.7730, 49639.00
794.9160, 49723.00
796.0590, 49641.00
797.2010, 49934.00
798.3430, 49412.00
799.4850, 49745.00
800.6270, 49503.00
801.7690, 49754.00
802.9100, 49691.00
804.0520, 49665.00
805.1930, 49377.00
806.3340, 49695.00
807.4750, 49507.00
808.6160, 49550.00
809.7560, 49466.00
810.8970, 49561.00
812.0370, 49737.00
813.1770, 49761.00
814.3170, 49643.00
815.4570, 49954.00
816.5960, 49742.00
817.7360, 50056.00
818.8750, 49853.00
820.0140, 49672.00
821.1530, 49759.00
822.2920, 49877.00
823.4310, 49996.00
824.5690, 49931.00
825.7070, 49949.00
826.8460, 50008.00
827.9840, 49890.00
829.1220, 49742.00
830.2590, 49865.00
831.3970, 50061.00
832.5340, 49849.00
833.6710, 49800.00
834.8080, 50033.00
835.9450, 49775.00
837.0820, 50004.00
838.2190, 50034.00
839.3550, 49914.00
840.4910, 50045.80
841.6270, 50035.70
842.7630, 50124.00
843.8990, 50104.00
845.0350, 50209.00
846.1700, 50193.00
847.3060, 50205.00
848.4410, 50220.00
849.5760, 50373.00
850.7100, 50198.00
851.8450, 50310.00
852.9800, 50006.00
854.1140, 50388.00
855.2480, 50447.00
856.3820, 50506.00
857.5160, 50253.00
858.6500, 50551.00
859.7830, 50527.00
860.9170, 50306.00
862.0500, 50914.00
863.1830, 50739.00
864.3160, 50616.00
865.4480, 50577.00
866.5810, 50644.00
867.7130, 50726.00
868.8460, 50685.00
869.9780, 50747.50
871.1100, 50781.00
872.2410, 50806.00
873.3730, 50650.00
874.5050, 50706.00
875.6360, 50875.00
876.7670, 50953.00
877.8980, 51124.00
879.0290, 50727.00
880.1590, 51047.00
881.2900, 51165.00
882.4200, 50744.00
883.5500, 51158.00
884.6800, 51146.00
885.8100, 50762.00
886.9400, 51080.00
888.0690, 50962.00
889.1990, 50776.00
890.3280, 51071.00
891.4570, 51130.00
892.5860, 50864.00
893.7140, 50868.00
894.8430, 51446.00
895.9710, 51285.00
897.1000, 51410.00
898.2280, 51064.00
899.3560, 51409.00
900.4830, 51609.00
901.6110, 51486.00
902.7380, 51468.00
903.8660, 51618.00
904.9930, 51510.00
906.1200, 51538.00
907.2460, 51604.00
908.3730, 51738.00
909.5000, 51804.00
910.6260, 51470.00
911.7520, 51786.00
912.8780, 51706.00
914.0040, 51492.00
915.1290, 51639.00
916.2550, 52149.00
917.3800, 51768.00
918.5050, 52106.00
919.6300, 51836.00
920.7550, 51948.00
921.8800, 52106.00
923.0040, 52070.00
924.1290, 52081.00
925.2530, 52352.00
926.3770, 52051.00
927.5010, 52143.00
928.6250, 51906.00
929.7480, 52450.00
930.8720, 52242.00
931.9950, 52153.00
933.1180, 52548.00
934.2410, 52462.00
935.3640, 52202.00
936.4860, 52279.00
937.6090, 52347.00
938.7310, 52376.00
939.8530, 52808.00
940.9750, 52588.00
942.0970, 52750.00
943.2180, 52713.00
944.3400, 52501.00
945.4610, 52738.00
946.5820, 52600.00
947.7030, 52758.00
948.8240, 52945.00
949.9450, 52857.00
951.0650, 53266.00
952.1860, 53062.00
953.3060, 53069.00
954.4260, 52895.00
955.5460, 53121.00
956.6650, 52946.00
957.7850, 53122.00
958.9040, 53277.00
960.0230, 53272.00
961.1420, 53167.00
962.2610, 53284.00
963.3800, 53598.00
964.4990, 53843.00
965.6170, 53468.00
966.7350, 53773.00
967.8530, 53704.00
968.9710, 53825.27
970.0890, 53980.00
971.2070, 54082.00
972.3240, 54135.00
973.4410, 54004.00
974.5580, 53905.00
975.6750, 54053.00
976.7920, 53926.00
977.9090, 53996.00
979.0250, 54129.00
980.1410, 54177.00
981.2580, 54142.00
982.3740, 54485.00
983.4890, 53985.00
984.6050, 54902.00
985.7200, 54510.00
986.8360, 54565.00
987.9510, 54873.00
989.0660, 54792.00
990.1810, 54820.00
991.2950, 55086.00
992.4100, 54693.00
993.5240, 54895.00
994.6390, 55078.00
995.7530, 54953.00
996.8660, 55252.00
997.9800, 54969.00
999.0940, 54944.00
1000.207, 55271.00
1001.320, 55193.00
1002.433, 55013.00
1003.546, 55332.00
1004.659, 55145.00
1005.772, 55127.00
1006.884, 55123.00
1007.996, 55134.00
1009.108, 55102.00
1010.220, 55099.82
1011.332, 55263.00
1012.444, 55162.00
1013.555, 55160.71
1014.666, 55088.00
1015.777, 55022.00
1016.888, 54996.00
1017.999, 54910.00
1019.110, 54951.00
1020.220, 54944.39
1021.331, 54941.00
1022.441, 55004.00
1023.551, 55153.00
1024.661, 55190.00
1025.770, 55272.64
1026.880, 55192.00
1027.989, 55438.00
1029.098, 55340.00
1030.207, 55500.00
1031.316, 55411.00
1032.425, 55480.00
1033.533, 55732.00
1034.642, 55344.00
1035.750, 55705.00
1036.858, 55469.00
1037.966, 55643.00
1039.073, 55501.00
1040.181, 55882.00
1041.288, 55718.00
1042.396, 55594.00
1043.503, 56000.00
1044.610, 55709.00
1045.716, 56051.00
1046.823, 55753.00
1047.929, 55812.00
1049.036, 55900.00
1050.142, 55996.00
1051.248, 56001.00
1052.353, 56184.00
1053.459, 55966.00
1054.564, 56049.00
1055.670, 56059.00
1056.775, 55962.46
1057.880, 56154.01
1058.985, 56259.77
1060.089, 56284.36
1061.194, 55984.64
1062.298, 56103.70
1063.402, 56054.93
1064.506, 55999.29
1065.610, 56177.28
1066.713, 55924.75
1067.817, 56099.04
1068.920, 56102.95
1070.023, 56184.84
1071.126, 56097.88
1072.229, 56063.06
1073.332, 56197.16
1074.435, 56237.74
1075.537, 56131.34
1076.639, 56218.19
1077.741, 55959.76
1078.843, 56004.32
1079.945, 56179.61
1081.046, 56090.00
1082.148, 56137.00
1083.249, 56079.00
1084.350, 55838.73
1085.451, 56004.18
1086.551, 56083.89
1087.652, 56082.39
1088.752, 55756.61
1089.853, 55849.58
1090.953, 55774.75
1092.053, 55693.04
1093.152, 55845.00
1094.252, 55566.40
1095.351, 55714.66
1096.451, 55692.50
1097.550, 55748.35
1098.649, 55635.34
1099.748, 55574.49
1100.846, 55682.59
1101.945, 55697.12
1103.043, 55564.70
1104.141, 55625.54
1105.239, 55341.09
1106.337, 55359.63
1107.434, 55508.93
1108.532, 55385.00
1109.629, 55448.96
1110.726, 55441.37
1111.823, 55108.63
1112.920, 55341.35
1114.017, 55329.53
1115.113, 55066.65
1116.210, 55280.00
1117.306, 55051.73
1118.402, 54981.10
1119.498, 55029.10
1120.593, 54953.46
1121.689, 55072.78
1122.784, 55004.28
1123.879, 54919.00
1124.974, 54906.96
1126.069, 54687.39
1127.164, 54852.84
1128.259, 54755.28
1129.353, 54788.48
1130.447, 54851.32
1131.541, 54687.26
1132.635, 54763.41
1133.729, 54467.05
1134.822, 54482.41
1135.916, 54464.18
1137.009, 54645.21
1138.102, 54350.69
1139.195, 54357.39
1140.288, 54492.35
1141.380, 54447.88
1142.473, 54478.40
1143.565, 54286.84
1144.657, 54303.94
1145.749, 54263.52
1146.841, 54421.87
1147.932, 54305.00
1149.024, 54098.00
1150.115, 54202.00
1151.206, 54332.00
1152.297, 54320.00
1153.388, 54377.71
1154.479, 54300.00
1155.569, 54338.00
1156.659, 54225.00
1157.750, 54090.00
1158.839, 54135.00
1159.929, 54112.00
1161.019, 53950.00
1162.108, 53851.00
1163.198, 54011.00
1164.287, 54108.00
1165.376, 53924.00
1166.465, 53927.00
1167.553, 54160.00
1168.642, 53942.00
1169.730, 54043.00
1170.818, 53807.00
1171.906, 53961.00
1172.994, 53938.00
1174.082, 54158.00
1175.170, 54023.00
1176.257, 53912.00
1177.344, 54110.00
1178.431, 53856.00
1179.518, 54051.00
1180.605, 53800.00
1181.691, 53852.00
1182.778, 53786.00
1183.864, 53968.00
1184.950, 54051.00
1186.036, 53512.00
1187.122, 54108.00
1188.207, 53865.00
1189.292, 53568.00
1190.378, 53787.00
1191.463, 54143.00
1192.548, 54128.00
1193.632, 53879.00
1194.717, 53803.00
1195.801, 53797.00
1196.886, 53905.00
1197.970, 53860.39
1199.054, 53808.00
1200.137, 53901.00
1201.221, 53768.00
1202.305, 53794.00
1203.388, 53812.48
1204.471, 53802.00
1205.554, 53838.00
1206.637, 53827.00
1207.719, 53801.00
1208.802, 53969.00
1209.884, 53818.82
1210.966, 54110.00
1212.048, 54041.63
1213.130, 53990.00
1214.212, 53962.00
1215.293, 53893.00
1216.374, 53680.00
1217.456, 53806.00
1218.536, 53934.00
1219.617, 53958.00
1220.698, 53779.00
1221.778, 54068.00
1222.859, 54037.00
1223.939, 53908.00
1225.019, 54409.00
1226.099, 53892.00
1227.178, 53853.00
1228.258, 53689.00
1229.337, 53838.00
1230.417, 53746.00
1231.496, 53801.00
1232.574, 54041.00
1233.653, 53801.00
1234.732, 53948.00
1235.810, 53935.00
1236.888, 54163.00
1237.966, 53814.00
1239.044, 54022.00
1240.122, 53888.00
1241.199, 54017.00
1242.277, 54036.00
1243.354, 53891.00
1244.431, 53800.00
1245.508, 53747.00
1246.585, 53960.00
1247.661, 53912.00
1248.738, 53800.55
1249.814, 54002.86
1250.890, 54119.37
1251.966, 54154.71
1253.042, 53865.75
1254.117, 53995.55
1255.193, 53957.53
1256.268, 53912.63
1257.343, 54101.38
1258.418, 53859.58
1259.493, 54044.62
1260.567, 54059.27
1261.642, 54151.90
1262.716, 54075.67
1263.790, 54051.59
1264.864, 54196.44
1265.938, 54247.75
1267.011, 54152.07
1268.085, 54249.66
1269.158, 53916.00
1270.231, 53854.00
1271.304, 53882.00
1272.377, 53973.00
1273.450, 53962.00
1274.522, 53976.00
1275.594, 54193.00
1276.666, 54014.00
1277.738, 54058.00
1278.810, 54142.00
1279.882, 54019.00
1280.953, 54239.00
1282.025, 53716.00
1283.096, 53920.00
1284.167, 54187.00
1285.238, 53881.00
1286.308, 54129.00
1287.379, 53848.00
1288.449, 54166.00
1289.519, 53988.00
1290.589, 54070.00
1291.659, 54099.00
1292.729, 53981.00
1293.798, 54058.00
1294.868, 53864.49
1295.937, 54076.73
1297.006, 54203.20
1298.075, 54248.48
1299.143, 53969.45
1300.212, 54109.21
1301.280, 54081.12
1302.348, 54046.15
1303.416, 54244.83
1304.484, 54012.97
1305.552, 54207.94
1306.620, 54232.53
1307.687, 54335.09
1308.754, 54268.78
1309.821, 54254.63
1310.888, 54409.39
1311.955, 54470.63
1313.021, 54384.87
1314.088, 54492.38
1315.154, 54254.59
1316.220, 54319.79
1317.286, 54515.73
1318.352, 54438.46
1319.417, 54549.02
1320.483, 54588.06
1321.548, 54301.95
1322.613, 54581.28
1323.678, 54616.08
1324.743, 54399.79
1325.807, 54424.00
1326.872, 54724.00
1327.936, 54655.00
1329.000, 54473.00
1330.064, 54233.00
1331.128, 54462.00
1332.191, 54306.00
1333.255, 54700.00
1334.318, 54462.00
1335.381, 54501.00
1336.444, 54391.00
1337.507, 54440.00
1338.569, 54325.00
1339.632, 54327.02
1340.694, 54435.00
1341.756, 54299.00
1342.818, 54351.00
1343.880, 54332.00
1344.941, 54378.00
1346.003, 54450.00
1347.064, 54293.00
1348.125, 54617.00
1349.186, 54499.72
1350.247, 54029.00
1351.308, 54539.00
1352.368, 54410.00
1353.428, 54549.00
1354.489, 54274.00
1355.549, 54422.00
1356.608, 54490.00
1357.668, 54180.00
1358.727, 54431.00
1359.787, 54306.00
1360.846, 54296.00
1361.905, 54567.00
1362.964, 54190.00
1364.022, 54473.00
1365.081, 54445.00
1366.139, 54367.00
1367.197, 54234.00
1368.255, 54461.00
1369.313, 54318.00
1370.371, 54486.00
1371.428, 54370.00
1372.486, 54408.00
1373.543, 54433.00
1374.600, 54311.00
1375.657, 54555.00
1376.713, 54164.00
1377.770, 54580.00
1378.826, 54762.00
1379.882, 54383.00
1380.938, 54531.00
1381.994, 54627.00
1383.050, 54445.00
1384.106, 54555.00
1385.161, 54267.00
1386.216, 54394.00
1387.271, 54343.00
1388.326, 54432.00
1389.381, 54615.00
1390.435, 54565.03
1391.490, 54764.00
1392.544, 54697.00
1393.598, 54415.00
1394.652, 54679.00
1395.705, 54637.00
1396.759, 54372.00
1397.812, 54812.00
1398.866, 54481.00
1399.919, 54532.00
1400.972, 54492.00
1402.024, 54605.00
1403.077, 54648.00
1404.129, 54486.00
1405.181, 54749.00
1406.233, 54470.00
1407.285, 54718.00
1408.337, 54395.00
1409.389, 54496.00
1410.440, 54440.00
1411.491, 54387.00
1412.542, 54739.00
1413.593, 54525.00
1414.644, 54752.00
1415.695, 55129.00
1416.745, 54623.00
1417.795, 54331.00
1418.845, 54457.00
1419.895, 54548.00
1420.945, 54465.39
1421.995, 54563.04
1423.044, 54503.00
1424.093, 54570.00
1425.142, 54599.00
1426.191, 54521.00
1427.240, 54291.00
1428.289, 54334.00
1429.337, 54661.00
1430.385, 54271.00
1431.433, 54790.00
1432.481, 54413.00
1433.529, 54681.00
1434.577, 54375.00
1435.624, 54412.00
1436.672, 54911.00
1437.719, 54636.00
1438.766, 54753.00
1439.812, 54808.06
1440.859, 54789.00
1441.905, 54761.00
1442.952, 54703.00
1443.998, 54644.00
1445.044, 54654.54
1446.090, 54542.00
1447.135, 54679.00
1448.181, 54574.00
1449.226, 54591.00
1450.271, 54892.00
1451.316, 54762.00
1452.361, 54922.00
1453.405, 54881.00
1454.450, 54882.00
1455.494, 54841.34
1456.538, 54634.00
1457.582, 54710.00
1458.626, 54567.00
1459.670, 54610.00
1460.713, 54608.00
1461.757, 54952.00
1462.800, 55046.00
1463.843, 54655.00
1464.886, 54593.00
1465.928, 54407.00
1466.971, 54735.00
1468.013, 55025.00
1469.055, 54945.27
1470.097, 55057.95
1471.139, 54992.00
1472.181, 54896.00
1473.222, 54898.00
1474.263, 54729.00
1475.305, 54669.00
1476.346, 54705.16
1477.386, 54630.28
1478.427, 54718.00
1479.468, 54786.00
1480.508, 54627.00
1481.548, 55046.00
1482.588, 54535.00
1483.628, 54480.00
1484.668, 54982.00
1485.707, 54811.00
1486.747, 54856.00
1487.786, 54904.00
1488.825, 54933.00
1489.864, 54971.30
1490.902, 55034.00
1491.941, 55037.00
1492.979, 55044.00
1494.017, 55082.48
1495.055, 54967.40
1496.093, 54968.37
1497.131, 54798.00
1498.168, 54847.00
1499.206, 54917.00
1500.243, 54821.00
1501.280, 54996.00
1502.317, 55088.00
1503.354, 55011.00
1504.390, 55374.00
1505.426, 55074.00
1506.463, 55372.00
1507.499, 55176.00
1508.535, 54913.00
1509.570, 55165.00
1510.606, 55300.00
1511.641, 55021.00
1512.676, 55201.00
1513.711, 54893.00
1514.746, 55218.00
1515.781, 55314.00
1516.816, 55184.00
1517.850, 55300.86
1518.884, 55173.25
1519.918, 55249.00
1520.952, 55028.00
1521.986, 55049.00
1523.019, 55153.00
1524.053, 55310.00
1525.086, 54972.00
1526.119, 55409.00
1527.152, 55313.00
1528.185, 55525.00
1529.217, 55307.00
1530.250, 55596.00
1531.282, 55332.00
1532.314, 55137.00
1533.346, 55461.00
1534.377, 55454.00
1535.409, 54987.00
1536.440, 55222.00
1537.472, 54877.00
1538.503, 55416.00
1539.534, 55269.00
1540.564, 55292.00
1541.595, 55470.00
1542.625, 55163.00
1543.656, 55298.72
1544.686, 55488.23
1545.716, 55591.95
1546.745, 55614.49
1547.775, 55312.73
1548.804, 55429.75
1549.834, 55378.94
1550.863, 55321.25
1551.892, 55497.20
1552.920, 55242.62
1553.949, 55414.88
1554.977, 55416.75
1556.006, 55496.59
1557.034, 55407.59
1558.062, 55370.74
1559.089, 55502.80
1560.117, 55541.34
1561.144, 55432.90
1562.172, 55517.71
1563.199, 55257.24
1564.226, 55299.76
1565.252, 55473.02
1566.279, 55373.07
1567.305, 55460.98
1568.332, 55477.34
1569.358, 55237.00
1570.384, 55328.00
1571.409, 55336.00
1572.435, 55954.00
##END=



