##NAMES=Braunite
##RRUFFID=R050385
##IDEAL CHEMISTRY=Mn^2+^Mn^3+^_6_SiO_12_
##LOCALITY=Jhabua District, Madhya Pradesh, India
##OWNER=RRUFF
##SOURCE=University of Arizona Mineral Museum
##DESCRIPTION=Black prismatic crystals
##STATUS=The identification of this mineral has been confirmed by X-ray diffraction and chemical analysis
##URL=rruff.info/R050385
##MEASURED CHEMISTRY=(Fe^2+^_0.61_Mn^2+^_0.39_)_Σ=1_(Mn^3+^_5.94_Al_0.06_)_Σ=6_Si_1.00_O_12_
##PIN_ID=M00114
##ORIENTATION=Laser parallel to c* (0 0 1). Fiducial mark perpendicular to laser is parallel to -b [0 -1 0]
178.2820, 9902.000
179.5050, 9969.000
180.7290, 9928.000
181.9520, 10066.00
183.1760, 10119.00
184.3990, 10413.00
185.6220, 10466.00
186.8450, 10642.00
188.0670, 10729.00
189.2900, 10814.00
190.5120, 10923.00
191.7340, 11173.00
192.9560, 11463.00
194.1780, 11714.00
195.4000, 11874.12
196.6220, 12068.81
197.8430, 12395.00
199.0640, 12559.00
200.2860, 13326.00
201.5070, 14070.00
202.7270, 14429.00
203.9480, 13668.00
205.1690, 12664.00
206.3890, 12180.00
207.6090, 12128.00
208.8290, 12208.00
210.0490, 12462.00
211.2690, 12748.00
212.4890, 12738.00
213.7080, 13003.00
214.9280, 12783.00
216.1470, 12556.00
217.3660, 12509.00
218.5850, 12275.00
219.8030, 12282.00
221.0220, 11966.00
222.2400, 11811.00
223.4590, 11665.00
224.6770, 11453.00
225.8950, 11269.00
227.1120, 11036.00
228.3300, 10700.00
229.5480, 10614.00
230.7650, 10364.46
231.9820, 10274.00
233.1990, 10100.00
234.4160, 9977.000
235.6330, 10056.00
236.8490, 9890.000
238.0660, 9821.000
239.2820, 9888.000
240.4980, 9616.000
241.7140, 9585.000
242.9300, 9570.000
244.1460, 9430.000
245.3610, 9434.000
246.5770, 9335.000
247.7920, 9254.000
249.0070, 9073.000
250.2220, 8918.752
251.4370, 8970.636
252.6510, 8987.525
253.8660, 8971.258
255.0800, 8822.636
256.2940, 8844.951
257.5080, 8798.764
258.7220, 8749.767
259.9360, 8796.141
261.1490, 8666.797
262.3630, 8711.658
263.5760, 8686.995
264.7890, 8694.162
266.0020, 8632.402
267.2150, 8624.000
268.4270, 8626.000
269.6400, 8631.000
270.8520, 8469.000
272.0640, 8542.000
273.2760, 8498.000
274.4880, 8466.372
275.7000, 8529.000
276.9120, 8428.000
278.1230, 8516.000
279.3340, 8465.000
280.5450, 8380.000
281.7560, 8402.000
282.9670, 8461.000
284.1780, 8443.000
285.3880, 8453.000
286.5980, 8472.010
287.8090, 8475.000
289.0190, 8478.000
290.2290, 8476.000
291.4380, 8455.000
292.6480, 8427.000
293.8570, 8408.000
295.0670, 8392.000
296.2760, 8510.000
297.4850, 8412.000
298.6930, 8423.000
299.9020, 8454.000
301.1110, 8376.063
302.3190, 8381.000
303.5270, 8310.000
304.7350, 8298.000
305.9430, 8321.000
307.1510, 8271.000
308.3580, 8431.000
309.5660, 8572.000
310.7730, 8460.000
311.9800, 8520.000
313.1870, 8437.000
314.3940, 8435.000
315.6010, 8521.000
316.8070, 8534.000
318.0130, 8596.000
319.2200, 8819.000
320.4260, 8779.000
321.6310, 9049.000
322.8370, 9156.000
324.0430, 9211.379
325.2480, 9320.761
326.4540, 9323.000
327.6590, 9409.000
328.8640, 9400.000
330.0680, 9474.000
331.2730, 9429.605
332.4780, 9350.000
333.6820, 9347.000
334.8860, 9212.000
336.0900, 9200.000
337.2940, 8987.000
338.4980, 8890.000
339.7010, 8938.000
340.9050, 8882.000
342.1080, 8828.000
343.3110, 8719.000
344.5140, 8775.000
345.7170, 8780.000
346.9200, 8691.000
348.1220, 8792.000
349.3240, 8669.000
350.5270, 8771.000
351.7290, 8628.000
352.9310, 8461.000
354.1320, 8568.000
355.3340, 8562.000
356.5350, 8656.000
357.7370, 8624.000
358.9380, 8679.584
360.1390, 8761.000
361.3400, 8781.000
362.5400, 8717.000
363.7410, 8816.000
364.9410, 8679.000
366.1410, 8689.000
367.3410, 8626.000
368.5410, 8700.000
369.7410, 8650.000
370.9400, 8802.000
372.1400, 8747.000
373.3390, 8738.000
374.5380, 8791.000
375.7370, 8586.000
376.9360, 8742.000
378.1350, 8746.000
379.3330, 8801.000
380.5310, 8674.000
381.7300, 8719.000
382.9280, 8760.000
384.1260, 8757.000
385.3230, 8736.000
386.5210, 8673.000
387.7180, 8674.259
388.9160, 8675.000
390.1130, 8702.000
391.3100, 8704.269
392.5060, 8699.296
393.7030, 8662.000
394.9000, 8660.000
396.0960, 8751.000
397.2920, 8696.000
398.4880, 8751.963
399.6840, 8766.000
400.8800, 8764.000
402.0750, 8867.000
403.2710, 8783.000
404.4660, 8835.000
405.6610, 8718.000
406.8560, 8779.000
408.0510, 8707.000
409.2450, 8830.000
410.4400, 8945.000
411.6340, 8969.000
412.8280, 9034.072
414.0220, 8905.000
415.2160, 9036.000
416.4100, 8927.000
417.6030, 8825.000
418.7970, 8897.000
419.9900, 8961.000
421.1830, 8976.000
422.3760, 8978.000
423.5690, 9030.000
424.7610, 9015.805
425.9540, 9048.032
427.1460, 8973.000
428.3380, 9068.000
429.5300, 8972.000
430.7220, 8921.000
431.9140, 9008.000
433.1050, 8942.000
434.2970, 9024.000
435.4880, 9089.000
436.6790, 9028.000
437.8700, 9054.000
439.0610, 9064.153
440.2510, 9020.798
441.4420, 9088.000
442.6320, 9051.000
443.8220, 9070.000
445.0120, 9278.000
446.2020, 9075.000
447.3910, 9046.000
448.5810, 9185.000
449.7700, 9112.000
450.9600, 9383.000
452.1490, 9339.181
453.3370, 9527.000
454.5260, 9344.000
455.7150, 9372.000
456.9030, 9315.000
458.0910, 9417.000
459.2800, 9477.000
460.4670, 9446.000
461.6550, 9444.000
462.8430, 9546.000
464.0300, 9523.000
465.2180, 9634.000
466.4050, 9744.000
467.5920, 9803.000
468.7790, 9871.000
469.9650, 10072.00
471.1520, 9872.000
472.3380, 9927.000
473.5250, 9755.000
474.7110, 9803.000
475.8970, 9815.000
477.0820, 9844.000
478.2680, 9826.000
479.4540, 9818.000
480.6390, 9907.000
481.8240, 9867.166
483.0090, 9860.295
484.1940, 9859.000
485.3780, 9792.000
486.5630, 9785.000
487.7470, 9754.000
488.9320, 9793.000
490.1160, 9930.000
491.3000, 9811.000
492.4830, 9949.000
493.6670, 9772.000
494.8500, 9983.000
496.0340, 9908.000
497.2170, 10021.00
498.4000, 10059.00
499.5820, 10232.00
500.7650, 10213.00
501.9480, 10215.00
503.1300, 10499.00
504.3120, 10557.00
505.4940, 10703.00
506.6760, 10794.00
507.8580, 10844.00
509.0390, 10883.00
510.2210, 10936.00
511.4020, 10913.00
512.5830, 10762.00
513.7640, 10783.00
514.9450, 10675.94
516.1250, 10619.63
517.3060, 10508.00
518.4860, 10484.00
519.6660, 10390.00
520.8460, 10269.00
522.0260, 10175.00
523.2060, 10004.00
524.3850, 10093.00
525.5650, 10070.00
526.7440, 10169.00
527.9230, 9943.000
529.1020, 9882.000
530.2810, 9870.000
531.4590, 9914.000
532.6380, 9899.000
533.8160, 10005.00
534.9940, 9992.000
536.1720, 10007.00
537.3500, 9798.000
538.5270, 10001.00
539.7050, 9930.000
540.8820, 10051.00
542.0590, 10071.00
543.2360, 9906.000
544.4130, 9977.000
545.5900, 10119.00
546.7660, 10083.00
547.9430, 10005.00
549.1190, 10001.00
550.2950, 9974.000
551.4710, 10050.00
552.6470, 10064.00
553.8220, 10096.85
554.9980, 10066.00
556.1730, 10151.00
557.3480, 10131.00
558.5230, 10103.00
559.6980, 10286.00
560.8730, 10302.00
562.0470, 10401.00
563.2220, 10614.00
564.3960, 10517.00
565.5700, 10568.00
566.7440, 10618.00
567.9170, 10489.00
569.0910, 10677.00
570.2640, 10735.00
571.4380, 10734.00
572.6110, 10784.00
573.7840, 10824.37
574.9570, 10832.00
576.1290, 10845.00
577.3020, 10824.00
578.4740, 10681.00
579.6460, 10641.00
580.8180, 10595.00
581.9900, 10645.00
583.1620, 10598.00
584.3330, 10594.00
585.5040, 10597.00
586.6760, 10449.00
587.8470, 10592.00
589.0180, 10722.00
590.1880, 10649.00
591.3590, 10557.00
592.5290, 10660.00
593.7000, 10639.00
594.8700, 10609.00
596.0400, 10613.00
597.2090, 10838.00
598.3790, 10820.74
599.5490, 11007.00
600.7180, 10972.00
601.8870, 11138.00
603.0560, 11232.00
604.2250, 11408.00
605.3940, 11764.00
606.5620, 11693.00
607.7300, 11589.00
608.8990, 11891.00
610.0670, 12065.00
611.2350, 12142.00
612.4020, 12168.00
613.5700, 12304.91
614.7370, 12355.20
615.9050, 12430.00
617.0720, 12430.00
618.2390, 12353.00
619.4060, 12206.00
620.5720, 12209.00
621.7390, 12004.00
622.9050, 11937.00
624.0710, 11791.00
625.2370, 11798.00
626.4030, 11690.00
627.5690, 11654.00
628.7340, 11462.00
629.9000, 11422.00
631.0650, 11299.00
632.2300, 11084.00
633.3950, 11085.00
634.5600, 11233.00
635.7240, 10949.00
636.8890, 10812.00
638.0530, 10973.00
639.2170, 10867.00
640.3810, 10717.00
641.5450, 10699.00
642.7080, 10666.00
643.8720, 10715.00
645.0350, 10606.00
646.1980, 10732.00
647.3610, 10535.00
648.5240, 10603.00
649.6870, 10556.00
650.8490, 10600.00
652.0120, 10549.00
653.1740, 10582.81
654.3360, 10530.00
655.4980, 10640.00
656.6600, 10675.00
657.8210, 10708.00
658.9830, 10741.00
660.1440, 10618.00
661.3050, 10698.00
662.4660, 10660.00
663.6270, 10712.00
664.7870, 10787.00
665.9480, 10861.00
667.1080, 10972.00
668.2680, 11020.00
669.4280, 11167.00
670.5880, 11244.00
671.7480, 11336.28
672.9070, 11410.28
674.0670, 11523.00
675.2260, 11577.00
676.3850, 11671.00
677.5440, 11875.00
678.7030, 11962.00
679.8610, 12238.00
681.0200, 12282.00
682.1780, 12760.00
683.3360, 12664.00
684.4940, 13015.00
685.6520, 12935.00
686.8090, 12977.00
687.9670, 13058.00
689.1240, 12969.00
690.2810, 12680.00
691.4380, 12613.00
692.5950, 12479.00
693.7520, 12301.48
694.9080, 12217.00
696.0650, 12028.00
697.2210, 11861.00
698.3770, 11746.00
699.5330, 11425.00
700.6880, 11386.00
701.8440, 11266.00
702.9990, 11010.00
704.1550, 11055.00
705.3100, 10738.00
706.4650, 10721.00
707.6190, 10795.00
708.7740, 10597.00
709.9290, 10649.00
711.0830, 10489.00
712.2370, 10434.00
713.3910, 10395.00
714.5450, 10295.00
715.6980, 10311.00
716.8520, 10185.00
718.0050, 10189.00
719.1580, 10256.00
720.3110, 10249.00
721.4640, 10305.00
722.6170, 10180.00
723.7700, 10167.00
724.9220, 10204.00
726.0740, 10114.00
727.2260, 10144.84
728.3780, 9919.000
729.5300, 10083.00
730.6810, 10097.00
731.8330, 9936.000
732.9840, 10085.02
734.1350, 10089.71
735.2860, 10100.00
736.4370, 10203.00
737.5880, 10027.00
738.7380, 9953.000
739.8880, 10008.00
741.0390, 10108.00
742.1890, 10063.00
743.3380, 9899.000
744.4880, 10008.00
745.6380, 9863.000
746.7870, 10026.00
747.9360, 10011.00
749.0850, 10127.00
750.2340, 9964.000
751.3830, 9905.000
752.5310, 10002.00
753.6800, 9993.000
754.8280, 9873.000
755.9760, 10013.00
757.1240, 9956.000
758.2720, 9917.000
759.4190, 9889.000
760.5670, 9918.708
761.7140, 9933.000
762.8610, 10012.00
764.0080, 9980.000
765.1550, 10012.00
766.3020, 9962.000
767.4480, 9974.000
768.5950, 9949.000
769.7410, 9980.000
770.8870, 9885.000
772.0330, 9919.000
773.1780, 9926.000
774.3240, 9978.000
775.4690, 9983.000
776.6140, 9998.000
777.7590, 9909.000
778.9040, 10011.00
780.0490, 9913.000
781.1940, 9977.000
782.3380, 10012.00
783.4820, 9902.000
784.6260, 10032.00
785.7700, 10001.38
786.9140, 9979.058
788.0580, 10010.00
789.2010, 9965.000
790.3450, 9897.000
791.4880, 9946.000
792.6310, 9949.000
793.7730, 9895.000
794.9160, 9990.000
796.0590, 9954.000
797.2010, 9869.000
798.3430, 9782.000
799.4850, 9876.000
800.6270, 10004.00
801.7690, 9904.000
802.9100, 10099.00
804.0520, 10071.00
805.1930, 10020.00
806.3340, 10015.00
807.4750, 10001.00
808.6160, 9989.000
809.7560, 9947.000
810.8970, 9958.938
812.0370, 9972.000
813.1770, 9950.000
814.3170, 9977.958
815.4570, 10002.00
816.5960, 10003.00
817.7360, 10017.00
818.8750, 10009.00
820.0140, 9932.000
821.1530, 9974.000
822.2920, 9974.000
823.4310, 9994.000
824.5690, 9911.000
825.7070, 10064.00
826.8460, 10131.00
827.9840, 9993.000
829.1220, 10162.00
830.2590, 10165.00
831.3970, 10052.00
832.5340, 10074.00
833.6710, 10071.00
834.8080, 10041.00
835.9450, 10028.00
837.0820, 10047.00
838.2190, 10057.53
839.3550, 10110.55
840.4910, 10118.00
841.6270, 10162.00
842.7630, 10190.00
843.8990, 10045.00
845.0350, 10219.00
846.1700, 10058.00
847.3060, 10072.00
848.4410, 9978.000
849.5760, 10112.00
850.7100, 10081.00
851.8450, 10168.00
852.9800, 10192.00
854.1140, 10236.00
855.2480, 10225.00
856.3820, 10210.00
857.5160, 10306.00
858.6500, 10276.00
859.7830, 10127.98
860.9170, 10225.72
862.0500, 10288.43
863.1830, 10318.00
864.3160, 10215.20
865.4480, 10283.32
866.5810, 10282.96
867.7130, 10279.76
868.8460, 10371.96
869.9780, 10288.39
871.1100, 10379.06
872.2410, 10400.16
873.3730, 10258.00
874.5050, 10241.00
875.6360, 10166.00
876.7670, 10253.00
877.8980, 10351.00
879.0290, 10415.00
880.1590, 10229.00
881.2900, 10331.00
882.4200, 10276.00
883.5500, 10535.00
884.6800, 10452.00
885.8100, 10505.00
886.9400, 10260.00
888.0690, 10424.00
889.1990, 10479.00
890.3280, 10399.00
891.4570, 10524.00
892.5860, 10375.00
893.7140, 10476.00
894.8430, 10547.00
895.9710, 10561.00
897.1000, 10577.00
898.2280, 10746.00
899.3560, 10964.00
900.4830, 10455.00
901.6110, 10550.00
902.7380, 10555.00
903.8660, 10670.00
904.9930, 10702.00
906.1200, 10629.00
907.2460, 10640.00
908.3730, 10612.00
909.5000, 10708.00
910.6260, 10737.00
911.7520, 10588.00
912.8780, 10814.00
914.0040, 10602.00
915.1290, 10671.00
916.2550, 10766.00
917.3800, 11039.00
918.5050, 11004.08
919.6300, 11029.00
920.7550, 10832.00
921.8800, 10859.46
923.0040, 10941.00
924.1290, 10795.00
925.2530, 10903.00
926.3770, 10892.00
927.5010, 10974.00
928.6250, 10906.00
929.7480, 10838.00
930.8720, 10854.00
931.9950, 11000.00
933.1180, 10960.27
934.2410, 11195.00
935.3640, 11055.00
936.4860, 11231.00
937.6090, 11368.00
938.7310, 11224.00
939.8530, 11329.00
940.9750, 11338.00
942.0970, 11362.00
943.2180, 11454.00
944.3400, 11407.00
945.4610, 11616.00
946.5820, 11629.00
947.7030, 11597.00
948.8240, 11690.00
949.9450, 11919.00
951.0650, 11993.00
952.1860, 11960.00
953.3060, 12027.00
954.4260, 12026.00
955.5460, 12214.00
956.6650, 12026.00
957.7850, 12171.00
958.9040, 12139.00
960.0230, 12067.00
961.1420, 12156.00
962.2610, 12093.00
963.3800, 11934.00
964.4990, 11831.00
965.6170, 11942.00
966.7350, 11718.00
967.8530, 11754.00
968.9710, 11679.00
970.0890, 11578.00
971.2070, 11616.47
972.3240, 11762.00
973.4410, 11655.00
974.5580, 11648.00
975.6750, 11722.00
976.7920, 11540.00
977.9090, 11564.00
979.0250, 11454.00
980.1410, 11530.00
981.2580, 11436.00
982.3740, 11433.00
983.4890, 11390.00
984.6050, 11354.00
985.7200, 11463.00
986.8360, 11524.00
987.9510, 11497.00
989.0660, 11574.00
990.1810, 11433.00
991.2950, 11478.00
992.4100, 11523.71
993.5240, 11482.87
994.6390, 11511.87
995.7530, 11513.00
996.8660, 11508.00
997.9800, 11541.00
999.0940, 11555.00
1000.207, 11564.08
1001.320, 11568.68
1002.433, 11591.00
1003.546, 11555.00
1004.659, 11572.00
1005.772, 11558.00
1006.884, 11566.43
1007.996, 11649.00
1009.108, 11518.00
1010.220, 11764.00
1011.332, 11597.70
1012.444, 11684.00
1013.555, 11649.00
1014.666, 11574.00
1015.777, 11598.00
1016.888, 11520.00
1017.999, 11532.00
1019.110, 11550.00
1020.220, 11485.78
1021.331, 11623.00
1022.441, 11379.00
1023.551, 11476.00
1024.661, 11384.00
1025.770, 11449.00
1026.880, 11474.29
1027.989, 11473.00
1029.098, 11554.00
1030.207, 11617.00
1031.316, 11679.00
1032.425, 11665.60
1033.533, 11581.00
1034.642, 11622.00
1035.750, 11570.00
1036.858, 11579.00
1037.966, 11589.00
1039.073, 11666.00
1040.181, 11675.43
1041.288, 11743.28
1042.396, 11712.00
1043.503, 11795.00
1044.610, 11748.00
1045.716, 11601.00
1046.823, 11804.00
1047.929, 11586.00
1049.036, 11686.03
1050.142, 11693.06
1051.248, 11786.00
1052.353, 11763.00
1053.459, 11816.00
1054.564, 11949.00
1055.670, 11847.00
1056.775, 11806.00
1057.880, 11870.00
1058.985, 11805.78
1060.089, 11848.80
1061.194, 11866.00
1062.298, 11820.00
1063.402, 12010.00
1064.506, 11828.00
1065.610, 11741.00
1066.713, 11905.00
1067.817, 11887.00
1068.920, 11931.00
1070.023, 11958.00
1071.126, 12040.00
1072.229, 12043.00
1073.332, 11884.00
1074.435, 11891.00
1075.537, 11958.00
1076.639, 11811.00
1077.741, 11814.00
1078.843, 11841.00
1079.945, 11761.00
1081.046, 12062.00
1082.148, 12001.00
1083.249, 12081.00
1084.350, 11965.00
1085.451, 11943.00
1086.551, 11914.00
1087.652, 11880.00
1088.752, 11786.00
1089.853, 11781.00
1090.953, 11789.00
1092.053, 11840.00
1093.152, 11890.00
1094.252, 11918.00
1095.351, 12012.00
1096.451, 12018.00
1097.550, 11977.00
1098.649, 11901.00
1099.748, 11923.00
1100.846, 11828.00
1101.945, 11824.00
1103.043, 11935.00
1104.141, 11899.00
1105.239, 11956.00
1106.337, 11891.00
1107.434, 11771.00
1108.532, 11859.00
1109.629, 11842.00
1110.726, 11825.00
1111.823, 11890.00
1112.920, 11940.00
1114.017, 12035.00
1115.113, 11977.00
1116.210, 12034.00
1117.306, 12045.00
1118.402, 12058.00
1119.498, 12188.00
1120.593, 12276.00
1121.689, 12319.00
1122.784, 12235.00
1123.879, 12186.00
1124.974, 12257.00
1126.069, 12014.00
1127.164, 12075.00
1128.259, 11940.00
1129.353, 11880.00
1130.447, 11962.00
1131.541, 11822.00
1132.635, 11660.00
1133.729, 11885.00
1134.822, 11890.00
1135.916, 11877.00
1137.009, 12022.00
1138.102, 11963.00
1139.195, 11945.00
1140.288, 11937.00
1141.380, 11804.00
1142.473, 11778.00
1143.565, 11835.00
1144.657, 11813.00
1145.749, 11874.00
1146.841, 11730.00
1147.932, 11853.00
1149.024, 11804.00
1150.115, 12024.00
1151.206, 11976.00
1152.297, 11846.00
1153.388, 11873.00
1154.479, 11730.00
1155.569, 11758.00
1156.659, 11737.00
1157.750, 11800.00
1158.839, 11743.00
1159.929, 11819.00
1161.019, 11766.00
1162.108, 11716.00
1163.198, 11748.00
1164.287, 11881.00
1165.376, 11886.00
1166.465, 11828.00
1167.553, 11847.00
1168.642, 11786.00
1169.730, 11861.00
1170.818, 11851.00
1171.906, 11829.00
1172.994, 11930.00
1174.082, 11788.00
1175.170, 11894.00
1176.257, 11855.00
1177.344, 12056.00
1178.431, 11897.00
1179.518, 11951.00
1180.605, 11811.00
1181.691, 11905.00
1182.778, 11741.00
1183.864, 11954.00
1184.950, 11918.00
1186.036, 11763.00
1187.122, 11756.00
1188.207, 11870.00
1189.292, 12013.00
1190.378, 11860.00
1191.463, 11964.00
1192.548, 11973.00
1193.632, 12067.00
1194.717, 11856.00
1195.801, 11862.00
1196.886, 11810.00
1197.970, 11925.00
1199.054, 11979.00
1200.137, 11909.00
1201.221, 11864.00
1202.305, 11838.00
1203.388, 11940.00
1204.471, 12008.00
1205.554, 11973.00
1206.637, 11954.00
1207.719, 11946.00
1208.802, 11796.00
1209.884, 11928.00
1210.966, 11892.00
1212.048, 11979.00
1213.130, 11885.00
1214.212, 12014.00
1215.293, 12119.00
1216.374, 12086.00
1217.456, 12080.00
1218.536, 12097.00
1219.617, 12204.00
1220.698, 12163.00
1221.778, 12047.00
1222.859, 11981.00
1223.939, 12101.00
1225.019, 12154.00
1226.099, 12156.20
1227.178, 12066.00
1228.258, 12186.00
1229.337, 12189.00
1230.417, 12161.00
1231.496, 12250.00
1232.574, 12101.00
1233.653, 12233.00
1234.732, 11963.00
1235.810, 12152.00
1236.888, 12093.00
1237.966, 12067.00
1239.044, 12159.00
1240.122, 12202.00
1241.199, 12202.93
1242.277, 12186.00
1243.354, 12218.00
1244.431, 12224.00
1245.508, 12218.00
1246.585, 12071.00
1247.661, 12333.00
1248.738, 12101.90
1249.814, 12157.00
1250.890, 11896.00
1251.966, 12072.00
1253.042, 12143.00
1254.117, 12046.60
1255.193, 11967.00
1256.268, 12004.00
1257.343, 12140.00
1258.418, 12144.00
1259.493, 12124.00
1260.567, 12038.00
1261.642, 12247.00
1262.716, 12315.00
1263.790, 12140.00
1264.864, 12067.00
1265.938, 12243.00
1267.011, 12265.00
1268.085, 12293.84
1269.158, 12320.00
1270.231, 12336.00
1271.304, 12311.00
1272.377, 12262.00
1273.450, 12357.00
1274.522, 12332.00
1275.594, 12270.00
1276.666, 12209.00
1277.738, 12263.00
1278.810, 12157.00
1279.882, 12069.00
1280.953, 12291.00
1282.025, 12137.00
1283.096, 12308.00
1284.167, 12510.00
1285.238, 12435.00
1286.308, 12535.00
1287.379, 12431.00
1288.449, 12489.00
1289.519, 12237.00
1290.589, 12309.00
1291.659, 12206.00
1292.729, 12127.00
1293.798, 12356.00
1294.868, 12445.00
1295.937, 12532.00
1297.006, 12496.00
1298.075, 12450.00
1299.143, 12584.00
1300.212, 12421.00
1301.280, 12516.00
1302.348, 12300.00
1303.416, 12333.00
1304.484, 12390.00
1305.552, 12425.00
1306.620, 12379.00
1307.687, 12584.00
1308.754, 12523.61
1309.821, 12404.00
1310.888, 12520.00
1311.955, 12527.00
1313.021, 12502.00
1314.088, 12441.00
1315.154, 12501.00
1316.220, 12509.00
1317.286, 12565.00
1318.352, 12636.00
1319.417, 12495.00
1320.483, 12513.00
1321.548, 12549.00
1322.613, 12607.00
1323.678, 12586.00
1324.743, 12663.00
1325.807, 12692.00
1326.872, 12776.00
1327.936, 12548.00
1329.000, 12553.00
1330.064, 12441.00
1331.128, 12598.00
1332.191, 12613.00
1333.255, 12482.00
1334.318, 12615.00
1335.381, 12613.00
1336.444, 12704.00
1337.507, 12832.00
1338.569, 12721.00
1339.632, 12681.00
1340.694, 12534.00
1341.756, 12640.00
1342.818, 12616.00
1343.880, 12598.00
1344.941, 12582.00
1346.003, 12468.00
1347.064, 12703.00
1348.125, 12800.00
1349.186, 12762.00
1350.247, 12739.00
1351.308, 12784.00
1352.368, 12799.00
1353.428, 12738.00
1354.489, 12657.00
1355.549, 12699.00
1356.608, 12826.00
1357.668, 12726.00
1358.727, 12691.00
1359.787, 12580.00
1360.846, 12661.00
1361.905, 12585.00
1362.964, 12711.00
1364.022, 12872.00
1365.081, 12711.00
1366.139, 12837.00
1367.197, 12807.00
1368.255, 12779.00
1369.313, 12841.66
1370.371, 12631.00
1371.428, 12849.00
1372.486, 12738.00
1373.543, 12647.00
1374.600, 12911.00
1375.657, 12839.00
1376.713, 12720.00
1377.770, 12916.00
1378.826, 12851.00
1379.882, 12760.00
1380.938, 12874.00
1381.994, 12796.00
1383.050, 12705.00
1384.106, 12915.00
1385.161, 12644.00
1386.216, 12662.00
1387.271, 12670.00
1388.326, 12957.00
1389.381, 12820.00
1390.435, 12935.00
1391.490, 12699.00
1392.544, 12800.00
1393.598, 12898.00
1394.652, 12791.00
1395.705, 12822.00
1396.759, 12827.00
1397.812, 12652.00
1398.866, 12815.00
1399.919, 12751.00
1400.972, 12780.00
1402.024, 12806.00
1403.077, 12804.00
1404.129, 12897.00
1405.181, 12977.00
1406.233, 12818.00
1407.285, 12692.00
1408.337, 12748.00
1409.389, 12667.35
1410.440, 12687.00
1411.491, 12687.00
1412.542, 12748.00
1413.593, 12790.00
1414.644, 12847.00
1415.695, 12846.96
1416.745, 12841.00
1417.795, 12799.00
1418.845, 12833.00
1419.895, 12736.00
1420.945, 12891.00
1421.995, 12824.00
1423.044, 12617.00
1424.093, 12771.00
1425.142, 12828.00
1426.191, 12727.00
1427.240, 12752.00
1428.289, 12764.00
1429.337, 12794.00
1430.385, 12858.00
1431.433, 12968.00
1432.481, 12970.00
1433.529, 12968.00
1434.577, 12813.00
1435.624, 12793.00
1436.672, 12827.00
1437.719, 12714.00
1438.766, 12721.00
1439.812, 12835.00
1440.859, 12905.00
1441.905, 12850.00
1442.952, 12837.00
1443.998, 12878.00
1445.044, 13071.00
1446.090, 12981.00
1447.135, 13002.00
1448.181, 12972.87
1449.226, 12842.00
1450.271, 12844.00
1451.316, 12812.00
1452.361, 12795.00
1453.405, 12788.00
1454.450, 12884.98
1455.494, 12920.23
1456.538, 13048.00
1457.582, 13047.00
1458.626, 12953.00
1459.670, 12920.00
1460.713, 12729.00
1461.757, 12745.69
1462.800, 12760.00
1463.843, 12748.00
1464.886, 12828.00
1465.928, 12907.00
1466.971, 13045.00
1468.013, 12981.00
1469.055, 13044.78
1470.097, 13165.00
1471.139, 12891.05
1472.181, 12985.03
1473.222, 13043.98
1474.263, 13069.79
1475.305, 12963.25
1476.346, 13027.62
1477.386, 13023.48
1478.427, 13016.54
1479.468, 13104.97
1480.508, 13017.65
1481.548, 13104.56
1482.588, 13121.92
1483.628, 13122.00
1484.668, 13033.00
1485.707, 13056.00
1486.747, 13137.00
1487.786, 12975.00
1488.825, 12905.00
1489.864, 12998.00
1490.902, 13092.00
1491.941, 13015.00
1492.979, 12945.00
1494.017, 13092.00
1495.055, 13125.00
1496.093, 13228.00
1497.131, 13145.00
1498.168, 13020.00
1499.206, 13154.00
1500.243, 13152.00
1501.280, 13063.00
1502.317, 13150.00
1503.354, 13126.00
1504.390, 13024.00
1505.426, 13008.00
1506.463, 13077.00
1507.499, 13070.00
1508.535, 13235.00
1509.570, 13276.00
1510.606, 13368.00
1511.641, 13281.00
1512.676, 13270.00
1513.711, 13271.00
1514.746, 13208.00
1515.781, 13227.00
1516.816, 13250.00
1517.850, 13162.00
1518.884, 13169.00
1519.918, 13163.00
1520.952, 13277.00
1521.986, 13342.00
1523.019, 13256.00
1524.053, 13344.00
1525.086, 13229.00
1526.119, 13282.00
1527.152, 13399.00
1528.185, 13375.00
1529.217, 13303.00
1530.250, 13286.00
1531.282, 13220.00
1532.314, 13328.00
1533.346, 13369.00
1534.377, 13378.00
1535.409, 13455.00
1536.440, 13399.00
1537.472, 13436.00
1538.503, 13513.00
1539.534, 13559.00
1540.564, 13391.00
1541.595, 13471.00
1542.625, 13359.00
1543.656, 13406.00
1544.686, 13371.71
1545.716, 13457.55
1546.745, 13508.37
1547.775, 13526.06
1548.804, 13411.36
1549.834, 13467.61
1550.863, 13455.35
1551.892, 13440.29
1552.920, 13520.58
1553.949, 13425.14
1554.977, 13503.93
1556.006, 13513.17
1557.034, 13554.24
1558.062, 13526.38
1559.089, 13519.80
1560.117, 13486.00
1561.144, 13529.00
1562.172, 13527.05
1563.199, 13568.02
1564.226, 13555.00
1565.252, 13650.00
1566.279, 13636.00
1567.305, 13637.00
1568.332, 13666.00
1569.358, 13476.00
1570.384, 13501.00
##END=



