##NAMES=Braunite
##RRUFFID=R050388
##IDEAL CHEMISTRY=Mn^2+^Mn^3+^_6_SiO_12_
##LOCALITY=Langban, Filipstad, Varmland, Sweden
##OWNER=RRUFF
##SOURCE=University of Arizona Mineral Museum
##DESCRIPTION=Black crystals
##STATUS=The identification of this mineral has been confirmed by X-ray diffraction and chemical analysis
##URL=rruff.info/R050388
##MEASURED CHEMISTRY=(Mn^2+^_0.96_Mg_0.04_)_Î£=1_Mn^3+^_6.00_Si_1.00_O_12_
##PIN_ID=M00354
##ORIENTATION=Laser parallel to -c* (0 0 -1). Fiducial mark perpendicular to laser is parallel to a [1 0 0]
157.4550, 40259.00
158.6810, 39943.00
159.9080, 40267.00
161.1340, 40180.00
162.3590, 40387.00
163.5850, 40969.00
164.8110, 41102.00
166.0360, 41102.00
167.2610, 41013.00
168.4860, 40998.00
169.7110, 41400.00
170.9360, 41791.00
172.1610, 41771.00
173.3850, 41955.86
174.6100, 41643.00
175.8340, 42049.00
177.0580, 41672.00
178.2820, 41873.00
179.5050, 41883.00
180.7290, 42238.00
181.9520, 42067.00
183.1760, 42299.00
184.3990, 42554.00
185.6220, 43095.00
186.8450, 43683.00
188.0670, 44154.00
189.2900, 44239.00
190.5120, 44608.00
191.7340, 45396.00
192.9560, 46059.00
194.1780, 46512.00
195.4000, 47066.23
196.6220, 47860.00
197.8430, 48223.00
199.0640, 49083.00
200.2860, 50372.00
201.5070, 51184.00
202.7270, 52048.00
203.9480, 52203.00
205.1690, 52362.00
206.3890, 52506.14
207.6090, 52459.56
208.8290, 52401.00
210.0490, 52196.00
211.2690, 52303.00
212.4890, 51951.00
213.7080, 51813.00
214.9280, 50784.00
216.1470, 49926.00
217.3660, 49516.00
218.5850, 48898.00
219.8030, 48508.00
221.0220, 48041.32
222.2400, 47542.00
223.4590, 47148.00
224.6770, 46614.00
225.8950, 46098.00
227.1120, 45684.42
228.3300, 45126.00
229.5480, 44839.00
230.7650, 44363.00
231.9820, 44004.00
233.1990, 43665.00
234.4160, 43033.00
235.6330, 43154.00
236.8490, 42755.00
238.0660, 42661.00
239.2820, 42759.00
240.4980, 42746.00
241.7140, 42464.00
242.9300, 42499.00
244.1460, 42059.00
245.3610, 42089.00
246.5770, 42127.00
247.7920, 42132.00
249.0070, 42258.00
250.2220, 42427.00
251.4370, 42110.00
252.6510, 42214.00
253.8660, 41974.00
255.0800, 42094.00
256.2940, 42181.00
257.5080, 42765.00
258.7220, 42716.84
259.9360, 42744.93
261.1490, 42858.00
262.3630, 42423.00
263.5760, 42289.00
264.7890, 41910.00
266.0020, 42414.00
267.2150, 42216.00
268.4270, 42461.00
269.6400, 42139.00
270.8520, 42237.00
272.0640, 42319.00
273.2760, 42093.00
274.4880, 42398.00
275.7000, 42499.00
276.9120, 42386.00
278.1230, 42161.00
279.3340, 42396.00
280.5450, 42406.00
281.7560, 42370.00
282.9670, 42661.00
284.1780, 42086.00
285.3880, 42432.00
286.5980, 42526.00
287.8090, 42269.00
289.0190, 42557.00
290.2290, 42866.00
291.4380, 42794.00
292.6480, 42946.00
293.8570, 42852.00
295.0670, 43134.00
296.2760, 43058.00
297.4850, 42884.00
298.6930, 43123.00
299.9020, 43143.00
301.1110, 43321.00
302.3190, 43858.00
303.5270, 43932.00
304.7350, 44016.00
305.9430, 43426.00
307.1510, 43366.00
308.3580, 43522.00
309.5660, 43255.41
310.7730, 43890.00
311.9800, 43370.00
313.1870, 43685.00
314.3940, 44172.00
315.6010, 45010.00
316.8070, 43916.00
318.0130, 44221.00
319.2200, 44249.00
320.4260, 44425.00
321.6310, 44775.00
322.8370, 44759.00
324.0430, 45073.28
325.2480, 45409.00
326.4540, 45543.00
327.6590, 45839.00
328.8640, 46090.00
330.0680, 46266.00
331.2730, 46342.16
332.4780, 46221.37
333.6820, 46343.00
334.8860, 45610.00
336.0900, 45501.00
337.2940, 44839.00
338.4980, 45022.00
339.7010, 45464.00
340.9050, 44849.00
342.1080, 44839.00
343.3110, 44905.00
344.5140, 44733.00
345.7170, 44560.00
346.9200, 44429.00
348.1220, 44750.00
349.3240, 44795.00
350.5270, 44671.00
351.7290, 44779.00
352.9310, 44661.00
354.1320, 44491.00
355.3340, 44728.00
356.5350, 44769.00
357.7370, 44563.00
358.9380, 44803.00
360.1390, 44845.00
361.3400, 45095.00
362.5400, 45287.00
363.7410, 45047.00
364.9410, 44928.00
366.1410, 45165.00
367.3410, 44756.00
368.5410, 45233.00
369.7410, 45408.00
370.9400, 45152.00
372.1400, 45268.00
373.3390, 45505.00
374.5380, 45339.00
375.7370, 45509.00
376.9360, 45589.00
378.1350, 45573.00
379.3330, 45451.00
380.5310, 45651.00
381.7300, 45356.00
382.9280, 45250.00
384.1260, 45545.00
385.3230, 45479.00
386.5210, 45583.00
387.7180, 45519.00
388.9160, 45564.00
390.1130, 45464.00
391.3100, 45628.00
392.5060, 45534.00
393.7030, 45447.00
394.9000, 45706.00
396.0960, 45617.00
397.2920, 45713.00
398.4880, 45807.00
399.6840, 45915.00
400.8800, 45954.00
402.0750, 45710.00
403.2710, 45777.00
404.4660, 45962.00
405.6610, 46137.00
406.8560, 45847.00
408.0510, 45977.00
409.2450, 46103.00
410.4400, 46333.00
411.6340, 46217.00
412.8280, 46348.99
414.0220, 46440.00
415.2160, 46434.00
416.4100, 46470.00
417.6030, 46583.00
418.7970, 46565.00
419.9900, 46556.00
421.1830, 46850.00
422.3760, 46593.00
423.5690, 46918.00
424.7610, 47149.00
425.9540, 46753.00
427.1460, 46784.00
428.3380, 46915.00
429.5300, 47049.00
430.7220, 47016.00
431.9140, 46652.00
433.1050, 47006.00
434.2970, 46870.00
435.4880, 47091.00
436.6790, 47159.00
437.8700, 47028.00
439.0610, 47242.00
440.2510, 47278.00
441.4420, 47498.00
442.6320, 47417.00
443.8220, 47522.00
445.0120, 47537.00
446.2020, 47554.00
447.3910, 47496.00
448.5810, 47603.00
449.7700, 47638.00
450.9600, 47462.00
452.1490, 47842.00
453.3370, 47948.00
454.5260, 47657.00
455.7150, 47781.00
456.9030, 47821.00
458.0910, 48039.00
459.2800, 47876.00
460.4670, 47741.00
461.6550, 48000.00
462.8430, 47963.00
464.0300, 48041.00
465.2180, 48286.00
466.4050, 48514.00
467.5920, 48418.00
468.7790, 48585.00
469.9650, 48593.00
471.1520, 48768.00
472.3380, 48462.00
473.5250, 48761.00
474.7110, 48635.00
475.8970, 48844.00
477.0820, 48814.00
478.2680, 48490.00
479.4540, 48696.00
480.6390, 48745.00
481.8240, 48791.00
483.0090, 49085.00
484.1940, 48907.00
485.3780, 48903.00
486.5630, 48954.00
487.7470, 48773.00
488.9320, 48841.00
490.1160, 49115.00
491.3000, 49259.00
492.4830, 49007.00
493.6670, 49126.00
494.8500, 49166.00
496.0340, 49290.00
497.2170, 49430.97
498.4000, 49652.00
499.5820, 49773.00
500.7650, 49795.00
501.9480, 50008.00
503.1300, 49904.00
504.3120, 50619.00
505.4940, 50861.00
506.6760, 50977.00
507.8580, 51166.00
509.0390, 51489.00
510.2210, 51649.00
511.4020, 51427.00
512.5830, 51253.00
513.7640, 51417.00
514.9450, 51229.00
516.1250, 50904.00
517.3060, 50969.00
518.4860, 50509.00
519.6660, 50680.00
520.8460, 50516.00
522.0260, 50202.00
523.2060, 50045.00
524.3850, 49829.00
525.5650, 49948.00
526.7440, 49825.00
527.9230, 49835.00
529.1020, 49739.00
530.2810, 49874.00
531.4590, 50068.00
532.6380, 50120.00
533.8160, 50071.00
534.9940, 50018.00
536.1720, 50087.64
537.3500, 50139.00
538.5270, 50151.00
539.7050, 50222.00
540.8820, 50179.00
542.0590, 49793.00
543.2360, 49968.00
544.4130, 50158.00
545.5900, 49828.00
546.7660, 50165.81
547.9430, 50277.00
549.1190, 50424.00
550.2950, 50194.00
551.4710, 50118.00
552.6470, 50258.00
553.8220, 50314.00
554.9980, 50218.00
556.1730, 50731.00
557.3480, 50467.00
558.5230, 50702.00
559.6980, 50383.00
560.8730, 50654.00
562.0470, 50842.00
563.2220, 50834.00
564.3960, 50905.69
565.5700, 50831.00
566.7440, 50676.00
567.9170, 51103.00
569.0910, 50721.00
570.2640, 51312.00
571.4380, 51117.00
572.6110, 51032.00
573.7840, 51061.00
574.9570, 50668.00
576.1290, 50589.00
577.3020, 50637.00
578.4740, 50640.00
579.6460, 50119.00
580.8180, 50294.00
581.9900, 50364.00
583.1620, 50217.00
584.3330, 50531.00
585.5040, 50451.00
586.6760, 50242.00
587.8470, 50387.62
589.0180, 50532.00
590.1880, 50484.00
591.3590, 50533.00
592.5290, 50813.00
593.7000, 50647.00
594.8700, 51070.00
596.0400, 50996.00
597.2090, 51249.00
598.3790, 51621.00
599.5490, 51810.00
600.7180, 52091.00
601.8870, 52360.00
603.0560, 52654.57
604.2250, 53000.00
605.3940, 53334.00
606.5620, 53867.00
607.7300, 54298.00
608.8990, 54909.00
610.0670, 55374.79
611.2350, 55912.00
612.4020, 56313.00
613.5700, 56902.00
614.7370, 57234.00
615.9050, 57556.00
617.0720, 57659.36
618.2390, 57436.00
619.4060, 57439.00
620.5720, 57212.00
621.7390, 56676.00
622.9050, 56274.00
624.0710, 55967.00
625.2370, 55704.00
626.4030, 55137.00
627.5690, 54779.82
628.7340, 53776.00
629.9000, 53781.00
631.0650, 53428.00
632.2300, 52799.00
633.3950, 52781.00
634.5600, 52373.00
635.7240, 52256.00
636.8890, 51786.00
638.0530, 52079.00
639.2170, 51863.00
640.3810, 51800.00
641.5450, 51573.00
642.7080, 51596.00
643.8720, 51496.00
645.0350, 51383.00
646.1980, 51536.00
647.3610, 51128.00
648.5240, 51067.00
649.6870, 50627.00
650.8490, 51034.00
652.0120, 51095.00
653.1740, 51176.00
654.3360, 51140.00
655.4980, 51166.18
656.6600, 51211.36
657.8210, 51078.00
658.9830, 51269.00
660.1440, 51128.00
661.3050, 51096.00
662.4660, 51488.00
663.6270, 51201.00
664.7870, 51685.00
665.9480, 51553.00
667.1080, 51680.00
668.2680, 51749.00
669.4280, 51699.00
670.5880, 51900.00
671.7480, 52094.00
672.9070, 52350.00
674.0670, 52143.00
675.2260, 52284.00
676.3850, 52960.00
677.5440, 53090.00
678.7030, 52759.00
679.8610, 53406.00
681.0200, 53822.00
682.1780, 54037.00
683.3360, 54584.00
684.4940, 54297.00
685.6520, 54733.00
686.8090, 54939.00
687.9670, 54738.25
689.1240, 54558.00
690.2810, 54475.00
691.4380, 54494.00
692.5950, 54348.00
693.7520, 53810.00
694.9080, 53502.00
696.0650, 53061.00
697.2210, 52933.00
698.3770, 52426.00
699.5330, 52275.00
700.6880, 52116.50
701.8440, 52293.00
702.9990, 51680.00
704.1550, 51764.00
705.3100, 51094.00
706.4650, 51050.00
707.6190, 51022.00
708.7740, 51163.00
709.9290, 51099.00
711.0830, 51021.00
712.2370, 51100.00
713.3910, 50856.00
714.5450, 50965.00
715.6980, 50762.00
716.8520, 50912.00
718.0050, 50858.13
719.1580, 50756.00
720.3110, 50733.00
721.4640, 50793.00
722.6170, 50504.00
723.7700, 50562.00
724.9220, 50507.00
726.0740, 50715.00
727.2260, 50538.00
728.3780, 50747.00
729.5300, 50650.00
730.6810, 50538.00
731.8330, 50691.00
732.9840, 50634.00
734.1350, 50474.00
735.2860, 50447.00
736.4370, 50651.00
737.5880, 50329.00
738.7380, 50406.00
739.8880, 50700.00
741.0390, 50635.00
742.1890, 50514.00
743.3380, 50542.00
744.4880, 50484.00
745.6380, 50570.00
746.7870, 50457.00
747.9360, 50794.00
749.0850, 50681.88
750.2340, 50611.00
751.3830, 50745.00
752.5310, 50635.00
753.6800, 50844.00
754.8280, 50634.00
755.9760, 50915.00
757.1240, 50917.00
758.2720, 50821.00
759.4190, 50894.00
760.5670, 50803.00
761.7140, 50771.00
762.8610, 50748.00
764.0080, 50706.00
765.1550, 50703.80
766.3020, 50776.00
767.4480, 50757.00
768.5950, 50732.00
769.7410, 50886.00
770.8870, 50807.00
772.0330, 51013.00
773.1780, 50748.00
774.3240, 50609.00
775.4690, 50678.00
776.6140, 50847.00
777.7590, 50905.00
778.9040, 50868.00
780.0490, 51048.00
781.1940, 51070.00
782.3380, 50907.62
783.4820, 50829.00
784.6260, 50628.00
785.7700, 50840.00
786.9140, 50957.00
788.0580, 50616.00
789.2010, 50933.00
790.3450, 50920.00
791.4880, 51216.00
792.6310, 50900.00
793.7730, 50749.00
794.9160, 50975.00
796.0590, 51039.00
797.2010, 50974.00
798.3430, 51085.00
799.4850, 51128.00
800.6270, 50929.00
801.7690, 50849.00
802.9100, 50972.00
804.0520, 51023.00
805.1930, 50763.00
806.3340, 50772.00
807.4750, 50993.00
808.6160, 50989.00
809.7560, 50776.00
810.8970, 51030.00
812.0370, 51091.00
813.1770, 51254.00
814.3170, 50862.00
815.4570, 51058.00
816.5960, 51226.00
817.7360, 50770.00
818.8750, 51458.00
820.0140, 51192.00
821.1530, 51156.00
822.2920, 50927.00
823.4310, 51015.00
824.5690, 51151.00
825.7070, 51048.00
826.8460, 51203.00
827.9840, 50979.00
829.1220, 50998.00
830.2590, 51224.00
831.3970, 51275.00
832.5340, 51348.00
833.6710, 51560.09
834.8080, 51519.00
835.9450, 51814.00
837.0820, 51405.00
838.2190, 51245.00
839.3550, 51180.00
840.4910, 51143.00
841.6270, 51082.55
842.7630, 51188.00
843.8990, 51085.00
845.0350, 51119.78
846.1700, 51207.00
847.3060, 51117.00
848.4410, 51151.00
849.5760, 51234.00
850.7100, 51159.00
851.8450, 51343.00
852.9800, 51359.00
854.1140, 51328.30
855.2480, 51432.00
856.3820, 51285.00
857.5160, 51158.00
858.6500, 51180.00
859.7830, 51410.00
860.9170, 51468.00
862.0500, 51410.00
863.1830, 51361.00
864.3160, 51266.00
865.4480, 51212.20
866.5810, 51245.00
867.7130, 51117.00
868.8460, 51232.00
869.9780, 51289.00
871.1100, 51414.00
872.2410, 51265.00
873.3730, 51278.00
874.5050, 51211.00
875.6360, 51197.00
876.7670, 51522.00
877.8980, 51529.00
879.0290, 51500.00
880.1590, 51238.00
881.2900, 51641.00
882.4200, 51340.00
883.5500, 51378.00
884.6800, 51390.00
885.8100, 51512.00
886.9400, 51563.00
888.0690, 51717.00
889.1990, 51443.00
890.3280, 51434.00
891.4570, 51547.00
892.5860, 51467.00
893.7140, 51712.00
894.8430, 51846.00
895.9710, 51645.00
897.1000, 51561.00
898.2280, 51697.00
899.3560, 51600.00
900.4830, 51649.00
901.6110, 51704.00
902.7380, 51712.36
903.8660, 51822.00
904.9930, 51836.00
906.1200, 51715.00
907.2460, 51795.00
908.3730, 51769.00
909.5000, 51918.00
910.6260, 51863.00
911.7520, 51780.00
912.8780, 52273.00
914.0040, 51950.00
915.1290, 51940.00
916.2550, 51846.00
917.3800, 51647.00
918.5050, 52128.00
919.6300, 52238.00
920.7550, 52010.00
921.8800, 52046.00
923.0040, 52090.00
924.1290, 51887.00
925.2530, 52139.00
926.3770, 51915.00
927.5010, 52326.00
928.6250, 52130.00
929.7480, 52025.00
930.8720, 52112.00
931.9950, 52122.00
933.1180, 52367.00
934.2410, 52614.00
935.3640, 52333.00
936.4860, 52429.00
937.6090, 52310.00
938.7310, 52677.00
939.8530, 52353.00
940.9750, 52320.00
942.0970, 52718.00
943.2180, 52632.00
944.3400, 52779.00
945.4610, 52792.00
946.5820, 52905.00
947.7030, 53029.00
948.8240, 53215.00
949.9450, 53089.00
951.0650, 53164.00
952.1860, 53089.00
953.3060, 53081.00
954.4260, 53071.00
955.5460, 53416.00
956.6650, 53349.00
957.7850, 53204.00
958.9040, 53135.00
960.0230, 53011.00
961.1420, 53140.00
962.2610, 52878.00
963.3800, 53320.00
964.4990, 53327.00
965.6170, 53182.00
966.7350, 53086.00
967.8530, 52868.00
968.9710, 53253.00
970.0890, 52791.00
971.2070, 53008.00
972.3240, 52947.00
973.4410, 52681.00
974.5580, 52636.00
975.6750, 52972.00
976.7920, 52678.00
977.9090, 52920.00
979.0250, 53004.00
980.1410, 52757.00
981.2580, 52685.00
982.3740, 52775.00
983.4890, 52502.00
984.6050, 52942.00
985.7200, 52538.00
986.8360, 52422.00
987.9510, 52793.00
989.0660, 52982.00
990.1810, 52796.00
991.2950, 52881.00
992.4100, 52711.00
993.5240, 52853.00
994.6390, 52982.00
995.7530, 53025.00
996.8660, 52823.00
997.9800, 52791.00
999.0940, 52659.00
1000.207, 52689.73
1001.320, 52974.00
1002.433, 52753.00
1003.546, 52880.00
1004.659, 52803.00
1005.772, 52856.00
1006.884, 52764.00
1007.996, 52694.00
1009.108, 52922.00
1010.220, 53120.00
1011.332, 53014.00
1012.444, 52775.00
1013.555, 52801.00
1014.666, 52882.00
1015.777, 53046.00
1016.888, 53008.16
1017.999, 53038.62
1019.110, 52940.00
1020.220, 52945.00
1021.331, 52782.00
1022.441, 52667.00
1023.551, 52848.00
1024.661, 53010.00
1025.770, 53255.00
1026.880, 53424.00
1027.989, 53029.00
1029.098, 53291.00
1030.207, 52988.00
1031.316, 53441.00
1032.425, 53049.00
1033.533, 53293.00
1034.642, 53266.00
1035.750, 53330.00
1036.858, 53114.00
1037.966, 52967.00
1039.073, 53077.20
1040.181, 53314.00
1041.288, 53117.00
1042.396, 53584.00
1043.503, 53363.00
1044.610, 53381.00
1045.716, 53352.00
1046.823, 53115.00
1047.929, 53341.00
1049.036, 53439.00
1050.142, 53368.00
1051.248, 53313.00
1052.353, 53391.22
1053.459, 53402.00
1054.564, 53410.00
1055.670, 53416.80
1056.775, 53413.42
1057.880, 53408.00
1058.985, 53398.00
1060.089, 53449.00
1061.194, 53439.52
1062.298, 53449.00
1063.402, 53549.00
1064.506, 53477.00
1065.610, 53557.00
1066.713, 53509.00
1067.817, 53584.00
1068.920, 53656.00
1070.023, 53943.00
1071.126, 53514.00
1072.229, 53929.00
1073.332, 53688.00
1074.435, 53560.00
1075.537, 53757.00
1076.639, 53819.00
1077.741, 53915.00
1078.843, 53852.00
1079.945, 53771.00
1081.046, 53671.00
1082.148, 53653.00
1083.249, 53626.00
1084.350, 53878.00
1085.451, 53900.00
1086.551, 53551.82
1087.652, 53730.66
1088.752, 53821.52
1089.853, 53829.09
1090.953, 53503.99
1092.053, 53608.48
1093.152, 53540.83
1094.252, 53466.10
1095.351, 53631.07
1096.451, 53633.00
1097.550, 53528.00
1098.649, 53662.00
1099.748, 53773.00
1100.846, 54016.00
1101.945, 53732.00
1103.043, 53797.00
1104.141, 53830.00
1105.239, 53718.00
1106.337, 53623.00
1107.434, 53731.00
1108.532, 53844.00
1109.629, 53807.41
1110.726, 53466.00
1111.823, 53844.00
1112.920, 53623.00
1114.017, 53636.99
1115.113, 53806.00
1116.210, 53536.00
1117.306, 53442.00
1118.402, 53792.00
1119.498, 53616.00
1120.593, 53393.00
1121.689, 53851.00
1122.784, 53711.00
1123.879, 53717.00
1124.974, 53205.00
1126.069, 53374.00
1127.164, 53378.11
1128.259, 53583.00
1129.353, 53614.00
1130.447, 53291.00
1131.541, 53237.00
1132.635, 53293.00
1133.729, 53386.00
1134.822, 53271.00
1135.916, 53365.00
1137.009, 53418.00
1138.102, 53328.00
1139.195, 53439.19
1140.288, 53517.00
1141.380, 53437.00
1142.473, 53471.00
1143.565, 53241.00
1144.657, 53040.00
1145.749, 53416.00
1146.841, 53194.00
1147.932, 53272.00
1149.024, 53430.00
1150.115, 53279.00
1151.206, 53635.00
1152.297, 53464.00
1153.388, 53452.00
1154.479, 53202.00
1155.569, 53157.00
1156.659, 53074.35
1157.750, 53305.00
1158.839, 53140.00
1159.929, 52999.00
1161.019, 53444.00
1162.108, 53348.00
1163.198, 52878.00
1164.287, 53303.00
1165.376, 53322.00
1166.465, 53398.00
1167.553, 53002.00
1168.642, 53310.00
1169.730, 53202.00
1170.818, 53141.00
1171.906, 53305.00
1172.994, 53245.00
1174.082, 53358.00
1175.170, 53310.00
1176.257, 53192.00
1177.344, 53312.00
1178.431, 53079.00
1179.518, 53058.00
1180.605, 53149.00
1181.691, 53197.00
1182.778, 53436.00
1183.864, 53335.77
1184.950, 53334.48
1186.036, 53230.00
1187.122, 53193.00
1188.207, 53184.00
1189.292, 53218.00
1190.378, 53128.00
1191.463, 53048.00
1192.548, 53146.00
1193.632, 53208.00
1194.717, 53167.00
1195.801, 52892.00
1196.886, 53216.00
1197.970, 53027.00
1199.054, 53079.00
1200.137, 53164.00
1201.221, 52961.00
1202.305, 52982.00
1203.388, 53014.00
1204.471, 53033.00
1205.554, 53215.00
1206.637, 52711.00
1207.719, 53296.00
1208.802, 53164.00
1209.884, 53055.00
1210.966, 53382.00
1212.048, 52777.00
1213.130, 53047.00
1214.212, 53217.00
1215.293, 53319.00
1216.374, 53054.00
1217.456, 53182.00
1218.536, 53326.00
1219.617, 52855.00
1220.698, 52947.00
1221.778, 53175.00
1222.859, 53121.00
1223.939, 53167.00
1225.019, 53109.00
1226.099, 53119.57
1227.178, 53272.00
1228.258, 53095.00
1229.337, 53203.00
1230.417, 53143.00
1231.496, 53327.00
1232.574, 53308.00
1233.653, 53497.00
1234.732, 53194.00
1235.810, 53318.00
1236.888, 53268.00
1237.966, 53413.00
1239.044, 53543.00
1240.122, 53271.00
1241.199, 53294.00
1242.277, 53064.00
1243.354, 53289.00
1244.431, 52947.00
1245.508, 53186.00
1246.585, 53240.00
1247.661, 53147.00
1248.738, 53408.00
1249.814, 52869.00
1250.890, 53122.00
1251.966, 53387.00
1253.042, 53606.00
1254.117, 53141.00
1255.193, 53328.00
1256.268, 53073.00
1257.343, 53320.00
1258.418, 53171.00
1259.493, 53143.28
1260.567, 53205.00
1261.642, 53120.00
1262.716, 53043.00
1263.790, 53157.00
1264.864, 53184.08
1265.938, 53064.60
1267.011, 53401.00
1268.085, 52989.00
1269.158, 53031.00
1270.231, 53348.00
1271.304, 52820.00
1272.377, 52873.00
1273.450, 53222.00
1274.522, 53256.00
1275.594, 53238.00
1276.666, 53319.00
1277.738, 53166.00
1278.810, 52999.00
1279.882, 53062.00
1280.953, 53195.00
1282.025, 53391.00
1283.096, 53299.00
1284.167, 53397.00
1285.238, 53232.00
1286.308, 53017.00
1287.379, 53186.00
1288.449, 53044.00
1289.519, 52980.16
1290.589, 52975.00
1291.659, 52914.00
1292.729, 52971.00
1293.798, 53152.00
1294.868, 53312.00
1295.937, 53078.00
1297.006, 52895.00
1298.075, 53259.00
1299.143, 53088.00
1300.212, 53456.00
1301.280, 53355.00
1302.348, 53361.00
1303.416, 53048.00
1304.484, 53017.00
1305.552, 52968.00
1306.620, 53215.00
1307.687, 53155.00
1308.754, 53249.00
1309.821, 53330.00
1310.888, 53338.46
1311.955, 53343.03
1313.021, 53330.00
1314.088, 53298.00
1315.154, 53080.00
1316.220, 53101.00
1317.286, 53259.00
1318.352, 53356.00
1319.417, 53123.00
1320.483, 53302.00
1321.548, 53223.00
1322.613, 53409.00
1323.678, 53409.00
1324.743, 53180.00
1325.807, 53554.00
1326.872, 53439.00
1327.936, 53353.00
1329.000, 53367.00
1330.064, 53420.00
1331.128, 53338.00
1332.191, 53363.00
1333.255, 53191.00
1334.318, 53643.00
1335.381, 53186.00
1336.444, 53232.00
1337.507, 53481.00
1338.569, 53279.00
1339.632, 53722.00
1340.694, 53428.00
1341.756, 53236.00
1342.818, 53211.00
1343.880, 53183.00
1344.941, 53560.00
1346.003, 53229.00
1347.064, 53346.00
1348.125, 53042.00
1349.186, 53680.00
1350.247, 53459.00
1351.308, 53320.00
1352.368, 52990.00
1353.428, 53262.00
1354.489, 53424.00
1355.549, 53489.00
1356.608, 53430.00
1357.668, 53436.60
1358.727, 53478.00
1359.787, 53230.00
1360.846, 53334.00
1361.905, 53142.00
1362.964, 53454.00
1364.022, 53180.00
1365.081, 53659.00
1366.139, 53521.00
1367.197, 53690.00
1368.255, 53353.00
1369.313, 53624.00
1370.371, 53370.00
1371.428, 53347.00
1372.486, 53347.00
1373.543, 53336.08
1374.600, 53350.00
1375.657, 53458.00
1376.713, 53274.00
1377.770, 53248.00
1378.826, 53329.00
1379.882, 53210.00
1380.938, 53480.00
1381.994, 53378.00
1383.050, 53169.00
1384.106, 53377.00
1385.161, 53505.00
1386.216, 53299.00
1387.271, 53353.00
1388.326, 53546.00
1389.381, 53328.00
1390.435, 53167.00
1391.490, 53538.00
1392.544, 53630.00
1393.598, 53529.00
1394.652, 53225.00
1395.705, 53475.00
1396.759, 53102.00
1397.812, 53378.00
1398.866, 53456.00
1399.919, 53325.61
1400.972, 53298.88
1402.024, 53214.00
1403.077, 53091.00
1404.129, 52955.00
1405.181, 53194.00
1406.233, 53177.00
1407.285, 53146.00
1408.337, 53394.00
1409.389, 53564.00
1410.440, 53347.00
1411.491, 53211.00
1412.542, 53077.00
1413.593, 53072.00
1414.644, 53399.00
1415.695, 53142.00
1416.745, 53399.00
1417.795, 53395.00
1418.845, 53256.00
1419.895, 53197.00
1420.945, 53306.00
1421.995, 53409.00
1423.044, 53454.00
1424.093, 53549.00
1425.142, 53348.00
1426.191, 53124.00
1427.240, 53089.00
1428.289, 53097.00
1429.337, 53136.00
1430.385, 52972.00
1431.433, 52903.00
1432.481, 52983.31
1433.529, 53146.00
1434.577, 53177.00
1435.624, 53121.00
1436.672, 53284.00
1437.719, 53117.00
1438.766, 53361.00
1439.812, 53348.00
1440.859, 53038.00
1441.905, 53704.00
1442.952, 53478.00
1443.998, 53180.00
1445.044, 53056.00
1446.090, 53431.00
1447.135, 53231.00
1448.181, 53425.00
1449.226, 53196.00
1450.271, 53219.00
1451.316, 53385.00
1452.361, 53200.00
1453.405, 53668.00
1454.450, 52999.00
1455.494, 53315.00
1456.538, 53054.00
1457.582, 53293.00
1458.626, 53166.00
1459.670, 53525.00
1460.713, 53443.98
1461.757, 53347.00
1462.800, 53362.00
1463.843, 53182.00
1464.886, 53026.00
1465.928, 53383.00
1466.971, 53464.00
1468.013, 53122.00
1469.055, 53364.00
1470.097, 53267.00
1471.139, 53287.00
1472.181, 53184.00
1473.222, 53146.00
1474.263, 53392.00
1475.305, 53075.00
1476.346, 53346.00
1477.386, 53457.00
1478.427, 53100.00
1479.468, 53089.00
1480.508, 53253.00
1481.548, 53394.00
1482.588, 53261.00
1483.628, 53471.00
1484.668, 53340.00
1485.707, 53456.00
1486.747, 53403.96
1487.786, 53140.00
1488.825, 53309.00
1489.864, 53298.00
1490.902, 53327.00
1491.941, 53500.00
1492.979, 53224.00
1494.017, 53575.00
1495.055, 53295.00
1496.093, 53397.00
1497.131, 53057.00
1498.168, 53090.00
1499.206, 53189.00
1500.243, 53122.00
1501.280, 53332.00
1502.317, 53291.62
1503.354, 53173.00
1504.390, 53421.00
1505.426, 53548.00
1506.463, 53856.00
1507.499, 53356.00
1508.535, 53272.00
1509.570, 53396.00
1510.606, 53636.00
1511.641, 53401.00
1512.676, 53397.00
1513.711, 53333.00
1514.746, 53595.00
1515.781, 53328.00
1516.816, 53379.00
1517.850, 53622.00
1518.884, 53620.00
1519.918, 53452.00
1520.952, 53630.37
1521.986, 53412.00
1523.019, 53754.00
1524.053, 53734.00
1525.086, 53805.00
1526.119, 53425.00
1527.152, 53664.00
1528.185, 53646.00
1529.217, 53521.00
1530.250, 53535.00
1531.282, 53393.76
1532.314, 53543.00
1533.346, 53255.00
1534.377, 53382.00
1535.409, 53583.00
1536.440, 53734.00
1537.472, 53621.00
1538.503, 53409.00
1539.534, 53710.00
1540.564, 53907.00
1541.595, 53731.00
1542.625, 53824.00
1543.656, 53751.00
1544.686, 53711.00
1545.716, 53864.00
1546.745, 53439.61
1547.775, 53647.68
1548.804, 53767.75
1549.834, 53804.55
1550.863, 53508.66
1551.892, 53642.36
1552.920, 53603.89
1553.949, 53558.38
1554.977, 53752.54
1556.006, 53505.03
1557.034, 53695.39
1558.062, 53710.96
1559.089, 53806.52
1560.117, 53728.85
1561.144, 53551.00
1562.172, 53826.00
1563.199, 53842.00
1564.226, 54005.00
1565.252, 53561.00
1566.279, 53644.00
1567.305, 53653.00
1568.332, 53814.00
1569.358, 53634.00
1570.384, 54017.00
##END=



