##NAMES=Braunite
##RRUFFID=R050388
##IDEAL CHEMISTRY=Mn^2+^Mn^3+^_6_SiO_12_
##LOCALITY=Langban, Filipstad, Varmland, Sweden
##OWNER=RRUFF
##SOURCE=University of Arizona Mineral Museum
##DESCRIPTION=Black crystals
##STATUS=The identification of this mineral has been confirmed by X-ray diffraction and chemical analysis
##URL=rruff.info/R050388
##MEASURED CHEMISTRY=(Mn^2+^_0.96_Mg_0.04_)_Î£=1_Mn^3+^_6.00_Si_1.00_O_12_
##PIN_ID=M00455
##ORIENTATION=Laser parallel to a* (1 0 0). Fiducial mark perpendicular to laser is parallel to c [0 0 1]
175.8340, 43369.00
177.0580, 43348.00
178.2820, 43300.19
179.5050, 43226.41
180.7290, 43349.00
181.9520, 43130.00
183.1760, 43156.00
184.3990, 43237.00
185.6220, 43401.00
186.8450, 43728.00
188.0670, 43970.00
189.2900, 44028.00
190.5120, 44275.00
191.7340, 44223.00
192.9560, 44544.00
194.1780, 44444.00
195.4000, 44730.00
196.6220, 45020.00
197.8430, 45033.00
199.0640, 45268.00
200.2860, 45194.00
201.5070, 45998.00
202.7270, 45955.00
203.9480, 45969.00
205.1690, 44844.00
206.3890, 44033.00
207.6090, 43697.00
208.8290, 43295.00
210.0490, 43423.00
211.2690, 43570.00
212.4890, 44064.00
213.7080, 44079.32
214.9280, 44280.97
216.1470, 44365.00
217.3660, 44603.00
218.5850, 44795.00
219.8030, 45211.00
221.0220, 44743.00
222.2400, 44519.00
223.4590, 45273.00
224.6770, 44971.00
225.8950, 44446.00
227.1120, 44551.00
228.3300, 44260.00
229.5480, 44159.00
230.7650, 43944.00
231.9820, 43705.00
233.1990, 43535.00
234.4160, 43637.00
235.6330, 43537.00
236.8490, 43407.00
238.0660, 43645.00
239.2820, 43583.00
240.4980, 43758.00
241.7140, 43355.00
242.9300, 43696.00
244.1460, 43472.00
245.3610, 43085.00
246.5770, 43664.00
247.7920, 43347.00
249.0070, 43486.00
250.2220, 43294.72
251.4370, 43512.30
252.6510, 43644.09
253.8660, 43694.71
255.0800, 43421.01
256.2940, 43566.09
257.5080, 43543.33
258.7220, 43513.70
259.9360, 43717.71
261.1490, 43491.16
262.3630, 43691.47
263.5760, 43721.38
264.7890, 43829.26
266.0020, 43768.29
267.2150, 43759.46
268.4270, 43919.54
269.6400, 44106.00
270.8520, 43771.00
272.0640, 43902.00
273.2760, 43969.00
274.4880, 43960.00
275.7000, 44052.00
276.9120, 44117.00
278.1230, 44116.00
279.3340, 44099.00
280.5450, 44142.00
281.7560, 43761.00
282.9670, 43842.00
284.1780, 43987.00
285.3880, 44310.00
286.5980, 44096.00
287.8090, 44299.00
289.0190, 43954.00
290.2290, 44332.00
291.4380, 44005.00
292.6480, 43853.00
293.8570, 43964.00
295.0670, 44244.00
296.2760, 44222.00
297.4850, 44222.00
298.6930, 44310.47
299.9020, 44371.00
301.1110, 44310.00
302.3190, 44235.00
303.5270, 44184.00
304.7350, 44106.00
305.9430, 44284.00
307.1510, 44207.00
308.3580, 44449.00
309.5660, 44395.00
310.7730, 44802.00
311.9800, 44345.00
313.1870, 44515.00
314.3940, 44261.00
315.6010, 44694.00
316.8070, 44691.00
318.0130, 44659.00
319.2200, 44607.00
320.4260, 44763.00
321.6310, 44897.00
322.8370, 45103.00
324.0430, 45170.00
325.2480, 45113.00
326.4540, 45270.00
327.6590, 45349.00
328.8640, 45424.00
330.0680, 45738.00
331.2730, 45748.00
332.4780, 46266.00
333.6820, 46414.00
334.8860, 46649.07
336.0900, 46896.00
337.2940, 46998.00
338.4980, 47439.00
339.7010, 47386.00
340.9050, 47623.00
342.1080, 47367.00
343.3110, 47108.00
344.5140, 46666.00
345.7170, 46815.00
346.9200, 46261.00
348.1220, 46120.00
349.3240, 46148.00
350.5270, 46283.00
351.7290, 46272.00
352.9310, 46229.00
354.1320, 46046.00
355.3340, 46367.00
356.5350, 46067.00
357.7370, 46423.00
358.9380, 46363.00
360.1390, 46111.00
361.3400, 46003.00
362.5400, 46208.00
363.7410, 46027.05
364.9410, 46068.12
366.1410, 46096.00
367.3410, 45988.00
368.5410, 46276.00
369.7410, 46168.00
370.9400, 46342.00
372.1400, 46514.00
373.3390, 46771.00
374.5380, 46705.00
375.7370, 46481.00
376.9360, 46758.00
378.1350, 46795.00
379.3330, 46786.00
380.5310, 46887.00
381.7300, 46915.00
382.9280, 47014.00
384.1260, 46981.00
385.3230, 46972.00
386.5210, 46850.00
387.7180, 46820.00
388.9160, 46828.00
390.1130, 46812.00
391.3100, 46950.00
392.5060, 46798.00
393.7030, 47043.00
394.9000, 47378.00
396.0960, 47130.00
397.2920, 46926.00
398.4880, 47176.00
399.6840, 47057.00
400.8800, 47387.00
402.0750, 47141.00
403.2710, 47033.00
404.4660, 47123.00
405.6610, 47252.00
406.8560, 47335.00
408.0510, 47344.00
409.2450, 47139.00
410.4400, 47603.00
411.6340, 47414.00
412.8280, 47478.00
414.0220, 47696.00
415.2160, 47376.00
416.4100, 47657.00
417.6030, 47365.00
418.7970, 47547.21
419.9900, 47850.00
421.1830, 47834.00
422.3760, 47687.00
423.5690, 47742.00
424.7610, 47879.00
425.9540, 48162.00
427.1460, 47955.00
428.3380, 48157.87
429.5300, 48281.00
430.7220, 48213.00
431.9140, 48400.00
433.1050, 48299.00
434.2970, 48207.00
435.4880, 48523.00
436.6790, 48518.00
437.8700, 48214.00
439.0610, 48333.00
440.2510, 48468.00
441.4420, 48418.00
442.6320, 48838.00
443.8220, 48484.00
445.0120, 48783.00
446.2020, 48590.00
447.3910, 48937.00
448.5810, 48535.00
449.7700, 48624.00
450.9600, 48740.00
452.1490, 48738.00
453.3370, 48938.00
454.5260, 48911.00
455.7150, 49080.00
456.9030, 49148.66
458.0910, 49200.50
459.2800, 49274.00
460.4670, 49381.00
461.6550, 49382.00
462.8430, 49574.00
464.0300, 49592.60
465.2180, 49665.00
466.4050, 49751.00
467.5920, 49799.00
468.7790, 49976.00
469.9650, 49954.00
471.1520, 50346.00
472.3380, 50273.00
473.5250, 50799.00
474.7110, 50816.00
475.8970, 51257.00
477.0820, 51715.00
478.2680, 51882.00
479.4540, 51908.00
480.6390, 52256.00
481.8240, 52409.00
483.0090, 52087.00
484.1940, 52071.00
485.3780, 52097.00
486.5630, 51885.00
487.7470, 51696.00
488.9320, 51599.00
490.1160, 51386.00
491.3000, 51253.00
492.4830, 51365.00
493.6670, 51174.00
494.8500, 51198.00
496.0340, 50986.00
497.2170, 51059.00
498.4000, 51288.00
499.5820, 51361.00
500.7650, 51217.00
501.9480, 51367.00
503.1300, 51275.00
504.3120, 51555.00
505.4940, 51434.00
506.6760, 51558.00
507.8580, 51887.00
509.0390, 51775.00
510.2210, 52343.00
511.4020, 52186.00
512.5830, 52856.00
513.7640, 52956.00
514.9450, 53083.00
516.1250, 53357.00
517.3060, 53604.00
518.4860, 53721.00
519.6660, 53765.00
520.8460, 53865.27
522.0260, 53768.00
523.2060, 53729.00
524.3850, 53699.00
525.5650, 53215.00
526.7440, 53067.00
527.9230, 52866.00
529.1020, 52645.00
530.2810, 52533.00
531.4590, 52555.00
532.6380, 52304.00
533.8160, 52487.00
534.9940, 52100.00
536.1720, 51886.00
537.3500, 51943.00
538.5270, 51966.00
539.7050, 51972.00
540.8820, 52129.00
542.0590, 51909.00
543.2360, 51944.00
544.4130, 52398.00
545.5900, 52125.00
546.7660, 52198.00
547.9430, 52096.00
549.1190, 52137.00
550.2950, 52257.00
551.4710, 52031.00
552.6470, 52079.00
553.8220, 52355.00
554.9980, 52160.00
556.1730, 52483.00
557.3480, 52069.00
558.5230, 52602.00
559.6980, 52622.00
560.8730, 52807.00
562.0470, 52289.00
563.2220, 52524.00
564.3960, 52478.00
565.5700, 52663.00
566.7440, 52367.00
567.9170, 52600.00
569.0910, 52574.00
570.2640, 52801.00
571.4380, 52777.00
572.6110, 52541.00
573.7840, 52621.00
574.9570, 52520.00
576.1290, 52240.00
577.3020, 52122.00
578.4740, 52118.00
579.6460, 51857.00
580.8180, 51859.00
581.9900, 51767.00
583.1620, 51451.00
584.3330, 51214.00
585.5040, 51098.93
586.6760, 50931.00
587.8470, 50865.00
589.0180, 50736.00
590.1880, 50697.00
591.3590, 50664.00
592.5290, 50912.00
593.7000, 50608.00
594.8700, 51023.00
596.0400, 50743.00
597.2090, 50866.00
598.3790, 50576.00
599.5490, 51082.00
600.7180, 51019.00
601.8870, 50991.00
603.0560, 51025.00
604.2250, 50911.00
605.3940, 51005.00
606.5620, 51065.84
607.7300, 51251.00
608.8990, 51312.00
610.0670, 51702.00
611.2350, 51902.00
612.4020, 51957.00
613.5700, 52075.00
614.7370, 52049.00
615.9050, 52911.00
617.0720, 52993.00
618.2390, 53563.00
619.4060, 53385.00
620.5720, 53846.00
621.7390, 54255.00
622.9050, 54341.00
624.0710, 54492.00
625.2370, 54598.00
626.4030, 54303.00
627.5690, 54376.00
628.7340, 53960.00
629.9000, 53841.84
631.0650, 53732.00
632.2300, 53403.00
633.3950, 53142.00
634.5600, 52837.00
635.7240, 52804.00
636.8890, 52491.00
638.0530, 52344.00
639.2170, 52005.00
640.3810, 52181.00
641.5450, 52066.00
642.7080, 51524.00
643.8720, 51669.00
645.0350, 51614.00
646.1980, 51332.00
647.3610, 51622.00
648.5240, 51262.00
649.6870, 51565.00
650.8490, 51269.00
652.0120, 51068.00
653.1740, 51219.00
654.3360, 50919.00
655.4980, 50946.00
656.6600, 51232.00
657.8210, 51070.00
658.9830, 51045.00
660.1440, 51153.00
661.3050, 50913.00
662.4660, 50808.00
663.6270, 50834.95
664.7870, 50994.00
665.9480, 50832.00
667.1080, 51042.00
668.2680, 51075.00
669.4280, 51131.00
670.5880, 51034.00
671.7480, 51060.00
672.9070, 50983.00
674.0670, 51050.00
675.2260, 51047.00
676.3850, 50996.00
677.5440, 50989.00
678.7030, 50922.00
679.8610, 51227.00
681.0200, 50938.00
682.1780, 51007.00
683.3360, 50703.00
684.4940, 51027.00
685.6520, 51248.00
686.8090, 51122.00
687.9670, 51155.00
689.1240, 51187.70
690.2810, 50999.00
691.4380, 51171.00
692.5950, 51201.00
693.7520, 51177.00
694.9080, 51528.00
696.0650, 51546.00
697.2210, 51772.00
698.3770, 51693.56
699.5330, 51477.00
700.6880, 51485.00
701.8440, 51420.00
702.9990, 51408.00
704.1550, 51279.00
705.3100, 51242.48
706.4650, 51752.00
707.6190, 51185.00
708.7740, 51232.00
709.9290, 51369.00
711.0830, 50952.00
712.2370, 51085.00
713.3910, 51146.00
714.5450, 51187.00
715.6980, 51315.00
716.8520, 50935.00
718.0050, 50997.00
719.1580, 51116.00
720.3110, 50962.00
721.4640, 51341.00
722.6170, 51138.00
723.7700, 51742.00
724.9220, 51041.00
726.0740, 51285.00
727.2260, 51487.00
728.3780, 51037.00
729.5300, 51082.00
730.6810, 51057.00
731.8330, 50807.00
732.9840, 51152.00
734.1350, 50945.00
735.2860, 51420.00
736.4370, 50949.00
737.5880, 51317.00
738.7380, 51171.00
739.8880, 51502.00
741.0390, 51407.00
742.1890, 51260.00
743.3380, 51455.00
744.4880, 51301.00
745.6380, 51119.00
746.7870, 51328.00
747.9360, 51492.00
749.0850, 51524.00
750.2340, 51413.00
751.3830, 50992.00
752.5310, 51131.00
753.6800, 51274.00
754.8280, 51534.00
755.9760, 51579.00
757.1240, 51455.00
758.2720, 51768.00
759.4190, 51434.00
760.5670, 51306.00
761.7140, 51607.00
762.8610, 51412.00
764.0080, 51492.00
765.1550, 51276.00
766.3020, 51603.00
767.4480, 51583.00
768.5950, 51550.00
769.7410, 51600.00
770.8870, 51599.00
772.0330, 51650.62
773.1780, 51620.00
774.3240, 51601.37
775.4690, 51629.97
776.6140, 51509.00
777.7590, 51587.00
778.9040, 51526.00
780.0490, 51350.00
781.1940, 51542.00
782.3380, 51598.00
783.4820, 51723.00
784.6260, 51566.00
785.7700, 51715.00
786.9140, 51545.00
788.0580, 51822.00
789.2010, 51515.00
790.3450, 51606.06
791.4880, 51587.18
792.6310, 51566.00
793.7730, 51634.00
794.9160, 51532.00
796.0590, 51777.00
797.2010, 51681.00
798.3430, 52064.00
799.4850, 51505.00
800.6270, 51913.00
801.7690, 51881.00
802.9100, 51628.00
804.0520, 51627.00
805.1930, 51436.00
806.3340, 51630.00
807.4750, 51540.00
808.6160, 51598.00
809.7560, 51537.00
810.8970, 51727.00
812.0370, 51781.00
813.1770, 51719.00
814.3170, 51707.00
815.4570, 51843.00
816.5960, 51707.00
817.7360, 51795.00
818.8750, 51839.00
820.0140, 51667.00
821.1530, 52029.00
822.2920, 52042.00
823.4310, 51925.00
824.5690, 51989.00
825.7070, 51936.00
826.8460, 52147.00
827.9840, 51871.00
829.1220, 51928.00
830.2590, 52108.00
831.3970, 52029.00
832.5340, 52006.00
833.6710, 51953.00
834.8080, 51857.00
835.9450, 51875.00
837.0820, 51918.00
838.2190, 52049.00
839.3550, 52151.00
840.4910, 52274.00
841.6270, 52286.03
842.7630, 52170.00
843.8990, 52215.00
845.0350, 52111.00
846.1700, 51920.00
847.3060, 51831.00
848.4410, 51911.00
849.5760, 52079.00
850.7100, 52146.00
851.8450, 52157.00
852.9800, 51936.00
854.1140, 52071.00
855.2480, 52099.00
856.3820, 52079.00
857.5160, 52338.00
858.6500, 52185.00
859.7830, 52366.09
860.9170, 52486.00
862.0500, 52463.00
863.1830, 52347.00
864.3160, 52386.40
865.4480, 52287.00
866.5810, 52292.00
867.7130, 52303.66
868.8460, 52207.00
869.9780, 52360.00
871.1100, 52505.00
872.2410, 52378.00
873.3730, 52436.00
874.5050, 52598.00
875.6360, 52505.00
876.7670, 52731.00
877.8980, 52533.00
879.0290, 52701.00
880.1590, 52803.00
881.2900, 52605.00
882.4200, 52390.00
883.5500, 52933.00
884.6800, 52688.00
885.8100, 52712.00
886.9400, 52853.00
888.0690, 52839.00
889.1990, 52641.00
890.3280, 52834.00
891.4570, 52712.00
892.5860, 53108.00
893.7140, 52733.00
894.8430, 53006.00
895.9710, 52868.00
897.1000, 52916.04
898.2280, 53141.00
899.3560, 53060.00
900.4830, 52899.00
901.6110, 52901.00
902.7380, 53300.00
903.8660, 53169.00
904.9930, 53093.00
906.1200, 52870.00
907.2460, 53164.00
908.3730, 53156.00
909.5000, 53026.00
910.6260, 52986.00
911.7520, 53374.00
912.8780, 52956.00
914.0040, 53413.00
915.1290, 53092.00
916.2550, 53344.00
917.3800, 53388.00
918.5050, 53240.00
919.6300, 53499.00
920.7550, 53438.00
921.8800, 53568.00
923.0040, 53540.00
924.1290, 53611.00
925.2530, 53581.00
926.3770, 53610.00
927.5010, 53599.00
928.6250, 53880.00
929.7480, 53699.00
930.8720, 53410.00
931.9950, 53751.00
933.1180, 53700.00
934.2410, 53670.00
935.3640, 53921.00
936.4860, 54009.00
937.6090, 53856.00
938.7310, 53955.00
939.8530, 54001.00
940.9750, 53815.00
942.0970, 53915.00
943.2180, 53800.00
944.3400, 54226.00
945.4610, 54345.00
946.5820, 53938.00
947.7030, 54572.00
948.8240, 54017.00
949.9450, 53863.00
951.0650, 54123.00
952.1860, 54184.00
953.3060, 54362.00
954.4260, 54215.00
955.5460, 54294.00
956.6650, 54289.00
957.7850, 54304.00
958.9040, 54401.21
960.0230, 54321.93
961.1420, 54378.99
962.2610, 54223.00
963.3800, 54366.00
964.4990, 54353.00
965.6170, 54256.00
966.7350, 54408.00
967.8530, 54308.00
968.9710, 54438.00
970.0890, 54333.00
971.2070, 54662.00
972.3240, 54438.00
973.4410, 54431.00
974.5580, 54733.00
975.6750, 54588.00
976.7920, 54638.00
977.9090, 54730.00
979.0250, 54808.00
980.1410, 54823.00
981.2580, 54822.46
982.3740, 54868.12
983.4890, 54751.00
984.6050, 54868.00
985.7200, 54857.00
986.8360, 54756.00
987.9510, 55032.00
989.0660, 54912.00
990.1810, 54898.00
991.2950, 54986.00
992.4100, 54980.15
993.5240, 55143.00
994.6390, 55034.00
995.7530, 55259.00
996.8660, 55122.00
997.9800, 55141.20
999.0940, 55683.00
1000.207, 55022.00
1001.320, 55511.00
1002.433, 55366.00
1003.546, 55106.00
1004.659, 55455.00
1005.772, 55156.00
1006.884, 55092.00
1007.996, 55214.00
1009.108, 55256.00
1010.220, 55161.00
1011.332, 55226.00
1012.444, 55042.00
1013.555, 55092.00
1014.666, 54873.00
1015.777, 55233.00
1016.888, 55498.00
1017.999, 55201.00
1019.110, 55246.00
1020.220, 55221.00
1021.331, 55284.00
1022.441, 55180.00
1023.551, 55250.00
1024.661, 55189.00
1025.770, 55481.00
1026.880, 55106.00
1027.989, 55567.00
1029.098, 55451.00
1030.207, 55481.00
1031.316, 55322.00
1032.425, 55433.00
1033.533, 55477.00
1034.642, 55571.00
1035.750, 55510.77
1036.858, 55618.00
1037.966, 55415.00
1039.073, 55565.00
1040.181, 55662.00
1041.288, 55512.00
1042.396, 55771.00
1043.503, 55549.00
1044.610, 55822.00
1045.716, 55522.00
1046.823, 55807.00
1047.929, 56005.00
1049.036, 55848.00
1050.142, 55766.00
1051.248, 56127.00
1052.353, 56072.00
1053.459, 56023.00
1054.564, 56163.00
1055.670, 56024.00
1056.775, 55755.00
1057.880, 56097.00
1058.985, 55977.00
1060.089, 55814.00
1061.194, 55949.00
1062.298, 56293.00
1063.402, 56160.00
1064.506, 56002.00
1065.610, 56310.00
1066.713, 56260.00
1067.817, 55933.00
1068.920, 56112.00
1070.023, 56131.00
1071.126, 56198.00
1072.229, 56510.00
1073.332, 56186.00
1074.435, 56464.00
1075.537, 56463.00
1076.639, 56011.00
1077.741, 56093.00
1078.843, 56398.00
1079.945, 56170.00
1081.046, 56398.00
1082.148, 56144.00
1083.249, 56314.00
1084.350, 55852.00
1085.451, 56501.00
1086.551, 56206.00
1087.652, 56367.00
1088.752, 56189.00
1089.853, 56408.00
1090.953, 56235.00
1092.053, 56134.00
1093.152, 56484.00
1094.252, 56100.00
1095.351, 56332.00
1096.451, 56312.00
1097.550, 56226.00
1098.649, 55973.00
1099.748, 56294.00
1100.846, 56117.00
1101.945, 56563.00
1103.043, 56447.00
1104.141, 56129.00
1105.239, 56424.00
1106.337, 55853.00
1107.434, 56229.00
1108.532, 55982.00
1109.629, 56103.00
1110.726, 56319.00
1111.823, 56274.00
1112.920, 56252.04
1114.017, 56109.00
1115.113, 56096.00
1116.210, 55993.00
1117.306, 56083.00
1118.402, 56227.00
1119.498, 56259.11
1120.593, 56459.00
1121.689, 56273.00
1122.784, 56261.62
1123.879, 56397.00
1124.974, 56043.00
1126.069, 55992.00
1127.164, 55956.00
1128.259, 55836.00
1129.353, 55939.00
1130.447, 55470.00
1131.541, 55576.00
1132.635, 55479.00
1133.729, 55588.00
1134.822, 55707.00
1135.916, 55434.00
1137.009, 55536.13
1138.102, 55886.00
1139.195, 55417.00
1140.288, 55376.00
1141.380, 55240.00
1142.473, 55524.00
1143.565, 55287.00
1144.657, 55261.00
1145.749, 55472.00
1146.841, 55401.00
1147.932, 55409.00
1149.024, 55060.00
1150.115, 55139.59
1151.206, 55207.00
1152.297, 55088.00
1153.388, 55143.00
1154.479, 55086.00
1155.569, 55105.00
1156.659, 55084.00
1157.750, 55222.00
1158.839, 55160.92
1159.929, 54898.00
1161.019, 55111.00
1162.108, 55061.00
1163.198, 55015.00
1164.287, 55082.00
1165.376, 55176.00
1166.465, 55143.00
1167.553, 55048.00
1168.642, 55116.00
1169.730, 54996.00
1170.818, 55070.00
1171.906, 55256.00
1172.994, 54784.00
1174.082, 55124.00
1175.170, 54685.00
1176.257, 55055.00
1177.344, 55142.00
1178.431, 54835.00
1179.518, 55072.00
1180.605, 54921.00
1181.691, 54898.00
1182.778, 55116.00
1183.864, 55094.00
1184.950, 55091.52
1186.036, 55019.00
1187.122, 55004.00
1188.207, 54928.00
1189.292, 54860.00
1190.378, 54961.00
1191.463, 54702.00
1192.548, 54853.00
1193.632, 54823.00
1194.717, 54810.00
1195.801, 54745.00
1196.886, 55170.00
1197.970, 54886.00
1199.054, 55012.00
1200.137, 54796.00
1201.221, 54278.30
1202.305, 54485.38
1203.388, 54606.67
1204.471, 54646.79
1205.554, 54362.60
1206.637, 54497.18
1207.719, 54463.93
1208.802, 54423.80
1209.884, 54617.31
1210.966, 54380.28
1212.048, 54570.09
1213.130, 54589.51
1214.212, 54561.00
1215.293, 54541.00
1216.374, 54456.00
1217.456, 54604.00
1218.536, 54639.00
1219.617, 54815.00
1220.698, 54617.00
1221.778, 54857.00
1222.859, 54891.00
1223.939, 54729.00
1225.019, 54538.00
1226.099, 54617.00
1227.178, 54723.00
1228.258, 55046.00
1229.337, 54799.00
1230.417, 54848.00
1231.496, 54768.00
1232.574, 54621.00
1233.653, 54619.00
1234.732, 54593.47
1235.810, 54711.00
1236.888, 54622.00
1237.966, 54720.00
1239.044, 54711.09
1240.122, 54648.80
1241.199, 54740.00
1242.277, 54757.00
1243.354, 54748.03
1244.431, 54737.61
1245.508, 54702.00
1246.585, 54639.00
1247.661, 54503.00
1248.738, 54441.63
1249.814, 54747.00
1250.890, 54468.00
1251.966, 54767.00
1253.042, 54947.00
1254.117, 54839.00
1255.193, 54934.00
1256.268, 54762.00
1257.343, 54816.00
1258.418, 54888.00
1259.493, 55025.00
1260.567, 55000.00
1261.642, 55033.95
1262.716, 55049.49
1263.790, 54936.00
1264.864, 54972.00
1265.938, 54792.13
1267.011, 54622.34
1268.085, 54852.00
1269.158, 54613.00
1270.231, 54598.00
1271.304, 54893.00
1272.377, 54806.00
1273.450, 54810.00
1274.522, 54832.00
1275.594, 54935.00
1276.666, 55071.00
1277.738, 54546.00
1278.810, 54891.00
1279.882, 54635.00
1280.953, 54875.00
1282.025, 55514.00
1283.096, 55384.06
1284.167, 54718.00
1285.238, 55541.00
1286.308, 55132.00
1287.379, 54917.00
1288.449, 54929.00
1289.519, 55015.00
1290.589, 54795.00
1291.659, 54809.00
1292.729, 55087.00
1293.798, 54764.00
1294.868, 54851.00
1295.937, 54589.00
1297.006, 54395.00
1298.075, 54867.00
1299.143, 54727.00
1300.212, 54957.00
1301.280, 54785.00
1302.348, 55136.00
1303.416, 54741.00
1304.484, 54840.00
1305.552, 55135.00
1306.620, 55007.00
1307.687, 55025.00
1308.754, 55092.00
1309.821, 54976.00
1310.888, 55177.00
1311.955, 54916.00
1313.021, 55156.00
1314.088, 55096.00
1315.154, 54916.00
1316.220, 55123.00
1317.286, 55227.00
1318.352, 55190.00
1319.417, 55272.00
1320.483, 55327.06
1321.548, 55419.00
1322.613, 55354.00
1323.678, 55157.00
1324.743, 54933.00
1325.807, 55501.00
1326.872, 55239.00
1327.936, 55069.00
1329.000, 55199.00
1330.064, 54973.00
1331.128, 55012.00
1332.191, 55166.00
1333.255, 55337.00
1334.318, 55351.00
1335.381, 55422.95
1336.444, 55439.12
1337.507, 55350.00
1338.569, 55460.00
1339.632, 55246.00
1340.694, 55346.00
1341.756, 55566.00
1342.818, 55240.00
1343.880, 55445.29
1344.941, 55042.00
1346.003, 55448.00
1347.064, 55397.00
1348.125, 55219.00
1349.186, 55325.00
1350.247, 55287.75
1351.308, 55467.00
1352.368, 55418.00
1353.428, 55279.00
1354.489, 55422.00
1355.549, 54913.00
1356.608, 55125.00
1357.668, 55150.00
1358.727, 55458.00
1359.787, 55207.00
1360.846, 55314.43
1361.905, 55237.14
1362.964, 55385.00
1364.022, 55096.00
1365.081, 55391.00
1366.139, 55519.00
1367.197, 55338.00
1368.255, 55194.00
1369.313, 55255.00
1370.371, 55313.00
1371.428, 55294.01
1372.486, 55384.00
1373.543, 55371.00
1374.600, 55480.00
1375.657, 55526.00
1376.713, 55382.00
1377.770, 55430.00
1378.826, 55411.00
1379.882, 55470.00
1380.938, 55215.00
1381.994, 55185.00
1383.050, 55527.00
1384.106, 55277.00
1385.161, 55367.00
1386.216, 55620.00
1387.271, 55619.00
1388.326, 55715.00
1389.381, 55671.97
1390.435, 55650.00
1391.490, 55482.00
1392.544, 55586.00
1393.598, 55517.00
1394.652, 55399.00
1395.705, 55679.00
1396.759, 55530.00
1397.812, 55660.00
1398.866, 55390.00
1399.919, 55572.00
1400.972, 55752.00
1402.024, 55615.00
1403.077, 55713.21
1404.129, 55389.00
1405.181, 55716.00
1406.233, 55446.00
1407.285, 55562.00
1408.337, 55503.00
1409.389, 55820.00
1410.440, 55445.00
1411.491, 55689.00
1412.542, 55600.00
1413.593, 55546.00
1414.644, 55343.00
1415.695, 55545.00
1416.745, 55348.00
1417.795, 55536.00
1418.845, 55852.00
1419.895, 55408.00
1420.945, 55325.00
1421.995, 55828.00
1423.044, 55534.00
1424.093, 55466.00
1425.142, 55360.00
1426.191, 55462.00
1427.240, 55379.00
1428.289, 55284.00
1429.337, 55498.00
1430.385, 55566.00
1431.433, 55519.00
1432.481, 55333.00
1433.529, 55505.00
1434.577, 55347.00
1435.624, 55446.64
1436.672, 55534.00
1437.719, 55571.00
1438.766, 55661.00
1439.812, 55614.00
1440.859, 55438.00
1441.905, 55450.00
1442.952, 55623.00
1443.998, 55383.00
1445.044, 55545.00
1446.090, 55308.00
1447.135, 55632.00
1448.181, 55416.00
1449.226, 55436.00
1450.271, 55364.00
1451.316, 55674.00
1452.361, 55977.00
1453.405, 56461.00
1454.450, 55622.00
1455.494, 55451.00
1456.538, 55628.00
1457.582, 55510.00
1458.626, 55517.00
1459.670, 55324.00
1460.713, 55457.00
1461.757, 55642.00
1462.800, 55736.00
1463.843, 55596.00
1464.886, 55749.00
1465.928, 55535.00
1466.971, 55602.00
1468.013, 55547.00
1469.055, 55625.00
1470.097, 55639.12
1471.139, 55354.00
1472.181, 55670.00
1473.222, 55679.00
1474.263, 55624.00
1475.305, 55895.00
1476.346, 55603.00
1477.386, 55481.00
1478.427, 55443.00
1479.468, 55617.00
1480.508, 55665.00
1481.548, 55572.00
1482.588, 55856.00
1483.628, 55390.00
1484.668, 55693.00
1485.707, 55875.00
1486.747, 55556.00
1487.786, 55415.00
1488.825, 55698.00
1489.864, 55652.00
1490.902, 55632.00
1491.941, 55813.00
1492.979, 55632.00
1494.017, 55945.00
1495.055, 55606.00
1496.093, 55645.00
1497.131, 56334.00
1498.168, 56290.00
1499.206, 56046.00
1500.243, 55732.00
1501.280, 55508.00
1502.317, 55956.00
1503.354, 55687.00
1504.390, 55520.00
1505.426, 55931.00
1506.463, 55806.00
1507.499, 56104.00
1508.535, 55589.00
1509.570, 55644.00
1510.606, 55750.00
1511.641, 55882.00
1512.676, 55944.00
1513.711, 55858.00
1514.746, 55868.00
1515.781, 55887.31
1516.816, 55740.89
1517.850, 55952.27
1518.884, 56077.85
1519.918, 56122.26
1520.952, 55842.37
1521.986, 55981.25
1523.019, 55952.29
1524.053, 55916.46
1525.086, 56114.26
1526.119, 55881.52
1527.152, 56075.62
1528.185, 56099.33
1529.217, 56201.01
1530.250, 56133.84
1531.282, 56068.00
1532.314, 56305.00
1533.346, 55840.00
1534.377, 55700.00
1535.409, 55795.00
1536.440, 55788.00
1537.472, 55922.00
1538.503, 55859.00
1539.534, 55929.95
1540.564, 55823.00
1541.595, 55998.00
1542.625, 56096.00
1543.656, 55992.17
1544.686, 56169.97
1545.716, 56262.00
1546.745, 56272.86
1547.775, 55959.41
1548.804, 56064.74
1549.834, 56002.23
1550.863, 55932.86
1551.892, 56097.14
1552.920, 55830.89
1553.949, 55991.45
1554.977, 55981.66
1556.006, 56049.82
1557.034, 55949.14
1558.062, 55900.62
1559.089, 56021.03
1560.117, 56047.89
1561.144, 55927.79
1562.172, 56000.93
1563.199, 55728.80
1564.226, 55759.67
1565.252, 55944.00
1566.279, 56110.00
1567.305, 56310.00
1568.332, 55965.00
1569.358, 56176.00
1570.384, 56038.00
1571.409, 55924.00
1572.435, 56244.00
##END=



