##NAMES=Brazilianite
##RRUFFID=R050504
##IDEAL CHEMISTRY=NaAl_3_(PO_4_)_2_(OH)_4_
##LOCALITY=CÃ³rrego Frio, Minas Gerais, Brazil
##OWNER=RRUFF
##SOURCE=Marcus Origlieri
##DESCRIPTION=Yellowish green fragment
##STATUS=The identification of this mineral has been confirmed by X-ray diffraction and chemical analysis
##URL=rruff.info/R050504
##MEASURED CHEMISTRY=Na_1.00_Al_3.00_(P_1.00_O_4_)_2_(OH)_4_
##PIN_ID=L00583
##ORIENTATION=Laser parallel to b* (0 1 0). Fiducial mark perpendicular to laser is parallel to c [0 0 1]
77.42300, 2749.000
78.65900, 2935.000
79.89500, 3281.000
81.13100, 3661.000
82.36700, 4097.000
83.60200, 4448.000
84.83700, 4835.000
86.07200, 4978.000
87.30800, 5116.735
88.54200, 5163.142
89.77700, 5087.000
91.01200, 4960.000
92.24600, 4744.000
93.48000, 4402.000
94.71400, 4231.000
95.94800, 4113.000
97.18200, 4045.000
98.41600, 4041.000
99.64900, 4119.000
100.8830, 4183.000
102.1160, 4294.000
103.3490, 4377.000
104.5820, 4478.000
105.8150, 4492.000
107.0470, 4582.000
108.2800, 4652.481
109.5120, 4703.392
110.7440, 4823.000
111.9760, 4868.000
113.2080, 4987.000
114.4400, 4965.945
115.6710, 4922.668
116.9030, 4896.000
118.1340, 4686.000
119.3650, 4601.000
120.5960, 4366.000
121.8270, 4338.000
123.0580, 4395.000
124.2880, 4432.000
125.5190, 4445.751
126.7490, 4528.000
127.9790, 4511.000
129.2090, 4552.949
130.4390, 4562.562
131.6680, 4585.000
132.8980, 4592.000
134.1270, 4577.000
135.3560, 4646.000
136.5850, 4679.000
137.8140, 4760.000
139.0430, 4928.000
140.2710, 5129.000
141.5000, 5356.000
142.7280, 5470.000
143.9560, 5753.000
145.1840, 5781.000
146.4120, 5914.000
147.6390, 5927.000
148.8670, 5808.000
150.0940, 5778.000
151.3210, 5655.000
152.5490, 5658.000
153.7750, 5609.000
155.0020, 5433.000
156.2290, 5706.000
157.4550, 5909.000
158.6810, 6182.000
159.9080, 6790.000
161.1340, 7637.000
162.3590, 8807.000
163.5850, 10600.00
164.8110, 12000.00
166.0360, 13487.00
167.2610, 15833.00
168.4860, 19821.00
169.7110, 24378.00
170.9360, 27817.00
172.1610, 27692.00
173.3850, 25204.00
174.6100, 22082.00
175.8340, 18632.00
177.0580, 14810.00
178.2820, 11632.00
179.5050, 9614.000
180.7290, 8223.000
181.9520, 7471.000
183.1760, 6910.000
184.3990, 6542.000
185.6220, 6305.000
186.8450, 6260.000
188.0670, 6171.000
189.2900, 6088.000
190.5120, 6084.000
191.7340, 6065.000
192.9560, 6049.000
194.1780, 5985.000
195.4000, 6160.000
196.6220, 6069.000
197.8430, 6053.000
199.0640, 5995.000
200.2860, 6125.000
201.5070, 6171.000
202.7270, 6279.000
203.9480, 6339.000
205.1690, 6392.000
206.3890, 6419.000
207.6090, 6627.000
208.8290, 6817.000
210.0490, 6925.000
211.2690, 7033.000
212.4890, 7237.286
213.7080, 7404.481
214.9280, 7587.000
216.1470, 7780.000
217.3660, 7894.000
218.5850, 7977.000
219.8030, 7788.000
221.0220, 7668.000
222.2400, 7408.000
223.4590, 7223.000
224.6770, 6985.000
225.8950, 6953.000
227.1120, 6869.000
228.3300, 7160.000
229.5480, 7111.000
230.7650, 7071.000
231.9820, 6855.000
233.1990, 6623.000
234.4160, 6310.000
235.6330, 6296.000
236.8490, 6305.000
238.0660, 6335.000
239.2820, 6549.000
240.4980, 7136.000
241.7140, 7613.000
242.9300, 8426.000
244.1460, 9017.000
245.3610, 9713.000
246.5770, 10114.00
247.7920, 11064.00
249.0070, 12311.00
250.2220, 13674.00
251.4370, 14424.00
252.6510, 13963.00
253.8660, 12937.00
255.0800, 11468.00
256.2940, 9850.000
257.5080, 8350.000
258.7220, 7202.000
259.9360, 6509.000
261.1490, 5982.000
262.3630, 5778.000
263.5760, 5695.000
264.7890, 5654.000
266.0020, 5715.000
267.2150, 5859.000
268.4270, 5936.000
269.6400, 6160.000
270.8520, 6446.000
272.0640, 6593.000
273.2760, 6848.000
274.4880, 7067.000
275.7000, 7190.000
276.9120, 7076.000
278.1230, 6793.000
279.3340, 6739.000
280.5450, 6391.000
281.7560, 6187.000
282.9670, 6037.000
284.1780, 5781.000
285.3880, 5696.000
286.5980, 5505.000
287.8090, 5361.000
289.0190, 5327.000
290.2290, 5112.000
291.4380, 5048.000
292.6480, 5110.000
293.8570, 5105.000
295.0670, 5058.000
296.2760, 5073.000
297.4850, 5090.000
298.6930, 5076.000
299.9020, 5143.000
301.1110, 5218.000
302.3190, 5298.000
303.5270, 5471.000
304.7350, 5583.000
305.9430, 5822.000
307.1510, 6018.000
308.3580, 6359.000
309.5660, 6668.000
310.7730, 6902.000
311.9800, 7166.000
313.1870, 7308.000
314.3940, 7288.000
315.6010, 7117.000
316.8070, 6874.000
318.0130, 6707.000
319.2200, 6497.000
320.4260, 6401.000
321.6310, 6364.000
322.8370, 6257.000
324.0430, 6292.000
325.2480, 6268.000
326.4540, 6310.000
327.6590, 6305.000
328.8640, 6354.000
330.0680, 6427.000
331.2730, 6472.000
332.4780, 6450.000
333.6820, 6543.000
334.8860, 6589.000
336.0900, 6543.000
337.2940, 6540.000
338.4980, 6533.000
339.7010, 6519.000
340.9050, 6638.000
342.1080, 6634.000
343.3110, 6800.000
344.5140, 6898.000
345.7170, 6987.000
346.9200, 7124.000
348.1220, 7302.000
349.3240, 7440.000
350.5270, 7760.000
351.7290, 8045.000
352.9310, 8216.000
354.1320, 8515.000
355.3340, 8661.000
356.5350, 8952.000
357.7370, 8846.000
358.9380, 8692.000
360.1390, 8381.000
361.3400, 7942.000
362.5400, 7481.000
363.7410, 7210.000
364.9410, 6867.000
366.1410, 6634.000
367.3410, 6594.000
368.5410, 6525.000
369.7410, 6332.000
370.9400, 6194.000
372.1400, 6165.000
373.3390, 6136.000
374.5380, 6078.321
375.7370, 6132.000
376.9360, 6060.000
378.1350, 6064.000
379.3330, 6125.000
380.5310, 6204.000
381.7300, 6164.000
382.9280, 6209.000
384.1260, 6124.000
385.3230, 6213.000
386.5210, 6079.000
387.7180, 6174.000
388.9160, 6164.000
390.1130, 6113.000
391.3100, 6223.000
392.5060, 6263.000
393.7030, 6341.000
394.9000, 6416.000
396.0960, 6549.000
397.2920, 6578.000
398.4880, 6817.000
399.6840, 7097.000
400.8800, 7194.000
402.0750, 7432.000
403.2710, 7782.000
404.4660, 8076.000
405.6610, 8441.000
406.8560, 8743.000
408.0510, 9211.000
409.2450, 9600.000
410.4400, 9878.000
411.6340, 10101.16
412.8280, 10407.00
414.0220, 10254.00
415.2160, 10299.00
416.4100, 10118.00
417.6030, 9669.000
418.7970, 9625.000
419.9900, 9419.000
421.1830, 9443.000
422.3760, 9378.000
423.5690, 9448.000
424.7610, 9524.000
425.9540, 9726.000
427.1460, 10086.00
428.3380, 10358.00
429.5300, 11049.00
430.7220, 11599.00
431.9140, 12193.00
433.1050, 13296.00
434.2970, 14340.00
435.4880, 15513.00
436.6790, 16577.00
437.8700, 17407.00
439.0610, 17709.00
440.2510, 17272.00
441.4420, 16804.00
442.6320, 15755.00
443.8220, 14794.00
445.0120, 13772.00
446.2020, 13062.00
447.3910, 12564.00
448.5810, 12306.00
449.7700, 12143.00
450.9600, 12328.00
452.1490, 12526.00
453.3370, 13080.00
454.5260, 13616.00
455.7150, 14146.00
456.9030, 15040.00
458.0910, 15770.00
459.2800, 16415.00
460.4670, 17210.00
461.6550, 17840.00
462.8430, 18533.00
464.0300, 19107.00
465.2180, 19303.00
466.4050, 18889.00
467.5920, 18067.00
468.7790, 17218.00
469.9650, 15702.00
471.1520, 14254.00
472.3380, 12933.00
473.5250, 11551.00
474.7110, 10549.00
475.8970, 9781.000
477.0820, 9167.000
478.2680, 8820.000
479.4540, 8518.000
480.6390, 8320.000
481.8240, 8401.000
483.0090, 8303.000
484.1940, 8366.000
485.3780, 8427.000
486.5630, 8567.000
487.7470, 8681.000
488.9320, 9024.000
490.1160, 9370.000
491.3000, 9505.000
492.4830, 9960.000
493.6670, 10328.00
494.8500, 11025.00
496.0340, 11287.00
497.2170, 11660.00
498.4000, 12138.00
499.5820, 12559.00
500.7650, 12988.00
501.9480, 13091.00
503.1300, 13253.00
504.3120, 13263.00
505.4940, 13349.00
506.6760, 13346.00
507.8580, 13450.00
509.0390, 13513.00
510.2210, 13915.00
511.4020, 13946.00
512.5830, 14219.00
513.7640, 14467.00
514.9450, 14589.99
516.1250, 14763.00
517.3060, 14928.00
518.4860, 15062.00
519.6660, 15200.00
520.8460, 15411.00
522.0260, 15696.40
523.2060, 16016.63
524.3850, 16399.00
525.5650, 16859.00
526.7440, 17302.00
527.9230, 17879.00
529.1020, 18500.00
530.2810, 18810.00
531.4590, 19168.00
532.6380, 19515.00
533.8160, 19769.00
534.9940, 19526.00
536.1720, 19484.00
537.3500, 19316.00
538.5270, 18963.00
539.7050, 18624.00
540.8820, 18448.00
542.0590, 18164.00
543.2360, 18167.00
544.4130, 18224.00
545.5900, 18501.00
546.7660, 18818.00
547.9430, 19538.00
549.1190, 20183.00
550.2950, 21255.00
551.4710, 22520.00
552.6470, 24404.00
553.8220, 26065.00
554.9980, 28303.00
556.1730, 30159.00
557.3480, 31835.00
558.5230, 33515.00
559.6980, 34485.00
560.8730, 35107.00
562.0470, 35765.00
563.2220, 35756.00
564.3960, 35511.00
565.5700, 34134.00
566.7440, 32711.00
567.9170, 31018.00
569.0910, 28922.00
570.2640, 26604.00
571.4380, 24126.00
572.6110, 21745.00
573.7840, 19858.00
574.9570, 18200.00
576.1290, 16596.00
577.3020, 15466.00
578.4740, 14601.00
579.6460, 13891.00
580.8180, 13226.79
581.9900, 12917.00
583.1620, 12395.00
584.3330, 12308.00
585.5040, 12257.00
586.6760, 12189.00
587.8470, 12189.00
589.0180, 12271.00
590.1880, 12655.00
591.3590, 13039.00
592.5290, 13653.00
593.7000, 14382.00
594.8700, 15052.00
596.0400, 16069.00
597.2090, 16720.00
598.3790, 17765.00
599.5490, 18078.00
600.7180, 18277.00
601.8870, 17997.00
603.0560, 17774.00
604.2250, 17361.00
605.3940, 17152.00
606.5620, 17154.00
607.7300, 17334.00
608.8990, 17678.00
610.0670, 18109.00
611.2350, 18488.00
612.4020, 18554.00
613.5700, 18669.00
614.7370, 18568.00
615.9050, 17753.00
617.0720, 17158.00
618.2390, 15948.00
619.4060, 15055.00
620.5720, 14065.00
621.7390, 13302.00
622.9050, 13049.00
624.0710, 12941.00
625.2370, 12781.00
626.4030, 12837.00
627.5690, 12946.00
628.7340, 13393.00
629.9000, 13705.00
631.0650, 14096.00
632.2300, 14518.00
633.3950, 14642.00
634.5600, 14667.00
635.7240, 14577.00
636.8890, 13978.00
638.0530, 13450.00
639.2170, 12771.00
640.3810, 12008.00
641.5450, 11412.00
642.7080, 10909.00
643.8720, 10290.00
645.0350, 9880.433
646.1980, 9593.000
647.3610, 9174.000
648.5240, 8924.000
649.6870, 8826.000
650.8490, 8549.000
652.0120, 8440.000
653.1740, 8316.000
654.3360, 8173.000
655.4980, 8124.053
656.6600, 8109.000
657.8210, 8055.000
658.9830, 7991.000
660.1440, 8028.000
661.3050, 7917.000
662.4660, 7910.000
663.6270, 7814.000
664.7870, 7764.000
665.9480, 7774.000
667.1080, 7660.000
668.2680, 7577.000
669.4280, 7503.000
670.5880, 7452.000
671.7480, 7414.000
672.9070, 7274.000
674.0670, 7312.000
675.2260, 7199.000
676.3850, 7245.000
677.5440, 7231.000
678.7030, 7191.000
679.8610, 7097.000
681.0200, 7036.000
682.1780, 6959.000
683.3360, 6898.000
684.4940, 6860.884
685.6520, 6920.000
686.8090, 6826.000
687.9670, 6834.000
689.1240, 6880.000
690.2810, 6821.000
691.4380, 6818.000
692.5950, 6696.000
693.7520, 6706.000
694.9080, 6758.000
696.0650, 6679.000
697.2210, 6736.000
698.3770, 6693.000
699.5330, 6745.000
700.6880, 6780.000
701.8440, 6849.000
702.9990, 6823.000
704.1550, 7000.000
705.3100, 6951.000
706.4650, 7083.000
707.6190, 7124.000
708.7740, 7304.000
709.9290, 7363.000
711.0830, 7610.000
712.2370, 7703.000
713.3910, 7773.000
714.5450, 8009.000
715.6980, 8138.000
716.8520, 8251.000
718.0050, 8435.000
719.1580, 8637.000
720.3110, 8624.000
721.4640, 8734.000
722.6170, 8616.000
723.7700, 8699.000
724.9220, 8653.000
726.0740, 8489.000
727.2260, 8551.000
728.3780, 8281.000
729.5300, 8154.000
730.6810, 8190.000
731.8330, 8122.000
732.9840, 8140.000
734.1350, 8090.000
735.2860, 7994.000
736.4370, 7984.000
737.5880, 7884.000
738.7380, 7872.000
739.8880, 7911.000
741.0390, 7774.000
742.1890, 7722.000
743.3380, 7900.000
744.4880, 7752.000
745.6380, 7763.000
746.7870, 7680.000
747.9360, 7657.000
749.0850, 7613.000
750.2340, 7693.000
751.3830, 7685.000
752.5310, 7582.000
753.6800, 7504.000
754.8280, 7580.000
755.9760, 7555.000
757.1240, 7442.000
758.2720, 7365.000
759.4190, 7441.000
760.5670, 7402.000
761.7140, 7406.000
762.8610, 7423.000
764.0080, 7385.000
765.1550, 7363.000
766.3020, 7403.000
767.4480, 7438.000
768.5950, 7212.000
769.7410, 7302.000
770.8870, 7238.000
772.0330, 7184.000
773.1780, 7214.000
774.3240, 7283.000
775.4690, 7223.000
776.6140, 7199.000
777.7590, 7154.000
778.9040, 7123.833
780.0490, 7008.000
781.1940, 7066.000
782.3380, 6996.000
783.4820, 6954.000
784.6260, 7059.000
785.7700, 6997.000
786.9140, 6856.000
788.0580, 6958.000
789.2010, 6837.000
790.3450, 6963.000
791.4880, 6878.000
792.6310, 6884.000
793.7730, 6817.000
794.9160, 6805.151
796.0590, 6818.000
797.2010, 6819.000
798.3430, 6811.000
799.4850, 6894.000
800.6270, 6735.000
801.7690, 6811.000
802.9100, 6865.000
804.0520, 6623.000
805.1930, 6748.000
806.3340, 6691.000
807.4750, 6602.000
808.6160, 6669.000
809.7560, 6718.000
810.8970, 6644.000
812.0370, 6530.000
813.1770, 6617.000
814.3170, 6525.000
815.4570, 6542.000
816.5960, 6678.000
817.7360, 6580.000
818.8750, 6663.000
820.0140, 6584.000
821.1530, 6587.000
822.2920, 6645.000
823.4310, 6602.000
824.5690, 6606.000
825.7070, 6697.000
826.8460, 6732.000
827.9840, 6527.000
829.1220, 6588.000
830.2590, 6581.000
831.3970, 6496.000
832.5340, 6558.000
833.6710, 6592.000
834.8080, 6577.000
835.9450, 6597.418
837.0820, 6599.000
838.2190, 6595.000
839.3550, 6615.370
840.4910, 6577.000
841.6270, 6658.000
842.7630, 6638.000
843.8990, 6686.000
845.0350, 6695.000
846.1700, 6735.000
847.3060, 6666.000
848.4410, 6710.000
849.5760, 6753.000
850.7100, 6813.000
851.8450, 6746.000
852.9800, 6761.000
854.1140, 6854.000
855.2480, 6821.000
856.3820, 6908.000
857.5160, 6855.000
858.6500, 6800.000
859.7830, 6823.000
860.9170, 6827.273
862.0500, 6927.000
863.1830, 6912.000
864.3160, 6945.000
865.4480, 6997.000
866.5810, 6923.000
867.7130, 6963.000
868.8460, 6981.000
869.9780, 6978.000
871.1100, 7029.000
872.2410, 6993.000
873.3730, 7051.000
874.5050, 7213.000
875.6360, 7046.000
876.7670, 7152.000
877.8980, 7185.000
879.0290, 7082.000
880.1590, 7079.000
881.2900, 7178.000
882.4200, 7284.000
883.5500, 7233.000
884.6800, 7217.000
885.8100, 7263.000
886.9400, 7394.000
888.0690, 7358.000
889.1990, 7418.000
890.3280, 7453.802
891.4570, 7462.000
892.5860, 7479.000
893.7140, 7509.000
894.8430, 7470.000
895.9710, 7530.000
897.1000, 7505.000
898.2280, 7627.000
899.3560, 7602.000
900.4830, 7657.476
901.6110, 7743.000
902.7380, 7726.000
903.8660, 7678.000
904.9930, 7673.000
906.1200, 7706.142
907.2460, 7788.000
908.3730, 7814.000
909.5000, 7803.000
910.6260, 7873.000
911.7520, 7912.000
912.8780, 7971.000
914.0040, 8031.000
915.1290, 8028.000
916.2550, 8118.000
917.3800, 8146.000
918.5050, 8263.000
919.6300, 8356.000
920.7550, 8264.000
921.8800, 8347.000
923.0040, 8331.000
924.1290, 8369.000
925.2530, 8453.000
926.3770, 8556.000
927.5010, 8503.000
928.6250, 8497.000
929.7480, 8702.000
930.8720, 8685.000
931.9950, 8685.000
933.1180, 8987.000
934.2410, 9056.000
935.3640, 9178.000
936.4860, 9275.000
937.6090, 9355.000
938.7310, 9496.442
939.8530, 9618.000
940.9750, 9773.000
942.0970, 10021.00
943.2180, 10194.00
944.3400, 10330.00
945.4610, 10521.00
946.5820, 10870.00
947.7030, 11019.00
948.8240, 11350.00
949.9450, 11456.00
951.0650, 11611.00
952.1860, 11776.00
953.3060, 11935.00
954.4260, 12188.00
955.5460, 12523.00
956.6650, 12773.00
957.7850, 13087.00
958.9040, 13727.00
960.0230, 14204.00
961.1420, 14845.00
962.2610, 15694.00
963.3800, 16767.00
964.4990, 17968.00
965.6170, 19272.00
966.7350, 20995.00
967.8530, 22613.00
968.9710, 24344.00
970.0890, 25994.00
971.2070, 26863.00
972.3240, 27830.00
973.4410, 27592.00
974.5580, 27496.00
975.6750, 26763.00
976.7920, 25591.00
977.9090, 24502.00
979.0250, 23507.00
980.1410, 22793.00
981.2580, 22078.00
982.3740, 21621.00
983.4890, 21415.00
984.6050, 21616.00
985.7200, 21887.00
986.8360, 21908.00
987.9510, 21723.00
989.0660, 21434.00
990.1810, 20902.00
991.2950, 20077.00
992.4100, 19349.00
993.5240, 18575.00
994.6390, 17975.00
995.7530, 17691.00
996.8660, 17431.00
997.9800, 17314.00
999.0940, 17443.00
1000.207, 17822.00
1001.320, 18280.00
1002.433, 18706.00
1003.546, 19777.00
1004.659, 20919.00
1005.772, 22187.00
1006.884, 24048.00
1007.996, 26266.00
1009.108, 29020.00
1010.220, 32311.00
1011.332, 36300.00
1012.444, 40706.00
1013.555, 45505.00
1014.666, 50684.00
1015.777, 55210.00
1016.888, 58705.00
1017.999, 61537.00
1019.110, 62957.00
1020.220, 62982.00
1021.331, 61861.00
1022.441, 59851.00
1023.551, 56916.00
1024.661, 53698.00
1025.770, 51257.00
1026.880, 47970.00
1027.989, 45531.00
1029.098, 43248.00
1030.207, 41504.00
1031.316, 39959.00
1032.425, 38395.00
1033.533, 37631.00
1034.642, 36526.00
1035.750, 35617.00
1036.858, 34979.00
1037.966, 34421.00
1039.073, 33677.00
1040.181, 32953.00
1041.288, 31906.00
1042.396, 30849.00
1043.503, 29650.00
1044.610, 28137.00
1045.716, 26565.00
1046.823, 25382.00
1047.929, 23767.00
1049.036, 22432.00
1050.142, 21467.00
1051.248, 20368.00
1052.353, 19137.00
1053.459, 18203.00
1054.564, 17584.00
1055.670, 16938.00
1056.775, 16402.00
1057.880, 16036.88
1058.985, 15841.00
1060.089, 15521.00
1061.194, 15472.00
1062.298, 15406.00
1063.402, 15602.00
1064.506, 15652.00
1065.610, 15739.00
1066.713, 16113.00
1067.817, 16160.00
1068.920, 16141.00
1070.023, 16214.00
1071.126, 15858.00
1072.229, 15311.00
1073.332, 14781.00
1074.435, 14323.00
1075.537, 13944.00
1076.639, 13355.00
1077.741, 12889.00
1078.843, 12576.00
1079.945, 12302.00
1081.046, 11967.00
1082.148, 11754.00
1083.249, 11635.00
1084.350, 11366.00
1085.451, 11256.00
1086.551, 10925.00
1087.652, 10664.00
1088.752, 10552.00
1089.853, 10390.00
1090.953, 10300.00
1092.053, 10211.00
1093.152, 10055.00
1094.252, 10006.00
1095.351, 10021.00
1096.451, 10021.00
1097.550, 9757.000
1098.649, 9683.000
1099.748, 9786.000
1100.846, 9672.000
1101.945, 9808.000
1103.043, 9911.000
1104.141, 9890.000
1105.239, 10228.00
1106.337, 10251.00
1107.434, 10434.00
1108.532, 10762.00
1109.629, 11210.00
1110.726, 11713.00
1111.823, 12276.00
1112.920, 12907.00
1114.017, 13181.00
1115.113, 13773.00
1116.210, 13936.00
1117.306, 13694.00
1118.402, 13620.00
1119.498, 13054.00
1120.593, 12445.00
1121.689, 11935.00
1122.784, 11542.00
1123.879, 11132.00
1124.974, 10919.00
1126.069, 10580.00
1127.164, 10368.00
1128.259, 10138.00
1129.353, 9808.000
1130.447, 9673.000
1131.541, 9471.000
1132.635, 9373.000
1133.729, 9249.000
1134.822, 9142.000
1135.916, 8977.000
1137.009, 9037.000
1138.102, 8919.000
1139.195, 9010.000
1140.288, 8947.000
1141.380, 8865.000
1142.473, 8776.000
1143.565, 8788.000
1144.657, 8774.000
1145.749, 8753.592
1146.841, 8875.000
1147.932, 8804.000
1149.024, 8731.000
1150.115, 8860.000
1151.206, 8755.000
1152.297, 8739.000
1153.388, 8754.000
1154.479, 8820.000
1155.569, 8684.000
1156.659, 8600.000
1157.750, 8729.000
1158.839, 8666.000
1159.929, 8652.000
1161.019, 8716.000
1162.108, 8602.000
1163.198, 8621.000
1164.287, 8569.000
1165.376, 8640.000
1166.465, 8505.000
1167.553, 8465.000
1168.642, 8355.000
1169.730, 8321.700
1170.818, 8232.000
1171.906, 8304.000
1172.994, 8271.000
1174.082, 8338.000
1175.170, 8308.000
1176.257, 8237.000
1177.344, 8231.000
1178.431, 8217.000
1179.518, 8210.000
1180.605, 8188.995
1181.691, 8129.000
1182.778, 8131.000
1183.864, 8063.000
1184.950, 8000.000
1186.036, 7990.000
1187.122, 8025.000
1188.207, 7965.476
1189.292, 7855.000
1190.378, 7907.000
1191.463, 7931.000
1192.548, 7916.000
1193.632, 8032.000
1194.717, 7809.000
1195.801, 7830.000
1196.886, 7811.000
1197.970, 7865.000
1199.054, 7879.000
1200.137, 7791.000
1201.221, 7795.000
1202.305, 7777.000
1203.388, 7802.000
1204.471, 7841.000
1205.554, 7737.000
1206.637, 7734.000
1207.719, 7848.000
1208.802, 7726.000
1209.884, 7803.000
1210.966, 7791.000
1212.048, 7885.000
1213.130, 7782.000
1214.212, 7800.511
1215.293, 7766.000
1216.374, 7764.000
1217.456, 7699.000
1218.536, 7722.000
1219.617, 7777.000
1220.698, 7713.000
1221.778, 7720.000
1222.859, 7796.000
1223.939, 7860.000
1225.019, 7736.000
1226.099, 7744.000
1227.178, 7729.000
1228.258, 7798.000
1229.337, 7675.000
1230.417, 7776.000
1231.496, 7827.000
1232.574, 7678.000
1233.653, 7793.000
1234.732, 7834.000
1235.810, 7870.000
1236.888, 7899.298
1237.966, 7828.000
1239.044, 7869.000
1240.122, 7842.000
1241.199, 7847.242
1242.277, 7809.000
1243.354, 7882.000
1244.431, 7906.000
1245.508, 7943.101
1246.585, 7963.209
1247.661, 7960.000
1248.738, 7955.000
1249.814, 7910.000
1250.890, 7924.470
1251.966, 7926.942
1253.042, 7935.000
1254.117, 7962.000
1255.193, 7985.367
1256.268, 8005.000
1257.343, 8047.000
1258.418, 8063.000
1259.493, 8141.000
1260.567, 8038.000
1261.642, 8071.000
1262.716, 8018.000
1263.790, 8055.000
1264.864, 8117.000
1265.938, 8130.000
1267.011, 8156.171
1268.085, 8251.000
1269.158, 8145.000
1270.231, 8195.000
1271.304, 8118.000
1272.377, 8108.000
1273.450, 8218.000
1274.522, 8250.000
1275.594, 8263.000
1276.666, 8132.000
1277.738, 8259.000
1278.810, 8356.000
1279.882, 8225.000
1280.953, 8301.000
1282.025, 8412.000
1283.096, 8280.000
1284.167, 8295.000
1285.238, 8295.000
1286.308, 8320.000
1287.379, 8402.000
1288.449, 8382.000
1289.519, 8368.000
1290.589, 8292.000
1291.659, 8433.000
1292.729, 8477.000
1293.798, 8459.000
1294.868, 8517.000
1295.937, 8433.000
1297.006, 8525.000
1298.075, 8510.000
1299.143, 8465.000
1300.212, 8421.000
1301.280, 8529.000
1302.348, 8527.000
1303.416, 8529.000
1304.484, 8466.000
1305.552, 8494.000
1306.620, 8545.000
1307.687, 8561.000
1308.754, 8550.000
1309.821, 8545.000
1310.888, 8655.000
1311.955, 8589.000
1313.021, 8525.000
1314.088, 8573.000
1315.154, 8453.000
1316.220, 8577.000
1317.286, 8544.000
1318.352, 8567.000
1319.417, 8472.000
1320.483, 8574.000
1321.548, 8464.000
1322.613, 8518.000
1323.678, 8514.000
1324.743, 8488.000
1325.807, 8547.000
1326.872, 8445.000
1327.936, 8494.000
1329.000, 8468.000
1330.064, 8439.000
1331.128, 8376.000
1332.191, 8388.000
1333.255, 8381.670
1334.318, 8397.000
1335.381, 8423.000
1336.444, 8414.000
1337.507, 8447.000
1338.569, 8357.000
1339.632, 8447.000
1340.694, 8312.000
1341.756, 8341.000
1342.818, 8221.000
1343.880, 8325.000
1344.941, 8365.000
1346.003, 8309.000
1347.064, 8310.000
1348.125, 8353.000
1349.186, 8214.000
1350.247, 8262.000
1351.308, 8274.000
1352.368, 8227.000
1353.428, 8164.000
1354.489, 8222.000
1355.549, 8240.000
1356.608, 8097.000
1357.668, 8153.000
1358.727, 8174.000
1359.787, 8177.000
1360.846, 8152.000
1361.905, 8165.000
1362.964, 8135.658
1364.022, 8141.000
1365.081, 8086.000
1366.139, 8062.000
1367.197, 8038.684
1368.255, 8107.000
1369.313, 8029.000
1370.371, 8037.000
1371.428, 8023.000
1372.486, 7998.000
1373.543, 8003.750
1374.600, 7939.000
1375.657, 8002.000
1376.713, 8036.000
1377.770, 8048.000
1378.826, 7997.000
1379.882, 8042.000
1380.938, 8068.000
1381.994, 7960.000
1383.050, 7997.000
1384.106, 7856.000
1385.161, 8032.000
1386.216, 7879.000
1387.271, 8000.000
1388.326, 8083.000
1389.381, 7872.000
1390.435, 8002.000
1391.490, 7989.000
1392.544, 7977.000
1393.598, 7917.000
1394.652, 7985.000
1395.705, 7951.000
1396.759, 7892.000
1397.812, 7940.000
1398.866, 8019.000
1399.919, 7980.000
1400.972, 7986.000
1402.024, 7932.000
1403.077, 7942.260
1404.129, 8098.000
1405.181, 7963.000
1406.233, 7986.000
1407.285, 8027.000
1408.337, 7793.000
1409.389, 8001.000
1410.440, 8013.000
1411.491, 8159.000
1412.542, 8065.000
1413.593, 8107.000
1414.644, 8066.000
1415.695, 8059.000
1416.745, 8173.000
1417.795, 8046.000
1418.845, 8215.000
1419.895, 8050.000
1420.945, 8089.000
1421.995, 8208.000
1423.044, 8207.000
1424.093, 8100.000
1425.142, 8150.000
1426.191, 8178.000
1427.240, 8210.000
1428.289, 8224.856
1429.337, 8312.000
1430.385, 8247.000
1431.433, 8242.000
1432.481, 8268.000
1433.529, 8373.000
1434.577, 8265.000
1435.624, 8328.000
1436.672, 8285.000
1437.719, 8360.000
1438.766, 8309.000
1439.812, 8393.000
1440.859, 8371.000
1441.905, 8305.000
1442.952, 8453.000
1443.998, 8432.000
1445.044, 8535.000
1446.090, 8439.000
1447.135, 8486.000
1448.181, 8478.000
1449.226, 8511.000
1450.271, 8506.000
1451.316, 8516.771
1452.361, 8569.000
1453.405, 8551.000
1454.450, 8594.000
1455.494, 8655.000
1456.538, 8597.000
1457.582, 8637.000
1458.626, 8670.000
1459.670, 8625.000
1460.713, 8632.000
1461.757, 8657.000
1462.800, 8704.000
1463.843, 8707.190
1464.886, 8755.000
1465.928, 8706.000
1466.971, 8751.000
1468.013, 8688.000
1469.055, 8754.000
1470.097, 8777.000
1471.139, 8747.000
1472.181, 8768.000
1473.222, 8752.000
1474.263, 8830.000
1475.305, 8817.000
1476.346, 8772.000
1477.386, 8848.000
1478.427, 8778.000
1479.468, 8792.000
1480.508, 8860.000
1481.548, 8873.000
1482.588, 8861.000
1483.628, 8844.000
1484.668, 8850.000
1485.707, 8792.000
1486.747, 8807.000
1487.786, 8881.000
1488.825, 8741.000
1489.864, 8883.000
1490.902, 8859.000
1491.941, 8920.000
1492.979, 8891.000
1494.017, 8802.000
1495.055, 8845.000
1496.093, 8961.000
1497.131, 8862.000
1498.168, 8898.000
1499.206, 8857.000
1500.243, 8865.000
1501.280, 8871.000
1502.317, 9035.000
1503.354, 8769.000
1504.390, 8910.000
1505.426, 8999.000
1506.463, 8868.000
1507.499, 8953.000
1508.535, 8879.000
1509.570, 8875.000
1510.606, 8922.000
1511.641, 8973.000
1512.676, 8974.000
1513.711, 8998.000
1514.746, 9002.202
1515.781, 8875.000
1516.816, 8948.000
1517.850, 8968.000
1518.884, 8842.000
1519.918, 8851.000
1520.952, 8883.000
1521.986, 8756.000
1523.019, 8948.000
1524.053, 8829.000
1525.086, 8796.000
1526.119, 8826.000
1527.152, 8860.000
1528.185, 8882.000
1529.217, 8775.000
1530.250, 9000.000
1531.282, 8739.000
1532.314, 8727.000
1533.346, 8852.000
1534.377, 8887.000
1535.409, 8763.000
1536.440, 8867.000
1537.472, 8799.000
1538.503, 8773.000
1539.534, 8816.000
1540.564, 8807.000
1541.595, 8791.292
1542.625, 8833.000
1543.656, 8747.000
1544.686, 8704.000
1545.716, 8668.000
1546.745, 8701.000
1547.775, 8774.000
1548.804, 8779.000
1549.834, 8720.000
1550.863, 8706.000
1551.892, 8648.000
1552.920, 8714.000
1553.949, 8671.000
1554.977, 8781.000
1556.006, 8670.000
1557.034, 8658.000
1558.062, 8699.000
1559.089, 8627.000
1560.117, 8645.000
1561.144, 8679.000
1562.172, 8723.000
1563.199, 8656.000
1564.226, 8490.000
1565.252, 8670.000
1566.279, 8797.000
1567.305, 8584.000
1568.332, 8621.000
1569.358, 8540.000
1570.384, 8713.000
##END=



