##NAMES=Brazilianite
##RRUFFID=R050504
##IDEAL CHEMISTRY=NaAl_3_(PO_4_)_2_(OH)_4_
##LOCALITY=CÃ³rrego Frio, Minas Gerais, Brazil
##OWNER=RRUFF
##SOURCE=Marcus Origlieri
##DESCRIPTION=Yellowish green fragment
##STATUS=The identification of this mineral has been confirmed by X-ray diffraction and chemical analysis
##URL=rruff.info/R050504
##MEASURED CHEMISTRY=Na_1.00_Al_3.00_(P_1.00_O_4_)_2_(OH)_4_
##PIN_ID=L00567
##ORIENTATION=Laser parallel to (1 0 1). Fiducial mark perpendicular to laser is parallel to b [0 1 0]
83.60200, 7699.000
84.83700, 8201.000
86.07200, 8528.000
87.30800, 8904.000
88.54200, 9097.000
89.77700, 9086.000
91.01200, 9145.000
92.24600, 9071.000
93.48000, 9194.547
94.71400, 9292.043
95.94800, 9408.000
97.18200, 9626.000
98.41600, 9746.000
99.64900, 9992.000
100.8830, 10783.00
102.1160, 11218.00
103.3490, 11413.00
104.5820, 11579.00
105.8150, 11582.00
107.0470, 11543.00
108.2800, 11134.00
109.5120, 10611.00
110.7440, 9894.000
111.9760, 9576.000
113.2080, 9482.000
114.4400, 9458.000
115.6710, 9510.000
116.9030, 9250.000
118.1340, 9060.000
119.3650, 8797.000
120.5960, 8603.000
121.8270, 8423.000
123.0580, 8330.938
124.2880, 8277.210
125.5190, 8255.000
126.7490, 8302.000
127.9790, 8328.000
129.2090, 8398.000
130.4390, 8438.000
131.6680, 8412.000
132.8980, 8500.000
134.1270, 8713.000
135.3560, 8806.000
136.5850, 9060.000
137.8140, 9278.000
139.0430, 9411.000
140.2710, 9621.000
141.5000, 9778.000
142.7280, 10015.00
143.9560, 10092.00
145.1840, 10284.00
146.4120, 10306.00
147.6390, 10223.00
148.8670, 10288.00
150.0940, 10161.00
151.3210, 10095.00
152.5490, 10134.00
153.7750, 10126.00
155.0020, 10397.00
156.2290, 10635.00
157.4550, 11139.00
158.6810, 11621.00
159.9080, 12476.00
161.1340, 13560.00
162.3590, 14834.00
163.5850, 16523.00
164.8110, 17583.00
166.0360, 18408.00
167.2610, 19132.00
168.4860, 20038.00
169.7110, 21126.00
170.9360, 21057.00
172.1610, 20548.00
173.3850, 19945.00
174.6100, 18776.00
175.8340, 17337.00
177.0580, 15059.00
178.2820, 13516.00
179.5050, 12009.00
180.7290, 11449.00
181.9520, 10966.00
183.1760, 10660.00
184.3990, 10568.00
185.6220, 10610.00
186.8450, 10460.00
188.0670, 10526.00
189.2900, 10328.00
190.5120, 10585.00
191.7340, 10598.00
192.9560, 10706.00
194.1780, 10831.00
195.4000, 10942.92
196.6220, 11094.00
197.8430, 11261.00
199.0640, 11351.00
200.2860, 11542.00
201.5070, 11646.00
202.7270, 11854.00
203.9480, 11899.00
205.1690, 11776.00
206.3890, 11713.00
207.6090, 11791.00
208.8290, 11970.00
210.0490, 12015.00
211.2690, 12188.00
212.4890, 12138.00
213.7080, 12235.83
214.9280, 12076.00
216.1470, 12282.00
217.3660, 12314.00
218.5850, 12227.00
219.8030, 12454.00
221.0220, 12437.00
222.2400, 12471.00
223.4590, 12478.00
224.6770, 12428.00
225.8950, 12483.00
227.1120, 12297.00
228.3300, 12518.00
229.5480, 12353.00
230.7650, 12321.00
231.9820, 12410.00
233.1990, 12039.00
234.4160, 11863.00
235.6330, 11843.00
236.8490, 11502.00
238.0660, 11496.00
239.2820, 11317.00
240.4980, 11328.00
241.7140, 11269.00
242.9300, 11483.00
244.1460, 11638.00
245.3610, 11734.00
246.5770, 11494.00
247.7920, 11537.00
249.0070, 11689.00
250.2220, 11635.00
251.4370, 11679.00
252.6510, 11633.00
253.8660, 11545.00
255.0800, 11428.00
256.2940, 11069.00
257.5080, 10826.00
258.7220, 10846.00
259.9360, 10827.00
261.1490, 10677.00
262.3630, 10665.00
263.5760, 10820.00
264.7890, 11085.00
266.0020, 11199.00
267.2150, 11361.00
268.4270, 12026.00
269.6400, 12337.00
270.8520, 12629.00
272.0640, 12861.00
273.2760, 13187.00
274.4880, 13570.00
275.7000, 13808.00
276.9120, 14055.00
278.1230, 14015.00
279.3340, 13693.00
280.5450, 13339.00
281.7560, 12859.00
282.9670, 12400.00
284.1780, 11918.00
285.3880, 11755.00
286.5980, 11566.00
287.8090, 11630.00
289.0190, 11803.00
290.2290, 11776.00
291.4380, 11955.00
292.6480, 11828.00
293.8570, 11994.00
295.0670, 11928.00
296.2760, 12084.00
297.4850, 11974.00
298.6930, 12002.00
299.9020, 11707.00
301.1110, 11654.00
302.3190, 11921.00
303.5270, 11657.00
304.7350, 12002.00
305.9430, 12107.00
307.1510, 12122.00
308.3580, 12339.00
309.5660, 12440.00
310.7730, 12835.00
311.9800, 13054.00
313.1870, 13056.00
314.3940, 13058.00
315.6010, 13004.77
316.8070, 12819.00
318.0130, 12679.00
319.2200, 12473.00
320.4260, 12174.00
321.6310, 11962.00
322.8370, 11762.00
324.0430, 11678.00
325.2480, 11531.00
326.4540, 11549.00
327.6590, 11339.00
328.8640, 11398.00
330.0680, 11252.00
331.2730, 11162.00
332.4780, 11227.00
333.6820, 11062.00
334.8860, 11192.00
336.0900, 11178.00
337.2940, 11190.00
338.4980, 11317.00
339.7010, 11260.00
340.9050, 11239.00
342.1080, 11345.00
343.3110, 11376.00
344.5140, 11495.00
345.7170, 11549.00
346.9200, 11855.00
348.1220, 12068.00
349.3240, 12468.00
350.5270, 12663.00
351.7290, 13003.00
352.9310, 13184.00
354.1320, 13342.00
355.3340, 13408.00
356.5350, 13562.00
357.7370, 13626.00
358.9380, 13640.00
360.1390, 13432.00
361.3400, 12972.00
362.5400, 13015.00
363.7410, 12715.00
364.9410, 12652.00
366.1410, 12512.00
367.3410, 12467.00
368.5410, 12472.00
369.7410, 12422.00
370.9400, 12526.00
372.1400, 12369.00
373.3390, 12409.00
374.5380, 12440.00
375.7370, 12269.00
376.9360, 12337.00
378.1350, 12237.00
379.3330, 12105.00
380.5310, 11889.00
381.7300, 11856.00
382.9280, 11768.00
384.1260, 11759.00
385.3230, 11703.00
386.5210, 11711.00
387.7180, 11730.00
388.9160, 11757.35
390.1130, 11848.62
391.3100, 11904.00
392.5060, 12079.00
393.7030, 12240.00
394.9000, 12394.00
396.0960, 12555.45
397.2920, 12765.00
398.4880, 12894.00
399.6840, 13006.00
400.8800, 13236.00
402.0750, 13504.00
403.2710, 13698.00
404.4660, 13974.00
405.6610, 13998.00
406.8560, 14221.00
408.0510, 14295.00
409.2450, 14402.00
410.4400, 14491.85
411.6340, 14541.00
412.8280, 14548.00
414.0220, 14504.00
415.2160, 14411.00
416.4100, 14363.00
417.6030, 14131.00
418.7970, 14046.00
419.9900, 13999.00
421.1830, 13655.00
422.3760, 13773.00
423.5690, 13693.00
424.7610, 13784.00
425.9540, 13763.00
427.1460, 13768.00
428.3380, 13828.00
429.5300, 13997.00
430.7220, 14075.00
431.9140, 14255.00
433.1050, 14508.00
434.2970, 14401.00
435.4880, 14936.00
436.6790, 14720.00
437.8700, 14878.00
439.0610, 15035.00
440.2510, 14882.00
441.4420, 14802.00
442.6320, 14685.00
443.8220, 14569.00
445.0120, 14444.00
446.2020, 14319.00
447.3910, 14213.00
448.5810, 14331.00
449.7700, 14300.00
450.9600, 14420.00
452.1490, 14430.00
453.3370, 14405.00
454.5260, 14547.00
455.7150, 14604.00
456.9030, 14823.00
458.0910, 14867.00
459.2800, 14904.00
460.4670, 15002.00
461.6550, 15006.07
462.8430, 14945.00
464.0300, 15028.00
465.2180, 15041.00
466.4050, 15012.00
467.5920, 14820.00
468.7790, 14882.00
469.9650, 14881.00
471.1520, 14970.00
472.3380, 15226.00
473.5250, 15350.00
474.7110, 15564.00
475.8970, 15981.00
477.0820, 16198.00
478.2680, 16641.00
479.4540, 16881.00
480.6390, 17447.00
481.8240, 17621.00
483.0090, 18089.00
484.1940, 18553.00
485.3780, 18685.00
486.5630, 19117.00
487.7470, 19476.00
488.9320, 19813.00
490.1160, 20494.00
491.3000, 21027.00
492.4830, 21650.00
493.6670, 22413.00
494.8500, 23169.00
496.0340, 23803.00
497.2170, 24601.00
498.4000, 25384.00
499.5820, 25684.57
500.7650, 26070.00
501.9480, 26302.00
503.1300, 26579.00
504.3120, 26739.70
505.4940, 26862.92
506.6760, 26912.00
507.8580, 26992.00
509.0390, 26942.00
510.2210, 26948.00
511.4020, 26887.00
512.5830, 26923.00
513.7640, 26498.00
514.9450, 26208.00
516.1250, 26128.00
517.3060, 25967.00
518.4860, 25764.00
519.6660, 25763.00
520.8460, 25861.00
522.0260, 25832.00
523.2060, 26104.00
524.3850, 26576.00
525.5650, 27157.00
526.7440, 27596.00
527.9230, 27682.00
529.1020, 28196.00
530.2810, 28205.00
531.4590, 28517.00
532.6380, 28350.00
533.8160, 28148.00
534.9940, 27741.00
536.1720, 27221.00
537.3500, 26465.00
538.5270, 25872.00
539.7050, 25422.00
540.8820, 24671.00
542.0590, 24214.00
543.2360, 24170.00
544.4130, 23859.00
545.5900, 24177.00
546.7660, 24550.00
547.9430, 25225.00
549.1190, 26460.00
550.2950, 27437.00
551.4710, 28695.00
552.6470, 30108.00
553.8220, 31479.00
554.9980, 32810.00
556.1730, 33909.00
557.3480, 34607.00
558.5230, 35267.00
559.6980, 35713.00
560.8730, 35381.00
562.0470, 35087.00
563.2220, 34515.00
564.3960, 33846.00
565.5700, 32764.00
566.7440, 31875.00
567.9170, 30818.00
569.0910, 29272.00
570.2640, 27891.00
571.4380, 26404.00
572.6110, 24963.00
573.7840, 24035.00
574.9570, 23052.00
576.1290, 22170.00
577.3020, 21594.00
578.4740, 21150.00
579.6460, 20956.00
580.8180, 21017.00
581.9900, 20930.00
583.1620, 20893.00
584.3330, 21015.00
585.5040, 21553.00
586.6760, 21970.00
587.8470, 22953.00
589.0180, 23953.00
590.1880, 25320.00
591.3590, 26597.00
592.5290, 28566.00
593.7000, 30347.00
594.8700, 32262.00
596.0400, 33717.00
597.2090, 34791.00
598.3790, 35300.61
599.5490, 35250.02
600.7180, 34917.00
601.8870, 33696.00
603.0560, 32162.00
604.2250, 30237.00
605.3940, 28664.00
606.5620, 27130.00
607.7300, 26044.00
608.8990, 25447.00
610.0670, 24589.00
611.2350, 24143.00
612.4020, 23777.00
613.5700, 23463.00
614.7370, 22954.00
615.9050, 22556.00
617.0720, 22081.00
618.2390, 21436.00
619.4060, 20756.00
620.5720, 20432.00
621.7390, 20107.00
622.9050, 19853.00
624.0710, 19730.70
625.2370, 19531.00
626.4030, 19649.00
627.5690, 19804.00
628.7340, 19910.00
629.9000, 20108.00
631.0650, 20136.00
632.2300, 20298.00
633.3950, 20342.00
634.5600, 20011.00
635.7240, 20115.00
636.8890, 19463.00
638.0530, 19035.00
639.2170, 18708.00
640.3810, 18194.00
641.5450, 17861.00
642.7080, 17477.00
643.8720, 17271.00
645.0350, 16933.00
646.1980, 16712.00
647.3610, 16648.00
648.5240, 16607.00
649.6870, 16428.00
650.8490, 16378.00
652.0120, 16468.00
653.1740, 16389.00
654.3360, 16361.00
655.4980, 16471.00
656.6600, 16479.00
657.8210, 16390.57
658.9830, 16349.00
660.1440, 16160.00
661.3050, 15985.00
662.4660, 15821.00
663.6270, 15772.00
664.7870, 15434.00
665.9480, 15486.00
667.1080, 15356.00
668.2680, 15117.00
669.4280, 15008.00
670.5880, 15066.00
671.7480, 14846.00
672.9070, 14651.00
674.0670, 14860.00
675.2260, 14775.00
676.3850, 14788.00
677.5440, 14600.00
678.7030, 14733.00
679.8610, 14688.00
681.0200, 14635.00
682.1780, 14421.00
683.3360, 14467.00
684.4940, 14414.00
685.6520, 14445.00
686.8090, 14281.00
687.9670, 14219.00
689.1240, 14363.00
690.2810, 14449.00
691.4380, 14155.00
692.5950, 14241.00
693.7520, 14198.00
694.9080, 14200.00
696.0650, 14297.00
697.2210, 14126.00
698.3770, 14263.00
699.5330, 14157.00
700.6880, 14264.00
701.8440, 14309.00
702.9990, 14300.00
704.1550, 14420.00
705.3100, 14361.00
706.4650, 14345.00
707.6190, 14455.00
708.7740, 14349.00
709.9290, 14341.00
711.0830, 14402.00
712.2370, 14612.00
713.3910, 14552.00
714.5450, 14684.00
715.6980, 14624.00
716.8520, 14623.00
718.0050, 14811.00
719.1580, 14617.00
720.3110, 14849.00
721.4640, 14737.00
722.6170, 14534.00
723.7700, 14725.00
724.9220, 14690.00
726.0740, 14500.00
727.2260, 14598.00
728.3780, 14775.00
729.5300, 14693.00
730.6810, 14688.00
731.8330, 14717.00
732.9840, 14715.00
734.1350, 14647.00
735.2860, 14636.00
736.4370, 14716.00
737.5880, 14682.00
738.7380, 14730.00
739.8880, 14817.00
741.0390, 14807.00
742.1890, 14869.00
743.3380, 14853.00
744.4880, 14887.00
745.6380, 14914.00
746.7870, 15079.00
747.9360, 14828.00
749.0850, 15099.00
750.2340, 15046.00
751.3830, 15044.00
752.5310, 15233.00
753.6800, 15291.00
754.8280, 15407.00
755.9760, 15286.00
757.1240, 15555.00
758.2720, 15554.00
759.4190, 15582.00
760.5670, 15782.00
761.7140, 15706.00
762.8610, 15649.00
764.0080, 15728.00
765.1550, 15825.00
766.3020, 15746.00
767.4480, 15823.00
768.5950, 15830.00
769.7410, 15809.00
770.8870, 15833.00
772.0330, 15818.00
773.1780, 15787.00
774.3240, 15825.00
775.4690, 15780.00
776.6140, 15550.00
777.7590, 15696.00
778.9040, 15507.00
780.0490, 15604.00
781.1940, 15652.00
782.3380, 15670.00
783.4820, 15647.00
784.6260, 15642.00
785.7700, 15824.00
786.9140, 16041.00
788.0580, 15932.00
789.2010, 16304.00
790.3450, 16141.00
791.4880, 16163.00
792.6310, 16263.00
793.7730, 16490.00
794.9160, 16499.00
796.0590, 16471.00
797.2010, 16796.00
798.3430, 16667.00
799.4850, 16773.00
800.6270, 16710.00
801.7690, 16648.00
802.9100, 16708.00
804.0520, 16769.00
805.1930, 16592.00
806.3340, 16572.00
807.4750, 16661.00
808.6160, 16537.95
809.7560, 16420.00
810.8970, 16422.00
812.0370, 16335.00
813.1770, 16211.00
814.3170, 16186.13
815.4570, 16181.00
816.5960, 16048.00
817.7360, 15862.00
818.8750, 15745.00
820.0140, 15818.00
821.1530, 15586.00
822.2920, 15748.00
823.4310, 15630.00
824.5690, 15675.00
825.7070, 15719.00
826.8460, 15665.00
827.9840, 15584.00
829.1220, 15736.00
830.2590, 15517.00
831.3970, 15616.00
832.5340, 15586.00
833.6710, 15421.00
834.8080, 15435.00
835.9450, 15600.00
837.0820, 15460.00
838.2190, 15566.00
839.3550, 15491.00
840.4910, 15583.00
841.6270, 15371.00
842.7630, 15531.00
843.8990, 15408.00
845.0350, 15370.00
846.1700, 15480.00
847.3060, 15513.00
848.4410, 15610.00
849.5760, 15571.32
850.7100, 15594.00
851.8450, 15494.00
852.9800, 15483.00
854.1140, 15495.00
855.2480, 15454.00
856.3820, 15538.00
857.5160, 15658.00
858.6500, 15422.00
859.7830, 15689.00
860.9170, 15583.00
862.0500, 15528.00
863.1830, 15677.00
864.3160, 15543.00
865.4480, 15497.00
866.5810, 15576.00
867.7130, 15651.00
868.8460, 15494.00
869.9780, 15698.00
871.1100, 15712.00
872.2410, 15567.00
873.3730, 15574.00
874.5050, 15636.00
875.6360, 15509.00
876.7670, 15563.00
877.8980, 15626.00
879.0290, 15647.00
880.1590, 15530.00
881.2900, 15599.00
882.4200, 15668.00
883.5500, 15546.00
884.6800, 15698.00
885.8100, 15714.00
886.9400, 15565.00
888.0690, 15790.00
889.1990, 15717.00
890.3280, 15685.00
891.4570, 15811.00
892.5860, 15629.00
893.7140, 15834.00
894.8430, 15904.00
895.9710, 15884.00
897.1000, 15949.00
898.2280, 15866.00
899.3560, 15822.00
900.4830, 15837.00
901.6110, 15811.00
902.7380, 15826.00
903.8660, 15887.66
904.9930, 15895.96
906.1200, 16048.00
907.2460, 15975.00
908.3730, 16068.00
909.5000, 16117.00
910.6260, 16109.00
911.7520, 16182.00
912.8780, 16312.00
914.0040, 16140.00
915.1290, 16284.00
916.2550, 16288.00
917.3800, 16271.00
918.5050, 16329.00
919.6300, 16397.00
920.7550, 16436.00
921.8800, 16514.00
923.0040, 16438.00
924.1290, 16595.00
925.2530, 16876.00
926.3770, 16634.00
927.5010, 16632.00
928.6250, 17006.00
929.7480, 16933.00
930.8720, 17009.00
931.9950, 17166.00
933.1180, 17417.00
934.2410, 17403.00
935.3640, 17533.00
936.4860, 17663.00
937.6090, 17938.00
938.7310, 18139.00
939.8530, 18410.00
940.9750, 18572.00
942.0970, 18702.00
943.2180, 18825.00
944.3400, 19205.00
945.4610, 19448.00
946.5820, 19720.00
947.7030, 19917.00
948.8240, 19814.00
949.9450, 20256.00
951.0650, 20067.00
952.1860, 20189.00
953.3060, 20341.00
954.4260, 20381.00
955.5460, 20569.00
956.6650, 20554.00
957.7850, 20636.00
958.9040, 20990.00
960.0230, 21069.00
961.1420, 21566.00
962.2610, 21952.00
963.3800, 22346.00
964.4990, 22707.00
965.6170, 23423.00
966.7350, 24342.00
967.8530, 24868.00
968.9710, 25680.00
970.0890, 26168.00
971.2070, 27083.00
972.3240, 27677.00
973.4410, 28141.00
974.5580, 28460.00
975.6750, 28499.00
976.7920, 29124.00
977.9090, 29664.00
979.0250, 30410.00
980.1410, 31228.00
981.2580, 32171.00
982.3740, 33660.00
983.4890, 35258.00
984.6050, 36574.00
985.7200, 38023.00
986.8360, 38481.00
987.9510, 38590.00
989.0660, 38261.00
990.1810, 36755.00
991.2950, 35663.00
992.4100, 33976.00
993.5240, 31904.00
994.6390, 30486.00
995.7530, 29596.00
996.8660, 28583.00
997.9800, 28155.00
999.0940, 27689.00
1000.207, 27934.00
1001.320, 28029.00
1002.433, 28579.00
1003.546, 28877.00
1004.659, 29659.00
1005.772, 30831.00
1006.884, 32518.00
1007.996, 34243.01
1009.108, 36323.00
1010.220, 38926.00
1011.332, 41552.00
1012.444, 44904.00
1013.555, 48222.00
1014.666, 51039.00
1015.777, 53906.00
1016.888, 55034.00
1017.999, 56467.00
1019.110, 57014.00
1020.220, 56074.00
1021.331, 54911.00
1022.441, 52943.00
1023.551, 50677.00
1024.661, 48206.00
1025.770, 46220.00
1026.880, 44076.00
1027.989, 42377.00
1029.098, 40718.00
1030.207, 39386.47
1031.316, 38365.00
1032.425, 37443.00
1033.533, 36745.00
1034.642, 36452.00
1035.750, 35906.00
1036.858, 35510.00
1037.966, 35020.00
1039.073, 34660.00
1040.181, 34284.00
1041.288, 33798.57
1042.396, 33403.00
1043.503, 32782.00
1044.610, 32217.00
1045.716, 31510.00
1046.823, 31117.00
1047.929, 30474.00
1049.036, 30013.00
1050.142, 29705.00
1051.248, 29318.00
1052.353, 29188.00
1053.459, 28757.00
1054.564, 28896.00
1055.670, 29012.00
1056.775, 28945.00
1057.880, 28879.00
1058.985, 28991.00
1060.089, 29300.00
1061.194, 28943.00
1062.298, 28896.00
1063.402, 28387.00
1064.506, 28284.00
1065.610, 27895.00
1066.713, 27573.00
1067.817, 26956.00
1068.920, 26341.00
1070.023, 25982.00
1071.126, 25617.00
1072.229, 24948.00
1073.332, 24843.00
1074.435, 24474.00
1075.537, 23865.00
1076.639, 23522.00
1077.741, 23115.00
1078.843, 22895.00
1079.945, 22495.05
1081.046, 22252.00
1082.148, 21786.00
1083.249, 21658.00
1084.350, 21308.00
1085.451, 21023.00
1086.551, 20908.00
1087.652, 20498.00
1088.752, 20332.00
1089.853, 20004.00
1090.953, 19856.00
1092.053, 19586.00
1093.152, 19380.00
1094.252, 19465.00
1095.351, 19301.00
1096.451, 19125.00
1097.550, 18991.00
1098.649, 18838.00
1099.748, 18878.00
1100.846, 19016.00
1101.945, 18842.00
1103.043, 18935.00
1104.141, 18834.00
1105.239, 18763.00
1106.337, 18801.00
1107.434, 18670.00
1108.532, 18864.00
1109.629, 18834.00
1110.726, 18962.00
1111.823, 19068.00
1112.920, 19102.00
1114.017, 19172.59
1115.113, 19270.00
1116.210, 19244.00
1117.306, 19359.00
1118.402, 19417.00
1119.498, 19539.00
1120.593, 19546.00
1121.689, 19639.00
1122.784, 19646.00
1123.879, 19650.97
1124.974, 19585.00
1126.069, 19653.00
1127.164, 19605.00
1128.259, 19647.00
1129.353, 19706.00
1130.447, 19721.00
1131.541, 19613.00
1132.635, 19752.00
1133.729, 19612.00
1134.822, 19579.00
1135.916, 19717.00
1137.009, 19902.00
1138.102, 20194.00
1139.195, 19966.00
1140.288, 20089.00
1141.380, 20470.00
1142.473, 20501.00
1143.565, 20775.00
1144.657, 21066.00
1145.749, 21365.00
1146.841, 21277.00
1147.932, 21079.00
1149.024, 20978.00
1150.115, 20734.00
1151.206, 20543.00
1152.297, 20522.00
1153.388, 19943.00
1154.479, 20056.00
1155.569, 19787.00
1156.659, 19701.00
1157.750, 19773.00
1158.839, 19646.00
1159.929, 19732.00
1161.019, 19709.00
1162.108, 19764.00
1163.198, 19508.00
1164.287, 19572.00
1165.376, 19663.00
1166.465, 19573.00
1167.553, 19649.00
1168.642, 19568.00
1169.730, 19547.00
1170.818, 19404.00
1171.906, 19359.00
1172.994, 19456.00
1174.082, 19142.00
1175.170, 19332.00
1176.257, 19133.00
1177.344, 18974.00
1178.431, 18926.00
1179.518, 18928.00
1180.605, 18680.00
1181.691, 18636.00
1182.778, 18585.00
1183.864, 18664.00
1184.950, 18750.00
1186.036, 18868.00
1187.122, 18539.00
1188.207, 18786.00
1189.292, 18823.00
1190.378, 18635.00
1191.463, 18855.00
1192.548, 18666.00
1193.632, 18637.00
1194.717, 18670.00
1195.801, 18644.00
1196.886, 18700.00
1197.970, 18634.00
1199.054, 18652.00
1200.137, 18689.00
1201.221, 18584.00
1202.305, 18724.00
1203.388, 18567.00
1204.471, 18636.82
1205.554, 18597.00
1206.637, 18720.00
1207.719, 18745.00
1208.802, 18824.00
1209.884, 18632.00
1210.966, 18479.00
1212.048, 18639.00
1213.130, 18655.00
1214.212, 18798.00
1215.293, 18743.00
1216.374, 18667.00
1217.456, 18683.00
1218.536, 18678.00
1219.617, 18732.00
1220.698, 18677.00
1221.778, 18721.10
1222.859, 18619.00
1223.939, 18763.00
1225.019, 18730.00
1226.099, 18741.00
1227.178, 18820.00
1228.258, 18815.00
1229.337, 18730.00
1230.417, 18936.00
1231.496, 18746.00
1232.574, 18806.00
1233.653, 18863.00
1234.732, 18885.00
1235.810, 18835.00
1236.888, 18772.00
1237.966, 18904.00
1239.044, 18966.00
1240.122, 18972.00
1241.199, 19045.00
1242.277, 18870.00
1243.354, 18704.00
1244.431, 18876.00
1245.508, 18910.00
1246.585, 18711.00
1247.661, 18990.00
1248.738, 18919.00
1249.814, 18965.00
1250.890, 18820.00
1251.966, 18923.00
1253.042, 19114.00
1254.117, 18955.00
1255.193, 18844.00
1256.268, 19065.00
1257.343, 18971.00
1258.418, 19021.00
1259.493, 18918.00
1260.567, 19044.00
1261.642, 18943.00
1262.716, 19098.00
1263.790, 19101.00
1264.864, 18974.00
1265.938, 19050.00
1267.011, 18989.00
1268.085, 18950.00
1269.158, 19035.00
1270.231, 19237.00
1271.304, 19057.00
1272.377, 19048.00
1273.450, 19249.00
1274.522, 19181.00
1275.594, 19385.00
1276.666, 19085.00
1277.738, 19086.00
1278.810, 19199.00
1279.882, 19246.00
1280.953, 19244.37
1282.025, 19205.00
1283.096, 19238.00
1284.167, 19235.00
1285.238, 19232.00
1286.308, 19180.00
1287.379, 19188.00
1288.449, 19269.00
1289.519, 19322.00
1290.589, 19359.00
1291.659, 19315.00
1292.729, 19408.00
1293.798, 19203.00
1294.868, 19391.00
1295.937, 19318.00
1297.006, 19524.00
1298.075, 19412.00
1299.143, 19387.00
1300.212, 19259.00
1301.280, 19564.00
1302.348, 19559.00
1303.416, 19519.00
1304.484, 19695.00
1305.552, 19610.07
1306.620, 19613.70
1307.687, 19589.00
1308.754, 19495.00
1309.821, 19529.00
1310.888, 19405.00
1311.955, 19452.00
1313.021, 19603.00
1314.088, 19489.00
1315.154, 19640.00
1316.220, 19646.00
1317.286, 19536.00
1318.352, 19618.00
1319.417, 19388.00
1320.483, 19587.00
1321.548, 19392.00
1322.613, 19632.00
1323.678, 19520.00
1324.743, 19652.00
1325.807, 19483.00
1326.872, 19579.00
1327.936, 19642.00
1329.000, 19745.00
1330.064, 19729.58
1331.128, 19715.00
1332.191, 19699.00
1333.255, 19625.00
1334.318, 19632.00
1335.381, 19743.00
1336.444, 19629.00
1337.507, 19575.00
1338.569, 19839.00
1339.632, 19586.00
1340.694, 19675.00
1341.756, 19575.00
1342.818, 19650.00
1343.880, 19569.00
1344.941, 19612.82
1346.003, 19768.00
1347.064, 19710.00
1348.125, 19759.00
1349.186, 19843.00
1350.247, 19750.00
1351.308, 19907.00
1352.368, 19773.00
1353.428, 19805.00
1354.489, 19847.00
1355.549, 19719.00
1356.608, 19563.00
1357.668, 19831.00
1358.727, 19702.00
1359.787, 19786.00
1360.846, 19897.00
1361.905, 19898.00
1362.964, 19953.00
1364.022, 19910.00
1365.081, 19842.00
1366.139, 19949.00
1367.197, 20053.00
1368.255, 19852.00
1369.313, 19879.00
1370.371, 20091.00
1371.428, 19918.00
1372.486, 20030.00
1373.543, 19989.00
1374.600, 19951.00
1375.657, 19842.00
1376.713, 19909.00
1377.770, 20113.00
1378.826, 19945.00
1379.882, 19900.00
1380.938, 20153.00
1381.994, 20107.00
1383.050, 20123.00
1384.106, 20075.00
1385.161, 20121.00
1386.216, 20146.00
1387.271, 20279.00
1388.326, 20243.98
1389.381, 20241.92
1390.435, 20219.00
1391.490, 20146.00
1392.544, 20116.00
1393.598, 20058.00
1394.652, 20060.21
1395.705, 20141.00
1396.759, 20154.00
1397.812, 20108.00
1398.866, 20307.00
1399.919, 20212.00
1400.972, 20076.00
1402.024, 20179.00
1403.077, 20220.00
1404.129, 20130.00
1405.181, 20267.00
1406.233, 20330.00
1407.285, 20228.00
1408.337, 20237.00
1409.389, 20175.00
1410.440, 20199.00
1411.491, 20203.57
1412.542, 20147.00
1413.593, 20263.00
1414.644, 20233.00
1415.695, 20295.00
1416.745, 20187.00
1417.795, 20265.00
1418.845, 20227.00
1419.895, 20250.00
1420.945, 20435.00
1421.995, 20304.00
1423.044, 20481.00
1424.093, 20267.00
1425.142, 20357.00
1426.191, 20341.00
1427.240, 20484.00
1428.289, 20533.00
1429.337, 20528.00
1430.385, 20461.00
1431.433, 20440.00
1432.481, 20526.00
1433.529, 20593.00
1434.577, 20553.00
1435.624, 20577.00
1436.672, 20449.00
1437.719, 20399.00
1438.766, 20818.00
1439.812, 20625.00
1440.859, 20783.00
1441.905, 20857.00
1442.952, 20952.00
1443.998, 20741.00
1445.044, 20983.00
1446.090, 20983.00
1447.135, 20718.00
1448.181, 21035.00
1449.226, 20790.00
1450.271, 20970.00
1451.316, 20995.00
1452.361, 21067.00
1453.405, 20897.00
1454.450, 21065.00
1455.494, 21130.00
1456.538, 20845.00
1457.582, 21125.00
1458.626, 20954.00
1459.670, 21127.00
1460.713, 20922.00
1461.757, 20911.00
1462.800, 21049.00
1463.843, 21031.00
1464.886, 20928.00
1465.928, 20995.00
1466.971, 21081.00
1468.013, 21221.00
1469.055, 21126.00
1470.097, 21203.00
1471.139, 21221.00
1472.181, 20846.00
1473.222, 21164.00
1474.263, 20835.00
1475.305, 20977.00
1476.346, 21029.00
1477.386, 21336.00
1478.427, 21166.00
1479.468, 21009.00
1480.508, 21008.00
1481.548, 21071.00
1482.588, 21180.00
1483.628, 21128.00
1484.668, 21193.00
1485.707, 21110.00
1486.747, 21174.00
1487.786, 21165.00
1488.825, 21055.00
1489.864, 21032.00
1490.902, 21101.00
1491.941, 21070.00
1492.979, 21121.00
1494.017, 21109.00
1495.055, 21001.00
1496.093, 21101.00
1497.131, 21029.00
1498.168, 21171.00
1499.206, 21213.00
1500.243, 21083.00
1501.280, 21275.00
1502.317, 21190.00
1503.354, 21163.00
1504.390, 21242.00
1505.426, 21063.00
1506.463, 21281.00
1507.499, 21250.00
1508.535, 21293.00
1509.570, 21399.00
1510.606, 21322.00
1511.641, 21267.00
1512.676, 21326.00
1513.711, 21252.00
1514.746, 21227.00
1515.781, 21341.00
1516.816, 21510.00
1517.850, 21538.00
1518.884, 21396.00
1519.918, 21345.00
1520.952, 21362.00
1521.986, 21389.00
1523.019, 21599.00
1524.053, 21452.00
1525.086, 21625.00
1526.119, 21455.00
1527.152, 21707.00
1528.185, 21521.00
1529.217, 21419.00
1530.250, 21706.00
1531.282, 21663.00
1532.314, 21574.00
1533.346, 21546.00
1534.377, 21614.00
1535.409, 21559.00
1536.440, 21588.00
1537.472, 21690.00
1538.503, 21765.00
1539.534, 21636.00
1540.564, 21718.00
1541.595, 21564.00
1542.625, 21572.00
1543.656, 21640.00
1544.686, 21736.00
1545.716, 21916.00
1546.745, 21771.00
1547.775, 21614.00
1548.804, 22172.00
1549.834, 21868.93
1550.863, 22045.73
1551.892, 21775.00
1552.920, 22070.00
1553.949, 22113.00
1554.977, 21970.00
1556.006, 22017.00
1557.034, 21938.00
1558.062, 21954.00
1559.089, 22061.00
1560.117, 21950.00
1561.144, 22040.00
1562.172, 21971.69
1563.199, 21872.00
1564.226, 21890.00
1565.252, 22051.00
1566.279, 22116.00
1567.305, 22108.00
1568.332, 22057.00
1569.358, 21969.00
1570.384, 22182.00
##END=



