##NAMES=Brazilianite
##RRUFFID=R050319
##IDEAL CHEMISTRY=NaAl_3_(PO_4_)_2_(OH)_4_
##LOCALITY=Minas Gerais, Brazil
##OWNER=RRUFF
##SOURCE=American Museum of Natural History
##DESCRIPTION=Pale green fragment
##STATUS=The identification of this mineral has been confirmed by X-ray diffraction and chemical analysis
##URL=rruff.info/R050319
##MEASURED CHEMISTRY=Na_1.00_Al_3.00_(PO_4_)_2_(OH)_4_
##PIN_ID=M00275
##ORIENTATION=Laser parallel to b* (0 1 0). Fiducial mark perpendicular to laser is parallel to c [0 0 1]
81.13100, 6734.000
82.36700, 7592.000
83.60200, 8346.000
84.83700, 9179.000
86.07200, 9799.000
87.30800, 10088.00
88.54200, 10329.00
89.77700, 10200.00
91.01200, 9572.000
92.24600, 8789.000
93.48000, 8524.000
94.71400, 8453.000
95.94800, 8700.000
97.18200, 8851.000
98.41600, 9356.353
99.64900, 9538.000
100.8830, 10711.00
102.1160, 11735.00
103.3490, 12742.00
104.5820, 13041.00
105.8150, 11997.00
107.0470, 10537.00
108.2800, 9394.000
109.5120, 8670.000
110.7440, 7965.000
111.9760, 8211.000
113.2080, 8822.000
114.4400, 9915.000
115.6710, 10411.00
116.9030, 10352.00
118.1340, 9914.000
119.3650, 8797.000
120.5960, 7386.000
121.8270, 6703.000
123.0580, 6438.000
124.2880, 6445.000
125.5190, 6447.000
126.7490, 6468.000
127.9790, 6480.000
129.2090, 6534.000
130.4390, 6499.000
131.6680, 6497.000
132.8980, 6505.000
134.1270, 6605.000
135.3560, 6599.000
136.5850, 6835.000
137.8140, 6877.000
139.0430, 6946.000
140.2710, 7200.000
141.5000, 7389.000
142.7280, 7551.000
143.9560, 7698.000
145.1840, 7924.000
146.4120, 8022.000
147.6390, 8135.000
148.8670, 7897.000
150.0940, 7912.000
151.3210, 7844.000
152.5490, 7860.000
153.7750, 7773.000
155.0020, 7744.000
156.2290, 7827.000
157.4550, 8055.000
158.6810, 8186.000
159.9080, 8527.000
161.1340, 9127.000
162.3590, 9993.000
163.5850, 11184.00
164.8110, 12241.00
166.0360, 13132.00
167.2610, 14300.00
168.4860, 16276.00
169.7110, 19513.00
170.9360, 22541.00
172.1610, 24080.00
173.3850, 23125.00
174.6100, 20611.00
175.8340, 17414.00
177.0580, 14506.00
178.2820, 12193.00
179.5050, 10564.00
180.7290, 9661.000
181.9520, 8982.000
183.1760, 8528.000
184.3990, 8394.000
185.6220, 8316.000
186.8450, 8185.000
188.0670, 8115.000
189.2900, 8108.000
190.5120, 8072.000
191.7340, 8183.000
192.9560, 8171.000
194.1780, 8274.000
195.4000, 8297.000
196.6220, 8469.000
197.8430, 8448.000
199.0640, 8716.000
200.2860, 8705.000
201.5070, 8782.000
202.7270, 8824.000
203.9480, 8859.850
205.1690, 8915.000
206.3890, 8982.000
207.6090, 9038.000
208.8290, 9160.000
210.0490, 9330.000
211.2690, 9435.000
212.4890, 9534.411
213.7080, 9432.000
214.9280, 9721.000
216.1470, 9758.000
217.3660, 9894.000
218.5850, 10137.00
219.8030, 10106.00
221.0220, 9938.000
222.2400, 9767.000
223.4590, 9651.000
224.6770, 9390.000
225.8950, 9373.000
227.1120, 9451.000
228.3300, 9702.000
229.5480, 9733.000
230.7650, 9874.000
231.9820, 9752.000
233.1990, 9480.000
234.4160, 9283.000
235.6330, 9312.000
236.8490, 9052.000
238.0660, 9257.000
239.2820, 9389.000
240.4980, 9686.000
241.7140, 10120.00
242.9300, 10552.00
244.1460, 11073.00
245.3610, 11195.00
246.5770, 11317.00
247.7920, 11609.00
249.0070, 12213.00
250.2220, 12933.00
251.4370, 13777.00
252.6510, 14297.00
253.8660, 13682.00
255.0800, 12580.00
256.2940, 11407.00
257.5080, 10460.00
258.7220, 9550.000
259.9360, 9143.000
261.1490, 8975.000
262.3630, 8671.000
263.5760, 8604.000
264.7890, 8711.000
266.0020, 8912.000
267.2150, 9058.000
268.4270, 9114.000
269.6400, 9334.000
270.8520, 9405.000
272.0640, 9720.000
273.2760, 9681.000
274.4880, 10005.00
275.7000, 10250.00
276.9120, 10312.00
278.1230, 10422.00
279.3340, 10475.00
280.5450, 10266.00
281.7560, 10246.00
282.9670, 10228.00
284.1780, 10070.36
285.3880, 9958.000
286.5980, 9856.000
287.8090, 9584.000
289.0190, 9481.000
290.2290, 9100.000
291.4380, 8969.000
292.6480, 8945.000
293.8570, 8776.000
295.0670, 8895.000
296.2760, 8927.000
297.4850, 8887.000
298.6930, 8777.000
299.9020, 8926.000
301.1110, 8995.000
302.3190, 9121.000
303.5270, 9263.000
304.7350, 9560.000
305.9430, 9758.000
307.1510, 10187.00
308.3580, 10509.00
309.5660, 10901.00
310.7730, 11385.00
311.9800, 11808.00
313.1870, 12086.00
314.3940, 12194.00
315.6010, 12030.00
316.8070, 11825.00
318.0130, 11796.00
319.2200, 11672.00
320.4260, 11588.00
321.6310, 11520.00
322.8370, 11411.00
324.0430, 11296.00
325.2480, 11250.00
326.4540, 11001.00
327.6590, 10945.00
328.8640, 10639.00
330.0680, 10685.00
331.2730, 10515.00
332.4780, 10527.00
333.6820, 10400.00
334.8860, 10336.00
336.0900, 10290.00
337.2940, 10281.00
338.4980, 10307.00
339.7010, 10279.00
340.9050, 10341.00
342.1080, 10475.24
343.3110, 10556.00
344.5140, 10890.00
345.7170, 11094.00
346.9200, 11464.00
348.1220, 11901.00
349.3240, 12400.61
350.5270, 13073.00
351.7290, 13686.00
352.9310, 14436.00
354.1320, 15291.00
355.3340, 15899.00
356.5350, 16560.00
357.7370, 16873.00
358.9380, 16701.00
360.1390, 15965.00
361.3400, 14965.00
362.5400, 13885.00
363.7410, 12919.00
364.9410, 12176.00
366.1410, 11516.00
367.3410, 11021.00
368.5410, 10587.00
369.7410, 10239.00
370.9400, 9939.638
372.1400, 9672.429
373.3390, 9522.000
374.5380, 9368.000
375.7370, 9257.000
376.9360, 9362.000
378.1350, 9411.000
379.3330, 9391.000
380.5310, 9489.000
381.7300, 9485.478
382.9280, 9298.000
384.1260, 9472.000
385.3230, 9479.000
386.5210, 9360.000
387.7180, 9432.000
388.9160, 9395.000
390.1130, 9403.000
391.3100, 9530.000
392.5060, 9558.000
393.7030, 9710.000
394.9000, 9786.000
396.0960, 9920.000
397.2920, 10115.00
398.4880, 10316.80
399.6840, 10584.97
400.8800, 10867.00
402.0750, 11229.00
403.2710, 11611.00
404.4660, 12033.00
405.6610, 12415.90
406.8560, 12783.00
408.0510, 13253.00
409.2450, 13731.00
410.4400, 14216.00
411.6340, 14299.00
412.8280, 14296.00
414.0220, 14385.00
415.2160, 14228.00
416.4100, 13989.00
417.6030, 13728.00
418.7970, 13664.00
419.9900, 13546.00
421.1830, 13376.00
422.3760, 13496.00
423.5690, 13282.00
424.7610, 13470.00
425.9540, 13415.00
427.1460, 13494.00
428.3380, 13570.00
429.5300, 13712.00
430.7220, 13974.00
431.9140, 14265.00
433.1050, 14643.00
434.2970, 15377.00
435.4880, 15948.00
436.6790, 16390.00
437.8700, 17042.00
439.0610, 17242.00
440.2510, 16908.00
441.4420, 16858.00
442.6320, 16135.00
443.8220, 15454.00
445.0120, 14556.00
446.2020, 14020.00
447.3910, 13762.00
448.5810, 13610.00
449.7700, 13515.00
450.9600, 13558.00
452.1490, 13618.00
453.3370, 13936.00
454.5260, 14126.00
455.7150, 14293.00
456.9030, 14621.00
458.0910, 14917.00
459.2800, 15416.00
460.4670, 15707.00
461.6550, 16450.00
462.8430, 16572.00
464.0300, 17202.00
465.2180, 17199.00
466.4050, 17142.00
467.5920, 17008.00
468.7790, 16379.00
469.9650, 15676.00
471.1520, 14964.00
472.3380, 14099.00
473.5250, 13269.00
474.7110, 12736.00
475.8970, 12346.00
477.0820, 11941.00
478.2680, 11745.00
479.4540, 11457.00
480.6390, 11390.49
481.8240, 11534.00
483.0090, 11415.00
484.1940, 11652.00
485.3780, 11800.00
486.5630, 11897.00
487.7470, 12064.00
488.9320, 12257.00
490.1160, 12596.00
491.3000, 12902.00
492.4830, 13381.00
493.6670, 13732.00
494.8500, 14327.00
496.0340, 14808.00
497.2170, 15352.00
498.4000, 15697.00
499.5820, 16170.00
500.7650, 16461.00
501.9480, 16774.00
503.1300, 17119.00
504.3120, 17176.00
505.4940, 17235.00
506.6760, 17457.00
507.8580, 17501.00
509.0390, 17492.00
510.2210, 17660.00
511.4020, 18066.00
512.5830, 18153.00
513.7640, 18278.00
514.9450, 18369.00
516.1250, 18615.00
517.3060, 18786.00
518.4860, 19043.00
519.6660, 19231.00
520.8460, 19714.00
522.0260, 19931.00
523.2060, 20654.00
524.3850, 21242.00
525.5650, 22026.00
526.7440, 22480.00
527.9230, 23110.00
529.1020, 23674.00
530.2810, 24120.00
531.4590, 24464.00
532.6380, 24716.00
533.8160, 24784.00
534.9940, 24386.00
536.1720, 24135.00
537.3500, 23907.00
538.5270, 23118.00
539.7050, 22474.00
540.8820, 21882.00
542.0590, 21538.32
543.2360, 21234.00
544.4130, 21199.00
545.5900, 21111.00
546.7660, 21247.00
547.9430, 21685.00
549.1190, 22217.00
550.2950, 23013.00
551.4710, 24215.00
552.6470, 25529.00
553.8220, 26917.00
554.9980, 28412.00
556.1730, 30335.00
557.3480, 31734.00
558.5230, 32889.00
559.6980, 33823.00
560.8730, 34283.00
562.0470, 34743.00
563.2220, 34632.00
564.3960, 34413.00
565.5700, 33769.00
566.7440, 32679.00
567.9170, 31169.00
569.0910, 29197.00
570.2640, 27664.00
571.4380, 25593.00
572.6110, 23782.00
573.7840, 22109.00
574.9570, 20828.00
576.1290, 19811.00
577.3020, 19027.00
578.4740, 18325.00
579.6460, 17865.00
580.8180, 17565.00
581.9900, 17528.00
583.1620, 17568.00
584.3330, 17723.00
585.5040, 18019.00
586.6760, 18301.00
587.8470, 18978.00
589.0180, 19894.00
590.1880, 21023.00
591.3590, 22233.00
592.5290, 23295.00
593.7000, 24702.00
594.8700, 26384.00
596.0400, 27899.00
597.2090, 28716.00
598.3790, 29158.95
599.5490, 29313.00
600.7180, 28523.00
601.8870, 27404.00
603.0560, 25659.00
604.2250, 24024.00
605.3940, 22561.00
606.5620, 21505.00
607.7300, 20753.00
608.8990, 20348.00
610.0670, 19901.00
611.2350, 19609.00
612.4020, 19439.00
613.5700, 19183.00
614.7370, 18891.00
615.9050, 18457.00
617.0720, 18030.00
618.2390, 17541.00
619.4060, 16754.00
620.5720, 16208.00
621.7390, 15819.00
622.9050, 15559.00
624.0710, 15412.00
625.2370, 15434.00
626.4030, 15303.00
627.5690, 15620.00
628.7340, 15625.00
629.9000, 16034.00
631.0650, 16154.00
632.2300, 16322.00
633.3950, 16522.00
634.5600, 16587.00
635.7240, 16381.00
636.8890, 15979.00
638.0530, 15767.00
639.2170, 15400.00
640.3810, 14923.00
641.5450, 14548.00
642.7080, 14280.00
643.8720, 14133.00
645.0350, 13723.00
646.1980, 13723.00
647.3610, 13513.00
648.5240, 13457.00
649.6870, 13297.00
650.8490, 13336.00
652.0120, 13445.00
653.1740, 13478.00
654.3360, 13513.00
655.4980, 13665.00
656.6600, 13720.00
657.8210, 13756.00
658.9830, 13687.00
660.1440, 13703.06
661.3050, 13638.00
662.4660, 13568.00
663.6270, 13337.00
664.7870, 13099.00
665.9480, 12980.00
667.1080, 12651.00
668.2680, 12428.00
669.4280, 12095.00
670.5880, 11933.00
671.7480, 11772.00
672.9070, 11652.00
674.0670, 11615.00
675.2260, 11348.00
676.3850, 11362.00
677.5440, 11250.00
678.7030, 11137.00
679.8610, 11074.00
681.0200, 10989.60
682.1780, 11009.00
683.3360, 10872.00
684.4940, 10898.00
685.6520, 10863.00
686.8090, 10792.00
687.9670, 10639.00
689.1240, 10785.00
690.2810, 10580.00
691.4380, 10414.00
692.5950, 10623.00
693.7520, 10576.00
694.9080, 10572.00
696.0650, 10561.00
697.2210, 10544.00
698.3770, 10499.00
699.5330, 10563.00
700.6880, 10634.00
701.8440, 10476.00
702.9990, 10564.00
704.1550, 10540.00
705.3100, 10513.00
706.4650, 10566.00
707.6190, 10592.00
708.7740, 10710.00
709.9290, 10760.00
711.0830, 10793.00
712.2370, 10977.00
713.3910, 10878.00
714.5450, 11213.00
715.6980, 11138.00
716.8520, 11178.00
718.0050, 11430.00
719.1580, 11463.00
720.3110, 11496.00
721.4640, 11383.00
722.6170, 11512.00
723.7700, 11488.00
724.9220, 11467.00
726.0740, 11347.00
727.2260, 11300.00
728.3780, 11334.00
729.5300, 11293.00
730.6810, 11221.00
731.8330, 11095.00
732.9840, 11224.00
734.1350, 11094.00
735.2860, 11149.00
736.4370, 11168.00
737.5880, 11119.00
738.7380, 11116.00
739.8880, 11181.00
741.0390, 11078.00
742.1890, 11024.00
743.3380, 10994.00
744.4880, 11032.00
745.6380, 11006.00
746.7870, 11114.00
747.9360, 11004.00
749.0850, 11077.00
750.2340, 11018.00
751.3830, 11125.00
752.5310, 10971.00
753.6800, 10998.00
754.8280, 11030.00
755.9760, 11067.00
757.1240, 10957.00
758.2720, 10956.00
759.4190, 10945.00
760.5670, 10940.58
761.7140, 10965.43
762.8610, 10983.00
764.0080, 11046.00
765.1550, 11042.00
766.3020, 11130.00
767.4480, 11169.00
768.5950, 11125.00
769.7410, 11079.00
770.8870, 11178.00
772.0330, 11170.00
773.1780, 11022.00
774.3240, 11183.00
775.4690, 11032.00
776.6140, 11155.00
777.7590, 11003.00
778.9040, 11018.00
780.0490, 10958.00
781.1940, 11043.00
782.3380, 11034.00
783.4820, 11097.00
784.6260, 11022.00
785.7700, 11186.00
786.9140, 11065.00
788.0580, 10897.00
789.2010, 10944.00
790.3450, 11067.00
791.4880, 10968.00
792.6310, 10845.00
793.7730, 11016.00
794.9160, 11021.00
796.0590, 10976.00
797.2010, 11084.00
798.3430, 11096.00
799.4850, 11155.00
800.6270, 11076.00
801.7690, 11107.00
802.9100, 11110.00
804.0520, 11008.00
805.1930, 11004.00
806.3340, 11009.00
807.4750, 10969.84
808.6160, 11158.00
809.7560, 11019.00
810.8970, 11042.00
812.0370, 11207.00
813.1770, 11140.00
814.3170, 11061.00
815.4570, 11038.00
816.5960, 10999.12
817.7360, 11183.00
818.8750, 11026.00
820.0140, 11067.00
821.1530, 11216.00
822.2920, 11167.00
823.4310, 11311.00
824.5690, 11142.00
825.7070, 11132.00
826.8460, 11192.00
827.9840, 11319.00
829.1220, 11263.00
830.2590, 11377.00
831.3970, 11417.00
832.5340, 11272.00
833.6710, 11151.00
834.8080, 11378.00
835.9450, 11353.00
837.0820, 11273.00
838.2190, 11198.00
839.3550, 11428.00
840.4910, 11335.00
841.6270, 11391.00
842.7630, 11404.00
843.8990, 11487.00
845.0350, 11497.00
846.1700, 11434.00
847.3060, 11594.00
848.4410, 11489.00
849.5760, 11485.00
850.7100, 11358.00
851.8450, 11511.00
852.9800, 11462.00
854.1140, 11313.00
855.2480, 11638.00
856.3820, 11594.00
857.5160, 11604.00
858.6500, 11661.00
859.7830, 11513.00
860.9170, 11730.00
862.0500, 11579.00
863.1830, 11650.00
864.3160, 11625.00
865.4480, 11612.00
866.5810, 11639.00
867.7130, 11606.46
868.8460, 11610.31
869.9780, 11581.00
871.1100, 11646.00
872.2410, 11655.00
873.3730, 11784.00
874.5050, 11759.00
875.6360, 11584.00
876.7670, 11733.00
877.8980, 11760.00
879.0290, 11738.00
880.1590, 11827.00
881.2900, 11698.00
882.4200, 11767.00
883.5500, 11735.00
884.6800, 11830.00
885.8100, 11819.00
886.9400, 11758.00
888.0690, 11848.00
889.1990, 11893.00
890.3280, 11830.00
891.4570, 11930.00
892.5860, 11727.00
893.7140, 11925.00
894.8430, 11850.00
895.9710, 11812.00
897.1000, 11913.00
898.2280, 11885.00
899.3560, 12013.00
900.4830, 12106.00
901.6110, 12068.00
902.7380, 12123.96
903.8660, 12143.00
904.9930, 12104.00
906.1200, 12057.00
907.2460, 12039.00
908.3730, 12054.44
909.5000, 12237.00
910.6260, 12142.00
911.7520, 12271.00
912.8780, 12376.00
914.0040, 12394.00
915.1290, 12455.11
916.2550, 12444.00
917.3800, 12495.00
918.5050, 12516.00
919.6300, 12556.00
920.7550, 12557.00
921.8800, 12714.00
923.0040, 12650.00
924.1290, 12612.00
925.2530, 12735.00
926.3770, 12841.00
927.5010, 13060.00
928.6250, 13118.00
929.7480, 12974.00
930.8720, 13232.00
931.9950, 13133.00
933.1180, 13436.00
934.2410, 13506.00
935.3640, 13633.00
936.4860, 13872.00
937.6090, 14105.00
938.7310, 14230.00
939.8530, 14498.00
940.9750, 14732.00
942.0970, 14799.00
943.2180, 15316.00
944.3400, 15468.00
945.4610, 15863.00
946.5820, 16170.00
947.7030, 16424.00
948.8240, 16561.00
949.9450, 16821.00
951.0650, 16955.00
952.1860, 17145.39
953.3060, 17394.00
954.4260, 17540.00
955.5460, 17719.00
956.6650, 18008.00
957.7850, 18043.00
958.9040, 18428.00
960.0230, 18887.00
961.1420, 19454.00
962.2610, 20076.00
963.3800, 20896.00
964.4990, 22111.00
965.6170, 23119.00
966.7350, 24626.00
967.8530, 26062.00
968.9710, 27670.00
970.0890, 29123.00
971.2070, 30023.00
972.3240, 30890.20
973.4410, 31392.94
974.5580, 31665.00
975.6750, 31601.00
976.7920, 31298.00
977.9090, 30704.00
979.0250, 30143.00
980.1410, 30128.00
981.2580, 30041.00
982.3740, 30898.00
983.4890, 31586.00
984.6050, 32469.00
985.7200, 33145.00
986.8360, 33732.00
987.9510, 34057.00
989.0660, 33974.00
990.1810, 33249.00
991.2950, 31493.00
992.4100, 29644.00
993.5240, 28232.00
994.6390, 26552.00
995.7530, 25498.00
996.8660, 24577.00
997.9800, 24013.00
999.0940, 23767.00
1000.207, 23453.00
1001.320, 23707.00
1002.433, 23896.00
1003.546, 24346.00
1004.659, 25068.00
1005.772, 25998.00
1006.884, 27241.00
1007.996, 28723.00
1009.108, 30775.81
1010.220, 33153.30
1011.332, 35850.00
1012.444, 39140.00
1013.555, 42566.00
1014.666, 46520.00
1015.777, 49943.00
1016.888, 52991.00
1017.999, 55538.00
1019.110, 56679.00
1020.220, 56906.00
1021.331, 56194.00
1022.441, 54593.00
1023.551, 52669.00
1024.661, 50169.00
1025.770, 47899.00
1026.880, 45356.00
1027.989, 43396.00
1029.098, 41578.00
1030.207, 40005.00
1031.316, 38830.00
1032.425, 37363.00
1033.533, 36217.00
1034.642, 35870.00
1035.750, 35048.00
1036.858, 34280.00
1037.966, 33625.00
1039.073, 32963.00
1040.181, 32346.00
1041.288, 31557.00
1042.396, 30566.00
1043.503, 29681.00
1044.610, 28843.00
1045.716, 27683.00
1046.823, 26783.00
1047.929, 25664.00
1049.036, 24582.00
1050.142, 23771.00
1051.248, 23060.00
1052.353, 22328.92
1053.459, 21513.00
1054.564, 21260.00
1055.670, 20703.00
1056.775, 20425.00
1057.880, 20348.00
1058.985, 20038.00
1060.089, 20069.00
1061.194, 20318.00
1062.298, 20254.00
1063.402, 20447.00
1064.506, 20999.00
1065.610, 21262.00
1066.713, 21747.00
1067.817, 22118.00
1068.920, 22473.00
1070.023, 22595.00
1071.126, 22721.33
1072.229, 22780.00
1073.332, 22613.00
1074.435, 22573.00
1075.537, 22258.00
1076.639, 21934.00
1077.741, 21734.00
1078.843, 21459.00
1079.945, 21211.24
1081.046, 20994.00
1082.148, 20742.00
1083.249, 20463.00
1084.350, 20249.05
1085.451, 20094.00
1086.551, 19848.00
1087.652, 19577.00
1088.752, 19328.00
1089.853, 19014.00
1090.953, 18630.00
1092.053, 18323.00
1093.152, 18107.00
1094.252, 17945.00
1095.351, 17725.09
1096.451, 17602.50
1097.550, 17387.00
1098.649, 17351.00
1099.748, 17197.67
1100.846, 17049.00
1101.945, 16970.00
1103.043, 16948.00
1104.141, 16959.00
1105.239, 17183.00
1106.337, 17417.80
1107.434, 17787.52
1108.532, 18267.00
1109.629, 18816.00
1110.726, 19564.00
1111.823, 20321.00
1112.920, 21412.00
1114.017, 22139.00
1115.113, 22800.00
1116.210, 22935.18
1117.306, 23263.00
1118.402, 22441.00
1119.498, 21825.00
1120.593, 20841.00
1121.689, 19976.00
1122.784, 18827.00
1123.879, 18287.00
1124.974, 17655.00
1126.069, 17234.00
1127.164, 16725.00
1128.259, 16467.00
1129.353, 16186.00
1130.447, 15722.00
1131.541, 15472.00
1132.635, 15392.00
1133.729, 15262.00
1134.822, 14916.00
1135.916, 14898.00
1137.009, 14757.00
1138.102, 14741.00
1139.195, 14556.00
1140.288, 14622.00
1141.380, 14509.00
1142.473, 14548.00
1143.565, 14659.00
1144.657, 14606.00
1145.749, 14646.00
1146.841, 14695.00
1147.932, 14430.00
1149.024, 14518.00
1150.115, 14414.00
1151.206, 14478.00
1152.297, 14455.00
1153.388, 14268.00
1154.479, 14398.00
1155.569, 14221.00
1156.659, 14340.00
1157.750, 14333.00
1158.839, 14283.00
1159.929, 14403.00
1161.019, 14229.00
1162.108, 14425.00
1163.198, 14307.00
1164.287, 14171.00
1165.376, 14113.00
1166.465, 14139.00
1167.553, 14048.00
1168.642, 13975.00
1169.730, 14062.00
1170.818, 14061.00
1171.906, 14112.00
1172.994, 14010.00
1174.082, 13946.00
1175.170, 13951.61
1176.257, 14102.00
1177.344, 13890.00
1178.431, 14002.00
1179.518, 13926.00
1180.605, 13922.00
1181.691, 13802.00
1182.778, 13943.00
1183.864, 13764.00
1184.950, 13919.00
1186.036, 13865.00
1187.122, 13788.00
1188.207, 13916.00
1189.292, 13824.00
1190.378, 13889.00
1191.463, 13903.00
1192.548, 13916.00
1193.632, 13796.00
1194.717, 13852.00
1195.801, 13809.00
1196.886, 13948.00
1197.970, 13684.00
1199.054, 13966.00
1200.137, 13903.00
1201.221, 13688.00
1202.305, 13909.00
1203.388, 13685.00
1204.471, 13848.00
1205.554, 13866.00
1206.637, 13829.00
1207.719, 13869.00
1208.802, 13874.00
1209.884, 13818.00
1210.966, 13935.00
1212.048, 13840.00
1213.130, 13772.00
1214.212, 13818.00
1215.293, 13903.00
1216.374, 13856.00
1217.456, 13869.00
1218.536, 13874.00
1219.617, 13778.00
1220.698, 13976.00
1221.778, 13953.00
1222.859, 13944.00
1223.939, 13907.00
1225.019, 13880.14
1226.099, 13857.00
1227.178, 13810.00
1228.258, 13872.00
1229.337, 13844.00
1230.417, 13794.00
1231.496, 13863.00
1232.574, 13876.00
1233.653, 13793.00
1234.732, 13748.00
1235.810, 13927.00
1236.888, 13902.00
1237.966, 13828.00
1239.044, 13682.00
1240.122, 13938.00
1241.199, 13752.00
1242.277, 13840.00
1243.354, 13835.00
1244.431, 13974.00
1245.508, 13871.00
1246.585, 13963.00
1247.661, 13858.00
1248.738, 13826.00
1249.814, 13842.00
1250.890, 13907.00
1251.966, 14049.00
1253.042, 13823.00
1254.117, 14044.00
1255.193, 13770.00
1256.268, 13963.00
1257.343, 13879.00
1258.418, 13959.00
1259.493, 13967.00
1260.567, 13992.00
1261.642, 14045.00
1262.716, 13981.00
1263.790, 13832.00
1264.864, 13944.00
1265.938, 14176.00
1267.011, 13882.00
1268.085, 14060.00
1269.158, 13965.00
1270.231, 13884.00
1271.304, 13908.00
1272.377, 13949.00
1273.450, 13997.00
1274.522, 14090.00
1275.594, 14023.00
1276.666, 13978.00
1277.738, 14090.00
1278.810, 13962.00
1279.882, 14079.00
1280.953, 13999.00
1282.025, 14061.00
1283.096, 14020.00
1284.167, 13968.00
1285.238, 14098.00
1286.308, 14143.00
1287.379, 14035.00
1288.449, 14121.00
1289.519, 14239.00
1290.589, 14094.00
1291.659, 14201.42
1292.729, 14252.00
1293.798, 14222.00
1294.868, 14204.00
1295.937, 14172.00
1297.006, 14187.78
1298.075, 14206.00
1299.143, 14190.00
1300.212, 14185.00
1301.280, 14108.00
1302.348, 14146.28
1303.416, 14347.00
1304.484, 14197.00
1305.552, 14254.00
1306.620, 14302.00
1307.687, 14146.00
1308.754, 14238.00
1309.821, 14267.00
1310.888, 14275.00
1311.955, 14183.00
1313.021, 14297.00
1314.088, 14420.00
1315.154, 14253.00
1316.220, 14369.00
1317.286, 14198.00
1318.352, 14371.00
1319.417, 14472.00
1320.483, 14258.00
1321.548, 14280.00
1322.613, 14430.00
1323.678, 14440.00
1324.743, 14451.07
1325.807, 14415.00
1326.872, 14463.00
1327.936, 14429.00
1329.000, 14526.00
1330.064, 14253.00
1331.128, 14522.00
1332.191, 14377.00
1333.255, 14450.00
1334.318, 14445.00
1335.381, 14456.00
1336.444, 14495.00
1337.507, 14516.00
1338.569, 14483.08
1339.632, 14406.00
1340.694, 14443.00
1341.756, 14455.00
1342.818, 14522.00
1343.880, 14428.00
1344.941, 14412.00
1346.003, 14517.00
1347.064, 14367.00
1348.125, 14524.00
1349.186, 14591.00
1350.247, 14390.00
1351.308, 14483.00
1352.368, 14623.00
1353.428, 14448.00
1354.489, 14417.00
1355.549, 14598.00
1356.608, 14522.00
1357.668, 14506.00
1358.727, 14510.00
1359.787, 14514.00
1360.846, 14485.00
1361.905, 14470.00
1362.964, 14551.00
1364.022, 14550.00
1365.081, 14487.00
1366.139, 14528.00
1367.197, 14471.00
1368.255, 14583.00
1369.313, 14509.00
1370.371, 14643.00
1371.428, 14593.00
1372.486, 14418.00
1373.543, 14538.00
1374.600, 14686.00
1375.657, 14573.00
1376.713, 14526.00
1377.770, 14543.00
1378.826, 14650.00
1379.882, 14587.00
1380.938, 14716.00
1381.994, 14639.00
1383.050, 14662.00
1384.106, 14666.00
1385.161, 14562.00
1386.216, 14626.00
1387.271, 14587.00
1388.326, 14689.00
1389.381, 14737.00
1390.435, 14665.00
1391.490, 14607.00
1392.544, 14795.00
1393.598, 14686.00
1394.652, 14660.00
1395.705, 14715.00
1396.759, 14643.00
1397.812, 14679.46
1398.866, 14609.00
1399.919, 14709.00
1400.972, 14809.00
1402.024, 14833.83
1403.077, 14663.00
1404.129, 14842.00
1405.181, 14670.00
1406.233, 14600.00
1407.285, 14863.00
1408.337, 14844.00
1409.389, 14855.00
1410.440, 14692.00
1411.491, 14908.00
1412.542, 14775.00
1413.593, 14812.00
1414.644, 14863.00
1415.695, 14739.00
1416.745, 14819.00
1417.795, 14791.00
1418.845, 14831.00
1419.895, 14756.00
1420.945, 14908.00
1421.995, 14944.00
1423.044, 14786.00
1424.093, 14844.00
1425.142, 14786.00
1426.191, 14875.00
1427.240, 14855.00
1428.289, 14813.00
1429.337, 15033.00
1430.385, 14952.00
1431.433, 14791.00
1432.481, 15016.00
1433.529, 14940.00
1434.577, 14858.00
1435.624, 14888.00
1436.672, 14929.00
1437.719, 14909.00
1438.766, 15095.00
1439.812, 15059.00
1440.859, 15069.00
1441.905, 15204.00
1442.952, 15158.00
1443.998, 14965.00
1445.044, 15082.00
1446.090, 14993.00
1447.135, 14873.00
1448.181, 14973.00
1449.226, 15031.00
1450.271, 15094.00
1451.316, 15177.00
1452.361, 15218.00
1453.405, 15119.00
1454.450, 15113.00
1455.494, 15251.00
1456.538, 15117.00
1457.582, 15163.00
1458.626, 15025.00
1459.670, 15015.08
1460.713, 15006.54
1461.757, 15022.00
1462.800, 15048.00
1463.843, 15178.00
1464.886, 15325.00
1465.928, 15417.00
1466.971, 15258.00
1468.013, 15358.00
1469.055, 15233.00
1470.097, 15235.00
1471.139, 15318.00
1472.181, 15355.00
1473.222, 15223.00
1474.263, 15169.00
1475.305, 15324.00
1476.346, 15275.00
1477.386, 15359.00
1478.427, 15154.00
1479.468, 15251.00
1480.508, 15138.00
1481.548, 15268.00
1482.588, 15270.00
1483.628, 15396.00
1484.668, 15299.00
1485.707, 15403.00
1486.747, 15369.00
1487.786, 15421.00
1488.825, 15411.00
1489.864, 15455.00
1490.902, 15294.00
1491.941, 15418.00
1492.979, 15286.00
1494.017, 15378.00
1495.055, 15365.00
1496.093, 15371.00
1497.131, 15363.00
1498.168, 15370.00
1499.206, 15377.00
1500.243, 15368.31
1501.280, 15317.00
1502.317, 15388.00
1503.354, 15391.00
1504.390, 15468.00
1505.426, 15377.00
1506.463, 15351.00
1507.499, 15361.00
1508.535, 15392.00
1509.570, 15581.00
1510.606, 15658.00
1511.641, 15555.00
1512.676, 15419.00
1513.711, 15488.00
1514.746, 15474.00
1515.781, 15453.00
1516.816, 15573.00
1517.850, 15531.00
1518.884, 15480.00
1519.918, 15663.00
1520.952, 15415.00
1521.986, 15441.00
1523.019, 15465.00
1524.053, 15555.00
1525.086, 15530.00
1526.119, 15561.00
1527.152, 15569.26
1528.185, 15570.27
1529.217, 15561.00
1530.250, 15578.00
1531.282, 15580.00
1532.314, 15568.00
1533.346, 15630.00
1534.377, 15534.00
1535.409, 15698.00
1536.440, 15512.00
1537.472, 15659.00
1538.503, 15776.00
1539.534, 15651.00
1540.564, 15670.00
1541.595, 15617.00
1542.625, 15681.00
1543.656, 15618.00
1544.686, 15546.00
1545.716, 15693.00
1546.745, 15623.00
1547.775, 15683.00
1548.804, 15676.00
1549.834, 15585.00
1550.863, 15713.00
1551.892, 15611.00
1552.920, 15678.00
1553.949, 15680.00
1554.977, 15625.00
1556.006, 15700.00
1557.034, 15725.00
1558.062, 15730.00
1559.089, 15749.00
1560.117, 15690.00
1561.144, 15678.00
1562.172, 15725.00
1563.199, 15627.00
1564.226, 15758.00
1565.252, 15800.00
1566.279, 15847.00
1567.305, 15746.00
1568.332, 15715.00
1569.358, 15917.00
1570.384, 15850.00
##END=



