##NAMES=Brazilianite
##RRUFFID=R050319
##IDEAL CHEMISTRY=NaAl_3_(PO_4_)_2_(OH)_4_
##LOCALITY=Minas Gerais, Brazil
##OWNER=RRUFF
##SOURCE=American Museum of Natural History
##DESCRIPTION=Pale green fragment
##STATUS=The identification of this mineral has been confirmed by X-ray diffraction and chemical analysis
##URL=rruff.info/R050319
##MEASURED CHEMISTRY=Na_1.00_Al_3.00_(PO_4_)_2_(OH)_4_
##PIN_ID=M00246
##ORIENTATION=Laser parallel to (1 0 1). Fiducial mark perpendicular to laser is parallel to b [0 1 0]
82.36700, 10227.00
83.60200, 11210.00
84.83700, 12031.00
86.07200, 12668.00
87.30800, 13196.00
88.54200, 13255.00
89.77700, 13165.00
91.01200, 12804.00
92.24600, 12189.00
93.48000, 12007.00
94.71400, 11965.00
95.94800, 12151.00
97.18200, 12285.00
98.41600, 12465.00
99.64900, 12800.00
100.8830, 13578.00
102.1160, 14572.00
103.3490, 15353.00
104.5820, 15689.00
105.8150, 15520.00
107.0470, 14855.00
108.2800, 14278.00
109.5120, 14114.00
110.7440, 13551.00
111.9760, 13171.00
113.2080, 13265.00
114.4400, 13583.00
115.6710, 13476.00
116.9030, 12867.00
118.1340, 12426.00
119.3650, 12137.00
120.5960, 11660.00
121.8270, 11730.00
123.0580, 11517.00
124.2880, 11546.00
125.5190, 11352.00
126.7490, 11471.00
127.9790, 11476.00
129.2090, 11429.00
130.4390, 11548.00
131.6680, 11562.00
132.8980, 11466.00
134.1270, 11543.00
135.3560, 11609.00
136.5850, 11868.00
137.8140, 12022.00
139.0430, 12361.00
140.2710, 12536.00
141.5000, 12688.00
142.7280, 13059.00
143.9560, 13168.00
145.1840, 13518.00
146.4120, 13542.00
147.6390, 13648.00
148.8670, 13638.00
150.0940, 13312.00
151.3210, 13118.00
152.5490, 13322.00
153.7750, 13219.00
155.0020, 13437.00
156.2290, 13777.00
157.4550, 14058.00
158.6810, 14638.00
159.9080, 15139.00
161.1340, 16184.00
162.3590, 17480.00
163.5850, 18791.00
164.8110, 20035.00
166.0360, 20913.00
167.2610, 21741.00
168.4860, 23000.00
169.7110, 25418.00
170.9360, 27188.00
172.1610, 27712.00
173.3850, 25785.00
174.6100, 22885.00
175.8340, 20154.00
177.0580, 18008.00
178.2820, 16275.00
179.5050, 15156.21
180.7290, 14425.00
181.9520, 14096.00
183.1760, 13828.00
184.3990, 13804.00
185.6220, 13793.00
186.8450, 13794.00
188.0670, 13678.00
189.2900, 13738.00
190.5120, 13810.00
191.7340, 13874.00
192.9560, 14057.00
194.1780, 14181.00
195.4000, 14281.00
196.6220, 14543.00
197.8430, 14787.00
199.0640, 14853.00
200.2860, 14970.00
201.5070, 15026.00
202.7270, 15411.00
203.9480, 15399.00
205.1690, 15362.00
206.3890, 15732.00
207.6090, 15628.00
208.8290, 15693.00
210.0490, 15740.00
211.2690, 15514.00
212.4890, 15563.00
213.7080, 15579.00
214.9280, 15317.00
216.1470, 15370.00
217.3660, 15768.00
218.5850, 15831.00
219.8030, 15852.00
221.0220, 15795.00
222.2400, 15781.00
223.4590, 15690.00
224.6770, 15777.00
225.8950, 15697.00
227.1120, 16072.00
228.3300, 16408.00
229.5480, 16585.00
230.7650, 16749.00
231.9820, 16493.00
233.1990, 16156.00
234.4160, 15740.00
235.6330, 15575.00
236.8490, 15230.00
238.0660, 15185.00
239.2820, 15209.00
240.4980, 15242.00
241.7140, 15252.00
242.9300, 15318.00
244.1460, 15291.00
245.3610, 15166.00
246.5770, 14994.00
247.7920, 14705.00
249.0070, 14790.00
250.2220, 14785.00
251.4370, 14894.00
252.6510, 14876.00
253.8660, 14659.00
255.0800, 14272.00
256.2940, 14084.00
257.5080, 13903.00
258.7220, 14023.00
259.9360, 14079.00
261.1490, 14076.00
262.3630, 13972.00
263.5760, 14140.00
264.7890, 14317.00
266.0020, 14494.00
267.2150, 14740.00
268.4270, 14926.00
269.6400, 15320.00
270.8520, 15719.00
272.0640, 15957.00
273.2760, 16491.00
274.4880, 17032.00
275.7000, 17799.00
276.9120, 18151.00
278.1230, 18146.00
279.3340, 17643.00
280.5450, 17032.00
281.7560, 16372.00
282.9670, 15822.00
284.1780, 15499.00
285.3880, 15138.00
286.5980, 15076.00
287.8090, 14957.00
289.0190, 14957.00
290.2290, 15261.00
291.4380, 15221.00
292.6480, 15434.00
293.8570, 15662.00
295.0670, 15798.00
296.2760, 15810.00
297.4850, 15638.00
298.6930, 15475.00
299.9020, 15515.00
301.1110, 15384.00
302.3190, 15318.00
303.5270, 15288.00
304.7350, 15381.00
305.9430, 15532.00
307.1510, 15652.00
308.3580, 15807.89
309.5660, 16005.00
310.7730, 16221.00
311.9800, 16407.00
313.1870, 16796.00
314.3940, 16906.00
315.6010, 17044.00
316.8070, 16871.00
318.0130, 16569.00
319.2200, 16389.00
320.4260, 16185.43
321.6310, 16195.00
322.8370, 15834.00
324.0430, 15728.00
325.2480, 15616.00
326.4540, 15261.00
327.6590, 15268.00
328.8640, 15052.00
330.0680, 14788.00
331.2730, 14641.00
332.4780, 14581.00
333.6820, 14409.00
334.8860, 14495.00
336.0900, 14521.00
337.2940, 14526.00
338.4980, 14493.00
339.7010, 14657.00
340.9050, 14657.36
342.1080, 14748.00
343.3110, 14825.00
344.5140, 14947.00
345.7170, 15117.00
346.9200, 15207.00
348.1220, 15510.00
349.3240, 15671.00
350.5270, 15985.60
351.7290, 16360.00
352.9310, 16685.00
354.1320, 17035.00
355.3340, 17451.00
356.5350, 17693.00
357.7370, 17796.00
358.9380, 17753.00
360.1390, 17433.00
361.3400, 16977.00
362.5400, 16753.00
363.7410, 16327.00
364.9410, 16112.00
366.1410, 16043.00
367.3410, 16214.00
368.5410, 15934.00
369.7410, 16117.00
370.9400, 16117.00
372.1400, 15949.00
373.3390, 16163.00
374.5380, 16240.00
375.7370, 16197.55
376.9360, 16170.00
378.1350, 16196.00
379.3330, 16038.00
380.5310, 16013.00
381.7300, 15957.00
382.9280, 15800.00
384.1260, 15591.00
385.3230, 15751.00
386.5210, 15560.00
387.7180, 15660.00
388.9160, 15626.00
390.1130, 15697.00
391.3100, 15872.00
392.5060, 15993.00
393.7030, 16193.16
394.9000, 16406.00
396.0960, 16620.00
397.2920, 16854.00
398.4880, 17049.00
399.6840, 17250.22
400.8800, 17451.00
402.0750, 17642.00
403.2710, 17831.00
404.4660, 18055.00
405.6610, 18188.00
406.8560, 18336.00
408.0510, 18436.31
409.2450, 18474.00
410.4400, 18542.00
411.6340, 18503.00
412.8280, 18467.09
414.0220, 18351.48
415.2160, 18324.00
416.4100, 18109.00
417.6030, 17937.00
418.7970, 17980.00
419.9900, 17713.00
421.1830, 17605.00
422.3760, 17518.00
423.5690, 17489.00
424.7610, 17597.00
425.9540, 17533.00
427.1460, 17552.34
428.3380, 17315.00
429.5300, 17503.00
430.7220, 17281.00
431.9140, 17175.00
433.1050, 17230.00
434.2970, 17396.00
435.4880, 17537.00
436.6790, 17462.00
437.8700, 17613.00
439.0610, 17664.00
440.2510, 17554.00
441.4420, 17700.00
442.6320, 17644.00
443.8220, 17377.00
445.0120, 17443.00
446.2020, 17453.00
447.3910, 17285.00
448.5810, 17497.00
449.7700, 17479.00
450.9600, 17618.00
452.1490, 17692.00
453.3370, 17781.00
454.5260, 17906.00
455.7150, 17914.00
456.9030, 17761.00
458.0910, 17675.00
459.2800, 17812.00
460.4670, 17669.00
461.6550, 17680.00
462.8430, 17764.00
464.0300, 17661.00
465.2180, 17468.00
466.4050, 17499.00
467.5920, 17567.00
468.7790, 17642.00
469.9650, 17696.00
471.1520, 17866.00
472.3380, 18159.00
473.5250, 18508.00
474.7110, 19004.55
475.8970, 19627.00
477.0820, 20240.00
478.2680, 20789.00
479.4540, 21548.00
480.6390, 20901.00
481.8240, 20949.00
483.0090, 21624.00
484.1940, 21682.00
485.3780, 22016.00
486.5630, 22588.00
487.7470, 23150.00
488.9320, 23648.17
490.1160, 24062.00
491.3000, 24834.00
492.4830, 25307.00
493.6670, 26014.00
494.8500, 26789.00
496.0340, 27709.00
497.2170, 28472.00
498.4000, 29274.00
499.5820, 29632.00
500.7650, 30430.00
501.9480, 30720.00
503.1300, 31134.00
504.3120, 31164.00
505.4940, 31432.00
506.6760, 31277.00
507.8580, 31294.00
509.0390, 31600.00
510.2210, 31630.00
511.4020, 31218.00
512.5830, 31500.00
513.7640, 31104.00
514.9450, 31014.00
516.1250, 30915.00
517.3060, 30407.00
518.4860, 30014.00
519.6660, 29860.00
520.8460, 29796.00
522.0260, 29920.00
523.2060, 29988.00
524.3850, 30063.00
525.5650, 30373.00
526.7440, 31218.00
527.9230, 31318.00
529.1020, 31909.00
530.2810, 32105.00
531.4590, 32124.00
532.6380, 32339.00
533.8160, 31851.00
534.9940, 31488.00
536.1720, 30967.00
537.3500, 30201.00
538.5270, 29444.00
539.7050, 28716.00
540.8820, 27911.00
542.0590, 27580.00
543.2360, 27196.00
544.4130, 26848.00
545.5900, 27196.00
546.7660, 27532.00
547.9430, 27907.00
549.1190, 28717.00
550.2950, 29866.00
551.4710, 31109.00
552.6470, 32393.00
553.8220, 33688.00
554.9980, 35248.00
556.1730, 36753.00
557.3480, 37612.00
558.5230, 37872.00
559.6980, 37983.00
560.8730, 38038.00
562.0470, 37582.00
563.2220, 37159.00
564.3960, 36734.00
565.5700, 36009.00
566.7440, 34953.00
567.9170, 33844.00
569.0910, 32701.00
570.2640, 31199.00
571.4380, 29853.00
572.6110, 28455.00
573.7840, 27691.00
574.9570, 26476.00
576.1290, 25903.00
577.3020, 25156.00
578.4740, 25021.00
579.6460, 24556.00
580.8180, 24477.00
581.9900, 24537.00
583.1620, 24717.00
584.3330, 24807.00
585.5040, 25300.00
586.6760, 25654.00
587.8470, 26610.00
589.0180, 27570.00
590.1880, 29002.00
591.3590, 30278.00
592.5290, 32054.00
593.7000, 34443.00
594.8700, 36506.00
596.0400, 39013.00
597.2090, 41300.00
598.3790, 42689.00
599.5490, 43361.00
600.7180, 43000.00
601.8870, 41529.00
603.0560, 39474.00
604.2250, 37142.00
605.3940, 34908.00
606.5620, 33022.00
607.7300, 31565.00
608.8990, 30274.00
610.0670, 29647.00
611.2350, 28903.00
612.4020, 28445.00
613.5700, 27997.00
614.7370, 27629.00
615.9050, 27047.00
617.0720, 26348.00
618.2390, 25904.00
619.4060, 25075.00
620.5720, 24547.00
621.7390, 24300.00
622.9050, 23864.00
624.0710, 23620.00
625.2370, 23599.00
626.4030, 23528.00
627.5690, 23540.00
628.7340, 23566.00
629.9000, 23794.00
631.0650, 23685.00
632.2300, 23739.00
633.3950, 23842.00
634.5600, 23651.00
635.7240, 23645.00
636.8890, 23453.00
638.0530, 22820.00
639.2170, 22368.00
640.3810, 22122.00
641.5450, 21513.00
642.7080, 21224.00
643.8720, 21136.00
645.0350, 20878.00
646.1980, 20764.00
647.3610, 20801.00
648.5240, 20666.00
649.6870, 20553.00
650.8490, 20473.00
652.0120, 20504.00
653.1740, 20683.00
654.3360, 20643.00
655.4980, 20462.00
656.6600, 20719.00
657.8210, 20404.00
658.9830, 20388.00
660.1440, 20259.00
661.3050, 20148.00
662.4660, 19938.00
663.6270, 19818.00
664.7870, 19594.00
665.9480, 19618.00
667.1080, 19414.00
668.2680, 19147.00
669.4280, 19113.00
670.5880, 19086.00
671.7480, 18865.00
672.9070, 18764.00
674.0670, 18745.00
675.2260, 18724.00
676.3850, 18630.00
677.5440, 18668.00
678.7030, 18598.00
679.8610, 18552.00
681.0200, 18479.00
682.1780, 18464.00
683.3360, 18424.00
684.4940, 18399.00
685.6520, 18461.00
686.8090, 18439.00
687.9670, 18430.25
689.1240, 18355.00
690.2810, 18420.00
691.4380, 18274.00
692.5950, 18321.00
693.7520, 18333.00
694.9080, 18269.00
696.0650, 18285.00
697.2210, 18195.00
698.3770, 18438.00
699.5330, 18306.00
700.6880, 18340.00
701.8440, 18146.00
702.9990, 18451.00
704.1550, 18663.00
705.3100, 18567.00
706.4650, 18257.00
707.6190, 18406.00
708.7740, 18338.00
709.9290, 18300.00
711.0830, 18353.00
712.2370, 18385.00
713.3910, 18544.00
714.5450, 18519.00
715.6980, 18581.00
716.8520, 18476.00
718.0050, 18594.00
719.1580, 18432.00
720.3110, 18491.00
721.4640, 18680.00
722.6170, 18585.00
723.7700, 18590.00
724.9220, 18705.00
726.0740, 18604.00
727.2260, 18529.00
728.3780, 18687.00
729.5300, 18594.00
730.6810, 18608.00
731.8330, 18630.00
732.9840, 18629.00
734.1350, 18655.10
735.2860, 18799.00
736.4370, 18728.00
737.5880, 18730.00
738.7380, 18832.00
739.8880, 18772.00
741.0390, 18810.00
742.1890, 18821.00
743.3380, 18887.09
744.4880, 18948.09
745.6380, 19114.00
746.7870, 19077.00
747.9360, 19270.00
749.0850, 19283.00
750.2340, 19308.00
751.3830, 19549.00
752.5310, 19568.00
753.6800, 19677.00
754.8280, 19632.00
755.9760, 19757.00
757.1240, 19900.00
758.2720, 19903.00
759.4190, 19974.00
760.5670, 20000.00
761.7140, 20259.00
762.8610, 20163.00
764.0080, 20459.00
765.1550, 20319.00
766.3020, 20518.00
767.4480, 20404.00
768.5950, 20380.00
769.7410, 20394.00
770.8870, 20495.00
772.0330, 20367.49
773.1780, 20370.00
774.3240, 20188.00
775.4690, 20152.00
776.6140, 20114.00
777.7590, 20149.00
778.9040, 20102.00
780.0490, 19993.00
781.1940, 20030.00
782.3380, 20056.00
783.4820, 20132.00
784.6260, 20418.00
785.7700, 20177.00
786.9140, 20468.00
788.0580, 20540.00
789.2010, 20570.00
790.3450, 20730.00
791.4880, 20893.00
792.6310, 20810.00
793.7730, 20793.00
794.9160, 21075.00
796.0590, 21288.00
797.2010, 21246.00
798.3430, 21164.00
799.4850, 21568.00
800.6270, 21340.00
801.7690, 21321.00
802.9100, 21267.00
804.0520, 21450.00
805.1930, 21126.00
806.3340, 21155.00
807.4750, 21213.00
808.6160, 21066.00
809.7560, 20954.00
810.8970, 20867.00
812.0370, 21004.00
813.1770, 20778.00
814.3170, 20902.00
815.4570, 20812.00
816.5960, 20679.00
817.7360, 20554.00
818.8750, 20572.00
820.0140, 20565.00
821.1530, 20479.00
822.2920, 20439.00
823.4310, 20457.00
824.5690, 20342.00
825.7070, 20351.00
826.8460, 20375.00
827.9840, 20309.00
829.1220, 20302.00
830.2590, 20320.00
831.3970, 20256.00
832.5340, 20222.00
833.6710, 20270.00
834.8080, 20159.00
835.9450, 20169.00
837.0820, 20125.00
838.2190, 20156.00
839.3550, 20208.00
840.4910, 20159.00
841.6270, 20144.00
842.7630, 20248.00
843.8990, 20222.00
845.0350, 20250.00
846.1700, 20222.00
847.3060, 20159.00
848.4410, 20268.00
849.5760, 20203.00
850.7100, 20372.00
851.8450, 19951.00
852.9800, 20371.00
854.1140, 20608.00
855.2480, 20240.00
856.3820, 20245.00
857.5160, 20461.00
858.6500, 20483.00
859.7830, 20711.00
860.9170, 20526.00
862.0500, 20555.00
863.1830, 20514.00
864.3160, 20653.00
865.4480, 20474.00
866.5810, 20530.00
867.7130, 20493.00
868.8460, 20452.00
869.9780, 20364.00
871.1100, 20422.00
872.2410, 20358.00
873.3730, 20485.00
874.5050, 20372.00
875.6360, 20401.00
876.7670, 20427.00
877.8980, 20290.00
879.0290, 20387.00
880.1590, 20476.00
881.2900, 20599.00
882.4200, 20474.00
883.5500, 20321.00
884.6800, 20362.00
885.8100, 20282.00
886.9400, 20296.53
888.0690, 20546.00
889.1990, 20407.00
890.3280, 20537.00
891.4570, 20704.00
892.5860, 20476.00
893.7140, 20579.00
894.8430, 20659.00
895.9710, 20763.00
897.1000, 20793.66
898.2280, 20830.00
899.3560, 20805.08
900.4830, 20886.00
901.6110, 20811.00
902.7380, 20845.00
903.8660, 20752.00
904.9930, 20824.00
906.1200, 20889.00
907.2460, 20930.00
908.3730, 20942.00
909.5000, 20923.00
910.6260, 21017.00
911.7520, 20984.52
912.8780, 20974.00
914.0040, 20984.00
915.1290, 21027.00
916.2550, 21041.00
917.3800, 21204.00
918.5050, 21227.00
919.6300, 21206.00
920.7550, 21461.00
921.8800, 21328.00
923.0040, 21356.00
924.1290, 21528.00
925.2530, 21315.00
926.3770, 21602.00
927.5010, 21650.00
928.6250, 21815.00
929.7480, 21911.00
930.8720, 21976.00
931.9950, 22033.00
933.1180, 22117.00
934.2410, 22115.00
935.3640, 22182.00
936.4860, 22699.00
937.6090, 22758.00
938.7310, 22810.00
939.8530, 23294.00
940.9750, 23322.00
942.0970, 23582.00
943.2180, 23986.00
944.3400, 24426.00
945.4610, 24523.00
946.5820, 24763.00
947.7030, 24998.00
948.8240, 25043.00
949.9450, 25332.00
951.0650, 25394.84
952.1860, 25611.00
953.3060, 25550.00
954.4260, 25683.00
955.5460, 25702.00
956.6650, 25692.00
957.7850, 25857.00
958.9040, 25698.00
960.0230, 25941.00
961.1420, 26002.00
962.2610, 26057.00
963.3800, 26409.00
964.4990, 26799.85
965.6170, 27541.00
966.7350, 27971.00
967.8530, 28568.00
968.9710, 29348.00
970.0890, 30002.00
971.2070, 30679.00
972.3240, 31377.00
973.4410, 31800.00
974.5580, 32087.00
975.6750, 32622.00
976.7920, 33075.00
977.9090, 33491.00
979.0250, 34404.00
980.1410, 35519.00
981.2580, 36770.00
982.3740, 38120.00
983.4890, 40030.00
984.6050, 41843.00
985.7200, 43135.00
986.8360, 44534.00
987.9510, 45291.00
989.0660, 45015.00
990.1810, 44069.00
991.2950, 42188.00
992.4100, 40401.00
993.5240, 38625.00
994.6390, 36552.00
995.7530, 35403.00
996.8660, 34313.00
997.9800, 33617.00
999.0940, 33292.00
1000.207, 33260.00
1001.320, 33077.00
1002.433, 33685.00
1003.546, 34034.00
1004.659, 34158.00
1005.772, 35144.00
1006.884, 35907.00
1007.996, 37214.00
1009.108, 39275.00
1010.220, 41025.00
1011.332, 43431.00
1012.444, 46601.00
1013.555, 49561.00
1014.666, 52512.00
1015.777, 55196.00
1016.888, 57907.00
1017.999, 59261.00
1019.110, 59787.00
1020.220, 59474.00
1021.331, 58465.00
1022.441, 56678.00
1023.551, 54647.00
1024.661, 52307.00
1025.770, 50085.00
1026.880, 48361.00
1027.989, 46460.00
1029.098, 44696.00
1030.207, 43380.00
1031.316, 42078.00
1032.425, 41717.00
1033.533, 40263.00
1034.642, 40103.00
1035.750, 39912.00
1036.858, 39172.00
1037.966, 39083.00
1039.073, 38585.00
1040.181, 38311.00
1041.288, 37779.00
1042.396, 37428.21
1043.503, 37117.00
1044.610, 36603.00
1045.716, 36147.00
1046.823, 35594.00
1047.929, 35205.00
1049.036, 35139.00
1050.142, 34448.00
1051.248, 34357.00
1052.353, 34309.00
1053.459, 33973.00
1054.564, 34150.00
1055.670, 34286.00
1056.775, 34402.00
1057.880, 34588.00
1058.985, 34804.00
1060.089, 34848.00
1061.194, 34889.00
1062.298, 34475.00
1063.402, 34380.00
1064.506, 33966.00
1065.610, 33479.00
1066.713, 33087.00
1067.817, 32616.00
1068.920, 32000.00
1070.023, 31536.00
1071.126, 30955.00
1072.229, 30511.00
1073.332, 30020.00
1074.435, 29657.00
1075.537, 29361.00
1076.639, 29029.45
1077.741, 28736.00
1078.843, 28515.00
1079.945, 28313.00
1081.046, 28073.00
1082.148, 27702.00
1083.249, 27408.00
1084.350, 27139.00
1085.451, 26557.00
1086.551, 26522.00
1087.652, 26234.00
1088.752, 25769.00
1089.853, 25631.00
1090.953, 25356.00
1092.053, 25048.00
1093.152, 25136.00
1094.252, 24865.00
1095.351, 24868.00
1096.451, 24498.00
1097.550, 24401.00
1098.649, 24329.00
1099.748, 24485.00
1100.846, 24085.00
1101.945, 24043.00
1103.043, 24171.00
1104.141, 23906.00
1105.239, 24121.00
1106.337, 24417.00
1107.434, 24197.00
1108.532, 24250.00
1109.629, 24428.00
1110.726, 24413.00
1111.823, 24636.00
1112.920, 24927.00
1114.017, 24741.00
1115.113, 25194.00
1116.210, 25251.00
1117.306, 25167.00
1118.402, 25091.00
1119.498, 25169.00
1120.593, 25300.00
1121.689, 25252.00
1122.784, 25393.00
1123.879, 25333.00
1124.974, 25331.00
1126.069, 25261.00
1127.164, 25212.00
1128.259, 25133.00
1129.353, 25121.00
1130.447, 25097.00
1131.541, 25322.00
1132.635, 25092.00
1133.729, 25207.00
1134.822, 25279.00
1135.916, 25140.00
1137.009, 25475.00
1138.102, 25275.00
1139.195, 25185.00
1140.288, 25335.00
1141.380, 25313.00
1142.473, 25251.00
1143.565, 25594.00
1144.657, 25466.00
1145.749, 25604.00
1146.841, 25868.00
1147.932, 25580.00
1149.024, 25720.00
1150.115, 25584.00
1151.206, 25591.00
1152.297, 25178.00
1153.388, 25230.00
1154.479, 25132.00
1155.569, 25157.00
1156.659, 25097.00
1157.750, 24941.00
1158.839, 25054.00
1159.929, 25092.00
1161.019, 25025.00
1162.108, 25267.00
1163.198, 25253.00
1164.287, 25391.00
1165.376, 25208.00
1166.465, 25523.00
1167.553, 25145.00
1168.642, 25318.00
1169.730, 25318.00
1170.818, 25187.00
1171.906, 25177.00
1172.994, 25234.00
1174.082, 25084.00
1175.170, 25007.66
1176.257, 24562.00
1177.344, 24767.00
1178.431, 24621.00
1179.518, 24617.00
1180.605, 24726.00
1181.691, 24477.00
1182.778, 24525.00
1183.864, 24293.00
1184.950, 24506.00
1186.036, 24414.00
1187.122, 24548.00
1188.207, 24252.00
1189.292, 24271.00
1190.378, 24367.00
1191.463, 24530.00
1192.548, 24308.00
1193.632, 24385.00
1194.717, 24283.00
1195.801, 24285.00
1196.886, 24378.00
1197.970, 24401.00
1199.054, 24402.17
1200.137, 24375.00
1201.221, 24388.00
1202.305, 24331.00
1203.388, 24315.00
1204.471, 24623.00
1205.554, 24377.00
1206.637, 24254.00
1207.719, 24514.00
1208.802, 24367.00
1209.884, 24410.00
1210.966, 24507.00
1212.048, 24522.00
1213.130, 24463.00
1214.212, 24317.00
1215.293, 24588.00
1216.374, 24457.00
1217.456, 24364.00
1218.536, 24599.00
1219.617, 24470.00
1220.698, 24524.00
1221.778, 24383.00
1222.859, 24383.00
1223.939, 24541.00
1225.019, 24593.00
1226.099, 24473.00
1227.178, 24603.00
1228.258, 24553.00
1229.337, 24476.00
1230.417, 24662.00
1231.496, 24817.00
1232.574, 24507.00
1233.653, 24602.00
1234.732, 24709.00
1235.810, 24634.00
1236.888, 24625.00
1237.966, 24457.00
1239.044, 24739.00
1240.122, 24797.00
1241.199, 24816.00
1242.277, 24713.00
1243.354, 24871.00
1244.431, 24742.00
1245.508, 24976.00
1246.585, 25025.00
1247.661, 24949.00
1248.738, 25018.00
1249.814, 25012.00
1250.890, 24940.00
1251.966, 24880.00
1253.042, 25009.00
1254.117, 24814.00
1255.193, 24886.00
1256.268, 25376.00
1257.343, 25131.00
1258.418, 25155.00
1259.493, 25008.00
1260.567, 25003.00
1261.642, 25078.00
1262.716, 25107.00
1263.790, 25350.00
1264.864, 25361.00
1265.938, 25021.00
1267.011, 25417.00
1268.085, 25352.00
1269.158, 25295.00
1270.231, 25477.00
1271.304, 25354.00
1272.377, 25425.00
1273.450, 25242.00
1274.522, 25315.00
1275.594, 25480.00
1276.666, 25414.00
1277.738, 25546.00
1278.810, 25433.00
1279.882, 25314.00
1280.953, 25421.00
1282.025, 25325.00
1283.096, 25345.00
1284.167, 25258.00
1285.238, 25433.00
1286.308, 25440.00
1287.379, 25615.00
1288.449, 25289.00
1289.519, 25667.00
1290.589, 25379.00
1291.659, 25418.00
1292.729, 25796.00
1293.798, 25663.00
1294.868, 25574.00
1295.937, 25627.00
1297.006, 25751.00
1298.075, 25630.00
1299.143, 25665.00
1300.212, 25625.00
1301.280, 25575.00
1302.348, 25649.00
1303.416, 25705.00
1304.484, 25660.00
1305.552, 25933.00
1306.620, 25888.00
1307.687, 25747.00
1308.754, 25897.00
1309.821, 25688.00
1310.888, 25876.00
1311.955, 25939.00
1313.021, 25903.00
1314.088, 26017.00
1315.154, 26072.00
1316.220, 26040.00
1317.286, 26120.00
1318.352, 26091.00
1319.417, 26170.00
1320.483, 26172.79
1321.548, 26050.00
1322.613, 26210.00
1323.678, 26001.00
1324.743, 26036.00
1325.807, 25841.00
1326.872, 25917.00
1327.936, 26078.00
1329.000, 25898.00
1330.064, 25955.00
1331.128, 26020.00
1332.191, 26136.00
1333.255, 25861.00
1334.318, 25850.00
1335.381, 25718.00
1336.444, 25942.00
1337.507, 25784.00
1338.569, 25922.00
1339.632, 25954.00
1340.694, 25900.00
1341.756, 25978.00
1342.818, 25906.00
1343.880, 25909.00
1344.941, 25785.00
1346.003, 25844.76
1347.064, 25867.00
1348.125, 25953.00
1349.186, 25911.00
1350.247, 25997.00
1351.308, 26035.00
1352.368, 25963.00
1353.428, 26041.00
1354.489, 26152.00
1355.549, 26030.00
1356.608, 25969.00
1357.668, 26049.00
1358.727, 26139.00
1359.787, 26051.00
1360.846, 26004.00
1361.905, 26076.00
1362.964, 26092.00
1364.022, 26055.00
1365.081, 26242.00
1366.139, 26426.00
1367.197, 26207.00
1368.255, 26116.00
1369.313, 26353.00
1370.371, 26034.00
1371.428, 26337.00
1372.486, 26234.00
1373.543, 26453.00
1374.600, 26290.00
1375.657, 26345.00
1376.713, 26497.00
1377.770, 26442.00
1378.826, 26513.00
1379.882, 26466.00
1380.938, 26228.00
1381.994, 26455.00
1383.050, 26204.00
1384.106, 26540.00
1385.161, 26454.00
1386.216, 26434.00
1387.271, 26603.00
1388.326, 26636.00
1389.381, 26438.00
1390.435, 26307.00
1391.490, 26521.00
1392.544, 26408.00
1393.598, 26411.00
1394.652, 26480.00
1395.705, 26723.00
1396.759, 26652.00
1397.812, 26573.00
1398.866, 26355.00
1399.919, 26534.00
1400.972, 26514.00
1402.024, 26717.00
1403.077, 26688.16
1404.129, 26561.00
1405.181, 26657.00
1406.233, 26695.00
1407.285, 26676.00
1408.337, 26525.00
1409.389, 26722.00
1410.440, 26683.00
1411.491, 26878.00
1412.542, 26601.00
1413.593, 26680.00
1414.644, 26751.00
1415.695, 26726.00
1416.745, 26738.00
1417.795, 26781.00
1418.845, 26951.00
1419.895, 26888.00
1420.945, 26800.00
1421.995, 27000.00
1423.044, 26937.00
1424.093, 26943.00
1425.142, 26668.00
1426.191, 26743.51
1427.240, 26703.68
1428.289, 26821.00
1429.337, 26808.00
1430.385, 26997.00
1431.433, 27175.00
1432.481, 27063.00
1433.529, 27374.00
1434.577, 27561.00
1435.624, 27331.00
1436.672, 27687.00
1437.719, 27387.00
1438.766, 27707.00
1439.812, 27817.00
1440.859, 27853.00
1441.905, 27895.00
1442.952, 27887.00
1443.998, 27910.00
1445.044, 27910.00
1446.090, 28041.00
1447.135, 28242.00
1448.181, 28250.00
1449.226, 28253.00
1450.271, 28472.00
1451.316, 28343.16
1452.361, 28545.00
1453.405, 28257.00
1454.450, 28422.00
1455.494, 28502.00
1456.538, 28401.00
1457.582, 28591.00
1458.626, 28353.00
1459.670, 28144.00
1460.713, 28392.00
1461.757, 28297.00
1462.800, 28108.00
1463.843, 28057.00
1464.886, 28222.00
1465.928, 28157.00
1466.971, 27945.00
1468.013, 28129.00
1469.055, 27970.00
1470.097, 27751.00
1471.139, 27960.00
1472.181, 27824.00
1473.222, 27916.00
1474.263, 27849.31
1475.305, 27859.16
1476.346, 27755.00
1477.386, 27867.00
1478.427, 28014.00
1479.468, 27974.00
1480.508, 27883.00
1481.548, 28059.00
1482.588, 27845.00
1483.628, 27992.00
1484.668, 27672.00
1485.707, 28033.00
1486.747, 27985.00
1487.786, 28040.00
1488.825, 27871.00
1489.864, 27737.00
1490.902, 27876.00
1491.941, 27865.00
1492.979, 27850.00
1494.017, 27935.00
1495.055, 27889.00
1496.093, 27863.00
1497.131, 27704.00
1498.168, 27713.78
1499.206, 27945.00
1500.243, 27723.00
1501.280, 27787.00
1502.317, 27940.00
1503.354, 27800.00
1504.390, 27723.00
1505.426, 28026.00
1506.463, 27627.00
1507.499, 27970.00
1508.535, 27933.00
1509.570, 28030.00
1510.606, 27980.00
1511.641, 27976.00
1512.676, 27727.00
1513.711, 27969.00
1514.746, 28052.00
1515.781, 27980.00
1516.816, 28245.00
1517.850, 28094.00
1518.884, 28141.00
1519.918, 28106.00
1520.952, 28238.00
1521.986, 28358.00
1523.019, 28260.00
1524.053, 28092.00
1525.086, 28305.00
1526.119, 28273.00
1527.152, 28336.00
1528.185, 28190.00
1529.217, 28278.00
1530.250, 28313.00
1531.282, 28328.40
1532.314, 28258.00
1533.346, 28472.00
1534.377, 28364.00
1535.409, 28452.00
1536.440, 28360.00
1537.472, 28405.00
1538.503, 28269.00
1539.534, 28395.00
1540.564, 28420.00
1541.595, 28407.00
1542.625, 28599.00
1543.656, 28471.00
1544.686, 28490.00
1545.716, 28227.00
1546.745, 28238.00
1547.775, 28482.00
1548.804, 28540.00
1549.834, 28638.00
1550.863, 28705.04
1551.892, 28830.00
1552.920, 28687.00
1553.949, 28644.00
1554.977, 28501.00
1556.006, 28480.00
1557.034, 28690.00
1558.062, 28479.00
1559.089, 28695.00
1560.117, 28526.00
1561.144, 28603.00
1562.172, 28615.00
1563.199, 28669.00
1564.226, 28641.00
1565.252, 28662.00
1566.279, 28683.00
1567.305, 28565.00
1568.332, 28667.00
1569.358, 28597.00
1570.384, 29042.00
##END=



