##NAMES=Brazilianite
##RRUFFID=R050319
##IDEAL CHEMISTRY=NaAl_3_(PO_4_)_2_(OH)_4_
##LOCALITY=Minas Gerais, Brazil
##OWNER=RRUFF
##SOURCE=American Museum of Natural History
##DESCRIPTION=Pale green fragment
##STATUS=The identification of this mineral has been confirmed by X-ray diffraction and chemical analysis
##URL=rruff.info/R050319
##MEASURED CHEMISTRY=Na_1.00_Al_3.00_(PO_4_)_2_(OH)_4_
##PIN_ID=M00275
##ORIENTATION=Laser parallel to b* (0 1 0). Fiducial mark perpendicular to laser is parallel to c [0 0 1]
78.65900, 7296.000
79.89500, 8576.000
81.13100, 9858.000
82.36700, 11283.00
83.60200, 12905.00
84.83700, 13889.00
86.07200, 14739.00
87.30800, 15159.00
88.54200, 15177.00
89.77700, 14596.00
91.01200, 14024.00
92.24600, 13301.00
93.48000, 12991.00
94.71400, 13379.00
95.94800, 14002.00
97.18200, 14412.00
98.41600, 14792.00
99.64900, 15608.00
100.8830, 17428.00
102.1160, 19782.00
103.3490, 21138.00
104.5820, 20806.00
105.8150, 18646.00
107.0470, 15830.00
108.2800, 13932.00
109.5120, 12541.00
110.7440, 11551.00
111.9760, 10834.00
113.2080, 10882.00
114.4400, 11100.00
115.6710, 10986.00
116.9030, 10700.00
118.1340, 10469.00
119.3650, 10343.00
120.5960, 9957.000
121.8270, 9911.000
123.0580, 9636.000
124.2880, 9636.000
125.5190, 9469.000
126.7490, 9610.000
127.9790, 9833.000
129.2090, 9682.000
130.4390, 9877.000
131.6680, 9950.000
132.8980, 9951.606
134.1270, 10105.04
135.3560, 10143.00
136.5850, 10251.00
137.8140, 10559.00
139.0430, 10549.00
140.2710, 10717.00
141.5000, 10986.00
142.7280, 11039.00
143.9560, 11372.00
145.1840, 11590.00
146.4120, 11685.00
147.6390, 11770.00
148.8670, 11555.00
150.0940, 11529.00
151.3210, 11430.00
152.5490, 11418.00
153.7750, 11364.00
155.0020, 11404.00
156.2290, 11516.00
157.4550, 11437.00
158.6810, 11790.00
159.9080, 11956.00
161.1340, 12480.00
162.3590, 13407.00
163.5850, 14274.00
164.8110, 15144.00
166.0360, 15790.00
167.2610, 16732.00
168.4860, 18366.00
169.7110, 20455.00
170.9360, 22470.00
172.1610, 23431.00
173.3850, 22151.00
174.6100, 19809.00
175.8340, 17333.00
177.0580, 15382.00
178.2820, 14023.00
179.5050, 13023.00
180.7290, 12466.00
181.9520, 12197.00
183.1760, 11962.00
184.3990, 11919.00
185.6220, 11880.00
186.8450, 11862.00
188.0670, 11827.00
189.2900, 11914.00
190.5120, 11973.32
191.7340, 12078.00
192.9560, 12221.00
194.1780, 12321.00
195.4000, 12500.00
196.6220, 12692.00
197.8430, 12803.00
199.0640, 12989.00
200.2860, 13114.00
201.5070, 13216.46
202.7270, 13314.63
203.9480, 13387.00
205.1690, 13463.00
206.3890, 13508.00
207.6090, 13615.00
208.8290, 13780.00
210.0490, 13973.00
211.2690, 13895.00
212.4890, 13967.00
213.7080, 13883.00
214.9280, 13978.00
216.1470, 13918.00
217.3660, 14158.00
218.5850, 14306.00
219.8030, 14041.00
221.0220, 14102.00
222.2400, 13889.00
223.4590, 13794.00
224.6770, 13630.00
225.8950, 13726.00
227.1120, 13942.00
228.3300, 14308.00
229.5480, 14452.00
230.7650, 14541.00
231.9820, 14362.00
233.1990, 14136.00
234.4160, 13876.00
235.6330, 13732.00
236.8490, 13642.00
238.0660, 13922.00
239.2820, 13754.00
240.4980, 14259.00
241.7140, 14561.00
242.9300, 14688.00
244.1460, 14971.00
245.3610, 14887.00
246.5770, 14778.00
247.7920, 14799.00
249.0070, 15031.00
250.2220, 15676.00
251.4370, 16321.00
252.6510, 16404.00
253.8660, 15931.00
255.0800, 15154.00
256.2940, 14344.00
257.5080, 13869.00
258.7220, 13465.00
259.9360, 13365.00
261.1490, 13357.00
262.3630, 13173.00
263.5760, 13305.00
264.7890, 13444.00
266.0020, 13599.00
267.2150, 13804.00
268.4270, 13956.86
269.6400, 14316.00
270.8520, 14376.00
272.0640, 14606.00
273.2760, 14962.00
274.4880, 15093.00
275.7000, 15210.00
276.9120, 15268.00
278.1230, 15419.80
279.3340, 15543.00
280.5450, 15682.00
281.7560, 15847.00
282.9670, 15987.00
284.1780, 16018.00
285.3880, 15780.00
286.5980, 15602.00
287.8090, 15116.00
289.0190, 14782.00
290.2290, 14450.00
291.4380, 14215.00
292.6480, 14082.00
293.8570, 13954.23
295.0670, 14572.00
296.2760, 13777.00
297.4850, 15181.00
298.6930, 15024.00
299.9020, 14040.00
301.1110, 14216.00
302.3190, 14408.00
303.5270, 14589.00
304.7350, 15246.00
305.9430, 15500.00
307.1510, 16000.00
308.3580, 16437.00
309.5660, 16969.00
310.7730, 17627.00
311.9800, 17928.00
313.1870, 18200.00
314.3940, 18341.00
315.6010, 18434.00
316.8070, 18296.00
318.0130, 18295.00
319.2200, 18283.00
320.4260, 18282.00
321.6310, 18237.00
322.8370, 17956.00
324.0430, 17688.00
325.2480, 17570.00
326.4540, 17319.29
327.6590, 17140.00
328.8640, 16958.00
330.0680, 16642.00
331.2730, 16485.00
332.4780, 16187.00
333.6820, 16136.00
334.8860, 16130.00
336.0900, 15947.00
337.2940, 15942.00
338.4980, 15898.00
339.7010, 15946.00
340.9050, 15942.00
342.1080, 16210.00
343.3110, 16185.00
344.5140, 16776.00
345.7170, 17209.00
346.9200, 17691.00
348.1220, 18520.00
349.3240, 19260.00
350.5270, 20278.00
351.7290, 21497.00
352.9310, 22392.00
354.1320, 23823.00
355.3340, 24610.00
356.5350, 25483.00
357.7370, 25820.00
358.9380, 25372.00
360.1390, 23892.00
361.3400, 22816.00
362.5400, 21246.00
363.7410, 19988.00
364.9410, 19005.00
366.1410, 18047.00
367.3410, 17409.00
368.5410, 16727.00
369.7410, 16355.00
370.9400, 15889.00
372.1400, 15415.00
373.3390, 15109.00
374.5380, 14914.00
375.7370, 14847.00
376.9360, 14792.00
378.1350, 14758.57
379.3330, 14939.00
380.5310, 14861.00
381.7300, 14977.00
382.9280, 15179.00
384.1260, 15044.00
385.3230, 15062.00
386.5210, 14943.00
387.7180, 14817.00
388.9160, 14935.00
390.1130, 15035.00
391.3100, 15148.00
392.5060, 15360.00
393.7030, 15537.00
394.9000, 15726.00
396.0960, 16055.00
397.2920, 16315.00
398.4880, 16637.00
399.6840, 17035.00
400.8800, 17367.00
402.0750, 17712.00
403.2710, 18129.71
404.4660, 18888.00
405.6610, 19024.00
406.8560, 19491.00
408.0510, 20096.00
409.2450, 20390.00
410.4400, 20708.00
411.6340, 20879.00
412.8280, 20734.00
414.0220, 20864.00
415.2160, 20531.00
416.4100, 20234.00
417.6030, 20028.00
418.7970, 19951.00
419.9900, 19660.00
421.1830, 19536.00
422.3760, 19683.00
423.5690, 19577.00
424.7610, 19373.00
425.9540, 19259.00
427.1460, 19032.00
428.3380, 19023.00
429.5300, 18964.00
430.7220, 19173.00
431.9140, 19291.00
433.1050, 19440.00
434.2970, 19562.00
435.4880, 19710.00
436.6790, 20030.00
437.8700, 20414.00
439.0610, 20311.00
440.2510, 20393.00
441.4420, 19983.00
442.6320, 19468.00
443.8220, 19035.00
445.0120, 18701.00
446.2020, 18323.00
447.3910, 18145.00
448.5810, 17902.00
449.7700, 17943.00
450.9600, 18048.00
452.1490, 17976.00
453.3370, 18135.00
454.5260, 18080.00
455.7150, 18320.00
456.9030, 18331.00
458.0910, 18422.00
459.2800, 18661.00
460.4670, 18798.00
461.6550, 19052.00
462.8430, 19229.00
464.0300, 19340.00
465.2180, 19606.00
466.4050, 19505.00
467.5920, 19475.00
468.7790, 19163.00
469.9650, 18884.00
471.1520, 18576.00
472.3380, 18255.00
473.5250, 17962.59
474.7110, 17465.00
475.8970, 17374.00
477.0820, 17103.00
478.2680, 16857.00
479.4540, 16773.00
480.6390, 16733.56
481.8240, 16759.82
483.0090, 16950.00
484.1940, 17015.00
485.3780, 17352.00
486.5630, 17571.00
487.7470, 17751.00
488.9320, 17899.00
490.1160, 18247.00
491.3000, 18793.00
492.4830, 19168.00
493.6670, 19600.00
494.8500, 20038.00
496.0340, 20763.00
497.2170, 21263.00
498.4000, 21691.00
499.5820, 22247.00
500.7650, 22514.00
501.9480, 22918.00
503.1300, 23041.00
504.3120, 23205.00
505.4940, 23204.00
506.6760, 23469.00
507.8580, 23556.00
509.0390, 23673.00
510.2210, 23690.00
511.4020, 23997.00
512.5830, 24340.00
513.7640, 24435.00
514.9450, 24460.00
516.1250, 24873.00
517.3060, 25242.00
518.4860, 25337.00
519.6660, 25715.00
520.8460, 26243.00
522.0260, 26953.00
523.2060, 27504.00
524.3850, 28434.00
525.5650, 29158.00
526.7440, 29793.00
527.9230, 30480.00
529.1020, 31054.00
530.2810, 31728.00
531.4590, 31866.00
532.6380, 31917.00
533.8160, 31818.00
534.9940, 31429.00
536.1720, 30979.00
537.3500, 30170.00
538.5270, 29440.00
539.7050, 28806.00
540.8820, 28114.00
542.0590, 27503.00
543.2360, 26906.00
544.4130, 26684.00
545.5900, 26602.00
546.7660, 26800.00
547.9430, 26922.00
549.1190, 27751.00
550.2950, 28299.00
551.4710, 29091.00
552.6470, 30349.00
553.8220, 31753.00
554.9980, 33168.00
556.1730, 34665.00
557.3480, 35727.00
558.5230, 36381.00
559.6980, 36971.00
560.8730, 37429.00
562.0470, 37593.00
563.2220, 37444.89
564.3960, 37053.98
565.5700, 36323.00
566.7440, 35414.00
567.9170, 34023.00
569.0910, 32520.00
570.2640, 31201.00
571.4380, 29325.00
572.6110, 28193.00
573.7840, 27021.00
574.9570, 25997.00
576.1290, 25375.00
577.3020, 24852.00
578.4740, 24521.00
579.6460, 24464.51
580.8180, 24504.55
581.9900, 24784.00
583.1620, 25219.00
584.3330, 25634.00
585.5040, 26453.00
586.6760, 27571.00
587.8470, 28632.00
589.0180, 30323.00
590.1880, 31849.00
591.3590, 33683.00
592.5290, 35875.00
593.7000, 37994.00
594.8700, 40074.00
596.0400, 41224.00
597.2090, 42513.00
598.3790, 43018.00
599.5490, 42047.00
600.7180, 40360.00
601.8870, 37848.00
603.0560, 34905.00
604.2250, 32456.00
605.3940, 30258.00
606.5620, 28373.00
607.7300, 27045.00
608.8990, 26011.00
610.0670, 25026.00
611.2350, 24040.00
612.4020, 23573.00
613.5700, 23230.00
614.7370, 22989.00
615.9050, 22398.00
617.0720, 22116.00
618.2390, 21803.00
619.4060, 21548.00
620.5720, 21315.06
621.7390, 21094.00
622.9050, 20920.00
624.0710, 20827.00
625.2370, 20700.00
626.4030, 20956.00
627.5690, 21064.00
628.7340, 21102.00
629.9000, 21262.00
631.0650, 21266.00
632.2300, 21234.00
633.3950, 21443.00
634.5600, 21325.00
635.7240, 21277.00
636.8890, 21134.00
638.0530, 20998.00
639.2170, 21051.00
640.3810, 20753.00
641.5450, 20727.00
642.7080, 20482.00
643.8720, 20483.00
645.0350, 20341.00
646.1980, 20661.00
647.3610, 20565.00
648.5240, 20736.00
649.6870, 21038.00
650.8490, 21044.00
652.0120, 21306.00
653.1740, 21486.00
654.3360, 21608.00
655.4980, 21883.00
656.6600, 22128.00
657.8210, 22325.00
658.9830, 22472.00
660.1440, 22070.00
661.3050, 22157.00
662.4660, 21584.00
663.6270, 21491.00
664.7870, 21100.00
665.9480, 20675.00
667.1080, 20293.00
668.2680, 19831.00
669.4280, 19538.00
670.5880, 19134.00
671.7480, 18982.00
672.9070, 18843.00
674.0670, 18434.00
675.2260, 18154.00
676.3850, 18101.00
677.5440, 18081.00
678.7030, 17945.00
679.8610, 17935.00
681.0200, 17847.18
682.1780, 17640.00
683.3360, 17662.00
684.4940, 17591.00
685.6520, 17418.00
686.8090, 17483.00
687.9670, 17388.00
689.1240, 17495.00
690.2810, 17654.00
691.4380, 17325.00
692.5950, 17298.00
693.7520, 17212.00
694.9080, 17458.00
696.0650, 17403.00
697.2210, 17486.00
698.3770, 17192.00
699.5330, 17352.00
700.6880, 17267.00
701.8440, 17352.00
702.9990, 17380.00
704.1550, 17302.00
705.3100, 17484.00
706.4650, 17439.00
707.6190, 17313.00
708.7740, 17340.00
709.9290, 17531.00
711.0830, 17520.00
712.2370, 17573.00
713.3910, 17551.00
714.5450, 17710.00
715.6980, 17687.00
716.8520, 17873.00
718.0050, 17713.00
719.1580, 17705.00
720.3110, 17824.00
721.4640, 18062.00
722.6170, 17788.00
723.7700, 17907.00
724.9220, 18094.00
726.0740, 17964.00
727.2260, 17691.00
728.3780, 17863.00
729.5300, 17864.00
730.6810, 17842.00
731.8330, 17930.00
732.9840, 17926.00
734.1350, 18007.00
735.2860, 18006.00
736.4370, 17917.00
737.5880, 18113.00
738.7380, 17922.00
739.8880, 17944.00
741.0390, 17946.00
742.1890, 17961.00
743.3380, 18029.00
744.4880, 18084.00
745.6380, 18136.00
746.7870, 18047.00
747.9360, 18198.00
749.0850, 18284.00
750.2340, 18124.00
751.3830, 18316.00
752.5310, 18224.00
753.6800, 18118.00
754.8280, 18169.00
755.9760, 18140.95
757.1240, 18240.00
758.2720, 18229.00
759.4190, 18364.00
760.5670, 18454.00
761.7140, 18480.00
762.8610, 18532.72
764.0080, 18550.07
765.1550, 18506.00
766.3020, 18569.00
767.4480, 18463.00
768.5950, 18483.00
769.7410, 18691.00
770.8870, 18479.00
772.0330, 18611.00
773.1780, 18578.00
774.3240, 18416.00
775.4690, 18343.00
776.6140, 18456.00
777.7590, 18396.00
778.9040, 18471.00
780.0490, 18554.00
781.1940, 18620.00
782.3380, 18585.00
783.4820, 18478.00
784.6260, 18403.00
785.7700, 18559.00
786.9140, 18611.00
788.0580, 18481.00
789.2010, 18689.00
790.3450, 18499.00
791.4880, 18451.00
792.6310, 18635.00
793.7730, 18538.00
794.9160, 18526.00
796.0590, 18606.00
797.2010, 18481.00
798.3430, 18626.00
799.4850, 18649.00
800.6270, 18623.00
801.7690, 18751.00
802.9100, 18745.00
804.0520, 18664.00
805.1930, 18491.00
806.3340, 18468.00
807.4750, 18599.00
808.6160, 18759.00
809.7560, 18727.00
810.8970, 18779.89
812.0370, 18699.00
813.1770, 18684.00
814.3170, 18779.00
815.4570, 18630.00
816.5960, 18529.00
817.7360, 18920.00
818.8750, 18952.00
820.0140, 18864.00
821.1530, 18847.00
822.2920, 18932.00
823.4310, 18929.00
824.5690, 18975.47
825.7070, 18998.37
826.8460, 19028.00
827.9840, 19042.00
829.1220, 18994.00
830.2590, 19039.00
831.3970, 18960.00
832.5340, 18943.00
833.6710, 18906.00
834.8080, 18892.00
835.9450, 19080.00
837.0820, 18991.00
838.2190, 19083.00
839.3550, 19293.00
840.4910, 19231.00
841.6270, 19070.00
842.7630, 19195.00
843.8990, 19106.00
845.0350, 19250.00
846.1700, 19279.00
847.3060, 19219.00
848.4410, 19423.00
849.5760, 19180.00
850.7100, 19193.00
851.8450, 19458.00
852.9800, 19329.00
854.1140, 19272.00
855.2480, 19205.00
856.3820, 19599.00
857.5160, 19565.00
858.6500, 19481.00
859.7830, 19420.00
860.9170, 19274.00
862.0500, 19504.00
863.1830, 19843.00
864.3160, 19503.00
865.4480, 19624.00
866.5810, 19610.00
867.7130, 19558.00
868.8460, 19731.00
869.9780, 19943.00
871.1100, 19618.00
872.2410, 19488.00
873.3730, 19656.00
874.5050, 19640.00
875.6360, 19667.00
876.7670, 19729.00
877.8980, 19741.51
879.0290, 19883.00
880.1590, 19785.00
881.2900, 19891.00
882.4200, 19849.00
883.5500, 19934.00
884.6800, 19892.00
885.8100, 19930.00
886.9400, 19821.00
888.0690, 20053.00
889.1990, 19940.00
890.3280, 19980.00
891.4570, 20099.00
892.5860, 19955.00
893.7140, 19989.00
894.8430, 19892.00
895.9710, 20049.00
897.1000, 20128.00
898.2280, 20206.00
899.3560, 20280.46
900.4830, 20353.00
901.6110, 20348.00
902.7380, 20243.00
903.8660, 20205.00
904.9930, 20178.00
906.1200, 20295.00
907.2460, 20322.36
908.3730, 20545.00
909.5000, 20518.00
910.6260, 20548.00
911.7520, 20669.00
912.8780, 20626.00
914.0040, 20648.00
915.1290, 20647.00
916.2550, 20647.00
917.3800, 20748.00
918.5050, 20879.00
919.6300, 20939.00
920.7550, 21055.00
921.8800, 21127.00
923.0040, 21235.22
924.1290, 21306.00
925.2530, 21342.00
926.3770, 21355.00
927.5010, 21454.14
928.6250, 21501.00
929.7480, 21627.00
930.8720, 21858.00
931.9950, 21954.00
933.1180, 22275.00
934.2410, 22465.00
935.3640, 22806.00
936.4860, 22608.00
937.6090, 23302.00
938.7310, 23245.00
939.8530, 23655.00
940.9750, 24118.00
942.0970, 24278.00
943.2180, 24887.00
944.3400, 25207.00
945.4610, 25587.00
946.5820, 25907.00
947.7030, 26493.00
948.8240, 26656.00
949.9450, 26904.00
951.0650, 27146.00
952.1860, 27112.00
953.3060, 27073.00
954.4260, 27431.00
955.5460, 27431.00
956.6650, 27510.00
957.7850, 27587.00
958.9040, 28012.00
960.0230, 28420.00
961.1420, 28798.00
962.2610, 29281.00
963.3800, 30118.00
964.4990, 31411.00
965.6170, 32396.00
966.7350, 33620.00
967.8530, 35180.00
968.9710, 36626.00
970.0890, 38157.00
971.2070, 39394.00
972.3240, 40360.00
973.4410, 40710.00
974.5580, 41255.00
975.6750, 40997.00
976.7920, 41007.00
977.9090, 41004.00
979.0250, 41692.00
980.1410, 41697.00
981.2580, 42538.00
982.3740, 43946.00
983.4890, 45538.00
984.6050, 46874.00
985.7200, 48507.00
986.8360, 49217.00
987.9510, 49525.00
989.0660, 49238.00
990.1810, 47432.00
991.2950, 45501.00
992.4100, 43224.00
993.5240, 40836.00
994.6390, 38873.00
995.7530, 37225.00
996.8660, 35701.00
997.9800, 34554.00
999.0940, 33869.56
1000.207, 33715.00
1001.320, 33543.00
1002.433, 33619.00
1003.546, 33871.14
1004.659, 34157.00
1005.772, 34975.00
1006.884, 35714.00
1007.996, 36981.00
1009.108, 38559.00
1010.220, 40808.00
1011.332, 42773.00
1012.444, 45460.00
1013.555, 48414.00
1014.666, 50890.00
1015.777, 53618.00
1016.888, 55809.00
1017.999, 57509.00
1019.110, 58271.00
1020.220, 58057.00
1021.331, 57096.00
1022.441, 55580.00
1023.551, 53904.00
1024.661, 51763.00
1025.770, 49445.00
1026.880, 47980.00
1027.989, 46180.00
1029.098, 44756.00
1030.207, 43462.00
1031.316, 42254.83
1032.425, 41240.00
1033.533, 40450.00
1034.642, 40044.00
1035.750, 39637.00
1036.858, 38618.00
1037.966, 38247.00
1039.073, 37627.00
1040.181, 37162.00
1041.288, 36309.00
1042.396, 35679.00
1043.503, 35014.00
1044.610, 34109.00
1045.716, 33624.00
1046.823, 32750.00
1047.929, 31989.00
1049.036, 31205.00
1050.142, 30859.00
1051.248, 30386.00
1052.353, 29950.00
1053.459, 29637.79
1054.564, 29175.00
1055.670, 29053.00
1056.775, 28911.00
1057.880, 28754.00
1058.985, 29226.00
1060.089, 29202.00
1061.194, 29604.00
1062.298, 29714.00
1063.402, 30496.00
1064.506, 30932.00
1065.610, 31727.00
1066.713, 32099.00
1067.817, 32965.00
1068.920, 33511.00
1070.023, 33978.00
1071.126, 34724.00
1072.229, 34780.00
1073.332, 34901.00
1074.435, 34957.00
1075.537, 34749.00
1076.639, 34906.00
1077.741, 34732.00
1078.843, 34404.00
1079.945, 34420.00
1081.046, 34261.00
1082.148, 33918.00
1083.249, 33651.00
1084.350, 33454.00
1085.451, 32853.00
1086.551, 32678.00
1087.652, 32097.00
1088.752, 31792.00
1089.853, 31636.00
1090.953, 30976.00
1092.053, 30462.00
1093.152, 30542.00
1094.252, 29868.00
1095.351, 29613.00
1096.451, 29592.00
1097.550, 29077.00
1098.649, 29001.00
1099.748, 28958.00
1100.846, 28959.00
1101.945, 28730.00
1103.043, 29035.00
1104.141, 29258.00
1105.239, 29145.00
1106.337, 29591.00
1107.434, 29812.00
1108.532, 30797.00
1109.629, 31690.00
1110.726, 32731.00
1111.823, 34129.00
1112.920, 35546.00
1114.017, 36750.00
1115.113, 37625.00
1116.210, 38134.00
1117.306, 38019.00
1118.402, 37175.00
1119.498, 35782.00
1120.593, 34002.00
1121.689, 32902.00
1122.784, 32051.00
1123.879, 30974.00
1124.974, 29852.00
1126.069, 29105.00
1127.164, 28458.00
1128.259, 27562.00
1129.353, 27259.00
1130.447, 26847.00
1131.541, 26279.00
1132.635, 26100.00
1133.729, 25757.00
1134.822, 25743.00
1135.916, 25679.00
1137.009, 25259.00
1138.102, 25342.00
1139.195, 25099.00
1140.288, 25135.00
1141.380, 25178.00
1142.473, 25039.00
1143.565, 25117.00
1144.657, 24861.00
1145.749, 25027.00
1146.841, 25035.00
1147.932, 24825.00
1149.024, 24874.00
1150.115, 24683.00
1151.206, 24612.00
1152.297, 24745.00
1153.388, 24599.00
1154.479, 24733.00
1155.569, 24405.00
1156.659, 24579.00
1157.750, 24557.00
1158.839, 24647.00
1159.929, 24686.00
1161.019, 24536.00
1162.108, 24462.00
1163.198, 24348.00
1164.287, 24428.00
1165.376, 24489.00
1166.465, 24264.00
1167.553, 24338.00
1168.642, 24233.00
1169.730, 24258.00
1170.818, 24229.00
1171.906, 24296.00
1172.994, 24386.00
1174.082, 24313.00
1175.170, 24311.00
1176.257, 24254.00
1177.344, 24240.00
1178.431, 24025.00
1179.518, 24117.00
1180.605, 24032.00
1181.691, 24191.00
1182.778, 24109.00
1183.864, 23996.00
1184.950, 24156.00
1186.036, 24114.00
1187.122, 24152.00
1188.207, 24331.00
1189.292, 24262.00
1190.378, 24104.00
1191.463, 24048.00
1192.548, 24047.94
1193.632, 24291.00
1194.717, 24094.00
1195.801, 24233.00
1196.886, 24244.00
1197.970, 24309.00
1199.054, 24311.00
1200.137, 24133.00
1201.221, 24304.00
1202.305, 24233.71
1203.388, 24109.00
1204.471, 24310.00
1205.554, 24252.00
1206.637, 24394.00
1207.719, 24163.00
1208.802, 24399.00
1209.884, 24397.00
1210.966, 24465.00
1212.048, 24312.00
1213.130, 24310.00
1214.212, 24348.00
1215.293, 24309.00
1216.374, 24315.23
1217.456, 24456.00
1218.536, 24312.00
1219.617, 24324.00
1220.698, 24373.00
1221.778, 24248.00
1222.859, 24166.00
1223.939, 24392.00
1225.019, 24451.00
1226.099, 24346.00
1227.178, 24350.00
1228.258, 24364.00
1229.337, 24315.57
1230.417, 24345.98
1231.496, 24352.00
1232.574, 24366.00
1233.653, 24389.87
1234.732, 24540.00
1235.810, 24431.00
1236.888, 24560.00
1237.966, 24588.00
1239.044, 24327.00
1240.122, 24636.00
1241.199, 24537.00
1242.277, 24668.00
1243.354, 24544.00
1244.431, 24454.00
1245.508, 24605.00
1246.585, 24598.00
1247.661, 24605.00
1248.738, 24634.01
1249.814, 24485.00
1250.890, 24577.00
1251.966, 24611.00
1253.042, 24524.00
1254.117, 24830.00
1255.193, 24715.00
1256.268, 24831.00
1257.343, 24607.00
1258.418, 24797.00
1259.493, 24876.00
1260.567, 24785.00
1261.642, 24843.00
1262.716, 24865.00
1263.790, 24793.00
1264.864, 24763.00
1265.938, 24722.06
1267.011, 24698.25
1268.085, 24672.00
1269.158, 24692.00
1270.231, 24792.00
1271.304, 24841.00
1272.377, 24888.36
1273.450, 24945.00
1274.522, 24925.00
1275.594, 24973.00
1276.666, 24862.00
1277.738, 24925.00
1278.810, 24852.00
1279.882, 24921.00
1280.953, 24942.00
1282.025, 24918.00
1283.096, 24804.00
1284.167, 25021.00
1285.238, 24830.00
1286.308, 25171.00
1287.379, 25083.00
1288.449, 24939.00
1289.519, 25140.00
1290.589, 25144.00
1291.659, 25147.00
1292.729, 25197.00
1293.798, 25106.00
1294.868, 25247.00
1295.937, 25481.00
1297.006, 25240.00
1298.075, 25284.00
1299.143, 25200.00
1300.212, 25363.00
1301.280, 25332.00
1302.348, 25285.00
1303.416, 25290.00
1304.484, 25379.00
1305.552, 25350.00
1306.620, 25380.00
1307.687, 25511.00
1308.754, 25493.00
1309.821, 25282.00
1310.888, 25349.00
1311.955, 25329.00
1313.021, 25417.00
1314.088, 25388.45
1315.154, 25521.00
1316.220, 25394.00
1317.286, 25404.00
1318.352, 25501.00
1319.417, 25513.00
1320.483, 25474.00
1321.548, 25456.00
1322.613, 25637.00
1323.678, 25418.00
1324.743, 25625.00
1325.807, 25539.00
1326.872, 25646.00
1327.936, 25463.00
1329.000, 25788.00
1330.064, 25606.00
1331.128, 25629.00
1332.191, 25726.00
1333.255, 25820.00
1334.318, 25677.00
1335.381, 25819.00
1336.444, 25759.00
1337.507, 25747.00
1338.569, 25584.00
1339.632, 25584.00
1340.694, 25703.00
1341.756, 25766.00
1342.818, 25959.00
1343.880, 25829.00
1344.941, 26023.00
1346.003, 25820.00
1347.064, 25791.00
1348.125, 25827.00
1349.186, 25726.00
1350.247, 25788.00
1351.308, 25959.00
1352.368, 25905.00
1353.428, 25993.56
1354.489, 26113.00
1355.549, 26071.00
1356.608, 25926.00
1357.668, 25982.00
1358.727, 26041.00
1359.787, 26078.00
1360.846, 25826.00
1361.905, 26112.00
1362.964, 25867.00
1364.022, 26068.00
1365.081, 26215.00
1366.139, 25855.00
1367.197, 26069.00
1368.255, 26043.00
1369.313, 26084.00
1370.371, 26260.00
1371.428, 25907.00
1372.486, 26089.00
1373.543, 26370.00
1374.600, 26205.00
1375.657, 26105.00
1376.713, 26130.00
1377.770, 25958.00
1378.826, 26044.00
1379.882, 26112.00
1380.938, 26184.00
1381.994, 26098.00
1383.050, 26235.00
1384.106, 26053.00
1385.161, 26154.00
1386.216, 26356.00
1387.271, 26270.00
1388.326, 26310.00
1389.381, 26223.00
1390.435, 26459.00
1391.490, 26261.00
1392.544, 26288.00
1393.598, 26481.00
1394.652, 26328.00
1395.705, 26442.00
1396.759, 26508.00
1397.812, 26320.00
1398.866, 26191.00
1399.919, 26374.00
1400.972, 26236.98
1402.024, 26405.00
1403.077, 26282.00
1404.129, 26346.00
1405.181, 26483.00
1406.233, 26513.00
1407.285, 26634.00
1408.337, 26547.00
1409.389, 26437.00
1410.440, 26890.00
1411.491, 26493.00
1412.542, 26562.00
1413.593, 26749.00
1414.644, 26593.00
1415.695, 26714.00
1416.745, 26414.00
1417.795, 26538.00
1418.845, 26633.00
1419.895, 26497.00
1420.945, 26544.00
1421.995, 26680.00
1423.044, 26489.00
1424.093, 26905.00
1425.142, 26728.00
1426.191, 26702.00
1427.240, 26784.00
1428.289, 26959.00
1429.337, 26821.00
1430.385, 26907.00
1431.433, 26742.00
1432.481, 26730.00
1433.529, 26785.00
1434.577, 27106.00
1435.624, 26893.00
1436.672, 27032.00
1437.719, 26837.00
1438.766, 27245.00
1439.812, 27089.00
1440.859, 27077.00
1441.905, 27063.00
1442.952, 27053.00
1443.998, 27060.00
1445.044, 26993.00
1446.090, 27053.00
1447.135, 27058.60
1448.181, 27003.00
1449.226, 27099.00
1450.271, 27175.00
1451.316, 27126.00
1452.361, 27311.00
1453.405, 27230.00
1454.450, 27426.00
1455.494, 27561.00
1456.538, 27383.00
1457.582, 27199.00
1458.626, 27375.00
1459.670, 27269.00
1460.713, 27212.00
1461.757, 27257.00
1462.800, 27189.00
1463.843, 27217.00
1464.886, 27529.00
1465.928, 27528.00
1466.971, 27474.00
1468.013, 27279.00
1469.055, 27350.00
1470.097, 27455.00
1471.139, 27436.00
1472.181, 27582.00
1473.222, 27665.00
1474.263, 27493.00
1475.305, 27657.00
1476.346, 27572.00
1477.386, 27707.00
1478.427, 27389.00
1479.468, 27638.00
1480.508, 27439.00
1481.548, 27598.00
1482.588, 27524.00
1483.628, 27709.00
1484.668, 27761.00
1485.707, 27742.00
1486.747, 27527.00
1487.786, 27658.00
1488.825, 27732.00
1489.864, 27607.00
1490.902, 27761.00
1491.941, 27712.00
1492.979, 27666.00
1494.017, 27644.00
1495.055, 27666.00
1496.093, 27817.00
1497.131, 27751.00
1498.168, 27850.00
1499.206, 27798.00
1500.243, 27969.00
1501.280, 27734.00
1502.317, 27645.00
1503.354, 27935.00
1504.390, 27976.00
1505.426, 27482.00
1506.463, 27832.00
1507.499, 27787.00
1508.535, 28057.00
1509.570, 27995.00
1510.606, 27879.00
1511.641, 27903.00
1512.676, 27889.38
1513.711, 28014.00
1514.746, 27965.00
1515.781, 28025.00
1516.816, 28085.00
1517.850, 28129.00
1518.884, 28116.00
1519.918, 28268.00
1520.952, 27868.00
1521.986, 27932.00
1523.019, 28013.00
1524.053, 28112.00
1525.086, 28211.00
1526.119, 28124.00
1527.152, 28158.00
1528.185, 28101.00
1529.217, 28145.00
1530.250, 28296.00
1531.282, 28292.00
1532.314, 28149.00
1533.346, 28269.00
1534.377, 28116.00
1535.409, 28430.00
1536.440, 28362.00
1537.472, 28331.00
1538.503, 28455.00
1539.534, 28151.00
1540.564, 28395.00
1541.595, 28277.00
1542.625, 28248.00
1543.656, 28295.00
1544.686, 28198.89
1545.716, 28255.00
1546.745, 28167.00
1547.775, 28343.00
1548.804, 28478.00
1549.834, 28537.00
1550.863, 28543.00
1551.892, 28494.00
1552.920, 28507.00
1553.949, 28462.70
1554.977, 28399.00
1556.006, 28402.00
1557.034, 28445.00
1558.062, 28459.00
1559.089, 28615.00
1560.117, 28527.00
1561.144, 28786.00
1562.172, 28509.00
1563.199, 28602.00
1564.226, 28770.00
1565.252, 28778.00
1566.279, 28752.00
1567.305, 28778.00
1568.332, 28646.00
1569.358, 28696.00
1570.384, 28787.00
##END=



