##NAMES=Brazilianite
##RRUFFID=R050319
##IDEAL CHEMISTRY=NaAl_3_(PO_4_)_2_(OH)_4_
##LOCALITY=Minas Gerais, Brazil
##OWNER=RRUFF
##SOURCE=American Museum of Natural History
##DESCRIPTION=Pale green fragment
##STATUS=The identification of this mineral has been confirmed by X-ray diffraction and chemical analysis
##URL=rruff.info/R050319
##MEASURED CHEMISTRY=Na_1.00_Al_3.00_(PO_4_)_2_(OH)_4_
##PIN_ID=M00183
##ORIENTATION=Laser parallel to a* (1 0 0). Fiducial mark perpendicular to laser is parallel to -b [0 -1 0]
86.07200, 8356.000
87.30800, 8728.000
88.54200, 8905.000
89.77700, 9112.000
91.01200, 9233.000
92.24600, 9380.000
93.48000, 9274.000
94.71400, 9420.000
95.94800, 9503.000
97.18200, 9725.000
98.41600, 9822.000
99.64900, 10078.00
100.8830, 10501.00
102.1160, 10663.00
103.3490, 10860.00
104.5820, 11030.00
105.8150, 11252.00
107.0470, 11378.00
108.2800, 11354.00
109.5120, 11270.00
110.7440, 11161.00
111.9760, 11029.00
113.2080, 10984.00
114.4400, 11244.00
115.6710, 11093.00
116.9030, 11049.00
118.1340, 10795.00
119.3650, 10497.00
120.5960, 10459.00
121.8270, 10254.00
123.0580, 10406.00
124.2880, 10291.00
125.5190, 10256.00
126.7490, 10596.00
127.9790, 10581.39
129.2090, 10622.49
130.4390, 10807.00
131.6680, 10642.00
132.8980, 10554.00
134.1270, 10611.00
135.3560, 11041.00
136.5850, 11029.00
137.8140, 11391.00
139.0430, 11625.00
140.2710, 11894.00
141.5000, 12102.00
142.7280, 12418.00
143.9560, 12640.00
145.1840, 12692.00
146.4120, 13023.00
147.6390, 13346.00
148.8670, 12440.00
150.0940, 12141.00
151.3210, 12102.00
152.5490, 12023.00
153.7750, 11936.00
155.0020, 11883.00
156.2290, 12055.00
157.4550, 12398.00
158.6810, 12630.00
159.9080, 13017.00
161.1340, 13765.00
162.3590, 14596.00
163.5850, 15614.00
164.8110, 16201.00
166.0360, 16708.00
167.2610, 17270.00
168.4860, 18297.00
169.7110, 19051.00
170.9360, 19266.00
172.1610, 19259.00
173.3850, 18951.00
174.6100, 18249.00
175.8340, 16945.00
177.0580, 15574.00
178.2820, 14556.00
179.5050, 13596.00
180.7290, 13120.00
181.9520, 12748.00
183.1760, 12535.00
184.3990, 12305.00
185.6220, 12438.00
186.8450, 12548.00
188.0670, 12496.00
189.2900, 12423.00
190.5120, 12612.00
191.7340, 12433.00
192.9560, 12719.00
194.1780, 12771.00
195.4000, 12774.00
196.6220, 12834.00
197.8430, 12824.00
199.0640, 12806.07
200.2860, 12693.00
201.5070, 12734.00
202.7270, 12661.00
203.9480, 12616.00
205.1690, 12285.00
206.3890, 12448.00
207.6090, 12234.00
208.8290, 12604.00
210.0490, 12819.00
211.2690, 12929.00
212.4890, 13080.00
213.7080, 13196.00
214.9280, 13436.00
216.1470, 13858.00
217.3660, 13693.00
218.5850, 13874.00
219.8030, 13994.00
221.0220, 13711.00
222.2400, 13688.00
223.4590, 13558.00
224.6770, 13375.00
225.8950, 13387.00
227.1120, 13326.00
228.3300, 13401.00
229.5480, 13375.00
230.7650, 13471.00
231.9820, 13602.00
233.1990, 13508.00
234.4160, 13776.00
235.6330, 13787.00
236.8490, 13971.00
238.0660, 14139.00
239.2820, 14417.00
240.4980, 14570.00
241.7140, 14821.00
242.9300, 15178.00
244.1460, 15649.00
245.3610, 15907.00
246.5770, 16165.00
247.7920, 16419.00
249.0070, 16667.00
250.2220, 17196.00
251.4370, 17348.00
252.6510, 17190.00
253.8660, 17086.00
255.0800, 16431.00
256.2940, 15524.00
257.5080, 14892.00
258.7220, 14158.00
259.9360, 13850.00
261.1490, 13471.00
262.3630, 13166.00
263.5760, 13174.00
264.7890, 13349.00
266.0020, 13493.00
267.2150, 13590.00
268.4270, 13767.00
269.6400, 13936.46
270.8520, 14151.00
272.0640, 14335.00
273.2760, 14552.00
274.4880, 14782.00
275.7000, 14786.00
276.9120, 14781.00
278.1230, 14639.00
279.3340, 14582.00
280.5450, 14391.00
281.7560, 14319.00
282.9670, 14360.00
284.1780, 14361.00
285.3880, 14548.00
286.5980, 14786.00
287.8090, 15051.00
289.0190, 15415.00
290.2290, 15598.00
291.4380, 15776.00
292.6480, 15905.00
293.8570, 15981.00
295.0670, 15851.67
296.2760, 15764.00
297.4850, 15378.00
298.6930, 15148.00
299.9020, 14742.00
301.1110, 14535.00
302.3190, 14310.00
303.5270, 14316.00
304.7350, 14267.00
305.9430, 14274.00
307.1510, 14388.00
308.3580, 14473.00
309.5660, 14812.00
310.7730, 14759.00
311.9800, 14811.00
313.1870, 15086.00
314.3940, 15026.00
315.6010, 14825.00
316.8070, 14793.00
318.0130, 14579.00
319.2200, 14376.00
320.4260, 14171.00
321.6310, 14183.00
322.8370, 13848.00
324.0430, 13872.00
325.2480, 13641.00
326.4540, 13827.00
327.6590, 13628.00
328.8640, 13761.00
330.0680, 13576.00
331.2730, 13555.00
332.4780, 13668.00
333.6820, 13596.00
334.8860, 13627.00
336.0900, 13528.00
337.2940, 13585.00
338.4980, 13689.00
339.7010, 13610.00
340.9050, 13740.00
342.1080, 13824.00
343.3110, 13745.00
344.5140, 13952.00
345.7170, 14192.00
346.9200, 14181.00
348.1220, 14496.00
349.3240, 14422.00
350.5270, 14746.00
351.7290, 14837.00
352.9310, 15203.00
354.1320, 15413.00
355.3340, 15641.00
356.5350, 15724.00
357.7370, 15801.00
358.9380, 15558.00
360.1390, 15569.00
361.3400, 15252.00
362.5400, 15115.00
363.7410, 14971.00
364.9410, 14892.00
366.1410, 14914.00
367.3410, 14895.00
368.5410, 15002.00
369.7410, 15024.00
370.9400, 14955.00
372.1400, 14982.00
373.3390, 15118.00
374.5380, 15142.00
375.7370, 15012.00
376.9360, 14884.00
378.1350, 14795.82
379.3330, 14708.00
380.5310, 14518.00
381.7300, 14505.00
382.9280, 14353.00
384.1260, 14314.00
385.3230, 14293.33
386.5210, 14335.00
387.7180, 14296.00
388.9160, 14326.00
390.1130, 14373.00
391.3100, 14531.00
392.5060, 14640.00
393.7030, 14442.00
394.9000, 14294.00
396.0960, 14685.00
397.2920, 14596.00
398.4880, 14751.00
399.6840, 14795.00
400.8800, 15054.00
402.0750, 15043.00
403.2710, 15443.00
404.4660, 15467.00
405.6610, 15711.00
406.8560, 15986.00
408.0510, 15965.00
409.2450, 16235.00
410.4400, 16129.00
411.6340, 16270.00
412.8280, 16293.00
414.0220, 16367.00
415.2160, 16252.00
416.4100, 16273.00
417.6030, 16185.00
418.7970, 16023.00
419.9900, 15927.00
421.1830, 15901.00
422.3760, 15942.00
423.5690, 16083.00
424.7610, 16345.00
425.9540, 16568.43
427.1460, 16943.00
428.3380, 17261.00
429.5300, 17819.00
430.7220, 18333.00
431.9140, 18960.00
433.1050, 19351.00
434.2970, 20163.00
435.4880, 21027.00
436.6790, 21366.00
437.8700, 22033.00
439.0610, 22012.00
440.2510, 21970.00
441.4420, 21616.00
442.6320, 21030.00
443.8220, 20560.00
445.0120, 20092.00
446.2020, 19717.42
447.3910, 19219.00
448.5810, 19217.00
449.7700, 19215.00
450.9600, 19304.00
452.1490, 19802.00
453.3370, 19996.00
454.5260, 20433.00
455.7150, 21041.00
456.9030, 21485.00
458.0910, 22034.00
459.2800, 22629.00
460.4670, 23208.00
461.6550, 23747.00
462.8430, 23904.00
464.0300, 24425.00
465.2180, 24126.00
466.4050, 24260.00
467.5920, 23906.00
468.7790, 23129.00
469.9650, 22703.00
471.1520, 22169.00
472.3380, 21581.00
473.5250, 21012.00
474.7110, 20545.00
475.8970, 20560.00
477.0820, 20238.00
478.2680, 20475.00
479.4540, 20454.00
480.6390, 20645.00
481.8240, 20833.00
483.0090, 20773.00
484.1940, 21006.00
485.3780, 20808.00
486.5630, 20793.00
487.7470, 20744.00
488.9320, 20870.00
490.1160, 21085.00
491.3000, 21155.00
492.4830, 21360.00
493.6670, 21701.00
494.8500, 22105.00
496.0340, 22162.00
497.2170, 22655.00
498.4000, 22781.00
499.5820, 23346.00
500.7650, 23499.00
501.9480, 23727.00
503.1300, 23729.00
504.3120, 23870.00
505.4940, 24108.00
506.6760, 23983.00
507.8580, 24092.00
509.0390, 24125.00
510.2210, 24068.00
511.4020, 24034.00
512.5830, 24100.00
513.7640, 24037.00
514.9450, 23981.00
516.1250, 24012.00
517.3060, 23838.00
518.4860, 23927.00
519.6660, 23879.00
520.8460, 23951.00
522.0260, 24337.00
523.2060, 24457.00
524.3850, 24828.00
525.5650, 24902.00
526.7440, 25291.00
527.9230, 25625.00
529.1020, 25863.00
530.2810, 26036.50
531.4590, 26127.67
532.6380, 26160.00
533.8160, 26084.00
534.9940, 25970.00
536.1720, 25772.00
537.3500, 25574.00
538.5270, 25422.00
539.7050, 25124.00
540.8820, 24812.00
542.0590, 24701.00
543.2360, 24650.00
544.4130, 24787.00
545.5900, 24990.00
546.7660, 25337.00
547.9430, 25922.39
549.1190, 26680.00
550.2950, 27506.00
551.4710, 28416.00
552.6470, 29579.00
553.8220, 30767.00
554.9980, 32161.00
556.1730, 32976.00
557.3480, 33988.00
558.5230, 34581.00
559.6980, 35103.00
560.8730, 35297.00
562.0470, 35399.00
563.2220, 35371.00
564.3960, 34921.00
565.5700, 34041.00
566.7440, 33432.00
567.9170, 32543.00
569.0910, 31312.00
570.2640, 30404.00
571.4380, 29080.00
572.6110, 28153.00
573.7840, 27229.00
574.9570, 26354.00
576.1290, 25648.00
577.3020, 25197.00
578.4740, 24700.00
579.6460, 24321.00
580.8180, 23755.00
581.9900, 23508.94
583.1620, 23432.00
584.3330, 23041.00
585.5040, 23095.00
586.6760, 22995.00
587.8470, 23186.00
589.0180, 23175.00
590.1880, 23444.00
591.3590, 23981.00
592.5290, 24312.00
593.7000, 24909.00
594.8700, 25573.00
596.0400, 26066.00
597.2090, 26279.00
598.3790, 26830.00
599.5490, 26895.00
600.7180, 26713.00
601.8870, 26693.00
603.0560, 26199.00
604.2250, 26132.00
605.3940, 25726.00
606.5620, 25432.00
607.7300, 25397.00
608.8990, 25870.00
610.0670, 25832.00
611.2350, 25790.00
612.4020, 25901.00
613.5700, 25826.00
614.7370, 25705.00
615.9050, 25242.00
617.0720, 24814.00
618.2390, 24196.00
619.4060, 23719.00
620.5720, 23424.00
621.7390, 22961.00
622.9050, 22716.00
624.0710, 22634.00
625.2370, 22239.00
626.4030, 22366.00
627.5690, 22700.00
628.7340, 22756.00
629.9000, 22811.00
631.0650, 22954.00
632.2300, 22654.00
633.3950, 22638.00
634.5600, 22667.00
635.7240, 22225.00
636.8890, 22034.00
638.0530, 21686.00
639.2170, 21040.00
640.3810, 20771.00
641.5450, 20299.00
642.7080, 19777.00
643.8720, 19773.00
645.0350, 19476.00
646.1980, 19159.00
647.3610, 19118.00
648.5240, 19293.00
649.6870, 18908.00
650.8490, 18950.00
652.0120, 18861.00
653.1740, 18778.00
654.3360, 18935.00
655.4980, 18555.00
656.6600, 18748.00
657.8210, 18771.00
658.9830, 18594.00
660.1440, 18726.00
661.3050, 18611.00
662.4660, 18524.00
663.6270, 18364.00
664.7870, 18346.41
665.9480, 18222.00
667.1080, 18280.00
668.2680, 18133.00
669.4280, 18060.82
670.5880, 18077.48
671.7480, 18026.00
672.9070, 18109.00
674.0670, 18150.00
675.2260, 18251.00
676.3850, 18165.00
677.5440, 18022.00
678.7030, 17987.00
679.8610, 18091.00
681.0200, 18099.00
682.1780, 18108.00
683.3360, 18001.00
684.4940, 18064.00
685.6520, 18054.00
686.8090, 18025.00
687.9670, 18036.54
689.1240, 17968.00
690.2810, 18006.00
691.4380, 17912.00
692.5950, 17898.00
693.7520, 17775.00
694.9080, 17883.00
696.0650, 18067.00
697.2210, 17866.00
698.3770, 17844.00
699.5330, 17834.00
700.6880, 17749.00
701.8440, 17820.00
702.9990, 17921.00
704.1550, 17961.00
705.3100, 18111.00
706.4650, 18170.00
707.6190, 18150.00
708.7740, 18243.00
709.9290, 18371.00
711.0830, 18413.76
712.2370, 18502.00
713.3910, 18604.00
714.5450, 18682.00
715.6980, 18811.00
716.8520, 19111.00
718.0050, 19133.00
719.1580, 19157.00
720.3110, 19316.00
721.4640, 19277.00
722.6170, 19219.00
723.7700, 19046.00
724.9220, 19076.00
726.0740, 19079.00
727.2260, 19041.00
728.3780, 18905.00
729.5300, 19059.00
730.6810, 18999.00
731.8330, 19009.00
732.9840, 18750.00
734.1350, 18828.00
735.2860, 18971.00
736.4370, 18810.00
737.5880, 18914.00
738.7380, 19051.00
739.8880, 18832.00
741.0390, 18791.00
742.1890, 18708.00
743.3380, 18962.00
744.4880, 18918.00
745.6380, 18892.00
746.7870, 18797.00
747.9360, 18924.00
749.0850, 18802.00
750.2340, 18779.00
751.3830, 18902.00
752.5310, 18885.00
753.6800, 19011.00
754.8280, 18870.00
755.9760, 18884.00
757.1240, 18916.00
758.2720, 18929.14
759.4190, 19055.00
760.5670, 19095.00
761.7140, 19149.00
762.8610, 19280.00
764.0080, 19308.74
765.1550, 19380.00
766.3020, 19368.00
767.4480, 19295.00
768.5950, 19189.00
769.7410, 19438.00
770.8870, 19313.00
772.0330, 19213.00
773.1780, 19051.00
774.3240, 19205.00
775.4690, 19195.00
776.6140, 19320.00
777.7590, 19285.00
778.9040, 19361.00
780.0490, 19286.00
781.1940, 19029.00
782.3380, 18964.00
783.4820, 19197.00
784.6260, 19286.00
785.7700, 19060.00
786.9140, 19245.00
788.0580, 19245.00
789.2010, 19183.00
790.3450, 19287.00
791.4880, 19330.00
792.6310, 19354.00
793.7730, 19498.00
794.9160, 19439.00
796.0590, 19411.00
797.2010, 19427.00
798.3430, 19486.00
799.4850, 19674.00
800.6270, 19570.00
801.7690, 19402.00
802.9100, 19497.00
804.0520, 19694.00
805.1930, 19451.00
806.3340, 19620.00
807.4750, 19470.00
808.6160, 19588.00
809.7560, 19667.00
810.8970, 19549.00
812.0370, 19579.00
813.1770, 19518.00
814.3170, 19518.00
815.4570, 19642.00
816.5960, 19500.00
817.7360, 19547.00
818.8750, 19733.00
820.0140, 19525.00
821.1530, 19463.00
822.2920, 19437.00
823.4310, 19669.00
824.5690, 19517.00
825.7070, 19552.00
826.8460, 19514.00
827.9840, 19547.00
829.1220, 19592.00
830.2590, 19686.00
831.3970, 19612.00
832.5340, 19656.00
833.6710, 19565.00
834.8080, 19530.00
835.9450, 19668.00
837.0820, 19610.00
838.2190, 19856.00
839.3550, 19739.00
840.4910, 19561.00
841.6270, 19689.00
842.7630, 19654.00
843.8990, 19535.00
845.0350, 19691.00
846.1700, 19632.00
847.3060, 19654.00
848.4410, 19769.00
849.5760, 19632.00
850.7100, 19579.00
851.8450, 19818.00
852.9800, 19802.00
854.1140, 19769.00
855.2480, 19720.00
856.3820, 19872.00
857.5160, 19752.00
858.6500, 20100.00
859.7830, 20039.00
860.9170, 20070.00
862.0500, 20029.00
863.1830, 20079.00
864.3160, 20105.00
865.4480, 20148.00
866.5810, 20144.52
867.7130, 20066.00
868.8460, 20136.00
869.9780, 20114.46
871.1100, 20129.00
872.2410, 20177.00
873.3730, 20067.00
874.5050, 20083.00
875.6360, 20203.00
876.7670, 20096.00
877.8980, 20317.00
879.0290, 20060.00
880.1590, 20185.00
881.2900, 20014.00
882.4200, 20171.00
883.5500, 20138.00
884.6800, 20152.00
885.8100, 20210.00
886.9400, 20305.00
888.0690, 20278.00
889.1990, 20254.00
890.3280, 20200.00
891.4570, 20305.00
892.5860, 20374.00
893.7140, 20383.00
894.8430, 20386.00
895.9710, 20419.00
897.1000, 20464.00
898.2280, 20406.00
899.3560, 20451.00
900.4830, 20697.00
901.6110, 20694.00
902.7380, 20622.00
903.8660, 20505.00
904.9930, 20697.00
906.1200, 20680.00
907.2460, 20689.00
908.3730, 20642.00
909.5000, 20650.00
910.6260, 20683.00
911.7520, 20776.00
912.8780, 20710.00
914.0040, 20863.00
915.1290, 20919.00
916.2550, 21084.00
917.3800, 20948.00
918.5050, 21205.00
919.6300, 21484.00
920.7550, 21283.00
921.8800, 21038.00
923.0040, 21269.00
924.1290, 21360.00
925.2530, 21229.00
926.3770, 21352.00
927.5010, 21473.00
928.6250, 21538.00
929.7480, 21615.00
930.8720, 21674.60
931.9950, 21688.00
933.1180, 21764.00
934.2410, 21741.00
935.3640, 21780.00
936.4860, 21860.00
937.6090, 21944.00
938.7310, 21962.00
939.8530, 22056.00
940.9750, 22200.00
942.0970, 22395.00
943.2180, 22539.30
944.3400, 22552.00
945.4610, 22878.00
946.5820, 23067.00
947.7030, 23192.00
948.8240, 23169.00
949.9450, 23463.00
951.0650, 23455.00
952.1860, 23751.00
953.3060, 23983.00
954.4260, 24408.00
955.5460, 24603.00
956.6650, 24593.00
957.7850, 25191.00
958.9040, 25546.00
960.0230, 25995.00
961.1420, 26545.00
962.2610, 27384.00
963.3800, 27845.00
964.4990, 28982.00
965.6170, 29710.00
966.7350, 30951.00
967.8530, 32020.00
968.9710, 32970.00
970.0890, 33760.00
971.2070, 34449.00
972.3240, 34890.00
973.4410, 35216.00
974.5580, 35092.00
975.6750, 34989.00
976.7920, 34768.00
977.9090, 34497.00
979.0250, 34328.00
980.1410, 34258.00
981.2580, 34482.00
982.3740, 34981.00
983.4890, 35535.00
984.6050, 35654.00
985.7200, 36002.00
986.8360, 36293.00
987.9510, 35940.00
989.0660, 35631.00
990.1810, 35083.00
991.2950, 34299.00
992.4100, 33344.00
993.5240, 32323.00
994.6390, 31418.00
995.7530, 31172.00
996.8660, 30571.00
997.9800, 30497.00
999.0940, 30736.00
1000.207, 30699.00
1001.320, 31179.00
1002.433, 31478.00
1003.546, 32159.00
1004.659, 32788.00
1005.772, 33720.00
1006.884, 34834.00
1007.996, 36208.00
1009.108, 38297.00
1010.220, 40361.00
1011.332, 42616.00
1012.444, 45436.00
1013.555, 48085.00
1014.666, 51078.00
1015.777, 53400.00
1016.888, 55392.00
1017.999, 56752.00
1019.110, 57156.00
1020.220, 56877.00
1021.331, 56469.00
1022.441, 55358.00
1023.551, 53677.00
1024.661, 52148.00
1025.770, 50584.00
1026.880, 48716.00
1027.989, 47905.00
1029.098, 46459.00
1030.207, 45600.00
1031.316, 44886.00
1032.425, 44047.00
1033.533, 43384.00
1034.642, 42856.80
1035.750, 42517.00
1036.858, 41959.00
1037.966, 41651.00
1039.073, 41281.00
1040.181, 40799.00
1041.288, 40193.00
1042.396, 39588.00
1043.503, 38888.00
1044.610, 38237.00
1045.716, 37038.00
1046.823, 36192.00
1047.929, 35643.00
1049.036, 34938.00
1050.142, 34245.00
1051.248, 33799.00
1052.353, 33196.00
1053.459, 32440.00
1054.564, 32319.00
1055.670, 32031.00
1056.775, 31548.00
1057.880, 31535.00
1058.985, 31166.00
1060.089, 31273.00
1061.194, 30728.00
1062.298, 30651.00
1063.402, 30406.00
1064.506, 30399.00
1065.610, 29976.00
1066.713, 29715.00
1067.817, 29366.00
1068.920, 29476.00
1070.023, 29116.00
1071.126, 29117.00
1072.229, 28494.00
1073.332, 28295.00
1074.435, 28051.00
1075.537, 27818.00
1076.639, 27438.00
1077.741, 27286.00
1078.843, 26899.00
1079.945, 26967.00
1081.046, 26858.00
1082.148, 26718.00
1083.249, 26638.10
1084.350, 26451.00
1085.451, 26285.00
1086.551, 26097.00
1087.652, 25789.00
1088.752, 25543.00
1089.853, 25347.00
1090.953, 25279.00
1092.053, 25216.00
1093.152, 25096.00
1094.252, 25087.00
1095.351, 24904.00
1096.451, 24954.00
1097.550, 25059.00
1098.649, 24974.41
1099.748, 24995.00
1100.846, 24998.00
1101.945, 25105.00
1103.043, 25192.00
1104.141, 25070.00
1105.239, 25396.00
1106.337, 25888.00
1107.434, 25817.00
1108.532, 26173.00
1109.629, 26663.00
1110.726, 26817.00
1111.823, 27187.00
1112.920, 28007.00
1114.017, 28484.00
1115.113, 28512.00
1116.210, 28816.00
1117.306, 28850.00
1118.402, 28830.00
1119.498, 28364.00
1120.593, 28334.00
1121.689, 28218.00
1122.784, 27966.00
1123.879, 27702.00
1124.974, 27502.00
1126.069, 27508.00
1127.164, 27384.00
1128.259, 27132.00
1129.353, 26947.00
1130.447, 26830.00
1131.541, 26947.00
1132.635, 26799.00
1133.729, 26793.00
1134.822, 26725.00
1135.916, 26955.00
1137.009, 27290.00
1138.102, 27143.00
1139.195, 27437.00
1140.288, 28116.00
1141.380, 28560.00
1142.473, 29238.00
1143.565, 29653.00
1144.657, 30612.00
1145.749, 30651.00
1146.841, 31021.00
1147.932, 30847.00
1149.024, 30372.00
1150.115, 29642.00
1151.206, 29159.00
1152.297, 28530.00
1153.388, 27961.63
1154.479, 27544.00
1155.569, 26929.00
1156.659, 26620.00
1157.750, 26272.00
1158.839, 26254.00
1159.929, 25991.00
1161.019, 26128.00
1162.108, 26121.00
1163.198, 26094.00
1164.287, 26053.00
1165.376, 26024.00
1166.465, 25979.21
1167.553, 25906.00
1168.642, 25866.00
1169.730, 25856.00
1170.818, 25754.76
1171.906, 25812.00
1172.994, 25547.00
1174.082, 25375.00
1175.170, 25360.00
1176.257, 25114.00
1177.344, 25218.00
1178.431, 25217.00
1179.518, 25197.00
1180.605, 25113.00
1181.691, 25085.32
1182.778, 24991.00
1183.864, 24976.00
1184.950, 24995.00
1186.036, 24964.00
1187.122, 25059.00
1188.207, 25019.82
1189.292, 24826.00
1190.378, 25019.00
1191.463, 24923.00
1192.548, 24957.48
1193.632, 24716.00
1194.717, 24880.00
1195.801, 24810.00
1196.886, 24724.00
1197.970, 24930.00
1199.054, 24914.00
1200.137, 24962.00
1201.221, 24950.00
1202.305, 24897.00
1203.388, 24962.30
1204.471, 25189.00
1205.554, 25046.00
1206.637, 25014.00
1207.719, 25058.00
1208.802, 24840.00
1209.884, 24951.00
1210.966, 25075.00
1212.048, 24879.00
1213.130, 25120.00
1214.212, 25002.00
1215.293, 24844.00
1216.374, 24995.00
1217.456, 25075.00
1218.536, 25133.00
1219.617, 25131.00
1220.698, 25163.00
1221.778, 25173.57
1222.859, 25166.00
1223.939, 25180.00
1225.019, 25130.00
1226.099, 25122.00
1227.178, 25307.00
1228.258, 25081.00
1229.337, 24945.00
1230.417, 25067.00
1231.496, 25322.00
1232.574, 25082.00
1233.653, 25251.00
1234.732, 25228.00
1235.810, 25196.00
1236.888, 25219.00
1237.966, 25176.21
1239.044, 25174.00
1240.122, 25120.00
1241.199, 25244.00
1242.277, 25223.00
1243.354, 25363.00
1244.431, 25261.00
1245.508, 25359.00
1246.585, 25415.00
1247.661, 25343.00
1248.738, 25300.00
1249.814, 25396.00
1250.890, 25253.00
1251.966, 25651.00
1253.042, 25265.00
1254.117, 25417.00
1255.193, 25621.00
1256.268, 25347.00
1257.343, 25282.00
1258.418, 25591.00
1259.493, 25330.00
1260.567, 25458.00
1261.642, 25569.00
1262.716, 25486.00
1263.790, 25525.00
1264.864, 25728.00
1265.938, 25838.00
1267.011, 25533.00
1268.085, 25714.00
1269.158, 25735.00
1270.231, 25806.00
1271.304, 25927.00
1272.377, 25745.00
1273.450, 25694.00
1274.522, 25813.00
1275.594, 25702.00
1276.666, 25689.00
1277.738, 25596.00
1278.810, 25590.05
1279.882, 25644.11
1280.953, 25634.00
1282.025, 25791.00
1283.096, 25929.00
1284.167, 25987.00
1285.238, 26057.97
1286.308, 25871.00
1287.379, 26051.00
1288.449, 26044.00
1289.519, 25909.00
1290.589, 26147.00
1291.659, 26041.00
1292.729, 25953.00
1293.798, 26072.00
1294.868, 26185.00
1295.937, 26169.00
1297.006, 25933.00
1298.075, 26275.00
1299.143, 26039.00
1300.212, 26138.00
1301.280, 26303.00
1302.348, 25988.00
1303.416, 26161.00
1304.484, 26219.00
1305.552, 26471.00
1306.620, 26292.00
1307.687, 26355.00
1308.754, 26499.00
1309.821, 26501.00
1310.888, 26524.48
1311.955, 26450.00
1313.021, 26485.00
1314.088, 26327.00
1315.154, 26285.00
1316.220, 26464.00
1317.286, 26326.00
1318.352, 26568.00
1319.417, 26444.00
1320.483, 26264.00
1321.548, 26384.00
1322.613, 26352.00
1323.678, 26343.00
1324.743, 26537.00
1325.807, 26372.00
1326.872, 26530.00
1327.936, 26526.00
1329.000, 26285.00
1330.064, 26508.00
1331.128, 26591.00
1332.191, 26354.00
1333.255, 26397.00
1334.318, 26411.00
1335.381, 26610.00
1336.444, 26604.00
1337.507, 26513.00
1338.569, 26568.00
1339.632, 26620.00
1340.694, 26767.00
1341.756, 26797.00
1342.818, 26821.13
1343.880, 26535.00
1344.941, 26775.00
1346.003, 26687.00
1347.064, 26571.00
1348.125, 26825.00
1349.186, 26800.00
1350.247, 26831.00
1351.308, 26725.00
1352.368, 26736.00
1353.428, 26765.00
1354.489, 26771.00
1355.549, 26693.00
1356.608, 26935.00
1357.668, 26934.00
1358.727, 26803.00
1359.787, 26566.00
1360.846, 26726.00
1361.905, 26786.00
1362.964, 26696.00
1364.022, 26879.00
1365.081, 26990.00
1366.139, 26877.00
1367.197, 26936.00
1368.255, 26920.00
1369.313, 27053.00
1370.371, 26865.00
1371.428, 27060.00
1372.486, 27206.00
1373.543, 26787.00
1374.600, 27000.00
1375.657, 27000.00
1376.713, 26989.00
1377.770, 27128.00
1378.826, 26981.00
1379.882, 27062.00
1380.938, 27050.00
1381.994, 27084.00
1383.050, 27267.00
1384.106, 27154.00
1385.161, 27059.00
1386.216, 27180.00
1387.271, 27096.00
1388.326, 27211.00
1389.381, 27321.00
1390.435, 27202.00
1391.490, 27039.00
1392.544, 27109.00
1393.598, 27115.00
1394.652, 26994.00
1395.705, 27130.00
1396.759, 27152.25
1397.812, 27333.00
1398.866, 27303.00
1399.919, 27275.00
1400.972, 27264.00
1402.024, 27377.00
1403.077, 27240.00
1404.129, 27324.00
1405.181, 27496.00
1406.233, 27261.00
1407.285, 27507.00
1408.337, 27327.00
1409.389, 27270.00
1410.440, 27382.00
1411.491, 27373.00
1412.542, 27418.00
1413.593, 27487.00
1414.644, 27441.00
1415.695, 27635.00
1416.745, 27503.00
1417.795, 27691.00
1418.845, 27308.00
1419.895, 27638.00
1420.945, 27568.00
1421.995, 27653.00
1423.044, 27767.00
1424.093, 27588.00
1425.142, 27581.00
1426.191, 27379.00
1427.240, 27717.00
1428.289, 27395.00
1429.337, 27610.00
1430.385, 27656.00
1431.433, 27554.00
1432.481, 27722.00
1433.529, 27705.00
1434.577, 27748.85
1435.624, 27836.00
1436.672, 27812.00
1437.719, 27814.00
1438.766, 27764.00
1439.812, 27966.00
1440.859, 28090.00
1441.905, 27874.00
1442.952, 27958.00
1443.998, 27901.00
1445.044, 28074.00
1446.090, 28080.00
1447.135, 27963.00
1448.181, 28334.00
1449.226, 28112.00
1450.271, 28222.00
1451.316, 28096.00
1452.361, 28257.00
1453.405, 28130.00
1454.450, 28369.00
1455.494, 28394.00
1456.538, 28331.00
1457.582, 28286.00
1458.626, 28273.00
1459.670, 28358.00
1460.713, 28245.00
1461.757, 28311.00
1462.800, 28257.00
1463.843, 28354.00
1464.886, 28221.00
1465.928, 28252.00
1466.971, 28257.00
1468.013, 28313.00
1469.055, 28440.00
1470.097, 28202.00
1471.139, 28291.00
1472.181, 28119.00
1473.222, 28295.00
1474.263, 28311.00
1475.305, 28472.00
1476.346, 28587.00
1477.386, 28579.83
1478.427, 28254.00
1479.468, 28577.00
1480.508, 28293.00
1481.548, 28249.00
1482.588, 28528.00
1483.628, 28638.00
1484.668, 28311.00
1485.707, 28159.00
1486.747, 28318.00
1487.786, 28497.00
1488.825, 28416.00
1489.864, 28315.00
1490.902, 28590.00
1491.941, 28407.00
1492.979, 28310.00
1494.017, 28455.00
1495.055, 28331.00
1496.093, 28404.00
1497.131, 28431.00
1498.168, 28405.00
1499.206, 28439.00
1500.243, 28494.79
1501.280, 28502.00
1502.317, 28607.00
1503.354, 28588.00
1504.390, 28574.06
1505.426, 28664.00
1506.463, 28588.00
1507.499, 28769.00
1508.535, 28723.00
1509.570, 28739.44
1510.606, 28640.00
1511.641, 28682.00
1512.676, 28752.00
1513.711, 28618.00
1514.746, 28601.00
1515.781, 28578.00
1516.816, 28751.00
1517.850, 29028.00
1518.884, 28742.00
1519.918, 28778.00
1520.952, 28555.00
1521.986, 28941.00
1523.019, 28687.00
1524.053, 28836.00
1525.086, 28870.00
1526.119, 28881.00
1527.152, 28807.00
1528.185, 28998.00
1529.217, 28934.00
1530.250, 28940.00
1531.282, 29010.00
1532.314, 28879.00
1533.346, 28929.00
1534.377, 28787.00
1535.409, 28993.00
1536.440, 28879.00
1537.472, 29155.00
1538.503, 28968.00
1539.534, 29327.00
1540.564, 29059.00
1541.595, 28991.00
1542.625, 29062.00
1543.656, 29204.00
1544.686, 29035.00
1545.716, 29160.00
1546.745, 29141.00
1547.775, 29171.00
1548.804, 29059.00
1549.834, 29273.00
1550.863, 29185.00
1551.892, 29238.00
1552.920, 29426.00
1553.949, 29436.00
1554.977, 29317.00
1556.006, 29069.00
1557.034, 29196.00
1558.062, 29245.00
1559.089, 29284.00
1560.117, 29200.00
1561.144, 29302.00
1562.172, 29456.00
1563.199, 29161.00
1564.226, 29356.00
1565.252, 29567.00
1566.279, 29408.00
1567.305, 29264.00
1568.332, 29305.00
1569.358, 29403.00
1570.384, 29549.00
##END=



