##NAMES=Brazilianite
##RRUFFID=R050319
##IDEAL CHEMISTRY=NaAl_3_(PO_4_)_2_(OH)_4_
##LOCALITY=Minas Gerais, Brazil
##OWNER=RRUFF
##SOURCE=American Museum of Natural History
##DESCRIPTION=Pale green fragment
##STATUS=The identification of this mineral has been confirmed by X-ray diffraction and chemical analysis
##URL=rruff.info/R050319
##MEASURED CHEMISTRY=Na_1.00_Al_3.00_(PO_4_)_2_(OH)_4_
##PIN_ID=M00246
##ORIENTATION=Laser parallel to (1 0 1). Fiducial mark perpendicular to laser is parallel to b [0 1 0]
86.07200, 13501.00
87.30800, 13809.00
88.54200, 14306.00
89.77700, 14238.00
91.01200, 14052.00
92.24600, 13951.00
93.48000, 14152.00
94.71400, 14360.00
95.94800, 14852.00
97.18200, 15084.00
98.41600, 15506.00
99.64900, 15969.00
100.8830, 16496.00
102.1160, 17447.00
103.3490, 18205.00
104.5820, 18257.00
105.8150, 17677.00
107.0470, 17413.00
108.2800, 17330.00
109.5120, 17109.34
110.7440, 16942.00
111.9760, 17121.00
113.2080, 17240.00
114.4400, 17468.00
115.6710, 17278.00
116.9030, 16976.00
118.1340, 16824.00
119.3650, 16515.00
120.5960, 16466.00
121.8270, 16445.00
123.0580, 16597.00
124.2880, 16610.00
125.5190, 16724.00
126.7490, 16561.00
127.9790, 16793.00
129.2090, 16757.00
130.4390, 16774.00
131.6680, 16984.00
132.8980, 17058.00
134.1270, 17036.00
135.3560, 17375.00
136.5850, 17536.00
137.8140, 17756.00
139.0430, 17831.00
140.2710, 18047.00
141.5000, 18101.00
142.7280, 18414.00
143.9560, 18610.00
145.1840, 18768.00
146.4120, 18917.00
147.6390, 18877.00
148.8670, 18814.00
150.0940, 18720.00
151.3210, 18690.00
152.5490, 18689.00
153.7750, 18700.00
155.0020, 19252.00
156.2290, 19396.00
157.4550, 19509.00
158.6810, 20204.00
159.9080, 20588.00
161.1340, 21432.00
162.3590, 22525.00
163.5850, 23706.00
164.8110, 24373.00
166.0360, 24826.00
167.2610, 25666.00
168.4860, 27239.00
169.7110, 29270.00
170.9360, 30720.00
172.1610, 30424.00
173.3850, 27829.00
174.6100, 25318.00
175.8340, 23442.00
177.0580, 22093.00
178.2820, 21271.00
179.5050, 20749.00
180.7290, 20247.00
181.9520, 20028.00
183.1760, 20024.00
184.3990, 19804.00
185.6220, 19801.00
186.8450, 19840.00
188.0670, 19885.00
189.2900, 20070.00
190.5120, 20053.00
191.7340, 20166.00
192.9560, 20221.00
194.1780, 20569.00
195.4000, 20718.00
196.6220, 20938.00
197.8430, 21172.00
199.0640, 21266.66
200.2860, 21282.00
201.5070, 21467.00
202.7270, 21526.00
203.9480, 21590.00
205.1690, 21847.00
206.3890, 22016.00
207.6090, 21914.00
208.8290, 21926.00
210.0490, 21619.00
211.2690, 21647.00
212.4890, 21589.00
213.7080, 21524.00
214.9280, 21502.00
216.1470, 21710.00
217.3660, 21926.00
218.5850, 21746.00
219.8030, 21866.00
221.0220, 21843.00
222.2400, 21819.00
223.4590, 21758.00
224.6770, 21957.00
225.8950, 22048.00
227.1120, 22361.00
228.3300, 22546.00
229.5480, 22620.00
230.7650, 22627.00
231.9820, 22533.00
233.1990, 22201.00
234.4160, 22017.00
235.6330, 21726.00
236.8490, 21740.00
238.0660, 21653.00
239.2820, 21639.00
240.4980, 21654.00
241.7140, 21758.00
242.9300, 21712.00
244.1460, 21597.00
245.3610, 21484.00
246.5770, 21625.00
247.7920, 21215.00
249.0070, 21491.00
250.2220, 21743.00
251.4370, 21656.00
252.6510, 21573.00
253.8660, 21380.00
255.0800, 21281.00
256.2940, 20868.00
257.5080, 21182.00
258.7220, 21102.00
259.9360, 21463.00
261.1490, 21455.00
262.3630, 21278.00
263.5760, 21347.00
264.7890, 21619.00
266.0020, 21856.00
267.2150, 22125.00
268.4270, 22473.71
269.6400, 22807.93
270.8520, 23267.00
272.0640, 23647.00
273.2760, 24189.00
274.4880, 24780.00
275.7000, 25567.00
276.9120, 25847.00
278.1230, 25284.00
279.3340, 24717.00
280.5450, 23974.00
281.7560, 23544.00
282.9670, 22974.00
284.1780, 22695.00
285.3880, 22638.00
286.5980, 22515.00
287.8090, 22425.00
289.0190, 22625.00
290.2290, 22795.00
291.4380, 23086.00
292.6480, 23143.00
293.8570, 23400.00
295.0670, 23453.00
296.2760, 23425.00
297.4850, 23263.00
298.6930, 23382.00
299.9020, 22946.00
301.1110, 23018.00
302.3190, 23268.00
303.5270, 23012.53
304.7350, 22882.00
305.9430, 22905.00
307.1510, 22983.29
308.3580, 23283.00
309.5660, 23563.00
310.7730, 23813.00
311.9800, 24478.00
313.1870, 24318.00
314.3940, 24441.00
315.6010, 24492.00
316.8070, 24045.00
318.0130, 23958.00
319.2200, 23799.00
320.4260, 23634.00
321.6310, 23287.00
322.8370, 23163.00
324.0430, 23034.00
325.2480, 23069.00
326.4540, 22808.00
327.6590, 22805.00
328.8640, 22803.00
330.0680, 22659.00
331.2730, 22612.00
332.4780, 22630.48
333.6820, 22620.36
334.8860, 22688.00
336.0900, 22708.00
337.2940, 22741.00
338.4980, 22752.00
339.7010, 22795.82
340.9050, 22778.00
342.1080, 22934.00
343.3110, 23038.00
344.5140, 23231.00
345.7170, 23170.00
346.9200, 23491.00
348.1220, 23829.00
349.3240, 23914.00
350.5270, 24391.00
351.7290, 24532.00
352.9310, 24728.00
354.1320, 25135.00
355.3340, 25310.00
356.5350, 25595.00
357.7370, 25426.00
358.9380, 25098.00
360.1390, 25133.00
361.3400, 24707.00
362.5400, 24500.00
363.7410, 24296.00
364.9410, 24091.00
366.1410, 24425.00
367.3410, 24173.00
368.5410, 24316.00
369.7410, 24627.00
370.9400, 24295.00
372.1400, 24562.00
373.3390, 24569.00
374.5380, 24599.00
375.7370, 24531.00
376.9360, 24722.00
378.1350, 24338.00
379.3330, 24179.00
380.5310, 24311.00
381.7300, 24319.00
382.9280, 24051.00
384.1260, 23897.00
385.3230, 24015.00
386.5210, 23878.00
387.7180, 23822.00
388.9160, 24187.00
390.1130, 24151.00
391.3100, 24305.00
392.5060, 24542.00
393.7030, 24607.00
394.9000, 24795.90
396.0960, 25034.00
397.2920, 25124.00
398.4880, 25238.00
399.6840, 25473.00
400.8800, 25668.00
402.0750, 25758.00
403.2710, 25844.00
404.4660, 26092.00
405.6610, 26196.40
406.8560, 26324.00
408.0510, 26505.00
409.2450, 26671.00
410.4400, 26778.00
411.6340, 26556.00
412.8280, 26744.00
414.0220, 26636.00
415.2160, 26505.00
416.4100, 26568.00
417.6030, 26033.00
418.7970, 26283.00
419.9900, 26064.00
421.1830, 25931.00
422.3760, 26060.00
423.5690, 25964.00
424.7610, 26082.00
425.9540, 26051.00
427.1460, 25842.00
428.3380, 25934.00
429.5300, 25938.00
430.7220, 26105.00
431.9140, 25999.00
433.1050, 26120.00
434.2970, 26095.00
435.4880, 26119.00
436.6790, 26229.00
437.8700, 26248.00
439.0610, 26373.00
440.2510, 26334.00
441.4420, 26172.00
442.6320, 26388.00
443.8220, 26019.00
445.0120, 26280.00
446.2020, 26119.00
447.3910, 26295.00
448.5810, 26225.00
449.7700, 26479.00
450.9600, 26460.00
452.1490, 26551.00
453.3370, 26635.00
454.5260, 26698.00
455.7150, 26704.00
456.9030, 26505.00
458.0910, 26765.00
459.2800, 26540.00
460.4670, 26826.00
461.6550, 26669.00
462.8430, 26705.00
464.0300, 26833.00
465.2180, 26659.00
466.4050, 26692.00
467.5920, 26862.00
468.7790, 26795.00
469.9650, 26953.00
471.1520, 26969.00
472.3380, 27347.00
473.5250, 27563.00
474.7110, 27814.00
475.8970, 28091.00
477.0820, 28612.00
478.2680, 28981.00
479.4540, 29334.00
480.6390, 29886.00
481.8240, 29649.00
483.0090, 30025.00
484.1940, 29908.00
485.3780, 30663.00
486.5630, 30807.00
487.7470, 31089.00
488.9320, 31316.00
490.1160, 31892.00
491.3000, 32346.00
492.4830, 32845.00
493.6670, 33393.71
494.8500, 34017.00
496.0340, 34525.00
497.2170, 34972.00
498.4000, 35654.00
499.5820, 35845.00
500.7650, 36318.00
501.9480, 36679.00
503.1300, 36644.00
504.3120, 36969.00
505.4940, 37004.00
506.6760, 37032.00
507.8580, 36874.00
509.0390, 37021.00
510.2210, 37157.00
511.4020, 36959.00
512.5830, 36853.00
513.7640, 36827.00
514.9450, 36606.00
516.1250, 36541.00
517.3060, 36221.00
518.4860, 35975.00
519.6660, 36017.00
520.8460, 35825.00
522.0260, 36430.00
523.2060, 36743.00
524.3850, 36747.00
525.5650, 37224.00
526.7440, 37254.00
527.9230, 37751.00
529.1020, 38043.00
530.2810, 38062.00
531.4590, 38320.00
532.6380, 38219.00
533.8160, 37849.00
534.9940, 37705.00
536.1720, 36991.00
537.3500, 36719.00
538.5270, 36205.00
539.7050, 35692.00
540.8820, 35329.00
542.0590, 34828.00
543.2360, 34851.00
544.4130, 34707.00
545.5900, 35033.00
546.7660, 35277.00
547.9430, 35734.00
549.1190, 36618.00
550.2950, 37292.00
551.4710, 38215.00
552.6470, 39613.00
553.8220, 40520.00
554.9980, 41583.00
556.1730, 42302.00
557.3480, 42942.00
558.5230, 42899.00
559.6980, 42903.00
560.8730, 42821.00
562.0470, 42584.00
563.2220, 42194.00
564.3960, 41748.79
565.5700, 41248.00
566.7440, 40439.00
567.9170, 39650.00
569.0910, 38656.00
570.2640, 37595.00
571.4380, 36588.00
572.6110, 35593.00
573.7840, 35051.00
574.9570, 34562.00
576.1290, 33940.00
577.3020, 33767.00
578.4740, 33581.00
579.6460, 33485.00
580.8180, 33333.00
581.9900, 33285.00
583.1620, 33498.00
584.3330, 34004.00
585.5040, 34131.00
586.6760, 34875.00
587.8470, 35204.00
589.0180, 35891.00
590.1880, 37034.00
591.3590, 38527.00
592.5290, 39934.00
593.7000, 41538.00
594.8700, 43031.00
596.0400, 44629.00
597.2090, 46219.00
598.3790, 47193.00
599.5490, 47045.00
600.7180, 45765.00
601.8870, 44661.00
603.0560, 43077.00
604.2250, 41576.00
605.3940, 40030.00
606.5620, 38737.00
607.7300, 38066.00
608.8990, 37345.00
610.0670, 36953.00
611.2350, 36605.00
612.4020, 36335.00
613.5700, 35915.00
614.7370, 35599.00
615.9050, 35159.92
617.0720, 34660.00
618.2390, 34214.00
619.4060, 33814.00
620.5720, 33260.00
621.7390, 33073.00
622.9050, 32891.11
624.0710, 33076.00
625.2370, 32846.00
626.4030, 33254.00
627.5690, 33389.00
628.7340, 33238.00
629.9000, 33265.00
631.0650, 33434.00
632.2300, 33528.00
633.3950, 33575.00
634.5600, 33243.00
635.7240, 32974.00
636.8890, 32627.00
638.0530, 32323.49
639.2170, 32082.18
640.3810, 31788.00
641.5450, 31653.00
642.7080, 31436.25
643.8720, 31292.18
645.0350, 31171.00
646.1980, 31138.00
647.3610, 31158.00
648.5240, 31287.00
649.6870, 31179.00
650.8490, 31376.00
652.0120, 31087.00
653.1740, 31264.00
654.3360, 31205.00
655.4980, 31439.00
656.6600, 31397.00
657.8210, 31109.00
658.9830, 31135.00
660.1440, 31274.00
661.3050, 30966.00
662.4660, 30778.00
663.6270, 30917.00
664.7870, 30805.00
665.9480, 30835.00
667.1080, 30764.77
668.2680, 30639.24
669.4280, 30566.00
670.5880, 30478.00
671.7480, 30365.00
672.9070, 30519.00
674.0670, 30371.00
675.2260, 30215.00
676.3850, 30379.00
677.5440, 30447.00
678.7030, 30179.00
679.8610, 30126.00
681.0200, 30321.00
682.1780, 30032.00
683.3360, 30117.00
684.4940, 30193.00
685.6520, 30082.00
686.8090, 30399.00
687.9670, 30219.00
689.1240, 30041.00
690.2810, 30491.00
691.4380, 29972.00
692.5950, 30129.00
693.7520, 30094.00
694.9080, 30086.00
696.0650, 30195.00
697.2210, 30173.00
698.3770, 30066.00
699.5330, 30245.00
700.6880, 30343.00
701.8440, 30256.00
702.9990, 30198.00
704.1550, 30332.00
705.3100, 30491.00
706.4650, 30468.00
707.6190, 30410.00
708.7740, 30642.00
709.9290, 30485.00
711.0830, 30619.00
712.2370, 30357.00
713.3910, 30645.00
714.5450, 30409.00
715.6980, 30661.00
716.8520, 30773.00
718.0050, 30744.00
719.1580, 30804.00
720.3110, 30636.00
721.4640, 30778.00
722.6170, 30663.00
723.7700, 30756.00
724.9220, 30936.00
726.0740, 30886.00
727.2260, 30839.00
728.3780, 30977.00
729.5300, 30786.00
730.6810, 30964.00
731.8330, 30971.00
732.9840, 30970.00
734.1350, 30965.00
735.2860, 31023.00
736.4370, 31206.00
737.5880, 31282.00
738.7380, 31342.00
739.8880, 31072.00
741.0390, 31332.00
742.1890, 31300.00
743.3380, 31285.00
744.4880, 31429.00
745.6380, 31433.00
746.7870, 31661.00
747.9360, 31516.00
749.0850, 31744.00
750.2340, 31672.00
751.3830, 31702.00
752.5310, 31963.00
753.6800, 31879.00
754.8280, 31828.00
755.9760, 32265.00
757.1240, 32383.00
758.2720, 32036.00
759.4190, 32280.00
760.5670, 32467.00
761.7140, 32505.00
762.8610, 32424.00
764.0080, 32443.00
765.1550, 32637.00
766.3020, 32575.00
767.4480, 32798.00
768.5950, 32578.00
769.7410, 32823.00
770.8870, 32597.00
772.0330, 32670.00
773.1780, 32588.00
774.3240, 32557.00
775.4690, 32561.00
776.6140, 32709.00
777.7590, 32624.00
778.9040, 32691.00
780.0490, 32811.00
781.1940, 32423.00
782.3380, 32561.00
783.4820, 32762.00
784.6260, 32559.00
785.7700, 32820.00
786.9140, 32614.00
788.0580, 33108.00
789.2010, 33218.00
790.3450, 33258.00
791.4880, 33230.00
792.6310, 33278.00
793.7730, 33555.00
794.9160, 33610.00
796.0590, 33604.00
797.2010, 33635.00
798.3430, 33661.00
799.4850, 33717.00
800.6270, 33795.00
801.7690, 33636.00
802.9100, 33790.00
804.0520, 33617.00
805.1930, 33606.00
806.3340, 33797.00
807.4750, 33708.00
808.6160, 33590.00
809.7560, 33753.00
810.8970, 33660.00
812.0370, 33506.00
813.1770, 33729.00
814.3170, 33386.00
815.4570, 33555.00
816.5960, 33482.00
817.7360, 33324.00
818.8750, 33228.00
820.0140, 33397.00
821.1530, 33616.00
822.2920, 33577.00
823.4310, 33452.00
824.5690, 33248.00
825.7070, 33441.00
826.8460, 33380.00
827.9840, 33586.00
829.1220, 33481.00
830.2590, 33236.00
831.3970, 33436.00
832.5340, 33292.00
833.6710, 33223.00
834.8080, 33666.00
835.9450, 33301.00
837.0820, 33336.00
838.2190, 33511.00
839.3550, 33633.00
840.4910, 33311.00
841.6270, 33195.00
842.7630, 33505.00
843.8990, 33553.00
845.0350, 33547.00
846.1700, 33334.00
847.3060, 33344.00
848.4410, 33482.00
849.5760, 33447.00
850.7100, 33481.00
851.8450, 33562.00
852.9800, 33571.64
854.1140, 33639.32
855.2480, 33691.00
856.3820, 33772.00
857.5160, 33889.00
858.6500, 34008.00
859.7830, 34033.00
860.9170, 33901.00
862.0500, 33958.00
863.1830, 34013.00
864.3160, 33956.00
865.4480, 33999.69
866.5810, 33889.00
867.7130, 33984.00
868.8460, 33891.00
869.9780, 33841.00
871.1100, 33885.00
872.2410, 34170.00
873.3730, 34176.00
874.5050, 34267.16
875.6360, 34243.29
876.7670, 34293.00
877.8980, 34100.00
879.0290, 33961.00
880.1590, 33960.00
881.2900, 34099.00
882.4200, 34200.00
883.5500, 34332.00
884.6800, 34306.00
885.8100, 34389.62
886.9400, 34361.14
888.0690, 34420.00
889.1990, 34326.00
890.3280, 34270.00
891.4570, 34351.00
892.5860, 34127.00
893.7140, 34362.00
894.8430, 34317.00
895.9710, 34556.00
897.1000, 34467.00
898.2280, 34550.00
899.3560, 34437.00
900.4830, 34948.00
901.6110, 34486.00
902.7380, 34476.00
903.8660, 34918.00
904.9930, 34711.00
906.1200, 34756.00
907.2460, 34598.00
908.3730, 34728.00
909.5000, 34890.00
910.6260, 34995.00
911.7520, 35064.48
912.8780, 35036.00
914.0040, 35147.00
915.1290, 35003.00
916.2550, 35002.00
917.3800, 35062.00
918.5050, 35499.00
919.6300, 35426.00
920.7550, 35513.00
921.8800, 35300.00
923.0040, 35570.00
924.1290, 35431.00
925.2530, 35399.00
926.3770, 35541.00
927.5010, 35824.00
928.6250, 35869.00
929.7480, 36041.04
930.8720, 36187.00
931.9950, 36140.00
933.1180, 36203.00
934.2410, 36378.27
935.3640, 36432.53
936.4860, 36720.00
937.6090, 36727.00
938.7310, 36845.00
939.8530, 37059.00
940.9750, 37129.00
942.0970, 37551.00
943.2180, 37756.00
944.3400, 37898.00
945.4610, 37870.00
946.5820, 38437.00
947.7030, 38703.00
948.8240, 38647.00
949.9450, 38783.00
951.0650, 38909.00
952.1860, 39031.00
953.3060, 38704.00
954.4260, 38964.00
955.5460, 39165.00
956.6650, 38997.00
957.7850, 39252.00
958.9040, 39361.00
960.0230, 39588.00
961.1420, 39743.00
962.2610, 39734.00
963.3800, 40212.00
964.4990, 40483.00
965.6170, 40777.00
966.7350, 41491.00
967.8530, 41729.00
968.9710, 42373.00
970.0890, 42756.00
971.2070, 43347.00
972.3240, 43896.00
973.4410, 43956.00
974.5580, 44299.00
975.6750, 44832.00
976.7920, 45043.00
977.9090, 45551.00
979.0250, 46267.00
980.1410, 47064.00
981.2580, 47977.00
982.3740, 49098.00
983.4890, 50511.00
984.6050, 51766.00
985.7200, 52634.00
986.8360, 53293.00
987.9510, 53558.00
989.0660, 53213.00
990.1810, 52256.00
991.2950, 50945.00
992.4100, 49633.00
993.5240, 48149.00
994.6390, 47047.00
995.7530, 46400.00
996.8660, 45452.00
997.9800, 45264.00
999.0940, 45046.00
1000.207, 45008.00
1001.320, 44990.00
1002.433, 45488.00
1003.546, 45829.00
1004.659, 46442.00
1005.772, 47201.00
1006.884, 47768.00
1007.996, 49069.00
1009.108, 50577.00
1010.220, 52156.00
1011.332, 54473.00
1012.444, 56609.00
1013.555, 58518.00
1014.666, 60818.00
1015.777, 62775.00
1016.888, 64296.00
1017.999, 65036.00
1019.110, 65251.00
1020.220, 64345.00
1021.331, 63710.00
1022.441, 62325.00
1023.551, 60942.00
1024.661, 59148.00
1025.770, 57718.00
1026.880, 56144.00
1027.989, 55058.00
1029.098, 54076.00
1030.207, 52912.00
1031.316, 52251.00
1032.425, 51960.00
1033.533, 51229.00
1034.642, 50851.00
1035.750, 50729.00
1036.858, 50315.00
1037.966, 49994.00
1039.073, 50195.00
1040.181, 50076.00
1041.288, 49661.00
1042.396, 49080.00
1043.503, 49069.00
1044.610, 48682.00
1045.716, 47964.00
1046.823, 48025.00
1047.929, 47546.00
1049.036, 47218.00
1050.142, 47387.00
1051.248, 47246.00
1052.353, 47098.00
1053.459, 47220.00
1054.564, 47453.00
1055.670, 47510.00
1056.775, 47860.00
1057.880, 48150.00
1058.985, 47903.00
1060.089, 48166.00
1061.194, 48043.00
1062.298, 47743.00
1063.402, 47618.00
1064.506, 47241.00
1065.610, 46941.00
1066.713, 46374.00
1067.817, 46027.00
1068.920, 45668.00
1070.023, 45075.00
1071.126, 44586.00
1072.229, 44248.66
1073.332, 44046.00
1074.435, 43593.00
1075.537, 43433.00
1076.639, 43192.00
1077.741, 42824.00
1078.843, 42682.00
1079.945, 42653.00
1081.046, 42319.00
1082.148, 42342.00
1083.249, 42096.00
1084.350, 42029.00
1085.451, 41537.00
1086.551, 41468.00
1087.652, 40932.00
1088.752, 40866.00
1089.853, 40858.00
1090.953, 40646.00
1092.053, 40429.00
1093.152, 40420.00
1094.252, 40266.00
1095.351, 40207.00
1096.451, 40272.00
1097.550, 40208.00
1098.649, 40077.00
1099.748, 40118.00
1100.846, 40223.00
1101.945, 40213.00
1103.043, 40102.00
1104.141, 39750.00
1105.239, 39773.00
1106.337, 40082.00
1107.434, 40148.00
1108.532, 40470.00
1109.629, 40315.00
1110.726, 40428.00
1111.823, 40420.00
1112.920, 40768.00
1114.017, 40738.00
1115.113, 40898.00
1116.210, 41142.00
1117.306, 41002.00
1118.402, 41085.00
1119.498, 41165.00
1120.593, 41333.00
1121.689, 41226.00
1122.784, 41310.00
1123.879, 41287.00
1124.974, 41192.00
1126.069, 40921.00
1127.164, 41038.00
1128.259, 41119.00
1129.353, 41484.00
1130.447, 41217.00
1131.541, 41178.00
1132.635, 41435.00
1133.729, 41010.00
1134.822, 41316.00
1135.916, 41309.00
1137.009, 41222.00
1138.102, 41499.00
1139.195, 41154.00
1140.288, 41502.00
1141.380, 41497.00
1142.473, 41303.00
1143.565, 41645.00
1144.657, 41846.00
1145.749, 41971.00
1146.841, 42000.00
1147.932, 42048.00
1149.024, 41982.00
1150.115, 41797.00
1151.206, 41968.00
1152.297, 41697.00
1153.388, 41858.00
1154.479, 41785.00
1155.569, 41677.00
1156.659, 41631.00
1157.750, 41546.83
1158.839, 41540.38
1159.929, 41504.00
1161.019, 41611.00
1162.108, 41638.60
1163.198, 41993.00
1164.287, 41793.00
1165.376, 41879.00
1166.465, 41950.00
1167.553, 41772.00
1168.642, 41830.00
1169.730, 41947.00
1170.818, 41830.00
1171.906, 41740.00
1172.994, 41460.00
1174.082, 41538.00
1175.170, 41386.34
1176.257, 41662.00
1177.344, 41305.00
1178.431, 41311.00
1179.518, 41386.00
1180.605, 41275.00
1181.691, 41292.70
1182.778, 41300.95
1183.864, 41230.00
1184.950, 41268.00
1186.036, 41260.00
1187.122, 41133.00
1188.207, 41396.00
1189.292, 41729.00
1190.378, 41303.00
1191.463, 41443.00
1192.548, 41408.00
1193.632, 41371.00
1194.717, 41363.00
1195.801, 41506.00
1196.886, 41655.00
1197.970, 41563.00
1199.054, 41490.00
1200.137, 41590.00
1201.221, 41721.00
1202.305, 41574.00
1203.388, 41683.00
1204.471, 41723.00
1205.554, 41450.00
1206.637, 41755.00
1207.719, 41636.00
1208.802, 41563.00
1209.884, 41985.00
1210.966, 41803.00
1212.048, 41808.00
1213.130, 41816.00
1214.212, 41778.00
1215.293, 41868.00
1216.374, 41931.00
1217.456, 41988.00
1218.536, 41843.00
1219.617, 41858.00
1220.698, 41745.00
1221.778, 41789.00
1222.859, 41736.00
1223.939, 41941.00
1225.019, 41725.00
1226.099, 42050.00
1227.178, 42159.00
1228.258, 42017.00
1229.337, 41893.00
1230.417, 42164.00
1231.496, 42083.00
1232.574, 42134.00
1233.653, 42077.00
1234.732, 42328.00
1235.810, 42261.00
1236.888, 42456.00
1237.966, 42268.00
1239.044, 42662.00
1240.122, 42169.00
1241.199, 42485.00
1242.277, 42411.00
1243.354, 42611.00
1244.431, 42491.00
1245.508, 42636.00
1246.585, 42487.00
1247.661, 42704.00
1248.738, 42405.00
1249.814, 42646.00
1250.890, 42444.00
1251.966, 42763.00
1253.042, 42753.00
1254.117, 42677.00
1255.193, 42712.00
1256.268, 42833.00
1257.343, 42838.00
1258.418, 42652.00
1259.493, 42816.00
1260.567, 43002.00
1261.642, 42718.00
1262.716, 43000.00
1263.790, 43128.00
1264.864, 42991.00
1265.938, 43212.00
1267.011, 42961.00
1268.085, 43176.00
1269.158, 43220.00
1270.231, 43212.00
1271.304, 43256.00
1272.377, 42937.00
1273.450, 43421.00
1274.522, 43163.00
1275.594, 43250.00
1276.666, 43396.00
1277.738, 43318.00
1278.810, 43442.00
1279.882, 43414.00
1280.953, 43574.00
1282.025, 43647.00
1283.096, 43580.00
1284.167, 43566.00
1285.238, 43508.00
1286.308, 43572.00
1287.379, 43307.00
1288.449, 43640.00
1289.519, 43883.00
1290.589, 43853.00
1291.659, 43619.00
1292.729, 43959.00
1293.798, 43759.00
1294.868, 43835.00
1295.937, 43956.00
1297.006, 43969.00
1298.075, 43735.00
1299.143, 44279.00
1300.212, 43904.00
1301.280, 43995.00
1302.348, 44041.00
1303.416, 44139.00
1304.484, 43800.00
1305.552, 44219.00
1306.620, 44446.00
1307.687, 43955.00
1308.754, 44539.00
1309.821, 44551.00
1310.888, 44203.00
1311.955, 44429.00
1313.021, 44182.00
1314.088, 44267.00
1315.154, 44254.00
1316.220, 44509.00
1317.286, 44665.00
1318.352, 44682.00
1319.417, 44844.03
1320.483, 44754.31
1321.548, 44978.00
1322.613, 44604.00
1323.678, 44584.00
1324.743, 44604.00
1325.807, 44608.00
1326.872, 44604.00
1327.936, 44664.30
1329.000, 44831.00
1330.064, 44791.42
1331.128, 44799.00
1332.191, 44877.00
1333.255, 44660.00
1334.318, 44543.00
1335.381, 44712.00
1336.444, 44629.00
1337.507, 44758.00
1338.569, 44698.00
1339.632, 44928.00
1340.694, 44864.00
1341.756, 44676.00
1342.818, 44860.00
1343.880, 44539.00
1344.941, 45006.00
1346.003, 44837.00
1347.064, 44990.00
1348.125, 44706.00
1349.186, 44882.00
1350.247, 45074.00
1351.308, 44837.00
1352.368, 44919.00
1353.428, 45235.00
1354.489, 44987.00
1355.549, 45039.00
1356.608, 44960.00
1357.668, 45056.00
1358.727, 45195.00
1359.787, 45110.00
1360.846, 45291.00
1361.905, 45117.00
1362.964, 45343.00
1364.022, 45331.00
1365.081, 45465.00
1366.139, 45089.00
1367.197, 45358.00
1368.255, 45461.00
1369.313, 45131.00
1370.371, 45356.00
1371.428, 45680.00
1372.486, 45377.00
1373.543, 45552.00
1374.600, 45504.00
1375.657, 45721.00
1376.713, 45617.00
1377.770, 45701.44
1378.826, 45738.00
1379.882, 45682.00
1380.938, 45752.00
1381.994, 45544.00
1383.050, 45870.00
1384.106, 45819.00
1385.161, 45742.00
1386.216, 45913.00
1387.271, 45977.00
1388.326, 45799.00
1389.381, 45988.00
1390.435, 45907.00
1391.490, 46127.00
1392.544, 45989.00
1393.598, 45820.00
1394.652, 45965.00
1395.705, 45949.00
1396.759, 45886.00
1397.812, 45858.00
1398.866, 46206.00
1399.919, 46308.00
1400.972, 46315.00
1402.024, 46100.00
1403.077, 46115.00
1404.129, 45992.00
1405.181, 46060.00
1406.233, 46230.00
1407.285, 46081.00
1408.337, 46241.00
1409.389, 46460.00
1410.440, 46016.00
1411.491, 46514.00
1412.542, 46475.00
1413.593, 46616.00
1414.644, 46302.00
1415.695, 46680.00
1416.745, 46330.00
1417.795, 46429.00
1418.845, 46450.00
1419.895, 46844.00
1420.945, 46392.00
1421.995, 46727.00
1423.044, 46672.00
1424.093, 46544.00
1425.142, 46761.00
1426.191, 46784.00
1427.240, 46821.00
1428.289, 46987.00
1429.337, 47048.00
1430.385, 46912.00
1431.433, 46940.00
1432.481, 47119.00
1433.529, 46907.00
1434.577, 47085.00
1435.624, 47105.00
1436.672, 47189.00
1437.719, 47013.00
1438.766, 47591.00
1439.812, 47558.00
1440.859, 47408.00
1441.905, 47294.00
1442.952, 47613.00
1443.998, 47837.00
1445.044, 47988.00
1446.090, 47996.00
1447.135, 47889.00
1448.181, 47974.00
1449.226, 47853.00
1450.271, 47872.00
1451.316, 48003.00
1452.361, 47956.00
1453.405, 47915.00
1454.450, 48332.00
1455.494, 48237.00
1456.538, 48310.00
1457.582, 48180.00
1458.626, 48370.00
1459.670, 48216.00
1460.713, 48298.00
1461.757, 48017.00
1462.800, 48175.00
1463.843, 48166.00
1464.886, 48243.00
1465.928, 48109.00
1466.971, 48224.00
1468.013, 48270.00
1469.055, 48059.00
1470.097, 47999.00
1471.139, 48260.00
1472.181, 47887.00
1473.222, 47731.00
1474.263, 48252.00
1475.305, 48159.00
1476.346, 48299.00
1477.386, 48124.00
1478.427, 48473.00
1479.468, 48203.00
1480.508, 48345.00
1481.548, 48402.00
1482.588, 48377.00
1483.628, 48140.00
1484.668, 48357.00
1485.707, 48283.00
1486.747, 48251.00
1487.786, 48481.00
1488.825, 48221.00
1489.864, 48413.00
1490.902, 48377.00
1491.941, 48448.00
1492.979, 48298.00
1494.017, 48243.00
1495.055, 48439.00
1496.093, 48567.00
1497.131, 48322.00
1498.168, 48457.00
1499.206, 48422.00
1500.243, 48606.00
1501.280, 48560.00
1502.317, 48725.00
1503.354, 48351.00
1504.390, 48606.00
1505.426, 48655.00
1506.463, 48567.00
1507.499, 48704.00
1508.535, 48966.00
1509.570, 48724.00
1510.606, 48993.00
1511.641, 48643.00
1512.676, 49097.00
1513.711, 48768.00
1514.746, 49203.00
1515.781, 48770.00
1516.816, 48931.00
1517.850, 48913.00
1518.884, 49335.00
1519.918, 49059.00
1520.952, 49190.00
1521.986, 49227.00
1523.019, 49072.00
1524.053, 48902.00
1525.086, 49111.00
1526.119, 49311.00
1527.152, 49383.00
1528.185, 49072.00
1529.217, 49031.00
1530.250, 49566.00
1531.282, 49153.00
1532.314, 49393.00
1533.346, 49128.00
1534.377, 49326.00
1535.409, 49620.00
1536.440, 49379.00
1537.472, 49540.00
1538.503, 49534.00
1539.534, 49317.00
1540.564, 49695.00
1541.595, 49614.00
1542.625, 49568.00
1543.656, 49589.00
1544.686, 49494.84
1545.716, 49473.00
1546.745, 49423.00
1547.775, 49568.00
1548.804, 49669.00
1549.834, 49935.00
1550.863, 49678.00
1551.892, 49818.00
1552.920, 49749.00
1553.949, 49764.00
1554.977, 50021.00
1556.006, 49648.00
1557.034, 49691.00
1558.062, 49591.00
1559.089, 49867.00
1560.117, 49753.00
1561.144, 50100.00
1562.172, 49963.00
1563.199, 50133.00
1564.226, 50008.00
1565.252, 49916.00
1566.279, 49988.00
1567.305, 49882.00
1568.332, 50069.00
1569.358, 50009.00
1570.384, 50215.00
##END=



