##NAMES=Brazilianite
##RRUFFID=R050319
##IDEAL CHEMISTRY=NaAl_3_(PO_4_)_2_(OH)_4_
##LOCALITY=Minas Gerais, Brazil
##OWNER=RRUFF
##SOURCE=American Museum of Natural History
##DESCRIPTION=Pale green fragment
##STATUS=The identification of this mineral has been confirmed by X-ray diffraction and chemical analysis
##URL=rruff.info/R050319
##MEASURED CHEMISTRY=Na_1.00_Al_3.00_(PO_4_)_2_(OH)_4_
##PIN_ID=M00246
##ORIENTATION=Laser parallel to (1 0 1). Fiducial mark perpendicular to laser is parallel to b [0 1 0]
86.07200, 16098.00
87.30800, 17359.00
88.54200, 18391.00
89.77700, 18119.00
91.01200, 17263.00
92.24600, 16535.00
93.48000, 16386.00
94.71400, 16444.00
95.94800, 16787.00
97.18200, 17099.00
98.41600, 17295.00
99.64900, 18165.00
100.8830, 19224.00
102.1160, 20934.00
103.3490, 22401.00
104.5820, 22890.00
105.8150, 21569.00
107.0470, 20524.00
108.2800, 20046.00
109.5120, 19480.00
110.7440, 18902.00
111.9760, 18924.00
113.2080, 18888.00
114.4400, 19212.00
115.6710, 18785.00
116.9030, 18025.00
118.1340, 17461.00
119.3650, 17400.00
120.5960, 17181.00
121.8270, 16773.00
123.0580, 16795.00
124.2880, 16746.00
125.5190, 16625.00
126.7490, 16770.00
127.9790, 16865.00
129.2090, 16682.00
130.4390, 16928.00
131.6680, 16974.00
132.8980, 16866.00
134.1270, 17150.00
135.3560, 17315.00
136.5850, 17486.00
137.8140, 17920.00
139.0430, 18163.00
140.2710, 18340.00
141.5000, 18849.00
142.7280, 19139.00
143.9560, 19632.00
145.1840, 19787.13
146.4120, 20073.00
147.6390, 19958.00
148.8670, 19933.00
150.0940, 19770.00
151.3210, 19481.00
152.5490, 19538.00
153.7750, 19564.00
155.0020, 19508.00
156.2290, 19940.00
157.4550, 20458.00
158.6810, 20885.00
159.9080, 21571.00
161.1340, 22321.00
162.3590, 23540.00
163.5850, 24514.00
164.8110, 24877.00
166.0360, 24596.00
167.2610, 23936.00
168.4860, 23261.00
169.7110, 22659.00
170.9360, 22337.00
172.1610, 21729.00
173.3850, 21283.00
174.6100, 20704.00
175.8340, 20284.00
177.0580, 19846.00
178.2820, 19751.00
179.5050, 19664.00
180.7290, 19784.00
181.9520, 19708.00
183.1760, 19730.00
184.3990, 19636.00
185.6220, 20011.00
186.8450, 20185.00
188.0670, 20277.00
189.2900, 20419.00
190.5120, 20493.63
191.7340, 20665.00
192.9560, 20610.00
194.1780, 20781.00
195.4000, 20825.00
196.6220, 21074.00
197.8430, 21007.33
199.0640, 20985.00
200.2860, 20860.00
201.5070, 20757.00
202.7270, 20565.00
203.9480, 20504.00
205.1690, 20489.31
206.3890, 20396.00
207.6090, 20576.00
208.8290, 20692.00
210.0490, 20814.73
211.2690, 20915.73
212.4890, 21088.00
213.7080, 21130.00
214.9280, 21386.00
216.1470, 21623.00
217.3660, 21743.00
218.5850, 22073.00
219.8030, 22159.00
221.0220, 21928.00
222.2400, 21975.00
223.4590, 21594.00
224.6770, 21464.00
225.8950, 21433.00
227.1120, 21663.00
228.3300, 21714.00
229.5480, 21851.00
230.7650, 21928.00
231.9820, 22171.00
233.1990, 22278.00
234.4160, 22332.00
235.6330, 22489.00
236.8490, 22289.00
238.0660, 22502.00
239.2820, 22421.00
240.4980, 22796.00
241.7140, 22660.00
242.9300, 22504.00
244.1460, 22491.00
245.3610, 21929.00
246.5770, 21751.00
247.7920, 21444.00
249.0070, 21526.00
250.2220, 21192.00
251.4370, 21187.00
252.6510, 21071.00
253.8660, 21060.00
255.0800, 21027.00
256.2940, 20834.00
257.5080, 21072.00
258.7220, 20966.00
259.9360, 21258.00
261.1490, 21177.00
262.3630, 21277.00
263.5760, 21339.00
264.7890, 21231.00
266.0020, 21509.00
267.2150, 21532.00
268.4270, 21601.00
269.6400, 21767.00
270.8520, 22033.00
272.0640, 22146.00
273.2760, 22546.00
274.4880, 22628.00
275.7000, 23314.00
276.9120, 23352.00
278.1230, 23149.00
279.3340, 22718.00
280.5450, 22419.00
281.7560, 22125.00
282.9670, 22088.00
284.1780, 22071.00
285.3880, 21914.00
286.5980, 21792.00
287.8090, 21609.00
289.0190, 21997.00
290.2290, 22055.00
291.4380, 22264.00
292.6480, 22264.00
293.8570, 22324.00
295.0670, 22402.00
296.2760, 22476.18
297.4850, 22513.93
298.6930, 22571.82
299.9020, 22608.00
301.1110, 22646.00
302.3190, 22735.00
303.5270, 22759.00
304.7350, 22724.00
305.9430, 22645.00
307.1510, 22861.00
308.3580, 22796.00
309.5660, 23148.00
310.7730, 23391.00
311.9800, 23444.00
313.1870, 23847.00
314.3940, 23950.00
315.6010, 23704.00
316.8070, 23717.00
318.0130, 23453.00
319.2200, 23601.00
320.4260, 23355.00
321.6310, 23489.00
322.8370, 23155.00
324.0430, 22949.00
325.2480, 22862.00
326.4540, 22665.00
327.6590, 22559.55
328.8640, 22345.00
330.0680, 22305.00
331.2730, 22200.00
332.4780, 21994.00
333.6820, 21853.00
334.8860, 21907.00
336.0900, 21974.00
337.2940, 21982.00
338.4980, 21898.00
339.7010, 21988.00
340.9050, 21960.58
342.1080, 22218.00
343.3110, 22064.00
344.5140, 22273.00
345.7170, 22505.00
346.9200, 22301.00
348.1220, 22556.00
349.3240, 22563.00
350.5270, 22528.00
351.7290, 22844.00
352.9310, 22499.00
354.1320, 22591.00
355.3340, 22877.00
356.5350, 22982.00
357.7370, 23079.00
358.9380, 22987.00
360.1390, 23056.00
361.3400, 22980.00
362.5400, 23123.00
363.7410, 23237.00
364.9410, 23459.00
366.1410, 23491.00
367.3410, 23662.00
368.5410, 23677.00
369.7410, 23863.00
370.9400, 23819.00
372.1400, 23873.00
373.3390, 24016.00
374.5380, 24112.00
375.7370, 24104.01
376.9360, 23893.00
378.1350, 24034.00
379.3330, 23954.00
380.5310, 23827.00
381.7300, 23915.00
382.9280, 23890.00
384.1260, 24039.00
385.3230, 23947.00
386.5210, 24203.00
387.7180, 24260.00
388.9160, 24053.00
390.1130, 24527.00
391.3100, 24311.00
392.5060, 24733.00
393.7030, 24778.00
394.9000, 24910.00
396.0960, 25291.00
397.2920, 25335.00
398.4880, 25513.00
399.6840, 25486.00
400.8800, 25586.00
402.0750, 25698.00
403.2710, 25647.00
404.4660, 25721.00
405.6610, 25378.00
406.8560, 25372.00
408.0510, 25071.00
409.2450, 25259.00
410.4400, 25013.00
411.6340, 24879.00
412.8280, 24542.00
414.0220, 24455.00
415.2160, 24500.00
416.4100, 24494.00
417.6030, 24113.00
418.7970, 24472.00
419.9900, 24285.00
421.1830, 24188.00
422.3760, 24319.00
423.5690, 24240.00
424.7610, 24303.00
425.9540, 24438.00
427.1460, 24474.00
428.3380, 24653.00
429.5300, 24749.00
430.7220, 25019.00
431.9140, 25285.00
433.1050, 25268.00
434.2970, 25350.00
435.4880, 25532.00
436.6790, 25770.00
437.8700, 26031.00
439.0610, 26247.00
440.2510, 25941.00
441.4420, 25874.00
442.6320, 25841.00
443.8220, 25701.00
445.0120, 25888.00
446.2020, 25926.00
447.3910, 25914.00
448.5810, 25919.00
449.7700, 25925.00
450.9600, 26076.00
452.1490, 26089.00
453.3370, 26491.00
454.5260, 26791.00
455.7150, 26933.00
456.9030, 26971.00
458.0910, 26880.00
459.2800, 26996.00
460.4670, 26959.20
461.6550, 27014.00
462.8430, 26978.00
464.0300, 26923.00
465.2180, 26952.00
466.4050, 26964.00
467.5920, 26671.00
468.7790, 26754.00
469.9650, 27117.00
471.1520, 26940.00
472.3380, 27145.00
473.5250, 27424.00
474.7110, 28097.00
475.8970, 28341.00
477.0820, 28825.00
478.2680, 29517.00
479.4540, 29806.00
480.6390, 30069.00
481.8240, 30634.00
483.0090, 31027.00
484.1940, 31612.00
485.3780, 31860.00
486.5630, 32602.00
487.7470, 33203.00
488.9320, 33542.00
490.1160, 34181.00
491.3000, 34947.00
492.4830, 35571.00
493.6670, 36667.00
494.8500, 37571.00
496.0340, 38436.00
497.2170, 39326.43
498.4000, 40241.00
499.5820, 40877.00
500.7650, 41280.00
501.9480, 41871.00
503.1300, 41954.00
504.3120, 42346.00
505.4940, 42711.00
506.6760, 42626.00
507.8580, 42894.00
509.0390, 42745.00
510.2210, 43101.00
511.4020, 42464.00
512.5830, 42231.00
513.7640, 42162.00
514.9450, 41090.00
516.1250, 40572.00
517.3060, 39906.00
518.4860, 39843.00
519.6660, 39324.00
520.8460, 38906.00
522.0260, 38712.00
523.2060, 38640.00
524.3850, 38680.00
525.5650, 38933.00
526.7440, 39319.00
527.9230, 39378.00
529.1020, 39439.00
530.2810, 39452.00
531.4590, 39618.00
532.6380, 39542.00
533.8160, 39108.00
534.9940, 38264.00
536.1720, 37547.00
537.3500, 36982.00
538.5270, 36303.00
539.7050, 35912.00
540.8820, 35148.00
542.0590, 34560.00
543.2360, 34294.00
544.4130, 34209.00
545.5900, 34408.00
546.7660, 34516.00
547.9430, 35491.00
549.1190, 36074.00
550.2950, 37054.00
551.4710, 37833.00
552.6470, 39447.00
553.8220, 40398.00
554.9980, 41618.00
556.1730, 43051.00
557.3480, 43270.00
558.5230, 43302.00
559.6980, 43083.00
560.8730, 42416.00
562.0470, 42135.00
563.2220, 41318.00
564.3960, 40834.00
565.5700, 40336.00
566.7440, 39713.00
567.9170, 39180.00
569.0910, 38469.00
570.2640, 37288.00
571.4380, 36913.00
572.6110, 35983.00
573.7840, 35269.00
574.9570, 34783.00
576.1290, 34384.00
577.3020, 33984.00
578.4740, 34076.00
579.6460, 33878.00
580.8180, 33869.00
581.9900, 33799.00
583.1620, 34030.00
584.3330, 34424.00
585.5040, 34803.00
586.6760, 35171.00
587.8470, 35607.00
589.0180, 36269.00
590.1880, 37442.00
591.3590, 39022.00
592.5290, 40237.00
593.7000, 42369.00
594.8700, 44281.00
596.0400, 46030.00
597.2090, 48108.00
598.3790, 49575.00
599.5490, 50485.00
600.7180, 50376.00
601.8870, 49407.00
603.0560, 47650.00
604.2250, 45667.00
605.3940, 43889.00
606.5620, 42553.21
607.7300, 40729.00
608.8990, 40159.00
610.0670, 39443.00
611.2350, 38532.00
612.4020, 38686.00
613.5700, 38522.00
614.7370, 38385.00
615.9050, 37769.00
617.0720, 37439.00
618.2390, 36966.00
619.4060, 36064.00
620.5720, 35663.00
621.7390, 35267.00
622.9050, 34527.00
624.0710, 34470.00
625.2370, 34209.00
626.4030, 34154.00
627.5690, 34007.00
628.7340, 33896.51
629.9000, 33747.00
631.0650, 33752.00
632.2300, 33797.00
633.3950, 33781.00
634.5600, 33835.00
635.7240, 33614.00
636.8890, 33171.00
638.0530, 32700.00
639.2170, 32433.00
640.3810, 32310.00
641.5450, 32004.00
642.7080, 31986.00
643.8720, 31541.00
645.0350, 31694.00
646.1980, 31800.00
647.3610, 31813.00
648.5240, 31612.00
649.6870, 31833.00
650.8490, 31659.00
652.0120, 31877.00
653.1740, 31885.00
654.3360, 32009.00
655.4980, 31885.00
656.6600, 32131.00
657.8210, 32025.00
658.9830, 31904.00
660.1440, 31822.00
661.3050, 31807.00
662.4660, 31585.00
663.6270, 31496.00
664.7870, 31098.00
665.9480, 30899.00
667.1080, 30903.00
668.2680, 30436.00
669.4280, 30570.00
670.5880, 30462.00
671.7480, 30344.00
672.9070, 30251.00
674.0670, 30254.00
675.2260, 30239.00
676.3850, 30090.00
677.5440, 29942.00
678.7030, 30000.00
679.8610, 30085.00
681.0200, 30043.00
682.1780, 29816.00
683.3360, 29858.00
684.4940, 29796.00
685.6520, 29900.00
686.8090, 29829.00
687.9670, 29803.00
689.1240, 29818.00
690.2810, 29766.00
691.4380, 29649.00
692.5950, 29847.00
693.7520, 29723.00
694.9080, 29854.00
696.0650, 29715.00
697.2210, 29887.00
698.3770, 30128.00
699.5330, 29917.00
700.6880, 29923.00
701.8440, 30119.00
702.9990, 30075.00
704.1550, 29947.00
705.3100, 30027.00
706.4650, 30070.00
707.6190, 30137.00
708.7740, 30078.00
709.9290, 30433.00
711.0830, 30343.00
712.2370, 30292.00
713.3910, 30422.00
714.5450, 30288.00
715.6980, 30403.00
716.8520, 30487.00
718.0050, 30318.00
719.1580, 30449.00
720.3110, 30274.00
721.4640, 30329.00
722.6170, 30434.00
723.7700, 30461.00
724.9220, 30341.00
726.0740, 30316.00
727.2260, 30433.00
728.3780, 30582.00
729.5300, 30590.00
730.6810, 30641.00
731.8330, 30704.00
732.9840, 30665.00
734.1350, 30733.00
735.2860, 30690.00
736.4370, 30795.00
737.5880, 30885.00
738.7380, 30936.00
739.8880, 30879.00
741.0390, 31050.00
742.1890, 30889.00
743.3380, 31319.00
744.4880, 31319.00
745.6380, 31267.00
746.7870, 31171.00
747.9360, 31476.00
749.0850, 31479.00
750.2340, 31432.00
751.3830, 31672.00
752.5310, 31720.00
753.6800, 31788.00
754.8280, 31846.00
755.9760, 31972.00
757.1240, 32271.00
758.2720, 32004.00
759.4190, 32215.00
760.5670, 32456.00
761.7140, 32418.00
762.8610, 32706.00
764.0080, 32541.00
765.1550, 32696.00
766.3020, 32606.00
767.4480, 32652.00
768.5950, 32778.00
769.7410, 32615.00
770.8870, 32643.00
772.0330, 32793.00
773.1780, 32409.00
774.3240, 32717.00
775.4690, 32433.00
776.6140, 32481.00
777.7590, 32462.00
778.9040, 32417.00
780.0490, 32355.00
781.1940, 32302.00
782.3380, 32269.12
783.4820, 32304.15
784.6260, 32326.75
785.7700, 32395.00
786.9140, 32479.47
788.0580, 32598.00
789.2010, 32743.00
790.3450, 32948.00
791.4880, 33110.00
792.6310, 33247.00
793.7730, 33204.00
794.9160, 33578.00
796.0590, 33630.00
797.2010, 33855.00
798.3430, 33770.00
799.4850, 33963.00
800.6270, 34171.00
801.7690, 34478.00
802.9100, 34206.00
804.0520, 33884.00
805.1930, 34112.00
806.3340, 34079.00
807.4750, 34204.00
808.6160, 34118.07
809.7560, 34018.00
810.8970, 33915.00
812.0370, 33658.00
813.1770, 33629.00
814.3170, 33854.00
815.4570, 33463.00
816.5960, 33796.00
817.7360, 33690.00
818.8750, 33515.00
820.0140, 33509.00
821.1530, 33363.00
822.2920, 33531.00
823.4310, 33126.00
824.5690, 33063.00
825.7070, 33354.00
826.8460, 33146.00
827.9840, 33103.00
829.1220, 32937.00
830.2590, 33199.00
831.3970, 33163.00
832.5340, 33099.00
833.6710, 33061.00
834.8080, 33063.00
835.9450, 33033.95
837.0820, 33219.00
838.2190, 32991.00
839.3550, 33051.00
840.4910, 32962.00
841.6270, 32818.00
842.7630, 33130.00
843.8990, 32920.00
845.0350, 32920.00
846.1700, 32953.00
847.3060, 32769.00
848.4410, 32931.00
849.5760, 33124.00
850.7100, 32997.00
851.8450, 33100.00
852.9800, 32935.00
854.1140, 32967.00
855.2480, 33036.00
856.3820, 32987.00
857.5160, 33257.00
858.6500, 33185.00
859.7830, 33271.00
860.9170, 33012.00
862.0500, 33030.00
863.1830, 33270.00
864.3160, 33135.00
865.4480, 33294.00
866.5810, 33392.00
867.7130, 33266.00
868.8460, 33369.00
869.9780, 33260.00
871.1100, 33275.00
872.2410, 33205.00
873.3730, 33206.56
874.5050, 33270.00
875.6360, 33242.00
876.7670, 33230.00
877.8980, 33280.00
879.0290, 33301.00
880.1590, 33239.00
881.2900, 33255.00
882.4200, 33432.00
883.5500, 33199.00
884.6800, 33411.00
885.8100, 33242.00
886.9400, 33308.00
888.0690, 33243.00
889.1990, 33508.00
890.3280, 33583.00
891.4570, 33464.00
892.5860, 33385.00
893.7140, 33464.00
894.8430, 33648.00
895.9710, 33370.00
897.1000, 33561.00
898.2280, 33735.00
899.3560, 33677.00
900.4830, 33587.00
901.6110, 33739.00
902.7380, 33734.00
903.8660, 33975.00
904.9930, 33972.64
906.1200, 34023.00
907.2460, 34032.00
908.3730, 33978.00
909.5000, 33970.00
910.6260, 34009.00
911.7520, 34040.96
912.8780, 34192.00
914.0040, 34141.00
915.1290, 34282.00
916.2550, 34253.49
917.3800, 34358.34
918.5050, 34355.00
919.6300, 34530.00
920.7550, 34520.00
921.8800, 34529.00
923.0040, 34498.00
924.1290, 34318.00
925.2530, 34388.00
926.3770, 34432.64
927.5010, 34806.00
928.6250, 34702.00
929.7480, 34925.00
930.8720, 35149.00
931.9950, 34972.00
933.1180, 35052.00
934.2410, 35183.00
935.3640, 35426.00
936.4860, 35222.00
937.6090, 35472.00
938.7310, 35688.00
939.8530, 35743.00
940.9750, 36075.00
942.0970, 35883.00
943.2180, 36259.00
944.3400, 36257.00
945.4610, 36284.00
946.5820, 36768.00
947.7030, 36619.00
948.8240, 36550.00
949.9450, 36863.00
951.0650, 36990.00
952.1860, 37150.00
953.3060, 37102.00
954.4260, 37271.00
955.5460, 37265.00
956.6650, 37381.00
957.7850, 37387.00
958.9040, 37411.00
960.0230, 37655.00
961.1420, 37740.96
962.2610, 38145.00
963.3800, 38194.00
964.4990, 38287.00
965.6170, 38700.00
966.7350, 39074.00
967.8530, 39640.00
968.9710, 39709.00
970.0890, 40075.00
971.2070, 40657.00
972.3240, 41567.00
973.4410, 42038.00
974.5580, 42982.00
975.6750, 43586.00
976.7920, 44560.00
977.9090, 45538.00
979.0250, 46393.00
980.1410, 48409.00
981.2580, 49826.00
982.3740, 52056.00
983.4890, 54378.00
984.6050, 56290.00
985.7200, 58062.00
986.8360, 59542.00
987.9510, 59854.00
989.0660, 59218.00
990.1810, 58109.00
991.2950, 56256.00
992.4100, 54371.00
993.5240, 52000.00
994.6390, 50074.00
995.7530, 48895.00
996.8660, 47825.00
997.9800, 47184.00
999.0940, 46341.00
1000.207, 45989.00
1001.320, 45871.00
1002.433, 45947.00
1003.546, 45819.00
1004.659, 46107.00
1005.772, 46215.00
1006.884, 46795.00
1007.996, 47404.00
1009.108, 48594.00
1010.220, 49676.00
1011.332, 51124.00
1012.444, 52459.00
1013.555, 54354.00
1014.666, 55559.00
1015.777, 57204.00
1016.888, 57929.00
1017.999, 58814.00
1019.110, 58815.00
1020.220, 58371.00
1021.331, 57744.00
1022.441, 56093.00
1023.551, 55046.00
1024.661, 53727.00
1025.770, 52566.00
1026.880, 51423.00
1027.989, 50540.29
1029.098, 49582.00
1030.207, 49117.00
1031.316, 48602.00
1032.425, 48241.00
1033.533, 48131.00
1034.642, 48122.00
1035.750, 47888.00
1036.858, 48018.00
1037.966, 48248.00
1039.073, 47864.00
1040.181, 48149.00
1041.288, 48050.00
1042.396, 48277.00
1043.503, 48176.00
1044.610, 47789.00
1045.716, 47772.00
1046.823, 47901.00
1047.929, 47300.00
1049.036, 47671.00
1050.142, 47572.00
1051.248, 47273.00
1052.353, 47484.00
1053.459, 47477.00
1054.564, 47532.00
1055.670, 47439.00
1056.775, 48011.00
1057.880, 47635.00
1058.985, 48006.00
1060.089, 48031.00
1061.194, 48129.00
1062.298, 47995.79
1063.402, 47505.00
1064.506, 47312.00
1065.610, 47138.00
1066.713, 46372.00
1067.817, 46347.00
1068.920, 45522.00
1070.023, 45252.00
1071.126, 45277.00
1072.229, 44701.00
1073.332, 44595.00
1074.435, 44513.00
1075.537, 44284.00
1076.639, 44273.00
1077.741, 44095.00
1078.843, 43592.00
1079.945, 43394.00
1081.046, 43273.00
1082.148, 42773.00
1083.249, 42618.00
1084.350, 42072.00
1085.451, 41621.00
1086.551, 41357.00
1087.652, 41191.00
1088.752, 40706.00
1089.853, 40450.00
1090.953, 40451.00
1092.053, 40010.00
1093.152, 39909.00
1094.252, 39805.00
1095.351, 39541.00
1096.451, 39388.00
1097.550, 39379.00
1098.649, 39313.00
1099.748, 39168.00
1100.846, 39107.00
1101.945, 39123.00
1103.043, 39107.00
1104.141, 39123.00
1105.239, 38735.00
1106.337, 39302.00
1107.434, 39321.00
1108.532, 39273.00
1109.629, 39712.00
1110.726, 39920.00
1111.823, 40049.00
1112.920, 40484.00
1114.017, 40677.00
1115.113, 40746.00
1116.210, 41297.00
1117.306, 41504.00
1118.402, 41449.00
1119.498, 41458.00
1120.593, 41297.00
1121.689, 41188.00
1122.784, 41455.00
1123.879, 41397.00
1124.974, 41382.00
1126.069, 41306.00
1127.164, 41145.00
1128.259, 41164.00
1129.353, 41315.00
1130.447, 40843.00
1131.541, 40815.00
1132.635, 40839.00
1133.729, 40577.00
1134.822, 40817.00
1135.916, 40986.00
1137.009, 40758.00
1138.102, 40718.00
1139.195, 40578.00
1140.288, 40806.00
1141.380, 40929.00
1142.473, 40930.00
1143.565, 40897.00
1144.657, 41034.00
1145.749, 40830.00
1146.841, 40873.00
1147.932, 41082.00
1149.024, 40828.00
1150.115, 40994.00
1151.206, 40631.00
1152.297, 40517.00
1153.388, 40720.00
1154.479, 40458.00
1155.569, 40474.00
1156.659, 40340.00
1157.750, 40460.00
1158.839, 40315.00
1159.929, 40378.00
1161.019, 40309.00
1162.108, 40226.00
1163.198, 40544.00
1164.287, 40672.00
1165.376, 40395.00
1166.465, 40567.00
1167.553, 40257.00
1168.642, 40148.00
1169.730, 40739.00
1170.818, 40424.00
1171.906, 40437.00
1172.994, 40540.00
1174.082, 40233.00
1175.170, 40403.00
1176.257, 40402.00
1177.344, 40248.00
1178.431, 40209.00
1179.518, 40434.00
1180.605, 40282.00
1181.691, 40280.00
1182.778, 40405.00
1183.864, 40238.00
1184.950, 40256.00
1186.036, 40303.00
1187.122, 40231.50
1188.207, 40272.00
1189.292, 40237.00
1190.378, 40273.00
1191.463, 40336.00
1192.548, 40155.00
1193.632, 40192.00
1194.717, 40419.00
1195.801, 40314.00
1196.886, 40447.00
1197.970, 40158.00
1199.054, 40594.00
1200.137, 40366.00
1201.221, 40458.00
1202.305, 40484.00
1203.388, 40575.00
1204.471, 40741.00
1205.554, 40752.00
1206.637, 40544.00
1207.719, 40393.00
1208.802, 40834.00
1209.884, 40490.00
1210.966, 40727.00
1212.048, 40785.00
1213.130, 40935.00
1214.212, 40891.00
1215.293, 40970.63
1216.374, 40774.00
1217.456, 40960.00
1218.536, 40906.00
1219.617, 40744.00
1220.698, 41029.00
1221.778, 40918.00
1222.859, 40963.00
1223.939, 40886.00
1225.019, 40817.00
1226.099, 40747.00
1227.178, 40908.00
1228.258, 40864.00
1229.337, 40826.00
1230.417, 41082.00
1231.496, 41098.00
1232.574, 41237.00
1233.653, 41119.00
1234.732, 41295.00
1235.810, 41159.00
1236.888, 41219.00
1237.966, 41131.00
1239.044, 41338.00
1240.122, 41276.00
1241.199, 41364.00
1242.277, 41387.00
1243.354, 41262.00
1244.431, 41447.00
1245.508, 41181.00
1246.585, 41422.00
1247.661, 41412.00
1248.738, 41680.00
1249.814, 41396.00
1250.890, 41347.00
1251.966, 41859.00
1253.042, 41578.00
1254.117, 41673.00
1255.193, 41540.00
1256.268, 41790.00
1257.343, 41579.00
1258.418, 41452.00
1259.493, 41739.00
1260.567, 41918.00
1261.642, 41614.00
1262.716, 41796.00
1263.790, 41951.00
1264.864, 42006.00
1265.938, 41967.00
1267.011, 42109.94
1268.085, 42007.00
1269.158, 42257.00
1270.231, 42115.00
1271.304, 42116.00
1272.377, 42316.00
1273.450, 42376.00
1274.522, 42097.00
1275.594, 42214.00
1276.666, 42265.00
1277.738, 42187.00
1278.810, 42368.00
1279.882, 42348.00
1280.953, 42510.00
1282.025, 42221.00
1283.096, 42418.00
1284.167, 42558.00
1285.238, 42315.00
1286.308, 42449.00
1287.379, 42501.00
1288.449, 42396.00
1289.519, 42718.00
1290.589, 42743.00
1291.659, 42623.00
1292.729, 42956.00
1293.798, 43009.73
1294.868, 42853.96
1295.937, 43348.00
1297.006, 42676.00
1298.075, 42661.00
1299.143, 42932.00
1300.212, 42986.00
1301.280, 42677.00
1302.348, 43099.00
1303.416, 42906.00
1304.484, 42877.00
1305.552, 42905.00
1306.620, 42900.00
1307.687, 43203.00
1308.754, 43091.00
1309.821, 43259.00
1310.888, 42942.00
1311.955, 43098.00
1313.021, 43314.00
1314.088, 43509.00
1315.154, 43518.00
1316.220, 43359.00
1317.286, 43267.00
1318.352, 43246.85
1319.417, 43217.00
1320.483, 43248.00
1321.548, 43361.00
1322.613, 43318.13
1323.678, 43334.00
1324.743, 43351.00
1325.807, 43355.00
1326.872, 43449.00
1327.936, 43485.00
1329.000, 43434.00
1330.064, 43285.00
1331.128, 43536.00
1332.191, 43516.00
1333.255, 43287.00
1334.318, 43541.00
1335.381, 43576.00
1336.444, 43630.00
1337.507, 43643.00
1338.569, 43749.00
1339.632, 43581.00
1340.694, 43786.00
1341.756, 43679.00
1342.818, 43968.00
1343.880, 43762.00
1344.941, 43883.00
1346.003, 43870.00
1347.064, 43754.00
1348.125, 43804.00
1349.186, 43785.72
1350.247, 43834.00
1351.308, 43773.00
1352.368, 43894.00
1353.428, 43778.00
1354.489, 43860.17
1355.549, 44062.00
1356.608, 43893.00
1357.668, 43996.00
1358.727, 43872.00
1359.787, 43966.00
1360.846, 44114.00
1361.905, 44174.00
1362.964, 44091.00
1364.022, 44049.00
1365.081, 44148.00
1366.139, 44098.00
1367.197, 44134.00
1368.255, 44267.00
1369.313, 44111.00
1370.371, 44283.00
1371.428, 44038.00
1372.486, 44497.00
1373.543, 44358.00
1374.600, 44295.00
1375.657, 44418.00
1376.713, 44512.00
1377.770, 44578.00
1378.826, 44436.00
1379.882, 44403.00
1380.938, 44630.00
1381.994, 44475.00
1383.050, 44706.00
1384.106, 44664.00
1385.161, 44646.00
1386.216, 44446.00
1387.271, 44616.00
1388.326, 44593.00
1389.381, 44762.00
1390.435, 44623.00
1391.490, 44667.00
1392.544, 44967.00
1393.598, 44814.00
1394.652, 44635.00
1395.705, 44818.00
1396.759, 44660.00
1397.812, 44792.00
1398.866, 44778.00
1399.919, 44976.00
1400.972, 45125.00
1402.024, 45053.00
1403.077, 45127.00
1404.129, 45056.00
1405.181, 44994.00
1406.233, 45065.00
1407.285, 45130.00
1408.337, 44994.00
1409.389, 45115.00
1410.440, 45392.00
1411.491, 44960.00
1412.542, 45018.00
1413.593, 45163.00
1414.644, 45358.00
1415.695, 45480.00
1416.745, 45298.00
1417.795, 45157.00
1418.845, 45283.00
1419.895, 45329.00
1420.945, 45248.00
1421.995, 45565.00
1423.044, 45768.00
1424.093, 45359.00
1425.142, 45407.00
1426.191, 45540.00
1427.240, 45467.00
1428.289, 45598.00
1429.337, 45507.00
1430.385, 45810.00
1431.433, 45689.00
1432.481, 45924.00
1433.529, 45793.00
1434.577, 45819.00
1435.624, 45883.00
1436.672, 45920.00
1437.719, 45953.00
1438.766, 46235.00
1439.812, 46073.00
1440.859, 46211.00
1441.905, 46380.00
1442.952, 46184.00
1443.998, 46369.00
1445.044, 46407.00
1446.090, 46675.00
1447.135, 46619.00
1448.181, 46639.00
1449.226, 46522.00
1450.271, 46878.00
1451.316, 46869.00
1452.361, 47045.00
1453.405, 47088.89
1454.450, 46922.00
1455.494, 47037.00
1456.538, 46974.00
1457.582, 46843.00
1458.626, 46935.34
1459.670, 47066.00
1460.713, 46935.00
1461.757, 46960.00
1462.800, 46841.00
1463.843, 46867.58
1464.886, 46712.00
1465.928, 46894.00
1466.971, 46866.00
1468.013, 46822.00
1469.055, 46853.00
1470.097, 47066.00
1471.139, 47042.00
1472.181, 46854.00
1473.222, 46577.00
1474.263, 46901.00
1475.305, 46746.00
1476.346, 46980.00
1477.386, 46835.00
1478.427, 47074.00
1479.468, 47035.00
1480.508, 46947.00
1481.548, 46959.00
1482.588, 47077.00
1483.628, 46855.00
1484.668, 47006.00
1485.707, 47146.00
1486.747, 47016.00
1487.786, 47042.00
1488.825, 47378.00
1489.864, 47023.00
1490.902, 47313.00
1491.941, 47023.00
1492.979, 46948.00
1494.017, 47042.00
1495.055, 47233.00
1496.093, 47129.00
1497.131, 47268.00
1498.168, 47047.00
1499.206, 47018.00
1500.243, 47245.00
1501.280, 47462.00
1502.317, 47431.00
1503.354, 47542.00
1504.390, 47596.00
1505.426, 47474.00
1506.463, 47410.00
1507.499, 47479.00
1508.535, 47449.00
1509.570, 47421.00
1510.606, 47693.00
1511.641, 47619.00
1512.676, 47736.00
1513.711, 47583.00
1514.746, 47406.00
1515.781, 47777.00
1516.816, 47701.00
1517.850, 48048.00
1518.884, 47965.00
1519.918, 47730.00
1520.952, 47585.00
1521.986, 47745.00
1523.019, 47944.00
1524.053, 48178.00
1525.086, 47849.00
1526.119, 47945.00
1527.152, 47995.00
1528.185, 48240.00
1529.217, 47768.00
1530.250, 48076.00
1531.282, 48387.00
1532.314, 47847.00
1533.346, 47956.00
1534.377, 48385.00
1535.409, 48345.00
1536.440, 48089.00
1537.472, 48316.00
1538.503, 48355.00
1539.534, 48277.00
1540.564, 48313.00
1541.595, 48193.00
1542.625, 48471.00
1543.656, 48391.00
1544.686, 48730.00
1545.716, 48584.00
1546.745, 48358.00
1547.775, 48339.00
1548.804, 48481.00
1549.834, 48362.66
1550.863, 48368.00
1551.892, 48474.00
1552.920, 48507.00
1553.949, 48814.00
1554.977, 48745.00
1556.006, 48836.00
1557.034, 48746.00
1558.062, 48698.00
1559.089, 48748.00
1560.117, 48693.00
1561.144, 48808.00
1562.172, 48522.00
1563.199, 48564.00
1564.226, 48566.00
1565.252, 48714.00
1566.279, 48950.00
1567.305, 48658.00
1568.332, 48921.00
1569.358, 48838.00
1570.384, 49179.00
##END=



