##NAMES=Brazilianite
##RRUFFID=R050504
##IDEAL CHEMISTRY=NaAl_3_(PO_4_)_2_(OH)_4_
##LOCALITY=CÃ³rrego Frio, Minas Gerais, Brazil
##OWNER=RRUFF
##SOURCE=Marcus Origlieri
##DESCRIPTION=Yellowish green fragment
##STATUS=The identification of this mineral has been confirmed by X-ray diffraction and chemical analysis
##URL=rruff.info/R050504
##MEASURED CHEMISTRY=Na_1.00_Al_3.00_(P_1.00_O_4_)_2_(OH)_4_
##PIN_ID=L00567
##ORIENTATION=Laser parallel to (1 0 1). Fiducial mark perpendicular to laser is parallel to b [0 1 0]
83.60200, 9119.000
84.83700, 9514.000
86.07200, 9797.000
87.30800, 10103.00
88.54200, 9999.000
89.77700, 9804.000
91.01200, 9817.000
92.24600, 9606.000
93.48000, 9511.000
94.71400, 9445.000
95.94800, 9523.000
97.18200, 9563.000
98.41600, 9724.000
99.64900, 9768.000
100.8830, 10029.00
102.1160, 10308.00
103.3490, 10389.00
104.5820, 10492.00
105.8150, 10445.00
107.0470, 10809.00
108.2800, 10781.00
109.5120, 10825.00
110.7440, 10566.00
111.9760, 10407.00
113.2080, 10561.00
114.4400, 10696.00
115.6710, 10529.00
116.9030, 10541.00
118.1340, 10470.00
119.3650, 10395.00
120.5960, 10341.00
121.8270, 10370.00
123.0580, 10524.00
124.2880, 10370.00
125.5190, 10599.00
126.7490, 10491.00
127.9790, 10606.00
129.2090, 10610.00
130.4390, 10664.00
131.6680, 10589.00
132.8980, 10663.00
134.1270, 10699.00
135.3560, 10860.00
136.5850, 10964.00
137.8140, 11082.00
139.0430, 11200.00
140.2710, 11337.00
141.5000, 11345.00
142.7280, 11575.00
143.9560, 11646.00
145.1840, 11628.00
146.4120, 11799.00
147.6390, 11839.00
148.8670, 11834.00
150.0940, 11720.00
151.3210, 11755.00
152.5490, 11835.00
153.7750, 11904.77
155.0020, 11933.00
156.2290, 12262.00
157.4550, 12404.00
158.6810, 12746.00
159.9080, 13672.00
161.1340, 15050.00
162.3590, 16769.00
163.5850, 18660.00
164.8110, 20200.00
166.0360, 21305.00
167.2610, 22839.00
168.4860, 25442.00
169.7110, 27424.00
170.9360, 27399.00
172.1610, 25912.00
173.3850, 23790.00
174.6100, 21206.00
175.8340, 19054.00
177.0580, 16864.00
178.2820, 15426.00
179.5050, 14296.00
180.7290, 13583.00
181.9520, 13071.00
183.1760, 12947.00
184.3990, 12790.00
185.6220, 12634.00
186.8450, 12623.00
188.0670, 12689.00
189.2900, 12543.00
190.5120, 12683.00
191.7340, 12725.00
192.9560, 12779.00
194.1780, 12854.00
195.4000, 13007.00
196.6220, 13241.00
197.8430, 13162.00
199.0640, 13427.00
200.2860, 13689.00
201.5070, 13724.00
202.7270, 14094.00
203.9480, 14219.00
205.1690, 13949.00
206.3890, 14026.00
207.6090, 14218.00
208.8290, 14143.00
210.0490, 14251.00
211.2690, 14303.00
212.4890, 14144.00
213.7080, 14200.00
214.9280, 14291.00
216.1470, 14391.00
217.3660, 14549.00
218.5850, 14617.00
219.8030, 14635.22
221.0220, 14628.00
222.2400, 14565.00
223.4590, 14610.00
224.6770, 14487.00
225.8950, 14596.00
227.1120, 14702.00
228.3300, 14930.00
229.5480, 14734.00
230.7650, 14797.00
231.9820, 14407.00
233.1990, 14276.00
234.4160, 14020.00
235.6330, 13677.00
236.8490, 13675.00
238.0660, 13672.00
239.2820, 13582.00
240.4980, 13747.00
241.7140, 13911.00
242.9300, 14040.00
244.1460, 14316.00
245.3610, 14338.00
246.5770, 14307.00
247.7920, 14684.00
249.0070, 14699.00
250.2220, 14893.00
251.4370, 14782.00
252.6510, 14412.00
253.8660, 14283.00
255.0800, 13774.00
256.2940, 13608.00
257.5080, 13313.00
258.7220, 13316.00
259.9360, 13212.00
261.1490, 13025.00
262.3630, 12977.00
263.5760, 13045.00
264.7890, 13183.00
266.0020, 13215.00
267.2150, 13334.00
268.4270, 13521.00
269.6400, 13799.00
270.8520, 13979.00
272.0640, 14206.00
273.2760, 14471.00
274.4880, 14671.00
275.7000, 14909.00
276.9120, 14994.00
278.1230, 14781.00
279.3340, 14828.00
280.5450, 14434.00
281.7560, 14248.00
282.9670, 14220.00
284.1780, 14020.00
285.3880, 14104.00
286.5980, 14094.00
287.8090, 14147.00
289.0190, 14333.00
290.2290, 14410.00
291.4380, 14645.00
292.6480, 14769.00
293.8570, 14882.00
295.0670, 14841.00
296.2760, 14819.00
297.4850, 14697.00
298.6930, 14573.00
299.9020, 14357.00
301.1110, 14284.00
302.3190, 14206.00
303.5270, 14060.00
304.7350, 14233.00
305.9430, 14294.00
307.1510, 14297.00
308.3580, 14295.00
309.5660, 14691.00
310.7730, 14539.00
311.9800, 14800.00
313.1870, 14851.00
314.3940, 14965.00
315.6010, 15002.00
316.8070, 14702.00
318.0130, 14573.00
319.2200, 14634.00
320.4260, 14634.00
321.6310, 14667.00
322.8370, 14501.00
324.0430, 14432.00
325.2480, 14406.00
326.4540, 14176.00
327.6590, 14194.00
328.8640, 14308.00
330.0680, 14066.00
331.2730, 14040.00
332.4780, 14126.00
333.6820, 14202.00
334.8860, 14312.00
336.0900, 14229.00
337.2940, 14503.00
338.4980, 14320.00
339.7010, 14273.00
340.9050, 14552.00
342.1080, 14486.00
343.3110, 14685.00
344.5140, 14913.00
345.7170, 14825.00
346.9200, 15300.00
348.1220, 15580.00
349.3240, 15773.00
350.5270, 16135.00
351.7290, 16570.00
352.9310, 16681.00
354.1320, 16969.00
355.3340, 17089.00
356.5350, 16952.00
357.7370, 16982.00
358.9380, 16671.00
360.1390, 16306.00
361.3400, 16048.00
362.5400, 15840.00
363.7410, 15660.00
364.9410, 15526.79
366.1410, 15373.00
367.3410, 15388.00
368.5410, 15308.00
369.7410, 15357.04
370.9400, 15360.00
372.1400, 15427.00
373.3390, 15419.00
374.5380, 15445.00
375.7370, 15432.00
376.9360, 15474.00
378.1350, 15441.00
379.3330, 15262.00
380.5310, 15142.00
381.7300, 14969.00
382.9280, 14979.00
384.1260, 14789.00
385.3230, 14814.00
386.5210, 14898.00
387.7180, 14856.00
388.9160, 14883.00
390.1130, 15141.00
391.3100, 14905.00
392.5060, 15263.00
393.7030, 15200.00
394.9000, 15451.00
396.0960, 15558.00
397.2920, 15687.00
398.4880, 15736.00
399.6840, 15956.00
400.8800, 16304.00
402.0750, 16300.00
403.2710, 16657.00
404.4660, 17079.00
405.6610, 17151.00
406.8560, 17489.00
408.0510, 17649.00
409.2450, 17764.00
410.4400, 18132.00
411.6340, 18169.00
412.8280, 18230.00
414.0220, 18101.00
415.2160, 17956.00
416.4100, 17946.00
417.6030, 17796.00
418.7970, 17574.00
419.9900, 17772.00
421.1830, 17532.00
422.3760, 17567.00
423.5690, 17671.00
424.7610, 17603.00
425.9540, 17488.00
427.1460, 17589.00
428.3380, 17468.00
429.5300, 17602.00
430.7220, 17673.00
431.9140, 17817.00
433.1050, 17991.00
434.2970, 17972.00
435.4880, 18191.00
436.6790, 18389.00
437.8700, 18402.00
439.0610, 18501.00
440.2510, 18414.00
441.4420, 18261.00
442.6320, 18255.00
443.8220, 17929.00
445.0120, 17918.00
446.2020, 17718.00
447.3910, 17695.00
448.5810, 17716.00
449.7700, 17679.00
450.9600, 17636.00
452.1490, 17789.00
453.3370, 17739.00
454.5260, 18004.00
455.7150, 18024.00
456.9030, 17890.00
458.0910, 18262.00
459.2800, 18054.00
460.4670, 18174.00
461.6550, 18234.00
462.8430, 18348.00
464.0300, 18257.00
465.2180, 18192.00
466.4050, 17906.00
467.5920, 17810.00
468.7790, 17877.00
469.9650, 17636.00
471.1520, 17691.00
472.3380, 17688.00
473.5250, 17832.00
474.7110, 17863.00
475.8970, 18277.00
477.0820, 18449.00
478.2680, 18618.00
479.4540, 18847.00
480.6390, 19056.00
481.8240, 19329.00
483.0090, 19392.00
484.1940, 19531.00
485.3780, 19819.00
486.5630, 20024.00
487.7470, 20483.00
488.9320, 20653.00
490.1160, 20949.00
491.3000, 21166.00
492.4830, 21640.00
493.6670, 21983.00
494.8500, 22456.00
496.0340, 22902.00
497.2170, 23119.00
498.4000, 23741.00
499.5820, 24018.00
500.7650, 24204.00
501.9480, 24173.00
503.1300, 24464.00
504.3120, 24357.00
505.4940, 24305.00
506.6760, 24474.00
507.8580, 24450.00
509.0390, 24572.00
510.2210, 24617.19
511.4020, 24684.00
512.5830, 24711.00
513.7640, 24757.00
514.9450, 24818.00
516.1250, 24970.00
517.3060, 24749.00
518.4860, 24752.00
519.6660, 24688.00
520.8460, 24928.00
522.0260, 25176.00
523.2060, 25518.00
524.3850, 25828.00
525.5650, 26213.00
526.7440, 26513.00
527.9230, 26725.00
529.1020, 27154.00
530.2810, 27082.00
531.4590, 27349.00
532.6380, 27196.00
533.8160, 27216.00
534.9940, 27063.00
536.1720, 26518.00
537.3500, 26190.00
538.5270, 25726.00
539.7050, 25534.00
540.8820, 25261.00
542.0590, 24862.00
543.2360, 25117.00
544.4130, 25042.00
545.5900, 25631.00
546.7660, 25886.00
547.9430, 26427.00
549.1190, 27396.00
550.2950, 28323.00
551.4710, 29463.00
552.6470, 30641.00
553.8220, 32014.00
554.9980, 33527.00
556.1730, 34378.00
557.3480, 34997.00
558.5230, 35662.00
559.6980, 36078.00
560.8730, 36384.00
562.0470, 36032.00
563.2220, 35668.00
564.3960, 35014.00
565.5700, 34282.00
566.7440, 33188.00
567.9170, 31808.00
569.0910, 30507.00
570.2640, 29124.00
571.4380, 27884.00
572.6110, 26524.00
573.7840, 25548.00
574.9570, 24803.00
576.1290, 24121.00
577.3020, 23496.00
578.4740, 23126.33
579.6460, 22731.46
580.8180, 22677.00
581.9900, 22463.00
583.1620, 22516.00
584.3330, 22617.49
585.5040, 22775.00
586.6760, 23138.00
587.8470, 23624.00
589.0180, 24223.00
590.1880, 25179.00
591.3590, 26115.00
592.5290, 27073.00
593.7000, 28475.00
594.8700, 29737.00
596.0400, 30670.00
597.2090, 31752.00
598.3790, 31917.00
599.5490, 31745.00
600.7180, 31132.00
601.8870, 30366.00
603.0560, 29100.00
604.2250, 28391.00
605.3940, 27667.00
606.5620, 26849.00
607.7300, 26096.00
608.8990, 26049.00
610.0670, 25655.00
611.2350, 25366.00
612.4020, 25054.00
613.5700, 24650.88
614.7370, 24459.00
615.9050, 23868.00
617.0720, 23466.00
618.2390, 23072.00
619.4060, 22838.00
620.5720, 22363.00
621.7390, 22025.00
622.9050, 22128.00
624.0710, 21922.00
625.2370, 22347.00
626.4030, 22417.00
627.5690, 22615.00
628.7340, 23038.00
629.9000, 23027.00
631.0650, 23264.00
632.2300, 23258.00
633.3950, 23448.00
634.5600, 23257.00
635.7240, 23109.00
636.8890, 22744.00
638.0530, 22447.58
639.2170, 21921.00
640.3810, 21647.00
641.5450, 21280.00
642.7080, 20799.00
643.8720, 20476.00
645.0350, 20177.00
646.1980, 20200.00
647.3610, 20066.00
648.5240, 19939.00
649.6870, 19881.00
650.8490, 19514.00
652.0120, 19687.00
653.1740, 19359.00
654.3360, 19450.00
655.4980, 19481.00
656.6600, 19507.00
657.8210, 19355.00
658.9830, 19138.00
660.1440, 19448.00
661.3050, 19203.00
662.4660, 19296.00
663.6270, 19045.00
664.7870, 18923.00
665.9480, 18922.00
667.1080, 18920.00
668.2680, 19048.00
669.4280, 19066.00
670.5880, 18966.00
671.7480, 18821.00
672.9070, 18990.00
674.0670, 18828.00
675.2260, 18786.00
676.3850, 18716.00
677.5440, 18728.30
678.7030, 18749.79
679.8610, 18814.00
681.0200, 18871.00
682.1780, 18889.00
683.3360, 18974.00
684.4940, 18674.00
685.6520, 18784.00
686.8090, 18816.00
687.9670, 18749.00
689.1240, 18842.00
690.2810, 18747.00
691.4380, 18764.00
692.5950, 18809.00
693.7520, 18748.00
694.9080, 18885.00
696.0650, 18849.00
697.2210, 18849.00
698.3770, 18657.00
699.5330, 18945.00
700.6880, 18913.00
701.8440, 18730.00
702.9990, 19103.00
704.1550, 18881.00
705.3100, 18933.00
706.4650, 18939.00
707.6190, 18970.00
708.7740, 18963.00
709.9290, 19079.00
711.0830, 19022.00
712.2370, 19250.00
713.3910, 19110.00
714.5450, 19052.00
715.6980, 19321.00
716.8520, 19376.00
718.0050, 19388.00
719.1580, 19356.00
720.3110, 19390.29
721.4640, 19381.00
722.6170, 19406.00
723.7700, 19393.00
724.9220, 19405.00
726.0740, 19464.00
727.2260, 19452.00
728.3780, 19548.00
729.5300, 19529.72
730.6810, 19402.00
731.8330, 19500.00
732.9840, 19375.00
734.1350, 19298.00
735.2860, 19496.00
736.4370, 19437.00
737.5880, 19340.00
738.7380, 19583.00
739.8880, 19381.00
741.0390, 19615.00
742.1890, 19283.00
743.3380, 19445.00
744.4880, 19603.00
745.6380, 19588.00
746.7870, 19680.00
747.9360, 19755.00
749.0850, 19560.00
750.2340, 19603.00
751.3830, 19777.00
752.5310, 19653.00
753.6800, 19879.00
754.8280, 19846.00
755.9760, 19906.00
757.1240, 20030.00
758.2720, 19865.00
759.4190, 19977.00
760.5670, 20074.00
761.7140, 20108.00
762.8610, 20028.00
764.0080, 19958.00
765.1550, 20205.00
766.3020, 20066.00
767.4480, 20182.00
768.5950, 20156.00
769.7410, 20017.00
770.8870, 20076.00
772.0330, 20175.00
773.1780, 20239.00
774.3240, 20244.98
775.4690, 20189.00
776.6140, 20207.00
777.7590, 20121.00
778.9040, 20037.00
780.0490, 20089.00
781.1940, 20078.00
782.3380, 20214.00
783.4820, 20149.00
784.6260, 20326.00
785.7700, 20232.00
786.9140, 20157.00
788.0580, 20205.00
789.2010, 20300.00
790.3450, 20330.00
791.4880, 20346.00
792.6310, 20499.00
793.7730, 20493.00
794.9160, 20509.00
796.0590, 20612.00
797.2010, 20448.00
798.3430, 20561.00
799.4850, 20423.00
800.6270, 20699.00
801.7690, 20591.00
802.9100, 20589.00
804.0520, 20574.00
805.1930, 20570.00
806.3340, 20586.00
807.4750, 20588.00
808.6160, 20462.00
809.7560, 20434.00
810.8970, 20686.00
812.0370, 20411.00
813.1770, 20584.00
814.3170, 20501.00
815.4570, 20521.00
816.5960, 20526.00
817.7360, 20488.00
818.8750, 20464.00
820.0140, 20395.00
821.1530, 20490.00
822.2920, 20412.00
823.4310, 20479.00
824.5690, 20497.00
825.7070, 20479.00
826.8460, 20512.41
827.9840, 20507.93
829.1220, 20513.00
830.2590, 20518.00
831.3970, 20495.00
832.5340, 20501.00
833.6710, 20563.00
834.8080, 20612.00
835.9450, 20816.00
837.0820, 20582.00
838.2190, 20582.00
839.3550, 20727.00
840.4910, 20566.00
841.6270, 20727.00
842.7630, 20825.00
843.8990, 20615.00
845.0350, 20827.00
846.1700, 20635.00
847.3060, 20767.00
848.4410, 20577.00
849.5760, 20678.00
850.7100, 20508.00
851.8450, 20771.00
852.9800, 20769.00
854.1140, 20907.00
855.2480, 20790.00
856.3820, 20937.00
857.5160, 21074.00
858.6500, 20940.00
859.7830, 21071.00
860.9170, 21150.00
862.0500, 21043.00
863.1830, 21089.00
864.3160, 21097.00
865.4480, 21069.79
866.5810, 20966.00
867.7130, 21040.00
868.8460, 21061.00
869.9780, 20982.00
871.1100, 21042.00
872.2410, 21156.00
873.3730, 21253.00
874.5050, 21154.00
875.6360, 20987.00
876.7670, 21140.00
877.8980, 21095.00
879.0290, 21120.00
880.1590, 21182.00
881.2900, 21101.00
882.4200, 21259.00
883.5500, 21324.00
884.6800, 21206.00
885.8100, 21204.00
886.9400, 21299.00
888.0690, 21471.00
889.1990, 21345.00
890.3280, 21298.00
891.4570, 21381.00
892.5860, 21342.77
893.7140, 21359.00
894.8430, 21406.00
895.9710, 21382.00
897.1000, 21384.00
898.2280, 21642.00
899.3560, 21606.00
900.4830, 21534.00
901.6110, 21639.00
902.7380, 21467.00
903.8660, 21671.00
904.9930, 21525.00
906.1200, 21734.00
907.2460, 21813.00
908.3730, 21889.00
909.5000, 22164.00
910.6260, 21888.00
911.7520, 21888.00
912.8780, 22062.00
914.0040, 21971.00
915.1290, 21980.00
916.2550, 21940.00
917.3800, 22050.00
918.5050, 22216.00
919.6300, 22163.00
920.7550, 22328.00
921.8800, 22180.00
923.0040, 22202.00
924.1290, 22307.00
925.2530, 22417.00
926.3770, 22509.00
927.5010, 22514.00
928.6250, 22561.00
929.7480, 22772.00
930.8720, 22584.00
931.9950, 22795.00
933.1180, 23024.00
934.2410, 22850.00
935.3640, 23168.00
936.4860, 23155.00
937.6090, 23408.00
938.7310, 23596.00
939.8530, 23884.00
940.9750, 24009.00
942.0970, 24227.00
943.2180, 24209.00
944.3400, 24625.00
945.4610, 24776.00
946.5820, 25116.00
947.7030, 25154.00
948.8240, 25418.00
949.9450, 25616.00
951.0650, 25378.00
952.1860, 25635.00
953.3060, 25621.00
954.4260, 25785.00
955.5460, 25742.00
956.6650, 25982.00
957.7850, 26104.77
958.9040, 26137.00
960.0230, 26504.00
961.1420, 26804.00
962.2610, 27100.00
963.3800, 27440.00
964.4990, 28292.00
965.6170, 28827.00
966.7350, 29515.00
967.8530, 30159.00
968.9710, 31061.00
970.0890, 31663.00
971.2070, 32103.00
972.3240, 32299.00
973.4410, 32530.00
974.5580, 32499.00
975.6750, 32199.00
976.7920, 31720.00
977.9090, 31876.00
979.0250, 31853.00
980.1410, 32397.00
981.2580, 32394.00
982.3740, 32776.00
983.4890, 33545.00
984.6050, 33883.00
985.7200, 34837.00
986.8360, 35170.00
987.9510, 35087.00
989.0660, 34760.00
990.1810, 34138.00
991.2950, 33394.00
992.4100, 32741.00
993.5240, 31797.00
994.6390, 31280.00
995.7530, 30765.00
996.8660, 30481.73
997.9800, 30484.00
999.0940, 30447.00
1000.207, 30728.00
1001.320, 31143.00
1002.433, 31973.00
1003.546, 32560.00
1004.659, 33301.00
1005.772, 34556.00
1006.884, 36134.00
1007.996, 38008.00
1009.108, 40317.00
1010.220, 42738.00
1011.332, 45576.00
1012.444, 49062.00
1013.555, 52320.00
1014.666, 55392.00
1015.777, 57693.00
1016.888, 59710.00
1017.999, 60832.00
1019.110, 60554.00
1020.220, 60110.00
1021.331, 58949.00
1022.441, 56814.00
1023.551, 54528.00
1024.661, 52534.00
1025.770, 50335.00
1026.880, 48614.00
1027.989, 46709.00
1029.098, 45272.00
1030.207, 44058.00
1031.316, 43240.00
1032.425, 42270.00
1033.533, 41680.00
1034.642, 41083.00
1035.750, 40455.00
1036.858, 39729.00
1037.966, 39396.00
1039.073, 39017.00
1040.181, 38363.00
1041.288, 37892.00
1042.396, 37372.00
1043.503, 36651.00
1044.610, 35829.00
1045.716, 35353.00
1046.823, 34681.00
1047.929, 33838.00
1049.036, 33374.00
1050.142, 32875.00
1051.248, 32409.00
1052.353, 32158.00
1053.459, 31887.00
1054.564, 31799.00
1055.670, 31884.00
1056.775, 31683.00
1057.880, 31704.00
1058.985, 31631.00
1060.089, 31654.00
1061.194, 31626.00
1062.298, 31442.00
1063.402, 31493.00
1064.506, 31299.00
1065.610, 30990.00
1066.713, 30655.00
1067.817, 30398.47
1068.920, 30218.00
1070.023, 29731.00
1071.126, 29475.00
1072.229, 28991.00
1073.332, 28749.00
1074.435, 28134.00
1075.537, 27753.00
1076.639, 27686.00
1077.741, 27197.00
1078.843, 27159.00
1079.945, 27140.00
1081.046, 26825.00
1082.148, 26423.00
1083.249, 26322.00
1084.350, 26339.00
1085.451, 26009.00
1086.551, 25890.00
1087.652, 25785.00
1088.752, 25665.00
1089.853, 25553.00
1090.953, 25343.00
1092.053, 25469.00
1093.152, 25253.00
1094.252, 25301.00
1095.351, 25255.00
1096.451, 25172.00
1097.550, 25111.00
1098.649, 25071.00
1099.748, 25109.00
1100.846, 25132.00
1101.945, 24837.00
1103.043, 25028.00
1104.141, 25015.00
1105.239, 24712.00
1106.337, 24707.00
1107.434, 24887.00
1108.532, 25077.00
1109.629, 24884.00
1110.726, 25022.00
1111.823, 24823.00
1112.920, 24997.00
1114.017, 24959.00
1115.113, 25321.00
1116.210, 25227.00
1117.306, 25250.00
1118.402, 25135.00
1119.498, 25250.00
1120.593, 25238.00
1121.689, 25207.00
1122.784, 25286.00
1123.879, 25235.00
1124.974, 25355.00
1126.069, 25540.00
1127.164, 25469.00
1128.259, 25493.00
1129.353, 25596.00
1130.447, 25572.00
1131.541, 25372.00
1132.635, 25447.00
1133.729, 25666.00
1134.822, 25453.00
1135.916, 25729.00
1137.009, 25851.00
1138.102, 25814.00
1139.195, 25971.00
1140.288, 26238.00
1141.380, 26246.00
1142.473, 26426.00
1143.565, 26630.00
1144.657, 27016.00
1145.749, 27200.00
1146.841, 27284.29
1147.932, 27414.00
1149.024, 27263.00
1150.115, 27063.00
1151.206, 26850.00
1152.297, 26742.00
1153.388, 26436.00
1154.479, 26495.00
1155.569, 26534.00
1156.659, 26320.00
1157.750, 26416.04
1158.839, 26131.00
1159.929, 26403.00
1161.019, 26326.00
1162.108, 26272.00
1163.198, 26178.00
1164.287, 26194.22
1165.376, 26253.00
1166.465, 26278.00
1167.553, 26305.85
1168.642, 26451.00
1169.730, 26238.00
1170.818, 26229.00
1171.906, 26052.00
1172.994, 26060.00
1174.082, 25826.00
1175.170, 26071.00
1176.257, 25880.00
1177.344, 25875.00
1178.431, 25790.00
1179.518, 25729.00
1180.605, 25796.00
1181.691, 25804.00
1182.778, 25885.00
1183.864, 25732.00
1184.950, 25797.89
1186.036, 25600.00
1187.122, 25804.00
1188.207, 25726.00
1189.292, 25728.00
1190.378, 25856.00
1191.463, 25863.00
1192.548, 25825.00
1193.632, 25618.00
1194.717, 25454.00
1195.801, 25710.00
1196.886, 25807.00
1197.970, 25656.00
1199.054, 25767.00
1200.137, 25655.00
1201.221, 25725.00
1202.305, 25758.00
1203.388, 25828.00
1204.471, 25915.00
1205.554, 25726.00
1206.637, 25694.00
1207.719, 25727.00
1208.802, 25841.00
1209.884, 25709.00
1210.966, 25743.00
1212.048, 25984.00
1213.130, 25844.00
1214.212, 25794.00
1215.293, 25921.00
1216.374, 25808.00
1217.456, 26025.00
1218.536, 25611.00
1219.617, 26034.00
1220.698, 26086.00
1221.778, 25971.00
1222.859, 25699.00
1223.939, 25941.00
1225.019, 25964.00
1226.099, 26109.00
1227.178, 26054.00
1228.258, 25921.00
1229.337, 25825.00
1230.417, 25989.00
1231.496, 26033.00
1232.574, 25930.00
1233.653, 25949.00
1234.732, 26032.00
1235.810, 26103.00
1236.888, 26042.00
1237.966, 26290.00
1239.044, 26293.00
1240.122, 25991.00
1241.199, 26139.00
1242.277, 26063.00
1243.354, 26252.00
1244.431, 26237.00
1245.508, 26226.00
1246.585, 26082.00
1247.661, 26172.00
1248.738, 26302.00
1249.814, 26201.00
1250.890, 26447.00
1251.966, 26469.00
1253.042, 26074.00
1254.117, 26216.00
1255.193, 26328.00
1256.268, 26221.00
1257.343, 26316.00
1258.418, 26200.00
1259.493, 26239.29
1260.567, 26482.00
1261.642, 26323.00
1262.716, 26451.00
1263.790, 26589.00
1264.864, 26536.00
1265.938, 26692.00
1267.011, 26486.00
1268.085, 26619.00
1269.158, 26472.00
1270.231, 26631.00
1271.304, 26370.00
1272.377, 26720.00
1273.450, 26672.00
1274.522, 26693.00
1275.594, 26598.00
1276.666, 26692.00
1277.738, 26807.00
1278.810, 26700.00
1279.882, 26820.00
1280.953, 26563.00
1282.025, 26668.00
1283.096, 26625.00
1284.167, 26724.00
1285.238, 26824.00
1286.308, 26807.56
1287.379, 26973.00
1288.449, 26845.00
1289.519, 26891.00
1290.589, 26921.00
1291.659, 26913.00
1292.729, 27044.00
1293.798, 26672.00
1294.868, 26783.00
1295.937, 26947.00
1297.006, 26814.00
1298.075, 27110.00
1299.143, 27067.00
1300.212, 27050.00
1301.280, 27029.00
1302.348, 26968.00
1303.416, 27192.00
1304.484, 27085.00
1305.552, 27035.00
1306.620, 26986.00
1307.687, 27332.00
1308.754, 27284.00
1309.821, 27211.00
1310.888, 27066.00
1311.955, 27270.00
1313.021, 27280.00
1314.088, 27287.00
1315.154, 27287.00
1316.220, 27256.00
1317.286, 27118.00
1318.352, 27349.00
1319.417, 27116.00
1320.483, 27385.00
1321.548, 27445.00
1322.613, 27149.00
1323.678, 27257.00
1324.743, 27386.00
1325.807, 27447.00
1326.872, 27436.00
1327.936, 27368.00
1329.000, 27288.00
1330.064, 27336.00
1331.128, 27387.00
1332.191, 27530.00
1333.255, 27536.00
1334.318, 27507.00
1335.381, 27302.00
1336.444, 27330.00
1337.507, 27596.00
1338.569, 27460.00
1339.632, 27601.00
1340.694, 27504.00
1341.756, 27553.00
1342.818, 27605.00
1343.880, 27616.00
1344.941, 27432.00
1346.003, 27539.00
1347.064, 27553.00
1348.125, 27447.00
1349.186, 27544.00
1350.247, 27672.00
1351.308, 27705.00
1352.368, 27632.00
1353.428, 27565.00
1354.489, 27720.00
1355.549, 27860.00
1356.608, 27753.00
1357.668, 27623.00
1358.727, 27730.00
1359.787, 27700.00
1360.846, 27726.00
1361.905, 27766.00
1362.964, 27875.00
1364.022, 27779.00
1365.081, 27934.00
1366.139, 27964.00
1367.197, 27824.00
1368.255, 27780.00
1369.313, 27637.00
1370.371, 27675.19
1371.428, 27808.00
1372.486, 27856.00
1373.543, 27814.00
1374.600, 28096.00
1375.657, 27750.00
1376.713, 28176.00
1377.770, 28069.00
1378.826, 28173.00
1379.882, 28222.00
1380.938, 28064.00
1381.994, 28116.77
1383.050, 27961.00
1384.106, 28034.00
1385.161, 28101.00
1386.216, 28070.00
1387.271, 28047.00
1388.326, 27942.00
1389.381, 28089.00
1390.435, 28059.80
1391.490, 28219.00
1392.544, 28150.00
1393.598, 28210.00
1394.652, 28251.00
1395.705, 28238.00
1396.759, 28170.00
1397.812, 28162.00
1398.866, 28123.00
1399.919, 28254.00
1400.972, 28148.00
1402.024, 28277.00
1403.077, 28361.00
1404.129, 28169.00
1405.181, 28346.00
1406.233, 28493.00
1407.285, 28665.00
1408.337, 28592.47
1409.389, 28461.00
1410.440, 28435.00
1411.491, 28336.00
1412.542, 28353.00
1413.593, 28411.00
1414.644, 28526.00
1415.695, 28293.00
1416.745, 28338.00
1417.795, 28395.00
1418.845, 28507.00
1419.895, 28521.00
1420.945, 28606.00
1421.995, 28643.13
1423.044, 28712.00
1424.093, 28676.00
1425.142, 28703.00
1426.191, 28645.00
1427.240, 28751.00
1428.289, 28780.00
1429.337, 28819.00
1430.385, 28789.00
1431.433, 28820.00
1432.481, 28779.00
1433.529, 28862.00
1434.577, 28769.00
1435.624, 28838.00
1436.672, 28814.00
1437.719, 28902.00
1438.766, 28955.00
1439.812, 29176.00
1440.859, 29073.00
1441.905, 29065.00
1442.952, 28951.00
1443.998, 29059.00
1445.044, 29046.00
1446.090, 28965.00
1447.135, 29136.00
1448.181, 29193.00
1449.226, 29111.00
1450.271, 29237.00
1451.316, 29133.00
1452.361, 29280.00
1453.405, 29230.00
1454.450, 29162.00
1455.494, 29416.00
1456.538, 29269.00
1457.582, 29358.00
1458.626, 29387.00
1459.670, 29249.00
1460.713, 29278.00
1461.757, 29525.00
1462.800, 29440.00
1463.843, 29235.00
1464.886, 29464.00
1465.928, 29197.00
1466.971, 29357.00
1468.013, 29114.00
1469.055, 29208.00
1470.097, 29672.00
1471.139, 29537.00
1472.181, 29418.00
1473.222, 29485.00
1474.263, 29344.00
1475.305, 29402.00
1476.346, 29612.00
1477.386, 29550.00
1478.427, 29559.00
1479.468, 29521.00
1480.508, 29582.00
1481.548, 29452.00
1482.588, 29633.00
1483.628, 29676.00
1484.668, 29546.00
1485.707, 29717.00
1486.747, 29895.00
1487.786, 29712.00
1488.825, 29496.00
1489.864, 29656.00
1490.902, 29727.00
1491.941, 29852.00
1492.979, 29810.00
1494.017, 29827.31
1495.055, 29640.00
1496.093, 29812.00
1497.131, 29709.00
1498.168, 29835.00
1499.206, 29688.00
1500.243, 29937.00
1501.280, 29863.00
1502.317, 29835.00
1503.354, 29996.00
1504.390, 29817.00
1505.426, 29871.00
1506.463, 29835.00
1507.499, 29939.00
1508.535, 29819.00
1509.570, 29749.00
1510.606, 29798.00
1511.641, 29963.00
1512.676, 29973.00
1513.711, 30362.00
1514.746, 29953.00
1515.781, 30105.00
1516.816, 29811.00
1517.850, 30059.00
1518.884, 30015.00
1519.918, 30069.00
1520.952, 30063.00
1521.986, 30087.00
1523.019, 30267.00
1524.053, 30133.00
1525.086, 30158.00
1526.119, 30335.00
1527.152, 30382.00
1528.185, 30170.00
1529.217, 30374.00
1530.250, 30571.00
1531.282, 30476.00
1532.314, 30278.00
1533.346, 30326.00
1534.377, 30338.00
1535.409, 30584.00
1536.440, 30420.00
1537.472, 30545.00
1538.503, 30521.00
1539.534, 30572.00
1540.564, 30625.00
1541.595, 30845.00
1542.625, 30592.00
1543.656, 30569.00
1544.686, 30716.00
1545.716, 30534.00
1546.745, 30600.00
1547.775, 30614.00
1548.804, 30807.00
1549.834, 30775.00
1550.863, 30867.00
1551.892, 30877.00
1552.920, 30791.00
1553.949, 30790.00
1554.977, 31000.00
1556.006, 30684.00
1557.034, 30857.00
1558.062, 30863.00
1559.089, 30778.00
1560.117, 30891.00
1561.144, 30887.00
1562.172, 30865.00
1563.199, 30834.00
1564.226, 30782.00
1565.252, 31053.00
1566.279, 31056.00
1567.305, 30961.00
1568.332, 30902.00
1569.358, 30830.00
1570.384, 31256.00
##END=



