##NAMES=Brazilianite
##RRUFFID=R050319
##IDEAL CHEMISTRY=NaAl_3_(PO_4_)_2_(OH)_4_
##LOCALITY=Minas Gerais, Brazil
##OWNER=RRUFF
##SOURCE=American Museum of Natural History
##DESCRIPTION=Pale green fragment
##STATUS=The identification of this mineral has been confirmed by X-ray diffraction and chemical analysis
##URL=rruff.info/R050319
##MEASURED CHEMISTRY=Na_1.00_Al_3.00_(PO_4_)_2_(OH)_4_
##PIN_ID=M00315
##ORIENTATION=Laser parallel to c* (0 0 1). Fiducial mark perpendicular to laser is parallel to a [1 0 0]
79.89500, 7064.000
81.13100, 8446.000
82.36700, 9896.000
83.60200, 11007.00
84.83700, 11997.00
86.07200, 12920.00
87.30800, 13800.00
88.54200, 14485.00
89.77700, 14293.00
91.01200, 13339.00
92.24600, 11983.00
93.48000, 11218.00
94.71400, 11369.00
95.94800, 11846.00
97.18200, 12323.00
98.41600, 12356.00
99.64900, 12769.00
100.8830, 13833.00
102.1160, 15387.00
103.3490, 17177.00
104.5820, 18373.00
105.8150, 17738.00
107.0470, 16179.00
108.2800, 14730.00
109.5120, 13938.00
110.7440, 12769.00
111.9760, 12271.00
113.2080, 12066.00
114.4400, 12377.00
115.6710, 12105.00
116.9030, 11174.00
118.1340, 10146.00
119.3650, 9373.000
120.5960, 8866.000
121.8270, 8541.000
123.0580, 8463.000
124.2880, 8356.000
125.5190, 8148.000
126.7490, 8151.000
127.9790, 8255.000
129.2090, 8207.000
130.4390, 8324.000
131.6680, 8514.000
132.8980, 8517.000
134.1270, 8921.000
135.3560, 8986.000
136.5850, 9421.000
137.8140, 9891.000
139.0430, 10338.00
140.2710, 10799.00
141.5000, 11069.00
142.7280, 11503.00
143.9560, 11951.00
145.1840, 12329.00
146.4120, 12756.00
147.6390, 12771.00
148.8670, 12458.00
150.0940, 11942.00
151.3210, 11668.00
152.5490, 11623.00
153.7750, 11722.00
155.0020, 12223.00
156.2290, 12914.00
157.4550, 13548.00
158.6810, 14080.00
159.9080, 14664.00
161.1340, 15289.00
162.3590, 16571.00
163.5850, 17611.00
164.8110, 18655.00
166.0360, 18448.00
167.2610, 17249.00
168.4860, 15988.00
169.7110, 14917.00
170.9360, 14127.00
172.1610, 13306.00
173.3850, 12693.00
174.6100, 12157.00
175.8340, 11877.00
177.0580, 11603.00
178.2820, 11476.00
179.5050, 11195.00
180.7290, 11240.00
181.9520, 11265.00
183.1760, 11158.00
184.3990, 11300.00
185.6220, 11327.00
186.8450, 11589.00
188.0670, 11700.00
189.2900, 11906.00
190.5120, 12112.00
191.7340, 12059.00
192.9560, 12219.00
194.1780, 12214.00
195.4000, 12271.00
196.6220, 12259.40
197.8430, 12235.00
199.0640, 12091.00
200.2860, 11955.00
201.5070, 11693.00
202.7270, 11495.00
203.9480, 11384.00
205.1690, 11195.00
206.3890, 11292.96
207.6090, 11296.00
208.8290, 11638.00
210.0490, 11929.00
211.2690, 12321.00
212.4890, 12634.00
213.7080, 12880.00
214.9280, 13177.98
216.1470, 13098.00
217.3660, 13565.00
218.5850, 13832.00
219.8030, 13807.00
221.0220, 13599.00
222.2400, 13437.00
223.4590, 13101.00
224.6770, 13022.00
225.8950, 12933.00
227.1120, 12966.21
228.3300, 12947.00
229.5480, 13284.00
230.7650, 13410.00
231.9820, 13695.00
233.1990, 13704.00
234.4160, 14011.00
235.6330, 14042.00
236.8490, 14060.00
238.0660, 14061.00
239.2820, 14202.00
240.4980, 14259.00
241.7140, 14330.00
242.9300, 14053.00
244.1460, 13821.00
245.3610, 13265.00
246.5770, 12885.00
247.7920, 12390.00
249.0070, 12049.00
250.2220, 11827.00
251.4370, 11855.00
252.6510, 11894.00
253.8660, 11860.00
255.0800, 11586.00
256.2940, 11427.00
257.5080, 11168.00
258.7220, 11360.00
259.9360, 11481.00
261.1490, 11543.00
262.3630, 11325.00
263.5760, 11272.00
264.7890, 11252.00
266.0020, 11388.00
267.2150, 11501.00
268.4270, 11386.00
269.6400, 11288.00
270.8520, 11350.00
272.0640, 11217.00
273.2760, 11166.00
274.4880, 11281.00
275.7000, 11492.00
276.9120, 11418.00
278.1230, 11413.00
279.3340, 11554.00
280.5450, 11434.00
281.7560, 11492.00
282.9670, 11607.00
284.1780, 11485.00
285.3880, 11833.00
286.5980, 11864.00
287.8090, 12100.00
289.0190, 12257.00
290.2290, 12307.00
291.4380, 12518.00
292.6480, 12733.00
293.8570, 12730.00
295.0670, 12981.00
296.2760, 12958.00
297.4850, 12884.00
298.6930, 12858.00
299.9020, 12812.00
301.1110, 12703.00
302.3190, 12853.00
303.5270, 12738.00
304.7350, 12684.00
305.9430, 12868.00
307.1510, 12978.00
308.3580, 12950.00
309.5660, 13281.00
310.7730, 13507.00
311.9800, 13736.00
313.1870, 14041.00
314.3940, 14192.00
315.6010, 14540.00
316.8070, 14281.00
318.0130, 13974.00
319.2200, 14175.00
320.4260, 13832.00
321.6310, 13612.00
322.8370, 13532.00
324.0430, 13065.00
325.2480, 12768.00
326.4540, 12468.00
327.6590, 12271.00
328.8640, 11960.00
330.0680, 11765.00
331.2730, 11578.00
332.4780, 11439.00
333.6820, 11430.00
334.8860, 11336.00
336.0900, 11262.00
337.2940, 11428.00
338.4980, 11283.00
339.7010, 11334.00
340.9050, 11166.00
342.1080, 11347.00
343.3110, 11272.00
344.5140, 11315.00
345.7170, 11534.00
346.9200, 11461.00
348.1220, 11495.00
349.3240, 11538.00
350.5270, 11695.00
351.7290, 11727.00
352.9310, 11790.00
354.1320, 11873.00
355.3340, 12155.00
356.5350, 12048.00
357.7370, 12049.00
358.9380, 12341.00
360.1390, 12277.00
361.3400, 12226.00
362.5400, 12379.00
363.7410, 12523.00
364.9410, 12571.00
366.1410, 12885.00
367.3410, 12941.00
368.5410, 13120.00
369.7410, 13137.00
370.9400, 13152.00
372.1400, 13105.00
373.3390, 13177.00
374.5380, 13077.00
375.7370, 13081.00
376.9360, 13223.00
378.1350, 13082.00
379.3330, 13049.00
380.5310, 13223.00
381.7300, 13153.00
382.9280, 13142.00
384.1260, 13221.00
385.3230, 13255.99
386.5210, 13347.50
387.7180, 13451.00
388.9160, 13587.00
390.1130, 13704.00
391.3100, 13880.00
392.5060, 14089.00
393.7030, 14270.65
394.9000, 14578.00
396.0960, 14693.00
397.2920, 14912.16
398.4880, 15298.00
399.6840, 15288.00
400.8800, 15487.00
402.0750, 15716.00
403.2710, 15625.00
404.4660, 15472.00
405.6610, 15423.00
406.8560, 15341.00
408.0510, 15104.00
409.2450, 15038.00
410.4400, 14668.00
411.6340, 14617.00
412.8280, 14272.00
414.0220, 14066.00
415.2160, 13989.00
416.4100, 13725.00
417.6030, 13514.00
418.7970, 13475.00
419.9900, 13238.00
421.1830, 13281.00
422.3760, 13184.00
423.5690, 13104.00
424.7610, 13142.00
425.9540, 13240.00
427.1460, 13321.00
428.3380, 13577.00
429.5300, 13864.00
430.7220, 14076.00
431.9140, 14414.00
433.1050, 14805.00
434.2970, 15006.00
435.4880, 15253.00
436.6790, 15685.00
437.8700, 15978.00
439.0610, 16050.00
440.2510, 16116.00
441.4420, 16058.00
442.6320, 15846.00
443.8220, 15692.00
445.0120, 15532.00
446.2020, 15339.00
447.3910, 15422.08
448.5810, 15469.00
449.7700, 15700.00
450.9600, 15665.00
452.1490, 15961.00
453.3370, 16171.00
454.5260, 16480.00
455.7150, 16690.00
456.9030, 16866.00
458.0910, 16972.00
459.2800, 17044.00
460.4670, 16945.00
461.6550, 16981.00
462.8430, 16909.00
464.0300, 16968.00
465.2180, 16800.00
466.4050, 16808.00
467.5920, 16783.00
468.7790, 16593.00
469.9650, 16767.00
471.1520, 16909.00
472.3380, 17299.00
473.5250, 17516.00
474.7110, 18047.00
475.8970, 18760.00
477.0820, 19390.00
478.2680, 20273.00
479.4540, 20871.00
480.6390, 21648.00
481.8240, 22260.00
483.0090, 22891.00
484.1940, 23892.00
485.3780, 24536.00
486.5630, 25347.00
487.7470, 26117.00
488.9320, 26714.00
490.1160, 27662.00
491.3000, 28591.00
492.4830, 29689.00
493.6670, 31075.00
494.8500, 31948.00
496.0340, 33443.00
497.2170, 34732.00
498.4000, 35615.00
499.5820, 36497.00
500.7650, 37466.00
501.9480, 38148.00
503.1300, 38447.00
504.3120, 39013.00
505.4940, 39091.00
506.6760, 39151.00
507.8580, 39149.00
509.0390, 39207.00
510.2210, 38904.00
511.4020, 38705.00
512.5830, 38042.00
513.7640, 37326.00
514.9450, 36555.00
516.1250, 35710.00
517.3060, 34791.00
518.4860, 34035.00
519.6660, 33397.00
520.8460, 33137.00
522.0260, 33091.00
523.2060, 33026.00
524.3850, 33226.00
525.5650, 33623.00
526.7440, 33848.00
527.9230, 34118.00
529.1020, 34528.00
530.2810, 34371.00
531.4590, 34187.00
532.6380, 33935.00
533.8160, 33313.00
534.9940, 32386.00
536.1720, 31398.00
537.3500, 30453.00
538.5270, 29477.00
539.7050, 28373.00
540.8820, 27589.00
542.0590, 26866.00
543.2360, 26579.00
544.4130, 26328.00
545.5900, 26698.00
546.7660, 27166.00
547.9430, 28083.00
549.1190, 29336.00
550.2950, 30777.00
551.4710, 32071.00
552.6470, 33860.00
553.8220, 35329.00
554.9980, 36862.00
556.1730, 38407.00
557.3480, 39083.00
558.5230, 39130.00
559.6980, 38516.00
560.8730, 37858.00
562.0470, 36991.00
563.2220, 36206.00
564.3960, 35303.00
565.5700, 34835.00
566.7440, 33969.00
567.9170, 32712.00
569.0910, 31632.00
570.2640, 30159.00
571.4380, 29052.00
572.6110, 27931.00
573.7840, 27021.73
574.9570, 26219.00
576.1290, 25696.00
577.3020, 25321.00
578.4740, 25139.00
579.6460, 24870.00
580.8180, 24855.00
581.9900, 25012.00
583.1620, 25199.00
584.3330, 25366.00
585.5040, 25896.00
586.6760, 26564.00
587.8470, 27528.00
589.0180, 28853.00
590.1880, 30559.00
591.3590, 32292.00
592.5290, 35088.00
593.7000, 37369.00
594.8700, 40451.00
596.0400, 42711.00
597.2090, 44747.00
598.3790, 46947.00
599.5490, 47640.00
600.7180, 47397.00
601.8870, 46073.00
603.0560, 43315.00
604.2250, 40337.00
605.3940, 37494.00
606.5620, 34988.00
607.7300, 33291.00
608.8990, 31882.00
610.0670, 31057.00
611.2350, 30405.00
612.4020, 30018.00
613.5700, 29813.00
614.7370, 29391.00
615.9050, 28905.00
617.0720, 27827.00
618.2390, 26994.00
619.4060, 26152.00
620.5720, 25225.00
621.7390, 24339.00
622.9050, 23955.00
624.0710, 23486.00
625.2370, 23058.00
626.4030, 23035.00
627.5690, 23015.00
628.7340, 22857.00
629.9000, 22940.00
631.0650, 22946.00
632.2300, 22901.00
633.3950, 22684.13
634.5600, 22582.00
635.7240, 22048.00
636.8890, 21627.00
638.0530, 21176.00
639.2170, 20700.00
640.3810, 20256.00
641.5450, 19797.00
642.7080, 19496.38
643.8720, 19226.00
645.0350, 18970.00
646.1980, 18960.00
647.3610, 18780.00
648.5240, 18881.00
649.6870, 18949.00
650.8490, 18869.00
652.0120, 18911.00
653.1740, 19064.00
654.3360, 19066.00
655.4980, 19387.00
656.6600, 19374.00
657.8210, 19489.00
658.9830, 19438.00
660.1440, 19340.00
661.3050, 19227.54
662.4660, 18922.00
663.6270, 18793.00
664.7870, 18368.00
665.9480, 18027.00
667.1080, 17665.00
668.2680, 17487.00
669.4280, 17345.00
670.5880, 17039.00
671.7480, 16789.00
672.9070, 16707.00
674.0670, 16551.00
675.2260, 16237.00
676.3850, 16406.00
677.5440, 16048.00
678.7030, 16001.00
679.8610, 15953.00
681.0200, 15878.00
682.1780, 15778.00
683.3360, 15594.00
684.4940, 15683.00
685.6520, 15742.00
686.8090, 15448.00
687.9670, 15589.00
689.1240, 15652.00
690.2810, 15630.00
691.4380, 15691.30
692.5950, 15704.16
693.7520, 15707.00
694.9080, 15688.00
696.0650, 15712.00
697.2210, 15718.16
698.3770, 15667.00
699.5330, 15768.00
700.6880, 15743.00
701.8440, 15794.00
702.9990, 15866.00
704.1550, 15820.00
705.3100, 15921.00
706.4650, 15810.00
707.6190, 15753.00
708.7740, 15921.00
709.9290, 16029.00
711.0830, 16019.00
712.2370, 15932.00
713.3910, 16141.00
714.5450, 15894.00
715.6980, 16083.00
716.8520, 15989.00
718.0050, 15842.00
719.1580, 16005.00
720.3110, 16072.00
721.4640, 15903.00
722.6170, 15956.00
723.7700, 15967.00
724.9220, 15864.00
726.0740, 16094.00
727.2260, 16086.00
728.3780, 15987.00
729.5300, 15986.00
730.6810, 15974.00
731.8330, 15849.00
732.9840, 16045.00
734.1350, 16086.00
735.2860, 16093.00
736.4370, 16065.00
737.5880, 16153.00
738.7380, 16196.00
739.8880, 16183.00
741.0390, 16196.00
742.1890, 16242.61
743.3380, 16347.00
744.4880, 16369.00
745.6380, 16490.00
746.7870, 16637.00
747.9360, 16635.00
749.0850, 16665.00
750.2340, 16722.00
751.3830, 16882.00
752.5310, 16942.00
753.6800, 17146.00
754.8280, 17248.00
755.9760, 17321.00
757.1240, 17359.00
758.2720, 17512.50
759.4190, 17656.00
760.5670, 17767.00
761.7140, 17825.00
762.8610, 17886.00
764.0080, 18006.00
765.1550, 17910.00
766.3020, 17989.00
767.4480, 17874.00
768.5950, 17845.00
769.7410, 17833.00
770.8870, 17871.00
772.0330, 17833.00
773.1780, 17835.02
774.3240, 17715.00
775.4690, 17765.00
776.6140, 17598.00
777.7590, 17460.00
778.9040, 17337.00
780.0490, 17550.00
781.1940, 17488.00
782.3380, 17484.00
783.4820, 17678.00
784.6260, 17596.00
785.7700, 17553.00
786.9140, 17754.00
788.0580, 17962.00
789.2010, 17961.00
790.3450, 18062.00
791.4880, 18311.00
792.6310, 18436.00
793.7730, 18655.00
794.9160, 18855.00
796.0590, 18874.00
797.2010, 19114.00
798.3430, 19370.00
799.4850, 19401.00
800.6270, 19471.00
801.7690, 19498.00
802.9100, 19506.00
804.0520, 19453.00
805.1930, 19332.00
806.3340, 19375.00
807.4750, 19389.00
808.6160, 19283.00
809.7560, 19030.00
810.8970, 19014.00
812.0370, 18717.00
813.1770, 18736.00
814.3170, 18383.00
815.4570, 18451.00
816.5960, 18228.00
817.7360, 18219.00
818.8750, 18130.00
820.0140, 17963.00
821.1530, 17908.00
822.2920, 17814.11
823.4310, 17690.00
824.5690, 17764.00
825.7070, 17447.00
826.8460, 17590.00
827.9840, 17530.00
829.1220, 17361.00
830.2590, 17224.00
831.3970, 17191.00
832.5340, 17277.00
833.6710, 17096.00
834.8080, 17134.00
835.9450, 17062.00
837.0820, 16841.00
838.2190, 16863.00
839.3550, 16813.00
840.4910, 16876.00
841.6270, 16787.57
842.7630, 17001.00
843.8990, 16676.00
845.0350, 16630.00
846.1700, 16661.00
847.3060, 16447.00
848.4410, 16538.00
849.5760, 16646.00
850.7100, 16463.00
851.8450, 16604.00
852.9800, 16558.00
854.1140, 16481.00
855.2480, 16434.00
856.3820, 16521.00
857.5160, 16529.00
858.6500, 16471.00
859.7830, 16624.00
860.9170, 16439.00
862.0500, 16344.00
863.1830, 16343.00
864.3160, 16546.00
865.4480, 16438.00
866.5810, 16533.00
867.7130, 16482.00
868.8460, 16609.00
869.9780, 16480.00
871.1100, 16548.00
872.2410, 16468.00
873.3730, 16603.00
874.5050, 16389.00
875.6360, 16554.00
876.7670, 16419.00
877.8980, 16494.00
879.0290, 16403.00
880.1590, 16481.00
881.2900, 16491.39
882.4200, 16470.00
883.5500, 16574.00
884.6800, 16592.20
885.8100, 16679.00
886.9400, 16626.00
888.0690, 16706.00
889.1990, 16665.00
890.3280, 16614.00
891.4570, 16746.00
892.5860, 16783.00
893.7140, 16661.00
894.8430, 16531.00
895.9710, 16706.00
897.1000, 16868.00
898.2280, 16847.00
899.3560, 16881.00
900.4830, 16843.00
901.6110, 16921.00
902.7380, 16871.00
903.8660, 16940.00
904.9930, 16859.00
906.1200, 16879.00
907.2460, 17032.00
908.3730, 17003.00
909.5000, 17048.00
910.6260, 17050.00
911.7520, 17040.00
912.8780, 17303.00
914.0040, 17137.00
915.1290, 17266.00
916.2550, 17270.00
917.3800, 17248.00
918.5050, 17390.00
919.6300, 17446.00
920.7550, 17420.00
921.8800, 17476.00
923.0040, 17534.08
924.1290, 17424.00
925.2530, 17690.00
926.3770, 17672.00
927.5010, 17769.00
928.6250, 18008.00
929.7480, 17883.00
930.8720, 18088.00
931.9950, 18104.00
933.1180, 18438.00
934.2410, 18328.00
935.3640, 18602.00
936.4860, 18568.00
937.6090, 18992.00
938.7310, 19055.00
939.8530, 19125.00
940.9750, 19543.00
942.0970, 19531.00
943.2180, 19772.00
944.3400, 19867.00
945.4610, 20212.00
946.5820, 20214.00
947.7030, 20432.00
948.8240, 20541.00
949.9450, 20494.00
951.0650, 20764.00
952.1860, 20981.00
953.3060, 20964.00
954.4260, 21142.00
955.5460, 21217.00
956.6650, 21370.00
957.7850, 21368.00
958.9040, 21641.00
960.0230, 21879.70
961.1420, 22130.13
962.2610, 22518.00
963.3800, 22936.00
964.4990, 23263.00
965.6170, 23993.00
966.7350, 24465.00
967.8530, 25218.00
968.9710, 25944.00
970.0890, 26711.00
971.2070, 27510.00
972.3240, 28536.00
973.4410, 29447.00
974.5580, 30407.00
975.6750, 31535.00
976.7920, 32911.00
977.9090, 34487.00
979.0250, 36459.00
980.1410, 38679.00
981.2580, 41750.00
982.3740, 44160.00
983.4890, 47428.00
984.6050, 50568.00
985.7200, 52990.00
986.8360, 54618.00
987.9510, 55062.00
989.0660, 54380.00
990.1810, 52232.00
991.2950, 49520.00
992.4100, 46245.00
993.5240, 43404.00
994.6390, 40148.00
995.7530, 38123.00
996.8660, 36051.00
997.9800, 34701.00
999.0940, 33615.00
1000.207, 33030.00
1001.320, 32505.00
1002.433, 32391.00
1003.546, 32635.00
1004.659, 32764.00
1005.772, 33510.00
1006.884, 34322.00
1007.996, 35231.00
1009.108, 36767.00
1010.220, 38685.00
1011.332, 40926.00
1012.444, 43163.00
1013.555, 45932.00
1014.666, 48174.00
1015.777, 50416.00
1016.888, 51783.00
1017.999, 52726.00
1019.110, 52634.00
1020.220, 51741.00
1021.331, 50451.00
1022.441, 48862.00
1023.551, 47089.00
1024.661, 44766.00
1025.770, 42921.00
1026.880, 41287.00
1027.989, 40206.00
1029.098, 39028.00
1030.207, 38337.00
1031.316, 37275.00
1032.425, 36888.00
1033.533, 36414.00
1034.642, 36420.00
1035.750, 36210.00
1036.858, 35876.00
1037.966, 36147.00
1039.073, 35910.00
1040.181, 36081.00
1041.288, 35839.00
1042.396, 35652.00
1043.503, 35342.00
1044.610, 35033.00
1045.716, 34510.00
1046.823, 34039.00
1047.929, 33480.00
1049.036, 33121.00
1050.142, 32567.00
1051.248, 32265.00
1052.353, 32131.00
1053.459, 31802.00
1054.564, 31522.00
1055.670, 31566.00
1056.775, 31262.00
1057.880, 31051.00
1058.985, 31146.00
1060.089, 31061.00
1061.194, 30698.00
1062.298, 30635.00
1063.402, 30255.00
1064.506, 30055.00
1065.610, 29909.00
1066.713, 29678.00
1067.817, 29609.00
1068.920, 29560.00
1070.023, 29184.00
1071.126, 29078.00
1072.229, 28748.00
1073.332, 29022.00
1074.435, 28712.00
1075.537, 28551.00
1076.639, 28438.00
1077.741, 28048.00
1078.843, 27833.00
1079.945, 27433.00
1081.046, 26920.00
1082.148, 26575.00
1083.249, 26041.00
1084.350, 25549.00
1085.451, 25177.00
1086.551, 24618.03
1087.652, 24274.00
1088.752, 23694.00
1089.853, 23145.00
1090.953, 22881.00
1092.053, 22549.00
1093.152, 22224.00
1094.252, 21892.00
1095.351, 21793.00
1096.451, 21516.00
1097.550, 21397.00
1098.649, 21288.26
1099.748, 21326.00
1100.846, 21173.00
1101.945, 21278.00
1103.043, 21368.00
1104.141, 21474.00
1105.239, 21693.00
1106.337, 21702.00
1107.434, 21901.00
1108.532, 22261.00
1109.629, 22588.79
1110.726, 23114.00
1111.823, 23566.00
1112.920, 24186.00
1114.017, 24780.00
1115.113, 25356.00
1116.210, 25637.00
1117.306, 26108.00
1118.402, 26043.00
1119.498, 26139.00
1120.593, 25867.00
1121.689, 25945.00
1122.784, 25910.00
1123.879, 25646.00
1124.974, 25466.00
1126.069, 25398.00
1127.164, 25200.00
1128.259, 24901.00
1129.353, 24848.00
1130.447, 24706.00
1131.541, 24376.00
1132.635, 24235.00
1133.729, 24271.00
1134.822, 24332.00
1135.916, 24215.00
1137.009, 24219.00
1138.102, 24398.00
1139.195, 24533.89
1140.288, 24786.59
1141.380, 25132.00
1142.473, 25423.00
1143.565, 25902.00
1144.657, 26294.00
1145.749, 26688.00
1146.841, 27162.00
1147.932, 27306.00
1149.024, 27065.00
1150.115, 26303.00
1151.206, 25570.00
1152.297, 24790.00
1153.388, 24042.00
1154.479, 23402.00
1155.569, 22845.00
1156.659, 22616.00
1157.750, 22306.00
1158.839, 21912.00
1159.929, 21773.00
1161.019, 21557.00
1162.108, 21509.00
1163.198, 21348.00
1164.287, 21260.00
1165.376, 21190.00
1166.465, 21145.00
1167.553, 21062.06
1168.642, 20990.00
1169.730, 20911.00
1170.818, 20796.00
1171.906, 20690.00
1172.994, 20796.00
1174.082, 20752.08
1175.170, 20645.01
1176.257, 20812.00
1177.344, 20433.00
1178.431, 20361.00
1179.518, 20314.00
1180.605, 20395.00
1181.691, 20203.00
1182.778, 20190.00
1183.864, 20142.00
1184.950, 20203.00
1186.036, 20059.00
1187.122, 19948.00
1188.207, 20129.00
1189.292, 20389.00
1190.378, 20057.00
1191.463, 19947.00
1192.548, 20256.00
1193.632, 20203.00
1194.717, 20074.00
1195.801, 20036.00
1196.886, 20025.00
1197.970, 20107.00
1199.054, 20126.00
1200.137, 20001.00
1201.221, 20053.00
1202.305, 19961.00
1203.388, 20124.00
1204.471, 19979.00
1205.554, 20006.00
1206.637, 20005.00
1207.719, 20187.00
1208.802, 20090.00
1209.884, 20197.00
1210.966, 20290.00
1212.048, 20018.00
1213.130, 20218.00
1214.212, 20031.00
1215.293, 20192.00
1216.374, 20107.00
1217.456, 20326.00
1218.536, 20057.00
1219.617, 20124.00
1220.698, 19938.00
1221.778, 20131.00
1222.859, 20083.00
1223.939, 20163.00
1225.019, 20138.00
1226.099, 20244.00
1227.178, 20117.00
1228.258, 20064.00
1229.337, 19995.00
1230.417, 19991.31
1231.496, 20099.00
1232.574, 20059.00
1233.653, 20098.00
1234.732, 20187.00
1235.810, 20217.00
1236.888, 20257.00
1237.966, 20210.00
1239.044, 20137.00
1240.122, 20142.00
1241.199, 20323.00
1242.277, 20319.00
1243.354, 20158.00
1244.431, 20280.00
1245.508, 20148.00
1246.585, 20395.00
1247.661, 20337.00
1248.738, 20198.00
1249.814, 20401.00
1250.890, 20246.00
1251.966, 20427.00
1253.042, 20481.00
1254.117, 20159.00
1255.193, 20283.00
1256.268, 20314.00
1257.343, 20295.00
1258.418, 20416.00
1259.493, 20407.00
1260.567, 20349.00
1261.642, 20336.00
1262.716, 20224.00
1263.790, 20424.00
1264.864, 20367.00
1265.938, 20486.00
1267.011, 20488.00
1268.085, 20429.00
1269.158, 20349.00
1270.231, 20443.00
1271.304, 20416.07
1272.377, 20463.00
1273.450, 20480.00
1274.522, 20557.00
1275.594, 20570.00
1276.666, 20562.65
1277.738, 20450.00
1278.810, 20525.00
1279.882, 20533.00
1280.953, 20529.00
1282.025, 20678.00
1283.096, 20577.00
1284.167, 20652.00
1285.238, 20636.00
1286.308, 20687.00
1287.379, 20691.00
1288.449, 20693.00
1289.519, 20718.00
1290.589, 20836.00
1291.659, 20636.00
1292.729, 20804.00
1293.798, 20729.00
1294.868, 20876.00
1295.937, 20969.00
1297.006, 20998.00
1298.075, 20673.00
1299.143, 20880.00
1300.212, 20766.00
1301.280, 20882.00
1302.348, 20799.00
1303.416, 20810.00
1304.484, 20895.00
1305.552, 20949.00
1306.620, 20837.00
1307.687, 20904.94
1308.754, 20969.00
1309.821, 20901.00
1310.888, 21001.00
1311.955, 21008.00
1313.021, 20978.00
1314.088, 21035.00
1315.154, 21095.00
1316.220, 21042.00
1317.286, 21177.00
1318.352, 21031.00
1319.417, 21050.00
1320.483, 21001.00
1321.548, 21097.00
1322.613, 20986.00
1323.678, 21304.00
1324.743, 20968.00
1325.807, 21191.00
1326.872, 21211.00
1327.936, 21061.00
1329.000, 21183.00
1330.064, 21129.00
1331.128, 20983.00
1332.191, 21111.00
1333.255, 21116.00
1334.318, 21056.00
1335.381, 21120.00
1336.444, 21099.00
1337.507, 21229.00
1338.569, 21092.00
1339.632, 21231.00
1340.694, 21254.00
1341.756, 21258.00
1342.818, 21256.00
1343.880, 21394.00
1344.941, 21359.00
1346.003, 21356.00
1347.064, 21142.00
1348.125, 21227.00
1349.186, 21133.00
1350.247, 21342.00
1351.308, 21348.00
1352.368, 21246.00
1353.428, 21305.00
1354.489, 21395.00
1355.549, 21418.00
1356.608, 21293.00
1357.668, 21085.00
1358.727, 21451.00
1359.787, 21279.00
1360.846, 21364.00
1361.905, 21338.00
1362.964, 21437.00
1364.022, 21340.00
1365.081, 21224.00
1366.139, 21265.00
1367.197, 21410.00
1368.255, 21638.00
1369.313, 21396.00
1370.371, 21372.00
1371.428, 21505.00
1372.486, 21346.00
1373.543, 21563.00
1374.600, 21577.00
1375.657, 21500.00
1376.713, 21462.00
1377.770, 21464.00
1378.826, 21593.00
1379.882, 21695.00
1380.938, 21438.00
1381.994, 21681.00
1383.050, 21513.00
1384.106, 21574.00
1385.161, 21510.00
1386.216, 21644.00
1387.271, 21751.00
1388.326, 21343.00
1389.381, 21651.00
1390.435, 21445.00
1391.490, 21621.00
1392.544, 21557.00
1393.598, 21519.00
1394.652, 21781.00
1395.705, 21552.00
1396.759, 21701.00
1397.812, 21663.00
1398.866, 21522.00
1399.919, 21795.00
1400.972, 21699.00
1402.024, 21658.00
1403.077, 21851.00
1404.129, 21904.00
1405.181, 21564.00
1406.233, 21818.00
1407.285, 21691.00
1408.337, 21934.00
1409.389, 21919.00
1410.440, 21877.00
1411.491, 21828.00
1412.542, 21755.00
1413.593, 21747.99
1414.644, 21752.10
1415.695, 21729.00
1416.745, 21798.00
1417.795, 21810.00
1418.845, 21800.00
1419.895, 22014.00
1420.945, 21892.00
1421.995, 21992.00
1423.044, 22059.00
1424.093, 21872.00
1425.142, 21876.00
1426.191, 22138.00
1427.240, 22156.00
1428.289, 22002.00
1429.337, 21988.00
1430.385, 22006.00
1431.433, 22091.00
1432.481, 22156.00
1433.529, 22087.00
1434.577, 21954.00
1435.624, 22049.00
1436.672, 22149.00
1437.719, 22040.00
1438.766, 22191.00
1439.812, 22032.00
1440.859, 22177.00
1441.905, 22183.00
1442.952, 22314.00
1443.998, 22273.00
1445.044, 22024.00
1446.090, 22360.00
1447.135, 22225.00
1448.181, 22353.00
1449.226, 22105.00
1450.271, 22262.00
1451.316, 22216.00
1452.361, 22294.00
1453.405, 22313.00
1454.450, 22316.00
1455.494, 22343.21
1456.538, 22376.60
1457.582, 22366.00
1458.626, 22419.00
1459.670, 22472.00
1460.713, 22410.00
1461.757, 22426.31
1462.800, 22330.00
1463.843, 22369.00
1464.886, 22411.00
1465.928, 22398.00
1466.971, 22574.00
1468.013, 22511.00
1469.055, 22450.00
1470.097, 22238.00
1471.139, 22485.00
1472.181, 22364.00
1473.222, 22441.00
1474.263, 22448.00
1475.305, 22518.00
1476.346, 22520.89
1477.386, 22501.03
1478.427, 22491.00
1479.468, 22423.00
1480.508, 22328.00
1481.548, 22267.00
1482.588, 22307.75
1483.628, 22573.00
1484.668, 22460.00
1485.707, 22632.00
1486.747, 22780.00
1487.786, 22651.75
1488.825, 22647.00
1489.864, 22488.00
1490.902, 22768.00
1491.941, 22709.00
1492.979, 22805.00
1494.017, 22516.00
1495.055, 22985.00
1496.093, 22559.00
1497.131, 22708.00
1498.168, 22797.00
1499.206, 22514.00
1500.243, 22731.00
1501.280, 22663.00
1502.317, 22761.00
1503.354, 22809.00
1504.390, 22873.00
1505.426, 22724.00
1506.463, 22741.00
1507.499, 22732.00
1508.535, 22570.00
1509.570, 22828.00
1510.606, 22972.00
1511.641, 22872.00
1512.676, 22681.00
1513.711, 22722.00
1514.746, 22866.00
1515.781, 22883.00
1516.816, 22828.00
1517.850, 22763.00
1518.884, 23124.00
1519.918, 22867.00
1520.952, 23046.00
1521.986, 22891.00
1523.019, 22992.00
1524.053, 22902.00
1525.086, 22968.00
1526.119, 23159.00
1527.152, 22988.00
1528.185, 23179.00
1529.217, 22884.00
1530.250, 23069.00
1531.282, 23160.00
1532.314, 23000.00
1533.346, 23148.00
1534.377, 23177.00
1535.409, 22948.00
1536.440, 22971.00
1537.472, 23210.00
1538.503, 23079.00
1539.534, 23222.00
1540.564, 23129.00
1541.595, 23078.00
1542.625, 23129.00
1543.656, 23305.00
1544.686, 23186.00
1545.716, 23287.00
1546.745, 23131.00
1547.775, 23235.00
1548.804, 23240.00
1549.834, 23169.00
1550.863, 23148.00
1551.892, 23419.00
1552.920, 23330.00
1553.949, 23415.00
1554.977, 23443.00
1556.006, 23474.00
1557.034, 23295.00
1558.062, 23263.00
1559.089, 23166.00
1560.117, 23389.00
1561.144, 23454.00
1562.172, 23260.00
1563.199, 23459.00
1564.226, 23258.00
1565.252, 23473.00
1566.279, 23375.00
1567.305, 23390.00
1568.332, 23331.00
1569.358, 23476.00
1570.384, 23369.00
##END=



