##NAMES=Brazilianite
##RRUFFID=R050319
##IDEAL CHEMISTRY=NaAl_3_(PO_4_)_2_(OH)_4_
##LOCALITY=Minas Gerais, Brazil
##OWNER=RRUFF
##SOURCE=American Museum of Natural History
##DESCRIPTION=Pale green fragment
##STATUS=The identification of this mineral has been confirmed by X-ray diffraction and chemical analysis
##URL=rruff.info/R050319
##MEASURED CHEMISTRY=Na_1.00_Al_3.00_(PO_4_)_2_(OH)_4_
##PIN_ID=M00275
##ORIENTATION=Laser parallel to b* (0 1 0). Fiducial mark perpendicular to laser is parallel to c [0 0 1]
78.65900, 3635.000
79.89500, 3840.000
81.13100, 4030.000
82.36700, 4332.066
83.60200, 4640.000
84.83700, 4882.000
86.07200, 5212.000
87.30800, 5421.000
88.54200, 5625.000
89.77700, 5727.000
91.01200, 5623.000
92.24600, 5486.000
93.48000, 5344.000
94.71400, 5288.000
95.94800, 5269.000
97.18200, 5175.000
98.41600, 5209.000
99.64900, 5344.000
100.8830, 5360.000
102.1160, 5419.000
103.3490, 5505.000
104.5820, 5616.000
105.8150, 5752.000
107.0470, 5908.000
108.2800, 6133.000
109.5120, 6295.000
110.7440, 6268.000
111.9760, 6257.000
113.2080, 6326.000
114.4400, 6567.000
115.6710, 6817.000
116.9030, 6874.000
118.1340, 6964.000
119.3650, 6911.000
120.5960, 6773.000
121.8270, 6588.000
123.0580, 6189.000
124.2880, 6283.000
125.5190, 6216.000
126.7490, 6231.000
127.9790, 6278.000
129.2090, 6437.000
130.4390, 6434.000
131.6680, 6498.000
132.8980, 6483.000
134.1270, 6402.000
135.3560, 6437.000
136.5850, 6509.000
137.8140, 6598.000
139.0430, 6607.000
140.2710, 6977.000
141.5000, 6872.000
142.7280, 7165.000
143.9560, 7343.000
145.1840, 7450.000
146.4120, 7654.000
147.6390, 7639.000
148.8670, 7523.000
150.0940, 7473.000
151.3210, 7421.000
152.5490, 7377.000
153.7750, 7221.000
155.0020, 7307.000
156.2290, 7240.000
157.4550, 7359.000
158.6810, 7789.000
159.9080, 8282.070
161.1340, 8745.000
162.3590, 9936.000
163.5850, 11095.00
164.8110, 12428.00
166.0360, 13616.00
167.2610, 14879.00
168.4860, 17606.00
169.7110, 21321.00
170.9360, 24774.00
172.1610, 26902.00
173.3850, 25826.00
174.6100, 22701.00
175.8340, 19246.00
177.0580, 15967.00
178.2820, 13287.00
179.5050, 11375.00
180.7290, 9900.000
181.9520, 9098.000
183.1760, 8813.000
184.3990, 8395.000
185.6220, 8265.000
186.8450, 8112.000
188.0670, 7921.000
189.2900, 7934.000
190.5120, 7796.000
191.7340, 7866.000
192.9560, 7865.000
194.1780, 7739.000
195.4000, 7824.000
196.6220, 7814.000
197.8430, 7865.000
199.0640, 7807.000
200.2860, 7843.000
201.5070, 7824.000
202.7270, 7903.000
203.9480, 7901.000
205.1690, 7867.000
206.3890, 7951.000
207.6090, 8093.000
208.8290, 8141.000
210.0490, 8275.000
211.2690, 8486.000
212.4890, 8572.000
213.7080, 8795.000
214.9280, 9062.000
216.1470, 9212.000
217.3660, 9581.000
218.5850, 9581.000
219.8030, 9557.000
221.0220, 9426.000
222.2400, 9158.000
223.4590, 8973.000
224.6770, 8750.000
225.8950, 8634.000
227.1120, 8769.000
228.3300, 8713.000
229.5480, 8837.000
230.7650, 8761.000
231.9820, 8706.000
233.1990, 8593.000
234.4160, 8482.000
235.6330, 8427.000
236.8490, 8446.000
238.0660, 8402.000
239.2820, 8656.000
240.4980, 8888.000
241.7140, 9736.000
242.9300, 10883.00
244.1460, 11755.00
245.3610, 13286.00
246.5770, 11719.00
247.7920, 12271.00
249.0070, 12941.00
250.2220, 14314.00
251.4370, 15197.00
252.6510, 15436.00
253.8660, 14909.00
255.0800, 13668.00
256.2940, 11959.00
257.5080, 10647.00
258.7220, 9820.000
259.9360, 9090.000
261.1490, 8660.000
262.3630, 8303.000
263.5760, 8209.000
264.7890, 8094.000
266.0020, 8168.000
267.2150, 8186.000
268.4270, 8231.000
269.6400, 8435.000
270.8520, 8662.000
272.0640, 8777.000
273.2760, 8983.000
274.4880, 9183.000
275.7000, 9350.000
276.9120, 9382.000
278.1230, 9303.000
279.3340, 9069.000
280.5450, 8972.000
281.7560, 8603.000
282.9670, 8526.000
284.1780, 8351.000
285.3880, 8155.000
286.5980, 8144.000
287.8090, 8141.000
289.0190, 7955.000
290.2290, 7912.000
291.4380, 7938.000
292.6480, 7931.000
293.8570, 7945.000
295.0670, 8082.000
296.2760, 7924.000
297.4850, 7970.000
298.6930, 8091.000
299.9020, 8038.000
301.1110, 7990.000
302.3190, 7992.000
303.5270, 8086.000
304.7350, 8298.000
305.9430, 8407.000
307.1510, 8608.000
308.3580, 8762.000
309.5660, 8921.000
310.7730, 9225.000
311.9800, 9533.000
313.1870, 9701.000
314.3940, 9665.000
315.6010, 9536.000
316.8070, 9381.000
318.0130, 9180.000
319.2200, 8957.000
320.4260, 8895.000
321.6310, 8696.000
322.8370, 8727.000
324.0430, 8608.000
325.2480, 8598.000
326.4540, 8634.000
327.6590, 8716.000
328.8640, 8786.000
330.0680, 8881.000
331.2730, 8898.000
332.4780, 8993.000
333.6820, 8919.000
334.8860, 8937.000
336.0900, 9011.000
337.2940, 9015.000
338.4980, 9083.000
339.7010, 9110.000
340.9050, 9156.000
342.1080, 9154.000
343.3110, 9159.000
344.5140, 9222.000
345.7170, 9296.000
346.9200, 9441.000
348.1220, 9548.000
349.3240, 9607.000
350.5270, 9936.000
351.7290, 9985.000
352.9310, 10282.00
354.1320, 10536.00
355.3340, 10682.00
356.5350, 10845.00
357.7370, 10824.00
358.9380, 10856.00
360.1390, 10531.00
361.3400, 10093.00
362.5400, 9829.000
363.7410, 9415.000
364.9410, 9192.000
366.1410, 9030.000
367.3410, 8985.000
368.5410, 8765.000
369.7410, 8863.000
370.9400, 8682.000
372.1400, 8705.000
373.3390, 8733.000
374.5380, 8661.000
375.7370, 8546.000
376.9360, 8402.000
378.1350, 8571.000
379.3330, 8520.000
380.5310, 8584.000
381.7300, 8589.000
382.9280, 8607.000
384.1260, 8566.000
385.3230, 8555.000
386.5210, 8587.998
387.7180, 8669.000
388.9160, 8652.000
390.1130, 8718.000
391.3100, 8745.000
392.5060, 8808.000
393.7030, 8834.000
394.9000, 8819.000
396.0960, 8972.000
397.2920, 9012.000
398.4880, 9075.000
399.6840, 9313.000
400.8800, 9299.000
402.0750, 9689.000
403.2710, 9798.000
404.4660, 10093.00
405.6610, 10485.00
406.8560, 10762.00
408.0510, 11154.00
409.2450, 11446.00
410.4400, 11815.00
411.6340, 12102.00
412.8280, 12243.00
414.0220, 12398.00
415.2160, 12341.00
416.4100, 12215.00
417.6030, 12222.00
418.7970, 11969.00
419.9900, 11822.00
421.1830, 11738.00
422.3760, 11711.74
423.5690, 11751.00
424.7610, 11918.00
425.9540, 12124.00
427.1460, 12478.00
428.3380, 12618.00
429.5300, 12932.00
430.7220, 13592.00
431.9140, 14410.00
433.1050, 15042.00
434.2970, 15790.00
435.4880, 16608.00
436.6790, 17717.00
437.8700, 18486.00
439.0610, 18767.00
440.2510, 18722.00
441.4420, 18337.00
442.6320, 17741.00
443.8220, 16725.00
445.0120, 15864.00
446.2020, 15184.00
447.3910, 14799.00
448.5810, 14502.00
449.7700, 14307.00
450.9600, 14463.00
452.1490, 14564.00
453.3370, 14938.00
454.5260, 15427.00
455.7150, 16078.00
456.9030, 16635.00
458.0910, 17110.00
459.2800, 17948.00
460.4670, 18343.00
461.6550, 19151.00
462.8430, 19772.00
464.0300, 20105.00
465.2180, 20276.00
466.4050, 20294.00
467.5920, 19728.00
468.7790, 18857.00
469.9650, 17703.00
471.1520, 16596.00
472.3380, 15478.00
473.5250, 14394.00
474.7110, 13475.00
475.8970, 12832.00
477.0820, 12334.00
478.2680, 12067.00
479.4540, 11774.00
480.6390, 11673.00
481.8240, 11581.00
483.0090, 11680.00
484.1940, 11542.00
485.3780, 11714.00
486.5630, 11870.00
487.7470, 12071.00
488.9320, 12200.00
490.1160, 12319.00
491.3000, 12651.00
492.4830, 13012.00
493.6670, 13529.00
494.8500, 13712.00
496.0340, 13911.00
497.2170, 14496.00
498.4000, 14950.00
499.5820, 15178.00
500.7650, 15432.00
501.9480, 15738.00
503.1300, 15782.00
504.3120, 15839.00
505.4940, 15887.00
506.6760, 16071.00
507.8580, 16207.00
509.0390, 16113.00
510.2210, 16481.00
511.4020, 16594.00
512.5830, 16856.00
513.7640, 17141.00
514.9450, 17063.00
516.1250, 17260.00
517.3060, 17461.00
518.4860, 17369.00
519.6660, 17396.00
520.8460, 17874.00
522.0260, 17913.00
523.2060, 18007.00
524.3850, 18381.00
525.5650, 18744.00
526.7440, 19157.00
527.9230, 19644.00
529.1020, 20029.00
530.2810, 20490.00
531.4590, 20877.00
532.6380, 20944.00
533.8160, 21301.00
534.9940, 21101.00
536.1720, 21076.00
537.3500, 20921.00
538.5270, 20633.00
539.7050, 20524.00
540.8820, 20363.00
542.0590, 20063.00
543.2360, 19989.00
544.4130, 19858.00
545.5900, 20081.00
546.7660, 20544.00
547.9430, 21047.00
549.1190, 21649.00
550.2950, 22545.00
551.4710, 23608.65
552.6470, 25046.00
553.8220, 26352.00
554.9980, 28063.00
556.1730, 29934.00
557.3480, 31653.00
558.5230, 33038.00
559.6980, 33794.00
560.8730, 34644.00
562.0470, 35157.00
563.2220, 34908.00
564.3960, 34872.00
565.5700, 34131.00
566.7440, 32930.00
567.9170, 31508.00
569.0910, 29825.00
570.2640, 27771.00
571.4380, 25635.00
572.6110, 23935.00
573.7840, 21999.00
574.9570, 20600.00
576.1290, 19248.00
577.3020, 18020.00
578.4740, 17358.00
579.6460, 16562.00
580.8180, 16078.00
581.9900, 15700.00
583.1620, 15270.00
584.3330, 15115.00
585.5040, 14962.00
586.6760, 14888.00
587.8470, 14868.20
589.0180, 14955.00
590.1880, 15037.00
591.3590, 15308.00
592.5290, 15659.00
593.7000, 16136.00
594.8700, 16699.00
596.0400, 17518.00
597.2090, 18224.00
598.3790, 18951.00
599.5490, 19262.00
600.7180, 19735.00
601.8870, 19830.00
603.0560, 19687.00
604.2250, 19384.00
605.3940, 19245.00
606.5620, 19320.00
607.7300, 19396.00
608.8990, 19759.00
610.0670, 19998.00
611.2350, 20570.00
612.4020, 20858.00
613.5700, 20959.00
614.7370, 20798.00
615.9050, 20419.00
617.0720, 19713.00
618.2390, 19117.00
619.4060, 18063.00
620.5720, 17417.00
621.7390, 16739.00
622.9050, 16409.00
624.0710, 16118.00
625.2370, 15917.00
626.4030, 16027.00
627.5690, 16120.00
628.7340, 16500.00
629.9000, 16879.00
631.0650, 17073.00
632.2300, 17376.00
633.3950, 17561.00
634.5600, 17530.00
635.7240, 17423.11
636.8890, 17283.00
638.0530, 16802.00
639.2170, 16276.00
640.3810, 15740.00
641.5450, 15045.00
642.7080, 14613.00
643.8720, 14058.00
645.0350, 13660.00
646.1980, 13442.00
647.3610, 13011.00
648.5240, 12912.00
649.6870, 12671.00
650.8490, 12510.00
652.0120, 12360.00
653.1740, 12211.00
654.3360, 12083.00
655.4980, 12097.00
656.6600, 12079.00
657.8210, 12021.00
658.9830, 11895.00
660.1440, 11768.00
661.3050, 11827.00
662.4660, 11699.00
663.6270, 11829.00
664.7870, 11703.00
665.9480, 11724.00
667.1080, 11643.00
668.2680, 11534.00
669.4280, 11621.00
670.5880, 11734.00
671.7480, 11515.00
672.9070, 11517.00
674.0670, 11382.00
675.2260, 11504.00
676.3850, 11384.00
677.5440, 11486.00
678.7030, 11277.00
679.8610, 11418.00
681.0200, 11179.00
682.1780, 11289.00
683.3360, 11225.00
684.4940, 11241.00
685.6520, 11167.00
686.8090, 11205.00
687.9670, 11175.01
689.1240, 11133.00
690.2810, 11132.00
691.4380, 11049.00
692.5950, 10985.00
693.7520, 10972.00
694.9080, 10936.00
696.0650, 10873.00
697.2210, 11033.00
698.3770, 10942.00
699.5330, 11019.00
700.6880, 11267.00
701.8440, 11131.71
702.9990, 11182.82
704.1550, 11045.00
705.3100, 11149.00
706.4650, 11116.00
707.6190, 11280.00
708.7740, 11438.00
709.9290, 11366.00
711.0830, 11606.00
712.2370, 11476.00
713.3910, 11777.00
714.5450, 11883.00
715.6980, 12049.00
716.8520, 12224.41
718.0050, 12309.00
719.1580, 12522.00
720.3110, 12421.00
721.4640, 12581.00
722.6170, 12507.00
723.7700, 12436.00
724.9220, 12540.00
726.0740, 12322.00
727.2260, 12173.00
728.3780, 12251.00
729.5300, 12173.00
730.6810, 12211.00
731.8330, 12070.00
732.9840, 12015.00
734.1350, 11990.00
735.2860, 11934.00
736.4370, 11910.00
737.5880, 11806.00
738.7380, 11783.32
739.8880, 11907.00
741.0390, 11691.00
742.1890, 11808.00
743.3380, 11755.00
744.4880, 11779.00
745.6380, 11846.00
746.7870, 11771.00
747.9360, 11640.00
749.0850, 11570.00
750.2340, 11608.00
751.3830, 11661.00
752.5310, 11766.00
753.6800, 11665.00
754.8280, 11402.00
755.9760, 11638.00
757.1240, 11463.00
758.2720, 11649.00
759.4190, 11507.00
760.5670, 11558.00
761.7140, 11504.00
762.8610, 11466.00
764.0080, 11542.00
765.1550, 11581.00
766.3020, 11573.00
767.4480, 11582.00
768.5950, 11524.00
769.7410, 11500.00
770.8870, 11598.00
772.0330, 11425.00
773.1780, 11517.00
774.3240, 11546.00
775.4690, 11478.00
776.6140, 11474.00
777.7590, 11535.00
778.9040, 11497.00
780.0490, 11569.00
781.1940, 11569.44
782.3380, 11649.00
783.4820, 11577.00
784.6260, 11611.00
785.7700, 11577.00
786.9140, 11506.00
788.0580, 11592.00
789.2010, 11388.00
790.3450, 11464.00
791.4880, 11472.00
792.6310, 11450.00
793.7730, 11479.19
794.9160, 11491.00
796.0590, 11473.00
797.2010, 11557.00
798.3430, 11556.00
799.4850, 11603.00
800.6270, 11571.00
801.7690, 11560.00
802.9100, 11708.00
804.0520, 11654.00
805.1930, 11654.00
806.3340, 11552.00
807.4750, 11568.52
808.6160, 11548.70
809.7560, 11579.00
810.8970, 11607.00
812.0370, 11642.00
813.1770, 11797.00
814.3170, 11674.00
815.4570, 11686.00
816.5960, 11655.00
817.7360, 11811.00
818.8750, 11734.00
820.0140, 11756.00
821.1530, 11691.00
822.2920, 11850.00
823.4310, 11789.00
824.5690, 11738.00
825.7070, 11739.00
826.8460, 11624.00
827.9840, 11780.00
829.1220, 11950.00
830.2590, 11876.00
831.3970, 11979.00
832.5340, 11856.00
833.6710, 11996.00
834.8080, 11861.00
835.9450, 11905.00
837.0820, 11892.00
838.2190, 11916.00
839.3550, 11867.00
840.4910, 11895.00
841.6270, 11837.00
842.7630, 11861.00
843.8990, 11915.00
845.0350, 11930.00
846.1700, 11986.00
847.3060, 12051.00
848.4410, 12026.00
849.5760, 12058.00
850.7100, 12064.00
851.8450, 12059.00
852.9800, 12046.00
854.1140, 12051.00
855.2480, 12165.00
856.3820, 12108.00
857.5160, 12136.00
858.6500, 12155.00
859.7830, 12064.00
860.9170, 12224.00
862.0500, 12218.00
863.1830, 12106.00
864.3160, 12146.00
865.4480, 12356.00
866.5810, 12194.00
867.7130, 12205.00
868.8460, 12240.00
869.9780, 12133.00
871.1100, 12257.00
872.2410, 12163.00
873.3730, 12128.00
874.5050, 12191.00
875.6360, 12303.00
876.7670, 12249.00
877.8980, 12297.00
879.0290, 12268.00
880.1590, 12394.00
881.2900, 12232.00
882.4200, 12368.00
883.5500, 12307.00
884.6800, 12313.00
885.8100, 12332.00
886.9400, 12363.00
888.0690, 12286.00
889.1990, 12423.00
890.3280, 12490.00
891.4570, 12397.00
892.5860, 12425.00
893.7140, 12439.00
894.8430, 12444.00
895.9710, 12563.00
897.1000, 12451.00
898.2280, 12464.00
899.3560, 12559.00
900.4830, 12465.00
901.6110, 12501.00
902.7380, 12508.00
903.8660, 12467.00
904.9930, 12710.00
906.1200, 12508.00
907.2460, 12560.00
908.3730, 12657.00
909.5000, 12521.00
910.6260, 12680.00
911.7520, 12763.00
912.8780, 12737.00
914.0040, 12835.00
915.1290, 12864.00
916.2550, 12904.00
917.3800, 12899.00
918.5050, 12883.00
919.6300, 12963.00
920.7550, 12956.55
921.8800, 12985.00
923.0040, 13023.00
924.1290, 13103.00
925.2530, 13169.00
926.3770, 13176.54
927.5010, 13274.00
928.6250, 13191.00
929.7480, 13182.00
930.8720, 13188.00
931.9950, 13222.73
933.1180, 13503.00
934.2410, 13405.00
935.3640, 13706.00
936.4860, 13905.00
937.6090, 13696.00
938.7310, 13926.00
939.8530, 13984.00
940.9750, 14263.00
942.0970, 14541.00
943.2180, 14459.00
944.3400, 14605.00
945.4610, 14810.00
946.5820, 15146.00
947.7030, 15244.00
948.8240, 15415.00
949.9450, 15609.00
951.0650, 15832.00
952.1860, 15963.49
953.3060, 16207.00
954.4260, 16298.00
955.5460, 16600.00
956.6650, 16889.00
957.7850, 17207.00
958.9040, 17612.00
960.0230, 18150.86
961.1420, 18635.00
962.2610, 19449.00
963.3800, 20247.00
964.4990, 21085.00
965.6170, 22288.00
966.7350, 23620.00
967.8530, 24979.00
968.9710, 26439.00
970.0890, 27725.00
971.2070, 28557.00
972.3240, 29291.00
973.4410, 29624.00
974.5580, 29234.00
975.6750, 28981.00
976.7920, 28181.00
977.9090, 27022.00
979.0250, 26228.00
980.1410, 25307.00
981.2580, 25035.00
982.3740, 24594.00
983.4890, 24572.00
984.6050, 24716.00
985.7200, 24682.00
986.8360, 24763.00
987.9510, 24681.00
989.0660, 24538.00
990.1810, 24086.00
991.2950, 23615.00
992.4100, 22790.00
993.5240, 22231.00
994.6390, 21932.00
995.7530, 21585.00
996.8660, 21404.00
997.9800, 21394.00
999.0940, 21359.00
1000.207, 21606.00
1001.320, 22179.00
1002.433, 22442.00
1003.546, 23346.00
1004.659, 24271.00
1005.772, 25256.00
1006.884, 26826.00
1007.996, 28502.00
1009.108, 30690.00
1010.220, 33751.00
1011.332, 36852.00
1012.444, 40217.00
1013.555, 44147.00
1014.666, 48604.00
1015.777, 52672.00
1016.888, 55839.00
1017.999, 58785.00
1019.110, 60528.00
1020.220, 60793.00
1021.331, 60253.00
1022.441, 58694.00
1023.551, 56517.00
1024.661, 54018.00
1025.770, 51632.00
1026.880, 49134.00
1027.989, 46771.00
1029.098, 44873.00
1030.207, 43120.00
1031.316, 41847.00
1032.425, 40792.00
1033.533, 39821.00
1034.642, 38873.00
1035.750, 38172.00
1036.858, 37330.00
1037.966, 36917.00
1039.073, 36383.00
1040.181, 35459.00
1041.288, 34782.00
1042.396, 33856.00
1043.503, 32908.00
1044.610, 31652.00
1045.716, 30598.00
1046.823, 28883.00
1047.929, 28000.00
1049.036, 26557.00
1050.142, 25665.00
1051.248, 24691.00
1052.353, 23823.00
1053.459, 23046.00
1054.564, 22239.00
1055.670, 21640.00
1056.775, 21146.71
1057.880, 20678.22
1058.985, 20518.00
1060.089, 20166.00
1061.194, 20164.00
1062.298, 20311.00
1063.402, 20046.00
1064.506, 20337.00
1065.610, 20278.00
1066.713, 20370.00
1067.817, 20734.00
1068.920, 20374.00
1070.023, 20349.00
1071.126, 19969.00
1072.229, 19729.00
1073.332, 19435.00
1074.435, 18709.00
1075.537, 18294.00
1076.639, 18017.00
1077.741, 17637.00
1078.843, 17406.00
1079.945, 17044.00
1081.046, 16754.00
1082.148, 16487.00
1083.249, 16263.00
1084.350, 16165.00
1085.451, 15952.00
1086.551, 15921.00
1087.652, 15771.00
1088.752, 15656.00
1089.853, 15532.33
1090.953, 15342.00
1092.053, 15267.00
1093.152, 15156.00
1094.252, 15088.00
1095.351, 14979.00
1096.451, 14934.00
1097.550, 14897.00
1098.649, 14997.00
1099.748, 14946.00
1100.846, 15032.00
1101.945, 14995.00
1103.043, 14947.00
1104.141, 15024.00
1105.239, 14930.00
1106.337, 15226.00
1107.434, 15220.00
1108.532, 15572.00
1109.629, 15813.00
1110.726, 16213.00
1111.823, 16497.00
1112.920, 17046.00
1114.017, 17382.00
1115.113, 17546.00
1116.210, 17690.00
1117.306, 17717.00
1118.402, 17740.00
1119.498, 17377.00
1120.593, 16905.00
1121.689, 16566.00
1122.784, 16160.00
1123.879, 16006.00
1124.974, 15658.00
1126.069, 15468.00
1127.164, 15374.00
1128.259, 15205.00
1129.353, 15123.00
1130.447, 15018.00
1131.541, 14795.00
1132.635, 14868.00
1133.729, 14814.00
1134.822, 14639.00
1135.916, 14647.00
1137.009, 14656.00
1138.102, 14733.00
1139.195, 14504.00
1140.288, 14683.00
1141.380, 14568.00
1142.473, 14690.00
1143.565, 14664.00
1144.657, 14876.00
1145.749, 14739.00
1146.841, 14790.00
1147.932, 14818.00
1149.024, 14803.00
1150.115, 14664.00
1151.206, 14848.00
1152.297, 14586.00
1153.388, 14762.00
1154.479, 14818.00
1155.569, 14696.00
1156.659, 14646.00
1157.750, 14615.00
1158.839, 14662.00
1159.929, 14553.00
1161.019, 14654.00
1162.108, 14636.00
1163.198, 14657.00
1164.287, 14676.00
1165.376, 14766.00
1166.465, 14690.00
1167.553, 14705.00
1168.642, 14618.00
1169.730, 14603.00
1170.818, 14556.00
1171.906, 14552.00
1172.994, 14559.00
1174.082, 14571.00
1175.170, 14529.00
1176.257, 14591.00
1177.344, 14545.47
1178.431, 14563.00
1179.518, 14511.00
1180.605, 14461.00
1181.691, 14477.00
1182.778, 14561.00
1183.864, 14442.00
1184.950, 14342.00
1186.036, 14537.00
1187.122, 14515.00
1188.207, 14482.00
1189.292, 14667.00
1190.378, 14503.00
1191.463, 14374.00
1192.548, 14536.00
1193.632, 14303.00
1194.717, 14404.00
1195.801, 14452.00
1196.886, 14463.00
1197.970, 14435.00
1199.054, 14466.00
1200.137, 14433.00
1201.221, 14476.00
1202.305, 14498.00
1203.388, 14571.00
1204.471, 14487.00
1205.554, 14576.00
1206.637, 14466.00
1207.719, 14529.00
1208.802, 14614.00
1209.884, 14497.00
1210.966, 14505.00
1212.048, 14521.00
1213.130, 14475.00
1214.212, 14610.00
1215.293, 14484.00
1216.374, 14539.00
1217.456, 14403.00
1218.536, 14500.00
1219.617, 14438.00
1220.698, 14424.00
1221.778, 14379.00
1222.859, 14529.00
1223.939, 14603.00
1225.019, 14587.00
1226.099, 14484.00
1227.178, 14421.00
1228.258, 14602.00
1229.337, 14610.00
1230.417, 14594.00
1231.496, 14610.00
1232.574, 14585.00
1233.653, 14497.00
1234.732, 14565.00
1235.810, 14594.00
1236.888, 14441.00
1237.966, 14588.00
1239.044, 14616.00
1240.122, 14627.00
1241.199, 14619.00
1242.277, 14636.69
1243.354, 14612.63
1244.431, 14644.00
1245.508, 14611.00
1246.585, 14602.00
1247.661, 14697.00
1248.738, 14732.00
1249.814, 14663.00
1250.890, 14639.00
1251.966, 14633.00
1253.042, 14708.00
1254.117, 14655.00
1255.193, 14648.00
1256.268, 14789.00
1257.343, 14746.00
1258.418, 14735.92
1259.493, 14694.00
1260.567, 14666.00
1261.642, 14634.00
1262.716, 14656.00
1263.790, 14701.00
1264.864, 14608.00
1265.938, 14762.00
1267.011, 14804.00
1268.085, 14710.00
1269.158, 14643.00
1270.231, 14581.00
1271.304, 14755.00
1272.377, 14844.00
1273.450, 14844.00
1274.522, 14882.00
1275.594, 14896.00
1276.666, 14782.00
1277.738, 14719.00
1278.810, 14819.00
1279.882, 14654.00
1280.953, 14776.00
1282.025, 14938.00
1283.096, 14848.00
1284.167, 14873.00
1285.238, 14685.00
1286.308, 14840.00
1287.379, 14826.00
1288.449, 14863.00
1289.519, 14878.88
1290.589, 14862.00
1291.659, 14869.00
1292.729, 14909.00
1293.798, 14964.00
1294.868, 14917.00
1295.937, 14843.00
1297.006, 15045.00
1298.075, 14925.00
1299.143, 14899.00
1300.212, 15061.00
1301.280, 14909.00
1302.348, 15068.00
1303.416, 15092.00
1304.484, 15085.00
1305.552, 14978.00
1306.620, 15008.00
1307.687, 15036.00
1308.754, 15003.00
1309.821, 15110.00
1310.888, 15015.00
1311.955, 15133.00
1313.021, 15120.00
1314.088, 15040.00
1315.154, 15084.00
1316.220, 15039.00
1317.286, 15087.00
1318.352, 15159.00
1319.417, 15059.00
1320.483, 15073.00
1321.548, 15160.00
1322.613, 15135.00
1323.678, 15059.00
1324.743, 15184.00
1325.807, 15136.00
1326.872, 15117.00
1327.936, 15220.00
1329.000, 15311.00
1330.064, 15091.00
1331.128, 15045.00
1332.191, 15250.00
1333.255, 15116.00
1334.318, 15094.00
1335.381, 15226.00
1336.444, 15159.00
1337.507, 15321.00
1338.569, 15212.00
1339.632, 15215.00
1340.694, 15122.00
1341.756, 15138.00
1342.818, 15222.00
1343.880, 15228.00
1344.941, 15262.00
1346.003, 15261.00
1347.064, 15214.00
1348.125, 15199.00
1349.186, 15262.00
1350.247, 15181.00
1351.308, 15246.00
1352.368, 15243.00
1353.428, 15192.00
1354.489, 15151.00
1355.549, 15139.00
1356.608, 15359.00
1357.668, 15115.00
1358.727, 15247.00
1359.787, 15406.00
1360.846, 15215.00
1361.905, 15246.00
1362.964, 15222.00
1364.022, 15258.00
1365.081, 15197.00
1366.139, 15329.00
1367.197, 15195.00
1368.255, 15405.00
1369.313, 15306.00
1370.371, 15252.00
1371.428, 15342.00
1372.486, 15324.00
1373.543, 15572.00
1374.600, 15290.00
1375.657, 15439.00
1376.713, 15446.00
1377.770, 15342.00
1378.826, 15440.00
1379.882, 15516.00
1380.938, 15254.00
1381.994, 15398.00
1383.050, 15366.00
1384.106, 15349.00
1385.161, 15445.00
1386.216, 15447.00
1387.271, 15476.00
1388.326, 15402.00
1389.381, 15480.00
1390.435, 15344.00
1391.490, 15454.00
1392.544, 15427.00
1393.598, 15461.00
1394.652, 15460.00
1395.705, 15453.77
1396.759, 15433.00
1397.812, 15445.00
1398.866, 15412.00
1399.919, 15403.28
1400.972, 15440.18
1402.024, 15468.00
1403.077, 15475.00
1404.129, 15482.00
1405.181, 15401.00
1406.233, 15667.00
1407.285, 15530.00
1408.337, 15427.00
1409.389, 15648.00
1410.440, 15599.00
1411.491, 15642.00
1412.542, 15508.00
1413.593, 15582.00
1414.644, 15450.00
1415.695, 15631.00
1416.745, 15549.00
1417.795, 15569.00
1418.845, 15577.00
1419.895, 15331.00
1420.945, 15615.00
1421.995, 15790.00
1423.044, 15472.00
1424.093, 15719.00
1425.142, 15601.00
1426.191, 15686.00
1427.240, 15804.00
1428.289, 15607.00
1429.337, 15581.00
1430.385, 15730.00
1431.433, 15669.00
1432.481, 15748.00
1433.529, 15746.00
1434.577, 15639.00
1435.624, 15861.00
1436.672, 15779.00
1437.719, 15827.00
1438.766, 15861.00
1439.812, 15849.00
1440.859, 15818.00
1441.905, 15850.00
1442.952, 15827.00
1443.998, 15849.00
1445.044, 15849.42
1446.090, 15958.00
1447.135, 15857.00
1448.181, 15969.00
1449.226, 15991.00
1450.271, 15907.00
1451.316, 16043.00
1452.361, 16035.00
1453.405, 16077.00
1454.450, 15965.00
1455.494, 15881.00
1456.538, 15890.00
1457.582, 15950.00
1458.626, 15906.00
1459.670, 15983.00
1460.713, 15986.00
1461.757, 15976.69
1462.800, 15980.91
1463.843, 15989.00
1464.886, 15950.00
1465.928, 16011.00
1466.971, 16043.00
1468.013, 15966.00
1469.055, 15924.00
1470.097, 16042.00
1471.139, 16088.00
1472.181, 15814.00
1473.222, 15990.00
1474.263, 15934.00
1475.305, 16102.00
1476.346, 16135.00
1477.386, 15969.00
1478.427, 16028.00
1479.468, 16005.00
1480.508, 16199.00
1481.548, 16076.00
1482.588, 16151.00
1483.628, 15966.00
1484.668, 16078.00
1485.707, 16033.00
1486.747, 16082.00
1487.786, 16052.00
1488.825, 16122.00
1489.864, 16038.00
1490.902, 16054.00
1491.941, 16191.00
1492.979, 16174.00
1494.017, 16071.00
1495.055, 15906.00
1496.093, 16054.00
1497.131, 16239.00
1498.168, 16148.00
1499.206, 16175.00
1500.243, 16162.00
1501.280, 16316.00
1502.317, 16272.00
1503.354, 16249.00
1504.390, 16176.00
1505.426, 16221.00
1506.463, 16141.00
1507.499, 16303.00
1508.535, 16130.00
1509.570, 16287.00
1510.606, 16143.00
1511.641, 16085.00
1512.676, 16225.00
1513.711, 16134.00
1514.746, 16214.00
1515.781, 16171.00
1516.816, 16289.00
1517.850, 16418.00
1518.884, 16402.00
1519.918, 16389.00
1520.952, 16292.00
1521.986, 16448.00
1523.019, 16487.00
1524.053, 16251.00
1525.086, 16146.00
1526.119, 16301.00
1527.152, 16387.00
1528.185, 16495.00
1529.217, 16313.00
1530.250, 16486.00
1531.282, 16354.00
1532.314, 16427.00
1533.346, 16343.00
1534.377, 16407.00
1535.409, 16470.00
1536.440, 16369.00
1537.472, 16406.00
1538.503, 16554.00
1539.534, 16512.00
1540.564, 16444.00
1541.595, 16466.00
1542.625, 16415.53
1543.656, 16489.00
1544.686, 16362.00
1545.716, 16401.00
1546.745, 16366.00
1547.775, 16482.00
1548.804, 16476.00
1549.834, 16464.00
1550.863, 16473.00
1551.892, 16447.00
1552.920, 16368.00
1553.949, 16363.00
1554.977, 16603.00
1556.006, 16603.00
1557.034, 16524.00
1558.062, 16486.00
1559.089, 16442.00
1560.117, 16459.00
1561.144, 16524.00
1562.172, 16527.00
1563.199, 16559.40
1564.226, 16578.46
1565.252, 16567.00
1566.279, 16616.00
1567.305, 16547.00
1568.332, 16591.00
1569.358, 16567.00
1570.384, 16519.00
##END=



