##NAMES=Brazilianite
##RRUFFID=R050504
##IDEAL CHEMISTRY=NaAl_3_(PO_4_)_2_(OH)_4_
##LOCALITY=CÃ³rrego Frio, Minas Gerais, Brazil
##OWNER=RRUFF
##SOURCE=Marcus Origlieri
##DESCRIPTION=Yellowish green fragment
##STATUS=The identification of this mineral has been confirmed by X-ray diffraction and chemical analysis
##URL=rruff.info/R050504
##MEASURED CHEMISTRY=Na_1.00_Al_3.00_(P_1.00_O_4_)_2_(OH)_4_
##PIN_ID=L00856
##ORIENTATION=Laser parallel to -a* (-1 0 0). Fiducial mark perpendicular to laser is parallel to b [0 1 0]
84.83700, 5831.000
86.07200, 6020.000
87.30800, 6106.000
88.54200, 6353.000
89.77700, 6426.000
91.01200, 6624.000
92.24600, 6751.000
93.48000, 6722.000
94.71400, 6913.000
95.94800, 6927.000
97.18200, 6982.000
98.41600, 7212.000
99.64900, 7259.000
100.8830, 7503.000
102.1160, 7700.000
103.3490, 7758.000
104.5820, 7794.000
105.8150, 7789.000
107.0470, 7958.000
108.2800, 8109.000
109.5120, 8148.000
110.7440, 8094.000
111.9760, 8285.000
113.2080, 8266.000
114.4400, 8228.000
115.6710, 8278.000
116.9030, 7970.000
118.1340, 7859.000
119.3650, 7733.000
120.5960, 7701.000
121.8270, 7724.000
123.0580, 7608.000
124.2880, 7793.000
125.5190, 7650.000
126.7490, 7769.000
127.9790, 7824.000
129.2090, 7848.000
130.4390, 7862.000
131.6680, 7684.000
132.8980, 7664.000
134.1270, 7698.000
135.3560, 7756.000
136.5850, 7729.000
137.8140, 8069.000
139.0430, 8305.000
140.2710, 8257.000
141.5000, 8639.000
142.7280, 8888.000
143.9560, 9043.000
145.1840, 9163.076
146.4120, 9306.000
147.6390, 9147.000
148.8670, 8994.000
150.0940, 8831.000
151.3210, 8731.000
152.5490, 8645.000
153.7750, 8406.000
155.0020, 8317.000
156.2290, 8375.000
157.4550, 8432.000
158.6810, 8639.000
159.9080, 8907.000
161.1340, 9546.000
162.3590, 10373.00
163.5850, 11390.00
164.8110, 12257.00
166.0360, 12819.00
167.2610, 13700.00
168.4860, 15269.00
169.7110, 17152.00
170.9360, 17958.00
172.1610, 17415.00
173.3850, 16073.00
174.6100, 14773.00
175.8340, 13273.00
177.0580, 12021.00
178.2820, 11017.00
179.5050, 10204.00
180.7290, 9678.000
181.9520, 9363.000
183.1760, 9260.000
184.3990, 9124.000
185.6220, 9044.000
186.8450, 8961.000
188.0670, 8871.000
189.2900, 8802.000
190.5120, 8861.000
191.7340, 8781.022
192.9560, 8798.940
194.1780, 8760.000
195.4000, 8803.000
196.6220, 8869.000
197.8430, 8868.000
199.0640, 8809.000
200.2860, 8772.000
201.5070, 8794.000
202.7270, 8760.000
203.9480, 8736.000
205.1690, 8769.715
206.3890, 8821.693
207.6090, 8864.000
208.8290, 9057.000
210.0490, 9203.000
211.2690, 9460.000
212.4890, 9682.000
213.7080, 10085.00
214.9280, 10289.00
216.1470, 10662.00
217.3660, 10751.00
218.5850, 10703.00
219.8030, 10517.00
221.0220, 10122.00
222.2400, 9837.000
223.4590, 9631.000
224.6770, 9349.000
225.8950, 9188.000
227.1120, 9099.000
228.3300, 9189.000
229.5480, 9134.000
230.7650, 9245.000
231.9820, 9207.000
233.1990, 9418.000
234.4160, 9613.000
235.6330, 10019.00
236.8490, 10135.00
238.0660, 10530.00
239.2820, 10944.00
240.4980, 11363.00
241.7140, 12154.00
242.9300, 12956.00
244.1460, 14074.00
245.3610, 14564.00
246.5770, 15008.00
247.7920, 15750.00
249.0070, 17042.00
250.2220, 18446.00
251.4370, 18997.00
252.6510, 18063.00
253.8660, 16295.00
255.0800, 14744.00
256.2940, 13403.00
257.5080, 12260.83
258.7220, 11266.00
259.9360, 10679.00
261.1490, 10365.00
262.3630, 10267.00
263.5760, 10189.00
264.7890, 10401.00
266.0020, 10457.00
267.2150, 10790.00
268.4270, 11044.00
269.6400, 11209.00
270.8520, 11479.00
272.0640, 11750.00
273.2760, 11796.00
274.4880, 11956.00
275.7000, 11658.00
276.9120, 11508.00
278.1230, 11022.00
279.3340, 10600.00
280.5450, 10303.00
281.7560, 10026.00
282.9670, 9787.000
284.1780, 9572.000
285.3880, 9613.000
286.5980, 9621.000
287.8090, 9599.000
289.0190, 9698.000
290.2290, 9567.000
291.4380, 9716.000
292.6480, 9794.000
293.8570, 9712.000
295.0670, 9710.000
296.2760, 9817.000
297.4850, 9662.000
298.6930, 9755.000
299.9020, 9669.000
301.1110, 9719.000
302.3190, 10092.00
303.5270, 10191.00
304.7350, 10343.00
305.9430, 10811.00
307.1510, 10961.00
308.3580, 11354.00
309.5660, 11643.00
310.7730, 11856.00
311.9800, 11883.72
313.1870, 11930.00
314.3940, 11652.00
315.6010, 11409.00
316.8070, 11074.00
318.0130, 10667.00
319.2200, 10428.00
320.4260, 10209.00
321.6310, 10059.00
322.8370, 9876.000
324.0430, 9824.000
325.2480, 9760.000
326.4540, 9771.000
327.6590, 9939.000
328.8640, 9912.000
330.0680, 9908.000
331.2730, 9819.000
332.4780, 9834.000
333.6820, 9955.000
334.8860, 9906.000
336.0900, 9934.000
337.2940, 9922.000
338.4980, 9937.000
339.7010, 9969.000
340.9050, 9955.000
342.1080, 10152.00
343.3110, 10326.00
344.5140, 10313.00
345.7170, 10525.00
346.9200, 10775.00
348.1220, 10986.00
349.3240, 11143.00
350.5270, 11249.00
351.7290, 11605.00
352.9310, 11817.00
354.1320, 12237.00
355.3340, 12232.00
356.5350, 12267.00
357.7370, 12236.00
358.9380, 11964.00
360.1390, 11603.00
361.3400, 11145.00
362.5400, 10679.00
363.7410, 10659.00
364.9410, 10312.00
366.1410, 10309.00
367.3410, 10064.00
368.5410, 10018.00
369.7410, 10124.00
370.9400, 9985.000
372.1400, 10082.00
373.3390, 10110.00
374.5380, 10047.00
375.7370, 10065.00
376.9360, 10185.00
378.1350, 10141.00
379.3330, 10136.00
380.5310, 10184.00
381.7300, 10132.00
382.9280, 10105.00
384.1260, 10181.00
385.3230, 10237.00
386.5210, 10279.00
387.7180, 10305.08
388.9160, 10273.00
390.1130, 10332.00
391.3100, 10350.00
392.5060, 10377.00
393.7030, 10591.00
394.9000, 10507.00
396.0960, 10604.00
397.2920, 10866.00
398.4880, 10960.00
399.6840, 11120.00
400.8800, 11301.00
402.0750, 11514.82
403.2710, 11767.11
404.4660, 12040.00
405.6610, 12341.00
406.8560, 12660.00
408.0510, 12978.00
409.2450, 13190.00
410.4400, 13300.00
411.6340, 13457.00
412.8280, 13440.00
414.0220, 13370.00
415.2160, 13186.00
416.4100, 12986.00
417.6030, 12804.00
418.7970, 12731.00
419.9900, 12714.00
421.1830, 12721.00
422.3760, 12954.00
423.5690, 13106.00
424.7610, 13409.00
425.9540, 13907.00
427.1460, 14324.00
428.3380, 15442.00
429.5300, 16281.00
430.7220, 17586.00
431.9140, 18701.00
433.1050, 20155.00
434.2970, 21770.00
435.4880, 23081.00
436.6790, 24288.00
437.8700, 24722.00
439.0610, 24690.00
440.2510, 24066.00
441.4420, 22643.00
442.6320, 21367.00
443.8220, 20039.00
445.0120, 19359.00
446.2020, 18529.00
447.3910, 18217.00
448.5810, 18155.00
449.7700, 18294.00
450.9600, 18650.00
452.1490, 19204.00
453.3370, 19840.00
454.5260, 20574.00
455.7150, 21486.00
456.9030, 22454.00
458.0910, 23580.00
459.2800, 24208.00
460.4670, 25058.00
461.6550, 26009.00
462.8430, 26551.00
464.0300, 27073.00
465.2180, 26810.00
466.4050, 26287.00
467.5920, 24943.00
468.7790, 23423.00
469.9650, 21701.00
471.1520, 20072.00
472.3380, 18541.00
473.5250, 17109.00
474.7110, 15957.00
475.8970, 15084.00
477.0820, 14516.00
478.2680, 14061.00
479.4540, 13688.00
480.6390, 13595.00
481.8240, 13276.00
483.0090, 13394.00
484.1940, 13253.00
485.3780, 13280.00
486.5630, 13333.00
487.7470, 13380.54
488.9320, 13461.00
490.1160, 13697.00
491.3000, 13824.00
492.4830, 14165.00
493.6670, 14388.00
494.8500, 14815.00
496.0340, 14951.00
497.2170, 15372.00
498.4000, 15644.00
499.5820, 15872.00
500.7650, 16097.00
501.9480, 16134.00
503.1300, 16399.00
504.3120, 16582.00
505.4940, 16503.00
506.6760, 16752.00
507.8580, 16742.00
509.0390, 16883.00
510.2210, 17009.00
511.4020, 17242.00
512.5830, 17541.00
513.7640, 17731.00
514.9450, 17816.00
516.1250, 18000.00
517.3060, 18053.00
518.4860, 18118.00
519.6660, 18423.00
520.8460, 18555.00
522.0260, 18928.00
523.2060, 19134.00
524.3850, 19740.00
525.5650, 20400.00
526.7440, 20917.00
527.9230, 21413.00
529.1020, 21857.21
530.2810, 22502.00
531.4590, 22542.00
532.6380, 22813.00
533.8160, 22987.00
534.9940, 22743.00
536.1720, 22461.00
537.3500, 22319.00
538.5270, 21941.00
539.7050, 21870.00
540.8820, 21614.00
542.0590, 21255.00
543.2360, 21592.00
544.4130, 21305.00
545.5900, 21590.00
546.7660, 21903.00
547.9430, 22637.00
549.1190, 23393.00
550.2950, 24350.00
551.4710, 25420.00
552.6470, 26816.00
553.8220, 28523.00
554.9980, 30130.00
556.1730, 31668.00
557.3480, 33169.00
558.5230, 34107.00
559.6980, 34954.00
560.8730, 35452.00
562.0470, 35641.00
563.2220, 35392.30
564.3960, 34826.00
565.5700, 33810.00
566.7440, 32521.00
567.9170, 30739.00
569.0910, 29102.00
570.2640, 27032.00
571.4380, 25141.00
572.6110, 23589.00
573.7840, 22027.00
574.9570, 20899.00
576.1290, 19703.00
577.3020, 18839.00
578.4740, 18160.00
579.6460, 17619.00
580.8180, 17260.00
581.9900, 16819.00
583.1620, 16494.00
584.3330, 16384.00
585.5040, 16121.00
586.6760, 15856.00
587.8470, 15881.00
589.0180, 15924.00
590.1880, 16137.00
591.3590, 16079.00
592.5290, 16275.00
593.7000, 16318.00
594.8700, 16792.00
596.0400, 17068.00
597.2090, 17345.00
598.3790, 17562.00
599.5490, 17839.00
600.7180, 17860.00
601.8870, 18014.00
603.0560, 17820.00
604.2250, 18024.00
605.3940, 18101.00
606.5620, 18384.00
607.7300, 18487.00
608.8990, 18934.00
610.0670, 19086.00
611.2350, 19441.00
612.4020, 19477.00
613.5700, 19480.00
614.7370, 19364.00
615.9050, 19014.00
617.0720, 18676.00
618.2390, 18137.00
619.4060, 17609.00
620.5720, 17195.00
621.7390, 17166.00
622.9050, 16924.00
624.0710, 17028.00
625.2370, 17033.00
626.4030, 17077.00
627.5690, 17302.00
628.7340, 17469.00
629.9000, 17623.00
631.0650, 17795.00
632.2300, 18231.00
633.3950, 18108.00
634.5600, 18080.00
635.7240, 17758.00
636.8890, 17266.00
638.0530, 16696.00
639.2170, 16301.00
640.3810, 16006.00
641.5450, 15551.00
642.7080, 15255.00
643.8720, 14975.00
645.0350, 14666.00
646.1980, 14487.51
647.3610, 14319.79
648.5240, 14220.00
649.6870, 14133.00
650.8490, 14166.00
652.0120, 14161.00
653.1740, 14174.00
654.3360, 14083.00
655.4980, 14226.00
656.6600, 14028.00
657.8210, 14028.00
658.9830, 14087.00
660.1440, 14023.00
661.3050, 13975.81
662.4660, 13972.00
663.6270, 13789.00
664.7870, 13655.00
665.9480, 13527.93
667.1080, 13436.49
668.2680, 13336.00
669.4280, 13337.00
670.5880, 13355.00
671.7480, 13387.00
672.9070, 13317.00
674.0670, 13172.00
675.2260, 13027.00
676.3850, 13172.00
677.5440, 13038.00
678.7030, 13048.00
679.8610, 12959.00
681.0200, 12929.00
682.1780, 12882.00
683.3360, 12952.00
684.4940, 12670.00
685.6520, 12660.00
686.8090, 12855.00
687.9670, 12665.00
689.1240, 12433.00
690.2810, 12838.00
691.4380, 12443.00
692.5950, 12466.00
693.7520, 12440.00
694.9080, 12458.00
696.0650, 12378.00
697.2210, 12399.00
698.3770, 12395.00
699.5330, 12517.00
700.6880, 12348.00
701.8440, 12477.00
702.9990, 12397.00
704.1550, 12594.00
705.3100, 12713.00
706.4650, 12573.00
707.6190, 12837.00
708.7740, 12855.00
709.9290, 13007.00
711.0830, 13328.00
712.2370, 13268.00
713.3910, 13506.00
714.5450, 13664.00
715.6980, 13938.00
716.8520, 13989.00
718.0050, 14183.00
719.1580, 14254.00
720.3110, 14351.00
721.4640, 14227.00
722.6170, 14263.00
723.7700, 14190.00
724.9220, 14146.00
726.0740, 14015.00
727.2260, 13977.00
728.3780, 13792.00
729.5300, 13781.00
730.6810, 13837.00
731.8330, 13752.00
732.9840, 13636.00
734.1350, 13743.00
735.2860, 13523.00
736.4370, 13550.00
737.5880, 13456.00
738.7380, 13555.00
739.8880, 13440.00
741.0390, 13435.00
742.1890, 13398.00
743.3380, 13334.00
744.4880, 13498.00
745.6380, 13316.00
746.7870, 13355.00
747.9360, 13283.00
749.0850, 13149.00
750.2340, 13266.00
751.3830, 13211.00
752.5310, 13125.00
753.6800, 13303.00
754.8280, 13189.00
755.9760, 12969.00
757.1240, 13037.00
758.2720, 13088.00
759.4190, 13026.00
760.5670, 13074.00
761.7140, 13064.00
762.8610, 12993.00
764.0080, 13146.00
765.1550, 13266.00
766.3020, 13152.00
767.4480, 13169.00
768.5950, 12982.00
769.7410, 13002.00
770.8870, 13139.00
772.0330, 13074.00
773.1780, 13046.00
774.3240, 13088.00
775.4690, 13111.00
776.6140, 13119.70
777.7590, 13123.38
778.9040, 13141.00
780.0490, 13124.00
781.1940, 13088.00
782.3380, 13132.00
783.4820, 12968.00
784.6260, 12917.00
785.7700, 12886.00
786.9140, 13138.00
788.0580, 13004.00
789.2010, 12939.00
790.3450, 13035.00
791.4880, 12944.00
792.6310, 13093.00
793.7730, 12912.00
794.9160, 12989.00
796.0590, 12992.00
797.2010, 12945.00
798.3430, 13044.00
799.4850, 12949.00
800.6270, 12861.00
801.7690, 12947.00
802.9100, 13050.00
804.0520, 13047.00
805.1930, 13195.00
806.3340, 13036.00
807.4750, 13092.00
808.6160, 12982.00
809.7560, 13048.00
810.8970, 13017.00
812.0370, 12881.00
813.1770, 13101.00
814.3170, 12964.00
815.4570, 13074.00
816.5960, 13102.00
817.7360, 13096.00
818.8750, 13205.00
820.0140, 13083.00
821.1530, 13152.00
822.2920, 13233.00
823.4310, 13245.00
824.5690, 13245.00
825.7070, 13288.00
826.8460, 13170.00
827.9840, 13181.00
829.1220, 13179.00
830.2590, 13300.00
831.3970, 13189.00
832.5340, 13133.00
833.6710, 13378.00
834.8080, 13337.00
835.9450, 13323.00
837.0820, 13185.00
838.2190, 13175.00
839.3550, 13369.00
840.4910, 13457.00
841.6270, 13423.00
842.7630, 13433.00
843.8990, 13418.00
845.0350, 13499.00
846.1700, 13393.00
847.3060, 13544.00
848.4410, 13479.00
849.5760, 13429.00
850.7100, 13448.00
851.8450, 13502.00
852.9800, 13720.00
854.1140, 13653.00
855.2480, 13681.00
856.3820, 13879.00
857.5160, 13584.00
858.6500, 13738.00
859.7830, 13633.00
860.9170, 13881.00
862.0500, 13714.00
863.1830, 13705.00
864.3160, 13702.00
865.4480, 13531.00
866.5810, 13561.00
867.7130, 13721.00
868.8460, 13822.00
869.9780, 13694.00
871.1100, 13618.00
872.2410, 13768.00
873.3730, 13569.00
874.5050, 13682.00
875.6360, 13708.00
876.7670, 13621.00
877.8980, 13675.00
879.0290, 13778.00
880.1590, 13891.00
881.2900, 13580.00
882.4200, 13738.00
883.5500, 13640.00
884.6800, 13886.00
885.8100, 13621.00
886.9400, 13824.00
888.0690, 14013.00
889.1990, 13692.00
890.3280, 13824.00
891.4570, 13786.00
892.5860, 13814.00
893.7140, 13973.00
894.8430, 13975.00
895.9710, 14005.00
897.1000, 14033.42
898.2280, 14019.22
899.3560, 14007.00
900.4830, 13998.00
901.6110, 13972.00
902.7380, 13962.00
903.8660, 14056.00
904.9930, 14115.00
906.1200, 14067.00
907.2460, 14000.00
908.3730, 13943.00
909.5000, 14081.00
910.6260, 14231.00
911.7520, 14221.00
912.8780, 14293.00
914.0040, 14235.00
915.1290, 14340.00
916.2550, 14229.00
917.3800, 14196.00
918.5050, 14174.00
919.6300, 14212.00
920.7550, 14190.85
921.8800, 14246.36
923.0040, 14253.00
924.1290, 14383.00
925.2530, 14537.00
926.3770, 14667.00
927.5010, 14554.00
928.6250, 14614.00
929.7480, 14650.00
930.8720, 14557.00
931.9950, 14680.41
933.1180, 14962.00
934.2410, 14818.00
935.3640, 14942.00
936.4860, 14972.00
937.6090, 15049.00
938.7310, 15248.00
939.8530, 15340.00
940.9750, 15406.00
942.0970, 15635.00
943.2180, 15648.00
944.3400, 15661.00
945.4610, 15903.00
946.5820, 16080.00
947.7030, 16253.36
948.8240, 16416.00
949.9450, 16718.00
951.0650, 16851.00
952.1860, 17142.00
953.3060, 17336.00
954.4260, 17686.00
955.5460, 18309.00
956.6650, 18566.00
957.7850, 19164.00
958.9040, 19613.00
960.0230, 20560.00
961.1420, 21539.00
962.2610, 22522.00
963.3800, 23596.00
964.4990, 25040.00
965.6170, 26653.00
966.7350, 28339.00
967.8530, 29979.00
968.9710, 31551.00
970.0890, 33008.00
971.2070, 33931.00
972.3240, 34560.00
973.4410, 34360.00
974.5580, 33976.00
975.6750, 33073.00
976.7920, 32164.00
977.9090, 31106.00
979.0250, 30068.00
980.1410, 29527.00
981.2580, 29015.00
982.3740, 28924.00
983.4890, 28892.00
984.6050, 28823.00
985.7200, 28683.00
986.8360, 28706.00
987.9510, 28244.00
989.0660, 27900.00
990.1810, 26896.00
991.2950, 26036.00
992.4100, 25309.00
993.5240, 24761.72
994.6390, 24227.00
995.7530, 24055.00
996.8660, 23879.00
997.9800, 23790.00
999.0940, 23740.00
1000.207, 24005.00
1001.320, 24431.00
1002.433, 24986.00
1003.546, 25484.00
1004.659, 26136.00
1005.772, 27235.00
1006.884, 28668.00
1007.996, 30199.00
1009.108, 32198.00
1010.220, 34834.00
1011.332, 37618.00
1012.444, 41022.00
1013.555, 44010.00
1014.666, 47382.00
1015.777, 50097.00
1016.888, 52564.00
1017.999, 54259.00
1019.110, 54803.00
1020.220, 54473.00
1021.331, 53700.00
1022.441, 52135.00
1023.551, 50365.00
1024.661, 48272.00
1025.770, 46733.00
1026.880, 44994.98
1027.989, 43268.00
1029.098, 42046.00
1030.207, 40987.00
1031.316, 40077.00
1032.425, 39360.00
1033.533, 38594.00
1034.642, 38299.00
1035.750, 38047.00
1036.858, 37348.00
1037.966, 36801.00
1039.073, 36368.00
1040.181, 35708.00
1041.288, 34855.00
1042.396, 33960.00
1043.503, 33062.00
1044.610, 32060.00
1045.716, 30669.00
1046.823, 29323.00
1047.929, 28455.00
1049.036, 27322.00
1050.142, 26336.00
1051.248, 25766.00
1052.353, 24898.00
1053.459, 24112.00
1054.564, 23486.00
1055.670, 22943.00
1056.775, 22387.00
1057.880, 22031.70
1058.985, 21676.00
1060.089, 21475.00
1061.194, 21314.00
1062.298, 21178.00
1063.402, 21078.00
1064.506, 20933.00
1065.610, 20624.00
1066.713, 20657.00
1067.817, 20311.00
1068.920, 20160.00
1070.023, 19974.00
1071.126, 19837.00
1072.229, 19614.00
1073.332, 19362.00
1074.435, 19276.00
1075.537, 19201.00
1076.639, 19199.00
1077.741, 18925.00
1078.843, 18758.00
1079.945, 18549.00
1081.046, 18559.00
1082.148, 18426.00
1083.249, 18214.00
1084.350, 18273.00
1085.451, 17753.00
1086.551, 17890.00
1087.652, 17696.00
1088.752, 17464.00
1089.853, 17297.00
1090.953, 17440.00
1092.053, 17204.00
1093.152, 17258.00
1094.252, 17082.00
1095.351, 17100.00
1096.451, 16911.00
1097.550, 16963.00
1098.649, 17152.00
1099.748, 17129.00
1100.846, 17151.00
1101.945, 17351.00
1103.043, 17513.00
1104.141, 17790.73
1105.239, 18038.00
1106.337, 18553.00
1107.434, 19029.00
1108.532, 19629.00
1109.629, 20460.00
1110.726, 21502.00
1111.823, 22099.00
1112.920, 23113.00
1114.017, 23928.00
1115.113, 24402.00
1116.210, 24503.00
1117.306, 24187.00
1118.402, 23395.00
1119.498, 22685.00
1120.593, 21889.00
1121.689, 21015.00
1122.784, 20386.00
1123.879, 19908.00
1124.974, 19638.00
1126.069, 19148.00
1127.164, 18659.00
1128.259, 18288.00
1129.353, 17959.42
1130.447, 17838.00
1131.541, 17475.00
1132.635, 17397.00
1133.729, 17265.00
1134.822, 17186.00
1135.916, 17089.00
1137.009, 17001.00
1138.102, 17133.00
1139.195, 17259.00
1140.288, 17447.00
1141.380, 17542.00
1142.473, 17924.00
1143.565, 18238.00
1144.657, 18651.00
1145.749, 18732.00
1146.841, 18890.00
1147.932, 18894.00
1149.024, 18579.00
1150.115, 18244.00
1151.206, 17973.00
1152.297, 17552.00
1153.388, 17167.00
1154.479, 16918.00
1155.569, 16838.00
1156.659, 16562.00
1157.750, 16305.00
1158.839, 16424.00
1159.929, 16184.00
1161.019, 16353.00
1162.108, 16147.00
1163.198, 16309.00
1164.287, 16283.00
1165.376, 16067.00
1166.465, 16262.00
1167.553, 16199.00
1168.642, 16266.00
1169.730, 16231.08
1170.818, 16017.00
1171.906, 16039.00
1172.994, 16014.00
1174.082, 15807.00
1175.170, 15771.00
1176.257, 15908.00
1177.344, 15789.00
1178.431, 15693.00
1179.518, 15731.00
1180.605, 15872.00
1181.691, 15699.00
1182.778, 15723.00
1183.864, 15618.00
1184.950, 15590.52
1186.036, 15684.00
1187.122, 15588.00
1188.207, 15606.00
1189.292, 15671.00
1190.378, 15713.00
1191.463, 15825.00
1192.548, 15783.00
1193.632, 15817.69
1194.717, 15662.00
1195.801, 15745.00
1196.886, 15660.00
1197.970, 15499.00
1199.054, 15752.00
1200.137, 15806.00
1201.221, 15707.00
1202.305, 15786.00
1203.388, 15776.00
1204.471, 15770.00
1205.554, 15722.00
1206.637, 15695.00
1207.719, 15611.00
1208.802, 15688.00
1209.884, 15736.00
1210.966, 15597.00
1212.048, 15807.00
1213.130, 15752.00
1214.212, 15624.00
1215.293, 15681.00
1216.374, 15751.00
1217.456, 15768.00
1218.536, 15816.00
1219.617, 15639.00
1220.698, 15857.00
1221.778, 15713.00
1222.859, 15822.00
1223.939, 15775.00
1225.019, 15710.00
1226.099, 15759.00
1227.178, 15815.00
1228.258, 15920.00
1229.337, 15936.78
1230.417, 15884.00
1231.496, 15960.00
1232.574, 15897.00
1233.653, 15812.00
1234.732, 15846.00
1235.810, 15767.00
1236.888, 15921.00
1237.966, 15926.00
1239.044, 15906.00
1240.122, 15719.00
1241.199, 15736.00
1242.277, 15814.00
1243.354, 15762.00
1244.431, 15945.00
1245.508, 15704.00
1246.585, 15830.00
1247.661, 16088.00
1248.738, 15805.00
1249.814, 15972.00
1250.890, 15843.00
1251.966, 15864.00
1253.042, 15976.00
1254.117, 15818.00
1255.193, 15785.00
1256.268, 15953.00
1257.343, 16179.00
1258.418, 15905.00
1259.493, 15925.00
1260.567, 15969.00
1261.642, 15967.00
1262.716, 15956.00
1263.790, 15911.00
1264.864, 16091.00
1265.938, 16077.00
1267.011, 16152.00
1268.085, 15919.00
1269.158, 16029.00
1270.231, 16040.00
1271.304, 16070.00
1272.377, 16119.00
1273.450, 16090.00
1274.522, 16132.00
1275.594, 16110.00
1276.666, 16057.00
1277.738, 16165.00
1278.810, 16095.00
1279.882, 16089.00
1280.953, 16096.00
1282.025, 16143.00
1283.096, 16032.00
1284.167, 16294.00
1285.238, 16156.00
1286.308, 16113.00
1287.379, 16014.00
1288.449, 16127.00
1289.519, 16032.00
1290.589, 16042.00
1291.659, 16305.00
1292.729, 16223.00
1293.798, 16136.00
1294.868, 16181.00
1295.937, 16469.00
1297.006, 16330.00
1298.075, 16291.00
1299.143, 16031.00
1300.212, 16309.00
1301.280, 16188.00
1302.348, 16301.00
1303.416, 16206.00
1304.484, 16267.00
1305.552, 16316.00
1306.620, 16261.00
1307.687, 16310.00
1308.754, 16307.00
1309.821, 16239.00
1310.888, 16300.00
1311.955, 16361.00
1313.021, 16452.00
1314.088, 16425.00
1315.154, 16476.59
1316.220, 16378.00
1317.286, 16495.00
1318.352, 16399.00
1319.417, 16383.00
1320.483, 16302.00
1321.548, 16300.00
1322.613, 16399.00
1323.678, 16426.00
1324.743, 16456.51
1325.807, 16434.00
1326.872, 16480.00
1327.936, 16433.00
1329.000, 16365.00
1330.064, 16257.00
1331.128, 16254.00
1332.191, 16270.00
1333.255, 16393.00
1334.318, 16257.00
1335.381, 16395.00
1336.444, 16368.00
1337.507, 16341.00
1338.569, 16323.00
1339.632, 16220.00
1340.694, 16266.18
1341.756, 16161.00
1342.818, 16293.00
1343.880, 16424.00
1344.941, 16393.00
1346.003, 16500.00
1347.064, 16351.00
1348.125, 16452.00
1349.186, 16289.00
1350.247, 16291.00
1351.308, 16307.00
1352.368, 16390.00
1353.428, 16440.00
1354.489, 16559.00
1355.549, 16398.00
1356.608, 16341.00
1357.668, 16449.00
1358.727, 16599.00
1359.787, 16225.00
1360.846, 16438.00
1361.905, 16284.00
1362.964, 16393.00
1364.022, 16497.00
1365.081, 16179.00
1366.139, 16305.00
1367.197, 16555.00
1368.255, 16469.00
1369.313, 16495.00
1370.371, 16522.00
1371.428, 16620.00
1372.486, 16387.00
1373.543, 16455.00
1374.600, 16556.00
1375.657, 16383.00
1376.713, 16527.00
1377.770, 16680.00
1378.826, 16546.00
1379.882, 16628.00
1380.938, 16427.00
1381.994, 16386.00
1383.050, 16519.00
1384.106, 16556.00
1385.161, 16667.00
1386.216, 16457.00
1387.271, 16564.00
1388.326, 16619.00
1389.381, 16381.00
1390.435, 16392.00
1391.490, 16369.00
1392.544, 16577.00
1393.598, 16585.00
1394.652, 16614.00
1395.705, 16582.00
1396.759, 16617.00
1397.812, 16533.00
1398.866, 16565.00
1399.919, 16605.00
1400.972, 16494.00
1402.024, 16432.00
1403.077, 16612.00
1404.129, 16496.00
1405.181, 16624.00
1406.233, 16451.00
1407.285, 16592.00
1408.337, 16601.00
1409.389, 16719.00
1410.440, 16674.00
1411.491, 16684.00
1412.542, 16617.00
1413.593, 16524.00
1414.644, 16587.00
1415.695, 16666.00
1416.745, 16624.00
1417.795, 16570.00
1418.845, 16678.00
1419.895, 16588.00
1420.945, 16688.00
1421.995, 16651.00
1423.044, 16867.00
1424.093, 16713.00
1425.142, 16795.00
1426.191, 16548.00
1427.240, 16556.00
1428.289, 16671.00
1429.337, 16760.00
1430.385, 16781.54
1431.433, 16747.00
1432.481, 16832.00
1433.529, 16819.00
1434.577, 16795.00
1435.624, 16849.00
1436.672, 16996.00
1437.719, 17075.00
1438.766, 17045.00
1439.812, 17053.00
1440.859, 17148.00
1441.905, 17119.00
1442.952, 17206.00
1443.998, 17193.00
1445.044, 17282.00
1446.090, 17323.00
1447.135, 17357.00
1448.181, 17333.99
1449.226, 17358.86
1450.271, 17355.53
1451.316, 17353.00
1452.361, 17362.00
1453.405, 17346.00
1454.450, 17371.00
1455.494, 17314.00
1456.538, 17366.00
1457.582, 17258.00
1458.626, 17155.00
1459.670, 17267.00
1460.713, 17209.00
1461.757, 17135.00
1462.800, 17251.00
1463.843, 17227.00
1464.886, 17131.00
1465.928, 17186.00
1466.971, 17106.00
1468.013, 17090.00
1469.055, 17209.00
1470.097, 17256.00
1471.139, 17211.53
1472.181, 17153.00
1473.222, 17080.00
1474.263, 17128.00
1475.305, 16989.00
1476.346, 17183.00
1477.386, 17237.00
1478.427, 17076.00
1479.468, 17069.00
1480.508, 17090.00
1481.548, 17236.00
1482.588, 17117.00
1483.628, 17220.00
1484.668, 17100.00
1485.707, 17119.00
1486.747, 17169.00
1487.786, 17076.00
1488.825, 17151.00
1489.864, 17051.00
1490.902, 17098.00
1491.941, 17055.00
1492.979, 17080.00
1494.017, 17196.00
1495.055, 17083.00
1496.093, 17130.00
1497.131, 16975.00
1498.168, 17153.00
1499.206, 17022.00
1500.243, 17061.00
1501.280, 17142.00
1502.317, 17181.00
1503.354, 17120.00
1504.390, 17181.00
1505.426, 17193.00
1506.463, 17227.00
1507.499, 17243.22
1508.535, 17226.00
1509.570, 17236.00
1510.606, 17159.00
1511.641, 17096.00
1512.676, 17189.00
1513.711, 17278.00
1514.746, 17421.00
1515.781, 17291.00
1516.816, 17180.00
1517.850, 17303.00
1518.884, 17140.00
1519.918, 17295.00
1520.952, 17070.00
1521.986, 17229.00
1523.019, 17332.00
1524.053, 17181.00
1525.086, 17317.00
1526.119, 17306.00
1527.152, 17326.00
1528.185, 17332.00
1529.217, 17393.00
1530.250, 17576.00
1531.282, 17506.00
1532.314, 17403.00
1533.346, 17247.00
1534.377, 17429.00
1535.409, 17418.00
1536.440, 17436.00
1537.472, 17478.00
1538.503, 17458.00
1539.534, 17472.00
1540.564, 17437.00
1541.595, 17478.00
1542.625, 17475.93
1543.656, 17486.00
1544.686, 17462.00
1545.716, 17539.00
1546.745, 17448.00
1547.775, 17493.00
1548.804, 17498.00
1549.834, 17399.00
1550.863, 17535.00
1551.892, 17741.00
1552.920, 17590.00
1553.949, 17615.00
1554.977, 17725.00
1556.006, 17678.00
1557.034, 17652.00
1558.062, 17685.50
1559.089, 17561.00
1560.117, 17660.00
1561.144, 17584.00
1562.172, 17514.00
1563.199, 17501.00
1564.226, 17511.62
1565.252, 17648.00
1566.279, 17588.00
1567.305, 17719.00
1568.332, 17740.00
1569.358, 17663.00
1570.384, 17968.00
##END=



