##NAMES=Brazilianite
##RRUFFID=R050319
##IDEAL CHEMISTRY=NaAl_3_(PO_4_)_2_(OH)_4_
##LOCALITY=Minas Gerais, Brazil
##OWNER=RRUFF
##SOURCE=American Museum of Natural History
##DESCRIPTION=Pale green fragment
##STATUS=The identification of this mineral has been confirmed by X-ray diffraction and chemical analysis
##URL=rruff.info/R050319
##MEASURED CHEMISTRY=Na_1.00_Al_3.00_(PO_4_)_2_(OH)_4_
##PIN_ID=M00315
##ORIENTATION=Laser parallel to c* (0 0 1). Fiducial mark perpendicular to laser is parallel to a [1 0 0]
82.36700, 7468.000
83.60200, 8135.000
84.83700, 8948.000
86.07200, 9572.000
87.30800, 10010.00
88.54200, 10438.00
89.77700, 10310.00
91.01200, 9928.000
92.24600, 9566.000
93.48000, 9333.000
94.71400, 9706.000
95.94800, 10341.00
97.18200, 10605.00
98.41600, 10960.00
99.64900, 11296.00
100.8830, 12135.00
102.1160, 13238.00
103.3490, 14301.00
104.5820, 14836.00
105.8150, 14097.00
107.0470, 12838.00
108.2800, 11994.00
109.5120, 11746.00
110.7440, 11346.00
111.9760, 11169.00
113.2080, 11281.00
114.4400, 11506.00
115.6710, 11434.00
116.9030, 10650.00
118.1340, 9865.000
119.3650, 9271.000
120.5960, 8953.000
121.8270, 8881.000
123.0580, 8770.000
124.2880, 8944.000
125.5190, 8896.000
126.7490, 8871.000
127.9790, 8993.000
129.2090, 9032.000
130.4390, 9069.000
131.6680, 9048.000
132.8980, 9048.000
134.1270, 9257.000
135.3560, 9431.000
136.5850, 9605.000
137.8140, 10047.00
139.0430, 10245.00
140.2710, 10714.00
141.5000, 11014.00
142.7280, 11205.00
143.9560, 11645.00
145.1840, 11974.00
146.4120, 12104.00
147.6390, 12145.00
148.8670, 11851.00
150.0940, 11587.00
151.3210, 11310.00
152.5490, 11207.00
153.7750, 11133.00
155.0020, 11370.00
156.2290, 11707.00
157.4550, 12047.00
158.6810, 12367.00
159.9080, 12715.00
161.1340, 13125.00
162.3590, 13824.00
163.5850, 14374.00
164.8110, 14870.00
166.0360, 14824.00
167.2610, 14335.00
168.4860, 14339.00
169.7110, 14388.00
170.9360, 14733.00
172.1610, 14890.00
173.3850, 14618.00
174.6100, 13798.00
175.8340, 12948.00
177.0580, 12380.00
178.2820, 11909.00
179.5050, 11719.00
180.7290, 11574.00
181.9520, 11408.00
183.1760, 11473.00
184.3990, 11345.00
185.6220, 11327.00
186.8450, 11394.00
188.0670, 11399.00
189.2900, 11591.00
190.5120, 11700.00
191.7340, 11649.00
192.9560, 11814.00
194.1780, 11885.00
195.4000, 11779.00
196.6220, 11967.00
197.8430, 11851.00
199.0640, 11839.00
200.2860, 11830.00
201.5070, 11756.00
202.7270, 11699.00
203.9480, 11637.00
205.1690, 11696.00
206.3890, 11688.00
207.6090, 11911.00
208.8290, 11958.00
210.0490, 12137.00
211.2690, 12552.00
212.4890, 12827.00
213.7080, 13017.00
214.9280, 13266.00
216.1470, 13613.00
217.3660, 13880.00
218.5850, 13911.00
219.8030, 13924.00
221.0220, 13643.00
222.2400, 13339.00
223.4590, 13096.00
224.6770, 12911.00
225.8950, 12861.00
227.1120, 12946.00
228.3300, 13030.00
229.5480, 13005.00
230.7650, 13088.00
231.9820, 13081.00
233.1990, 13336.00
234.4160, 13386.00
235.6330, 13623.00
236.8490, 13783.00
238.0660, 14080.00
239.2820, 14234.00
240.4980, 14358.00
241.7140, 14443.00
242.9300, 14484.00
244.1460, 14588.00
245.3610, 14697.00
246.5770, 14693.00
247.7920, 14716.00
249.0070, 15116.00
250.2220, 15904.00
251.4370, 16810.00
252.6510, 17121.00
253.8660, 16762.00
255.0800, 15166.00
256.2940, 14201.00
257.5080, 13190.00
258.7220, 12978.00
259.9360, 13061.00
261.1490, 13027.00
262.3630, 12732.00
263.5760, 12839.00
264.7890, 12824.00
266.0020, 12998.00
267.2150, 13204.00
268.4270, 13341.00
269.6400, 13393.00
270.8520, 13598.00
272.0640, 13574.00
273.2760, 13922.00
274.4880, 13991.00
275.7000, 13998.00
276.9120, 14032.00
278.1230, 13775.00
279.3340, 13221.00
280.5450, 13096.00
281.7560, 13106.00
282.9670, 13050.00
284.1780, 13210.00
285.3880, 13333.00
286.5980, 13528.00
287.8090, 13715.00
289.0190, 13882.57
290.2290, 14071.00
291.4380, 14317.00
292.6480, 14638.00
293.8570, 15004.00
295.0670, 14885.00
296.2760, 14727.00
297.4850, 14517.00
298.6930, 14179.00
299.9020, 13815.00
301.1110, 13698.00
302.3190, 13684.00
303.5270, 13768.00
304.7350, 13902.00
305.9430, 14160.00
307.1510, 14491.00
308.3580, 14820.00
309.5660, 15263.00
310.7730, 15638.00
311.9800, 16292.00
313.1870, 16540.00
314.3940, 16442.00
315.6010, 16165.00
316.8070, 15549.00
318.0130, 15024.00
319.2200, 14724.00
320.4260, 14375.00
321.6310, 14035.69
322.8370, 13985.00
324.0430, 13531.00
325.2480, 13376.00
326.4540, 13285.00
327.6590, 12888.00
328.8640, 12953.00
330.0680, 12897.00
331.2730, 12856.00
332.4780, 12876.00
333.6820, 12728.00
334.8860, 12879.00
336.0900, 12721.00
337.2940, 12878.00
338.4980, 12760.00
339.7010, 12749.00
340.9050, 12747.00
342.1080, 12804.00
343.3110, 12815.00
344.5140, 12901.14
345.7170, 13072.00
346.9200, 13113.00
348.1220, 13341.00
349.3240, 13516.00
350.5270, 13787.00
351.7290, 14076.00
352.9310, 14377.00
354.1320, 14756.00
355.3340, 15018.00
356.5350, 15252.00
357.7370, 15435.00
358.9380, 15225.00
360.1390, 15136.00
361.3400, 14781.00
362.5400, 14556.00
363.7410, 14343.00
364.9410, 14120.00
366.1410, 14147.00
367.3410, 14210.00
368.5410, 14100.00
369.7410, 14235.00
370.9400, 14128.00
372.1400, 14120.00
373.3390, 14184.00
374.5380, 14249.00
375.7370, 14233.00
376.9360, 14230.00
378.1350, 14155.00
379.3330, 14043.00
380.5310, 13867.00
381.7300, 13696.00
382.9280, 13857.00
384.1260, 13815.00
385.3230, 13800.00
386.5210, 13878.00
387.7180, 13936.00
388.9160, 13992.00
390.1130, 14256.00
391.3100, 14360.00
392.5060, 14365.00
393.7030, 14496.00
394.9000, 14851.00
396.0960, 14919.00
397.2920, 15325.00
398.4880, 15383.00
399.6840, 15674.00
400.8800, 15845.00
402.0750, 16182.00
403.2710, 16501.00
404.4660, 16690.00
405.6610, 16728.00
406.8560, 16943.00
408.0510, 17032.00
409.2450, 17151.00
410.4400, 17222.00
411.6340, 17056.00
412.8280, 16996.00
414.0220, 16817.00
415.2160, 16641.00
416.4100, 16272.00
417.6030, 16016.00
418.7970, 15880.00
419.9900, 15636.00
421.1830, 15506.00
422.3760, 15589.00
423.5690, 15547.00
424.7610, 15622.00
425.9540, 15833.00
427.1460, 16054.00
428.3380, 16485.00
429.5300, 16991.00
430.7220, 17808.00
431.9140, 18468.00
433.1050, 19373.00
434.2970, 20296.00
435.4880, 21216.00
436.6790, 22068.00
437.8700, 22855.00
439.0610, 22841.38
440.2510, 23090.00
441.4420, 22261.00
442.6320, 21681.00
443.8220, 20841.00
445.0120, 20033.00
446.2020, 19547.00
447.3910, 19181.00
448.5810, 19077.00
449.7700, 19273.00
450.9600, 19443.00
452.1490, 19809.00
453.3370, 20288.00
454.5260, 20544.00
455.7150, 20830.00
456.9030, 21253.00
458.0910, 21418.00
459.2800, 22021.00
460.4670, 22330.00
461.6550, 22700.00
462.8430, 23075.00
464.0300, 23488.00
465.2180, 23531.00
466.4050, 23529.00
467.5920, 23058.00
468.7790, 22395.00
469.9650, 21819.00
471.1520, 21096.00
472.3380, 20651.00
473.5250, 20227.00
474.7110, 20218.00
475.8970, 20156.00
477.0820, 20240.00
478.2680, 20458.00
479.4540, 21018.00
480.6390, 21246.00
481.8240, 21793.00
483.0090, 22348.00
484.1940, 22629.00
485.3780, 22974.00
486.5630, 23096.00
487.7470, 23375.00
488.9320, 23298.00
490.1160, 23472.00
491.3000, 23691.00
492.4830, 24075.00
493.6670, 24633.00
494.8500, 25169.00
496.0340, 25746.00
497.2170, 26589.00
498.4000, 27300.00
499.5820, 27717.00
500.7650, 28149.00
501.9480, 28456.00
503.1300, 28765.00
504.3120, 29025.00
505.4940, 29214.00
506.6760, 29330.08
507.8580, 29351.00
509.0390, 29328.00
510.2210, 29137.00
511.4020, 28874.00
512.5830, 28706.82
513.7640, 28478.08
514.9450, 28204.00
516.1250, 28030.00
517.3060, 27765.00
518.4860, 27489.00
519.6660, 27608.00
520.8460, 27693.00
522.0260, 27900.00
523.2060, 28400.00
524.3850, 28576.00
525.5650, 29353.00
526.7440, 29924.00
527.9230, 30588.00
529.1020, 30921.00
530.2810, 31460.00
531.4590, 31637.00
532.6380, 31785.00
533.8160, 31251.00
534.9940, 30984.00
536.1720, 30659.00
537.3500, 29769.00
538.5270, 29084.00
539.7050, 28786.00
540.8820, 27973.00
542.0590, 27472.00
543.2360, 27284.00
544.4130, 27113.00
545.5900, 27096.00
546.7660, 27567.00
547.9430, 28043.00
549.1190, 29073.00
550.2950, 29810.00
551.4710, 30927.00
552.6470, 32152.00
553.8220, 33208.00
554.9980, 34549.00
556.1730, 35571.00
557.3480, 36670.00
558.5230, 36950.00
559.6980, 37184.00
560.8730, 37122.00
562.0470, 37002.64
563.2220, 36477.00
564.3960, 36260.00
565.5700, 35712.00
566.7440, 34966.00
567.9170, 33737.00
569.0910, 32434.00
570.2640, 31010.00
571.4380, 29865.00
572.6110, 28753.26
573.7840, 27402.00
574.9570, 26930.00
576.1290, 26233.00
577.3020, 25766.00
578.4740, 25647.00
579.6460, 25213.00
580.8180, 25095.00
581.9900, 25025.00
583.1620, 24836.00
584.3330, 24898.00
585.5040, 25054.00
586.6760, 25505.00
587.8470, 25542.00
589.0180, 26353.10
590.1880, 27036.00
591.3590, 28195.00
592.5290, 29173.00
593.7000, 30619.00
594.8700, 31884.00
596.0400, 33077.00
597.2090, 33890.00
598.3790, 34431.00
599.5490, 34641.00
600.7180, 33860.00
601.8870, 32834.00
603.0560, 31040.00
604.2250, 29542.00
605.3940, 28262.00
606.5620, 27359.00
607.7300, 26689.00
608.8990, 26083.00
610.0670, 25781.00
611.2350, 25944.00
612.4020, 25548.00
613.5700, 25367.00
614.7370, 25294.00
615.9050, 24700.00
617.0720, 24428.00
618.2390, 23981.00
619.4060, 23533.00
620.5720, 23006.00
621.7390, 22594.00
622.9050, 22317.00
624.0710, 22270.00
625.2370, 22230.00
626.4030, 22393.00
627.5690, 22455.00
628.7340, 22461.00
629.9000, 22523.00
631.0650, 22816.00
632.2300, 22787.00
633.3950, 22796.00
634.5600, 22556.00
635.7240, 22352.00
636.8890, 22019.00
638.0530, 21651.00
639.2170, 20794.00
640.3810, 20613.00
641.5450, 20209.00
642.7080, 20308.00
643.8720, 19859.00
645.0350, 19972.00
646.1980, 19717.00
647.3610, 19858.00
648.5240, 19823.00
649.6870, 19837.00
650.8490, 20047.00
652.0120, 20051.00
653.1740, 20401.00
654.3360, 20448.00
655.4980, 20634.00
656.6600, 20710.00
657.8210, 20686.00
658.9830, 20831.00
660.1440, 20617.00
661.3050, 20605.00
662.4660, 20354.00
663.6270, 20021.00
664.7870, 19972.00
665.9480, 19572.00
667.1080, 19256.00
668.2680, 19040.00
669.4280, 19022.00
670.5880, 18787.00
671.7480, 18530.00
672.9070, 18413.00
674.0670, 18233.00
675.2260, 18128.55
676.3850, 18060.00
677.5440, 17971.00
678.7030, 18052.00
679.8610, 17989.84
681.0200, 17717.00
682.1780, 17851.00
683.3360, 17542.00
684.4940, 17444.00
685.6520, 17385.00
686.8090, 17462.00
687.9670, 17524.00
689.1240, 17533.00
690.2810, 17501.92
691.4380, 17407.00
692.5950, 17400.00
693.7520, 17395.00
694.9080, 17420.00
696.0650, 17410.00
697.2210, 17506.00
698.3770, 17520.00
699.5330, 17474.00
700.6880, 17559.00
701.8440, 17661.00
702.9990, 17570.00
704.1550, 17536.00
705.3100, 17607.00
706.4650, 17747.00
707.6190, 17694.00
708.7740, 17782.00
709.9290, 17774.00
711.0830, 17851.00
712.2370, 17950.00
713.3910, 17955.56
714.5450, 18039.00
715.6980, 18078.00
716.8520, 18134.00
718.0050, 18318.00
719.1580, 18380.00
720.3110, 18524.00
721.4640, 18405.00
722.6170, 18229.00
723.7700, 18353.00
724.9220, 18262.89
726.0740, 18357.00
727.2260, 18333.00
728.3780, 18258.00
729.5300, 18381.00
730.6810, 18256.00
731.8330, 18279.00
732.9840, 18355.00
734.1350, 18443.00
735.2860, 18304.00
736.4370, 18228.00
737.5880, 18351.00
738.7380, 18340.00
739.8880, 18244.00
741.0390, 18392.00
742.1890, 18357.00
743.3380, 18347.00
744.4880, 18340.00
745.6380, 18284.00
746.7870, 18469.00
747.9360, 18571.00
749.0850, 18436.00
750.2340, 18631.00
751.3830, 18661.00
752.5310, 18537.00
753.6800, 18682.00
754.8280, 18693.00
755.9760, 18593.00
757.1240, 18771.00
758.2720, 18846.00
759.4190, 19011.00
760.5670, 19135.00
761.7140, 19013.00
762.8610, 19204.00
764.0080, 19285.00
765.1550, 19058.00
766.3020, 19154.00
767.4480, 19137.00
768.5950, 19250.00
769.7410, 19258.73
770.8870, 19239.00
772.0330, 19299.00
773.1780, 19223.00
774.3240, 19225.00
775.4690, 19348.00
776.6140, 19241.00
777.7590, 19334.00
778.9040, 19336.00
780.0490, 19356.00
781.1940, 19231.00
782.3380, 19254.00
783.4820, 19280.00
784.6260, 19441.00
785.7700, 19388.00
786.9140, 19341.00
788.0580, 19697.00
789.2010, 19705.00
790.3450, 19759.00
791.4880, 19892.00
792.6310, 20070.00
793.7730, 19926.00
794.9160, 20326.00
796.0590, 20096.00
797.2010, 20232.00
798.3430, 20290.00
799.4850, 20335.00
800.6270, 20205.00
801.7690, 20219.00
802.9100, 20261.00
804.0520, 20229.00
805.1930, 20204.00
806.3340, 20100.00
807.4750, 20098.10
808.6160, 20106.00
809.7560, 20001.00
810.8970, 19865.00
812.0370, 19710.00
813.1770, 19786.00
814.3170, 19783.00
815.4570, 19684.00
816.5960, 19533.00
817.7360, 19513.00
818.8750, 19426.00
820.0140, 19319.00
821.1530, 19499.00
822.2920, 19277.00
823.4310, 19340.00
824.5690, 19361.00
825.7070, 19247.00
826.8460, 19188.00
827.9840, 19196.00
829.1220, 19268.00
830.2590, 19188.00
831.3970, 19218.00
832.5340, 19226.00
833.6710, 19191.00
834.8080, 19130.00
835.9450, 19156.00
837.0820, 19039.00
838.2190, 18962.00
839.3550, 19200.00
840.4910, 19049.00
841.6270, 18967.00
842.7630, 19135.00
843.8990, 19165.00
845.0350, 18891.00
846.1700, 18979.00
847.3060, 19029.00
848.4410, 19014.00
849.5760, 19029.00
850.7100, 18953.00
851.8450, 19029.00
852.9800, 19104.00
854.1140, 19088.00
855.2480, 19031.00
856.3820, 19170.00
857.5160, 19106.00
858.6500, 19084.00
859.7830, 19106.00
860.9170, 18976.00
862.0500, 19306.00
863.1830, 19155.56
864.3160, 19216.88
865.4480, 19092.00
866.5810, 19208.00
867.7130, 19196.00
868.8460, 19159.00
869.9780, 19164.00
871.1100, 19199.00
872.2410, 19220.00
873.3730, 19225.69
874.5050, 19237.00
875.6360, 19269.00
876.7670, 19261.00
877.8980, 19345.00
879.0290, 19433.00
880.1590, 19450.00
881.2900, 19491.00
882.4200, 19354.00
883.5500, 19248.00
884.6800, 19456.00
885.8100, 19230.00
886.9400, 19490.00
888.0690, 19489.00
889.1990, 19489.00
890.3280, 19343.00
891.4570, 19651.00
892.5860, 19389.00
893.7140, 19519.00
894.8430, 19679.00
895.9710, 19692.00
897.1000, 19452.00
898.2280, 19800.00
899.3560, 19932.00
900.4830, 19528.00
901.6110, 19623.00
902.7380, 19749.00
903.8660, 19910.00
904.9930, 19921.89
906.1200, 19909.06
907.2460, 19965.78
908.3730, 20033.00
909.5000, 20064.00
910.6260, 20155.00
911.7520, 19997.00
912.8780, 20114.00
914.0040, 20141.00
915.1290, 20213.00
916.2550, 20261.27
917.3800, 20261.00
918.5050, 20327.00
919.6300, 20335.00
920.7550, 20345.00
921.8800, 20414.00
923.0040, 20420.00
924.1290, 20332.00
925.2530, 20527.00
926.3770, 20649.00
927.5010, 20520.00
928.6250, 20784.00
929.7480, 20689.00
930.8720, 20800.00
931.9950, 21040.00
933.1180, 21015.00
934.2410, 21168.00
935.3640, 21277.00
936.4860, 21508.00
937.6090, 21740.00
938.7310, 21890.00
939.8530, 21959.00
940.9750, 22233.00
942.0970, 22215.00
943.2180, 22370.00
944.3400, 22598.00
945.4610, 22825.00
946.5820, 23101.00
947.7030, 23068.00
948.8240, 23251.00
949.9450, 23482.00
951.0650, 23638.00
952.1860, 23986.00
953.3060, 24089.00
954.4260, 24272.00
955.5460, 24486.00
956.6650, 24823.11
957.7850, 25366.00
958.9040, 25674.00
960.0230, 26379.00
961.1420, 26962.00
962.2610, 27615.00
963.3800, 28541.00
964.4990, 29300.00
965.6170, 30356.00
966.7350, 31596.00
967.8530, 32905.00
968.9710, 34135.00
970.0890, 35470.00
971.2070, 36483.00
972.3240, 37046.00
973.4410, 37924.00
974.5580, 38429.00
975.6750, 39307.00
976.7920, 38742.00
977.9090, 39170.00
979.0250, 39587.00
980.1410, 40491.00
981.2580, 41692.00
982.3740, 42990.00
983.4890, 44777.00
984.6050, 46458.00
985.7200, 47617.00
986.8360, 48398.00
987.9510, 48021.00
989.0660, 47521.00
990.1810, 45831.00
991.2950, 43673.00
992.4100, 41437.00
993.5240, 39443.00
994.6390, 37486.00
995.7530, 36211.00
996.8660, 35125.00
997.9800, 34475.00
999.0940, 33931.00
1000.207, 33461.00
1001.320, 33497.00
1002.433, 33476.00
1003.546, 33670.00
1004.659, 34162.00
1005.772, 34778.00
1006.884, 35781.00
1007.996, 37016.11
1009.108, 38453.00
1010.220, 40257.00
1011.332, 42375.00
1012.444, 44572.00
1013.555, 46985.00
1014.666, 49666.00
1015.777, 51978.00
1016.888, 53945.00
1017.999, 55201.00
1019.110, 55084.00
1020.220, 55451.00
1021.331, 54231.00
1022.441, 53058.00
1023.551, 51590.00
1024.661, 49884.00
1025.770, 48417.00
1026.880, 46807.00
1027.989, 45760.00
1029.098, 44836.00
1030.207, 44153.00
1031.316, 43325.00
1032.425, 42786.00
1033.533, 42221.00
1034.642, 42086.00
1035.750, 41292.00
1036.858, 41590.00
1037.966, 40915.00
1039.073, 40956.00
1040.181, 40410.00
1041.288, 40008.00
1042.396, 39474.00
1043.503, 38669.00
1044.610, 37994.00
1045.716, 37222.00
1046.823, 36599.00
1047.929, 35775.00
1049.036, 35022.00
1050.142, 34512.00
1051.248, 33850.00
1052.353, 33587.00
1053.459, 32855.00
1054.564, 32399.00
1055.670, 32092.00
1056.775, 31962.00
1057.880, 31642.00
1058.985, 31613.00
1060.089, 31346.00
1061.194, 31142.00
1062.298, 30978.00
1063.402, 30845.96
1064.506, 30962.00
1065.610, 30731.00
1066.713, 30662.00
1067.817, 30733.00
1068.920, 30411.00
1070.023, 30684.00
1071.126, 30377.00
1072.229, 30591.00
1073.332, 30398.00
1074.435, 30161.00
1075.537, 30360.00
1076.639, 30222.00
1077.741, 30144.00
1078.843, 30163.00
1079.945, 29771.00
1081.046, 29561.00
1082.148, 29148.00
1083.249, 29106.00
1084.350, 28685.00
1085.451, 28358.00
1086.551, 27838.00
1087.652, 27743.00
1088.752, 27461.00
1089.853, 27175.00
1090.953, 26973.71
1092.053, 26575.00
1093.152, 26517.00
1094.252, 26188.00
1095.351, 26067.00
1096.451, 25814.00
1097.550, 25829.00
1098.649, 25985.00
1099.748, 25780.00
1100.846, 25967.00
1101.945, 25932.00
1103.043, 26208.00
1104.141, 26335.00
1105.239, 26572.00
1106.337, 27203.00
1107.434, 27728.00
1108.532, 28218.00
1109.629, 29097.00
1110.726, 30132.00
1111.823, 31222.00
1112.920, 32507.00
1114.017, 33887.00
1115.113, 35327.00
1116.210, 35335.00
1117.306, 35284.00
1118.402, 34830.00
1119.498, 33948.00
1120.593, 33213.00
1121.689, 32691.00
1122.784, 32044.00
1123.879, 31603.00
1124.974, 30972.00
1126.069, 30896.00
1127.164, 30301.00
1128.259, 29867.00
1129.353, 29550.00
1130.447, 29124.00
1131.541, 28915.67
1132.635, 28659.00
1133.729, 28546.00
1134.822, 28249.00
1135.916, 28103.00
1137.009, 28139.00
1138.102, 28308.00
1139.195, 28330.00
1140.288, 28945.00
1141.380, 29510.00
1142.473, 30273.00
1143.565, 31345.00
1144.657, 32079.00
1145.749, 32720.00
1146.841, 33378.00
1147.932, 33253.00
1149.024, 33019.00
1150.115, 31918.00
1151.206, 30918.00
1152.297, 29499.00
1153.388, 28463.00
1154.479, 27896.00
1155.569, 27090.00
1156.659, 26721.00
1157.750, 25936.00
1158.839, 25822.00
1159.929, 25555.00
1161.019, 25382.00
1162.108, 25419.00
1163.198, 25270.00
1164.287, 25187.08
1165.376, 25091.00
1166.465, 25005.00
1167.553, 24871.00
1168.642, 24802.00
1169.730, 24755.83
1170.818, 24869.00
1171.906, 24734.00
1172.994, 24518.00
1174.082, 24560.00
1175.170, 24321.00
1176.257, 24382.00
1177.344, 24171.00
1178.431, 24183.00
1179.518, 24184.00
1180.605, 24012.00
1181.691, 24072.00
1182.778, 24019.00
1183.864, 23912.00
1184.950, 23844.00
1186.036, 23961.00
1187.122, 23865.00
1188.207, 23919.00
1189.292, 23907.00
1190.378, 23846.00
1191.463, 23876.00
1192.548, 23856.43
1193.632, 23743.00
1194.717, 23822.00
1195.801, 23919.00
1196.886, 23823.00
1197.970, 23853.00
1199.054, 23860.40
1200.137, 23852.68
1201.221, 23900.00
1202.305, 23907.00
1203.388, 24000.00
1204.471, 24059.00
1205.554, 23875.00
1206.637, 23964.00
1207.719, 23947.00
1208.802, 24039.00
1209.884, 23756.00
1210.966, 23915.00
1212.048, 24004.00
1213.130, 24032.00
1214.212, 24177.00
1215.293, 23906.00
1216.374, 24038.00
1217.456, 23938.00
1218.536, 23972.00
1219.617, 23907.00
1220.698, 23850.00
1221.778, 24098.00
1222.859, 23931.00
1223.939, 23966.00
1225.019, 24082.83
1226.099, 24000.79
1227.178, 24215.00
1228.258, 24053.00
1229.337, 23999.00
1230.417, 24129.00
1231.496, 23934.00
1232.574, 24285.00
1233.653, 23851.00
1234.732, 23900.00
1235.810, 24078.00
1236.888, 24090.00
1237.966, 24228.00
1239.044, 24277.10
1240.122, 24201.00
1241.199, 24377.00
1242.277, 24248.00
1243.354, 24304.00
1244.431, 24173.00
1245.508, 24056.00
1246.585, 24240.00
1247.661, 23999.00
1248.738, 24392.00
1249.814, 24105.00
1250.890, 24276.00
1251.966, 24325.00
1253.042, 24088.00
1254.117, 24523.00
1255.193, 24285.00
1256.268, 24326.00
1257.343, 24314.00
1258.418, 24549.00
1259.493, 24298.00
1260.567, 24492.00
1261.642, 24533.00
1262.716, 24435.00
1263.790, 24324.00
1264.864, 24483.00
1265.938, 24484.00
1267.011, 24677.00
1268.085, 24416.00
1269.158, 24499.00
1270.231, 24430.00
1271.304, 24673.00
1272.377, 24513.00
1273.450, 24562.00
1274.522, 24482.00
1275.594, 24479.00
1276.666, 24816.00
1277.738, 24639.00
1278.810, 24463.00
1279.882, 24769.00
1280.953, 24457.00
1282.025, 24636.00
1283.096, 24784.00
1284.167, 24959.00
1285.238, 24694.00
1286.308, 24928.00
1287.379, 24707.00
1288.449, 24635.00
1289.519, 24746.00
1290.589, 24886.00
1291.659, 24712.00
1292.729, 24901.00
1293.798, 24982.00
1294.868, 24818.00
1295.937, 24844.00
1297.006, 24923.00
1298.075, 24820.00
1299.143, 24915.00
1300.212, 24741.00
1301.280, 24960.00
1302.348, 25102.00
1303.416, 25061.00
1304.484, 25073.00
1305.552, 25167.00
1306.620, 24947.00
1307.687, 25196.00
1308.754, 24994.00
1309.821, 25292.00
1310.888, 25043.00
1311.955, 25205.00
1313.021, 25233.00
1314.088, 25088.00
1315.154, 25099.00
1316.220, 25214.00
1317.286, 25017.00
1318.352, 25134.00
1319.417, 25229.00
1320.483, 25248.00
1321.548, 25255.00
1322.613, 25178.00
1323.678, 25390.00
1324.743, 25529.00
1325.807, 25442.00
1326.872, 25360.00
1327.936, 25401.00
1329.000, 25399.00
1330.064, 25213.00
1331.128, 25318.60
1332.191, 25260.05
1333.255, 25402.00
1334.318, 25313.00
1335.381, 25365.00
1336.444, 25491.00
1337.507, 25523.00
1338.569, 25331.00
1339.632, 25398.00
1340.694, 25317.00
1341.756, 25533.00
1342.818, 25507.00
1343.880, 25423.00
1344.941, 25566.00
1346.003, 25494.00
1347.064, 25524.00
1348.125, 25414.00
1349.186, 25537.00
1350.247, 25567.00
1351.308, 25319.00
1352.368, 25579.00
1353.428, 25681.00
1354.489, 25622.00
1355.549, 25789.91
1356.608, 25692.00
1357.668, 25821.00
1358.727, 25838.00
1359.787, 25642.00
1360.846, 25667.00
1361.905, 25768.00
1362.964, 25744.00
1364.022, 25835.00
1365.081, 25884.00
1366.139, 25907.70
1367.197, 25883.00
1368.255, 26001.00
1369.313, 25757.00
1370.371, 25817.00
1371.428, 26071.00
1372.486, 25887.00
1373.543, 25854.00
1374.600, 25972.00
1375.657, 25732.00
1376.713, 25830.00
1377.770, 25851.00
1378.826, 25798.00
1379.882, 25932.00
1380.938, 25984.00
1381.994, 25936.00
1383.050, 25991.00
1384.106, 25989.86
1385.161, 25994.00
1386.216, 26018.00
1387.271, 25929.00
1388.326, 25954.00
1389.381, 25791.00
1390.435, 25779.00
1391.490, 25925.00
1392.544, 26033.00
1393.598, 25984.00
1394.652, 26207.00
1395.705, 26306.00
1396.759, 26140.00
1397.812, 26091.00
1398.866, 25894.00
1399.919, 26000.00
1400.972, 26122.00
1402.024, 26157.00
1403.077, 26162.00
1404.129, 26257.29
1405.181, 26116.00
1406.233, 26380.00
1407.285, 26288.00
1408.337, 26330.00
1409.389, 26234.00
1410.440, 26206.13
1411.491, 26265.00
1412.542, 26162.00
1413.593, 26225.00
1414.644, 26302.00
1415.695, 26320.00
1416.745, 26411.00
1417.795, 26346.00
1418.845, 26249.00
1419.895, 26408.00
1420.945, 26404.00
1421.995, 26323.00
1423.044, 26577.00
1424.093, 26514.00
1425.142, 26466.00
1426.191, 26520.00
1427.240, 26441.00
1428.289, 26419.00
1429.337, 26469.94
1430.385, 26415.00
1431.433, 26545.00
1432.481, 26516.00
1433.529, 26519.00
1434.577, 26491.00
1435.624, 26478.84
1436.672, 26571.00
1437.719, 26485.00
1438.766, 26601.00
1439.812, 26692.00
1440.859, 26761.00
1441.905, 26671.00
1442.952, 26618.00
1443.998, 26442.00
1445.044, 26662.00
1446.090, 26755.00
1447.135, 26697.00
1448.181, 26901.00
1449.226, 26849.00
1450.271, 26874.00
1451.316, 26784.00
1452.361, 26988.00
1453.405, 26590.00
1454.450, 26905.00
1455.494, 27020.00
1456.538, 26770.00
1457.582, 26800.00
1458.626, 26941.00
1459.670, 26972.00
1460.713, 26804.00
1461.757, 27118.00
1462.800, 26774.00
1463.843, 26800.00
1464.886, 27097.00
1465.928, 26929.00
1466.971, 26799.00
1468.013, 27112.00
1469.055, 26998.00
1470.097, 26890.00
1471.139, 26900.00
1472.181, 26887.58
1473.222, 27245.00
1474.263, 27014.00
1475.305, 27087.00
1476.346, 27229.00
1477.386, 27084.00
1478.427, 27337.00
1479.468, 27220.00
1480.508, 27056.00
1481.548, 27157.00
1482.588, 27213.00
1483.628, 27307.00
1484.668, 27224.00
1485.707, 27182.00
1486.747, 27239.00
1487.786, 27235.00
1488.825, 27289.00
1489.864, 27258.00
1490.902, 27309.00
1491.941, 27257.00
1492.979, 27211.00
1494.017, 27327.00
1495.055, 27081.00
1496.093, 27428.00
1497.131, 27143.00
1498.168, 27580.00
1499.206, 27357.00
1500.243, 27314.00
1501.280, 27528.00
1502.317, 27463.00
1503.354, 27573.00
1504.390, 27302.00
1505.426, 27508.00
1506.463, 27485.00
1507.499, 27604.00
1508.535, 27510.00
1509.570, 27479.00
1510.606, 27609.00
1511.641, 27524.00
1512.676, 27582.00
1513.711, 27513.00
1514.746, 27624.00
1515.781, 27774.00
1516.816, 27701.00
1517.850, 27764.00
1518.884, 27738.73
1519.918, 27595.00
1520.952, 27657.00
1521.986, 27670.00
1523.019, 27644.00
1524.053, 27754.00
1525.086, 27778.00
1526.119, 27814.00
1527.152, 27660.00
1528.185, 27821.00
1529.217, 27709.00
1530.250, 27563.00
1531.282, 27795.00
1532.314, 27788.00
1533.346, 27844.00
1534.377, 27834.00
1535.409, 27773.00
1536.440, 27879.00
1537.472, 27929.00
1538.503, 28120.00
1539.534, 27929.00
1540.564, 27909.00
1541.595, 27991.00
1542.625, 27862.00
1543.656, 27990.00
1544.686, 27879.00
1545.716, 28046.00
1546.745, 27819.00
1547.775, 28006.00
1548.804, 28342.00
1549.834, 28130.00
1550.863, 28079.00
1551.892, 27989.00
1552.920, 28301.00
1553.949, 28214.00
1554.977, 28234.00
1556.006, 28096.00
1557.034, 28252.00
1558.062, 28295.00
1559.089, 28247.00
1560.117, 28146.00
1561.144, 28163.00
1562.172, 28155.00
1563.199, 28094.00
1564.226, 28056.00
1565.252, 28239.00
1566.279, 28223.00
1567.305, 28306.00
1568.332, 28305.00
1569.358, 28087.00
1570.384, 28389.00
##END=



