##NAMES=Brazilianite
##RRUFFID=R050319
##IDEAL CHEMISTRY=NaAl_3_(PO_4_)_2_(OH)_4_
##LOCALITY=Minas Gerais, Brazil
##OWNER=RRUFF
##SOURCE=American Museum of Natural History
##DESCRIPTION=Pale green fragment
##STATUS=The identification of this mineral has been confirmed by X-ray diffraction and chemical analysis
##URL=rruff.info/R050319
##MEASURED CHEMISTRY=Na_1.00_Al_3.00_(PO_4_)_2_(OH)_4_
##PIN_ID=M00246
##ORIENTATION=Laser parallel to (1 0 1). Fiducial mark perpendicular to laser is parallel to b [0 1 0]
78.65900, 5683.211
79.89500, 6328.000
81.13100, 7124.000
82.36700, 7937.000
83.60200, 8688.000
84.83700, 9074.000
86.07200, 9092.000
87.30800, 8802.000
88.54200, 8298.000
89.77700, 7855.000
91.01200, 7583.000
92.24600, 7400.000
93.48000, 7346.000
94.71400, 7359.000
95.94800, 7330.000
97.18200, 7410.000
98.41600, 7473.000
99.64900, 7568.000
100.8830, 7828.000
102.1160, 7915.000
103.3490, 8088.000
104.5820, 8100.000
105.8150, 8098.000
107.0470, 7900.000
108.2800, 8071.000
109.5120, 8037.000
110.7440, 7710.000
111.9760, 7345.000
113.2080, 7507.000
114.4400, 7670.000
115.6710, 7644.000
116.9030, 7309.000
118.1340, 7059.000
119.3650, 6961.000
120.5960, 6758.000
121.8270, 6719.000
123.0580, 6729.000
124.2880, 6738.000
125.5190, 6695.693
126.7490, 6679.987
127.9790, 6639.000
129.2090, 6613.000
130.4390, 6605.000
131.6680, 6594.000
132.8980, 6669.000
134.1270, 6686.000
135.3560, 6679.000
136.5850, 6837.000
137.8140, 6906.000
139.0430, 6931.000
140.2710, 7103.000
141.5000, 7119.000
142.7280, 7163.000
143.9560, 7278.000
145.1840, 7240.000
146.4120, 7434.000
147.6390, 7433.000
148.8670, 7366.000
150.0940, 7440.000
151.3210, 7230.000
152.5490, 7389.000
153.7750, 7416.000
155.0020, 7643.000
156.2290, 7815.000
157.4550, 8234.000
158.6810, 8722.000
159.9080, 9598.854
161.1340, 10352.00
162.3590, 11905.00
163.5850, 13684.00
164.8110, 15372.00
166.0360, 16693.00
167.2610, 18402.00
168.4860, 21427.00
169.7110, 25916.00
170.9360, 30379.00
172.1610, 31915.00
173.3850, 29134.00
174.6100, 24046.00
175.8340, 19348.00
177.0580, 15584.00
178.2820, 12874.00
179.5050, 11114.00
180.7290, 9883.000
181.9520, 9038.000
183.1760, 8607.000
184.3990, 8150.000
185.6220, 7980.000
186.8450, 7942.000
188.0670, 7883.000
189.2900, 7849.000
190.5120, 7782.000
191.7340, 7890.000
192.9560, 8096.000
194.1780, 8144.000
195.4000, 8263.000
196.6220, 8350.000
197.8430, 8571.000
199.0640, 8885.000
200.2860, 9109.000
201.5070, 9505.000
202.7270, 9727.000
203.9480, 9960.000
205.1690, 10022.00
206.3890, 10243.00
207.6090, 10361.00
208.8290, 10607.00
210.0490, 10619.00
211.2690, 10525.00
212.4890, 10399.00
213.7080, 10064.00
214.9280, 9962.000
216.1470, 9805.000
217.3660, 9912.000
218.5850, 9893.000
219.8030, 9978.000
221.0220, 9910.000
222.2400, 10011.00
223.4590, 9885.000
224.6770, 10027.00
225.8950, 10241.00
227.1120, 10580.00
228.3300, 11036.00
229.5480, 11281.00
230.7650, 11378.00
231.9820, 10806.00
233.1990, 10330.00
234.4160, 9707.000
235.6330, 9180.000
236.8490, 8990.000
238.0660, 8718.000
239.2820, 8687.000
240.4980, 8691.000
241.7140, 8906.000
242.9300, 9156.000
244.1460, 9422.000
245.3610, 9388.000
246.5770, 9429.000
247.7920, 9317.000
249.0070, 9524.000
250.2220, 9636.000
251.4370, 9735.000
252.6510, 9728.000
253.8660, 9367.000
255.0800, 8811.000
256.2940, 8255.000
257.5080, 7998.000
258.7220, 7919.000
259.9360, 7909.000
261.1490, 7769.000
262.3630, 7575.000
263.5760, 7672.000
264.7890, 7716.000
266.0020, 7793.000
267.2150, 8131.000
268.4270, 8271.000
269.6400, 8679.000
270.8520, 8869.000
272.0640, 9090.000
273.2760, 9395.000
274.4880, 9538.000
275.7000, 9871.000
276.9120, 10026.00
278.1230, 9857.000
279.3340, 9625.000
280.5450, 9535.000
281.7560, 9015.000
282.9670, 8788.000
284.1780, 8652.000
285.3880, 8544.000
286.5980, 8451.000
287.8090, 8472.000
289.0190, 8547.000
290.2290, 8631.000
291.4380, 8713.000
292.6480, 8752.000
293.8570, 8882.000
295.0670, 8761.000
296.2760, 8892.000
297.4850, 8870.000
298.6930, 8967.000
299.9020, 8750.000
301.1110, 8559.000
302.3190, 8582.000
303.5270, 8616.000
304.7350, 8694.000
305.9430, 8747.000
307.1510, 8827.000
308.3580, 9011.000
309.5660, 9183.000
310.7730, 9358.000
311.9800, 9601.000
313.1870, 9978.000
314.3940, 10060.00
315.6010, 10112.00
316.8070, 9991.000
318.0130, 9940.000
319.2200, 10059.00
320.4260, 10073.00
321.6310, 9884.000
322.8370, 9955.000
324.0430, 9891.000
325.2480, 9512.000
326.4540, 9403.000
327.6590, 9215.000
328.8640, 9133.000
330.0680, 8839.000
331.2730, 8746.000
332.4780, 8748.000
333.6820, 8548.000
334.8860, 8592.000
336.0900, 8574.000
337.2940, 8498.000
338.4980, 8602.000
339.7010, 8577.000
340.9050, 8659.000
342.1080, 8736.000
343.3110, 8851.712
344.5140, 9115.000
345.7170, 9233.000
346.9200, 9512.000
348.1220, 9871.000
349.3240, 10258.00
350.5270, 10676.00
351.7290, 11089.00
352.9310, 11702.00
354.1320, 12136.00
355.3340, 12530.00
356.5350, 12924.00
357.7370, 13177.00
358.9380, 12943.00
360.1390, 12339.00
361.3400, 11734.00
362.5400, 10971.00
363.7410, 10403.00
364.9410, 10061.00
366.1410, 9670.000
367.3410, 9424.000
368.5410, 9330.000
369.7410, 9350.000
370.9400, 9122.000
372.1400, 9155.000
373.3390, 9197.000
374.5380, 9220.000
375.7370, 9198.000
376.9360, 9280.000
378.1350, 9333.000
379.3330, 9273.000
380.5310, 9172.000
381.7300, 9154.000
382.9280, 9154.000
384.1260, 9059.000
385.3230, 9043.000
386.5210, 8944.000
387.7180, 9031.000
388.9160, 9137.000
390.1130, 9089.000
391.3100, 9193.000
392.5060, 9370.000
393.7030, 9494.000
394.9000, 9728.000
396.0960, 9812.000
397.2920, 10192.00
398.4880, 10393.00
399.6840, 10743.00
400.8800, 10934.00
402.0750, 11338.00
403.2710, 11555.00
404.4660, 11968.00
405.6610, 12275.00
406.8560, 12617.00
408.0510, 12812.00
409.2450, 13228.00
410.4400, 13525.00
411.6340, 13646.00
412.8280, 13819.00
414.0220, 13800.00
415.2160, 13542.00
416.4100, 13345.00
417.6030, 13165.00
418.7970, 12949.00
419.9900, 12815.00
421.1830, 12616.00
422.3760, 12576.00
423.5690, 12558.00
424.7610, 12388.00
425.9540, 12371.00
427.1460, 12175.49
428.3380, 11890.00
429.5300, 11751.00
430.7220, 11542.00
431.9140, 11245.00
433.1050, 11152.00
434.2970, 11052.00
435.4880, 11062.00
436.6790, 11162.00
437.8700, 11155.00
439.0610, 11131.00
440.2510, 10990.00
441.4420, 10871.00
442.6320, 10883.00
443.8220, 10746.00
445.0120, 10924.00
446.2020, 10794.00
447.3910, 10866.00
448.5810, 11015.00
449.7700, 11053.00
450.9600, 10942.00
452.1490, 10793.00
453.3370, 10895.00
454.5260, 10535.00
455.7150, 10343.00
456.9030, 10459.00
458.0910, 10316.00
459.2800, 10062.00
460.4670, 10004.00
461.6550, 9959.000
462.8430, 9982.000
464.0300, 10008.00
465.2180, 9977.000
466.4050, 9901.000
467.5920, 9790.000
468.7790, 9849.000
469.9650, 10031.00
471.1520, 10227.00
472.3380, 10302.00
473.5250, 10544.00
474.7110, 10617.00
475.8970, 10733.00
477.0820, 10968.00
478.2680, 11079.24
479.4540, 11424.00
480.6390, 11442.00
481.8240, 11773.00
483.0090, 12021.00
484.1940, 12103.00
485.3780, 12481.00
486.5630, 12605.00
487.7470, 12882.00
488.9320, 13204.00
490.1160, 13598.00
491.3000, 14102.00
492.4830, 14378.00
493.6670, 14819.00
494.8500, 15460.00
496.0340, 16021.00
497.2170, 16424.00
498.4000, 16813.00
499.5820, 17307.00
500.7650, 17493.00
501.9480, 17798.00
503.1300, 17852.00
504.3120, 18000.00
505.4940, 18023.00
506.6760, 18061.00
507.8580, 18141.00
509.0390, 18044.00
510.2210, 18164.00
511.4020, 18238.00
512.5830, 18407.00
513.7640, 18552.00
514.9450, 18497.00
516.1250, 18585.00
517.3060, 18582.00
518.4860, 18703.00
519.6660, 18839.00
520.8460, 19002.00
522.0260, 19236.00
523.2060, 19578.00
524.3850, 19854.00
525.5650, 20179.00
526.7440, 20750.00
527.9230, 21162.00
529.1020, 21624.00
530.2810, 21896.00
531.4590, 21912.00
532.6380, 21990.30
533.8160, 21854.86
534.9940, 21652.00
536.1720, 21323.00
537.3500, 20857.00
538.5270, 20360.00
539.7050, 19962.00
540.8820, 19447.00
542.0590, 19211.00
543.2360, 18973.00
544.4130, 18963.00
545.5900, 18960.00
546.7660, 19390.00
547.9430, 19857.00
549.1190, 20480.00
550.2950, 21443.00
551.4710, 22286.00
552.6470, 23733.00
553.8220, 25001.00
554.9980, 25990.00
556.1730, 27607.00
557.3480, 28799.00
558.5230, 29337.00
559.6980, 29881.00
560.8730, 30025.00
562.0470, 29924.00
563.2220, 29742.00
564.3960, 29325.00
565.5700, 28530.00
566.7440, 27611.00
567.9170, 26093.00
569.0910, 24646.00
570.2640, 23095.00
571.4380, 21527.00
572.6110, 20191.00
573.7840, 18767.00
574.9570, 17846.00
576.1290, 16823.00
577.3020, 16142.00
578.4740, 15678.00
579.6460, 15344.00
580.8180, 15341.00
581.9900, 15067.00
583.1620, 15237.00
584.3330, 15516.00
585.5040, 15755.00
586.6760, 16266.00
587.8470, 16918.00
589.0180, 17898.00
590.1880, 19142.00
591.3590, 20495.00
592.5290, 22210.00
593.7000, 24043.00
594.8700, 26348.00
596.0400, 28043.00
597.2090, 29842.00
598.3790, 31120.00
599.5490, 31497.00
600.7180, 30824.00
601.8870, 29139.00
603.0560, 27478.00
604.2250, 25382.00
605.3940, 23803.00
606.5620, 22301.00
607.7300, 21233.00
608.8990, 20406.00
610.0670, 19911.00
611.2350, 19368.00
612.4020, 18810.00
613.5700, 18011.00
614.7370, 17608.00
615.9050, 16813.00
617.0720, 16286.00
618.2390, 15476.00
619.4060, 14906.00
620.5720, 14745.00
621.7390, 14344.00
622.9050, 14275.00
624.0710, 14172.00
625.2370, 14359.00
626.4030, 14445.00
627.5690, 14471.00
628.7340, 14642.00
629.9000, 14729.00
631.0650, 14805.00
632.2300, 14902.00
633.3950, 15068.00
634.5600, 15072.00
635.7240, 14777.00
636.8890, 14488.00
638.0530, 14282.00
639.2170, 13766.00
640.3810, 13317.00
641.5450, 12927.00
642.7080, 12721.00
643.8720, 12409.00
645.0350, 12164.00
646.1980, 11995.00
647.3610, 11802.00
648.5240, 11736.00
649.6870, 11630.00
650.8490, 11426.00
652.0120, 11354.00
653.1740, 11233.00
654.3360, 11264.00
655.4980, 11141.00
656.6600, 11063.00
657.8210, 10933.00
658.9830, 10841.00
660.1440, 10777.00
661.3050, 10573.00
662.4660, 10676.00
663.6270, 10542.00
664.7870, 10445.00
665.9480, 10263.00
667.1080, 10394.00
668.2680, 10234.00
669.4280, 10178.00
670.5880, 10029.00
671.7480, 10028.00
672.9070, 9973.000
674.0670, 9963.000
675.2260, 9989.000
676.3850, 9822.000
677.5440, 9891.000
678.7030, 9845.000
679.8610, 9787.000
681.0200, 9811.000
682.1780, 9815.000
683.3360, 9876.000
684.4940, 9699.000
685.6520, 9756.000
686.8090, 9710.000
687.9670, 9880.000
689.1240, 9708.000
690.2810, 9802.000
691.4380, 9733.000
692.5950, 9719.000
693.7520, 9679.000
694.9080, 9719.000
696.0650, 9660.000
697.2210, 9789.000
698.3770, 9755.000
699.5330, 9688.000
700.6880, 9735.000
701.8440, 9582.000
702.9990, 9697.000
704.1550, 9677.000
705.3100, 9808.000
706.4650, 9739.000
707.6190, 9739.000
708.7740, 9778.000
709.9290, 9833.000
711.0830, 9851.000
712.2370, 9934.000
713.3910, 9842.000
714.5450, 9892.000
715.6980, 9932.000
716.8520, 9986.000
718.0050, 10022.04
719.1580, 10098.00
720.3110, 10042.00
721.4640, 10037.00
722.6170, 10049.38
723.7700, 9975.000
724.9220, 10019.00
726.0740, 9977.000
727.2260, 9911.000
728.3780, 9985.000
729.5300, 9956.000
730.6810, 9957.000
731.8330, 9964.000
732.9840, 9900.000
734.1350, 9914.000
735.2860, 9954.000
736.4370, 9855.000
737.5880, 10109.00
738.7380, 10009.00
739.8880, 10076.00
741.0390, 10019.00
742.1890, 9957.000
743.3380, 10173.00
744.4880, 10125.00
745.6380, 10261.00
746.7870, 10166.00
747.9360, 10224.00
749.0850, 10389.00
750.2340, 10282.00
751.3830, 10396.00
752.5310, 10216.00
753.6800, 10380.00
754.8280, 10494.00
755.9760, 10568.00
757.1240, 10632.44
758.2720, 10667.89
759.4190, 10660.00
760.5670, 10693.00
761.7140, 10652.00
762.8610, 10655.00
764.0080, 10695.12
765.1550, 10691.19
766.3020, 10784.00
767.4480, 10768.00
768.5950, 10818.00
769.7410, 10922.00
770.8870, 10923.00
772.0330, 10905.00
773.1780, 10875.00
774.3240, 10848.66
775.4690, 10833.00
776.6140, 10778.00
777.7590, 10742.00
778.9040, 10719.00
780.0490, 10721.00
781.1940, 10792.00
782.3380, 10864.00
783.4820, 10733.00
784.6260, 10829.00
785.7700, 10700.00
786.9140, 10970.00
788.0580, 10885.00
789.2010, 11062.00
790.3450, 10970.00
791.4880, 11075.00
792.6310, 11176.00
793.7730, 11017.00
794.9160, 11206.00
796.0590, 10975.00
797.2010, 11108.00
798.3430, 11163.00
799.4850, 11218.00
800.6270, 11243.00
801.7690, 11190.00
802.9100, 11149.00
804.0520, 11194.00
805.1930, 11124.55
806.3340, 11101.00
807.4750, 11044.00
808.6160, 11070.00
809.7560, 11022.00
810.8970, 11068.00
812.0370, 10921.00
813.1770, 10803.00
814.3170, 10925.00
815.4570, 10762.00
816.5960, 10808.00
817.7360, 10787.00
818.8750, 10868.00
820.0140, 10783.00
821.1530, 10800.00
822.2920, 10811.00
823.4310, 10847.00
824.5690, 10876.00
825.7070, 10815.00
826.8460, 10982.00
827.9840, 10887.00
829.1220, 10861.00
830.2590, 10943.00
831.3970, 10860.42
832.5340, 10914.02
833.6710, 10813.00
834.8080, 10912.00
835.9450, 10912.00
837.0820, 10797.00
838.2190, 11016.00
839.3550, 10854.00
840.4910, 10967.00
841.6270, 10833.00
842.7630, 11052.00
843.8990, 11023.00
845.0350, 10884.00
846.1700, 11047.00
847.3060, 11059.00
848.4410, 10982.00
849.5760, 10995.00
850.7100, 11065.00
851.8450, 11114.00
852.9800, 11144.00
854.1140, 11201.00
855.2480, 11254.00
856.3820, 11354.00
857.5160, 11242.00
858.6500, 11332.00
859.7830, 11370.00
860.9170, 11332.00
862.0500, 11404.00
863.1830, 11356.00
864.3160, 11327.00
865.4480, 11362.00
866.5810, 11412.00
867.7130, 11353.00
868.8460, 11178.00
869.9780, 11222.00
871.1100, 11202.00
872.2410, 11156.00
873.3730, 11149.00
874.5050, 11206.00
875.6360, 11254.00
876.7670, 11250.00
877.8980, 11234.00
879.0290, 11174.00
880.1590, 11118.00
881.2900, 11169.00
882.4200, 11142.21
883.5500, 11189.00
884.6800, 11175.00
885.8100, 11250.00
886.9400, 11265.00
888.0690, 11316.00
889.1990, 11174.00
890.3280, 11164.00
891.4570, 11357.00
892.5860, 11231.00
893.7140, 11414.00
894.8430, 11446.00
895.9710, 11402.00
897.1000, 11245.00
898.2280, 11444.00
899.3560, 11319.00
900.4830, 11438.00
901.6110, 11393.00
902.7380, 11429.00
903.8660, 11490.00
904.9930, 11494.00
906.1200, 11594.00
907.2460, 11458.00
908.3730, 11621.00
909.5000, 11490.00
910.6260, 11664.00
911.7520, 11833.00
912.8780, 11678.00
914.0040, 11721.00
915.1290, 11730.00
916.2550, 11699.71
917.3800, 11731.00
918.5050, 11746.00
919.6300, 11820.00
920.7550, 11888.00
921.8800, 11894.00
923.0040, 12035.00
924.1290, 12038.00
925.2530, 12071.00
926.3770, 12233.00
927.5010, 12188.00
928.6250, 12299.00
929.7480, 12375.00
930.8720, 12574.00
931.9950, 12581.00
933.1180, 12636.00
934.2410, 12896.00
935.3640, 13084.00
936.4860, 13295.00
937.6090, 13487.00
938.7310, 13686.00
939.8530, 13885.00
940.9750, 14237.00
942.0970, 14423.00
943.2180, 14781.00
944.3400, 15098.00
945.4610, 15451.00
946.5820, 15949.00
947.7030, 15941.00
948.8240, 16391.00
949.9450, 16562.00
951.0650, 16645.00
952.1860, 16686.00
953.3060, 16734.00
954.4260, 16526.00
955.5460, 16603.00
956.6650, 16584.00
957.7850, 16485.00
958.9040, 16556.00
960.0230, 16717.00
961.1420, 16985.00
962.2610, 17294.73
963.3800, 17535.00
964.4990, 18210.00
965.6170, 18509.00
966.7350, 19213.00
967.8530, 20067.00
968.9710, 20859.00
970.0890, 21373.00
971.2070, 21973.00
972.3240, 22152.00
973.4410, 22420.00
974.5580, 22492.00
975.6750, 22498.00
976.7920, 22401.00
977.9090, 22296.00
979.0250, 22372.00
980.1410, 22581.00
981.2580, 22802.00
982.3740, 23445.00
983.4890, 24611.00
984.6050, 25214.93
985.7200, 26652.00
986.8360, 26615.00
987.9510, 27009.00
989.0660, 26665.00
990.1810, 26459.00
991.2950, 25499.00
992.4100, 24258.00
993.5240, 23100.00
994.6390, 22339.00
995.7530, 21536.00
996.8660, 21216.00
997.9800, 20751.00
999.0940, 20603.00
1000.207, 20961.00
1001.320, 21197.00
1002.433, 21670.00
1003.546, 22378.00
1004.659, 23083.00
1005.772, 23977.00
1006.884, 25340.00
1007.996, 26873.00
1009.108, 29034.00
1010.220, 31615.00
1011.332, 34311.00
1012.444, 37772.00
1013.555, 41210.00
1014.666, 44836.00
1015.777, 48407.00
1016.888, 51253.00
1017.999, 53122.00
1019.110, 54114.00
1020.220, 54138.00
1021.331, 53108.00
1022.441, 51109.00
1023.551, 48477.00
1024.661, 46306.00
1025.770, 43531.00
1026.880, 41198.00
1027.989, 39224.00
1029.098, 37197.00
1030.207, 35491.00
1031.316, 34249.00
1032.425, 32957.00
1033.533, 31800.00
1034.642, 30842.00
1035.750, 30067.00
1036.858, 29449.00
1037.966, 28783.00
1039.073, 28080.00
1040.181, 27619.00
1041.288, 26813.00
1042.396, 26230.00
1043.503, 25186.00
1044.610, 24948.00
1045.716, 24054.00
1046.823, 23275.00
1047.929, 22678.00
1049.036, 22184.00
1050.142, 21676.00
1051.248, 21058.00
1052.353, 20748.00
1053.459, 20415.00
1054.564, 20195.64
1055.670, 20199.00
1056.775, 20057.00
1057.880, 20111.00
1058.985, 20246.00
1060.089, 20135.00
1061.194, 20180.00
1062.298, 20166.00
1063.402, 20015.00
1064.506, 19978.00
1065.610, 19671.00
1066.713, 19328.00
1067.817, 19046.00
1068.920, 18669.00
1070.023, 18286.00
1071.126, 17880.00
1072.229, 17626.00
1073.332, 17242.33
1074.435, 16986.00
1075.537, 16579.00
1076.639, 16272.00
1077.741, 15945.00
1078.843, 15766.00
1079.945, 15609.00
1081.046, 15629.00
1082.148, 15363.00
1083.249, 15234.00
1084.350, 14942.00
1085.451, 14879.00
1086.551, 14759.00
1087.652, 14725.00
1088.752, 14495.00
1089.853, 14278.00
1090.953, 14298.00
1092.053, 14017.00
1093.152, 13890.00
1094.252, 13833.00
1095.351, 13784.00
1096.451, 13740.00
1097.550, 13575.00
1098.649, 13535.00
1099.748, 13493.65
1100.846, 13382.00
1101.945, 13463.00
1103.043, 13456.00
1104.141, 13460.78
1105.239, 13340.00
1106.337, 13380.00
1107.434, 13397.00
1108.532, 13251.00
1109.629, 13423.00
1110.726, 13388.00
1111.823, 13365.00
1112.920, 13513.00
1114.017, 13506.00
1115.113, 13589.00
1116.210, 13537.00
1117.306, 13542.00
1118.402, 13608.00
1119.498, 13690.00
1120.593, 13700.00
1121.689, 13696.10
1122.784, 13631.00
1123.879, 13597.00
1124.974, 13623.00
1126.069, 13521.00
1127.164, 13685.00
1128.259, 13596.00
1129.353, 13486.00
1130.447, 13414.00
1131.541, 13681.00
1132.635, 13641.00
1133.729, 13587.00
1134.822, 13654.00
1135.916, 13599.00
1137.009, 13699.00
1138.102, 13719.00
1139.195, 13763.86
1140.288, 13659.00
1141.380, 13852.00
1142.473, 13864.00
1143.565, 13836.00
1144.657, 14050.00
1145.749, 14043.00
1146.841, 14068.59
1147.932, 14078.00
1149.024, 14085.00
1150.115, 14066.00
1151.206, 14105.00
1152.297, 14051.00
1153.388, 13996.00
1154.479, 13987.00
1155.569, 13864.00
1156.659, 13903.00
1157.750, 13996.00
1158.839, 13943.00
1159.929, 14110.00
1161.019, 13956.00
1162.108, 14124.00
1163.198, 13989.00
1164.287, 14026.00
1165.376, 14073.00
1166.465, 14119.00
1167.553, 14100.00
1168.642, 14089.00
1169.730, 14024.00
1170.818, 13947.00
1171.906, 13960.00
1172.994, 13863.00
1174.082, 13825.00
1175.170, 13787.00
1176.257, 13654.00
1177.344, 13577.00
1178.431, 13506.00
1179.518, 13452.25
1180.605, 13364.00
1181.691, 13370.00
1182.778, 13413.00
1183.864, 13330.00
1184.950, 13318.00
1186.036, 13322.62
1187.122, 13289.04
1188.207, 13327.00
1189.292, 13249.00
1190.378, 13254.00
1191.463, 13177.00
1192.548, 13308.00
1193.632, 13087.00
1194.717, 13081.00
1195.801, 13029.00
1196.886, 13174.00
1197.970, 13194.00
1199.054, 13174.99
1200.137, 13169.00
1201.221, 13137.00
1202.305, 13154.00
1203.388, 13144.00
1204.471, 13145.00
1205.554, 13257.00
1206.637, 13149.00
1207.719, 13087.00
1208.802, 13179.00
1209.884, 13146.00
1210.966, 13139.00
1212.048, 13113.00
1213.130, 13181.00
1214.212, 13191.00
1215.293, 13286.00
1216.374, 13197.00
1217.456, 13267.00
1218.536, 13202.00
1219.617, 13343.00
1220.698, 13206.00
1221.778, 13081.00
1222.859, 13306.00
1223.939, 13324.00
1225.019, 13279.00
1226.099, 13140.00
1227.178, 13227.00
1228.258, 13196.00
1229.337, 13294.00
1230.417, 13277.00
1231.496, 13197.00
1232.574, 13232.00
1233.653, 13276.00
1234.732, 13478.00
1235.810, 13847.00
1236.888, 13656.88
1237.966, 13770.00
1239.044, 13459.00
1240.122, 13383.00
1241.199, 13401.00
1242.277, 13523.00
1243.354, 13496.00
1244.431, 13642.00
1245.508, 13534.94
1246.585, 13705.00
1247.661, 13361.00
1248.738, 13460.00
1249.814, 13458.00
1250.890, 13460.00
1251.966, 13518.00
1253.042, 13380.00
1254.117, 13479.00
1255.193, 13274.00
1256.268, 13413.00
1257.343, 13460.00
1258.418, 13449.00
1259.493, 13393.00
1260.567, 13628.00
1261.642, 13595.00
1262.716, 13542.00
1263.790, 13493.00
1264.864, 13615.00
1265.938, 13730.00
1267.011, 13692.00
1268.085, 13863.00
1269.158, 13766.00
1270.231, 13833.00
1271.304, 13637.00
1272.377, 13807.00
1273.450, 13790.00
1274.522, 13724.00
1275.594, 13886.00
1276.666, 13822.00
1277.738, 13723.00
1278.810, 13810.00
1279.882, 13661.00
1280.953, 13750.00
1282.025, 13735.00
1283.096, 13696.00
1284.167, 13680.00
1285.238, 13823.00
1286.308, 13799.00
1287.379, 13740.00
1288.449, 13788.00
1289.519, 13703.00
1290.589, 13810.00
1291.659, 13791.00
1292.729, 13988.00
1293.798, 13907.00
1294.868, 14053.00
1295.937, 13839.00
1297.006, 13762.00
1298.075, 13877.00
1299.143, 13953.00
1300.212, 13850.00
1301.280, 13856.00
1302.348, 13852.00
1303.416, 13858.00
1304.484, 14022.00
1305.552, 14005.00
1306.620, 13973.00
1307.687, 14057.00
1308.754, 13986.00
1309.821, 14078.00
1310.888, 13991.00
1311.955, 14077.00
1313.021, 14084.00
1314.088, 14065.00
1315.154, 14164.00
1316.220, 14081.00
1317.286, 14105.00
1318.352, 14323.00
1319.417, 14071.00
1320.483, 14164.00
1321.548, 14163.00
1322.613, 13981.00
1323.678, 14038.00
1324.743, 13986.00
1325.807, 13955.00
1326.872, 13995.00
1327.936, 14023.00
1329.000, 13949.00
1330.064, 14045.00
1331.128, 13831.00
1332.191, 14048.00
1333.255, 13791.00
1334.318, 13975.00
1335.381, 13902.00
1336.444, 13847.00
1337.507, 13845.00
1338.569, 13883.00
1339.632, 13890.00
1340.694, 13830.00
1341.756, 13853.00
1342.818, 13737.00
1343.880, 13920.00
1344.941, 14047.00
1346.003, 13914.00
1347.064, 13988.00
1348.125, 13934.00
1349.186, 13985.00
1350.247, 13943.00
1351.308, 13979.00
1352.368, 14015.00
1353.428, 14060.00
1354.489, 13865.00
1355.549, 13922.00
1356.608, 13964.00
1357.668, 13960.00
1358.727, 13998.61
1359.787, 13999.01
1360.846, 14025.61
1361.905, 13999.49
1362.964, 13998.00
1364.022, 13993.00
1365.081, 13937.00
1366.139, 14016.00
1367.197, 14152.00
1368.255, 13892.00
1369.313, 14135.00
1370.371, 14071.00
1371.428, 13931.00
1372.486, 14012.00
1373.543, 14118.00
1374.600, 14077.00
1375.657, 14125.00
1376.713, 14190.00
1377.770, 14051.00
1378.826, 14165.00
1379.882, 14141.00
1380.938, 14127.00
1381.994, 14024.00
1383.050, 14147.00
1384.106, 14211.00
1385.161, 14327.00
1386.216, 14208.00
1387.271, 14191.00
1388.326, 14197.00
1389.381, 14282.00
1390.435, 14147.00
1391.490, 14195.00
1392.544, 14294.00
1393.598, 14184.00
1394.652, 14246.00
1395.705, 14289.00
1396.759, 14094.00
1397.812, 14052.00
1398.866, 14188.00
1399.919, 14166.00
1400.972, 14200.00
1402.024, 14230.26
1403.077, 14263.73
1404.129, 14243.00
1405.181, 14352.00
1406.233, 14373.28
1407.285, 14386.88
1408.337, 14368.00
1409.389, 14270.00
1410.440, 14233.00
1411.491, 14212.00
1412.542, 14226.00
1413.593, 14308.00
1414.644, 14197.00
1415.695, 14321.00
1416.745, 14311.00
1417.795, 14398.00
1418.845, 14331.00
1419.895, 14359.00
1420.945, 14251.00
1421.995, 14428.00
1423.044, 14345.00
1424.093, 14485.00
1425.142, 14267.00
1426.191, 14390.00
1427.240, 14332.00
1428.289, 14390.00
1429.337, 14387.00
1430.385, 14328.00
1431.433, 14520.00
1432.481, 14493.00
1433.529, 14736.00
1434.577, 14699.00
1435.624, 14620.00
1436.672, 14630.00
1437.719, 14768.00
1438.766, 14789.82
1439.812, 15031.00
1440.859, 15000.00
1441.905, 15167.00
1442.952, 15298.00
1443.998, 15184.00
1445.044, 15217.00
1446.090, 15297.00
1447.135, 15256.00
1448.181, 15255.00
1449.226, 15488.00
1450.271, 15495.00
1451.316, 15321.00
1452.361, 15458.00
1453.405, 15377.00
1454.450, 15581.00
1455.494, 15539.00
1456.538, 15476.00
1457.582, 15440.00
1458.626, 15445.00
1459.670, 15317.00
1460.713, 15182.00
1461.757, 15222.50
1462.800, 15347.00
1463.843, 15216.00
1464.886, 15290.00
1465.928, 15214.00
1466.971, 15154.00
1468.013, 15036.00
1469.055, 15152.00
1470.097, 15059.00
1471.139, 15141.00
1472.181, 15006.00
1473.222, 14924.00
1474.263, 15054.00
1475.305, 14975.00
1476.346, 15084.00
1477.386, 14935.00
1478.427, 15020.00
1479.468, 15045.00
1480.508, 14828.00
1481.548, 14870.00
1482.588, 15041.00
1483.628, 14935.00
1484.668, 14932.00
1485.707, 14944.00
1486.747, 14907.00
1487.786, 14854.00
1488.825, 14896.00
1489.864, 14863.00
1490.902, 14849.00
1491.941, 14935.00
1492.979, 14738.00
1494.017, 14674.00
1495.055, 14803.00
1496.093, 14645.00
1497.131, 14813.00
1498.168, 14915.00
1499.206, 14888.00
1500.243, 14743.00
1501.280, 14844.00
1502.317, 14728.00
1503.354, 14779.00
1504.390, 14715.00
1505.426, 14801.00
1506.463, 14728.00
1507.499, 14764.00
1508.535, 14827.00
1509.570, 14830.00
1510.606, 14863.00
1511.641, 14772.00
1512.676, 14834.00
1513.711, 14829.00
1514.746, 14917.00
1515.781, 14915.00
1516.816, 14995.00
1517.850, 14899.00
1518.884, 14977.00
1519.918, 14939.38
1520.952, 14996.00
1521.986, 14894.00
1523.019, 14901.00
1524.053, 14888.71
1525.086, 14915.00
1526.119, 14978.00
1527.152, 14985.00
1528.185, 15029.00
1529.217, 15144.00
1530.250, 15038.00
1531.282, 15125.00
1532.314, 15064.00
1533.346, 14996.00
1534.377, 15149.00
1535.409, 15191.00
1536.440, 15084.00
1537.472, 15063.00
1538.503, 15239.00
1539.534, 15043.00
1540.564, 15146.00
1541.595, 15140.00
1542.625, 15202.00
1543.656, 15172.00
1544.686, 15187.00
1545.716, 15346.00
1546.745, 15220.00
1547.775, 15296.27
1548.804, 15135.00
1549.834, 15280.00
1550.863, 15190.00
1551.892, 15103.00
1552.920, 15209.00
1553.949, 15206.00
1554.977, 15096.00
1556.006, 15240.00
1557.034, 15145.00
1558.062, 15237.00
1559.089, 15206.00
1560.117, 15208.00
1561.144, 15164.00
1562.172, 15184.64
1563.199, 15182.62
1564.226, 15230.00
1565.252, 15199.00
1566.279, 15242.00
1567.305, 15237.00
1568.332, 15221.00
1569.358, 15503.00
1570.384, 15404.00
##END=



