##NAMES=Brookite
##RRUFFID=R050363
##IDEAL CHEMISTRY=Ti^4+^O_2_
##LOCALITY=Magnet Cove, Arkansas, USA
##OWNER=RRUFF
##SOURCE=University of Arizona Mineral Museum
##DESCRIPTION=Black fragment of a prismatic crystal associated with quartz
##STATUS=The identification of this mineral has been confirmed by X-ray diffraction and chemical analysis
##URL=rruff.info/R050363
##MEASURED CHEMISTRY=(Ti_0.94_Nb^5+^_0.03_Fe^3+^_0.03_)_Î£=1_O_2_
##PIN_ID=L01274
##ORIENTATION=Laser parallel to c* (0 0 1). Fiducial mark perpendicular to laser is parallel to a [1 0 0]
51.43100, 718.0000
52.67100, 731.0000
53.91000, 718.0000
55.14900, 704.0000
56.38700, 720.0000
57.62600, 728.0000
58.86400, 758.0595
60.10300, 799.0141
61.34100, 845.0000
62.57900, 906.0000
63.81700, 971.0000
65.05400, 1038.000
66.29200, 1223.000
67.52900, 1357.000
68.76700, 1651.000
70.00400, 1849.128
71.24100, 2033.068
72.47700, 2406.000
73.71400, 2526.000
74.95100, 2922.000
76.18700, 3437.000
77.42300, 3373.000
78.65900, 3536.000
79.89500, 3709.000
81.13100, 4217.000
82.36700, 4821.000
83.60200, 4925.257
84.83700, 5595.000
86.07200, 5352.000
87.30800, 5444.000
88.54200, 5704.000
89.77700, 6097.000
91.01200, 6945.000
92.24600, 7456.000
93.48000, 7302.000
94.71400, 7616.000
95.94800, 7788.000
97.18200, 7848.000
98.41600, 8013.000
99.64900, 8189.199
100.8830, 8676.000
102.1160, 8713.000
103.3490, 9019.000
104.5820, 9588.000
105.8150, 10694.00
107.0470, 11782.00
108.2800, 13309.00
109.5120, 14682.00
110.7440, 13396.00
111.9760, 12532.00
113.2080, 12862.00
114.4400, 13673.00
115.6710, 15045.00
116.9030, 15630.00
118.1340, 16621.00
119.3650, 18244.00
120.5960, 20025.00
121.8270, 22567.00
123.0580, 25025.00
124.2880, 25642.00
125.5190, 24572.00
126.7490, 23222.00
127.9790, 22546.00
129.2090, 22437.00
130.4390, 22770.00
131.6680, 23276.00
132.8980, 23656.00
134.1270, 24093.00
135.3560, 25026.00
136.5850, 26249.00
137.8140, 27876.00
139.0430, 30271.00
140.2710, 32604.00
141.5000, 35228.00
142.7280, 38541.00
143.9560, 42682.00
145.1840, 47108.00
146.4120, 52567.00
147.6390, 57363.00
148.8670, 62831.00
150.0940, 64834.00
151.3210, 65535.00
152.5490, 65535.00
153.7750, 64554.00
155.0020, 61309.00
156.2290, 57445.00
157.4550, 53965.00
158.6810, 49947.00
159.9080, 46115.00
161.1340, 42578.00
162.3590, 39219.00
163.5850, 35872.00
164.8110, 32544.00
166.0360, 29363.00
167.2610, 26390.00
168.4860, 23795.00
169.7110, 21439.00
170.9360, 19038.00
172.1610, 16740.00
173.3850, 14961.00
174.6100, 13528.00
175.8340, 12421.00
177.0580, 11626.00
178.2820, 10936.00
179.5050, 10194.00
180.7290, 9841.000
181.9520, 9473.000
183.1760, 9267.000
184.3990, 9145.000
185.6220, 9088.000
186.8450, 9111.000
188.0670, 9322.000
189.2900, 9746.000
190.5120, 10117.00
191.7340, 10336.00
192.9560, 10233.00
194.1780, 9723.000
195.4000, 9386.000
196.6220, 8897.000
197.8430, 8818.000
199.0640, 8702.000
200.2860, 8901.000
201.5070, 9740.000
202.7270, 9414.000
203.9480, 9128.000
205.1690, 8474.000
206.3890, 8278.000
207.6090, 8750.000
208.8290, 9126.000
210.0490, 9645.000
211.2690, 9498.000
212.4890, 9447.000
213.7080, 9001.000
214.9280, 8546.000
216.1470, 7814.000
217.3660, 7427.000
218.5850, 7246.000
219.8030, 6959.000
221.0220, 6847.000
222.2400, 6791.000
223.4590, 6722.000
224.6770, 6757.000
225.8950, 6863.000
227.1120, 6990.000
228.3300, 7198.210
229.5480, 7489.000
230.7650, 7754.000
231.9820, 8110.000
233.1990, 8505.000
234.4160, 9046.000
235.6330, 10044.00
236.8490, 11126.00
238.0660, 12523.00
239.2820, 14353.00
240.4980, 16866.00
241.7140, 19676.00
242.9300, 22158.00
244.1460, 23725.00
245.3610, 24095.00
246.5770, 22703.00
247.7920, 20633.00
249.0070, 18327.00
250.2220, 16413.00
251.4370, 15270.00
252.6510, 14481.00
253.8660, 13795.00
255.0800, 12867.00
256.2940, 11968.00
257.5080, 11343.00
258.7220, 11360.00
259.9360, 10694.94
261.1490, 10755.00
262.3630, 10178.00
263.5760, 9992.000
264.7890, 10101.00
266.0020, 10038.53
267.2150, 10264.00
268.4270, 10416.00
269.6400, 10705.00
270.8520, 10885.00
272.0640, 11377.00
273.2760, 11669.00
274.4880, 12060.00
275.7000, 12549.00
276.9120, 12875.00
278.1230, 13214.00
279.3340, 13334.00
280.5450, 13331.00
281.7560, 13370.00
282.9670, 13116.00
284.1780, 12984.00
285.3880, 12677.00
286.5980, 12424.00
287.8090, 12088.00
289.0190, 11846.00
290.2290, 11741.00
291.4380, 11630.10
292.6480, 11671.00
293.8570, 11682.00
295.0670, 11757.00
296.2760, 11954.00
297.4850, 12290.00
298.6930, 12746.00
299.9020, 13056.00
301.1110, 13576.00
302.3190, 13965.00
303.5270, 14731.27
304.7350, 15399.20
305.9430, 16353.00
307.1510, 17135.00
308.3580, 17908.00
309.5660, 19068.00
310.7730, 20158.00
311.9800, 21055.00
313.1870, 22186.00
314.3940, 23085.00
315.6010, 24087.00
316.8070, 24719.00
318.0130, 25177.00
319.2200, 25592.00
320.4260, 25565.00
321.6310, 25574.00
322.8370, 25085.00
324.0430, 24295.00
325.2480, 23439.00
326.4540, 22110.00
327.6590, 20830.00
328.8640, 19525.00
330.0680, 18148.00
331.2730, 16983.00
332.4780, 15858.00
333.6820, 14896.84
334.8860, 14010.00
336.0900, 13309.00
337.2940, 12829.00
338.4980, 12306.00
339.7010, 11986.00
340.9050, 11633.00
342.1080, 11511.00
343.3110, 11536.00
344.5140, 11642.00
345.7170, 11684.00
346.9200, 12038.00
348.1220, 12523.00
349.3240, 13186.00
350.5270, 14089.00
351.7290, 15242.00
352.9310, 16560.00
354.1320, 18532.00
355.3340, 21359.00
356.5350, 24771.00
357.7370, 26985.00
358.9380, 29883.00
360.1390, 32864.00
361.3400, 34473.00
362.5400, 36164.00
363.7410, 34777.00
364.9410, 31850.00
366.1410, 29187.00
367.3410, 26390.00
368.5410, 23658.00
369.7410, 21482.00
370.9400, 19512.00
372.1400, 18079.00
373.3390, 16911.00
374.5380, 16106.00
375.7370, 15288.00
376.9360, 15002.00
378.1350, 14513.00
379.3330, 14337.00
380.5310, 14427.00
381.7300, 14248.00
382.9280, 14388.00
384.1260, 14337.00
385.3230, 14419.00
386.5210, 14296.00
387.7180, 14241.00
388.9160, 14082.00
390.1130, 14153.00
391.3100, 14035.00
392.5060, 13761.00
393.7030, 13500.00
394.9000, 13343.31
396.0960, 13175.00
397.2920, 12971.00
398.4880, 12757.00
399.6840, 12581.00
400.8800, 12537.00
402.0750, 12466.00
403.2710, 12476.00
404.4660, 12370.15
405.6610, 12333.00
406.8560, 12188.00
408.0510, 12108.00
409.2450, 12010.00
410.4400, 11890.19
411.6340, 11876.00
412.8280, 11639.00
414.0220, 11471.00
415.2160, 11273.00
416.4100, 11129.52
417.6030, 10983.69
418.7970, 10870.00
419.9900, 10743.00
421.1830, 10607.86
422.3760, 10524.26
423.5690, 10460.00
424.7610, 10441.00
425.9540, 10529.00
427.1460, 10547.00
428.3380, 10638.00
429.5300, 10746.00
430.7220, 10793.00
431.9140, 11052.00
433.1050, 11063.00
434.2970, 11456.00
435.4880, 11705.00
436.6790, 11949.00
437.8700, 12284.00
439.0610, 12643.59
440.2510, 13127.00
441.4420, 13496.00
442.6320, 14024.00
443.8220, 14546.00
445.0120, 15078.00
446.2020, 15737.00
447.3910, 16448.00
448.5810, 17001.00
449.7700, 17826.00
450.9600, 18545.00
452.1490, 19142.00
453.3370, 19743.00
454.5260, 20361.00
455.7150, 21026.00
456.9030, 21241.00
458.0910, 21609.00
459.2800, 21624.00
460.4670, 21450.00
461.6550, 21031.00
462.8430, 20520.00
464.0300, 20160.66
465.2180, 19748.00
466.4050, 19199.00
467.5920, 18672.00
468.7790, 18129.00
469.9650, 17470.00
471.1520, 16871.00
472.3380, 16371.00
473.5250, 15645.00
474.7110, 15142.00
475.8970, 14803.00
477.0820, 14379.00
478.2680, 14072.00
479.4540, 13711.10
480.6390, 13333.00
481.8240, 13060.00
483.0090, 12858.00
484.1940, 12597.00
485.3780, 12328.00
486.5630, 12479.00
487.7470, 12090.00
488.9320, 12118.00
490.1160, 12052.00
491.3000, 11959.00
492.4830, 11912.00
493.6670, 11885.00
494.8500, 11895.00
496.0340, 11770.00
497.2170, 11675.00
498.4000, 11612.76
499.5820, 11467.30
500.7650, 11431.00
501.9480, 11265.00
503.1300, 11156.00
504.3120, 11179.00
505.4940, 11030.00
506.6760, 10956.00
507.8580, 10806.00
509.0390, 10568.00
510.2210, 10643.00
511.4020, 10654.00
512.5830, 10493.00
513.7640, 10558.00
514.9450, 10532.00
516.1250, 10732.00
517.3060, 10805.00
518.4860, 10901.00
519.6660, 10898.00
520.8460, 11222.00
522.0260, 11435.00
523.2060, 11507.00
524.3850, 11840.00
525.5650, 12103.00
526.7440, 12452.00
527.9230, 12556.00
529.1020, 12975.00
530.2810, 13310.00
531.4590, 13775.00
532.6380, 14119.09
533.8160, 14387.00
534.9940, 14838.00
536.1720, 15076.55
537.3500, 15400.06
538.5270, 15641.00
539.7050, 15886.00
540.8820, 16031.00
542.0590, 16367.00
543.2360, 16308.00
544.4130, 16577.00
545.5900, 16508.00
546.7660, 16282.00
547.9430, 16373.00
549.1190, 16342.00
550.2950, 16350.00
551.4710, 16055.00
552.6470, 15963.00
553.8220, 15708.00
554.9980, 15643.00
556.1730, 15366.00
557.3480, 15362.00
558.5230, 15168.00
559.6980, 15047.00
560.8730, 15025.00
562.0470, 15086.00
563.2220, 15018.00
564.3960, 15064.00
565.5700, 15094.00
566.7440, 15106.00
567.9170, 15439.00
569.0910, 15560.00
570.2640, 15956.00
571.4380, 16238.00
572.6110, 16514.00
573.7840, 16716.00
574.9570, 17155.00
576.1290, 17435.00
577.3020, 17758.00
578.4740, 17869.00
579.6460, 18073.00
580.8180, 18200.00
581.9900, 18182.00
583.1620, 18092.00
584.3330, 18059.00
585.5040, 17630.00
586.6760, 17324.00
587.8470, 16911.00
589.0180, 16295.00
590.1880, 15914.00
591.3590, 15305.00
592.5290, 15047.00
593.7000, 14416.00
594.8700, 14006.00
596.0400, 13831.00
597.2090, 13325.00
598.3790, 13161.00
599.5490, 12688.00
600.7180, 12619.00
601.8870, 12312.00
603.0560, 12001.00
604.2250, 11880.00
605.3940, 11648.18
606.5620, 11558.00
607.7300, 11415.00
608.8990, 11398.00
610.0670, 11448.00
611.2350, 11235.00
612.4020, 11342.00
613.5700, 11329.00
614.7370, 11207.00
615.9050, 11339.03
617.0720, 11505.00
618.2390, 11486.00
619.4060, 11447.00
620.5720, 11526.00
621.7390, 11446.00
622.9050, 11647.00
624.0710, 11691.00
625.2370, 11852.00
626.4030, 11904.00
627.5690, 12090.00
628.7340, 12016.00
629.9000, 12298.00
631.0650, 12380.00
632.2300, 12298.00
633.3950, 12346.00
634.5600, 12517.00
635.7240, 12622.00
636.8890, 12704.00
638.0530, 12691.00
639.2170, 12480.00
640.3810, 12515.00
641.5450, 12381.00
642.7080, 12423.00
643.8720, 12228.00
645.0350, 12200.00
646.1980, 11953.00
647.3610, 11667.00
648.5240, 11587.00
649.6870, 11399.00
650.8490, 11159.00
652.0120, 10807.00
653.1740, 10520.00
654.3360, 10540.00
655.4980, 10149.00
656.6600, 9968.000
657.8210, 9740.000
658.9830, 9415.000
660.1440, 9233.000
661.3050, 8990.801
662.4660, 8853.000
663.6270, 8627.000
664.7870, 8531.000
665.9480, 8484.000
667.1080, 8326.000
668.2680, 8131.000
669.4280, 8078.000
670.5880, 7886.000
671.7480, 7813.000
672.9070, 7681.000
674.0670, 7531.000
675.2260, 7431.000
676.3850, 7372.000
677.5440, 7302.000
678.7030, 7213.423
679.8610, 7156.032
681.0200, 7033.000
682.1780, 7013.000
683.3360, 6896.000
684.4940, 6798.000
685.6520, 6785.000
686.8090, 6851.000
687.9670, 6620.000
689.1240, 6661.000
690.2810, 6621.000
691.4380, 6539.000
692.5950, 6479.000
693.7520, 6415.000
694.9080, 6486.000
696.0650, 6428.000
697.2210, 6398.000
698.3770, 6338.000
699.5330, 6346.000
700.6880, 6310.000
701.8440, 6292.000
702.9990, 6221.000
704.1550, 6141.000
705.3100, 6248.000
706.4650, 6253.000
707.6190, 6119.000
708.7740, 6118.000
709.9290, 6070.000
711.0830, 6152.000
712.2370, 6093.000
713.3910, 6270.000
714.5450, 6144.675
715.6980, 6205.000
716.8520, 6023.000
718.0050, 5923.000
719.1580, 6001.000
720.3110, 5940.000
721.4640, 6026.000
722.6170, 6015.286
723.7700, 5963.000
724.9220, 6002.000
726.0740, 5994.000
727.2260, 5942.000
728.3780, 5948.000
729.5300, 5939.000
730.6810, 5847.000
731.8330, 5886.000
732.9840, 5837.113
734.1350, 5808.104
735.2860, 5822.000
736.4370, 5800.000
737.5880, 5857.000
738.7380, 5956.000
739.8880, 5906.000
741.0390, 5854.000
742.1890, 5899.000
743.3380, 5789.000
744.4880, 5903.000
745.6380, 5866.000
746.7870, 5856.000
747.9360, 5785.000
749.0850, 5875.000
750.2340, 5830.000
751.3830, 5916.000
752.5310, 5942.000
753.6800, 5923.000
754.8280, 5889.000
755.9760, 5898.000
757.1240, 5879.000
758.2720, 5841.000
759.4190, 5866.000
760.5670, 5889.000
761.7140, 5796.000
762.8610, 5742.000
764.0080, 5912.000
765.1550, 5884.000
766.3020, 5818.000
767.4480, 5800.000
768.5950, 5786.000
769.7410, 5723.000
770.8870, 5809.000
772.0330, 5837.000
773.1780, 5806.000
774.3240, 5822.000
775.4690, 5835.311
776.6140, 5848.000
777.7590, 5833.000
778.9040, 5807.000
780.0490, 5726.000
781.1940, 5675.000
782.3380, 5699.000
783.4820, 5765.000
784.6260, 5774.000
785.7700, 5711.000
786.9140, 5703.000
788.0580, 5750.000
789.2010, 5658.000
790.3450, 5701.000
791.4880, 5660.000
792.6310, 5772.000
793.7730, 5633.000
794.9160, 5594.000
796.0590, 5733.000
797.2010, 5747.000
798.3430, 5634.000
799.4850, 5704.000
800.6270, 5744.000
801.7690, 5658.000
802.9100, 5670.000
804.0520, 5640.000
805.1930, 5635.000
806.3340, 5690.000
807.4750, 5694.000
808.6160, 5754.000
809.7560, 5650.000
810.8970, 5713.000
812.0370, 5578.000
813.1770, 5691.000
814.3170, 5654.000
815.4570, 5658.000
816.5960, 5632.000
817.7360, 5584.000
818.8750, 5555.000
820.0140, 5627.000
821.1530, 5578.000
822.2920, 5497.000
823.4310, 5575.000
824.5690, 5602.000
825.7070, 5516.000
826.8460, 5576.000
827.9840, 5389.000
829.1220, 5411.000
830.2590, 5435.000
831.3970, 5381.000
832.5340, 5358.000
833.6710, 5408.000
834.8080, 5324.000
835.9450, 5293.000
837.0820, 5331.000
838.2190, 5325.000
839.3550, 5292.974
840.4910, 5290.000
841.6270, 5198.000
842.7630, 5170.000
843.8990, 5066.000
845.0350, 5101.000
846.1700, 5089.000
847.3060, 5051.000
848.4410, 5008.000
849.5760, 4995.000
850.7100, 4910.000
851.8450, 4908.000
852.9800, 4821.000
854.1140, 4800.895
855.2480, 4843.000
856.3820, 4767.000
857.5160, 4710.000
858.6500, 4730.000
859.7830, 4658.000
860.9170, 4573.000
862.0500, 4546.000
863.1830, 4513.000
864.3160, 4503.000
865.4480, 4456.968
866.5810, 4442.164
867.7130, 4383.000
868.8460, 4390.000
869.9780, 4375.000
871.1100, 4328.000
872.2410, 4296.195
873.3730, 4247.000
874.5050, 4192.000
875.6360, 4160.000
876.7670, 4114.000
877.8980, 4085.854
879.0290, 4024.000
880.1590, 4025.000
881.2900, 4011.000
882.4200, 3959.000
883.5500, 3914.000
884.6800, 3977.000
885.8100, 3858.000
886.9400, 3863.000
888.0690, 3832.000
889.1990, 3765.694
890.3280, 3818.000
891.4570, 3696.000
892.5860, 3725.000
893.7140, 3750.000
894.8430, 3670.000
895.9710, 3628.000
897.1000, 3670.000
898.2280, 3645.000
899.3560, 3681.000
900.4830, 3579.000
901.6110, 3563.000
902.7380, 3577.000
903.8660, 3574.000
904.9930, 3570.080
906.1200, 3529.000
907.2460, 3554.849
908.3730, 3536.000
909.5000, 3505.000
910.6260, 3568.000
911.7520, 3469.000
912.8780, 3516.000
914.0040, 3521.000
915.1290, 3503.000
916.2550, 3506.418
917.3800, 3513.000
918.5050, 3472.000
919.6300, 3468.000
920.7550, 3461.000
921.8800, 3440.510
923.0040, 3435.348
924.1290, 3426.000
925.2530, 3423.000
926.3770, 3434.000
927.5010, 3450.000
928.6250, 3441.476
929.7480, 3393.000
930.8720, 3437.000
931.9950, 3381.000
933.1180, 3384.000
934.2410, 3368.000
935.3640, 3292.000
936.4860, 3416.000
937.6090, 3303.000
938.7310, 3305.000
939.8530, 3399.000
940.9750, 3354.000
942.0970, 3372.000
943.2180, 3298.000
944.3400, 3327.000
945.4610, 3372.000
946.5820, 3347.000
947.7030, 3374.000
948.8240, 3327.000
949.9450, 3255.000
951.0650, 3295.000
952.1860, 3346.000
953.3060, 3376.000
954.4260, 3247.000
955.5460, 3329.000
956.6650, 3270.000
957.7850, 3318.000
958.9040, 3263.000
960.0230, 3216.000
961.1420, 3339.000
962.2610, 3228.000
963.3800, 3307.000
964.4990, 3269.000
965.6170, 3216.000
966.7350, 3201.000
967.8530, 3218.000
968.9710, 3197.073
970.0890, 3225.000
971.2070, 3239.000
972.3240, 3199.000
973.4410, 3294.000
974.5580, 3278.000
975.6750, 3178.000
976.7920, 3209.000
977.9090, 3233.000
979.0250, 3197.000
980.1410, 3243.000
981.2580, 3195.000
982.3740, 3217.000
983.4890, 3182.000
984.6050, 3234.000
985.7200, 3216.000
986.8360, 3219.000
987.9510, 3273.000
989.0660, 3216.000
990.1810, 3175.000
991.2950, 3145.000
992.4100, 3213.000
993.5240, 3197.000
994.6390, 3219.000
995.7530, 3213.000
996.8660, 3166.000
997.9800, 3211.000
999.0940, 3163.000
1000.207, 3126.000
1001.320, 3166.000
1002.433, 3111.000
1003.546, 3113.000
1004.659, 3250.000
1005.772, 3140.517
1006.884, 3149.766
1007.996, 3061.000
1009.108, 3078.000
1010.220, 3108.000
1011.332, 3153.000
1012.444, 3105.000
1013.555, 3114.000
1014.666, 3150.000
1015.777, 3092.000
1016.888, 3097.000
1017.999, 3055.000
1019.110, 3099.000
1020.220, 3168.000
1021.331, 3038.000
1022.441, 2992.000
1023.551, 3076.000
1024.661, 3086.000
1025.770, 3079.000
1026.880, 3039.000
1027.989, 3042.283
1029.098, 3071.000
1030.207, 3032.000
1031.316, 3057.000
1032.425, 3090.000
1033.533, 3074.000
1034.642, 3018.000
1035.750, 3047.000
1036.858, 3004.000
1037.966, 3004.836
1039.073, 3016.000
1040.181, 3001.000
1041.288, 3020.000
1042.396, 3016.000
1043.503, 3016.000
1044.610, 3009.000
1045.716, 2976.000
1046.823, 2994.000
1047.929, 3033.000
1049.036, 2942.000
1050.142, 3054.000
1051.248, 3039.000
1052.353, 3031.000
1053.459, 2998.000
1054.564, 3035.000
1055.670, 3030.000
1056.775, 3011.000
1057.880, 3004.000
1058.985, 3032.000
1060.089, 3061.000
1061.194, 3039.000
1062.298, 2945.000
1063.402, 2972.000
1064.506, 2958.000
1065.610, 2934.000
1066.713, 2994.000
1067.817, 3031.000
1068.920, 2899.000
1070.023, 2969.000
1071.126, 2935.000
1072.229, 2988.000
1073.332, 2964.000
1074.435, 2921.000
1075.537, 2919.000
1076.639, 2913.127
1077.741, 2904.906
1078.843, 2926.000
1079.945, 2908.000
1081.046, 2907.000
1082.148, 2901.000
1083.249, 3037.000
1084.350, 2914.000
1085.451, 2885.000
1086.551, 2965.000
1087.652, 2785.000
1088.752, 2884.000
1089.853, 2837.000
1090.953, 2899.000
1092.053, 2869.000
1093.152, 2871.000
1094.252, 2890.000
1095.351, 2879.000
1096.451, 2865.000
1097.550, 2840.000
1098.649, 2833.897
1099.748, 2799.000
1100.846, 2818.000
1101.945, 2801.000
1103.043, 2802.000
1104.141, 2810.000
1105.239, 2802.000
1106.337, 2863.000
1107.434, 2801.000
1108.532, 2867.000
1109.629, 2832.000
1110.726, 2838.000
1111.823, 2777.000
1112.920, 2775.000
1114.017, 2815.000
1115.113, 2791.731
1116.210, 2774.691
1117.306, 2827.000
1118.402, 2735.000
1119.498, 2780.000
1120.593, 2826.000
1121.689, 2754.000
1122.784, 2817.000
1123.879, 2814.000
1124.974, 2822.000
1126.069, 2732.000
1127.164, 2762.000
1128.259, 2714.000
1129.353, 2729.000
1130.447, 2793.000
1131.541, 2743.000
1132.635, 2656.000
1133.729, 2748.000
1134.822, 2684.000
1135.916, 2722.000
1137.009, 2657.000
1138.102, 2653.000
1139.195, 2671.000
1140.288, 2704.000
1141.380, 2692.000
1142.473, 2674.000
1143.565, 2660.000
1144.657, 2644.000
1145.749, 2680.000
1146.841, 2637.000
1147.932, 2662.000
1149.024, 2713.000
1150.115, 2694.000
1151.206, 2621.000
1152.297, 2668.000
1153.388, 2611.000
1154.479, 2689.000
1155.569, 2614.000
1156.659, 2658.000
1157.750, 2560.000
1158.839, 2647.000
1159.929, 2572.000
1161.019, 2603.000
1162.108, 2615.000
1163.198, 2563.000
1164.287, 2638.000
1165.376, 2577.000
1166.465, 2625.000
1167.553, 2606.000
1168.642, 2588.000
1169.730, 2615.000
1170.818, 2572.000
1171.906, 2566.000
1172.994, 2607.000
1174.082, 2542.000
1175.170, 2618.000
1176.257, 2617.000
1177.344, 2637.000
1178.431, 2552.000
1179.518, 2593.000
1180.605, 2506.000
1181.691, 2573.000
1182.778, 2525.000
1183.864, 2571.000
1184.950, 2608.000
1186.036, 2545.000
1187.122, 2555.000
1188.207, 2593.000
1189.292, 2587.000
1190.378, 2543.000
1191.463, 2596.000
1192.548, 2458.000
1193.632, 2544.000
1194.717, 2569.000
1195.801, 2525.000
1196.886, 2567.000
1197.970, 2511.000
1199.054, 2577.000
1200.137, 2514.000
1201.221, 2546.000
1202.305, 2532.000
1203.388, 2544.000
1204.471, 2548.000
1205.554, 2572.000
1206.637, 2543.000
1207.719, 2482.000
1208.802, 2517.000
1209.884, 2487.000
1210.966, 2540.000
1212.048, 2476.000
1213.130, 2502.000
1214.212, 2514.000
1215.293, 2506.000
1216.374, 2526.850
1217.456, 2547.000
1218.536, 2548.000
1219.617, 2517.000
1220.698, 2527.000
1221.778, 2509.000
1222.859, 2461.000
1223.939, 2555.000
1225.019, 2480.000
1226.099, 2480.000
1227.178, 2497.672
1228.258, 2581.000
1229.337, 2494.000
1230.417, 2533.000
1231.496, 2523.000
1232.574, 2484.000
1233.653, 2446.000
1234.732, 2477.000
1235.810, 2508.000
1236.888, 2487.000
1237.966, 2530.000
1239.044, 2464.000
1240.122, 2488.000
1241.199, 2474.000
1242.277, 2486.000
1243.354, 2532.000
1244.431, 2485.000
1245.508, 2503.000
1246.585, 2482.000
1247.661, 2481.000
1248.738, 2487.000
1249.814, 2443.000
1250.890, 2466.000
1251.966, 2454.878
1253.042, 2454.000
1254.117, 2455.000
1255.193, 2476.000
1256.268, 2473.000
1257.343, 2479.000
1258.418, 2445.000
1259.493, 2462.975
1260.567, 2451.783
1261.642, 2468.000
1262.716, 2448.000
1263.790, 2426.000
1264.864, 2424.651
1265.938, 2474.000
1267.011, 2444.000
1268.085, 2484.000
1269.158, 2514.000
1270.231, 2459.000
1271.304, 2474.000
1272.377, 2522.000
1273.450, 2507.000
1274.522, 2488.000
1275.594, 2460.000
1276.666, 2487.000
1277.738, 2502.000
1278.810, 2459.000
1279.882, 2478.000
1280.953, 2472.000
1282.025, 2463.000
1283.096, 2466.000
1284.167, 2464.232
1285.238, 2423.000
1286.308, 2474.000
1287.379, 2480.000
1288.449, 2495.000
1289.519, 2438.000
1290.589, 2481.000
1291.659, 2514.000
1292.729, 2445.000
1293.798, 2509.000
1294.868, 2460.000
1295.937, 2463.424
1297.006, 2492.293
1298.075, 2476.000
1299.143, 2479.000
1300.212, 2520.000
1301.280, 2399.000
1302.348, 2487.000
1303.416, 2446.000
1304.484, 2482.000
1305.552, 2434.000
1306.620, 2469.000
1307.687, 2472.000
1308.754, 2443.000
1309.821, 2438.000
1310.888, 2457.000
1311.955, 2438.000
1313.021, 2487.000
1314.088, 2465.000
1315.154, 2468.000
1316.220, 2447.000
1317.286, 2399.000
1318.352, 2444.000
1319.417, 2417.000
1320.483, 2411.000
1321.548, 2483.000
1322.613, 2449.000
1323.678, 2514.000
1324.743, 2478.833
1325.807, 2487.163
1326.872, 2421.000
1327.936, 2471.000
1329.000, 2471.000
1330.064, 2441.000
1331.128, 2456.000
1332.191, 2439.000
1333.255, 2431.000
1334.318, 2462.000
1335.381, 2447.000
1336.444, 2384.000
1337.507, 2445.000
1338.569, 2369.000
1339.632, 2454.000
1340.694, 2462.000
1341.756, 2411.000
1342.818, 2430.000
1343.880, 2434.000
1344.941, 2389.000
1346.003, 2459.000
1347.064, 2426.000
1348.125, 2463.000
1349.186, 2430.000
1350.247, 2455.000
1351.308, 2434.000
1352.368, 2467.000
1353.428, 2404.000
1354.489, 2444.000
1355.549, 2475.000
1356.608, 2388.000
1357.668, 2492.000
1358.727, 2445.000
1359.787, 2388.000
1360.846, 2458.000
1361.905, 2354.000
1362.964, 2400.000
1364.022, 2402.000
1365.081, 2450.000
1366.139, 2387.000
1367.197, 2390.000
1368.255, 2431.000
1369.313, 2415.000
1370.371, 2459.000
1371.428, 2445.972
1372.486, 2391.000
1373.543, 2444.000
1374.600, 2396.000
1375.657, 2428.000
1376.713, 2415.000
1377.770, 2412.000
1378.826, 2415.000
1379.882, 2406.000
1380.938, 2397.661
1381.994, 2389.766
1383.050, 2387.000
1384.106, 2373.000
1385.161, 2397.000
1386.216, 2405.000
1387.271, 2432.000
1388.326, 2397.000
1389.381, 2386.000
1390.435, 2456.000
1391.490, 2361.000
1392.544, 2390.000
1393.598, 2453.000
1394.652, 2412.000
1395.705, 2377.000
1396.759, 2430.000
1397.812, 2419.000
1398.866, 2401.000
1399.919, 2414.000
1400.972, 2407.000
1402.024, 2400.000
1403.077, 2407.000
1404.129, 2401.620
1405.181, 2434.000
1406.233, 2406.000
1407.285, 2417.000
1408.337, 2429.465
1409.389, 2364.000
1410.440, 2421.000
1411.491, 2447.000
1412.542, 2402.000
1413.593, 2387.000
1414.644, 2387.000
1415.695, 2359.000
1416.745, 2400.000
1417.795, 2450.000
1418.845, 2422.000
1419.895, 2427.000
1420.945, 2419.147
1421.995, 2409.784
1423.044, 2383.000
1424.093, 2408.000
1425.142, 2398.000
1426.191, 2414.000
1427.240, 2468.000
1428.289, 2399.000
1429.337, 2363.000
1430.385, 2388.000
1431.433, 2423.000
1432.481, 2367.000
1433.529, 2408.000
1434.577, 2429.000
1435.624, 2362.000
1436.672, 2469.000
1437.719, 2430.000
1438.766, 2402.000
1439.812, 2374.000
1440.859, 2415.000
1441.905, 2419.000
1442.952, 2431.000
1443.998, 2402.000
1445.044, 2369.000
1446.090, 2475.000
1447.135, 2418.000
1448.181, 2403.000
1449.226, 2352.000
1450.271, 2429.000
1451.316, 2392.000
1452.361, 2419.000
1453.405, 2381.000
1454.450, 2407.000
1455.494, 2373.000
1456.538, 2423.000
1457.582, 2429.000
1458.626, 2433.000
1459.670, 2450.000
1460.713, 2441.741
1461.757, 2419.000
1462.800, 2425.000
1463.843, 2407.000
1464.886, 2386.000
1465.928, 2380.000
1466.971, 2389.000
1468.013, 2424.000
1469.055, 2414.000
1470.097, 2409.000
1471.139, 2404.000
1472.181, 2398.000
1473.222, 2423.000
1474.263, 2447.000
1475.305, 2463.000
1476.346, 2407.000
1477.386, 2495.000
1478.427, 2431.000
1479.468, 2465.000
1480.508, 2406.000
1481.548, 2383.000
1482.588, 2456.000
1483.628, 2458.000
1484.668, 2443.000
1485.707, 2447.000
1486.747, 2433.000
1487.786, 2472.000
1488.825, 2494.000
1489.864, 2464.000
1490.902, 2482.348
1491.941, 2437.000
1492.979, 2464.000
1494.017, 2426.000
1495.055, 2405.000
1496.093, 2519.000
1497.131, 2791.000
1498.168, 2614.551
1499.206, 2669.000
1500.243, 2422.000
1501.280, 2509.000
1502.317, 2487.000
1503.354, 2420.000
1504.390, 2385.000
1505.426, 2456.000
1506.463, 2486.000
1507.499, 2563.000
1508.535, 2420.000
1509.570, 2448.000
1510.606, 2488.000
1511.641, 2399.000
1512.676, 2502.000
1513.711, 2482.000
1514.746, 2501.000
1515.781, 2482.000
1516.816, 2453.000
1517.850, 2485.000
1518.884, 2495.000
1519.918, 2498.000
1520.952, 2503.000
1521.986, 2505.915
1523.019, 2505.000
1524.053, 2509.000
1525.086, 2504.000
1526.119, 2506.000
1527.152, 2515.000
1528.185, 2558.000
1529.217, 2533.000
1530.250, 2524.000
1531.282, 2494.000
1532.314, 2492.159
1533.346, 2496.000
1534.377, 2481.000
1535.409, 2500.285
1536.440, 2487.160
1537.472, 2522.000
1538.503, 2491.000
1539.534, 2504.000
1540.564, 2487.000
1541.595, 2529.000
1542.625, 2512.000
1543.656, 2543.000
1544.686, 2594.000
1545.716, 2579.000
1546.745, 2512.000
1547.775, 2565.000
1548.804, 2612.000
1549.834, 2653.000
1550.863, 2709.000
1551.892, 2723.000
1552.920, 2874.000
1553.949, 2946.000
1554.977, 3024.000
1556.006, 2745.000
1557.034, 2642.000
1558.062, 2579.000
1559.089, 2539.000
1560.117, 2603.000
1561.144, 2528.000
1562.172, 2595.000
1563.199, 2615.000
1564.226, 2529.000
1565.252, 2530.000
1566.279, 2602.000
1567.305, 2570.000
1568.332, 2590.000
1569.358, 2645.000
1570.384, 2664.000
##END=



