##NAMES=Brookite
##RRUFFID=R050363
##IDEAL CHEMISTRY=Ti^4+^O_2_
##LOCALITY=Magnet Cove, Arkansas, USA
##OWNER=RRUFF
##SOURCE=University of Arizona Mineral Museum
##DESCRIPTION=Black fragment of a prismatic crystal associated with quartz
##STATUS=The identification of this mineral has been confirmed by X-ray diffraction and chemical analysis
##URL=rruff.info/R050363
##MEASURED CHEMISTRY=(Ti_0.94_Nb^5+^_0.03_Fe^3+^_0.03_)_Î£=1_O_2_
##PIN_ID=L01274
##ORIENTATION=Laser parallel to c* (0 0 1). Fiducial mark perpendicular to laser is parallel to a [1 0 0]
51.43100, 571.0000
52.67100, 583.0000
53.91000, 579.0000
55.14900, 569.0000
56.38700, 559.0000
57.62600, 588.0000
58.86400, 642.0000
60.10300, 640.3079
61.34100, 672.7179
62.57900, 702.0000
63.81700, 736.0000
65.05400, 829.0000
66.29200, 928.0000
67.52900, 1059.000
68.76700, 1184.440
70.00400, 1340.259
71.24100, 1482.220
72.47700, 1652.000
73.71400, 1830.000
74.95100, 2031.000
76.18700, 2363.000
77.42300, 2406.000
78.65900, 2448.000
79.89500, 2704.000
81.13100, 2990.000
82.36700, 3417.000
83.60200, 3527.842
84.83700, 3652.650
86.07200, 3861.000
87.30800, 3823.000
88.54200, 4041.000
89.77700, 4437.000
91.01200, 4901.000
92.24600, 5178.000
93.48000, 5309.000
94.71400, 5469.000
95.94800, 5568.000
97.18200, 5594.000
98.41600, 5917.000
99.64900, 6031.559
100.8830, 6494.000
102.1160, 6509.000
103.3490, 7005.000
104.5820, 7385.000
105.8150, 8108.000
107.0470, 8891.000
108.2800, 9957.000
109.5120, 10993.00
110.7440, 10303.00
111.9760, 10141.00
113.2080, 10628.00
114.4400, 11602.00
115.6710, 12691.00
116.9030, 13664.00
118.1340, 14852.00
119.3650, 16633.00
120.5960, 18925.00
121.8270, 21400.00
123.0580, 23724.00
124.2880, 24399.00
125.5190, 23013.00
126.7490, 21681.00
127.9790, 21098.00
129.2090, 20905.00
130.4390, 21227.00
131.6680, 21484.00
132.8980, 21806.00
134.1270, 22183.00
135.3560, 22863.00
136.5850, 23897.00
137.8140, 25494.00
139.0430, 27143.00
140.2710, 29762.00
141.5000, 31977.00
142.7280, 35516.00
143.9560, 39603.00
145.1840, 43422.00
146.4120, 48251.00
147.6390, 52816.00
148.8670, 56431.00
150.0940, 58951.00
151.3210, 59998.00
152.5490, 58776.00
153.7750, 55591.00
155.0020, 51602.00
156.2290, 46473.00
157.4550, 41734.00
158.6810, 37138.00
159.9080, 33180.00
161.1340, 29406.00
162.3590, 26341.00
163.5850, 23400.00
164.8110, 20900.00
166.0360, 18842.00
167.2610, 16987.00
168.4860, 15389.00
169.7110, 13958.00
170.9360, 12690.00
172.1610, 11415.00
173.3850, 10360.00
174.6100, 9454.000
175.8340, 8920.000
177.0580, 8378.000
178.2820, 7977.000
179.5050, 7615.000
180.7290, 7354.000
181.9520, 7151.000
183.1760, 7010.000
184.3990, 7009.000
185.6220, 7122.197
186.8450, 7211.000
188.0670, 7671.000
189.2900, 8095.000
190.5120, 8629.000
191.7340, 8857.000
192.9560, 8504.000
194.1780, 8008.000
195.4000, 7461.000
196.6220, 7024.000
197.8430, 6696.000
199.0640, 6547.000
200.2860, 6629.000
201.5070, 6900.000
202.7270, 6898.000
203.9480, 6769.000
205.1690, 6552.000
206.3890, 6640.000
207.6090, 6872.000
208.8290, 7240.000
210.0490, 7368.000
211.2690, 7283.000
212.4890, 7045.000
213.7080, 6384.000
214.9280, 6096.000
216.1470, 5644.000
217.3660, 5336.000
218.5850, 5120.000
219.8030, 5071.000
221.0220, 4966.000
222.2400, 4895.000
223.4590, 4975.000
224.6770, 4950.000
225.8950, 5137.000
227.1120, 5184.000
228.3300, 5353.000
229.5480, 5610.000
230.7650, 5942.000
231.9820, 6185.000
233.1990, 6782.000
234.4160, 7428.000
235.6330, 8279.000
236.8490, 9377.000
238.0660, 11006.00
239.2820, 12860.00
240.4980, 15336.00
241.7140, 18144.00
242.9300, 20758.00
244.1460, 22232.00
245.3610, 22420.00
246.5770, 20952.00
247.7920, 18651.00
249.0070, 16444.00
250.2220, 14517.00
251.4370, 12988.00
252.6510, 11706.00
253.8660, 10642.12
255.0800, 9806.139
256.2940, 9350.000
257.5080, 8847.000
258.7220, 8802.000
259.9360, 8327.314
261.1490, 8198.000
262.3630, 7763.000
263.5760, 7587.000
264.7890, 7467.000
266.0020, 7459.000
267.2150, 7497.000
268.4270, 7521.000
269.6400, 7537.000
270.8520, 7645.000
272.0640, 7809.000
273.2760, 7975.000
274.4880, 8090.000
275.7000, 8346.000
276.9120, 8388.000
278.1230, 8567.000
279.3340, 8651.000
280.5450, 8667.000
281.7560, 8441.000
282.9670, 8447.000
284.1780, 8404.000
285.3880, 8149.000
286.5980, 8062.000
287.8090, 7967.000
289.0190, 7934.000
290.2290, 7839.000
291.4380, 7863.000
292.6480, 8045.000
293.8570, 8245.000
295.0670, 8295.000
296.2760, 8652.000
297.4850, 9044.000
298.6930, 9300.000
299.9020, 9620.000
301.1110, 10051.00
302.3190, 10719.00
303.5270, 11178.00
304.7350, 11896.00
305.9430, 12502.00
307.1510, 13260.00
308.3580, 14090.00
309.5660, 15006.00
310.7730, 15727.00
311.9800, 16448.00
313.1870, 17155.00
314.3940, 17675.00
315.6010, 18041.00
316.8070, 18140.00
318.0130, 18039.00
319.2200, 18030.00
320.4260, 17419.00
321.6310, 16984.00
322.8370, 16341.00
324.0430, 15510.00
325.2480, 14698.00
326.4540, 13571.00
327.6590, 12739.00
328.8640, 11830.00
330.0680, 11059.00
331.2730, 10380.00
332.4780, 9659.000
333.6820, 9187.000
334.8860, 8685.000
336.0900, 8280.000
337.2940, 7985.000
338.4980, 7638.000
339.7010, 7418.309
340.9050, 7178.000
342.1080, 7054.000
343.3110, 6907.000
344.5140, 6774.000
345.7170, 6907.000
346.9200, 6979.000
348.1220, 7072.000
349.3240, 7332.000
350.5270, 7552.000
351.7290, 7962.000
352.9310, 8267.000
354.1320, 8946.000
355.3340, 9721.000
356.5350, 10376.00
357.7370, 11455.00
358.9380, 12450.00
360.1390, 13348.00
361.3400, 13886.00
362.5400, 14103.00
363.7410, 13753.00
364.9410, 12997.00
366.1410, 12052.00
367.3410, 11109.00
368.5410, 10245.00
369.7410, 9614.000
370.9400, 8922.000
372.1400, 8564.000
373.3390, 8045.000
374.5380, 7783.000
375.7370, 7587.000
376.9360, 7510.000
378.1350, 7524.000
379.3330, 7436.000
380.5310, 7411.000
381.7300, 7397.000
382.9280, 7446.000
384.1260, 7472.000
385.3230, 7572.000
386.5210, 7645.000
387.7180, 7611.000
388.9160, 7642.085
390.1130, 7630.000
391.3100, 7563.000
392.5060, 7507.000
393.7030, 7496.593
394.9000, 7443.000
396.0960, 7492.000
397.2920, 7478.000
398.4880, 7541.000
399.6840, 7530.000
400.8800, 7697.000
402.0750, 7723.000
403.2710, 7840.000
404.4660, 7835.000
405.6610, 7883.000
406.8560, 7921.000
408.0510, 7877.000
409.2450, 7919.000
410.4400, 7847.000
411.6340, 7765.000
412.8280, 7765.000
414.0220, 7629.000
415.2160, 7524.000
416.4100, 7428.000
417.6030, 7377.000
418.7970, 7237.000
419.9900, 7122.000
421.1830, 6971.000
422.3760, 6892.673
423.5690, 6809.000
424.7610, 6774.000
425.9540, 6678.000
427.1460, 6700.000
428.3380, 6646.000
429.5300, 6524.000
430.7220, 6610.000
431.9140, 6620.000
433.1050, 6626.000
434.2970, 6733.000
435.4880, 6846.000
436.6790, 6814.000
437.8700, 6947.000
439.0610, 7128.000
440.2510, 7233.000
441.4420, 7447.000
442.6320, 7650.000
443.8220, 7850.000
445.0120, 8076.589
446.2020, 8330.000
447.3910, 8541.000
448.5810, 8755.000
449.7700, 9018.000
450.9600, 9245.000
452.1490, 9468.000
453.3370, 9735.000
454.5260, 9939.000
455.7150, 10097.00
456.9030, 10275.00
458.0910, 10209.00
459.2800, 10316.00
460.4670, 10346.00
461.6550, 10283.00
462.8430, 10013.00
464.0300, 9927.000
465.2180, 9811.000
466.4050, 9768.000
467.5920, 9530.000
468.7790, 9369.000
469.9650, 9118.000
471.1520, 9095.000
472.3380, 8825.000
473.5250, 8827.000
474.7110, 8705.000
475.8970, 8570.000
477.0820, 8622.000
478.2680, 8400.000
479.4540, 8429.000
480.6390, 8419.000
481.8240, 8616.000
483.0090, 8441.000
484.1940, 8466.000
485.3780, 8661.000
486.5630, 8559.000
487.7470, 8679.000
488.9320, 8909.000
490.1160, 8816.000
491.3000, 8936.000
492.4830, 9115.000
493.6670, 9059.000
494.8500, 9112.000
496.0340, 9257.000
497.2170, 9027.000
498.4000, 9066.000
499.5820, 8913.000
500.7650, 8744.000
501.9480, 8548.000
503.1300, 8441.000
504.3120, 8352.000
505.4940, 8390.000
506.6760, 8460.000
507.8580, 7890.000
509.0390, 7943.000
510.2210, 7792.000
511.4020, 7842.000
512.5830, 7731.000
513.7640, 7672.000
514.9450, 7666.000
516.1250, 7673.249
517.3060, 7712.000
518.4860, 7775.000
519.6660, 7892.000
520.8460, 7941.000
522.0260, 8096.000
523.2060, 8422.000
524.3850, 8519.000
525.5650, 8680.000
526.7440, 8895.000
527.9230, 9071.000
529.1020, 9251.000
530.2810, 9475.993
531.4590, 9684.000
532.6380, 9931.000
533.8160, 10269.00
534.9940, 10540.00
536.1720, 10720.00
537.3500, 10981.00
538.5270, 11123.00
539.7050, 11291.00
540.8820, 11342.00
542.0590, 11550.00
543.2360, 11566.00
544.4130, 11629.00
545.5900, 11516.00
546.7660, 11401.00
547.9430, 11408.00
549.1190, 11317.00
550.2950, 11008.00
551.4710, 10903.00
552.6470, 10879.00
553.8220, 10585.00
554.9980, 10543.00
556.1730, 10243.00
557.3480, 10088.00
558.5230, 9842.000
559.6980, 9805.000
560.8730, 9732.000
562.0470, 9722.000
563.2220, 9384.000
564.3960, 9411.000
565.5700, 9758.000
566.7440, 9444.153
567.9170, 10041.00
569.0910, 9262.000
570.2640, 9293.000
571.4380, 9325.000
572.6110, 9346.000
573.7840, 9372.000
574.9570, 9525.000
576.1290, 9564.000
577.3020, 9732.000
578.4740, 9752.000
579.6460, 9768.000
580.8180, 9711.000
581.9900, 9742.000
583.1620, 9797.000
584.3330, 9642.000
585.5040, 9634.000
586.6760, 9474.000
587.8470, 9332.000
589.0180, 9208.000
590.1880, 9099.000
591.3590, 8954.000
592.5290, 8788.000
593.7000, 8683.129
594.8700, 8515.000
596.0400, 8459.000
597.2090, 8268.000
598.3790, 8182.000
599.5490, 8163.000
600.7180, 8114.043
601.8870, 8209.000
603.0560, 8134.000
604.2250, 8230.000
605.3940, 8223.000
606.5620, 8178.000
607.7300, 8322.000
608.8990, 8337.000
610.0670, 8407.000
611.2350, 8491.000
612.4020, 8529.000
613.5700, 8672.000
614.7370, 8831.000
615.9050, 9034.000
617.0720, 9104.000
618.2390, 9188.000
619.4060, 9335.000
620.5720, 9496.000
621.7390, 9687.000
622.9050, 9880.000
624.0710, 10048.00
625.2370, 10158.00
626.4030, 10416.00
627.5690, 10547.00
628.7340, 10720.00
629.9000, 10736.00
631.0650, 10977.00
632.2300, 11029.00
633.3950, 11249.00
634.5600, 11422.00
635.7240, 11412.00
636.8890, 11457.00
638.0530, 11633.00
639.2170, 11496.00
640.3810, 11583.00
641.5450, 11566.00
642.7080, 11486.00
643.8720, 11277.00
645.0350, 11110.00
646.1980, 10974.65
647.3610, 10683.00
648.5240, 10623.00
649.6870, 10393.00
650.8490, 10115.00
652.0120, 9749.000
653.1740, 9503.000
654.3360, 9239.000
655.4980, 8912.000
656.6600, 8705.000
657.8210, 8478.000
658.9830, 8219.000
660.1440, 8054.000
661.3050, 7864.000
662.4660, 7648.000
663.6270, 7480.000
664.7870, 7316.000
665.9480, 7131.933
667.1080, 6994.000
668.2680, 6816.000
669.4280, 6670.000
670.5880, 6559.558
671.7480, 6459.000
672.9070, 6314.000
674.0670, 6208.000
675.2260, 6098.000
676.3850, 6029.000
677.5440, 5849.000
678.7030, 5828.000
679.8610, 5803.000
681.0200, 5586.000
682.1780, 5553.000
683.3360, 5581.000
684.4940, 5504.000
685.6520, 5397.000
686.8090, 5387.000
687.9670, 5254.000
689.1240, 5162.000
690.2810, 5183.000
691.4380, 5169.000
692.5950, 5157.000
693.7520, 5149.000
694.9080, 4983.000
696.0650, 5066.000
697.2210, 4966.000
698.3770, 4963.000
699.5330, 4926.000
700.6880, 4875.000
701.8440, 4802.000
702.9990, 4875.000
704.1550, 4757.000
705.3100, 4816.000
706.4650, 4814.000
707.6190, 4759.000
708.7740, 4719.000
709.9290, 4667.000
711.0830, 4641.352
712.2370, 4656.000
713.3910, 4625.000
714.5450, 4608.000
715.6980, 4665.000
716.8520, 4536.000
718.0050, 4576.000
719.1580, 4626.000
720.3110, 4510.000
721.4640, 4576.000
722.6170, 4585.000
723.7700, 4488.000
724.9220, 4544.000
726.0740, 4556.000
727.2260, 4461.000
728.3780, 4476.000
729.5300, 4447.000
730.6810, 4463.000
731.8330, 4505.000
732.9840, 4430.000
734.1350, 4410.000
735.2860, 4421.000
736.4370, 4362.000
737.5880, 4356.497
738.7380, 4322.000
739.8880, 4321.000
741.0390, 4352.000
742.1890, 4362.000
743.3380, 4401.000
744.4880, 4433.000
745.6380, 4335.000
746.7870, 4334.000
747.9360, 4375.000
749.0850, 4443.000
750.2340, 4318.000
751.3830, 4251.000
752.5310, 4408.000
753.6800, 4331.657
754.8280, 4301.000
755.9760, 4359.000
757.1240, 4260.000
758.2720, 4216.000
759.4190, 4323.000
760.5670, 4336.000
761.7140, 4299.000
762.8610, 4274.000
764.0080, 4189.000
765.1550, 4210.000
766.3020, 4205.000
767.4480, 4320.000
768.5950, 4359.000
769.7410, 4302.000
770.8870, 4276.000
772.0330, 4160.000
773.1780, 4172.000
774.3240, 4223.000
775.4690, 4159.000
776.6140, 4240.000
777.7590, 4138.000
778.9040, 4126.000
780.0490, 4210.000
781.1940, 4178.000
782.3380, 4129.000
783.4820, 4088.000
784.6260, 4117.000
785.7700, 4090.000
786.9140, 4201.000
788.0580, 4157.000
789.2010, 4066.000
790.3450, 4134.000
791.4880, 4031.000
792.6310, 4094.000
793.7730, 4020.000
794.9160, 4023.000
796.0590, 4070.000
797.2010, 3982.000
798.3430, 4049.000
799.4850, 4066.000
800.6270, 4072.000
801.7690, 4062.000
802.9100, 4111.000
804.0520, 4106.000
805.1930, 4109.274
806.3340, 4117.481
807.4750, 4088.000
808.6160, 4098.000
809.7560, 4055.000
810.8970, 4022.000
812.0370, 3997.000
813.1770, 3962.000
814.3170, 3999.000
815.4570, 3997.000
816.5960, 4044.000
817.7360, 4068.000
818.8750, 3987.000
820.0140, 3947.000
821.1530, 3946.000
822.2920, 3986.000
823.4310, 3880.000
824.5690, 3919.000
825.7070, 3984.000
826.8460, 3908.000
827.9840, 3914.000
829.1220, 3898.000
830.2590, 3840.000
831.3970, 3914.000
832.5340, 3797.000
833.6710, 3849.000
834.8080, 3804.000
835.9450, 3771.000
837.0820, 3775.000
838.2190, 3738.000
839.3550, 3725.363
840.4910, 3718.207
841.6270, 3690.000
842.7630, 3662.000
843.8990, 3643.000
845.0350, 3609.663
846.1700, 3585.054
847.3060, 3562.000
848.4410, 3529.000
849.5760, 3534.000
850.7100, 3507.000
851.8450, 3461.000
852.9800, 3411.000
854.1140, 3340.000
855.2480, 3347.000
856.3820, 3397.000
857.5160, 3413.000
858.6500, 3308.000
859.7830, 3304.000
860.9170, 3265.000
862.0500, 3209.000
863.1830, 3244.000
864.3160, 3189.271
865.4480, 3165.438
866.5810, 3138.000
867.7130, 3084.000
868.8460, 3060.000
869.9780, 2992.000
871.1100, 3055.000
872.2410, 3017.632
873.3730, 3031.000
874.5050, 2979.000
875.6360, 2925.000
876.7670, 2817.011
877.8980, 2808.925
879.0290, 2782.000
880.1590, 2786.000
881.2900, 2744.000
882.4200, 2780.000
883.5500, 2744.000
884.6800, 2709.000
885.8100, 2690.000
886.9400, 2715.000
888.0690, 2679.127
889.1990, 2662.000
890.3280, 2638.000
891.4570, 2603.000
892.5860, 2563.000
893.7140, 2560.000
894.8430, 2511.000
895.9710, 2582.000
897.1000, 2510.000
898.2280, 2524.000
899.3560, 2510.000
900.4830, 2462.000
901.6110, 2474.000
902.7380, 2434.000
903.8660, 2424.000
904.9930, 2433.000
906.1200, 2448.000
907.2460, 2416.000
908.3730, 2407.000
909.5000, 2417.000
910.6260, 2403.000
911.7520, 2445.000
912.8780, 2370.000
914.0040, 2404.000
915.1290, 2369.000
916.2550, 2389.000
917.3800, 2399.000
918.5050, 2413.000
919.6300, 2404.327
920.7550, 2319.000
921.8800, 2385.000
923.0040, 2323.000
924.1290, 2323.000
925.2530, 2306.000
926.3770, 2330.000
927.5010, 2351.000
928.6250, 2324.000
929.7480, 2336.000
930.8720, 2385.000
931.9950, 2329.000
933.1180, 2349.000
934.2410, 2315.000
935.3640, 2322.000
936.4860, 2298.000
937.6090, 2248.000
938.7310, 2302.000
939.8530, 2240.000
940.9750, 2281.000
942.0970, 2253.000
943.2180, 2267.000
944.3400, 2279.000
945.4610, 2272.000
946.5820, 2299.000
947.7030, 2272.000
948.8240, 2239.000
949.9450, 2240.000
951.0650, 2235.000
952.1860, 2223.000
953.3060, 2197.000
954.4260, 2192.000
955.5460, 2205.000
956.6650, 2181.354
957.7850, 2239.000
958.9040, 2192.000
960.0230, 2168.000
961.1420, 2248.000
962.2610, 2144.000
963.3800, 2220.000
964.4990, 2215.000
965.6170, 2227.000
966.7350, 2187.000
967.8530, 2173.000
968.9710, 2126.000
970.0890, 2235.000
971.2070, 2188.000
972.3240, 2131.000
973.4410, 2187.000
974.5580, 2119.000
975.6750, 2118.000
976.7920, 2175.000
977.9090, 2137.000
979.0250, 2093.000
980.1410, 2105.000
981.2580, 2143.000
982.3740, 2160.000
983.4890, 2114.000
984.6050, 2152.000
985.7200, 2167.000
986.8360, 2112.000
987.9510, 2172.000
989.0660, 2144.000
990.1810, 2170.000
991.2950, 2150.000
992.4100, 2151.000
993.5240, 2207.000
994.6390, 2160.682
995.7530, 2103.000
996.8660, 2144.000
997.9800, 2074.000
999.0940, 2133.000
1000.207, 2097.000
1001.320, 2070.000
1002.433, 2091.000
1003.546, 2103.000
1004.659, 2097.000
1005.772, 2107.000
1006.884, 2139.000
1007.996, 2116.215
1009.108, 2118.912
1010.220, 2088.000
1011.332, 2085.000
1012.444, 2069.000
1013.555, 2039.000
1014.666, 2017.000
1015.777, 2045.000
1016.888, 2029.000
1017.999, 2026.000
1019.110, 2085.000
1020.220, 1988.000
1021.331, 2069.000
1022.441, 2022.000
1023.551, 2034.000
1024.661, 2024.000
1025.770, 2042.000
1026.880, 1988.000
1027.989, 2033.000
1029.098, 1979.000
1030.207, 2029.000
1031.316, 1991.000
1032.425, 2015.000
1033.533, 2017.000
1034.642, 1964.000
1035.750, 2010.000
1036.858, 1959.000
1037.966, 1967.000
1039.073, 2045.000
1040.181, 1988.000
1041.288, 1979.000
1042.396, 1978.000
1043.503, 1965.186
1044.610, 2003.000
1045.716, 1982.000
1046.823, 1974.000
1047.929, 1993.000
1049.036, 1978.000
1050.142, 1971.000
1051.248, 1995.000
1052.353, 1986.000
1053.459, 1957.000
1054.564, 2005.000
1055.670, 1968.000
1056.775, 1966.000
1057.880, 1965.000
1058.985, 1943.000
1060.089, 1941.000
1061.194, 1932.000
1062.298, 1905.000
1063.402, 1951.000
1064.506, 1997.000
1065.610, 1924.000
1066.713, 1924.000
1067.817, 1927.000
1068.920, 1986.000
1070.023, 1965.000
1071.126, 1937.000
1072.229, 1951.000
1073.332, 1917.000
1074.435, 1947.000
1075.537, 1967.000
1076.639, 1937.000
1077.741, 1940.000
1078.843, 1945.000
1079.945, 1898.000
1081.046, 1919.000
1082.148, 1934.000
1083.249, 1940.000
1084.350, 1897.000
1085.451, 1876.000
1086.551, 1864.000
1087.652, 1859.659
1088.752, 1858.335
1089.853, 1876.000
1090.953, 1872.000
1092.053, 1878.000
1093.152, 1889.000
1094.252, 1857.000
1095.351, 1872.000
1096.451, 1912.000
1097.550, 1879.000
1098.649, 1852.000
1099.748, 1921.000
1100.846, 1860.000
1101.945, 1866.000
1103.043, 1861.000
1104.141, 1837.000
1105.239, 1892.000
1106.337, 1871.000
1107.434, 1850.000
1108.532, 1895.000
1109.629, 1802.000
1110.726, 1853.000
1111.823, 1822.000
1112.920, 1846.000
1114.017, 1813.000
1115.113, 1820.000
1116.210, 1817.000
1117.306, 1855.000
1118.402, 1861.000
1119.498, 1769.000
1120.593, 1826.000
1121.689, 1798.000
1122.784, 1805.000
1123.879, 1825.000
1124.974, 1799.000
1126.069, 1812.000
1127.164, 1816.000
1128.259, 1790.000
1129.353, 1778.000
1130.447, 1802.000
1131.541, 1805.000
1132.635, 1772.000
1133.729, 1760.000
1134.822, 1805.000
1135.916, 1763.000
1137.009, 1794.000
1138.102, 1741.000
1139.195, 1768.000
1140.288, 1819.000
1141.380, 1730.000
1142.473, 1780.000
1143.565, 1747.000
1144.657, 1767.000
1145.749, 1769.000
1146.841, 1781.000
1147.932, 1795.438
1149.024, 1820.008
1150.115, 1820.892
1151.206, 1722.000
1152.297, 1721.000
1153.388, 1721.000
1154.479, 1717.000
1155.569, 1734.000
1156.659, 1748.000
1157.750, 1733.000
1158.839, 1722.000
1159.929, 1725.000
1161.019, 1711.000
1162.108, 1712.545
1163.198, 1714.916
1164.287, 1714.000
1165.376, 1726.000
1166.465, 1732.000
1167.553, 1742.000
1168.642, 1674.000
1169.730, 1687.000
1170.818, 1667.000
1171.906, 1716.000
1172.994, 1690.000
1174.082, 1687.000
1175.170, 1685.000
1176.257, 1690.000
1177.344, 1672.823
1178.431, 1690.000
1179.518, 1639.000
1180.605, 1640.000
1181.691, 1621.375
1182.778, 1666.000
1183.864, 1643.000
1184.950, 1653.000
1186.036, 1686.000
1187.122, 1685.000
1188.207, 1671.000
1189.292, 1696.000
1190.378, 1691.000
1191.463, 1664.000
1192.548, 1660.000
1193.632, 1645.000
1194.717, 1707.000
1195.801, 1601.000
1196.886, 1684.000
1197.970, 1666.000
1199.054, 1652.000
1200.137, 1611.592
1201.221, 1637.639
1202.305, 1651.953
1203.388, 1655.164
1204.471, 1614.015
1205.554, 1630.148
1206.637, 1623.325
1207.719, 1615.561
1208.802, 1639.755
1209.884, 1605.059
1210.966, 1628.748
1212.048, 1629.130
1213.130, 1640.179
1214.212, 1628.131
1215.293, 1623.217
1216.374, 1641.409
1217.456, 1646.806
1218.536, 1632.100
1219.617, 1643.828
1220.698, 1608.326
1221.778, 1614.269
1222.859, 1638.093
1223.939, 1624.549
1225.019, 1636.699
1226.099, 1639.064
1227.178, 1596.955
1228.258, 1632.191
1229.337, 1633.977
1230.417, 1601.419
1231.496, 1634.005
1232.574, 1606.182
1233.653, 1599.921
1234.732, 1609.887
1235.810, 1602.938
1236.888, 1622.659
1237.966, 1616.687
1239.044, 1608.419
1240.122, 1610.169
1241.199, 1583.532
1242.277, 1609.559
1243.354, 1599.613
1244.431, 1607.548
1245.508, 1619.537
1246.585, 1600.490
1247.661, 1614.301
1248.738, 1709.000
1249.814, 1671.979
1250.890, 1607.000
1251.966, 1674.000
1253.042, 1657.000
1254.117, 1622.000
1255.193, 1638.000
1256.268, 1631.370
1257.343, 1639.000
1258.418, 1655.000
1259.493, 1647.579
1260.567, 1666.422
1261.642, 1641.000
1262.716, 1665.000
1263.790, 1612.000
1264.864, 1632.000
1265.938, 1611.000
1267.011, 1605.000
1268.085, 1633.000
1269.158, 1639.000
1270.231, 1645.000
1271.304, 1647.947
1272.377, 1646.632
1273.450, 1634.000
1274.522, 1634.000
1275.594, 1618.000
1276.666, 1598.000
1277.738, 1614.000
1278.810, 1625.000
1279.882, 1599.000
1280.953, 1602.000
1282.025, 1641.000
1283.096, 1587.000
1284.167, 1601.000
1285.238, 1631.000
1286.308, 1584.000
1287.379, 1590.000
1288.449, 1618.000
1289.519, 1603.000
1290.589, 1622.000
1291.659, 1582.000
1292.729, 1618.000
1293.798, 1610.000
1294.868, 1584.000
1295.937, 1610.000
1297.006, 1607.000
1298.075, 1624.000
1299.143, 1634.441
1300.212, 1692.000
1301.280, 1633.075
1302.348, 1630.000
1303.416, 1583.000
1304.484, 1630.000
1305.552, 1590.000
1306.620, 1608.000
1307.687, 1577.000
1308.754, 1615.000
1309.821, 1559.000
1310.888, 1575.000
1311.955, 1585.000
1313.021, 1639.000
1314.088, 1627.000
1315.154, 1556.000
1316.220, 1598.000
1317.286, 1614.000
1318.352, 1572.000
1319.417, 1602.000
1320.483, 1571.000
1321.548, 1634.000
1322.613, 1600.000
1323.678, 1625.000
1324.743, 1579.000
1325.807, 1590.000
1326.872, 1604.000
1327.936, 1553.000
1329.000, 1643.000
1330.064, 1609.000
1331.128, 1621.000
1332.191, 1614.000
1333.255, 1607.000
1334.318, 1540.000
1335.381, 1603.000
1336.444, 1531.000
1337.507, 1592.000
1338.569, 1611.000
1339.632, 1584.000
1340.694, 1578.000
1341.756, 1564.000
1342.818, 1570.000
1343.880, 1579.000
1344.941, 1579.000
1346.003, 1590.000
1347.064, 1627.000
1348.125, 1601.000
1349.186, 1604.000
1350.247, 1601.000
1351.308, 1543.729
1352.368, 1570.315
1353.428, 1585.166
1354.489, 1588.914
1355.549, 1548.302
1356.608, 1564.972
1357.668, 1558.685
1358.727, 1551.458
1359.787, 1576.190
1360.846, 1542.030
1361.905, 1566.255
1362.964, 1567.174
1364.022, 1578.760
1365.081, 1567.248
1366.139, 1562.870
1367.197, 1581.597
1368.255, 1587.531
1369.313, 1573.360
1370.371, 1585.624
1371.428, 1550.658
1372.486, 1557.136
1373.543, 1581.497
1374.600, 1568.488
1375.657, 1581.174
1376.713, 1584.074
1377.770, 1542.500
1378.826, 1578.271
1379.882, 1580.593
1380.938, 1548.569
1381.994, 1581.690
1383.050, 1554.402
1384.106, 1548.676
1385.161, 1559.177
1386.216, 1552.762
1387.271, 1566.000
1388.326, 1605.000
1389.381, 1529.000
1390.435, 1572.000
1391.490, 1565.690
1392.544, 1543.150
1393.598, 1576.000
1394.652, 1548.000
1395.705, 1537.000
1396.759, 1590.000
1397.812, 1595.000
1398.866, 1570.000
1399.919, 1579.000
1400.972, 1570.000
1402.024, 1574.000
1403.077, 1585.000
1404.129, 1558.000
1405.181, 1566.000
1406.233, 1576.000
1407.285, 1541.000
1408.337, 1595.000
1409.389, 1549.000
1410.440, 1583.000
1411.491, 1584.000
1412.542, 1549.000
1413.593, 1573.000
1414.644, 1553.000
1415.695, 1533.000
1416.745, 1540.000
1417.795, 1582.000
1418.845, 1565.642
1419.895, 1576.644
1420.945, 1588.000
1421.995, 1558.000
1423.044, 1603.000
1424.093, 1570.000
1425.142, 1567.000
1426.191, 1586.000
1427.240, 1578.000
1428.289, 1549.000
1429.337, 1602.000
1430.385, 1566.000
1431.433, 1572.000
1432.481, 1574.000
1433.529, 1572.000
1434.577, 1571.000
1435.624, 1575.000
1436.672, 1573.000
1437.719, 1578.000
1438.766, 1551.000
1439.812, 1545.000
1440.859, 1601.000
1441.905, 1566.000
1442.952, 1581.000
1443.998, 1574.000
1445.044, 1578.000
1446.090, 1549.000
1447.135, 1562.000
1448.181, 1563.000
1449.226, 1570.000
1450.271, 1578.000
1451.316, 1545.000
1452.361, 1594.000
1453.405, 1587.000
1454.450, 1591.000
1455.494, 1551.000
1456.538, 1620.000
1457.582, 1564.000
1458.626, 1586.000
1459.670, 1536.000
1460.713, 1561.000
1461.757, 1564.000
1462.800, 1592.000
1463.843, 1565.000
1464.886, 1607.000
1465.928, 1582.000
1466.971, 1598.000
1468.013, 1591.000
1469.055, 1579.000
1470.097, 1573.000
1471.139, 1571.000
1472.181, 1584.000
1473.222, 1578.000
1474.263, 1584.000
1475.305, 1570.000
1476.346, 1546.000
1477.386, 1571.000
1478.427, 1577.000
1479.468, 1540.000
1480.508, 1613.000
1481.548, 1595.000
1482.588, 1581.000
1483.628, 1569.000
1484.668, 1570.000
1485.707, 1566.954
1486.747, 1586.000
1487.786, 1599.000
1488.825, 1597.430
1489.864, 1590.000
1490.902, 1592.000
1491.941, 1574.000
1492.979, 1554.000
1494.017, 1593.000
1495.055, 1576.000
1496.093, 1595.000
1497.131, 1609.000
1498.168, 1554.000
1499.206, 1583.000
1500.243, 1563.000
1501.280, 1587.000
1502.317, 1607.000
1503.354, 1589.000
1504.390, 1616.000
1505.426, 1582.000
1506.463, 1609.000
1507.499, 1585.000
1508.535, 1637.000
1509.570, 1612.000
1510.606, 1613.000
1511.641, 1633.000
1512.676, 1611.000
1513.711, 1599.000
1514.746, 1626.000
1515.781, 1645.000
1516.816, 1573.000
1517.850, 1642.000
1518.884, 1639.000
1519.918, 1598.000
1520.952, 1640.000
1521.986, 1635.000
1523.019, 1616.000
1524.053, 1635.000
1525.086, 1678.000
1526.119, 1631.000
1527.152, 1675.000
1528.185, 1593.000
1529.217, 1656.000
1530.250, 1644.996
1531.282, 1628.280
1532.314, 1654.000
1533.346, 1634.000
1534.377, 1614.000
1535.409, 1653.000
1536.440, 1640.594
1537.472, 1652.885
1538.503, 1662.000
1539.534, 1660.000
1540.564, 1671.000
1541.595, 1649.000
1542.625, 1613.000
1543.656, 1613.000
1544.686, 1613.000
1545.716, 1616.000
1546.745, 1647.000
1547.775, 1627.000
1548.804, 1728.000
1549.834, 1732.000
1550.863, 1773.000
1551.892, 1770.000
1552.920, 1869.000
1553.949, 1912.000
1554.977, 1892.000
1556.006, 1820.000
1557.034, 1692.000
1558.062, 1671.000
1559.089, 1624.000
1560.117, 1674.000
1561.144, 1733.000
1562.172, 1755.678
1563.199, 1734.190
1564.226, 1841.000
1565.252, 1667.000
1566.279, 1638.000
1567.305, 1642.000
1568.332, 1717.000
1569.358, 1725.000
1570.384, 1751.000
##END=



