##NAMES=Brucite
##RRUFFID=R050455
##IDEAL CHEMISTRY=Mg(OH)_2_
##LOCALITY=Texas, Lancaster County, Pennsylvania, USA
##OWNER=RRUFF
##SOURCE=University of Arizona Mineral Museum
##DESCRIPTION=Group of green tabular crystals
##STATUS=The identification of this mineral has been confirmed by X-ray diffraction and chemical analysis
##URL=rruff.info/R050455
##MEASURED CHEMISTRY=(Mg_0.99_Mn_0.01_)(OH)_2_
##PIN_ID=M00147
##ORIENTATION=Laser parallel to c* (0 0 1). Fiducial mark perpendicular to laser is parallel to a [1 0 0]
107.0470, 16210.00
108.2800, 16557.00
109.5120, 16640.00
110.7440, 16785.00
111.9760, 16657.00
113.2080, 17071.00
114.4400, 16861.00
115.6710, 17129.00
116.9030, 17174.00
118.1340, 17243.00
119.3650, 17353.00
120.5960, 17250.00
121.8270, 17466.00
123.0580, 17459.00
124.2880, 17613.00
125.5190, 17549.00
126.7490, 17677.00
127.9790, 17948.00
129.2090, 17732.00
130.4390, 18025.00
131.6680, 18102.00
132.8980, 18121.00
134.1270, 18130.00
135.3560, 18083.00
136.5850, 18406.00
137.8140, 18287.00
139.0430, 18288.00
140.2710, 18517.00
141.5000, 18515.00
142.7280, 18393.00
143.9560, 18660.00
145.1840, 18748.00
146.4120, 18736.00
147.6390, 18857.00
148.8670, 18821.00
150.0940, 19074.00
151.3210, 18885.00
152.5490, 18875.00
153.7750, 19043.00
155.0020, 19047.00
156.2290, 19120.00
157.4550, 19056.00
158.6810, 19175.00
159.9080, 19183.00
161.1340, 19294.00
162.3590, 19354.00
163.5850, 19384.00
164.8110, 19449.00
166.0360, 19331.00
167.2610, 19593.00
168.4860, 19439.00
169.7110, 19533.00
170.9360, 19558.00
172.1610, 19692.00
173.3850, 19761.00
174.6100, 19548.00
175.8340, 19886.00
177.0580, 19821.00
178.2820, 19742.00
179.5050, 19875.00
180.7290, 19705.00
181.9520, 19852.00
183.1760, 19809.00
184.3990, 19945.00
185.6220, 20038.00
186.8450, 19936.00
188.0670, 20114.00
189.2900, 20028.00
190.5120, 20167.00
191.7340, 20281.00
192.9560, 20147.00
194.1780, 20219.00
195.4000, 20351.00
196.6220, 20510.00
197.8430, 20348.00
199.0640, 20525.00
200.2860, 20370.00
201.5070, 20408.00
202.7270, 20686.00
203.9480, 20687.00
205.1690, 20573.00
206.3890, 20593.00
207.6090, 20620.00
208.8290, 20766.00
210.0490, 20672.00
211.2690, 20768.00
212.4890, 20704.00
213.7080, 20790.00
214.9280, 20829.00
216.1470, 20900.00
217.3660, 21047.00
218.5850, 21073.00
219.8030, 21040.00
221.0220, 21017.00
222.2400, 20973.00
223.4590, 21140.00
224.6770, 21005.00
225.8950, 21139.00
227.1120, 21116.00
228.3300, 21210.00
229.5480, 21221.00
230.7650, 21370.00
231.9820, 21488.00
233.1990, 21410.00
234.4160, 21329.00
235.6330, 21519.00
236.8490, 21469.00
238.0660, 21490.00
239.2820, 21509.00
240.4980, 21663.00
241.7140, 21601.00
242.9300, 21605.00
244.1460, 21738.00
245.3610, 21728.87
246.5770, 21699.00
247.7920, 21827.00
249.0070, 21937.00
250.2220, 21948.00
251.4370, 22015.00
252.6510, 22051.00
253.8660, 22098.00
255.0800, 22096.00
256.2940, 22176.65
257.5080, 22364.00
258.7220, 22325.00
259.9360, 22335.00
261.1490, 22420.00
262.3630, 22754.00
263.5760, 22592.00
264.7890, 23083.00
266.0020, 22929.00
267.2150, 23481.00
268.4270, 23863.00
269.6400, 23912.00
270.8520, 24350.00
272.0640, 24427.00
273.2760, 24933.00
274.4880, 25057.00
275.7000, 25221.00
276.9120, 25339.00
278.1230, 25360.00
279.3340, 25040.00
280.5450, 24769.00
281.7560, 24255.00
282.9670, 24049.00
284.1780, 23772.00
285.3880, 23562.91
286.5980, 23446.00
287.8090, 23325.00
289.0190, 23269.00
290.2290, 23217.00
291.4380, 23066.00
292.6480, 23106.00
293.8570, 23104.00
295.0670, 22963.00
296.2760, 23233.00
297.4850, 23247.00
298.6930, 23302.00
299.9020, 23180.00
301.1110, 23270.00
302.3190, 23184.00
303.5270, 22967.00
304.7350, 23019.00
305.9430, 23195.00
307.1510, 23157.00
308.3580, 23401.00
309.5660, 23429.43
310.7730, 23391.00
311.9800, 23520.00
313.1870, 23554.00
314.3940, 23491.00
315.6010, 23422.00
316.8070, 23387.00
318.0130, 23460.00
319.2200, 23493.00
320.4260, 23456.00
321.6310, 23677.00
322.8370, 23513.00
324.0430, 23422.00
325.2480, 23651.00
326.4540, 23705.00
327.6590, 23715.00
328.8640, 23787.00
330.0680, 23750.00
331.2730, 23831.00
332.4780, 23629.00
333.6820, 23735.00
334.8860, 23941.00
336.0900, 23770.00
337.2940, 23909.00
338.4980, 23906.00
339.7010, 23985.00
340.9050, 24016.00
342.1080, 24129.00
343.3110, 23954.00
344.5140, 24071.00
345.7170, 23933.00
346.9200, 24103.00
348.1220, 24088.41
349.3240, 24287.00
350.5270, 24159.00
351.7290, 24249.00
352.9310, 24312.00
354.1320, 24359.00
355.3340, 24376.00
356.5350, 24392.86
357.7370, 24418.22
358.9380, 24459.06
360.1390, 24469.00
361.3400, 24557.00
362.5400, 24627.00
363.7410, 24686.48
364.9410, 24638.00
366.1410, 24761.00
367.3410, 24671.00
368.5410, 24590.00
369.7410, 24714.00
370.9400, 24628.00
372.1400, 24875.00
373.3390, 24755.00
374.5380, 24715.00
375.7370, 24883.00
376.9360, 24857.00
378.1350, 24979.00
379.3330, 24935.00
380.5310, 25104.00
381.7300, 24882.00
382.9280, 25121.00
384.1260, 25129.00
385.3230, 25184.00
386.5210, 25042.00
387.7180, 24988.00
388.9160, 25142.00
390.1130, 25137.00
391.3100, 25241.00
392.5060, 25442.00
393.7030, 25512.00
394.9000, 25403.00
396.0960, 25508.00
397.2920, 25626.00
398.4880, 25343.00
399.6840, 25669.00
400.8800, 25615.00
402.0750, 25605.00
403.2710, 25574.00
404.4660, 25563.00
405.6610, 25792.00
406.8560, 25741.00
408.0510, 25728.00
409.2450, 25912.00
410.4400, 25823.00
411.6340, 25794.00
412.8280, 26065.00
414.0220, 25866.00
415.2160, 26089.00
416.4100, 26053.00
417.6030, 26197.00
418.7970, 26362.00
419.9900, 26146.00
421.1830, 26303.00
422.3760, 26761.00
423.5690, 26734.00
424.7610, 26716.00
425.9540, 26816.00
427.1460, 27154.00
428.3380, 27379.00
429.5300, 27824.00
430.7220, 28279.00
431.9140, 28833.00
433.1050, 29456.00
434.2970, 30461.00
435.4880, 31176.00
436.6790, 32441.00
437.8700, 33426.00
439.0610, 34538.00
440.2510, 35176.00
441.4420, 35500.00
442.6320, 34740.00
443.8220, 34282.00
445.0120, 32902.00
446.2020, 31843.00
447.3910, 30835.00
448.5810, 30117.00
449.7700, 29248.00
450.9600, 28742.00
452.1490, 28439.00
453.3370, 28115.00
454.5260, 28001.00
455.7150, 27851.00
456.9030, 27664.00
458.0910, 27578.00
459.2800, 27497.00
460.4670, 27452.00
461.6550, 27391.00
462.8430, 27411.00
464.0300, 27420.00
465.2180, 27276.00
466.4050, 27457.00
467.5920, 27149.00
468.7790, 27382.00
469.9650, 27551.00
471.1520, 27373.00
472.3380, 27450.00
473.5250, 27631.00
474.7110, 27363.00
475.8970, 27487.00
477.0820, 27406.00
478.2680, 27539.00
479.4540, 27409.00
480.6390, 27417.00
481.8240, 27670.00
483.0090, 27636.00
484.1940, 27600.00
485.3780, 27858.00
486.5630, 27813.00
487.7470, 27566.00
488.9320, 27744.00
490.1160, 27911.00
491.3000, 27645.00
492.4830, 27761.00
493.6670, 27657.00
494.8500, 27845.00
496.0340, 27634.00
497.2170, 27931.00
498.4000, 27835.00
499.5820, 27968.00
500.7650, 27915.00
501.9480, 28121.00
503.1300, 28144.00
504.3120, 28172.00
505.4940, 27977.00
506.6760, 28140.00
507.8580, 28134.00
509.0390, 28032.00
510.2210, 28388.00
511.4020, 28413.00
512.5830, 28295.00
513.7640, 28183.00
514.9450, 28379.00
516.1250, 28643.00
517.3060, 28404.00
518.4860, 28307.00
519.6660, 28495.00
520.8460, 28318.00
522.0260, 28366.00
523.2060, 28303.00
524.3850, 28595.00
525.5650, 28712.00
526.7440, 28696.00
527.9230, 28577.00
529.1020, 28492.00
530.2810, 28607.00
531.4590, 28778.00
532.6380, 28933.00
533.8160, 28877.00
534.9940, 28595.00
536.1720, 28903.00
537.3500, 28975.00
538.5270, 28752.00
539.7050, 28965.00
540.8820, 29085.00
542.0590, 28976.00
543.2360, 29150.00
544.4130, 28987.00
545.5900, 28951.00
546.7660, 29204.00
547.9430, 29054.00
549.1190, 29105.00
550.2950, 29055.00
551.4710, 29089.00
552.6470, 29159.11
553.8220, 29245.00
554.9980, 29299.00
556.1730, 29285.00
557.3480, 29292.00
558.5230, 29341.09
559.6980, 29270.00
560.8730, 29438.00
562.0470, 29560.00
563.2220, 29642.00
564.3960, 29452.00
565.5700, 29811.00
566.7440, 29607.00
567.9170, 29754.00
569.0910, 29733.00
570.2640, 29627.00
571.4380, 29728.00
572.6110, 29796.00
573.7840, 29822.00
574.9570, 29693.00
576.1290, 29696.00
577.3020, 29812.00
578.4740, 29940.00
579.6460, 29884.00
580.8180, 29870.00
581.9900, 29861.00
583.1620, 29940.00
584.3330, 29986.60
585.5040, 29933.00
586.6760, 30146.00
587.8470, 30048.00
589.0180, 30077.00
590.1880, 30006.00
591.3590, 30060.00
592.5290, 30325.00
593.7000, 30169.00
594.8700, 30214.00
596.0400, 30187.00
597.2090, 30068.00
598.3790, 30206.44
599.5490, 30331.00
600.7180, 30418.00
601.8870, 30439.00
603.0560, 30557.00
604.2250, 30417.00
605.3940, 30439.00
606.5620, 30462.00
607.7300, 30666.00
608.8990, 30530.00
610.0670, 30643.00
611.2350, 30780.00
612.4020, 30745.00
613.5700, 30712.00
614.7370, 30861.00
615.9050, 30626.00
617.0720, 30839.00
618.2390, 30935.00
619.4060, 30778.00
620.5720, 30904.00
621.7390, 30801.00
622.9050, 30873.00
624.0710, 30975.00
625.2370, 31009.00
626.4030, 31025.00
627.5690, 31056.00
628.7340, 31222.00
629.9000, 31074.00
631.0650, 31194.00
632.2300, 31130.00
633.3950, 31039.00
634.5600, 31256.00
635.7240, 31238.00
636.8890, 31462.00
638.0530, 31197.00
639.2170, 31226.00
640.3810, 31220.00
641.5450, 31363.00
642.7080, 31307.00
643.8720, 31566.00
645.0350, 31622.00
646.1980, 31469.00
647.3610, 31258.00
648.5240, 31805.00
649.6870, 31687.00
650.8490, 31700.00
652.0120, 31533.00
653.1740, 31730.00
654.3360, 31603.00
655.4980, 31743.00
656.6600, 31762.00
657.8210, 31782.00
658.9830, 31858.57
660.1440, 31890.56
661.3050, 31968.00
662.4660, 32012.00
663.6270, 32113.00
664.7870, 32203.00
665.9480, 32102.00
667.1080, 31898.00
668.2680, 32020.00
669.4280, 32080.00
670.5880, 32212.00
671.7480, 32187.00
672.9070, 32165.00
674.0670, 32254.00
675.2260, 32233.17
676.3850, 32247.35
677.5440, 32279.00
678.7030, 32308.00
679.8610, 32338.00
681.0200, 32496.00
682.1780, 32380.00
683.3360, 32625.00
684.4940, 32732.00
685.6520, 32726.00
686.8090, 32516.00
687.9670, 32463.00
689.1240, 32761.00
690.2810, 32555.00
691.4380, 32698.00
692.5950, 32798.00
693.7520, 32913.00
694.9080, 32605.00
696.0650, 32895.00
697.2210, 32819.00
698.3770, 32960.00
699.5330, 33238.00
700.6880, 33105.00
701.8440, 33209.00
702.9990, 33256.51
704.1550, 33150.00
705.3100, 33303.00
706.4650, 33199.00
707.6190, 33221.00
708.7740, 33222.00
709.9290, 33278.00
711.0830, 33212.00
712.2370, 33435.00
713.3910, 33435.00
714.5450, 33436.00
715.6980, 33795.00
716.8520, 33627.00
718.0050, 33788.00
719.1580, 33756.00
720.3110, 33781.00
721.4640, 34155.00
722.6170, 33936.00
723.7700, 33978.00
724.9220, 33951.00
726.0740, 33813.00
727.2260, 33927.00
728.3780, 34171.00
729.5300, 34013.00
730.6810, 34140.00
731.8330, 34114.00
732.9840, 34096.00
734.1350, 34024.00
735.2860, 34207.00
736.4370, 34187.00
737.5880, 34245.00
738.7380, 34286.02
739.8880, 34201.00
741.0390, 34317.00
742.1890, 34301.00
743.3380, 34338.00
744.4880, 34276.00
745.6380, 34214.00
746.7870, 34096.00
747.9360, 34273.00
749.0850, 34401.00
750.2340, 34286.00
751.3830, 34291.00
752.5310, 34099.00
753.6800, 34485.00
754.8280, 34413.00
755.9760, 34392.00
757.1240, 34519.00
758.2720, 34419.00
759.4190, 34552.00
760.5670, 34495.00
761.7140, 34394.00
762.8610, 34463.00
764.0080, 34619.00
765.1550, 34481.00
766.3020, 34574.00
767.4480, 34789.00
768.5950, 34697.00
769.7410, 34586.00
770.8870, 34781.00
772.0330, 34870.00
773.1780, 34784.00
774.3240, 35210.00
775.4690, 34886.00
776.6140, 34986.00
777.7590, 35086.00
778.9040, 34837.00
780.0490, 34921.00
781.1940, 34988.00
782.3380, 35049.00
783.4820, 35142.00
784.6260, 35032.00
785.7700, 34873.00
786.9140, 35022.00
788.0580, 34942.00
789.2010, 35136.00
790.3450, 35261.00
791.4880, 35175.00
792.6310, 35134.00
793.7730, 35256.00
794.9160, 35136.00
796.0590, 35246.00
797.2010, 35316.00
798.3430, 35517.00
799.4850, 35618.00
800.6270, 35459.00
801.7690, 35428.00
802.9100, 35595.00
804.0520, 35392.00
805.1930, 35541.00
806.3340, 35829.00
807.4750, 35601.00
808.6160, 35710.00
809.7560, 35841.00
810.8970, 35631.00
812.0370, 35863.00
813.1770, 35926.00
814.3170, 35638.00
815.4570, 35840.00
816.5960, 35794.00
817.7360, 35732.00
818.8750, 36012.00
820.0140, 35876.00
821.1530, 35985.00
822.2920, 35910.00
823.4310, 35989.00
824.5690, 36030.00
825.7070, 35872.00
826.8460, 36035.00
827.9840, 36107.00
829.1220, 36074.00
830.2590, 36001.00
831.3970, 36207.00
832.5340, 36186.00
833.6710, 36373.00
834.8080, 36278.00
835.9450, 36352.00
837.0820, 36457.00
838.2190, 36202.00
839.3550, 36353.00
840.4910, 36450.00
841.6270, 36432.00
842.7630, 36406.00
843.8990, 36370.00
845.0350, 36435.00
846.1700, 36495.00
847.3060, 36529.00
848.4410, 36561.00
849.5760, 36725.00
850.7100, 36824.00
851.8450, 36611.00
852.9800, 36803.00
854.1140, 36763.00
855.2480, 36558.00
856.3820, 36784.00
857.5160, 36783.00
858.6500, 36858.00
859.7830, 36934.00
860.9170, 36803.00
862.0500, 36874.00
863.1830, 36788.00
864.3160, 36879.00
865.4480, 37107.00
866.5810, 36786.00
867.7130, 36995.00
868.8460, 36864.00
869.9780, 36978.00
871.1100, 36816.00
872.2410, 37119.00
873.3730, 37268.00
874.5050, 36981.00
875.6360, 37082.00
876.7670, 37214.00
877.8980, 37201.00
879.0290, 37237.00
880.1590, 37107.00
881.2900, 37328.00
882.4200, 37195.00
883.5500, 37433.00
884.6800, 37180.00
885.8100, 37484.00
886.9400, 37204.00
888.0690, 37462.00
889.1990, 37401.00
890.3280, 37312.00
891.4570, 37214.00
892.5860, 37660.00
893.7140, 37234.00
894.8430, 37478.00
895.9710, 37496.00
897.1000, 37443.00
898.2280, 37752.00
899.3560, 37777.00
900.4830, 37775.00
901.6110, 37760.00
902.7380, 37837.00
903.8660, 37864.00
904.9930, 37670.00
906.1200, 37827.00
907.2460, 37829.00
908.3730, 37785.00
909.5000, 38054.00
910.6260, 37857.00
911.7520, 37712.00
912.8780, 37836.00
914.0040, 37884.00
915.1290, 37907.00
916.2550, 37974.00
917.3800, 38227.00
918.5050, 38068.00
919.6300, 38372.00
920.7550, 38119.00
921.8800, 38258.00
923.0040, 38210.00
924.1290, 38713.00
925.2530, 38223.00
926.3770, 38143.00
927.5010, 38497.00
928.6250, 38335.00
929.7480, 38325.00
930.8720, 38534.00
931.9950, 38476.00
933.1180, 38301.00
934.2410, 38500.00
935.3640, 38541.00
936.4860, 38677.00
937.6090, 38624.00
938.7310, 38688.00
939.8530, 38802.00
940.9750, 38832.00
942.0970, 38654.00
943.2180, 38888.00
944.3400, 38798.00
945.4610, 38649.00
946.5820, 39101.00
947.7030, 38974.00
948.8240, 38727.00
949.9450, 39298.00
951.0650, 39241.00
952.1860, 38956.00
953.3060, 39046.00
954.4260, 39127.00
955.5460, 39223.00
956.6650, 39200.00
957.7850, 39180.00
958.9040, 39142.00
960.0230, 39181.51
961.1420, 39182.12
962.2610, 39299.00
963.3800, 39269.00
964.4990, 39396.00
965.6170, 39513.00
966.7350, 39563.00
967.8530, 39464.00
968.9710, 39564.00
970.0890, 39532.35
971.2070, 39610.00
972.3240, 39586.00
973.4410, 39788.00
974.5580, 39943.00
975.6750, 39806.00
976.7920, 39895.00
977.9090, 39920.00
979.0250, 39763.00
980.1410, 40030.00
981.2580, 39766.00
982.3740, 40276.00
983.4890, 39798.00
984.6050, 39981.00
985.7200, 40012.00
986.8360, 40051.00
987.9510, 39960.00
989.0660, 40019.21
990.1810, 40329.00
991.2950, 40112.00
992.4100, 40353.00
993.5240, 40547.00
994.6390, 40019.00
995.7530, 40074.00
996.8660, 40295.00
997.9800, 40344.00
999.0940, 40621.00
1000.207, 40437.00
1001.320, 40582.00
1002.433, 40662.00
1003.546, 40540.00
1004.659, 40444.00
1005.772, 40732.00
1006.884, 40554.00
1007.996, 40738.00
1009.108, 40875.00
1010.220, 40514.00
1011.332, 40864.00
1012.444, 41043.00
1013.555, 40863.00
1014.666, 40889.00
1015.777, 40860.00
1016.888, 40875.00
1017.999, 41064.00
1019.110, 41250.00
1020.220, 41237.11
1021.331, 41274.00
1022.441, 41215.00
1023.551, 41192.00
1024.661, 41234.13
1025.770, 41356.00
1026.880, 41324.00
1027.989, 41385.00
1029.098, 41469.00
1030.207, 41443.38
1031.316, 41470.46
1032.425, 41446.00
1033.533, 41445.00
1034.642, 41439.00
1035.750, 41428.00
1036.858, 41478.96
1037.966, 41691.00
1039.073, 41546.00
1040.181, 41684.00
1041.288, 41634.00
1042.396, 41514.00
1043.503, 41614.00
1044.610, 41429.00
1045.716, 41760.00
1046.823, 41537.00
1047.929, 41922.00
1049.036, 41701.00
1050.142, 41769.00
1051.248, 42096.00
1052.353, 41996.00
1053.459, 41927.00
1054.564, 42061.00
1055.670, 41980.00
1056.775, 41885.00
1057.880, 42048.00
1058.985, 41773.00
1060.089, 42066.00
1061.194, 42336.00
1062.298, 42256.00
1063.402, 42166.00
1064.506, 42196.00
1065.610, 42413.00
1066.713, 42212.00
1067.817, 42267.00
1068.920, 42043.00
1070.023, 42275.00
1071.126, 42399.00
1072.229, 42599.00
1073.332, 42659.19
1074.435, 42257.00
1075.537, 42670.00
1076.639, 42584.00
1077.741, 42412.00
1078.843, 42718.00
1079.945, 42539.00
1081.046, 42828.00
1082.148, 42577.00
1083.249, 42712.00
1084.350, 42860.00
1085.451, 42867.00
1086.551, 42866.00
1087.652, 42792.00
1088.752, 42729.00
1089.853, 42759.48
1090.953, 43052.00
1092.053, 42837.00
1093.152, 42976.00
1094.252, 43090.00
1095.351, 43035.00
1096.451, 43163.91
1097.550, 42780.00
1098.649, 43194.00
1099.748, 43138.00
1100.846, 42951.00
1101.945, 43128.00
1103.043, 42948.00
1104.141, 43024.00
1105.239, 43495.00
1106.337, 43551.00
1107.434, 43379.00
1108.532, 43385.00
1109.629, 43398.00
1110.726, 43461.85
1111.823, 43750.00
1112.920, 43702.00
1114.017, 43761.00
1115.113, 43819.00
1116.210, 43709.00
1117.306, 43722.00
1118.402, 43658.00
1119.498, 43916.00
1120.593, 43782.00
1121.689, 44016.00
1122.784, 44124.00
1123.879, 43934.00
1124.974, 44248.00
1126.069, 44338.00
1127.164, 43865.00
1128.259, 43887.00
1129.353, 43987.00
1130.447, 44181.00
1131.541, 43817.00
1132.635, 44148.00
1133.729, 44149.00
1134.822, 44313.00
1135.916, 44424.00
1137.009, 44460.00
1138.102, 44523.60
1139.195, 44366.00
1140.288, 44539.00
1141.380, 44487.00
1142.473, 44470.00
1143.565, 44509.00
1144.657, 44455.00
1145.749, 44593.00
1146.841, 44305.00
1147.932, 44232.00
1149.024, 44999.00
1150.115, 44788.00
1151.206, 44690.00
1152.297, 44467.00
1153.388, 44895.00
1154.479, 44843.00
1155.569, 44912.00
1156.659, 44866.00
1157.750, 44998.00
1158.839, 45130.00
1159.929, 45018.00
1161.019, 44847.00
1162.108, 44937.00
1163.198, 45075.00
1164.287, 45222.00
1165.376, 45262.17
1166.465, 45307.10
1167.553, 45357.00
1168.642, 45267.00
1169.730, 45304.00
1170.818, 45221.00
1171.906, 45361.00
1172.994, 45375.64
1174.082, 45441.00
1175.170, 45454.00
1176.257, 45356.00
1177.344, 45251.00
1178.431, 45653.00
1179.518, 45284.00
1180.605, 45416.00
1181.691, 45731.00
1182.778, 45634.00
1183.864, 45744.00
1184.950, 45583.00
1186.036, 46022.00
1187.122, 45424.00
1188.207, 45635.00
1189.292, 45734.00
1190.378, 46109.00
1191.463, 45742.00
1192.548, 45935.00
1193.632, 46031.00
1194.717, 45986.00
1195.801, 46062.00
1196.886, 46046.00
1197.970, 46412.00
1199.054, 46158.00
1200.137, 46121.00
1201.221, 46219.00
1202.305, 45988.00
1203.388, 46259.00
1204.471, 46142.00
1205.554, 46360.00
1206.637, 46411.00
1207.719, 46048.00
1208.802, 46698.00
1209.884, 46532.00
1210.966, 46667.00
1212.048, 46196.00
1213.130, 46647.00
1214.212, 46361.00
1215.293, 46726.00
1216.374, 46789.00
1217.456, 46935.00
1218.536, 46912.00
1219.617, 46582.00
1220.698, 46892.00
1221.778, 46732.00
1222.859, 46896.00
1223.939, 47002.00
1225.019, 46816.00
1226.099, 47162.00
1227.178, 47041.00
1228.258, 46552.00
1229.337, 47013.00
1230.417, 47083.00
1231.496, 47036.00
1232.574, 47203.00
1233.653, 47145.00
1234.732, 47199.71
1235.810, 47317.00
1236.888, 47274.00
1237.966, 47341.00
1239.044, 47418.00
1240.122, 47622.00
1241.199, 47568.00
1242.277, 47521.00
1243.354, 47559.00
1244.431, 47456.00
1245.508, 47545.00
1246.585, 47600.00
1247.661, 47428.00
1248.738, 47767.00
1249.814, 47920.00
1250.890, 47550.00
1251.966, 47535.00
1253.042, 48066.00
1254.117, 47799.00
1255.193, 47934.00
1256.268, 48033.00
1257.343, 47928.00
1258.418, 47891.00
1259.493, 47908.79
1260.567, 47960.00
1261.642, 47928.00
1262.716, 47972.13
1263.790, 48224.00
1264.864, 48067.00
1265.938, 48131.00
1267.011, 48284.00
1268.085, 48008.00
1269.158, 48278.00
1270.231, 48439.00
1271.304, 48596.00
1272.377, 48442.00
1273.450, 48656.00
1274.522, 48626.00
1275.594, 48526.00
1276.666, 48547.00
1277.738, 48664.00
1278.810, 48682.00
1279.882, 49040.00
1280.953, 48776.00
1282.025, 48550.00
1283.096, 48772.00
1284.167, 49003.00
1285.238, 48708.00
1286.308, 49034.00
1287.379, 49247.00
1288.449, 48813.00
1289.519, 48994.00
1290.589, 48999.00
1291.659, 48990.00
1292.729, 49007.00
1293.798, 49026.00
1294.868, 49271.00
1295.937, 49237.00
1297.006, 49616.00
1298.075, 49197.00
1299.143, 49520.00
1300.212, 49308.00
1301.280, 49632.00
1302.348, 49384.00
1303.416, 49447.00
1304.484, 49325.00
1305.552, 49632.00
1306.620, 49487.00
1307.687, 49544.00
1308.754, 49943.00
1309.821, 49710.00
1310.888, 49763.00
1311.955, 49749.00
1313.021, 49802.00
1314.088, 50023.00
1315.154, 49921.00
1316.220, 49899.00
1317.286, 49499.00
1318.352, 50003.00
1319.417, 49779.00
1320.483, 49816.00
1321.548, 49950.00
1322.613, 50233.00
1323.678, 50248.00
1324.743, 50490.00
1325.807, 50216.00
1326.872, 50220.00
1327.936, 50340.00
1329.000, 50544.00
1330.064, 50153.00
1331.128, 49961.00
1332.191, 50243.00
1333.255, 50231.00
1334.318, 50310.00
1335.381, 50358.00
1336.444, 50622.00
1337.507, 50509.00
1338.569, 50680.00
1339.632, 50768.00
1340.694, 50344.00
1341.756, 50657.00
1342.818, 50781.00
1343.880, 50562.00
1344.941, 50727.00
1346.003, 50475.00
1347.064, 50927.00
1348.125, 50885.00
1349.186, 51017.00
1350.247, 50961.00
1351.308, 51015.00
1352.368, 51061.00
1353.428, 50920.00
1354.489, 51051.00
1355.549, 50974.00
1356.608, 51121.00
1357.668, 51009.00
1358.727, 51191.00
1359.787, 51274.00
1360.846, 51377.00
1361.905, 51459.00
1362.964, 51137.00
1364.022, 51608.00
1365.081, 51642.00
1366.139, 51385.00
1367.197, 51638.00
1368.255, 51320.00
1369.313, 51587.00
1370.371, 51812.00
1371.428, 51887.00
1372.486, 51292.00
1373.543, 51769.00
1374.600, 51804.00
1375.657, 51335.00
1376.713, 51916.00
1377.770, 52184.00
1378.826, 51865.00
1379.882, 51886.00
1380.938, 51789.00
1381.994, 51827.00
1383.050, 51748.00
1384.106, 52065.00
1385.161, 52168.00
1386.216, 52297.00
1387.271, 52433.00
1388.326, 52398.54
1389.381, 52267.00
1390.435, 52319.00
1391.490, 52278.00
1392.544, 52256.00
1393.598, 52392.00
1394.652, 52322.00
1395.705, 52387.00
1396.759, 52530.00
1397.812, 52448.00
1398.866, 52545.09
1399.919, 52529.00
1400.972, 52609.00
1402.024, 52655.00
1403.077, 52679.00
1404.129, 52772.00
1405.181, 52809.70
1406.233, 52626.00
1407.285, 52907.00
1408.337, 52727.00
1409.389, 52717.00
1410.440, 52965.00
1411.491, 52986.00
1412.542, 52966.00
1413.593, 53028.00
1414.644, 53097.00
1415.695, 53110.00
1416.745, 53102.00
1417.795, 53201.00
1418.845, 53079.00
1419.895, 53307.00
1420.945, 53155.00
1421.995, 53099.00
1423.044, 53245.00
1424.093, 53345.00
1425.142, 53215.00
1426.191, 53291.00
1427.240, 53557.00
1428.289, 53277.00
1429.337, 53730.00
1430.385, 53740.00
1431.433, 53529.00
1432.481, 53442.00
1433.529, 53875.00
1434.577, 53765.00
1435.624, 53883.00
1436.672, 53570.00
1437.719, 53737.00
1438.766, 54284.00
1439.812, 54035.00
1440.859, 54173.00
1441.905, 53761.00
1442.952, 54155.00
1443.998, 53946.00
1445.044, 54225.00
1446.090, 54215.00
1447.135, 54175.00
1448.181, 54040.00
1449.226, 54444.00
1450.271, 54321.00
1451.316, 54301.00
1452.361, 54391.00
1453.405, 54134.00
1454.450, 54305.00
1455.494, 54174.00
1456.538, 54570.00
1457.582, 54560.00
1458.626, 54836.00
1459.670, 54244.00
1460.713, 54642.00
1461.757, 54650.00
1462.800, 54446.00
1463.843, 54681.00
1464.886, 54763.00
1465.928, 54690.00
1466.971, 54871.00
1468.013, 54905.00
1469.055, 55120.00
1470.097, 54860.00
1471.139, 54809.00
1472.181, 54761.00
1473.222, 54776.00
1474.263, 55176.00
1475.305, 54889.00
1476.346, 55401.00
1477.386, 54928.00
1478.427, 55075.00
1479.468, 55264.00
1480.508, 55157.00
1481.548, 55404.00
1482.588, 55217.00
1483.628, 55332.00
1484.668, 55586.00
1485.707, 55187.00
1486.747, 55408.00
1487.786, 55662.00
1488.825, 55794.00
1489.864, 55529.00
1490.902, 55902.00
1491.941, 55698.00
1492.979, 55577.00
1494.017, 55588.00
1495.055, 55929.00
1496.093, 55761.00
1497.131, 55968.00
1498.168, 55960.00
1499.206, 55769.00
1500.243, 55580.00
1501.280, 55993.00
1502.317, 55479.00
1503.354, 56115.00
1504.390, 56047.00
1505.426, 56056.00
1506.463, 56014.00
1507.499, 56337.00
1508.535, 56007.00
1509.570, 55857.00
1510.606, 56420.00
1511.641, 56187.00
1512.676, 56072.00
1513.711, 56221.00
1514.746, 56112.00
1515.781, 56091.00
1516.816, 56513.00
1517.850, 56355.00
1518.884, 56264.00
1519.918, 56773.00
1520.952, 56518.00
1521.986, 56509.00
1523.019, 56571.00
1524.053, 56370.00
1525.086, 56543.00
1526.119, 56549.00
1527.152, 56659.00
1528.185, 56979.00
1529.217, 56848.00
1530.250, 57364.00
1531.282, 56795.00
1532.314, 56978.00
1533.346, 56997.00
1534.377, 56780.00
1535.409, 57124.00
1536.440, 57238.00
1537.472, 56851.00
1538.503, 57100.00
1539.534, 56931.00
1540.564, 56731.00
1541.595, 57464.00
1542.625, 57112.00
1543.656, 57198.00
1544.686, 57157.00
1545.716, 57225.00
1546.745, 57004.00
1547.775, 57492.00
1548.804, 57039.00
1549.834, 57476.00
1550.863, 57481.00
1551.892, 57391.00
1552.920, 57804.00
1553.949, 57645.00
1554.977, 57433.00
1556.006, 57463.00
1557.034, 57761.00
1558.062, 57868.00
1559.089, 57771.00
1560.117, 57837.00
1561.144, 57789.00
1562.172, 57892.00
1563.199, 57889.26
1564.226, 57932.67
1565.252, 57979.00
1566.279, 57922.00
1567.305, 58063.00
1568.332, 57841.00
1569.358, 58109.00
1570.384, 58522.00
##END=



