##NAMES=Brucite
##RRUFFID=R050455
##IDEAL CHEMISTRY=Mg(OH)_2_
##LOCALITY=Texas, Lancaster County, Pennsylvania, USA
##OWNER=RRUFF
##SOURCE=University of Arizona Mineral Museum
##DESCRIPTION=Group of green tabular crystals
##STATUS=The identification of this mineral has been confirmed by X-ray diffraction and chemical analysis
##URL=rruff.info/R050455
##MEASURED CHEMISTRY=(Mg_0.99_Mn_0.01_)(OH)_2_
##PIN_ID=M00121
##ORIENTATION=Laser parallel to a* (1 0 0). Fiducial mark perpendicular to laser is parallel to c [0 0 1]
107.0470, 16679.00
108.2800, 17221.00
109.5120, 17497.00
110.7440, 17217.00
111.9760, 16881.00
113.2080, 17116.00
114.4400, 17341.00
115.6710, 17349.00
116.9030, 17679.00
118.1340, 17528.00
119.3650, 17450.00
120.5960, 17666.00
121.8270, 17712.00
123.0580, 17979.00
124.2880, 17824.00
125.5190, 17905.00
126.7490, 17983.00
127.9790, 17951.00
129.2090, 18071.00
130.4390, 18307.00
131.6680, 18190.00
132.8980, 18372.00
134.1270, 18332.00
135.3560, 18497.00
136.5850, 18659.00
137.8140, 18676.00
139.0430, 18711.00
140.2710, 18904.00
141.5000, 18687.00
142.7280, 18914.00
143.9560, 18974.00
145.1840, 18998.00
146.4120, 18946.00
147.6390, 19279.00
148.8670, 19019.00
150.0940, 19376.00
151.3210, 19419.00
152.5490, 19284.00
153.7750, 19308.00
155.0020, 19308.34
156.2290, 19540.00
157.4550, 19387.00
158.6810, 19415.00
159.9080, 19551.00
161.1340, 19503.00
162.3590, 19713.00
163.5850, 19780.00
164.8110, 19819.00
166.0360, 20055.00
167.2610, 19950.00
168.4860, 20005.00
169.7110, 19922.00
170.9360, 20154.00
172.1610, 20207.00
173.3850, 20233.00
174.6100, 20247.00
175.8340, 20340.00
177.0580, 20333.00
178.2820, 20440.00
179.5050, 20591.00
180.7290, 20432.00
181.9520, 20395.00
183.1760, 20470.00
184.3990, 20516.00
185.6220, 20863.00
186.8450, 20798.00
188.0670, 20880.00
189.2900, 20817.00
190.5120, 20775.00
191.7340, 21006.00
192.9560, 20981.00
194.1780, 21161.00
195.4000, 21023.00
196.6220, 21091.00
197.8430, 21341.00
199.0640, 21408.00
200.2860, 21263.00
201.5070, 21403.00
202.7270, 21739.00
203.9480, 21449.00
205.1690, 21339.00
206.3890, 21516.00
207.6090, 21085.00
208.8290, 21257.00
210.0490, 21217.00
211.2690, 21255.36
212.4890, 21326.72
213.7080, 21529.00
214.9280, 21435.00
216.1470, 21521.00
217.3660, 21623.00
218.5850, 21586.00
219.8030, 21677.63
221.0220, 21841.00
222.2400, 21819.00
223.4590, 21863.00
224.6770, 22047.00
225.8950, 21885.00
227.1120, 22086.00
228.3300, 22134.00
229.5480, 22144.74
230.7650, 22061.00
231.9820, 22209.00
233.1990, 22306.00
234.4160, 22261.00
235.6330, 22339.00
236.8490, 22428.00
238.0660, 22603.00
239.2820, 22575.00
240.4980, 22498.00
241.7140, 22703.00
242.9300, 22747.00
244.1460, 22947.00
245.3610, 23010.00
246.5770, 23006.00
247.7920, 23086.00
249.0070, 23174.63
250.2220, 23275.00
251.4370, 23478.00
252.6510, 23658.00
253.8660, 23998.00
255.0800, 23995.00
256.2940, 24285.00
257.5080, 24696.00
258.7220, 25165.00
259.9360, 25525.00
261.1490, 25712.00
262.3630, 26181.00
263.5760, 26838.00
264.7890, 27227.00
266.0020, 28198.00
267.2150, 29056.00
268.4270, 29817.00
269.6400, 30454.00
270.8520, 31051.00
272.0640, 31659.00
273.2760, 32086.00
274.4880, 32157.00
275.7000, 32313.00
276.9120, 31489.00
278.1230, 30907.00
279.3340, 29787.00
280.5450, 29080.00
281.7560, 28394.00
282.9670, 27484.00
284.1780, 26830.00
285.3880, 26144.00
286.5980, 25674.76
287.8090, 25536.00
289.0190, 25118.00
290.2290, 24816.00
291.4380, 24946.00
292.6480, 24496.00
293.8570, 24576.00
295.0670, 24591.00
296.2760, 24342.00
297.4850, 24424.00
298.6930, 24385.00
299.9020, 24590.00
301.1110, 24221.00
302.3190, 24416.00
303.5270, 24429.00
304.7350, 24273.00
305.9430, 24368.00
307.1510, 24152.00
308.3580, 24201.00
309.5660, 24355.00
310.7730, 24595.00
311.9800, 24525.00
313.1870, 24469.00
314.3940, 24396.00
315.6010, 24507.00
316.8070, 24610.00
318.0130, 24669.00
319.2200, 24519.00
320.4260, 24741.00
321.6310, 24687.00
322.8370, 24845.00
324.0430, 24662.00
325.2480, 25007.00
326.4540, 24825.00
327.6590, 24713.00
328.8640, 24862.00
330.0680, 24967.00
331.2730, 24973.00
332.4780, 25059.00
333.6820, 24933.00
334.8860, 25170.00
336.0900, 24964.00
337.2940, 25082.00
338.4980, 25089.00
339.7010, 25198.00
340.9050, 25235.00
342.1080, 25242.00
343.3110, 25153.00
344.5140, 25320.00
345.7170, 25432.00
346.9200, 25659.00
348.1220, 25636.23
349.3240, 25726.23
350.5270, 25628.00
351.7290, 25754.00
352.9310, 25811.00
354.1320, 25808.00
355.3340, 25845.28
356.5350, 25685.00
357.7370, 25838.00
358.9380, 25815.00
360.1390, 25839.31
361.3400, 25963.00
362.5400, 25870.00
363.7410, 25945.00
364.9410, 26091.00
366.1410, 26180.00
367.3410, 26273.77
368.5410, 26124.00
369.7410, 26411.00
370.9400, 26393.00
372.1400, 26362.00
373.3390, 26515.00
374.5380, 26415.00
375.7370, 26473.00
376.9360, 26565.00
378.1350, 26529.00
379.3330, 26660.00
380.5310, 26546.00
381.7300, 26555.00
382.9280, 26744.00
384.1260, 26498.00
385.3230, 26857.00
386.5210, 26806.07
387.7180, 27331.00
388.9160, 26910.00
390.1130, 26939.00
391.3100, 26986.00
392.5060, 27336.00
393.7030, 26991.00
394.9000, 27050.00
396.0960, 27422.00
397.2920, 27289.00
398.4880, 27423.00
399.6840, 27497.00
400.8800, 27685.00
402.0750, 27512.00
403.2710, 27867.00
404.4660, 27519.00
405.6610, 28043.00
406.8560, 27796.00
408.0510, 28194.00
409.2450, 28189.00
410.4400, 28126.00
411.6340, 28248.00
412.8280, 28401.00
414.0220, 28774.00
415.2160, 28857.00
416.4100, 29102.00
417.6030, 29248.00
418.7970, 29298.00
419.9900, 29705.00
421.1830, 29716.00
422.3760, 30271.00
423.5690, 30797.00
424.7610, 31333.00
425.9540, 32352.00
427.1460, 32919.00
428.3380, 33833.00
429.5300, 35362.00
430.7220, 37094.00
431.9140, 39465.00
433.1050, 41732.00
434.2970, 44023.00
435.4880, 46576.00
436.6790, 49922.00
437.8700, 51425.00
439.0610, 52561.00
440.2510, 52329.00
441.4420, 51530.00
442.6320, 49411.00
443.8220, 46769.00
445.0120, 43987.00
446.2020, 40688.00
447.3910, 38395.00
448.5810, 36173.00
449.7700, 34677.00
450.9600, 33583.00
452.1490, 32729.00
453.3370, 32075.00
454.5260, 31564.00
455.7150, 31288.00
456.9030, 30916.00
458.0910, 30601.00
459.2800, 30436.21
460.4670, 30233.02
461.6550, 30207.00
462.8430, 30062.00
464.0300, 30097.00
465.2180, 30148.00
466.4050, 29825.00
467.5920, 29882.00
468.7790, 29814.00
469.9650, 29846.00
471.1520, 30048.00
472.3380, 29882.00
473.5250, 29868.00
474.7110, 29814.00
475.8970, 29772.27
477.0820, 29761.10
478.2680, 29759.00
479.4540, 29721.00
480.6390, 29723.61
481.8240, 29681.34
483.0090, 29857.00
484.1940, 29749.00
485.3780, 29909.00
486.5630, 30090.00
487.7470, 30004.00
488.9320, 30009.00
490.1160, 30175.00
491.3000, 30084.00
492.4830, 30030.00
493.6670, 30168.00
494.8500, 30175.00
496.0340, 30235.36
497.2170, 30262.00
498.4000, 30343.00
499.5820, 30393.00
500.7650, 30393.00
501.9480, 30192.00
503.1300, 30282.00
504.3120, 30284.00
505.4940, 30418.00
506.6760, 30431.00
507.8580, 30480.91
509.0390, 30400.00
510.2210, 30569.00
511.4020, 30610.00
512.5830, 30678.00
513.7640, 30467.00
514.9450, 30631.00
516.1250, 30511.00
517.3060, 30732.00
518.4860, 30697.00
519.6660, 30872.00
520.8460, 30723.00
522.0260, 30693.00
523.2060, 30874.00
524.3850, 31075.00
525.5650, 30828.00
526.7440, 31017.00
527.9230, 30910.00
529.1020, 31007.00
530.2810, 31154.00
531.4590, 30904.00
532.6380, 31386.00
533.8160, 31303.00
534.9940, 31346.00
536.1720, 31307.00
537.3500, 31296.00
538.5270, 31249.00
539.7050, 31343.00
540.8820, 31498.00
542.0590, 31536.00
543.2360, 31478.00
544.4130, 31385.00
545.5900, 31881.00
546.7660, 31535.00
547.9430, 31526.00
549.1190, 31799.00
550.2950, 31512.00
551.4710, 31612.00
552.6470, 31662.00
553.8220, 31918.00
554.9980, 31694.00
556.1730, 31895.00
557.3480, 31834.00
558.5230, 32077.00
559.6980, 31841.00
560.8730, 32159.00
562.0470, 31975.00
563.2220, 31881.00
564.3960, 32001.00
565.5700, 31943.95
566.7440, 32281.00
567.9170, 32080.00
569.0910, 32208.00
570.2640, 32330.00
571.4380, 32296.00
572.6110, 32390.00
573.7840, 32417.00
574.9570, 32292.00
576.1290, 32305.00
577.3020, 32449.00
578.4740, 32649.00
579.6460, 32787.00
580.8180, 32527.00
581.9900, 32752.00
583.1620, 32591.00
584.3330, 32444.00
585.5040, 32673.00
586.6760, 32828.00
587.8470, 32637.00
589.0180, 32970.00
590.1880, 33099.00
591.3590, 32987.00
592.5290, 32961.00
593.7000, 33281.00
594.8700, 32949.00
596.0400, 32927.00
597.2090, 33320.00
598.3790, 33199.00
599.5490, 33229.00
600.7180, 33387.00
601.8870, 33181.00
603.0560, 33367.00
604.2250, 33199.00
605.3940, 33247.00
606.5620, 33460.00
607.7300, 33392.00
608.8990, 33386.00
610.0670, 33702.00
611.2350, 33707.00
612.4020, 33750.00
613.5700, 33662.00
614.7370, 33581.00
615.9050, 33800.00
617.0720, 33795.00
618.2390, 33857.00
619.4060, 33776.00
620.5720, 33959.00
621.7390, 33855.00
622.9050, 34050.00
624.0710, 34040.00
625.2370, 34066.83
626.4030, 34069.00
627.5690, 34147.00
628.7340, 34141.00
629.9000, 34224.00
631.0650, 34188.00
632.2300, 34247.86
633.3950, 34625.00
634.5600, 34328.00
635.7240, 34544.00
636.8890, 34588.00
638.0530, 34343.00
639.2170, 34643.00
640.3810, 34741.00
641.5450, 34636.00
642.7080, 35076.00
643.8720, 35037.00
645.0350, 34982.00
646.1980, 35040.00
647.3610, 34971.00
648.5240, 35270.00
649.6870, 35209.00
650.8490, 35230.00
652.0120, 35034.00
653.1740, 35060.00
654.3360, 35178.00
655.4980, 35290.00
656.6600, 35256.00
657.8210, 35441.67
658.9830, 35490.00
660.1440, 35696.00
661.3050, 35686.00
662.4660, 35750.00
663.6270, 35753.00
664.7870, 35845.00
665.9480, 35731.00
667.1080, 35932.00
668.2680, 35641.00
669.4280, 36039.00
670.5880, 35965.00
671.7480, 36023.00
672.9070, 35964.00
674.0670, 36077.00
675.2260, 36331.00
676.3850, 36410.00
677.5440, 36617.00
678.7030, 36407.00
679.8610, 36800.00
681.0200, 36607.00
682.1780, 36762.00
683.3360, 36718.00
684.4940, 36571.00
685.6520, 36743.00
686.8090, 36991.00
687.9670, 36954.00
689.1240, 37157.00
690.2810, 37317.00
691.4380, 37474.00
692.5950, 37470.00
693.7520, 37492.00
694.9080, 37579.00
696.0650, 37615.07
697.2210, 37743.00
698.3770, 37775.00
699.5330, 37951.00
700.6880, 38080.00
701.8440, 38226.00
702.9990, 38094.00
704.1550, 38246.00
705.3100, 38256.00
706.4650, 38730.00
707.6190, 38785.00
708.7740, 38963.00
709.9290, 38920.00
711.0830, 39030.00
712.2370, 39301.00
713.3910, 39186.00
714.5450, 39333.00
715.6980, 39179.00
716.8520, 39472.00
718.0050, 39412.00
719.1580, 39784.00
720.3110, 39967.00
721.4640, 39930.00
722.6170, 39781.00
723.7700, 39689.00
724.9220, 39855.00
726.0740, 40036.00
727.2260, 39737.00
728.3780, 40088.00
729.5300, 40124.00
730.6810, 40188.00
731.8330, 40095.00
732.9840, 40185.00
734.1350, 40130.00
735.2860, 40110.00
736.4370, 40136.00
737.5880, 40269.00
738.7380, 40278.00
739.8880, 40131.00
741.0390, 40202.00
742.1890, 40117.00
743.3380, 40175.27
744.4880, 40215.00
745.6380, 40290.00
746.7870, 40298.00
747.9360, 40289.00
749.0850, 40343.00
750.2340, 40310.36
751.3830, 40249.05
752.5310, 40304.00
753.6800, 40071.00
754.8280, 40113.00
755.9760, 40026.00
757.1240, 39920.00
758.2720, 40051.00
759.4190, 39907.00
760.5670, 39984.89
761.7140, 40080.00
762.8610, 40012.00
764.0080, 40081.00
765.1550, 39947.00
766.3020, 40038.00
767.4480, 40301.00
768.5950, 40177.00
769.7410, 40315.00
770.8870, 40208.00
772.0330, 40311.00
773.1780, 40226.00
774.3240, 40283.51
775.4690, 40495.00
776.6140, 40424.00
777.7590, 40399.00
778.9040, 40540.00
780.0490, 40511.00
781.1940, 40545.00
782.3380, 40824.00
783.4820, 40694.00
784.6260, 40397.00
785.7700, 40514.00
786.9140, 40670.00
788.0580, 40915.00
789.2010, 40404.00
790.3450, 40836.00
791.4880, 40646.00
792.6310, 41008.00
793.7730, 40683.00
794.9160, 40659.00
796.0590, 40861.00
797.2010, 40869.00
798.3430, 40961.00
799.4850, 40929.00
800.6270, 40982.00
801.7690, 41112.00
802.9100, 41111.95
804.0520, 41087.00
805.1930, 41225.00
806.3340, 41203.00
807.4750, 41281.00
808.6160, 41354.00
809.7560, 41201.00
810.8970, 41347.00
812.0370, 41315.00
813.1770, 41579.00
814.3170, 41387.00
815.4570, 41668.00
816.5960, 41333.00
817.7360, 41306.00
818.8750, 41528.00
820.0140, 41384.00
821.1530, 41694.00
822.2920, 41211.00
823.4310, 41581.00
824.5690, 41447.00
825.7070, 41529.00
826.8460, 41536.00
827.9840, 41473.00
829.1220, 41591.00
830.2590, 41552.02
831.3970, 41625.00
832.5340, 41563.00
833.6710, 41465.00
834.8080, 41452.00
835.9450, 41599.00
837.0820, 41633.00
838.2190, 41246.00
839.3550, 41425.00
840.4910, 41444.00
841.6270, 41745.00
842.7630, 41616.00
843.8990, 41504.00
845.0350, 41484.00
846.1700, 41727.00
847.3060, 41560.00
848.4410, 41574.00
849.5760, 41771.00
850.7100, 41666.00
851.8450, 41694.00
852.9800, 41634.00
854.1140, 41738.00
855.2480, 41698.00
856.3820, 41657.00
857.5160, 41825.00
858.6500, 42006.00
859.7830, 41684.00
860.9170, 41964.00
862.0500, 41694.00
863.1830, 41751.00
864.3160, 41662.00
865.4480, 41802.00
866.5810, 41573.00
867.7130, 41622.00
868.8460, 41829.00
869.9780, 41532.00
871.1100, 41977.00
872.2410, 41773.00
873.3730, 41802.00
874.5050, 41712.00
875.6360, 41749.00
876.7670, 41770.00
877.8980, 41893.00
879.0290, 41806.00
880.1590, 41725.00
881.2900, 42039.00
882.4200, 41936.00
883.5500, 42193.00
884.6800, 42040.00
885.8100, 41987.00
886.9400, 41973.00
888.0690, 41770.00
889.1990, 41919.00
890.3280, 41737.00
891.4570, 42244.00
892.5860, 42009.00
893.7140, 42036.00
894.8430, 42059.00
895.9710, 42024.00
897.1000, 41891.00
898.2280, 42001.00
899.3560, 42232.00
900.4830, 42202.00
901.6110, 42436.00
902.7380, 42349.00
903.8660, 42082.00
904.9930, 42071.00
906.1200, 42312.00
907.2460, 42537.00
908.3730, 42494.07
909.5000, 42203.00
910.6260, 42489.00
911.7520, 41775.05
912.8780, 42261.14
914.0040, 42547.18
915.1290, 42643.89
916.2550, 41984.34
917.3800, 42301.34
918.5050, 42226.97
919.6300, 42136.56
920.7550, 42591.01
921.8800, 42041.43
923.0040, 42487.21
924.1290, 42539.00
925.2530, 42358.00
926.3770, 42176.00
927.5010, 42828.00
928.6250, 42784.00
929.7480, 42664.00
930.8720, 42855.00
931.9950, 42592.00
933.1180, 42915.00
934.2410, 42628.00
935.3640, 42829.00
936.4860, 42824.00
937.6090, 42826.00
938.7310, 42799.00
939.8530, 42865.00
940.9750, 42898.00
942.0970, 42721.00
943.2180, 42929.00
944.3400, 43024.00
945.4610, 43020.00
946.5820, 42861.00
947.7030, 43001.00
948.8240, 43100.00
949.9450, 43296.00
951.0650, 43284.00
952.1860, 43092.00
953.3060, 43334.00
954.4260, 43114.00
955.5460, 43153.00
956.6650, 43111.00
957.7850, 43194.00
958.9040, 43119.00
960.0230, 43522.00
961.1420, 43336.00
962.2610, 43066.00
963.3800, 43297.00
964.4990, 43635.00
965.6170, 43593.00
966.7350, 43424.00
967.8530, 43563.00
968.9710, 43561.00
970.0890, 43563.00
971.2070, 43519.00
972.3240, 43495.24
973.4410, 43705.00
974.5580, 43465.00
975.6750, 43660.00
976.7920, 43783.00
977.9090, 43728.00
979.0250, 43621.00
980.1410, 43749.00
981.2580, 43773.00
982.3740, 44046.00
983.4890, 43969.00
984.6050, 44015.00
985.7200, 44187.00
986.8360, 44030.00
987.9510, 44114.00
989.0660, 44165.00
990.1810, 44321.00
991.2950, 44052.00
992.4100, 44091.00
993.5240, 44207.00
994.6390, 44231.00
995.7530, 44287.95
996.8660, 44211.00
997.9800, 44382.00
999.0940, 44336.00
1000.207, 44401.00
1001.320, 44156.00
1002.433, 44618.00
1003.546, 44202.00
1004.659, 44225.00
1005.772, 44537.00
1006.884, 44483.00
1007.996, 44417.00
1009.108, 44803.00
1010.220, 44532.00
1011.332, 44754.00
1012.444, 44706.00
1013.555, 44810.00
1014.666, 44659.00
1015.777, 44915.00
1016.888, 44913.00
1017.999, 44891.00
1019.110, 44835.00
1020.220, 44915.00
1021.331, 44825.00
1022.441, 45003.00
1023.551, 44897.00
1024.661, 45041.00
1025.770, 45280.00
1026.880, 44928.00
1027.989, 45167.00
1029.098, 45287.00
1030.207, 45127.00
1031.316, 44976.00
1032.425, 45263.00
1033.533, 44982.00
1034.642, 45112.00
1035.750, 45212.00
1036.858, 45493.00
1037.966, 45416.00
1039.073, 45215.00
1040.181, 45418.00
1041.288, 45298.00
1042.396, 45248.00
1043.503, 45484.00
1044.610, 45449.00
1045.716, 45345.00
1046.823, 45338.00
1047.929, 45345.45
1049.036, 45641.00
1050.142, 45410.00
1051.248, 45647.00
1052.353, 45687.00
1053.459, 45514.00
1054.564, 45919.00
1055.670, 45887.00
1056.775, 45669.00
1057.880, 45913.00
1058.985, 45875.00
1060.089, 45809.00
1061.194, 45929.00
1062.298, 45646.00
1063.402, 46026.00
1064.506, 46140.00
1065.610, 45949.00
1066.713, 46016.00
1067.817, 46048.00
1068.920, 46036.00
1070.023, 46084.98
1071.126, 46086.13
1072.229, 46127.00
1073.332, 46106.00
1074.435, 46113.92
1075.537, 46120.22
1076.639, 46211.00
1077.741, 46230.00
1078.843, 46355.00
1079.945, 46505.00
1081.046, 46050.00
1082.148, 46528.00
1083.249, 46271.00
1084.350, 46580.00
1085.451, 46779.00
1086.551, 46457.00
1087.652, 46484.00
1088.752, 46189.00
1089.853, 46813.00
1090.953, 46284.00
1092.053, 46767.00
1093.152, 46780.00
1094.252, 46720.00
1095.351, 46810.00
1096.451, 46826.00
1097.550, 46849.00
1098.649, 46948.09
1099.748, 46950.00
1100.846, 47013.00
1101.945, 47154.00
1103.043, 46955.00
1104.141, 46941.00
1105.239, 46965.00
1106.337, 47028.00
1107.434, 47198.00
1108.532, 46985.00
1109.629, 47155.00
1110.726, 47372.00
1111.823, 47132.00
1112.920, 47271.00
1114.017, 47100.00
1115.113, 47051.00
1116.210, 47535.00
1117.306, 47412.00
1118.402, 47273.00
1119.498, 47520.00
1120.593, 47424.00
1121.689, 47219.00
1122.784, 47680.00
1123.879, 47602.00
1124.974, 47434.00
1126.069, 47496.00
1127.164, 47314.00
1128.259, 47536.00
1129.353, 47745.00
1130.447, 47883.00
1131.541, 47644.00
1132.635, 47547.00
1133.729, 47658.00
1134.822, 47619.64
1135.916, 47616.00
1137.009, 47844.00
1138.102, 47953.00
1139.195, 48147.00
1140.288, 48024.00
1141.380, 47975.00
1142.473, 47880.00
1143.565, 48058.00
1144.657, 48025.00
1145.749, 48119.00
1146.841, 48234.02
1147.932, 48254.00
1149.024, 48385.00
1150.115, 48332.00
1151.206, 48244.00
1152.297, 48168.00
1153.388, 48413.00
1154.479, 48216.00
1155.569, 48298.00
1156.659, 48521.00
1157.750, 48401.00
1158.839, 48413.00
1159.929, 48484.00
1161.019, 48099.00
1162.108, 48407.00
1163.198, 48712.00
1164.287, 48522.00
1165.376, 48490.00
1166.465, 48545.00
1167.553, 48562.00
1168.642, 48567.78
1169.730, 48418.00
1170.818, 48610.00
1171.906, 48786.00
1172.994, 48849.00
1174.082, 48638.00
1175.170, 49162.00
1176.257, 48853.00
1177.344, 48701.00
1178.431, 48825.00
1179.518, 49080.00
1180.605, 48728.00
1181.691, 48953.00
1182.778, 49178.00
1183.864, 49008.00
1184.950, 49240.00
1186.036, 48833.00
1187.122, 49283.00
1188.207, 49203.00
1189.292, 49241.00
1190.378, 49048.00
1191.463, 49243.00
1192.548, 49023.00
1193.632, 49485.00
1194.717, 49309.00
1195.801, 49215.00
1196.886, 49447.00
1197.970, 49040.00
1199.054, 49456.00
1200.137, 49388.00
1201.221, 49714.00
1202.305, 49466.00
1203.388, 49605.00
1204.471, 49595.00
1205.554, 49522.00
1206.637, 49683.00
1207.719, 49948.00
1208.802, 49437.00
1209.884, 49805.00
1210.966, 49676.00
1212.048, 49631.00
1213.130, 49656.00
1214.212, 49705.00
1215.293, 49771.18
1216.374, 49908.00
1217.456, 49977.00
1218.536, 49929.00
1219.617, 50016.00
1220.698, 49816.00
1221.778, 49992.00
1222.859, 49888.00
1223.939, 50034.00
1225.019, 49894.00
1226.099, 49994.00
1227.178, 49927.00
1228.258, 50270.00
1229.337, 50075.00
1230.417, 50131.00
1231.496, 50283.00
1232.574, 50023.00
1233.653, 50274.00
1234.732, 50593.00
1235.810, 50575.00
1236.888, 50421.00
1237.966, 50690.00
1239.044, 50600.00
1240.122, 50245.00
1241.199, 50264.00
1242.277, 50601.00
1243.354, 50728.00
1244.431, 50387.00
1245.508, 50603.00
1246.585, 50586.00
1247.661, 50936.00
1248.738, 50661.00
1249.814, 51108.00
1250.890, 50607.00
1251.966, 50602.00
1253.042, 51029.00
1254.117, 50750.00
1255.193, 51000.00
1256.268, 51060.00
1257.343, 51206.00
1258.418, 50917.00
1259.493, 51024.00
1260.567, 50732.00
1261.642, 51014.00
1262.716, 50915.00
1263.790, 51023.00
1264.864, 51111.00
1265.938, 51156.00
1267.011, 51346.00
1268.085, 51350.95
1269.158, 51396.00
1270.231, 51375.00
1271.304, 51183.00
1272.377, 51059.00
1273.450, 51348.00
1274.522, 51353.00
1275.594, 51515.00
1276.666, 51610.00
1277.738, 51442.00
1278.810, 51632.00
1279.882, 51572.00
1280.953, 51697.00
1282.025, 51594.00
1283.096, 51808.00
1284.167, 51320.00
1285.238, 51631.00
1286.308, 51574.00
1287.379, 51845.00
1288.449, 51787.00
1289.519, 51789.00
1290.589, 52143.00
1291.659, 51745.00
1292.729, 52180.00
1293.798, 51931.00
1294.868, 51991.00
1295.937, 52158.00
1297.006, 51961.00
1298.075, 52268.00
1299.143, 52092.00
1300.212, 52062.00
1301.280, 52089.00
1302.348, 52201.00
1303.416, 52230.00
1304.484, 52150.00
1305.552, 52215.00
1306.620, 52242.00
1307.687, 52471.00
1308.754, 52384.38
1309.821, 52276.00
1310.888, 52352.00
1311.955, 52206.00
1313.021, 52278.00
1314.088, 52520.00
1315.154, 52371.00
1316.220, 52738.00
1317.286, 52452.00
1318.352, 52565.00
1319.417, 52749.00
1320.483, 52265.00
1321.548, 52749.00
1322.613, 52622.00
1323.678, 52493.00
1324.743, 52462.00
1325.807, 52621.00
1326.872, 52523.00
1327.936, 52703.00
1329.000, 52672.00
1330.064, 52906.00
1331.128, 52786.00
1332.191, 52915.00
1333.255, 52812.00
1334.318, 52735.00
1335.381, 52893.00
1336.444, 52930.00
1337.507, 52886.00
1338.569, 52946.00
1339.632, 52850.00
1340.694, 52958.75
1341.756, 53219.00
1342.818, 53090.00
1343.880, 53168.00
1344.941, 53120.00
1346.003, 52879.00
1347.064, 53258.00
1348.125, 53397.00
1349.186, 52998.00
1350.247, 53534.00
1351.308, 53613.00
1352.368, 53309.00
1353.428, 53406.00
1354.489, 53326.00
1355.549, 53497.00
1356.608, 53687.00
1357.668, 53570.00
1358.727, 53771.00
1359.787, 53666.00
1360.846, 53890.00
1361.905, 53498.00
1362.964, 53505.00
1364.022, 53559.00
1365.081, 53367.00
1366.139, 53704.00
1367.197, 53720.00
1368.255, 53823.00
1369.313, 54007.00
1370.371, 54054.00
1371.428, 54000.00
1372.486, 53784.00
1373.543, 53714.00
1374.600, 53993.00
1375.657, 53858.00
1376.713, 53993.00
1377.770, 54107.00
1378.826, 53822.00
1379.882, 53612.00
1380.938, 53871.00
1381.994, 53898.00
1383.050, 54277.00
1384.106, 54284.00
1385.161, 54232.00
1386.216, 54196.00
1387.271, 54184.93
1388.326, 54176.01
1389.381, 54164.00
1390.435, 54207.00
1391.490, 54241.00
1392.544, 54286.00
1393.598, 54583.00
1394.652, 54286.00
1395.705, 54366.00
1396.759, 54628.00
1397.812, 54515.00
1398.866, 54403.00
1399.919, 54688.00
1400.972, 54765.00
1402.024, 54479.00
1403.077, 54477.00
1404.129, 54439.00
1405.181, 54593.00
1406.233, 54759.00
1407.285, 54515.00
1408.337, 54759.00
1409.389, 54849.00
1410.440, 54918.00
1411.491, 54861.00
1412.542, 54853.00
1413.593, 54784.00
1414.644, 54736.00
1415.695, 54936.00
1416.745, 55150.00
1417.795, 54970.00
1418.845, 55059.00
1419.895, 55064.00
1420.945, 55101.00
1421.995, 55161.00
1423.044, 55044.00
1424.093, 55118.00
1425.142, 55298.00
1426.191, 54926.00
1427.240, 55202.00
1428.289, 55001.00
1429.337, 55189.00
1430.385, 55342.00
1431.433, 55233.00
1432.481, 55543.00
1433.529, 55637.00
1434.577, 55519.00
1435.624, 55261.00
1436.672, 55763.00
1437.719, 55305.00
1438.766, 55467.00
1439.812, 55759.00
1440.859, 55780.00
1441.905, 55550.00
1442.952, 55872.00
1443.998, 55667.00
1445.044, 55759.00
1446.090, 55844.00
1447.135, 55861.00
1448.181, 56102.00
1449.226, 55952.00
1450.271, 55754.00
1451.316, 55994.00
1452.361, 55732.00
1453.405, 56184.00
1454.450, 55933.00
1455.494, 56101.00
1456.538, 56079.00
1457.582, 56312.00
1458.626, 56005.00
1459.670, 56129.00
1460.713, 56015.00
1461.757, 56281.00
1462.800, 56257.00
1463.843, 56126.00
1464.886, 56341.00
1465.928, 56289.00
1466.971, 56213.00
1468.013, 56282.63
1469.055, 56219.00
1470.097, 56301.00
1471.139, 56472.00
1472.181, 56591.00
1473.222, 56440.00
1474.263, 56414.00
1475.305, 56381.00
1476.346, 56572.00
1477.386, 56605.00
1478.427, 56670.00
1479.468, 56568.00
1480.508, 56784.00
1481.548, 56829.00
1482.588, 56765.00
1483.628, 56841.00
1484.668, 56890.00
1485.707, 56845.00
1486.747, 56809.00
1487.786, 57047.00
1488.825, 56986.00
1489.864, 56819.00
1490.902, 57073.00
1491.941, 56870.00
1492.979, 57001.00
1494.017, 57043.00
1495.055, 57045.00
1496.093, 57193.00
1497.131, 57056.00
1498.168, 57307.00
1499.206, 57242.00
1500.243, 57318.00
1501.280, 57306.00
1502.317, 57106.00
1503.354, 57543.00
1504.390, 56876.00
1505.426, 57195.00
1506.463, 57655.00
1507.499, 57239.00
1508.535, 57446.00
1509.570, 57396.00
1510.606, 57608.00
1511.641, 57397.00
1512.676, 57110.00
1513.711, 57445.00
1514.746, 57515.00
1515.781, 57339.00
1516.816, 57565.00
1517.850, 57579.00
1518.884, 58005.00
1519.918, 57752.00
1520.952, 57705.00
1521.986, 57504.00
1523.019, 57512.99
1524.053, 57691.00
1525.086, 57636.00
1526.119, 57973.00
1527.152, 58205.00
1528.185, 57996.00
1529.217, 58167.00
1530.250, 57905.00
1531.282, 58011.00
1532.314, 58285.00
1533.346, 58096.00
1534.377, 58012.00
1535.409, 58108.00
1536.440, 58069.00
1537.472, 57896.00
1538.503, 58016.00
1539.534, 58214.00
1540.564, 57895.00
1541.595, 58120.00
1542.625, 58398.00
1543.656, 58215.00
1544.686, 58131.00
1545.716, 58154.00
1546.745, 58236.00
1547.775, 58249.00
1548.804, 58262.00
1549.834, 58579.00
1550.863, 58253.00
1551.892, 58728.00
1552.920, 58511.00
1553.949, 58172.00
1554.977, 58547.00
1556.006, 58473.00
1557.034, 58379.00
1558.062, 58415.00
1559.089, 58373.00
1560.117, 58654.00
1561.144, 58786.00
1562.172, 58697.00
1563.199, 58992.00
1564.226, 58687.00
1565.252, 58312.00
1566.279, 58718.00
1567.305, 58881.00
1568.332, 58952.00
1569.358, 58629.00
1570.384, 59043.00
##END=



