##NAMES=Brucite
##RRUFFID=R050455
##IDEAL CHEMISTRY=Mg(OH)_2_
##LOCALITY=Texas, Lancaster County, Pennsylvania, USA
##OWNER=RRUFF
##SOURCE=University of Arizona Mineral Museum
##DESCRIPTION=Group of green tabular crystals
##STATUS=The identification of this mineral has been confirmed by X-ray diffraction and chemical analysis
##URL=rruff.info/R050455
##MEASURED CHEMISTRY=(Mg_0.99_Mn_0.01_)(OH)_2_
##PIN_ID=M00121
##ORIENTATION=Laser parallel to a* (1 0 0). Fiducial mark perpendicular to laser is parallel to c [0 0 1]
107.0470, 13318.00
108.2800, 13574.00
109.5120, 13864.00
110.7440, 13664.00
111.9760, 13450.00
113.2080, 13505.00
114.4400, 13686.00
115.6710, 13915.00
116.9030, 13931.00
118.1340, 13918.00
119.3650, 13997.00
120.5960, 13982.00
121.8270, 13992.00
123.0580, 14168.00
124.2880, 14261.00
125.5190, 14289.43
126.7490, 14329.56
127.9790, 14380.00
129.2090, 14320.00
130.4390, 14404.00
131.6680, 14465.00
132.8980, 14489.00
134.1270, 14587.00
135.3560, 14666.00
136.5850, 14673.00
137.8140, 14756.00
139.0430, 14925.00
140.2710, 14716.00
141.5000, 14874.00
142.7280, 14990.00
143.9560, 14944.00
145.1840, 15054.00
146.4120, 15137.00
147.6390, 15182.00
148.8670, 15262.91
150.0940, 15297.86
151.3210, 15326.00
152.5490, 15384.00
153.7750, 15304.00
155.0020, 15375.00
156.2290, 15242.00
157.4550, 15212.00
158.6810, 15442.00
159.9080, 15499.00
161.1340, 15460.00
162.3590, 15536.00
163.5850, 15554.00
164.8110, 15634.00
166.0360, 15848.00
167.2610, 16069.00
168.4860, 15958.00
169.7110, 16088.00
170.9360, 16154.00
172.1610, 16084.00
173.3850, 16113.00
174.6100, 16077.00
175.8340, 16061.00
177.0580, 16128.00
178.2820, 16255.00
179.5050, 16219.00
180.7290, 16365.00
181.9520, 16309.00
183.1760, 16341.00
184.3990, 16139.00
185.6220, 16326.00
186.8450, 16410.00
188.0670, 16571.00
189.2900, 16607.00
190.5120, 16665.00
191.7340, 16840.00
192.9560, 16693.00
194.1780, 16852.00
195.4000, 16841.00
196.6220, 16798.00
197.8430, 16915.00
199.0640, 16885.00
200.2860, 16975.00
201.5070, 17239.00
202.7270, 17206.00
203.9480, 17139.00
205.1690, 16973.00
206.3890, 17055.00
207.6090, 16873.00
208.8290, 16886.00
210.0490, 16952.00
211.2690, 16848.00
212.4890, 17045.00
213.7080, 17198.00
214.9280, 17132.00
216.1470, 17098.00
217.3660, 17212.00
218.5850, 17314.00
219.8030, 17324.00
221.0220, 17348.00
222.2400, 17403.19
223.4590, 17404.37
224.6770, 17469.00
225.8950, 17432.00
227.1120, 17448.00
228.3300, 17459.00
229.5480, 17543.00
230.7650, 17682.00
231.9820, 17628.00
233.1990, 17876.00
234.4160, 17894.00
235.6330, 17871.00
236.8490, 17804.00
238.0660, 18044.00
239.2820, 17883.00
240.4980, 18084.00
241.7140, 18067.00
242.9300, 18274.00
244.1460, 18243.00
245.3610, 18456.00
246.5770, 18465.00
247.7920, 18361.00
249.0070, 18604.00
250.2220, 18689.00
251.4370, 18708.00
252.6510, 18757.00
253.8660, 18898.65
255.0800, 19023.58
256.2940, 19265.00
257.5080, 19528.00
258.7220, 19879.00
259.9360, 20460.00
261.1490, 20615.00
262.3630, 21114.00
263.5760, 21298.00
264.7890, 21988.00
266.0020, 22264.00
267.2150, 22898.00
268.4270, 23450.00
269.6400, 23985.00
270.8520, 24296.00
272.0640, 24542.00
273.2760, 24599.00
274.4880, 24569.96
275.7000, 24705.00
276.9120, 24156.00
278.1230, 23843.00
279.3340, 23402.00
280.5450, 22627.00
281.7560, 22241.00
282.9670, 21503.00
284.1780, 21346.00
285.3880, 20885.00
286.5980, 20614.00
287.8090, 20244.00
289.0190, 20058.56
290.2290, 20008.00
291.4380, 19807.00
292.6480, 19861.00
293.8570, 19847.00
295.0670, 19849.00
296.2760, 19728.00
297.4850, 19523.00
298.6930, 19614.00
299.9020, 19467.00
301.1110, 19660.00
302.3190, 19557.00
303.5270, 19583.00
304.7350, 19784.00
305.9430, 19624.00
307.1510, 19714.00
308.3580, 19342.24
309.5660, 19555.12
310.7730, 19694.99
311.9800, 19765.78
313.1870, 19560.66
314.3940, 19711.83
315.6010, 19720.21
316.8070, 19722.71
318.0130, 19923.98
319.2200, 19759.00
320.4260, 19902.00
321.6310, 19890.00
322.8370, 20067.00
324.0430, 20050.67
325.2480, 20110.00
326.4540, 20107.00
327.6590, 20096.00
328.8640, 20047.00
330.0680, 20099.00
331.2730, 20149.00
332.4780, 20290.00
333.6820, 20157.00
334.8860, 20226.00
336.0900, 20514.00
337.2940, 20414.00
338.4980, 20445.00
339.7010, 20578.00
340.9050, 20589.00
342.1080, 20605.23
343.3110, 20534.00
344.5140, 20572.00
345.7170, 20566.00
346.9200, 20520.00
348.1220, 20653.00
349.3240, 20747.00
350.5270, 20850.00
351.7290, 20780.00
352.9310, 21030.00
354.1320, 21046.00
355.3340, 20923.00
356.5350, 20849.00
357.7370, 21108.00
358.9380, 20954.00
360.1390, 21189.00
361.3400, 21256.00
362.5400, 21281.00
363.7410, 21177.00
364.9410, 21374.00
366.1410, 21328.00
367.3410, 21280.00
368.5410, 21454.00
369.7410, 21463.00
370.9400, 21519.15
372.1400, 21665.00
373.3390, 21611.00
374.5380, 21540.00
375.7370, 21540.00
376.9360, 21692.00
378.1350, 21908.00
379.3330, 21647.00
380.5310, 21961.00
381.7300, 21876.00
382.9280, 21755.00
384.1260, 21837.00
385.3230, 21924.00
386.5210, 21872.00
387.7180, 21999.70
388.9160, 22022.00
390.1130, 22140.00
391.3100, 22111.00
392.5060, 22116.26
393.7030, 22196.00
394.9000, 22188.00
396.0960, 22295.61
397.2920, 22417.00
398.4880, 22492.00
399.6840, 22543.00
400.8800, 22614.00
402.0750, 22542.00
403.2710, 22682.00
404.4660, 22642.00
405.6610, 22747.00
406.8560, 22747.00
408.0510, 22861.00
409.2450, 23001.00
410.4400, 23303.00
411.6340, 23329.00
412.8280, 23358.00
414.0220, 23401.00
415.2160, 23765.00
416.4100, 23667.00
417.6030, 23988.00
418.7970, 24101.00
419.9900, 24184.00
421.1830, 24511.00
422.3760, 24792.00
423.5690, 25158.41
424.7610, 25790.00
425.9540, 26155.00
427.1460, 26765.00
428.3380, 27546.00
429.5300, 28718.00
430.7220, 29857.00
431.9140, 31488.00
433.1050, 33077.00
434.2970, 34662.00
435.4880, 36181.00
436.6790, 37237.00
437.8700, 38084.00
439.0610, 38416.00
440.2510, 38104.00
441.4420, 37554.00
442.6320, 36212.00
443.8220, 34673.00
445.0120, 32959.00
446.2020, 31101.00
447.3910, 29593.00
448.5810, 28389.00
449.7700, 27458.00
450.9600, 26782.00
452.1490, 26307.00
453.3370, 25908.00
454.5260, 25501.00
455.7150, 25376.00
456.9030, 25201.00
458.0910, 25004.00
459.2800, 24919.00
460.4670, 24781.00
461.6550, 24630.00
462.8430, 24862.00
464.0300, 24868.00
465.2180, 24651.00
466.4050, 24465.00
467.5920, 24614.00
468.7790, 24663.00
469.9650, 24597.00
471.1520, 24559.00
472.3380, 24648.49
473.5250, 24405.00
474.7110, 24751.00
475.8970, 24797.00
477.0820, 24717.00
478.2680, 24905.00
479.4540, 24902.00
480.6390, 24804.00
481.8240, 24829.00
483.0090, 24621.00
484.1940, 24878.00
485.3780, 24864.00
486.5630, 24777.00
487.7470, 24896.00
488.9320, 24933.00
490.1160, 25077.00
491.3000, 25067.28
492.4830, 25090.26
493.6670, 25088.00
494.8500, 25071.00
496.0340, 25139.00
497.2170, 25153.00
498.4000, 25212.00
499.5820, 25155.00
500.7650, 25281.00
501.9480, 25275.00
503.1300, 25231.00
504.3120, 25390.00
505.4940, 25297.00
506.6760, 25464.00
507.8580, 25333.00
509.0390, 25565.00
510.2210, 25460.00
511.4020, 25453.00
512.5830, 25486.00
513.7640, 25433.00
514.9450, 25659.00
516.1250, 25383.00
517.3060, 25735.00
518.4860, 25641.00
519.6660, 25793.00
520.8460, 25761.00
522.0260, 25916.00
523.2060, 26049.00
524.3850, 25865.00
525.5650, 26072.00
526.7440, 26045.00
527.9230, 26123.00
529.1020, 25937.00
530.2810, 26246.00
531.4590, 25963.00
532.6380, 26059.00
533.8160, 26156.00
534.9940, 26247.00
536.1720, 26346.00
537.3500, 26477.00
538.5270, 26472.56
539.7050, 26377.00
540.8820, 26443.00
542.0590, 26395.00
543.2360, 26326.00
544.4130, 26543.00
545.5900, 26555.00
546.7660, 26747.00
547.9430, 26528.00
549.1190, 26668.00
550.2950, 26647.00
551.4710, 26798.00
552.6470, 26861.00
553.8220, 26753.00
554.9980, 26839.00
556.1730, 26896.00
557.3480, 26936.00
558.5230, 26847.00
559.6980, 27151.00
560.8730, 26987.00
562.0470, 27203.00
563.2220, 27104.00
564.3960, 27280.00
565.5700, 27353.00
566.7440, 27252.00
567.9170, 27195.00
569.0910, 27241.00
570.2640, 27345.00
571.4380, 27133.00
572.6110, 27436.00
573.7840, 27340.00
574.9570, 27398.00
576.1290, 27758.00
577.3020, 27348.00
578.4740, 27419.00
579.6460, 27390.00
580.8180, 27548.00
581.9900, 27548.00
583.1620, 27533.00
584.3330, 27645.00
585.5040, 27670.00
586.6760, 27847.00
587.8470, 27718.00
589.0180, 27700.00
590.1880, 27873.00
591.3590, 27888.00
592.5290, 27898.00
593.7000, 27848.00
594.8700, 28106.00
596.0400, 28092.00
597.2090, 28060.00
598.3790, 28365.00
599.5490, 27933.00
600.7180, 28064.00
601.8870, 28207.00
603.0560, 28473.00
604.2250, 28261.00
605.3940, 28404.00
606.5620, 28495.00
607.7300, 28410.00
608.8990, 28590.00
610.0670, 28533.00
611.2350, 28603.00
612.4020, 28544.00
613.5700, 28411.00
614.7370, 29009.00
615.9050, 28662.00
617.0720, 28783.00
618.2390, 28957.00
619.4060, 28703.00
620.5720, 29026.00
621.7390, 28833.00
622.9050, 28747.00
624.0710, 29083.00
625.2370, 29055.00
626.4030, 29255.00
627.5690, 29177.00
628.7340, 29124.00
629.9000, 29275.00
631.0650, 29391.00
632.2300, 29425.00
633.3950, 29175.00
634.5600, 29372.00
635.7240, 29406.00
636.8890, 29420.00
638.0530, 29518.00
639.2170, 29488.00
640.3810, 29582.00
641.5450, 29471.00
642.7080, 29882.00
643.8720, 29669.00
645.0350, 29611.00
646.1980, 29885.00
647.3610, 29753.00
648.5240, 29823.00
649.6870, 29854.00
650.8490, 30238.00
652.0120, 30028.00
653.1740, 30260.00
654.3360, 30088.00
655.4980, 30050.00
656.6600, 30041.00
657.8210, 30063.00
658.9830, 30088.22
660.1440, 30149.73
661.3050, 30209.00
662.4660, 30368.00
663.6270, 30479.00
664.7870, 30724.00
665.9480, 30526.00
667.1080, 30734.00
668.2680, 30608.00
669.4280, 30636.00
670.5880, 30807.00
671.7480, 30767.00
672.9070, 30906.00
674.0670, 31090.00
675.2260, 31099.00
676.3850, 31158.00
677.5440, 31235.00
678.7030, 31318.00
679.8610, 31194.00
681.0200, 31335.00
682.1780, 31163.00
683.3360, 31429.00
684.4940, 31579.00
685.6520, 31587.00
686.8090, 31663.00
687.9670, 31633.00
689.1240, 31857.00
690.2810, 32000.00
691.4380, 32012.00
692.5950, 31859.00
693.7520, 32243.00
694.9080, 31973.00
696.0650, 32226.00
697.2210, 32453.00
698.3770, 32471.00
699.5330, 32688.00
700.6880, 32706.00
701.8440, 32614.00
702.9990, 32823.00
704.1550, 33017.00
705.3100, 32871.00
706.4650, 32752.00
707.6190, 33152.00
708.7740, 33424.00
709.9290, 33432.00
711.0830, 33341.00
712.2370, 33545.00
713.3910, 33616.00
714.5450, 33541.00
715.6980, 33559.00
716.8520, 33616.00
718.0050, 33679.00
719.1580, 33886.00
720.3110, 33932.00
721.4640, 34017.00
722.6170, 34194.00
723.7700, 33925.00
724.9220, 34005.00
726.0740, 34378.00
727.2260, 34062.00
728.3780, 34275.00
729.5300, 34377.00
730.6810, 34426.00
731.8330, 34492.00
732.9840, 34467.00
734.1350, 34321.00
735.2860, 34613.00
736.4370, 34524.00
737.5880, 34641.00
738.7380, 34450.00
739.8880, 34393.00
741.0390, 34720.00
742.1890, 34646.00
743.3380, 34711.00
744.4880, 34490.00
745.6380, 34591.00
746.7870, 34410.00
747.9360, 34614.00
749.0850, 34605.00
750.2340, 34600.00
751.3830, 34803.00
752.5310, 34553.00
753.6800, 34780.00
754.8280, 34566.00
755.9760, 34699.00
757.1240, 34710.00
758.2720, 34714.00
759.4190, 34579.00
760.5670, 34730.00
761.7140, 34536.00
762.8610, 34844.00
764.0080, 34705.00
765.1550, 34602.00
766.3020, 34590.00
767.4480, 34638.00
768.5950, 34466.00
769.7410, 34721.00
770.8870, 34625.00
772.0330, 34842.00
773.1780, 34701.00
774.3240, 34965.00
775.4690, 35116.00
776.6140, 34955.00
777.7590, 34853.00
778.9040, 34953.00
780.0490, 35060.00
781.1940, 35043.00
782.3380, 35136.92
783.4820, 35162.00
784.6260, 35228.00
785.7700, 35065.00
786.9140, 35079.00
788.0580, 35307.00
789.2010, 35370.00
790.3450, 35526.00
791.4880, 35490.00
792.6310, 35226.00
793.7730, 35412.00
794.9160, 35303.00
796.0590, 35336.00
797.2010, 35413.00
798.3430, 35273.00
799.4850, 35537.00
800.6270, 35440.00
801.7690, 35671.00
802.9100, 35674.00
804.0520, 35677.00
805.1930, 35641.00
806.3340, 35521.00
807.4750, 35621.00
808.6160, 35873.00
809.7560, 35955.00
810.8970, 35900.00
812.0370, 35695.00
813.1770, 35903.00
814.3170, 35995.00
815.4570, 35914.00
816.5960, 36144.00
817.7360, 36143.00
818.8750, 35975.00
820.0140, 35697.00
821.1530, 36109.00
822.2920, 35976.00
823.4310, 36105.00
824.5690, 36213.00
825.7070, 36429.00
826.8460, 36194.00
827.9840, 36159.00
829.1220, 36299.00
830.2590, 36074.00
831.3970, 36116.00
832.5340, 36110.00
833.6710, 36150.00
834.8080, 36141.00
835.9450, 36149.00
837.0820, 36261.00
838.2190, 36553.00
839.3550, 36140.00
840.4910, 35826.00
841.6270, 36275.00
842.7630, 36206.00
843.8990, 36200.00
845.0350, 36249.00
846.1700, 36303.00
847.3060, 36252.00
848.4410, 36367.00
849.5760, 36247.00
850.7100, 36247.00
851.8450, 36464.00
852.9800, 36082.00
854.1140, 36199.00
855.2480, 36325.00
856.3820, 36378.00
857.5160, 36507.00
858.6500, 36353.00
859.7830, 36321.00
860.9170, 36374.00
862.0500, 36592.00
863.1830, 36331.00
864.3160, 36255.00
865.4480, 36598.00
866.5810, 36220.00
867.7130, 36500.00
868.8460, 36484.00
869.9780, 36369.00
871.1100, 36630.00
872.2410, 36846.00
873.3730, 36427.00
874.5050, 37346.00
875.6360, 36492.00
876.7670, 36471.00
877.8980, 36677.00
879.0290, 36540.00
880.1590, 36493.00
881.2900, 36644.00
882.4200, 36718.00
883.5500, 36652.00
884.6800, 36596.00
885.8100, 36691.00
886.9400, 36612.00
888.0690, 36779.00
889.1990, 36851.00
890.3280, 36804.00
891.4570, 36695.00
892.5860, 36740.00
893.7140, 36940.00
894.8430, 36722.00
895.9710, 36755.00
897.1000, 36333.00
898.2280, 37008.00
899.3560, 36930.00
900.4830, 36855.00
901.6110, 36479.00
902.7380, 36976.00
903.8660, 36736.00
904.9930, 36846.00
906.1200, 36825.00
907.2460, 37056.00
908.3730, 36923.00
909.5000, 36967.00
910.6260, 36901.00
911.7520, 37124.00
912.8780, 37085.00
914.0040, 37214.00
915.1290, 37118.00
916.2550, 37018.00
917.3800, 37203.00
918.5050, 37067.00
919.6300, 37117.00
920.7550, 37288.00
921.8800, 37509.00
923.0040, 37359.00
924.1290, 37309.00
925.2530, 37019.00
926.3770, 37211.00
927.5010, 37279.00
928.6250, 37588.00
929.7480, 37482.00
930.8720, 37426.00
931.9950, 37529.00
933.1180, 37365.00
934.2410, 37518.00
935.3640, 37442.00
936.4860, 37612.00
937.6090, 37552.00
938.7310, 37577.00
939.8530, 37595.00
940.9750, 37780.00
942.0970, 37549.00
943.2180, 37849.00
944.3400, 37622.00
945.4610, 37635.00
946.5820, 37820.00
947.7030, 37887.00
948.8240, 37816.00
949.9450, 37520.00
951.0650, 38037.00
952.1860, 37869.00
953.3060, 37688.00
954.4260, 38128.00
955.5460, 38202.00
956.6650, 37897.00
957.7850, 38060.00
958.9040, 37873.00
960.0230, 37940.00
961.1420, 38197.00
962.2610, 37953.00
963.3800, 38113.00
964.4990, 38108.00
965.6170, 38310.00
966.7350, 38035.00
967.8530, 38176.00
968.9710, 38068.00
970.0890, 38219.00
971.2070, 38287.00
972.3240, 38502.00
973.4410, 38294.00
974.5580, 38273.00
975.6750, 38576.00
976.7920, 38769.00
977.9090, 38478.00
979.0250, 38455.00
980.1410, 38750.00
981.2580, 38603.00
982.3740, 38700.00
983.4890, 38570.00
984.6050, 38511.00
985.7200, 38617.00
986.8360, 38841.00
987.9510, 38702.00
989.0660, 38877.00
990.1810, 38919.00
991.2950, 38728.00
992.4100, 38969.00
993.5240, 39017.00
994.6390, 39197.00
995.7530, 38960.00
996.8660, 38817.00
997.9800, 38948.00
999.0940, 38859.00
1000.207, 39075.00
1001.320, 39021.00
1002.433, 39154.00
1003.546, 39065.00
1004.659, 39011.00
1005.772, 39181.00
1006.884, 39153.00
1007.996, 39348.00
1009.108, 39327.00
1010.220, 39289.00
1011.332, 39299.00
1012.444, 39210.00
1013.555, 39333.00
1014.666, 39320.84
1015.777, 39499.00
1016.888, 39403.00
1017.999, 39390.00
1019.110, 39418.00
1020.220, 39453.51
1021.331, 39511.25
1022.441, 39611.00
1023.551, 39659.00
1024.661, 39710.00
1025.770, 39764.00
1026.880, 39558.00
1027.989, 39734.00
1029.098, 39825.00
1030.207, 39704.00
1031.316, 39950.00
1032.425, 39888.00
1033.533, 39677.00
1034.642, 39676.00
1035.750, 39925.00
1036.858, 39746.00
1037.966, 39978.00
1039.073, 39817.00
1040.181, 39975.00
1041.288, 40112.00
1042.396, 39998.00
1043.503, 40137.00
1044.610, 39817.00
1045.716, 39919.00
1046.823, 40041.00
1047.929, 40427.00
1049.036, 40033.00
1050.142, 40253.00
1051.248, 40184.00
1052.353, 40236.00
1053.459, 40023.00
1054.564, 40174.00
1055.670, 40134.39
1056.775, 40280.00
1057.880, 40234.00
1058.985, 40285.00
1060.089, 40427.00
1061.194, 40524.00
1062.298, 40404.00
1063.402, 40437.00
1064.506, 40398.00
1065.610, 40663.00
1066.713, 40547.00
1067.817, 40505.00
1068.920, 40306.00
1070.023, 40606.00
1071.126, 40761.00
1072.229, 40777.00
1073.332, 40781.00
1074.435, 40706.00
1075.537, 40535.00
1076.639, 40567.00
1077.741, 40790.00
1078.843, 40772.00
1079.945, 40989.00
1081.046, 41156.00
1082.148, 40909.00
1083.249, 40905.00
1084.350, 40799.00
1085.451, 40828.00
1086.551, 40923.00
1087.652, 41127.00
1088.752, 41053.00
1089.853, 41072.00
1090.953, 40921.00
1092.053, 40967.00
1093.152, 40991.57
1094.252, 40778.00
1095.351, 41041.00
1096.451, 41263.00
1097.550, 41137.00
1098.649, 41029.00
1099.748, 41079.00
1100.846, 41314.00
1101.945, 41182.00
1103.043, 41141.00
1104.141, 41570.00
1105.239, 41362.00
1106.337, 41329.00
1107.434, 41336.00
1108.532, 41246.00
1109.629, 41372.00
1110.726, 41349.09
1111.823, 41642.00
1112.920, 41488.00
1114.017, 41394.00
1115.113, 41608.00
1116.210, 41554.00
1117.306, 41521.00
1118.402, 41442.00
1119.498, 41648.00
1120.593, 41530.00
1121.689, 41721.00
1122.784, 41921.00
1123.879, 41704.00
1124.974, 42015.00
1126.069, 41807.00
1127.164, 42214.00
1128.259, 42216.00
1129.353, 41811.00
1130.447, 42070.00
1131.541, 41935.00
1132.635, 42060.00
1133.729, 42097.94
1134.822, 41843.00
1135.916, 42121.00
1137.009, 42193.00
1138.102, 42152.00
1139.195, 41932.00
1140.288, 42221.00
1141.380, 41910.00
1142.473, 42488.00
1143.565, 42090.00
1144.657, 42129.00
1145.749, 42270.00
1146.841, 42500.00
1147.932, 42259.00
1149.024, 42354.00
1150.115, 42221.00
1151.206, 42171.26
1152.297, 42270.00
1153.388, 42132.00
1154.479, 42360.00
1155.569, 42452.00
1156.659, 42496.00
1157.750, 42721.00
1158.839, 42674.87
1159.929, 42541.00
1161.019, 42595.00
1162.108, 42564.00
1163.198, 42379.00
1164.287, 42680.00
1165.376, 42324.00
1166.465, 42705.00
1167.553, 42525.00
1168.642, 42584.00
1169.730, 42582.00
1170.818, 42671.00
1171.906, 42689.00
1172.994, 42705.00
1174.082, 42730.08
1175.170, 42741.35
1176.257, 42721.00
1177.344, 42791.00
1178.431, 42766.00
1179.518, 42836.57
1180.605, 42949.00
1181.691, 42967.00
1182.778, 42953.00
1183.864, 42872.00
1184.950, 43202.00
1186.036, 43300.00
1187.122, 42828.00
1188.207, 43082.00
1189.292, 43294.00
1190.378, 42710.00
1191.463, 43168.00
1192.548, 43059.00
1193.632, 43469.00
1194.717, 43320.00
1195.801, 43047.00
1196.886, 42972.00
1197.970, 43092.00
1199.054, 43246.00
1200.137, 43331.00
1201.221, 43367.00
1202.305, 43370.00
1203.388, 43396.00
1204.471, 43405.37
1205.554, 43406.93
1206.637, 43414.00
1207.719, 43436.00
1208.802, 43427.00
1209.884, 43503.00
1210.966, 43513.00
1212.048, 43376.00
1213.130, 43595.00
1214.212, 43826.00
1215.293, 43672.00
1216.374, 43605.00
1217.456, 43782.00
1218.536, 43609.00
1219.617, 43608.00
1220.698, 44025.00
1221.778, 43873.00
1222.859, 43685.00
1223.939, 43640.00
1225.019, 43960.00
1226.099, 43710.00
1227.178, 44215.00
1228.258, 43949.00
1229.337, 43791.00
1230.417, 43773.00
1231.496, 43886.00
1232.574, 43785.31
1233.653, 43923.00
1234.732, 43811.00
1235.810, 43969.00
1236.888, 44120.00
1237.966, 44366.00
1239.044, 44063.00
1240.122, 44191.00
1241.199, 44154.00
1242.277, 44320.00
1243.354, 44389.00
1244.431, 44300.00
1245.508, 44413.00
1246.585, 44231.00
1247.661, 43947.00
1248.738, 44363.00
1249.814, 44211.00
1250.890, 44445.00
1251.966, 44474.00
1253.042, 44139.00
1254.117, 44691.00
1255.193, 44290.00
1256.268, 44728.00
1257.343, 44602.00
1258.418, 44507.00
1259.493, 44520.00
1260.567, 44522.00
1261.642, 44611.00
1262.716, 44848.00
1263.790, 44471.00
1264.864, 44541.00
1265.938, 44820.00
1267.011, 44633.00
1268.085, 44712.00
1269.158, 44641.00
1270.231, 44865.00
1271.304, 44782.00
1272.377, 44758.00
1273.450, 45025.00
1274.522, 45054.00
1275.594, 44756.00
1276.666, 44943.00
1277.738, 45054.00
1278.810, 44848.00
1279.882, 44911.00
1280.953, 45228.00
1282.025, 44997.00
1283.096, 45094.00
1284.167, 45091.00
1285.238, 44967.80
1286.308, 45065.00
1287.379, 44864.00
1288.449, 45200.00
1289.519, 45298.00
1290.589, 45517.00
1291.659, 45459.03
1292.729, 45326.00
1293.798, 45265.00
1294.868, 45292.00
1295.937, 45272.00
1297.006, 45279.00
1298.075, 45192.00
1299.143, 45441.00
1300.212, 45352.00
1301.280, 45389.00
1302.348, 45277.00
1303.416, 45492.00
1304.484, 45345.00
1305.552, 45526.00
1306.620, 45464.00
1307.687, 45278.00
1308.754, 45497.00
1309.821, 45729.00
1310.888, 45472.00
1311.955, 45445.00
1313.021, 45670.00
1314.088, 45753.00
1315.154, 45564.00
1316.220, 45770.00
1317.286, 45824.00
1318.352, 45527.00
1319.417, 45895.00
1320.483, 45605.00
1321.548, 45899.00
1322.613, 45989.00
1323.678, 45845.00
1324.743, 45888.00
1325.807, 45823.00
1326.872, 45783.00
1327.936, 45970.00
1329.000, 46101.00
1330.064, 46007.00
1331.128, 45993.00
1332.191, 45888.00
1333.255, 46613.00
1334.318, 46627.00
1335.381, 46345.00
1336.444, 45920.00
1337.507, 46277.00
1338.569, 46160.00
1339.632, 46371.00
1340.694, 46000.00
1341.756, 46524.00
1342.818, 45812.00
1343.880, 46194.00
1344.941, 46297.00
1346.003, 46304.00
1347.064, 46384.00
1348.125, 46227.00
1349.186, 46323.00
1350.247, 46313.00
1351.308, 46705.00
1352.368, 46005.00
1353.428, 46564.00
1354.489, 46420.00
1355.549, 46428.00
1356.608, 46519.00
1357.668, 46295.00
1358.727, 46368.00
1359.787, 46363.00
1360.846, 46342.00
1361.905, 46713.00
1362.964, 46596.00
1364.022, 46673.00
1365.081, 46759.00
1366.139, 46665.00
1367.197, 46853.00
1368.255, 46711.00
1369.313, 46619.00
1370.371, 46890.00
1371.428, 46869.00
1372.486, 46729.00
1373.543, 46605.00
1374.600, 46999.00
1375.657, 46810.00
1376.713, 47100.00
1377.770, 47035.00
1378.826, 46875.00
1379.882, 46776.00
1380.938, 47146.00
1381.994, 46980.00
1383.050, 47084.00
1384.106, 47208.00
1385.161, 46962.00
1386.216, 46871.00
1387.271, 46982.00
1388.326, 47276.00
1389.381, 47019.00
1390.435, 47129.00
1391.490, 46992.00
1392.544, 47091.00
1393.598, 47097.09
1394.652, 47193.00
1395.705, 47175.00
1396.759, 47351.00
1397.812, 47444.00
1398.866, 47304.00
1399.919, 47572.00
1400.972, 47422.00
1402.024, 47503.73
1403.077, 47276.00
1404.129, 47559.00
1405.181, 47423.00
1406.233, 47385.00
1407.285, 47525.00
1408.337, 47345.00
1409.389, 47594.00
1410.440, 47205.00
1411.491, 47411.00
1412.542, 47378.00
1413.593, 47370.00
1414.644, 47595.00
1415.695, 47348.00
1416.745, 47593.00
1417.795, 47611.00
1418.845, 47850.00
1419.895, 47993.00
1420.945, 47641.00
1421.995, 47738.00
1423.044, 47874.00
1424.093, 47339.00
1425.142, 47714.00
1426.191, 47899.00
1427.240, 47996.00
1428.289, 47714.00
1429.337, 47867.00
1430.385, 48110.00
1431.433, 47719.00
1432.481, 47966.00
1433.529, 48150.00
1434.577, 48007.00
1435.624, 48322.00
1436.672, 48123.00
1437.719, 48038.00
1438.766, 48021.00
1439.812, 47943.00
1440.859, 48078.00
1441.905, 48385.00
1442.952, 48107.00
1443.998, 48261.00
1445.044, 48167.00
1446.090, 48166.00
1447.135, 48030.00
1448.181, 48119.03
1449.226, 48407.00
1450.271, 48245.00
1451.316, 48401.00
1452.361, 48391.00
1453.405, 48365.00
1454.450, 48343.00
1455.494, 48294.00
1456.538, 48298.00
1457.582, 48338.00
1458.626, 48367.00
1459.670, 48313.00
1460.713, 48433.00
1461.757, 48417.95
1462.800, 48635.00
1463.843, 48456.00
1464.886, 48619.00
1465.928, 48617.00
1466.971, 48628.00
1468.013, 48664.00
1469.055, 48774.00
1470.097, 48465.00
1471.139, 48640.00
1472.181, 48420.00
1473.222, 48565.00
1474.263, 48770.00
1475.305, 48858.00
1476.346, 48710.00
1477.386, 48610.00
1478.427, 48917.00
1479.468, 48785.00
1480.508, 48908.00
1481.548, 48799.00
1482.588, 48888.00
1483.628, 48875.00
1484.668, 48892.00
1485.707, 48975.95
1486.747, 49041.00
1487.786, 49084.00
1488.825, 49166.00
1489.864, 49138.00
1490.902, 49239.00
1491.941, 49056.00
1492.979, 49093.00
1494.017, 49232.00
1495.055, 49280.00
1496.093, 48979.00
1497.131, 49342.00
1498.168, 49138.00
1499.206, 49259.00
1500.243, 49170.00
1501.280, 48987.00
1502.317, 49391.00
1503.354, 49300.00
1504.390, 49550.00
1505.426, 49335.00
1506.463, 49222.00
1507.499, 49355.00
1508.535, 49558.00
1509.570, 49576.00
1510.606, 49508.00
1511.641, 49558.00
1512.676, 49308.00
1513.711, 49302.00
1514.746, 49465.00
1515.781, 49810.00
1516.816, 49354.00
1517.850, 49614.00
1518.884, 49892.00
1519.918, 49674.00
1520.952, 49895.00
1521.986, 49398.00
1523.019, 49849.00
1524.053, 49593.00
1525.086, 49535.00
1526.119, 49721.00
1527.152, 49725.00
1528.185, 49696.00
1529.217, 49841.00
1530.250, 50036.00
1531.282, 49780.00
1532.314, 49590.00
1533.346, 49698.00
1534.377, 49929.00
1535.409, 49989.00
1536.440, 50006.00
1537.472, 49876.00
1538.503, 49820.00
1539.534, 49917.00
1540.564, 50096.00
1541.595, 50025.00
1542.625, 50084.31
1543.656, 50060.00
1544.686, 49973.00
1545.716, 50072.00
1546.745, 49878.00
1547.775, 50035.00
1548.804, 50315.00
1549.834, 50334.00
1550.863, 50371.00
1551.892, 50111.00
1552.920, 50284.00
1553.949, 50188.00
1554.977, 50464.00
1556.006, 49986.00
1557.034, 50273.00
1558.062, 50142.00
1559.089, 50251.00
1560.117, 50130.00
1561.144, 50623.00
1562.172, 50298.00
1563.199, 50455.00
1564.226, 50240.00
1565.252, 50479.00
1566.279, 50268.00
1567.305, 50164.00
1568.332, 50465.00
1569.358, 50300.00
1570.384, 50948.00
##END=



