##NAMES=Brucite
##RRUFFID=R050455
##IDEAL CHEMISTRY=Mg(OH)_2_
##LOCALITY=Texas, Lancaster County, Pennsylvania, USA
##OWNER=RRUFF
##SOURCE=University of Arizona Mineral Museum
##DESCRIPTION=Group of green tabular crystals
##STATUS=The identification of this mineral has been confirmed by X-ray diffraction and chemical analysis
##URL=rruff.info/R050455
##MEASURED CHEMISTRY=(Mg_0.99_Mn_0.01_)(OH)_2_
##PIN_ID=M00121
##ORIENTATION=Laser parallel to a* (1 0 0). Fiducial mark perpendicular to laser is parallel to c [0 0 1]
107.0470, 14390.00
108.2800, 14709.00
109.5120, 14937.00
110.7440, 14888.00
111.9760, 14863.00
113.2080, 14720.00
114.4400, 14798.00
115.6710, 15237.00
116.9030, 15084.00
118.1340, 15236.00
119.3650, 15176.00
120.5960, 15286.00
121.8270, 15327.00
123.0580, 15510.00
124.2880, 15522.87
125.5190, 15551.00
126.7490, 15645.00
127.9790, 15741.00
129.2090, 15902.00
130.4390, 16031.00
131.6680, 16162.00
132.8980, 16066.00
134.1270, 16163.00
135.3560, 16220.00
136.5850, 16310.00
137.8140, 16414.00
139.0430, 16465.54
140.2710, 16490.00
141.5000, 16543.00
142.7280, 16625.00
143.9560, 16562.00
145.1840, 16691.00
146.4120, 17015.00
147.6390, 16866.00
148.8670, 16985.00
150.0940, 16941.00
151.3210, 17036.00
152.5490, 16961.00
153.7750, 17070.00
155.0020, 17232.00
156.2290, 17201.00
157.4550, 17276.00
158.6810, 17244.00
159.9080, 17427.00
161.1340, 17350.00
162.3590, 17440.00
163.5850, 17349.00
164.8110, 17521.00
166.0360, 17524.00
167.2610, 17679.00
168.4860, 17686.00
169.7110, 17864.00
170.9360, 17797.00
172.1610, 17915.00
173.3850, 17867.00
174.6100, 17924.00
175.8340, 18053.00
177.0580, 17943.00
178.2820, 17834.00
179.5050, 18174.00
180.7290, 18159.00
181.9520, 18088.00
183.1760, 18073.00
184.3990, 18321.00
185.6220, 18350.00
186.8450, 18152.00
188.0670, 18407.00
189.2900, 18396.00
190.5120, 18353.00
191.7340, 18408.00
192.9560, 18597.00
194.1780, 18613.00
195.4000, 18555.00
196.6220, 18572.00
197.8430, 18573.00
199.0640, 18676.00
200.2860, 18810.00
201.5070, 19124.00
202.7270, 18986.00
203.9480, 19042.00
205.1690, 18904.00
206.3890, 18755.00
207.6090, 18809.00
208.8290, 18779.00
210.0490, 18836.00
211.2690, 18905.00
212.4890, 18888.00
213.7080, 18896.00
214.9280, 19080.00
216.1470, 18963.00
217.3660, 18962.00
218.5850, 19294.00
219.8030, 19086.00
221.0220, 19336.00
222.2400, 19366.00
223.4590, 19438.00
224.6770, 19291.00
225.8950, 19396.00
227.1120, 19343.00
228.3300, 19580.00
229.5480, 19647.00
230.7650, 19568.00
231.9820, 19514.00
233.1990, 19697.00
234.4160, 19694.00
235.6330, 19925.00
236.8490, 19712.00
238.0660, 20004.00
239.2820, 19947.00
240.4980, 19938.00
241.7140, 20062.00
242.9300, 20135.00
244.1460, 20116.00
245.3610, 20274.00
246.5770, 20324.00
247.7920, 20598.00
249.0070, 20569.00
250.2220, 20703.00
251.4370, 20621.00
252.6510, 20849.00
253.8660, 21117.00
255.0800, 21070.00
256.2940, 21284.00
257.5080, 21546.00
258.7220, 21704.00
259.9360, 22274.00
261.1490, 22338.00
262.3630, 22861.00
263.5760, 23232.00
264.7890, 23642.00
266.0020, 24335.00
267.2150, 24958.00
268.4270, 25486.00
269.6400, 26276.00
270.8520, 26899.00
272.0640, 27227.00
273.2760, 27611.00
274.4880, 27698.00
275.7000, 27589.00
276.9120, 27165.00
278.1230, 26619.00
279.3340, 25849.00
280.5450, 25407.00
281.7560, 24657.00
282.9670, 23957.00
284.1780, 23443.00
285.3880, 22962.33
286.5980, 22630.00
287.8090, 22294.00
289.0190, 22209.00
290.2290, 22041.00
291.4380, 21931.00
292.6480, 21751.00
293.8570, 21920.00
295.0670, 21690.00
296.2760, 21781.00
297.4850, 21510.00
298.6930, 21752.00
299.9020, 21782.00
301.1110, 21650.00
302.3190, 21683.00
303.5270, 21501.00
304.7350, 21630.00
305.9430, 21738.00
307.1510, 21702.00
308.3580, 21524.00
309.5660, 21702.00
310.7730, 21721.00
311.9800, 21708.00
313.1870, 21773.00
314.3940, 21789.27
315.6010, 21813.67
316.8070, 21835.00
318.0130, 21882.00
319.2200, 21840.00
320.4260, 21898.00
321.6310, 21830.00
322.8370, 22000.00
324.0430, 21955.00
325.2480, 22088.00
326.4540, 22051.00
327.6590, 21995.00
328.8640, 22116.00
330.0680, 22114.00
331.2730, 22327.00
332.4780, 22148.00
333.6820, 22272.00
334.8860, 22296.00
336.0900, 22255.00
337.2940, 22306.00
338.4980, 22298.00
339.7010, 22295.00
340.9050, 22344.00
342.1080, 22380.00
343.3110, 22423.00
344.5140, 22606.00
345.7170, 22682.00
346.9200, 22544.00
348.1220, 22435.00
349.3240, 22566.00
350.5270, 22574.00
351.7290, 22765.00
352.9310, 22713.00
354.1320, 22581.00
355.3340, 22646.00
356.5350, 22644.57
357.7370, 22604.00
358.9380, 22812.00
360.1390, 22772.00
361.3400, 22943.00
362.5400, 22879.00
363.7410, 22776.00
364.9410, 23024.00
366.1410, 22957.00
367.3410, 23048.00
368.5410, 23135.00
369.7410, 22969.00
370.9400, 23191.00
372.1400, 23102.00
373.3390, 23226.00
374.5380, 23110.00
375.7370, 23075.00
376.9360, 23448.00
378.1350, 23325.00
379.3330, 23363.00
380.5310, 23464.00
381.7300, 23248.00
382.9280, 23698.00
384.1260, 23561.00
385.3230, 23418.00
386.5210, 23709.00
387.7180, 23462.00
388.9160, 23807.00
390.1130, 23731.00
391.3100, 23615.00
392.5060, 23871.00
393.7030, 23890.00
394.9000, 23859.00
396.0960, 24141.00
397.2920, 24223.00
398.4880, 24267.00
399.6840, 24387.00
400.8800, 24164.00
402.0750, 24397.00
403.2710, 24473.00
404.4660, 24790.00
405.6610, 24490.00
406.8560, 24676.00
408.0510, 24751.00
409.2450, 25120.00
410.4400, 24926.00
411.6340, 25207.00
412.8280, 25368.00
414.0220, 25493.00
415.2160, 25807.00
416.4100, 25918.00
417.6030, 26228.66
418.7970, 26511.00
419.9900, 26829.00
421.1830, 27270.00
422.3760, 27591.00
423.5690, 28108.00
424.7610, 29050.00
425.9540, 29925.00
427.1460, 30990.00
428.3380, 32355.00
429.5300, 34256.00
430.7220, 36682.00
431.9140, 39450.00
433.1050, 42485.00
434.2970, 45688.00
435.4880, 48898.00
436.6790, 51779.00
437.8700, 53658.00
439.0610, 55552.00
440.2510, 55257.00
441.4420, 53600.00
442.6320, 51234.00
443.8220, 47520.00
445.0120, 44155.00
446.2020, 40708.00
447.3910, 37295.00
448.5810, 34774.00
449.7700, 32765.00
450.9600, 31447.00
452.1490, 30412.00
453.3370, 29472.00
454.5260, 28877.00
455.7150, 28398.00
456.9030, 27928.00
458.0910, 27685.00
459.2800, 27337.00
460.4670, 27236.00
461.6550, 26771.00
462.8430, 26610.00
464.0300, 26886.00
465.2180, 26560.00
466.4050, 26625.00
467.5920, 26639.00
468.7790, 26391.00
469.9650, 26404.00
471.1520, 26423.00
472.3380, 26418.00
473.5250, 26364.98
474.7110, 26335.00
475.8970, 26256.00
477.0820, 26179.00
478.2680, 26186.00
479.4540, 26458.00
480.6390, 26285.00
481.8240, 26244.00
483.0090, 26406.00
484.1940, 26249.00
485.3780, 26251.00
486.5630, 26302.00
487.7470, 26056.00
488.9320, 26345.00
490.1160, 26447.00
491.3000, 26202.00
492.4830, 26258.00
493.6670, 26412.00
494.8500, 26475.00
496.0340, 26355.00
497.2170, 26411.00
498.4000, 26376.00
499.5820, 26447.00
500.7650, 26347.00
501.9480, 26466.00
503.1300, 26459.69
504.3120, 26291.00
505.4940, 26545.00
506.6760, 26449.00
507.8580, 26537.00
509.0390, 26499.00
510.2210, 26676.00
511.4020, 26529.00
512.5830, 26464.00
513.7640, 26598.00
514.9450, 26606.00
516.1250, 26565.00
517.3060, 26654.00
518.4860, 26767.00
519.6660, 26607.00
520.8460, 26869.00
522.0260, 26833.00
523.2060, 26805.00
524.3850, 26829.00
525.5650, 26740.00
526.7440, 27012.00
527.9230, 27230.00
529.1020, 27040.00
530.2810, 27063.00
531.4590, 27133.00
532.6380, 27052.00
533.8160, 27007.00
534.9940, 27014.00
536.1720, 27227.00
537.3500, 27480.00
538.5270, 27058.00
539.7050, 27313.00
540.8820, 27294.00
542.0590, 27159.00
543.2360, 27196.00
544.4130, 27200.00
545.5900, 27359.00
546.7660, 27326.43
547.9430, 27450.00
549.1190, 27352.00
550.2950, 27512.00
551.4710, 27553.00
552.6470, 27530.00
553.8220, 27917.00
554.9980, 27737.52
556.1730, 27905.00
557.3480, 27584.00
558.5230, 27770.00
559.6980, 27681.00
560.8730, 27350.00
562.0470, 27935.00
563.2220, 27768.00
564.3960, 27646.00
565.5700, 27900.00
566.7440, 27729.00
567.9170, 27812.00
569.0910, 27723.00
570.2640, 27999.00
571.4380, 27982.00
572.6110, 27871.00
573.7840, 28031.00
574.9570, 28011.00
576.1290, 28044.00
577.3020, 28247.00
578.4740, 28217.00
579.6460, 28248.41
580.8180, 28287.00
581.9900, 28209.00
583.1620, 28072.00
584.3330, 28043.00
585.5040, 28207.00
586.6760, 28224.00
587.8470, 28371.00
589.0180, 28361.00
590.1880, 28474.00
591.3590, 28383.00
592.5290, 28252.00
593.7000, 28437.00
594.8700, 28639.00
596.0400, 28550.00
597.2090, 28474.00
598.3790, 28573.00
599.5490, 28449.00
600.7180, 28623.00
601.8870, 28608.00
603.0560, 28548.00
604.2250, 28655.00
605.3940, 28651.00
606.5620, 28860.00
607.7300, 28757.00
608.8990, 28881.00
610.0670, 28745.00
611.2350, 28906.00
612.4020, 28901.00
613.5700, 28625.00
614.7370, 28829.00
615.9050, 29051.00
617.0720, 28945.00
618.2390, 29087.00
619.4060, 28987.00
620.5720, 28967.00
621.7390, 29120.00
622.9050, 29128.00
624.0710, 29321.00
625.2370, 29267.00
626.4030, 29196.00
627.5690, 29445.00
628.7340, 29303.00
629.9000, 29294.00
631.0650, 29640.00
632.2300, 29348.00
633.3950, 29369.00
634.5600, 29660.00
635.7240, 29540.00
636.8890, 29283.00
638.0530, 29492.00
639.2170, 29509.00
640.3810, 29439.00
641.5450, 29612.00
642.7080, 29513.00
643.8720, 29624.00
645.0350, 29670.00
646.1980, 29801.00
647.3610, 29757.00
648.5240, 29917.00
649.6870, 29890.00
650.8490, 29755.00
652.0120, 30049.00
653.1740, 30093.00
654.3360, 29964.00
655.4980, 29969.00
656.6600, 30339.00
657.8210, 30101.00
658.9830, 30140.00
660.1440, 29960.00
661.3050, 30137.00
662.4660, 30509.00
663.6270, 30345.00
664.7870, 30219.00
665.9480, 30530.00
667.1080, 30417.00
668.2680, 30347.00
669.4280, 30487.00
670.5880, 30536.00
671.7480, 30546.00
672.9070, 30679.00
674.0670, 30784.00
675.2260, 30737.00
676.3850, 30645.00
677.5440, 30866.00
678.7030, 30993.00
679.8610, 30868.00
681.0200, 30982.00
682.1780, 30959.00
683.3360, 31084.00
684.4940, 31258.00
685.6520, 31233.00
686.8090, 31143.00
687.9670, 31287.00
689.1240, 31049.00
690.2810, 31533.00
691.4380, 31449.00
692.5950, 31436.00
693.7520, 31417.00
694.9080, 31515.00
696.0650, 31734.00
697.2210, 31944.00
698.3770, 31792.00
699.5330, 31837.00
700.6880, 31826.00
701.8440, 32141.00
702.9990, 31893.00
704.1550, 32406.00
705.3100, 32364.00
706.4650, 32204.00
707.6190, 32140.00
708.7740, 32522.00
709.9290, 32580.00
711.0830, 32558.00
712.2370, 32471.00
713.3910, 32934.00
714.5450, 32858.00
715.6980, 32916.00
716.8520, 32843.00
718.0050, 32941.00
719.1580, 32848.00
720.3110, 33004.00
721.4640, 33210.00
722.6170, 33171.00
723.7700, 33196.00
724.9220, 33247.00
726.0740, 33433.00
727.2260, 33327.00
728.3780, 33304.00
729.5300, 33176.00
730.6810, 33229.00
731.8330, 33488.00
732.9840, 33469.00
734.1350, 33355.00
735.2860, 33328.00
736.4370, 33319.00
737.5880, 33415.00
738.7380, 33319.00
739.8880, 33379.00
741.0390, 33467.00
742.1890, 33331.00
743.3380, 33375.00
744.4880, 33506.00
745.6380, 33257.00
746.7870, 33384.00
747.9360, 33192.00
749.0850, 33604.00
750.2340, 33227.00
751.3830, 33339.00
752.5310, 33274.00
753.6800, 33274.00
754.8280, 33234.00
755.9760, 33092.00
757.1240, 33541.00
758.2720, 33465.00
759.4190, 33361.00
760.5670, 33545.00
761.7140, 33445.00
762.8610, 33160.00
764.0080, 33281.00
765.1550, 33383.00
766.3020, 33350.00
767.4480, 33394.00
768.5950, 33301.00
769.7410, 33369.00
770.8870, 33520.00
772.0330, 33472.00
773.1780, 33619.00
774.3240, 33549.00
775.4690, 33622.00
776.6140, 33494.00
777.7590, 33634.00
778.9040, 33385.00
780.0490, 33456.00
781.1940, 33432.00
782.3380, 33390.66
783.4820, 33596.00
784.6260, 33450.00
785.7700, 33663.00
786.9140, 33768.00
788.0580, 33765.00
789.2010, 33558.00
790.3450, 33753.00
791.4880, 33625.00
792.6310, 33684.00
793.7730, 33529.00
794.9160, 33592.40
796.0590, 33695.00
797.2010, 33749.00
798.3430, 33490.00
799.4850, 33676.00
800.6270, 33792.00
801.7690, 34032.00
802.9100, 34142.00
804.0520, 34168.20
805.1930, 34036.00
806.3340, 34141.00
807.4750, 34148.00
808.6160, 34110.00
809.7560, 34249.00
810.8970, 34105.00
812.0370, 34026.00
813.1770, 34132.00
814.3170, 34111.00
815.4570, 34109.00
816.5960, 34235.00
817.7360, 34052.00
818.8750, 34055.00
820.0140, 34164.00
821.1530, 34037.00
822.2920, 34105.00
823.4310, 34197.00
824.5690, 34049.00
825.7070, 34362.00
826.8460, 34227.00
827.9840, 34187.00
829.1220, 34424.00
830.2590, 34002.00
831.3970, 34214.00
832.5340, 34380.00
833.6710, 34212.00
834.8080, 34435.00
835.9450, 34224.00
837.0820, 34164.00
838.2190, 34378.00
839.3550, 34176.00
840.4910, 34195.00
841.6270, 34310.00
842.7630, 34370.00
843.8990, 34442.00
845.0350, 34399.00
846.1700, 34420.80
847.3060, 34247.00
848.4410, 34405.00
849.5760, 34404.00
850.7100, 34463.00
851.8450, 34637.00
852.9800, 34609.00
854.1140, 34155.00
855.2480, 34408.00
856.3820, 34466.00
857.5160, 34135.00
858.6500, 34354.00
859.7830, 34320.00
860.9170, 34513.00
862.0500, 34290.00
863.1830, 34410.00
864.3160, 34339.00
865.4480, 34410.00
866.5810, 34404.00
867.7130, 34382.00
868.8460, 34472.00
869.9780, 34295.00
871.1100, 34498.00
872.2410, 34478.00
873.3730, 34445.00
874.5050, 34252.00
875.6360, 34321.00
876.7670, 34203.00
877.8980, 34473.00
879.0290, 34535.00
880.1590, 34335.00
881.2900, 34760.00
882.4200, 34371.00
883.5500, 34190.00
884.6800, 34491.00
885.8100, 34389.00
886.9400, 34457.00
888.0690, 34295.00
889.1990, 34375.80
890.3280, 34484.00
891.4570, 34464.00
892.5860, 34723.00
893.7140, 34742.00
894.8430, 34475.00
895.9710, 34762.00
897.1000, 34421.00
898.2280, 34777.00
899.3560, 34643.00
900.4830, 34668.00
901.6110, 34731.00
902.7380, 34670.00
903.8660, 34727.33
904.9930, 34782.00
906.1200, 34750.00
907.2460, 34695.00
908.3730, 34648.00
909.5000, 34476.00
910.6260, 34749.00
911.7520, 34858.00
912.8780, 34721.00
914.0040, 34733.00
915.1290, 34940.00
916.2550, 34901.00
917.3800, 34840.00
918.5050, 34994.00
919.6300, 34955.00
920.7550, 34825.00
921.8800, 34760.00
923.0040, 34803.95
924.1290, 35087.00
925.2530, 34928.00
926.3770, 34976.00
927.5010, 35047.00
928.6250, 35001.00
929.7480, 35211.00
930.8720, 35287.00
931.9950, 35270.23
933.1180, 34989.00
934.2410, 35228.00
935.3640, 35111.00
936.4860, 35032.00
937.6090, 35228.00
938.7310, 34934.00
939.8530, 35156.00
940.9750, 35350.00
942.0970, 35079.00
943.2180, 35245.00
944.3400, 35380.00
945.4610, 35134.00
946.5820, 35230.00
947.7030, 35337.00
948.8240, 35417.00
949.9450, 35579.00
951.0650, 35545.00
952.1860, 35629.00
953.3060, 35246.00
954.4260, 35520.00
955.5460, 35383.00
956.6650, 35538.00
957.7850, 35672.00
958.9040, 35395.00
960.0230, 35364.00
961.1420, 35433.00
962.2610, 35598.00
963.3800, 35704.00
964.4990, 35799.00
965.6170, 35655.00
966.7350, 35639.00
967.8530, 35637.00
968.9710, 35689.00
970.0890, 35696.00
971.2070, 35725.73
972.3240, 35771.33
973.4410, 35789.00
974.5580, 35872.00
975.6750, 35922.61
976.7920, 36001.00
977.9090, 36008.00
979.0250, 36076.00
980.1410, 36014.00
981.2580, 35911.00
982.3740, 35765.00
983.4890, 35807.00
984.6050, 35912.00
985.7200, 36125.00
986.8360, 36130.00
987.9510, 36232.00
989.0660, 36177.00
990.1810, 36079.00
991.2950, 36114.83
992.4100, 36086.80
993.5240, 36093.00
994.6390, 36062.00
995.7530, 36093.00
996.8660, 35960.00
997.9800, 36224.00
999.0940, 36389.00
1000.207, 36390.00
1001.320, 36002.00
1002.433, 36331.00
1003.546, 36171.00
1004.659, 36490.00
1005.772, 36558.00
1006.884, 36467.00
1007.996, 36670.95
1009.108, 36430.00
1010.220, 36777.00
1011.332, 36439.00
1012.444, 36347.00
1013.555, 36686.00
1014.666, 36548.00
1015.777, 36543.00
1016.888, 36676.00
1017.999, 36610.00
1019.110, 36607.00
1020.220, 36753.00
1021.331, 36676.00
1022.441, 36841.00
1023.551, 36659.00
1024.661, 36540.00
1025.770, 36718.00
1026.880, 36665.00
1027.989, 36798.00
1029.098, 36731.00
1030.207, 37025.00
1031.316, 36942.00
1032.425, 37248.00
1033.533, 36590.00
1034.642, 36825.00
1035.750, 36740.00
1036.858, 36856.00
1037.966, 36989.00
1039.073, 37024.00
1040.181, 36953.00
1041.288, 37167.00
1042.396, 36919.00
1043.503, 36891.00
1044.610, 37017.00
1045.716, 37123.00
1046.823, 37006.00
1047.929, 37165.00
1049.036, 37036.00
1050.142, 37096.00
1051.248, 37046.00
1052.353, 37190.00
1053.459, 37031.00
1054.564, 37279.00
1055.670, 37076.00
1056.775, 37252.00
1057.880, 37484.00
1058.985, 37244.00
1060.089, 37317.00
1061.194, 37261.00
1062.298, 37137.00
1063.402, 37190.00
1064.506, 37154.59
1065.610, 37475.00
1066.713, 37209.00
1067.817, 37348.00
1068.920, 37422.00
1070.023, 37330.00
1071.126, 37421.18
1072.229, 37414.01
1073.332, 37456.00
1074.435, 37490.00
1075.537, 37540.00
1076.639, 37675.00
1077.741, 37528.00
1078.843, 37654.00
1079.945, 37428.00
1081.046, 37932.00
1082.148, 37608.00
1083.249, 37744.00
1084.350, 37693.00
1085.451, 37886.00
1086.551, 37697.00
1087.652, 37835.00
1088.752, 37500.00
1089.853, 37869.00
1090.953, 37848.00
1092.053, 37650.00
1093.152, 37631.00
1094.252, 37836.00
1095.351, 37907.00
1096.451, 38003.00
1097.550, 37935.00
1098.649, 37875.00
1099.748, 37967.00
1100.846, 38073.00
1101.945, 38060.00
1103.043, 37832.00
1104.141, 38018.00
1105.239, 37969.00
1106.337, 38082.00
1107.434, 38193.00
1108.532, 38182.00
1109.629, 38049.00
1110.726, 38430.00
1111.823, 38015.00
1112.920, 38112.00
1114.017, 38184.00
1115.113, 37991.00
1116.210, 38218.00
1117.306, 38508.00
1118.402, 38325.00
1119.498, 38419.00
1120.593, 38431.00
1121.689, 38305.00
1122.784, 38491.00
1123.879, 38435.00
1124.974, 38376.00
1126.069, 38522.00
1127.164, 38759.00
1128.259, 38632.00
1129.353, 38600.00
1130.447, 38800.00
1131.541, 38614.00
1132.635, 38800.00
1133.729, 38433.00
1134.822, 38728.00
1135.916, 38528.00
1137.009, 38556.00
1138.102, 38638.00
1139.195, 38865.00
1140.288, 38869.00
1141.380, 38739.00
1142.473, 38698.00
1143.565, 38693.00
1144.657, 38683.13
1145.749, 38727.00
1146.841, 38800.00
1147.932, 38874.00
1149.024, 39027.00
1150.115, 38842.00
1151.206, 38805.00
1152.297, 39152.00
1153.388, 38658.00
1154.479, 39018.00
1155.569, 39049.00
1156.659, 39379.00
1157.750, 39025.00
1158.839, 39059.00
1159.929, 39161.00
1161.019, 38973.00
1162.108, 39155.00
1163.198, 38954.00
1164.287, 39013.00
1165.376, 39262.00
1166.465, 39399.00
1167.553, 39239.00
1168.642, 39077.00
1169.730, 39077.00
1170.818, 39288.00
1171.906, 39392.00
1172.994, 39368.00
1174.082, 39414.00
1175.170, 39413.50
1176.257, 39397.00
1177.344, 39410.00
1178.431, 39397.00
1179.518, 39449.00
1180.605, 39383.00
1181.691, 39497.00
1182.778, 39349.00
1183.864, 39554.00
1184.950, 39337.00
1186.036, 39516.00
1187.122, 39631.00
1188.207, 39446.00
1189.292, 39584.00
1190.378, 39702.00
1191.463, 39815.00
1192.548, 39777.00
1193.632, 39612.00
1194.717, 39745.00
1195.801, 39753.00
1196.886, 39623.00
1197.970, 39706.00
1199.054, 39691.00
1200.137, 39642.00
1201.221, 39846.00
1202.305, 39970.00
1203.388, 39876.00
1204.471, 39955.00
1205.554, 39860.00
1206.637, 39941.00
1207.719, 39920.00
1208.802, 39875.00
1209.884, 39935.00
1210.966, 40035.00
1212.048, 39968.00
1213.130, 40260.00
1214.212, 40178.00
1215.293, 40232.00
1216.374, 40131.00
1217.456, 40144.01
1218.536, 40192.00
1219.617, 40159.00
1220.698, 40125.00
1221.778, 40180.00
1222.859, 40251.00
1223.939, 40203.00
1225.019, 40396.00
1226.099, 40210.00
1227.178, 40199.00
1228.258, 40554.00
1229.337, 40188.00
1230.417, 40396.00
1231.496, 40063.00
1232.574, 40325.00
1233.653, 40361.00
1234.732, 40327.00
1235.810, 40649.00
1236.888, 40252.00
1237.966, 40516.00
1239.044, 40402.00
1240.122, 40418.00
1241.199, 40550.00
1242.277, 40594.00
1243.354, 40491.00
1244.431, 40531.00
1245.508, 40795.00
1246.585, 40346.00
1247.661, 40683.00
1248.738, 40662.00
1249.814, 41164.00
1250.890, 41033.00
1251.966, 40493.00
1253.042, 40724.00
1254.117, 40772.00
1255.193, 40873.00
1256.268, 40909.00
1257.343, 41068.00
1258.418, 41041.02
1259.493, 41122.31
1260.567, 41088.00
1261.642, 41035.00
1262.716, 41203.00
1263.790, 40796.00
1264.864, 41094.00
1265.938, 41050.00
1267.011, 40859.00
1268.085, 40857.00
1269.158, 40933.00
1270.231, 41078.00
1271.304, 40935.00
1272.377, 41232.00
1273.450, 40831.00
1274.522, 41191.00
1275.594, 41017.00
1276.666, 41179.00
1277.738, 41211.00
1278.810, 41242.00
1279.882, 41244.00
1280.953, 41269.00
1282.025, 41270.06
1283.096, 41342.00
1284.167, 41382.00
1285.238, 41281.00
1286.308, 41569.00
1287.379, 41225.00
1288.449, 41170.00
1289.519, 41437.00
1290.589, 41513.00
1291.659, 41553.00
1292.729, 41614.00
1293.798, 41573.00
1294.868, 41607.00
1295.937, 41616.00
1297.006, 41520.00
1298.075, 41534.00
1299.143, 41805.00
1300.212, 41205.00
1301.280, 41660.00
1302.348, 41745.00
1303.416, 41606.00
1304.484, 41785.00
1305.552, 41810.00
1306.620, 41816.00
1307.687, 41850.00
1308.754, 41831.00
1309.821, 41929.00
1310.888, 41909.23
1311.955, 41999.00
1313.021, 41946.00
1314.088, 41829.00
1315.154, 41891.00
1316.220, 42044.00
1317.286, 41608.00
1318.352, 42027.00
1319.417, 41915.00
1320.483, 42125.00
1321.548, 42223.00
1322.613, 41707.00
1323.678, 41975.00
1324.743, 42036.00
1325.807, 42170.00
1326.872, 42196.79
1327.936, 42296.00
1329.000, 42181.00
1330.064, 41938.00
1331.128, 41961.00
1332.191, 41930.37
1333.255, 42012.00
1334.318, 42078.00
1335.381, 42117.00
1336.444, 42283.00
1337.507, 42322.00
1338.569, 42052.00
1339.632, 42641.00
1340.694, 42562.00
1341.756, 42329.00
1342.818, 42597.00
1343.880, 42336.00
1344.941, 42607.00
1346.003, 42440.00
1347.064, 42347.00
1348.125, 42540.00
1349.186, 42265.00
1350.247, 42660.00
1351.308, 42429.00
1352.368, 42617.00
1353.428, 42588.00
1354.489, 42760.00
1355.549, 42637.00
1356.608, 42633.00
1357.668, 42525.00
1358.727, 42466.00
1359.787, 42903.00
1360.846, 42667.00
1361.905, 42784.00
1362.964, 42544.00
1364.022, 42541.00
1365.081, 42925.00
1366.139, 42748.00
1367.197, 43006.00
1368.255, 42666.00
1369.313, 42690.00
1370.371, 42601.00
1371.428, 42903.00
1372.486, 42883.00
1373.543, 42971.00
1374.600, 43103.00
1375.657, 42922.00
1376.713, 42775.00
1377.770, 42858.00
1378.826, 43113.00
1379.882, 42877.00
1380.938, 42968.00
1381.994, 43385.00
1383.050, 43173.00
1384.106, 43309.00
1385.161, 43199.00
1386.216, 42991.00
1387.271, 43208.00
1388.326, 43417.00
1389.381, 43218.00
1390.435, 43261.00
1391.490, 43061.00
1392.544, 43505.00
1393.598, 43424.00
1394.652, 43224.00
1395.705, 43020.00
1396.759, 43611.00
1397.812, 43302.00
1398.866, 43101.00
1399.919, 43590.00
1400.972, 43499.00
1402.024, 43332.00
1403.077, 43654.00
1404.129, 43394.00
1405.181, 43561.00
1406.233, 43451.00
1407.285, 43547.00
1408.337, 43684.00
1409.389, 43653.00
1410.440, 43603.00
1411.491, 43498.00
1412.542, 43550.00
1413.593, 43555.00
1414.644, 43656.00
1415.695, 43693.00
1416.745, 43838.00
1417.795, 43819.05
1418.845, 43639.00
1419.895, 43740.00
1420.945, 43616.00
1421.995, 43429.00
1423.044, 43669.00
1424.093, 43793.00
1425.142, 43860.00
1426.191, 44051.00
1427.240, 44033.20
1428.289, 43757.00
1429.337, 43993.00
1430.385, 43970.00
1431.433, 43869.00
1432.481, 44046.00
1433.529, 44040.00
1434.577, 44012.00
1435.624, 43924.00
1436.672, 44039.00
1437.719, 44195.00
1438.766, 44418.00
1439.812, 44136.00
1440.859, 44080.00
1441.905, 44133.00
1442.952, 44360.00
1443.998, 44347.00
1445.044, 44621.00
1446.090, 44418.00
1447.135, 44163.00
1448.181, 44423.00
1449.226, 44170.00
1450.271, 44348.00
1451.316, 44570.00
1452.361, 44482.00
1453.405, 44268.00
1454.450, 44490.00
1455.494, 44452.00
1456.538, 44526.00
1457.582, 44754.00
1458.626, 44416.00
1459.670, 44580.00
1460.713, 44453.00
1461.757, 44617.00
1462.800, 44645.00
1463.843, 44666.00
1464.886, 44555.00
1465.928, 44507.00
1466.971, 44450.00
1468.013, 44683.00
1469.055, 44659.00
1470.097, 44755.00
1471.139, 44794.00
1472.181, 44769.00
1473.222, 44808.00
1474.263, 44833.23
1475.305, 45003.00
1476.346, 44956.00
1477.386, 44921.00
1478.427, 45094.00
1479.468, 44847.00
1480.508, 45057.00
1481.548, 44899.00
1482.588, 44932.00
1483.628, 44826.00
1484.668, 44853.00
1485.707, 45036.00
1486.747, 45218.00
1487.786, 45201.00
1488.825, 45185.00
1489.864, 44997.00
1490.902, 44917.00
1491.941, 44963.00
1492.979, 45124.00
1494.017, 45221.00
1495.055, 45192.73
1496.093, 45260.00
1497.131, 45166.00
1498.168, 45078.00
1499.206, 45164.00
1500.243, 45288.00
1501.280, 45384.00
1502.317, 45426.00
1503.354, 45307.00
1504.390, 45285.00
1505.426, 45348.00
1506.463, 45339.15
1507.499, 45548.00
1508.535, 45434.00
1509.570, 45443.00
1510.606, 45447.00
1511.641, 45278.00
1512.676, 45634.00
1513.711, 45440.00
1514.746, 45531.00
1515.781, 45380.00
1516.816, 45740.00
1517.850, 45587.00
1518.884, 45711.00
1519.918, 45796.00
1520.952, 45570.00
1521.986, 45358.00
1523.019, 45638.00
1524.053, 45705.00
1525.086, 45745.00
1526.119, 45690.00
1527.152, 45762.00
1528.185, 46064.00
1529.217, 46179.00
1530.250, 45971.00
1531.282, 45901.00
1532.314, 45397.00
1533.346, 45889.00
1534.377, 45729.00
1535.409, 45785.00
1536.440, 46013.00
1537.472, 45764.00
1538.503, 45823.00
1539.534, 45942.00
1540.564, 45816.00
1541.595, 45921.75
1542.625, 46107.00
1543.656, 45938.00
1544.686, 46093.00
1545.716, 46003.00
1546.745, 45795.00
1547.775, 46009.00
1548.804, 46033.00
1549.834, 46177.00
1550.863, 46125.00
1551.892, 46067.00
1552.920, 46180.24
1553.949, 46325.00
1554.977, 46282.00
1556.006, 46327.00
1557.034, 46308.65
1558.062, 46251.00
1559.089, 46467.00
1560.117, 46239.00
1561.144, 46405.00
1562.172, 46258.00
1563.199, 46411.00
1564.226, 46182.00
1565.252, 46698.00
1566.279, 46506.00
1567.305, 46365.00
1568.332, 46424.00
1569.358, 46222.00
1570.384, 46696.00
##END=



