##NAMES=Brucite
##RRUFFID=R050455
##IDEAL CHEMISTRY=Mg(OH)_2_
##LOCALITY=Texas, Lancaster County, Pennsylvania, USA
##OWNER=RRUFF
##SOURCE=University of Arizona Mineral Museum
##DESCRIPTION=Group of green tabular crystals
##STATUS=The identification of this mineral has been confirmed by X-ray diffraction and chemical analysis
##URL=rruff.info/R050455
##MEASURED CHEMISTRY=(Mg_0.99_Mn_0.01_)(OH)_2_
##PIN_ID=M00121
##ORIENTATION=Laser parallel to a* (1 0 0). Fiducial mark perpendicular to laser is parallel to c [0 0 1]
107.0470, 16785.00
108.2800, 17190.00
109.5120, 17382.00
110.7440, 17375.00
111.9760, 17190.00
113.2080, 17148.00
114.4400, 17285.00
115.6710, 17626.00
116.9030, 17769.00
118.1340, 17853.00
119.3650, 17729.00
120.5960, 17740.00
121.8270, 17891.00
123.0580, 18042.00
124.2880, 17933.00
125.5190, 18146.00
126.7490, 18162.00
127.9790, 18362.00
129.2090, 18287.00
130.4390, 18343.00
131.6680, 18465.00
132.8980, 18684.00
134.1270, 18829.00
135.3560, 18939.57
136.5850, 19067.00
137.8140, 19118.00
139.0430, 19098.00
140.2710, 19123.00
141.5000, 19415.00
142.7280, 19155.00
143.9560, 19422.00
145.1840, 19264.00
146.4120, 19334.00
147.6390, 19371.00
148.8670, 19533.00
150.0940, 19679.00
151.3210, 19571.00
152.5490, 19667.00
153.7750, 19690.00
155.0020, 19721.00
156.2290, 19838.00
157.4550, 19803.00
158.6810, 19846.00
159.9080, 19961.00
161.1340, 20033.00
162.3590, 20084.00
163.5850, 19996.00
164.8110, 20405.00
166.0360, 20269.00
167.2610, 20347.00
168.4860, 20504.00
169.7110, 20456.00
170.9360, 20697.00
172.1610, 20592.00
173.3850, 20683.00
174.6100, 20573.00
175.8340, 20618.00
177.0580, 20859.00
178.2820, 20748.00
179.5050, 20870.00
180.7290, 20786.00
181.9520, 20994.00
183.1760, 20986.00
184.3990, 20863.00
185.6220, 21102.00
186.8450, 21156.00
188.0670, 21146.00
189.2900, 21253.00
190.5120, 21313.00
191.7340, 21306.00
192.9560, 21420.00
194.1780, 21656.00
195.4000, 21575.00
196.6220, 21719.81
197.8430, 21712.00
199.0640, 21839.00
200.2860, 21857.00
201.5070, 21926.00
202.7270, 22171.00
203.9480, 21726.00
205.1690, 21688.00
206.3890, 21782.00
207.6090, 21883.00
208.8290, 21719.00
210.0490, 21827.00
211.2690, 21830.00
212.4890, 22000.00
213.7080, 22105.00
214.9280, 21946.00
216.1470, 21903.00
217.3660, 22127.00
218.5850, 22269.00
219.8030, 22042.00
221.0220, 22308.00
222.2400, 22557.00
223.4590, 22551.00
224.6770, 22211.00
225.8950, 22443.00
227.1120, 22333.00
228.3300, 22486.00
229.5480, 22715.00
230.7650, 22656.00
231.9820, 22782.00
233.1990, 22749.00
234.4160, 22907.00
235.6330, 22862.00
236.8490, 23065.00
238.0660, 22979.00
239.2820, 23132.00
240.4980, 23087.00
241.7140, 23408.00
242.9300, 23278.00
244.1460, 23384.00
245.3610, 23389.00
246.5770, 23787.00
247.7920, 23587.00
249.0070, 23963.00
250.2220, 24309.00
251.4370, 24352.00
252.6510, 24312.00
253.8660, 24705.00
255.0800, 24725.00
256.2940, 24890.00
257.5080, 25228.00
258.7220, 25726.00
259.9360, 26254.00
261.1490, 26531.00
262.3630, 26933.00
263.5760, 27579.00
264.7890, 28206.00
266.0020, 29086.00
267.2150, 29935.00
268.4270, 30534.00
269.6400, 31383.00
270.8520, 31838.00
272.0640, 32337.00
273.2760, 32726.00
274.4880, 32910.00
275.7000, 32560.00
276.9120, 31861.00
278.1230, 31460.00
279.3340, 30415.00
280.5450, 29819.00
281.7560, 29765.00
282.9670, 28912.00
284.1780, 27147.00
285.3880, 26890.00
286.5980, 26414.00
287.8090, 26052.00
289.0190, 25640.00
290.2290, 25638.00
291.4380, 25493.00
292.6480, 25465.00
293.8570, 25352.00
295.0670, 25167.00
296.2760, 25150.00
297.4850, 25054.00
298.6930, 24970.00
299.9020, 24958.45
301.1110, 25046.00
302.3190, 24911.00
303.5270, 25065.00
304.7350, 25052.00
305.9430, 25179.00
307.1510, 25037.00
308.3580, 25032.00
309.5660, 25292.00
310.7730, 25115.00
311.9800, 25355.00
313.1870, 25375.00
314.3940, 25308.00
315.6010, 25412.00
316.8070, 25425.00
318.0130, 25446.00
319.2200, 25476.45
320.4260, 25400.00
321.6310, 25503.00
322.8370, 25456.00
324.0430, 25499.00
325.2480, 25683.00
326.4540, 25610.00
327.6590, 25659.00
328.8640, 25473.00
330.0680, 25660.00
331.2730, 25892.00
332.4780, 25753.00
333.6820, 25830.00
334.8860, 25967.00
336.0900, 25781.00
337.2940, 26037.00
338.4980, 26012.00
339.7010, 25941.00
340.9050, 26023.00
342.1080, 26014.00
343.3110, 26024.00
344.5140, 26236.00
345.7170, 26319.00
346.9200, 26394.00
348.1220, 26486.00
349.3240, 26431.00
350.5270, 26438.00
351.7290, 26594.00
352.9310, 26537.00
354.1320, 26583.00
355.3340, 26533.00
356.5350, 26667.00
357.7370, 26656.00
358.9380, 26634.00
360.1390, 26823.00
361.3400, 26946.00
362.5400, 26639.00
363.7410, 26989.00
364.9410, 26906.00
366.1410, 26962.00
367.3410, 27073.00
368.5410, 26982.00
369.7410, 27169.00
370.9400, 26947.00
372.1400, 27219.00
373.3390, 27272.00
374.5380, 27450.00
375.7370, 27171.00
376.9360, 27255.00
378.1350, 27410.00
379.3330, 27384.00
380.5310, 27550.00
381.7300, 27653.00
382.9280, 27481.00
384.1260, 27720.00
385.3230, 27538.00
386.5210, 27809.00
387.7180, 27854.00
388.9160, 27917.00
390.1130, 27907.00
391.3100, 27883.00
392.5060, 28003.00
393.7030, 28108.00
394.9000, 28146.00
396.0960, 28065.00
397.2920, 28030.00
398.4880, 28323.00
399.6840, 28242.00
400.8800, 28478.00
402.0750, 28366.00
403.2710, 28490.00
404.4660, 28557.00
405.6610, 28748.00
406.8560, 28871.00
408.0510, 28828.00
409.2450, 28890.00
410.4400, 28915.00
411.6340, 28926.00
412.8280, 29169.00
414.0220, 29364.00
415.2160, 29367.00
416.4100, 29500.00
417.6030, 29525.00
418.7970, 29908.00
419.9900, 29990.00
421.1830, 30407.00
422.3760, 30672.00
423.5690, 30870.00
424.7610, 31212.00
425.9540, 31951.00
427.1460, 32346.00
428.3380, 33203.00
429.5300, 34332.00
430.7220, 35522.00
431.9140, 36973.00
433.1050, 38575.00
434.2970, 40317.00
435.4880, 42009.00
436.6790, 43440.00
437.8700, 44852.00
439.0610, 45354.00
440.2510, 45381.00
441.4420, 44712.00
442.6320, 43455.00
443.8220, 41674.00
445.0120, 39889.00
446.2020, 38234.00
447.3910, 36273.00
448.5810, 34953.00
449.7700, 34032.00
450.9600, 33368.00
452.1490, 32584.00
453.3370, 31848.00
454.5260, 31967.00
455.7150, 31600.00
456.9030, 31562.00
458.0910, 31310.00
459.2800, 31161.00
460.4670, 31084.00
461.6550, 30872.00
462.8430, 30832.00
464.0300, 30882.00
465.2180, 30836.00
466.4050, 30863.02
467.5920, 30867.00
468.7790, 30851.00
469.9650, 30849.66
471.1520, 30866.00
472.3380, 30834.00
473.5250, 30903.00
474.7110, 30942.00
475.8970, 30947.44
477.0820, 30938.00
478.2680, 30983.00
479.4540, 31022.00
480.6390, 31032.00
481.8240, 30935.00
483.0090, 31212.00
484.1940, 31070.00
485.3780, 30935.00
486.5630, 31325.00
487.7470, 30872.00
488.9320, 31222.00
490.1160, 31224.00
491.3000, 31122.00
492.4830, 31292.00
493.6670, 31263.00
494.8500, 31381.00
496.0340, 31380.00
497.2170, 31391.00
498.4000, 31444.18
499.5820, 31412.00
500.7650, 31469.00
501.9480, 31550.00
503.1300, 31514.00
504.3120, 31696.00
505.4940, 31790.00
506.6760, 31636.00
507.8580, 31877.00
509.0390, 31866.00
510.2210, 31651.00
511.4020, 31810.00
512.5830, 31902.00
513.7640, 32006.00
514.9450, 32097.00
516.1250, 32054.00
517.3060, 32138.00
518.4860, 32037.00
519.6660, 32148.00
520.8460, 32247.00
522.0260, 32152.00
523.2060, 32186.00
524.3850, 32334.00
525.5650, 32320.00
526.7440, 32495.00
527.9230, 32270.00
529.1020, 32446.00
530.2810, 32625.00
531.4590, 32387.00
532.6380, 32765.00
533.8160, 32660.00
534.9940, 32581.00
536.1720, 32816.00
537.3500, 32688.00
538.5270, 32603.00
539.7050, 32897.00
540.8820, 32953.00
542.0590, 33014.00
543.2360, 33069.00
544.4130, 33091.52
545.5900, 33034.00
546.7660, 33024.00
547.9430, 33286.00
549.1190, 33055.00
550.2950, 33362.00
551.4710, 33248.00
552.6470, 33165.00
553.8220, 33275.00
554.9980, 33412.00
556.1730, 33570.00
557.3480, 33414.00
558.5230, 33524.00
559.6980, 33660.00
560.8730, 33501.00
562.0470, 33684.00
563.2220, 33722.00
564.3960, 33739.00
565.5700, 33821.00
566.7440, 33921.00
567.9170, 33912.00
569.0910, 34027.00
570.2640, 34064.00
571.4380, 33975.00
572.6110, 33919.00
573.7840, 33940.00
574.9570, 33978.00
576.1290, 34271.00
577.3020, 34333.00
578.4740, 34058.00
579.6460, 34533.00
580.8180, 34319.00
581.9900, 34420.00
583.1620, 34289.00
584.3330, 34333.00
585.5040, 34473.00
586.6760, 34452.00
587.8470, 34449.00
589.0180, 34443.00
590.1880, 34439.19
591.3590, 34480.00
592.5290, 34523.00
593.7000, 34570.00
594.8700, 34791.00
596.0400, 34844.00
597.2090, 34878.00
598.3790, 35066.00
599.5490, 34839.00
600.7180, 35013.00
601.8870, 35056.00
603.0560, 35119.00
604.2250, 35175.00
605.3940, 35175.00
606.5620, 35236.24
607.7300, 35307.00
608.8990, 35329.00
610.0670, 35314.00
611.2350, 35388.00
612.4020, 35336.00
613.5700, 35521.00
614.7370, 35584.00
615.9050, 35423.00
617.0720, 35762.00
618.2390, 35604.00
619.4060, 35767.00
620.5720, 35826.00
621.7390, 35794.00
622.9050, 35850.00
624.0710, 36029.00
625.2370, 36187.00
626.4030, 35978.00
627.5690, 36185.00
628.7340, 36033.00
629.9000, 36182.00
631.0650, 36203.00
632.2300, 36424.00
633.3950, 36424.00
634.5600, 36525.00
635.7240, 36400.00
636.8890, 36590.00
638.0530, 36648.00
639.2170, 36794.00
640.3810, 36684.00
641.5450, 36530.00
642.7080, 36983.00
643.8720, 36630.00
645.0350, 36687.00
646.1980, 36766.00
647.3610, 36982.00
648.5240, 37070.00
649.6870, 37130.00
650.8490, 37083.00
652.0120, 37233.00
653.1740, 37238.00
654.3360, 37264.00
655.4980, 37327.00
656.6600, 37413.00
657.8210, 37400.00
658.9830, 37728.00
660.1440, 37565.00
661.3050, 37671.00
662.4660, 37492.00
663.6270, 37666.00
664.7870, 37750.00
665.9480, 37812.00
667.1080, 37755.00
668.2680, 38148.00
669.4280, 38217.00
670.5880, 38199.00
671.7480, 38163.00
672.9070, 38353.00
674.0670, 38251.00
675.2260, 38373.00
676.3850, 38574.00
677.5440, 38578.00
678.7030, 38604.00
679.8610, 38649.00
681.0200, 38673.00
682.1780, 38914.00
683.3360, 38906.00
684.4940, 38903.00
685.6520, 39162.00
686.8090, 39268.00
687.9670, 39360.39
689.1240, 39373.00
690.2810, 39500.00
691.4380, 39557.00
692.5950, 39632.46
693.7520, 39832.00
694.9080, 39821.00
696.0650, 40006.00
697.2210, 40165.00
698.3770, 40145.00
699.5330, 40312.00
700.6880, 40259.00
701.8440, 40374.00
702.9990, 40498.00
704.1550, 40637.00
705.3100, 41026.00
706.4650, 40845.00
707.6190, 41184.00
708.7740, 41148.00
709.9290, 41221.00
711.0830, 41302.00
712.2370, 41431.32
713.3910, 41552.50
714.5450, 41653.92
715.6980, 41755.36
716.8520, 41861.00
718.0050, 41922.00
719.1580, 41989.31
720.3110, 42046.79
721.4640, 42131.00
722.6170, 42217.00
723.7700, 42318.00
724.9220, 42492.00
726.0740, 42153.00
727.2260, 42466.00
728.3780, 42168.00
729.5300, 42281.00
730.6810, 42514.00
731.8330, 42664.00
732.9840, 42494.00
734.1350, 42667.00
735.2860, 42656.00
736.4370, 42698.00
737.5880, 42498.00
738.7380, 42462.00
739.8880, 42317.00
741.0390, 42630.00
742.1890, 42744.00
743.3380, 42662.00
744.4880, 42664.00
745.6380, 42725.00
746.7870, 42566.00
747.9360, 42756.00
749.0850, 42650.00
750.2340, 42858.00
751.3830, 42923.00
752.5310, 42782.00
753.6800, 42471.00
754.8280, 42694.00
755.9760, 42682.00
757.1240, 43040.00
758.2720, 42610.00
759.4190, 43153.00
760.5670, 42606.00
761.7140, 42645.00
762.8610, 42698.00
764.0080, 42666.00
765.1550, 43054.00
766.3020, 42812.00
767.4480, 43221.00
768.5950, 42902.00
769.7410, 42554.00
770.8870, 43007.00
772.0330, 42902.00
773.1780, 43041.00
774.3240, 43078.00
775.4690, 42883.00
776.6140, 42980.00
777.7590, 43115.00
778.9040, 43173.00
780.0490, 43135.00
781.1940, 43331.00
782.3380, 43175.00
783.4820, 43111.00
784.6260, 43345.00
785.7700, 43201.00
786.9140, 43137.00
788.0580, 43511.00
789.2010, 43179.00
790.3450, 43664.00
791.4880, 43337.00
792.6310, 43555.00
793.7730, 43716.00
794.9160, 43868.00
796.0590, 43873.02
797.2010, 43673.00
798.3430, 43646.00
799.4850, 44012.00
800.6270, 43605.00
801.7690, 44136.00
802.9100, 43852.00
804.0520, 43901.00
805.1930, 43714.00
806.3340, 43852.00
807.4750, 43981.00
808.6160, 44041.00
809.7560, 43905.00
810.8970, 44409.00
812.0370, 44315.00
813.1770, 44117.00
814.3170, 44260.00
815.4570, 44102.00
816.5960, 44194.00
817.7360, 44438.00
818.8750, 44421.00
820.0140, 44421.00
821.1530, 44226.00
822.2920, 44376.00
823.4310, 44364.00
824.5690, 44535.00
825.7070, 44328.00
826.8460, 44436.00
827.9840, 44400.00
829.1220, 44541.00
830.2590, 44453.00
831.3970, 44379.00
832.5340, 44403.00
833.6710, 44335.00
834.8080, 44239.00
835.9450, 44678.00
837.0820, 44625.00
838.2190, 44604.00
839.3550, 44388.00
840.4910, 44522.00
841.6270, 44625.00
842.7630, 44459.00
843.8990, 44419.00
845.0350, 44606.00
846.1700, 44591.00
847.3060, 44403.00
848.4410, 44950.00
849.5760, 44853.00
850.7100, 44501.00
851.8450, 44673.00
852.9800, 44846.00
854.1140, 44812.00
855.2480, 44882.00
856.3820, 44971.70
857.5160, 44528.00
858.6500, 44988.00
859.7830, 44892.00
860.9170, 44600.00
862.0500, 44702.00
863.1830, 44802.00
864.3160, 44908.00
865.4480, 44878.00
866.5810, 45021.00
867.7130, 44999.94
868.8460, 45052.00
869.9780, 45055.00
871.1100, 44954.00
872.2410, 45096.29
873.3730, 44969.47
874.5050, 45237.00
875.6360, 44763.00
876.7670, 45049.00
877.8980, 44854.00
879.0290, 44904.00
880.1590, 44777.00
881.2900, 44902.00
882.4200, 44750.00
883.5500, 44894.00
884.6800, 45173.00
885.8100, 45104.00
886.9400, 45088.00
888.0690, 44878.00
889.1990, 44984.00
890.3280, 45154.00
891.4570, 45329.00
892.5860, 45164.00
893.7140, 45154.00
894.8430, 45279.00
895.9710, 45243.00
897.1000, 45309.00
898.2280, 45379.00
899.3560, 45140.00
900.4830, 45164.00
901.6110, 45520.00
902.7380, 45617.00
903.8660, 45322.00
904.9930, 45186.00
906.1200, 45543.00
907.2460, 45559.00
908.3730, 45498.00
909.5000, 45841.00
910.6260, 45830.00
911.7520, 45655.00
912.8780, 45820.00
914.0040, 45643.00
915.1290, 45447.00
916.2550, 45738.00
917.3800, 45838.00
918.5050, 45632.00
919.6300, 45948.00
920.7550, 45723.00
921.8800, 45624.00
923.0040, 45688.00
924.1290, 46009.00
925.2530, 46235.00
926.3770, 45971.00
927.5010, 45769.00
928.6250, 46259.00
929.7480, 45966.00
930.8720, 46034.00
931.9950, 45984.00
933.1180, 46096.00
934.2410, 46166.00
935.3640, 46195.00
936.4860, 46059.00
937.6090, 46180.00
938.7310, 46166.00
939.8530, 46169.43
940.9750, 46282.00
942.0970, 46257.00
943.2180, 46384.00
944.3400, 46520.00
945.4610, 46352.00
946.5820, 46693.00
947.7030, 46406.00
948.8240, 46601.00
949.9450, 46683.00
951.0650, 46996.00
952.1860, 46636.00
953.3060, 46867.00
954.4260, 46927.00
955.5460, 46486.00
956.6650, 46627.00
957.7850, 46717.00
958.9040, 46754.00
960.0230, 47123.00
961.1420, 47052.00
962.2610, 47159.00
963.3800, 46976.00
964.4990, 46870.00
965.6170, 47017.00
966.7350, 46966.00
967.8530, 46912.00
968.9710, 47092.00
970.0890, 47277.00
971.2070, 47525.00
972.3240, 47095.00
973.4410, 47211.00
974.5580, 47093.00
975.6750, 47328.00
976.7920, 47406.00
977.9090, 47469.00
979.0250, 47702.00
980.1410, 47871.00
981.2580, 48043.00
982.3740, 47765.00
983.4890, 47447.00
984.6050, 47793.00
985.7200, 47791.00
986.8360, 47566.00
987.9510, 47891.00
989.0660, 47959.00
990.1810, 47832.00
991.2950, 47714.00
992.4100, 48061.00
993.5240, 48142.00
994.6390, 47788.00
995.7530, 48023.00
996.8660, 48001.00
997.9800, 47844.00
999.0940, 48245.00
1000.207, 48082.00
1001.320, 48170.00
1002.433, 48123.00
1003.546, 48155.00
1004.659, 48122.00
1005.772, 48263.00
1006.884, 48485.00
1007.996, 48330.00
1009.108, 48615.00
1010.220, 48519.00
1011.332, 48368.00
1012.444, 48496.00
1013.555, 48321.00
1014.666, 48447.00
1015.777, 48558.00
1016.888, 48762.00
1017.999, 48790.00
1019.110, 48778.00
1020.220, 48695.00
1021.331, 48687.00
1022.441, 48718.00
1023.551, 49010.00
1024.661, 48773.00
1025.770, 49031.00
1026.880, 49124.00
1027.989, 49036.00
1029.098, 49188.00
1030.207, 49002.00
1031.316, 48972.00
1032.425, 49315.00
1033.533, 49034.00
1034.642, 49317.00
1035.750, 49191.00
1036.858, 49301.00
1037.966, 49268.00
1039.073, 49253.00
1040.181, 49620.00
1041.288, 49512.00
1042.396, 49211.00
1043.503, 49547.00
1044.610, 49480.00
1045.716, 49376.00
1046.823, 49517.00
1047.929, 49356.00
1049.036, 49476.00
1050.142, 49617.00
1051.248, 49597.00
1052.353, 49564.00
1053.459, 49738.00
1054.564, 49800.00
1055.670, 49668.00
1056.775, 49716.00
1057.880, 49883.00
1058.985, 49872.00
1060.089, 49999.00
1061.194, 49750.00
1062.298, 50334.00
1063.402, 49900.00
1064.506, 50137.00
1065.610, 50168.00
1066.713, 50065.00
1067.817, 50301.00
1068.920, 50188.00
1070.023, 50354.00
1071.126, 50576.00
1072.229, 50396.00
1073.332, 50219.00
1074.435, 50334.00
1075.537, 50475.00
1076.639, 50187.00
1077.741, 50452.00
1078.843, 50258.00
1079.945, 50483.00
1081.046, 50642.00
1082.148, 50465.00
1083.249, 50693.00
1084.350, 50576.00
1085.451, 50847.00
1086.551, 50747.00
1087.652, 50706.00
1088.752, 50669.00
1089.853, 50712.00
1090.953, 50742.00
1092.053, 50879.00
1093.152, 50942.00
1094.252, 51023.57
1095.351, 50782.00
1096.451, 51056.00
1097.550, 51153.00
1098.649, 50885.00
1099.748, 51149.00
1100.846, 51127.00
1101.945, 51361.00
1103.043, 51096.00
1104.141, 51294.00
1105.239, 51315.00
1106.337, 51015.00
1107.434, 51646.00
1108.532, 51356.00
1109.629, 51261.00
1110.726, 51234.00
1111.823, 51455.00
1112.920, 51343.00
1114.017, 51614.00
1115.113, 51745.00
1116.210, 51819.00
1117.306, 51360.00
1118.402, 51749.00
1119.498, 51707.00
1120.593, 51742.00
1121.689, 52067.00
1122.784, 51910.00
1123.879, 52151.00
1124.974, 52102.00
1126.069, 51991.00
1127.164, 51958.00
1128.259, 51707.00
1129.353, 52269.00
1130.447, 52372.00
1131.541, 52021.00
1132.635, 51932.00
1133.729, 51984.00
1134.822, 51999.00
1135.916, 51981.25
1137.009, 52023.16
1138.102, 51989.00
1139.195, 52039.14
1140.288, 52034.36
1141.380, 52106.75
1142.473, 52116.00
1143.565, 52263.00
1144.657, 52367.00
1145.749, 52426.00
1146.841, 52668.00
1147.932, 52701.00
1149.024, 52700.96
1150.115, 52544.00
1151.206, 52569.00
1152.297, 52644.00
1153.388, 52507.00
1154.479, 52696.00
1155.569, 52542.00
1156.659, 52834.00
1157.750, 52614.00
1158.839, 52806.00
1159.929, 52879.00
1161.019, 52621.00
1162.108, 52639.00
1163.198, 52988.00
1164.287, 52760.00
1165.376, 52873.00
1166.465, 53366.00
1167.553, 53187.00
1168.642, 52978.00
1169.730, 53077.00
1170.818, 52983.03
1171.906, 53151.00
1172.994, 53104.00
1174.082, 53185.00
1175.170, 53404.00
1176.257, 53446.00
1177.344, 53333.00
1178.431, 53350.00
1179.518, 53260.00
1180.605, 53351.27
1181.691, 53733.00
1182.778, 53500.00
1183.864, 53562.00
1184.950, 53504.00
1186.036, 53319.00
1187.122, 53531.00
1188.207, 53555.00
1189.292, 53622.00
1190.378, 53630.00
1191.463, 53665.00
1192.548, 53671.00
1193.632, 53769.00
1194.717, 53757.90
1195.801, 53913.00
1196.886, 53767.00
1197.970, 53798.00
1199.054, 53776.00
1200.137, 53889.00
1201.221, 53949.16
1202.305, 54126.00
1203.388, 54111.00
1204.471, 54073.00
1205.554, 54048.00
1206.637, 54195.00
1207.719, 54483.00
1208.802, 54060.00
1209.884, 54442.00
1210.966, 54007.00
1212.048, 54288.00
1213.130, 54538.00
1214.212, 54373.00
1215.293, 54454.00
1216.374, 54354.00
1217.456, 54379.00
1218.536, 54225.00
1219.617, 54609.00
1220.698, 54742.00
1221.778, 54858.00
1222.859, 54637.00
1223.939, 54794.00
1225.019, 54653.00
1226.099, 54514.00
1227.178, 55137.00
1228.258, 54812.00
1229.337, 54949.00
1230.417, 54823.00
1231.496, 54741.00
1232.574, 54711.00
1233.653, 54946.00
1234.732, 55049.00
1235.810, 55028.00
1236.888, 55125.06
1237.966, 55159.61
1239.044, 55138.00
1240.122, 55256.00
1241.199, 55272.00
1242.277, 55336.00
1243.354, 55303.00
1244.431, 55578.00
1245.508, 55336.00
1246.585, 55620.00
1247.661, 55282.00
1248.738, 55379.00
1249.814, 55475.00
1250.890, 55189.00
1251.966, 55372.00
1253.042, 55508.00
1254.117, 55812.00
1255.193, 55556.00
1256.268, 55514.00
1257.343, 55663.00
1258.418, 56237.00
1259.493, 55926.00
1260.567, 55827.00
1261.642, 55997.00
1262.716, 55737.00
1263.790, 55907.00
1264.864, 55885.00
1265.938, 55803.00
1267.011, 55964.00
1268.085, 56069.00
1269.158, 55997.00
1270.231, 56016.00
1271.304, 56109.00
1272.377, 56095.00
1273.450, 56174.00
1274.522, 56490.00
1275.594, 56061.00
1276.666, 56533.00
1277.738, 56191.00
1278.810, 56357.00
1279.882, 56094.00
1280.953, 56245.00
1282.025, 56248.22
1283.096, 56422.00
1284.167, 56393.00
1285.238, 56493.00
1286.308, 56678.00
1287.379, 56988.00
1288.449, 56273.00
1289.519, 56828.00
1290.589, 56500.00
1291.659, 56526.00
1292.729, 56729.00
1293.798, 56806.00
1294.868, 56988.00
1295.937, 57244.00
1297.006, 56931.00
1298.075, 56951.00
1299.143, 57117.00
1300.212, 56819.00
1301.280, 56972.00
1302.348, 57329.00
1303.416, 57197.00
1304.484, 56875.00
1305.552, 57588.00
1306.620, 57132.00
1307.687, 57343.00
1308.754, 57122.00
1309.821, 57316.00
1310.888, 57093.00
1311.955, 57057.00
1313.021, 57273.00
1314.088, 57295.00
1315.154, 57079.00
1316.220, 57508.00
1317.286, 57699.00
1318.352, 57062.00
1319.417, 57616.00
1320.483, 57560.00
1321.548, 57623.00
1322.613, 57945.00
1323.678, 57555.00
1324.743, 57801.00
1325.807, 57681.00
1326.872, 57636.00
1327.936, 57580.00
1329.000, 57741.00
1330.064, 57771.00
1331.128, 57554.00
1332.191, 57797.00
1333.255, 58106.00
1334.318, 57895.00
1335.381, 57849.00
1336.444, 58076.00
1337.507, 58087.00
1338.569, 58016.00
1339.632, 57849.00
1340.694, 58138.00
1341.756, 58553.00
1342.818, 58065.00
1343.880, 58184.00
1344.941, 58442.00
1346.003, 58277.00
1347.064, 58269.00
1348.125, 58459.00
1349.186, 58361.00
1350.247, 58200.00
1351.308, 58332.00
1352.368, 58704.00
1353.428, 58196.00
1354.489, 58432.00
1355.549, 58572.00
1356.608, 58215.00
1357.668, 58134.00
1358.727, 58651.00
1359.787, 58574.00
1360.846, 58673.00
1361.905, 58667.00
1362.964, 58502.00
1364.022, 58802.00
1365.081, 58610.00
1366.139, 58849.00
1367.197, 58827.00
1368.255, 58576.00
1369.313, 58992.00
1370.371, 58900.00
1371.428, 58937.00
1372.486, 59279.00
1373.543, 58771.00
1374.600, 59072.00
1375.657, 59016.00
1376.713, 58847.00
1377.770, 58948.00
1378.826, 59194.00
1379.882, 59226.00
1380.938, 59212.00
1381.994, 59133.00
1383.050, 59084.00
1384.106, 59334.00
1385.161, 59193.00
1386.216, 59391.00
1387.271, 59561.00
1388.326, 59456.00
1389.381, 59344.00
1390.435, 59493.00
1391.490, 59390.00
1392.544, 59446.00
1393.598, 59573.00
1394.652, 59793.00
1395.705, 59191.00
1396.759, 59695.00
1397.812, 59686.00
1398.866, 59447.00
1399.919, 60026.00
1400.972, 59711.00
1402.024, 59687.00
1403.077, 59834.00
1404.129, 59624.00
1405.181, 59855.00
1406.233, 59847.00
1407.285, 60131.00
1408.337, 59843.00
1409.389, 59861.00
1410.440, 60302.00
1411.491, 59867.00
1412.542, 60108.00
1413.593, 60528.00
1414.644, 60360.00
1415.695, 60130.00
1416.745, 60400.00
1417.795, 60197.00
1418.845, 60202.00
1419.895, 60344.00
1420.945, 60334.00
1421.995, 60266.00
1423.044, 60601.00
1424.093, 60323.00
1425.142, 60452.00
1426.191, 60383.00
1427.240, 60453.00
1428.289, 60779.00
1429.337, 60636.00
1430.385, 60309.00
1431.433, 60401.00
1432.481, 60828.00
1433.529, 60667.00
1434.577, 60854.00
1435.624, 60639.00
1436.672, 60678.00
1437.719, 60669.00
1438.766, 60828.00
1439.812, 60803.00
1440.859, 61051.00
1441.905, 60859.00
1442.952, 60983.00
1443.998, 60828.00
1445.044, 61150.00
1446.090, 60927.00
1447.135, 61234.00
1448.181, 60987.00
1449.226, 61167.00
1450.271, 61188.00
1451.316, 61658.00
1452.361, 61459.00
1453.405, 61447.00
1454.450, 61441.00
1455.494, 61429.00
1456.538, 61411.46
1457.582, 61167.00
1458.626, 61375.00
1459.670, 61440.00
1460.713, 61433.00
1461.757, 61800.00
1462.800, 61350.00
1463.843, 61610.00
1464.886, 61452.00
1465.928, 61863.00
1466.971, 61508.00
1468.013, 61161.00
1469.055, 61867.00
1470.097, 61524.00
1471.139, 61615.00
1472.181, 61899.00
1473.222, 61460.00
1474.263, 61732.00
1475.305, 61947.00
1476.346, 62098.00
1477.386, 62117.00
1478.427, 62107.16
1479.468, 61930.00
1480.508, 62032.00
1481.548, 61988.00
1482.588, 62224.00
1483.628, 62123.00
1484.668, 62173.00
1485.707, 62216.00
1486.747, 62205.00
1487.786, 62266.00
1488.825, 62205.00
1489.864, 62147.80
1490.902, 62470.00
1491.941, 62032.00
1492.979, 62441.00
1494.017, 62577.00
1495.055, 62189.00
1496.093, 62451.00
1497.131, 62270.00
1498.168, 62805.00
1499.206, 62495.00
1500.243, 62509.00
1501.280, 62791.00
1502.317, 62440.00
1503.354, 62700.00
1504.390, 62860.00
1505.426, 62679.00
1506.463, 62779.00
1507.499, 62821.00
1508.535, 62693.00
1509.570, 62794.00
1510.606, 62754.02
1511.641, 62882.00
1512.676, 62812.00
1513.711, 62725.00
1514.746, 62874.00
1515.781, 63030.00
1516.816, 63039.00
1517.850, 63166.64
1518.884, 63199.71
1519.918, 63226.00
1520.952, 63199.00
1521.986, 63039.00
1523.019, 62888.00
1524.053, 63271.00
1525.086, 62703.00
1526.119, 63358.00
1527.152, 63417.00
1528.185, 63286.00
1529.217, 63298.00
1530.250, 63200.00
1531.282, 63292.00
1532.314, 63219.00
1533.346, 63207.07
1534.377, 63440.00
1535.409, 63257.00
1536.440, 63430.00
1537.472, 63676.00
1538.503, 63558.00
1539.534, 63550.00
1540.564, 63365.00
1541.595, 63652.00
1542.625, 63674.00
1543.656, 63922.00
1544.686, 63496.00
1545.716, 63487.00
1546.745, 63316.00
1547.775, 63365.63
1548.804, 63444.68
1549.834, 63623.00
1550.863, 63714.00
1551.892, 63807.00
1552.920, 63922.00
1553.949, 63879.00
1554.977, 64132.00
1556.006, 63995.00
1557.034, 63994.00
1558.062, 63869.00
1559.089, 63996.00
1560.117, 64099.00
1561.144, 64124.00
1562.172, 64021.00
1563.199, 64153.00
1564.226, 64106.00
1565.252, 63923.00
1566.279, 64170.00
1567.305, 64552.00
1568.332, 63988.00
1569.358, 64202.00
1570.384, 64736.00
##END=



