##NAMES=Bustamite
##RRUFFID=R040014
##IDEAL CHEMISTRY=CaMn^2+^Si_2_O_6_
##LOCALITY=Broken Hill, New South Wales, Australia
##OWNER=RRUFF
##SOURCE=University of Arizona Mineral Museum
##DESCRIPTION=Orange fragment
##STATUS=The identification of this mineral has been confirmed by X-ray diffraction and chemical analysis
##URL=rruff.info/R040014
##MEASURED CHEMISTRY=(Ca_0.90_Mn_0.10_)_Σ=1_(Mn^2+^_0.78_Fe^2+^_0.19_Fe^3+^_0.02_Mg_0.01_)_Σ=1_(Si_1.98_Fe^3+^_0.02_)_Σ=2_O_6_
##PIN_ID=L00174
##ORIENTATION=Laser parallel to (-1 0 -1). Fiducial mark perpendicular to laser is parallel to -b [0 -1 0]
107.817, 3427.000
109.210, 3407.000
110.603, 3399.000
111.996, 3399.000
113.388, 3385.000
114.780, 3450.000
116.172, 3477.000
117.564, 3665.000
118.956, 4043.000
120.347, 4668.000
121.738, 5696.000
123.129, 6759.000
124.519, 7621.000
125.910, 7981.000
127.300, 8054.000
128.690, 7732.000
130.080, 7454.000
131.469, 7410.000
132.858, 7486.000
134.248, 7578.000
135.636, 7398.000
137.025, 7268.000
138.413, 6843.000
139.801, 6515.000
141.189, 6096.000
142.577, 5719.000
143.964, 5435.000
145.352, 5236.000
146.739, 5065.000
148.125, 5079.000
149.512, 5064.000
150.898, 5065.000
152.284, 5120.000
153.670, 5172.000
155.056, 5080.000
156.441, 4949.000
157.827, 4668.000
159.212, 4526.000
160.596, 4222.000
161.981, 4012.000
163.365, 3701.000
164.749, 3536.000
166.133, 3370.000
167.517, 3278.000
168.900, 3246.000
170.283, 3242.000
171.666, 3329.000
173.049, 3264.000
174.431, 3252.000
175.813, 3289.000
177.195, 3252.000
178.577, 3229.000
179.959, 3125.000
181.340, 3107.000
182.721, 3100.000
184.102, 3063.000
185.483, 3062.524
186.863, 3051.799
188.244, 3051.000
189.624, 3045.000
191.003, 3045.000
192.383, 3044.000
193.762, 3052.000
195.141, 3049.602
196.520, 3044.000
197.899, 3024.000
199.277, 3065.000
200.656, 2999.000
202.034, 3040.000
203.411, 3052.000
204.789, 3014.000
206.166, 3029.000
207.543, 3028.000
208.920, 3054.000
210.297, 3064.546
211.673, 3041.000
213.049, 3095.000
214.425, 3099.000
215.801, 3107.000
217.176, 3158.000
218.552, 3180.000
219.927, 3226.000
221.302, 3274.341
222.676, 3260.000
224.051, 3378.000
225.425, 3395.000
226.799, 3448.000
228.173, 3584.000
229.546, 3608.000
230.919, 3697.000
232.292, 3783.000
233.665, 3860.000
235.038, 3941.000
236.410, 4013.000
237.782, 4143.000
239.154, 4224.000
240.526, 4358.000
241.898, 4459.000
243.269, 4502.000
244.640, 4669.000
246.011, 4744.000
247.381, 4826.000
248.752, 4753.000
250.122, 4785.000
251.492, 4693.000
252.861, 4602.000
254.231, 4466.000
255.600, 4405.000
256.969, 4327.000
258.338, 4139.000
259.707, 4087.000
261.075, 4070.000
262.443, 3938.000
263.811, 3976.000
265.179, 3893.000
266.546, 3918.000
267.914, 3898.000
269.281, 3946.000
270.647, 3958.000
272.014, 3975.000
273.380, 3966.000
274.747, 3961.000
276.113, 4041.000
277.478, 4043.000
278.844, 4102.000
280.209, 4076.000
281.574, 4137.000
282.939, 4164.000
284.304, 4140.000
285.668, 4122.000
287.032, 4188.000
288.396, 4225.000
289.760, 4252.000
291.123, 4272.000
292.487, 4358.000
293.850, 4435.000
295.212, 4484.000
296.575, 4587.000
297.937, 4711.000
299.300, 4873.000
300.662, 5074.000
302.023, 5286.000
303.385, 5574.000
304.746, 5888.000
306.107, 6328.000
307.468, 6869.000
308.829, 7580.000
310.189, 8192.000
311.549, 9080.000
312.909, 9617.000
314.269, 10200.000
315.629, 10370.000
316.988, 10090.000
318.347, 9685.000
319.706, 8928.000
321.065, 8147.000
322.423, 7369.000
323.781, 6823.000
325.139, 6389.000
326.497, 6028.000
327.855, 6001.000
329.212, 5877.000
330.569, 5888.000
331.926, 5929.000
333.283, 5957.000
334.639, 5980.000
335.995, 5952.000
337.351, 5801.000
338.707, 5635.000
340.063, 5504.000
341.418, 5336.000
342.773, 5178.000
344.128, 5077.000
345.483, 4903.000
346.837, 4814.000
348.192, 4732.000
349.546, 4596.000
350.899, 4532.000
352.253, 4471.000
353.606, 4339.000
354.960, 4308.000
356.313, 4283.000
357.665, 4298.000
359.018, 4219.000
360.370, 4220.000
361.722, 4206.000
363.074, 4218.000
364.426, 4204.000
365.777, 4201.000
367.128, 4184.000
368.479, 4252.000
369.830, 4197.000
371.181, 4161.000
372.531, 4211.000
373.881, 4278.000
375.231, 4271.000
376.581, 4278.000
377.930, 4350.000
379.280, 4386.000
380.629, 4473.000
381.977, 4566.000
383.326, 4663.709
384.674, 4691.000
386.023, 4904.000
387.370, 5009.000
388.718, 5136.000
390.066, 5406.000
391.413, 5687.000
392.760, 5996.000
394.107, 6385.000
395.454, 7057.000
396.800, 7911.000
398.146, 8898.000
399.492, 10300.000
400.838, 12010.000
402.184, 13300.000
403.529, 14550.000
404.874, 15590.000
406.219, 15780.000
407.564, 15340.000
408.908, 14270.000
410.252, 12930.000
411.596, 11440.000
412.940, 9986.000
414.284, 8913.000
415.627, 7863.000
416.970, 7216.000
418.313, 6646.000
419.656, 6227.000
420.999, 5801.000
422.341, 5644.000
423.683, 5452.000
425.025, 5222.000
426.367, 5048.000
427.708, 4936.000
429.049, 4901.000
430.390, 4811.000
431.731, 4766.000
433.072, 4651.000
434.412, 4663.000
435.752, 4610.000
437.092, 4596.000
438.432, 4630.000
439.772, 4574.000
441.111, 4551.000
442.450, 4587.000
443.789, 4547.000
445.127, 4559.000
446.466, 4605.000
447.804, 4547.000
449.142, 4539.000
450.480, 4565.000
451.817, 4544.000
453.155, 4558.000
454.492, 4588.000
455.829, 4644.000
457.166, 4619.000
458.502, 4677.000
459.838, 4717.000
461.175, 4632.000
462.510, 4636.000
463.846, 4630.000
465.181, 4564.000
466.517, 4567.000
467.852, 4507.000
469.186, 4499.000
470.521, 4536.000
471.855, 4531.000
473.190, 4511.000
474.523, 4509.000
475.857, 4520.377
477.191, 4542.000
478.524, 4561.000
479.857, 4620.000
481.190, 4658.000
482.523, 4682.000
483.855, 4670.000
485.187, 4679.000
486.519, 4582.000
487.851, 4680.000
489.183, 4580.000
490.514, 4598.000
491.845, 4598.000
493.176, 4612.000
494.507, 4610.000
495.837, 4626.000
497.168, 4634.616
498.498, 4643.000
499.828, 4676.000
501.157, 4652.000
502.487, 4710.000
503.816, 4834.000
505.145, 4789.000
506.474, 4842.000
507.802, 4842.000
509.131, 4897.000
510.459, 5021.000
511.787, 5038.000
513.115, 5089.000
514.442, 5096.000
515.770, 5094.000
517.097, 5083.000
518.424, 5025.000
519.750, 4962.000
521.077, 4921.000
522.403, 4859.000
523.729, 4857.000
525.055, 4784.000
526.381, 4827.000
527.706, 4818.000
529.031, 4816.000
530.356, 4780.000
531.681, 4821.000
533.006, 4803.000
534.330, 4752.000
535.654, 4838.000
536.978, 4748.000
538.302, 4825.000
539.625, 4744.000
540.949, 4890.000
542.272, 4811.000
543.595, 4832.000
544.917, 4834.000
546.240, 4900.000
547.562, 4919.000
548.884, 4883.000
550.206, 4932.000
551.527, 4963.000
552.849, 4960.000
554.170, 4926.000
555.491, 4884.000
556.812, 4952.000
558.132, 4977.000
559.453, 4986.000
560.773, 5086.000
562.093, 5020.000
563.412, 5082.000
564.732, 5175.000
566.051, 5231.000
567.370, 5276.000
568.689, 5340.000
570.008, 5397.852
571.326, 5496.000
572.644, 5532.000
573.963, 5628.000
575.280, 5716.000
576.598, 5728.000
577.915, 5731.000
579.233, 5713.000
580.550, 5687.000
581.866, 5554.000
583.183, 5566.000
584.499, 5513.361
585.815, 5455.000
587.131, 5460.000
588.447, 5425.000
589.763, 5388.000
591.078, 5384.000
592.393, 5384.000
593.708, 5322.000
595.022, 5419.000
596.337, 5461.000
597.651, 5454.000
598.965, 5464.000
600.279, 5494.000
601.593, 5552.000
602.906, 5543.000
604.219, 5454.000
605.532, 5619.000
606.845, 5595.000
608.158, 5726.000
609.470, 5764.000
610.782, 5699.000
612.094, 5793.000
613.406, 5812.000
614.718, 5872.000
616.029, 5995.000
617.340, 6056.000
618.651, 6078.000
619.962, 6214.000
621.272, 6364.000
622.582, 6393.000
623.892, 6590.000
625.202, 6793.000
626.512, 6962.000
627.821, 7237.000
629.131, 7586.000
630.440, 8098.000
631.749, 8690.000
633.057, 9401.000
634.366, 10270.000
635.674, 11410.000
636.982, 13030.000
638.290, 14830.000
639.597, 17220.000
640.905, 20120.000
642.212, 22940.000
643.519, 25000.000
644.825, 26540.000
646.132, 25760.000
647.438, 23750.000
648.744, 21200.000
650.050, 18360.000
651.356, 15830.000
652.662, 13800.000
653.967, 12500.000
655.272, 10990.000
656.577, 10240.000
657.882, 9434.000
659.186, 8864.000
660.490, 8463.000
661.794, 7985.000
663.098, 7780.000
664.402, 7579.000
665.705, 7273.000
667.009, 7136.000
668.312, 7017.000
669.614, 6916.000
670.917, 6807.000
672.219, 6667.000
673.522, 6621.000
674.824, 6538.000
676.125, 6572.000
677.427, 6532.000
678.728, 6537.000
680.030, 6515.000
681.331, 6509.000
682.631, 6524.000
683.932, 6638.000
685.232, 6572.000
686.532, 6615.000
687.832, 6694.000
689.132, 6626.000
690.432, 6627.000
691.731, 6510.000
693.030, 6518.000
694.329, 6423.000
695.628, 6380.000
696.926, 6353.000
698.224, 6318.000
699.522, 6260.000
700.820, 6235.000
702.118, 6282.000
703.415, 6224.000
704.713, 6318.000
706.010, 6318.000
707.307, 6158.000
708.603, 6240.000
709.900, 6246.000
711.196, 6314.000
712.492, 6276.000
713.788, 6320.000
715.083, 6318.000
716.379, 6376.000
717.674, 6363.000
718.969, 6339.000
720.264, 6469.000
721.558, 6372.000
722.853, 6406.000
724.147, 6438.000
725.441, 6443.000
726.735, 6434.104
728.028, 6376.000
729.322, 6410.000
730.615, 6323.000
731.908, 6360.000
733.201, 6442.000
734.493, 6453.000
735.785, 6520.000
737.078, 6520.556
738.370, 6517.037
739.661, 6487.000
740.953, 6492.000
742.244, 6420.000
743.535, 6428.000
744.826, 6519.000
746.117, 6443.000
747.407, 6555.000
748.698, 6546.000
749.988, 6526.000
751.278, 6581.000
752.567, 6496.000
753.857, 6534.000
755.146, 6586.000
756.435, 6566.000
757.724, 6640.000
759.013, 6624.000
760.301, 6560.000
761.590, 6586.000
762.878, 6596.000
764.165, 6610.000
765.453, 6618.000
766.741, 6563.000
768.028, 6678.000
769.315, 6631.000
770.602, 6686.000
771.888, 6754.000
773.175, 6708.000
774.461, 6674.000
775.747, 6729.000
777.033, 6731.000
778.319, 6840.000
779.604, 6748.000
780.889, 6830.000
782.174, 6798.000
783.459, 6825.000
784.744, 6839.000
786.028, 6859.000
787.312, 6892.947
788.596, 6890.325
789.880, 6942.000
791.164, 6912.000
792.447, 6889.000
793.730, 6937.000
795.013, 6898.000
796.296, 6931.000
797.579, 6980.000
798.861, 6964.000
800.143, 6959.000
801.425, 6960.000
802.707, 6953.000
803.989, 7013.000
805.270, 6940.000
806.551, 6987.000
807.832, 7012.000
809.113, 7115.000
810.394, 7056.000
811.674, 7140.000
812.954, 7076.000
814.234, 7098.000
815.514, 7123.000
816.794, 7140.000
818.073, 7202.000
819.352, 7202.000
820.631, 7213.000
821.910, 7160.000
823.189, 7188.000
824.467, 7225.000
825.745, 7232.000
827.023, 7360.000
828.301, 7217.000
829.578, 7223.000
830.856, 7316.000
832.133, 7283.000
833.410, 7296.000
834.687, 7362.000
835.963, 7344.000
837.240, 7368.000
838.516, 7332.000
839.792, 7360.000
841.068, 7403.000
842.343, 7392.713
843.618, 7458.000
844.894, 7421.000
846.169, 7511.000
847.443, 7542.000
848.718, 7426.000
849.992, 7480.000
851.266, 7471.000
852.540, 7511.000
853.814, 7603.000
855.088, 7562.000
856.361, 7572.000
857.634, 7527.000
858.907, 7621.000
860.180, 7714.000
861.453, 7688.000
862.725, 7716.000
863.997, 7631.000
865.269, 7747.000
866.541, 7803.000
867.812, 7888.000
869.084, 7939.194
870.355, 7819.000
871.626, 7996.000
872.897, 7965.000
874.167, 7932.000
875.438, 8205.000
876.708, 8123.000
877.978, 8290.000
879.248, 8291.000
880.517, 8406.000
881.787, 8695.000
883.056, 8681.000
884.325, 8870.000
885.594, 8972.000
886.862, 9115.000
888.130, 9202.000
889.399, 9207.000
890.667, 9302.000
891.934, 9249.000
893.202, 9243.000
894.469, 9230.000
895.737, 9014.000
897.004, 8974.000
898.270, 8851.000
899.537, 8701.000
900.803, 8770.000
902.070, 8759.000
903.336, 8754.000
904.601, 8623.000
905.867, 8647.000
907.132, 8569.000
908.398, 8576.000
909.663, 8650.000
910.928, 8751.000
912.192, 8618.000
913.457, 8646.000
914.721, 8712.000
915.985, 8699.000
917.249, 8829.000
918.512, 8734.000
919.776, 8659.000
921.039, 8834.000
922.302, 8787.000
923.565, 8838.000
924.827, 8861.000
926.090, 8886.000
927.352, 8889.000
928.614, 9062.000
929.876, 9006.000
931.138, 9220.000
932.399, 9062.000
933.660, 9200.000
934.922, 9138.000
936.182, 9228.000
937.443, 9190.000
938.704, 9233.000
939.964, 9372.000
941.224, 9402.000
942.484, 9429.000
943.744, 9493.000
945.003, 9448.000
946.262, 9589.000
947.521, 9625.000
948.780, 9753.000
950.039, 9869.000
951.298, 10040.000
952.556, 10160.000
953.814, 10410.000
955.072, 10590.000
956.330, 11070.000
957.587, 11340.000
958.845, 11950.000
960.102, 12650.000
961.359, 13560.000
962.615, 14600.000
963.872, 16300.000
965.128, 18040.000
966.384, 21110.000
967.640, 24680.000
968.896, 29340.000
970.152, 35270.000
971.407, 40040.000
972.662, 45140.000
973.917, 45370.000
975.172, 42710.000
976.427, 37730.000
977.681, 32010.000
978.935, 27740.000
980.189, 23590.000
981.443, 20490.000
982.697, 18410.000
983.950, 16820.000
985.203, 15520.000
986.456, 14820.000
987.709, 13880.000
988.962, 13610.000
990.214, 13040.000
991.467, 12720.000
992.719, 12590.000
993.971, 12420.000
995.222, 12370.000
996.474, 12370.000
997.725, 12480.000
998.976, 12700.000
1000.227, 12690.000
1001.478, 12900.000
1002.728, 13290.000
1003.978, 13200.000
1005.229, 13350.000
1006.479, 12840.000
1007.728, 12700.000
1008.978, 12470.000
1010.227, 12190.000
1011.476, 11900.000
1012.725, 11670.000
1013.974, 11490.000
1015.223, 11450.000
1016.471, 11240.000
1017.719, 11380.000
1018.967, 11170.000
1020.215, 11260.000
1021.462, 11260.000
1022.710, 11220.000
1023.957, 11460.000
1025.204, 11460.000
1026.451, 11390.000
1027.697, 11660.000
1028.944, 11490.000
1030.190, 11600.000
1031.436, 11740.000
1032.682, 11900.000
1033.928, 12360.000
1035.173, 12880.000
1036.418, 13280.000
1037.663, 13820.000
1038.908, 13800.000
1040.153, 13810.000
1041.398, 13460.000
1042.642, 12970.000
1043.886, 12490.000
1045.130, 11940.000
1046.374, 11590.000
1047.617, 11220.000
1048.860, 11030.000
1050.104, 10920.000
1051.347, 10650.000
1052.589, 10630.000
1053.832, 10690.000
1055.074, 10340.000
1056.316, 10380.000
1057.558, 10320.000
1058.800, 10270.000
1060.042, 10310.000
1061.283, 10280.000
1062.524, 10230.000
1063.765, 10210.000
1065.006, 10171.174
1066.247, 10150.000
1067.487, 10140.000
1068.728, 10120.000
1069.968, 10180.000
1071.208, 10130.000
1072.447, 10200.000
1073.687, 10240.000
1074.926, 10220.000
1076.165, 10290.000
1077.404, 10360.000
1078.643, 10390.000
1079.881, 10400.000
1081.120, 10370.000
1082.358, 10350.000
1083.596, 10380.000
1084.834, 10390.000
1086.071, 10460.000
1087.309, 10370.000
1088.546, 10340.000
1089.783, 10510.000
1091.020, 10350.000
1092.256, 10450.000
1093.493, 10340.000
1094.729, 10320.000
1095.965, 10330.000
1097.201, 10310.000
1098.436, 10230.000
1099.672, 10380.000
1100.907, 10280.000
1102.142, 10350.000
1103.377, 10370.000
1104.612, 10210.000
1105.846, 10380.000
1107.081, 10380.000
1108.315, 10460.000
1109.549, 10310.000
1110.782, 10410.000
1112.016, 10380.000
1113.249, 10350.000
1114.483, 10330.000
1115.716, 10380.000
1116.948, 10350.000
1118.181, 10340.000
1119.413, 10540.000
1120.646, 10520.000
1121.878, 10620.000
1123.110, 10590.000
1124.341, 10520.000
1125.573, 10560.000
1126.804, 10520.000
1128.035, 10520.000
1129.266, 10570.000
1130.497, 10450.000
1131.727, 10630.000
1132.957, 10520.000
1134.188, 10420.000
1135.418, 10680.000
1136.647, 10470.000
1137.877, 10560.000
1139.106, 10630.000
1140.335, 10510.000
1141.564, 10690.000
1142.793, 10670.000
1144.022, 10550.000
1145.250, 10760.000
1146.479, 10580.000
1147.707, 10770.000
1148.934, 10720.000
1150.162, 10520.000
1151.390, 10870.000
1152.617, 10640.000
1153.844, 10750.000
1155.071, 10790.000
1156.298, 10640.000
1157.524, 10800.000
1158.751, 10810.000
1159.977, 10780.000
1161.203, 10740.000
1162.428, 10820.000
1163.654, 10730.000
1164.879, 10900.000
1166.105, 10720.000
1167.330, 10990.000
1168.555, 10820.000
1169.779, 10810.000
1171.004, 10970.000
1172.228, 10840.000
1173.452, 10790.000
1174.676, 11020.000
1175.900, 10870.000
1177.123, 10920.000
1178.346, 10930.000
1179.570, 10990.000
1180.793, 11070.000
1182.015, 10970.000
1183.238, 11160.000
1184.460, 11060.000
1185.683, 10900.000
1186.905, 11150.000
1188.126, 11090.000
1189.348, 11100.000
1190.569, 11120.000
1191.791, 11110.000
1193.012, 11000.000
1194.233, 11230.000
1195.453, 11030.000
1196.674, 11180.000
1197.894, 11150.000
1199.114, 11300.000
1200.334, 11330.000
1201.554, 11150.000
1202.774, 11140.000
1203.993, 11460.000
1205.212, 11260.000
1206.431, 11270.000
1207.650, 11350.000
1208.869, 11220.000
1210.087, 11350.000
1211.305, 11330.000
1212.524, 11440.000
1213.741, 11530.000
1214.959, 11330.000
1216.177, 11490.000
1217.394, 11440.000
1218.611, 11500.000
1219.828, 11550.000
1221.045, 11450.000
1222.261, 11640.000
1223.478, 11580.000
1224.694, 11460.000
1225.910, 11740.000
1227.126, 11520.000
1228.342, 11610.000
1229.557, 11700.000
1230.772, 11550.000
1231.987, 11690.000
1233.202, 11720.000
1234.417, 11780.000
1235.631, 11810.000
1236.846, 11760.000
1238.060, 11680.000
1239.274, 11860.000
1240.488, 11630.000
1241.701, 11810.000
1242.915, 11900.000
1244.128, 11800.000
1245.341, 11800.000
1246.554, 11860.000
1247.767, 11810.000
1248.979, 11900.000
1250.191, 11870.000
1251.403, 11910.000
1252.615, 12020.000
1253.827, 11800.000
1255.039, 12120.000
1256.250, 12010.000
1257.461, 12040.000
1258.672, 12240.000
1259.883, 12060.000
1261.094, 12070.000
1262.304, 12190.000
1263.514, 12170.000
1264.724, 12020.000
1265.934, 12250.000
1267.144, 12180.000
1268.354, 12290.000
1269.563, 12180.000
1270.772, 12290.000
1271.981, 12370.000
1273.190, 12270.000
1274.398, 12310.000
1275.607, 12320.000
1276.815, 12200.000
1278.023, 12610.000
1279.231, 12230.000
1280.439, 12210.000
1281.646, 12530.000
1282.853, 12180.000
1284.060, 12340.000
1285.267, 12420.000
1286.474, 12370.000
1287.681, 12530.000
1288.887, 12430.000
1290.093, 12350.000
1291.299, 12460.000
1292.505, 12380.000
1293.711, 12520.000
1294.916, 12520.000
1296.121, 12370.000
1297.327, 12640.000
1298.531, 12500.000
1299.736, 12470.000
1300.941, 12600.000
1302.145, 12610.000
1303.349, 12600.000
1304.553, 12810.000
1305.757, 12560.000
1306.961, 12710.000
1308.164, 12810.000
1309.367, 12650.000
1310.570, 12700.000
1311.773, 12790.000
1312.976, 12660.000
1314.178, 12780.000
1315.381, 12800.000
1316.583, 12860.000
1317.785, 12990.000
1318.987, 12840.000
1320.188, 12860.000
1321.390, 12950.000
1322.591, 12960.000
1323.792, 13010.000
1324.993, 13058.535
1326.193, 12920.000
1327.394, 13090.000
1328.594, 13070.000
1329.794, 12970.000
1330.994, 13200.000
1332.194, 13110.000
1333.394, 13120.000
1334.593, 13030.000
1335.792, 13100.000
1336.991, 13280.000
1338.190, 13020.000
1339.389, 13190.000
1340.587, 13310.000
1341.786, 13090.000
1342.984, 13330.000
1344.182, 13370.000
1345.379, 13220.000
1346.577, 13440.000
1347.774, 13320.000
1348.972, 13430.000
1350.169, 13340.000
1351.365, 13350.000
1352.562, 13510.000
1353.759, 13470.000
1354.955, 13440.000
1356.151, 13670.000
1357.347, 13450.000
1358.543, 13540.000
1359.738, 13680.000
1360.934, 13580.000
1362.129, 13540.000
1363.324, 13800.000
1364.519, 13590.000
1365.713, 13850.000
1366.908, 13650.000
1368.102, 13630.000
1369.296, 13750.000
1370.490, 13600.000
1371.684, 13640.000
1372.877, 13920.000
1374.071, 13610.000
1375.264, 13830.000
1376.457, 13920.000
1377.650, 13680.000
1378.843, 13910.000
1380.035, 13940.000
1381.227, 13750.000
1382.419, 14090.000
1383.611, 14120.000
1384.803, 14160.000
1385.995, 14170.000
1387.186, 14040.000
1388.377, 14130.000
1389.568, 14270.000
1390.759, 14100.000
1391.950, 14340.000
1393.140, 14320.000
1394.331, 14240.000
1395.521, 14460.000
1396.711, 14240.000
1397.900, 14320.000
1399.090, 14590.000
1400.279, 14240.000
1401.469, 14360.000
1402.658, 14500.000
1403.847, 14140.000
1405.035, 14530.000
1406.224, 14450.000
1407.412, 14530.000
1408.600, 14500.000
1409.788, 14420.000
1410.976, 14520.000
1412.164, 14680.000
1413.351, 14450.000
1414.538, 14650.000
1415.725, 14860.000
1416.912, 14380.000
1418.099, 14910.000
1419.285, 14610.000
1420.472, 14720.000
1421.658, 14970.000
1422.844, 14530.000
1424.030, 14930.000
1425.215, 15000.000
1426.401, 14750.000
1427.586, 15110.000
1428.771, 14900.000
1429.956, 14700.000
1431.141, 15210.000
1432.325, 14990.000
1433.510, 15050.000
1434.694, 15210.000
1435.878, 15030.000
1437.062, 15110.000
1438.245, 15310.000
1439.429, 15000.000
1440.612, 15230.000
1441.795, 15400.000
1442.978, 15320.000
1444.161, 15470.000
1445.343, 15270.000
1446.526, 15360.000
1447.708, 15550.000
1448.890, 15330.000
1450.072, 15630.000
1451.253, 15650.000
1452.435, 15540.000
1453.616, 15490.000
1454.797, 15780.000
1455.978, 15470.000
1457.159, 15880.000
1458.340, 15700.000
1459.520, 15660.000
1460.700, 15910.000
1461.880, 15720.000
1463.060, 15840.000
1464.240, 16130.000
1465.420, 15860.000
1466.599, 15920.000
1467.778, 15960.000
1468.957, 15700.000
1470.136, 16190.000
1471.315, 16110.000
1472.493, 15860.000
1473.671, 16340.000
1474.849, 15970.000
1476.027, 16170.000
1477.205, 16320.000
1478.383, 15810.000
1479.560, 16400.000
1480.737, 16350.000
1481.914, 16180.000
1483.091, 16370.000
1484.268, 16210.000
1485.444, 16190.000
1486.621, 16480.000
1487.797, 16460.000
1488.973, 16410.000
1490.149, 16560.000
1491.324, 16400.000
1492.500, 16400.000
1493.675, 16640.000
1494.850, 16290.000
1496.025, 16620.000
1497.200, 16780.000
1498.374, 16450.000
1499.548, 16660.000
1500.723, 16670.000
1501.897, 16510.000
1503.071, 16840.000
1504.244, 16630.000
1505.418, 16790.000
1506.591, 16920.000
1507.764, 16750.000
1508.937, 16850.000
1510.110, 16883.943
1511.282, 16830.000
1512.455, 16880.000
1513.627, 17010.000
1514.799, 16750.000
1515.971, 17240.000
1517.143, 16910.000
1518.314, 16830.000
1519.486, 17160.000
1520.657, 17020.000
1521.828, 17040.000
1522.999, 17100.000
##END=



