##NAMES=Calcite
##RRUFFID=R040170
##IDEAL CHEMISTRY=CaCO_3_
##LOCALITY=Peramea, Lerida Province, Catalonia, Spain
##OWNER=RRUFF
##SOURCE=University of Arizona Mineral Museum
##DESCRIPTION=Pink fragment
##STATUS=The identification of this mineral has been confirmed by X-ray diffraction and chemical analysis
##URL=rruff.info/R040170
##MEASURED CHEMISTRY=(Ca_0.99_Mg_0.01_)CO_3_; trace amounts of Co
##PIN_ID=L00956
##ORIENTATION=Laser parallel to -a* (-1 0 0). Fiducial mark perpendicular to laser is parallel to c [0 0 1]
102.1160, 6759.000
103.3490, 6922.000
104.5820, 7071.000
105.8150, 7198.000
107.0470, 7268.000
108.2800, 7297.787
109.5120, 7161.000
110.7440, 7250.000
111.9760, 7279.000
113.2080, 7203.000
114.4400, 7323.644
115.6710, 7438.000
116.9030, 7459.000
118.1340, 7601.000
119.3650, 7650.000
120.5960, 7623.000
121.8270, 7665.000
123.0580, 7691.000
124.2880, 7778.309
125.5190, 7949.000
126.7490, 8005.000
127.9790, 8161.000
129.2090, 8292.000
130.4390, 8213.000
131.6680, 8418.000
132.8980, 8582.000
134.1270, 8840.000
135.3560, 9030.000
136.5850, 9217.000
137.8140, 9777.000
139.0430, 9988.000
140.2710, 10476.00
141.5000, 11143.00
142.7280, 11547.00
143.9560, 12074.00
145.1840, 12947.00
146.4120, 13450.00
147.6390, 13937.00
148.8670, 14259.00
150.0940, 14311.00
151.3210, 14094.00
152.5490, 13572.00
153.7750, 13009.00
155.0020, 12323.00
156.2290, 11729.00
157.4550, 11086.00
158.6810, 10616.22
159.9080, 10099.00
161.1340, 9790.000
162.3590, 9437.000
163.5850, 9153.000
164.8110, 9011.000
166.0360, 8733.000
167.2610, 8644.000
168.4860, 8657.000
169.7110, 8584.000
170.9360, 8550.000
172.1610, 8510.000
173.3850, 8448.000
174.6100, 8474.000
175.8340, 8367.000
177.0580, 8347.000
178.2820, 8344.000
179.5050, 8416.000
180.7290, 8313.000
181.9520, 8325.000
183.1760, 8497.000
184.3990, 8486.000
185.6220, 8400.000
186.8450, 8458.000
188.0670, 8545.000
189.2900, 8480.000
190.5120, 8503.000
191.7340, 8498.000
192.9560, 8460.000
194.1780, 8485.424
195.4000, 8564.000
196.6220, 8501.000
197.8430, 8544.000
199.0640, 8555.000
200.2860, 8544.000
201.5070, 8574.080
202.7270, 8640.000
203.9480, 8592.000
205.1690, 8633.000
206.3890, 8624.000
207.6090, 8621.000
208.8290, 8693.000
210.0490, 8637.000
211.2690, 8724.000
212.4890, 8629.000
213.7080, 8697.000
214.9280, 8821.000
216.1470, 8777.000
217.3660, 8862.000
218.5850, 8853.000
219.8030, 8848.000
221.0220, 8877.000
222.2400, 9059.000
223.4590, 8916.000
224.6770, 8874.000
225.8950, 9084.000
227.1120, 9062.000
228.3300, 9220.000
229.5480, 9148.000
230.7650, 9160.000
231.9820, 9300.000
233.1990, 9374.000
234.4160, 9406.000
235.6330, 9366.000
236.8490, 9495.000
238.0660, 9587.000
239.2820, 9716.000
240.4980, 9713.000
241.7140, 9721.000
242.9300, 9848.000
244.1460, 10003.00
245.3610, 10040.00
246.5770, 10249.00
247.7920, 10427.00
249.0070, 10489.00
250.2220, 10688.00
251.4370, 10886.00
252.6510, 11295.00
253.8660, 11552.00
255.0800, 11850.53
256.2940, 12169.00
257.5080, 12487.00
258.7220, 12819.00
259.9360, 13224.00
261.1490, 13753.00
262.3630, 14473.65
263.5760, 15341.00
264.7890, 16268.00
266.0020, 17427.00
267.2150, 18636.00
268.4270, 20101.00
269.6400, 21453.00
270.8520, 22722.00
272.0640, 24108.00
273.2760, 25187.00
274.4880, 25914.00
275.7000, 26121.77
276.9120, 25966.00
278.1230, 25433.00
279.3340, 24383.00
280.5450, 23065.00
281.7560, 21595.00
282.9670, 20116.00
284.1780, 18492.00
285.3880, 17414.00
286.5980, 16092.00
287.8090, 15102.00
289.0190, 14212.00
290.2290, 13571.00
291.4380, 12992.00
292.6480, 12593.00
293.8570, 12102.00
295.0670, 11859.00
296.2760, 11556.00
297.4850, 11326.00
298.6930, 11153.00
299.9020, 10966.00
301.1110, 10877.00
302.3190, 10698.00
303.5270, 10581.00
304.7350, 10559.00
305.9430, 10396.00
307.1510, 10283.00
308.3580, 10148.00
309.5660, 10118.93
310.7730, 10253.00
311.9800, 10123.00
313.1870, 10075.00
314.3940, 10125.00
315.6010, 10055.00
316.8070, 10111.00
318.0130, 10024.00
319.2200, 9935.000
320.4260, 9885.000
321.6310, 10163.00
322.8370, 10026.09
324.0430, 10034.58
325.2480, 10000.00
326.4540, 9891.000
327.6590, 9872.000
328.8640, 9796.000
330.0680, 9788.496
331.2730, 9825.000
332.4780, 9806.000
333.6820, 9821.000
334.8860, 9856.000
336.0900, 9865.000
337.2940, 9821.000
338.4980, 9793.000
339.7010, 9898.000
340.9050, 9848.000
342.1080, 9855.000
343.3110, 9885.000
344.5140, 9833.000
345.7170, 9811.000
346.9200, 9931.000
348.1220, 9738.000
349.3240, 9918.000
350.5270, 9787.000
351.7290, 9772.000
352.9310, 9769.000
354.1320, 9900.000
355.3340, 9828.000
356.5350, 9835.000
357.7370, 9837.000
358.9380, 9811.000
360.1390, 9959.000
361.3400, 9913.000
362.5400, 9792.000
363.7410, 9991.000
364.9410, 9980.000
366.1410, 9974.000
367.3410, 9996.000
368.5410, 9961.000
369.7410, 10041.00
370.9400, 9937.000
372.1400, 9970.000
373.3390, 10052.00
374.5380, 10099.00
375.7370, 10091.00
376.9360, 10054.00
378.1350, 10014.00
379.3330, 10067.00
380.5310, 10027.00
381.7300, 10051.00
382.9280, 10240.00
384.1260, 10028.00
385.3230, 9989.000
386.5210, 10148.00
387.7180, 10125.00
388.9160, 10108.00
390.1130, 10263.00
391.3100, 10148.00
392.5060, 10169.00
393.7030, 10143.00
394.9000, 10150.00
396.0960, 10166.00
397.2920, 10152.00
398.4880, 10293.00
399.6840, 10433.00
400.8800, 10323.00
402.0750, 10285.00
403.2710, 10234.00
404.4660, 10221.46
405.6610, 10374.00
406.8560, 10264.00
408.0510, 10344.00
409.2450, 10420.00
410.4400, 10423.00
411.6340, 10414.00
412.8280, 10412.00
414.0220, 10405.37
415.2160, 10443.00
416.4100, 10401.00
417.6030, 10457.00
418.7970, 10484.00
419.9900, 10545.00
421.1830, 10452.00
422.3760, 10508.48
423.5690, 10418.00
424.7610, 10527.00
425.9540, 10490.00
427.1460, 10491.00
428.3380, 10563.00
429.5300, 10506.00
430.7220, 10568.00
431.9140, 10667.00
433.1050, 10625.00
434.2970, 10591.00
435.4880, 10633.00
436.6790, 10687.00
437.8700, 10787.00
439.0610, 10772.00
440.2510, 10867.00
441.4420, 10758.00
442.6320, 10881.00
443.8220, 10783.00
445.0120, 10809.00
446.2020, 10809.00
447.3910, 10781.00
448.5810, 10818.00
449.7700, 10927.00
450.9600, 10882.00
452.1490, 10938.00
453.3370, 10955.17
454.5260, 10965.22
455.7150, 10971.00
456.9030, 11002.00
458.0910, 10998.00
459.2800, 10992.00
460.4670, 11004.00
461.6550, 10985.00
462.8430, 11003.73
464.0300, 10998.00
465.2180, 11013.00
466.4050, 11003.00
467.5920, 10965.00
468.7790, 11076.00
469.9650, 11179.00
471.1520, 11044.00
472.3380, 11128.00
473.5250, 11117.00
474.7110, 11123.00
475.8970, 11155.00
477.0820, 11137.29
478.2680, 11230.00
479.4540, 11161.00
480.6390, 11098.00
481.8240, 11179.00
483.0090, 11252.00
484.1940, 11205.00
485.3780, 11282.00
486.5630, 11318.00
487.7470, 11233.00
488.9320, 11279.00
490.1160, 11299.00
491.3000, 11384.00
492.4830, 11415.00
493.6670, 11393.00
494.8500, 11396.00
496.0340, 11382.00
497.2170, 11414.00
498.4000, 11457.00
499.5820, 11444.45
500.7650, 11441.00
501.9480, 11448.00
503.1300, 11444.00
504.3120, 11447.69
505.4940, 11518.00
506.6760, 11522.00
507.8580, 11528.00
509.0390, 11606.00
510.2210, 11508.00
511.4020, 11643.00
512.5830, 11602.00
513.7640, 11471.00
514.9450, 11689.00
516.1250, 11521.00
517.3060, 11685.00
518.4860, 11600.00
519.6660, 11645.00
520.8460, 11676.00
522.0260, 11790.00
523.2060, 11665.00
524.3850, 11731.00
525.5650, 11677.00
526.7440, 11911.00
527.9230, 11813.00
529.1020, 11897.00
530.2810, 11827.00
531.4590, 11683.00
532.6380, 11933.00
533.8160, 11751.00
534.9940, 11792.00
536.1720, 11932.00
537.3500, 11798.00
538.5270, 11834.00
539.7050, 11759.00
540.8820, 11837.00
542.0590, 11879.00
543.2360, 11934.00
544.4130, 11978.25
545.5900, 11958.00
546.7660, 12032.00
547.9430, 12022.00
549.1190, 12000.00
550.2950, 11939.00
551.4710, 12063.00
552.6470, 12050.00
553.8220, 12106.00
554.9980, 12119.26
556.1730, 12073.00
557.3480, 12104.00
558.5230, 12078.00
559.6980, 12051.00
560.8730, 12117.00
562.0470, 12214.00
563.2220, 12205.00
564.3960, 12170.00
565.5700, 12290.00
566.7440, 12243.00
567.9170, 12178.00
569.0910, 12340.00
570.2640, 12308.00
571.4380, 12289.00
572.6110, 12367.00
573.7840, 12270.00
574.9570, 12429.00
576.1290, 12413.00
577.3020, 12325.00
578.4740, 12359.00
579.6460, 12238.00
580.8180, 12410.00
581.9900, 12440.00
583.1620, 12380.00
584.3330, 12570.00
585.5040, 12547.00
586.6760, 12505.00
587.8470, 12484.00
589.0180, 12586.00
590.1880, 12566.37
591.3590, 12603.00
592.5290, 12635.00
593.7000, 12577.00
594.8700, 12609.00
596.0400, 12524.00
597.2090, 12595.00
598.3790, 12628.00
599.5490, 12678.00
600.7180, 12642.00
601.8870, 12704.51
603.0560, 12796.00
604.2250, 12749.00
605.3940, 12787.00
606.5620, 12742.00
607.7300, 12749.00
608.8990, 12856.00
610.0670, 12852.00
611.2350, 12941.00
612.4020, 12845.00
613.5700, 12931.00
614.7370, 12992.00
615.9050, 12864.00
617.0720, 12845.00
618.2390, 12868.00
619.4060, 12839.70
620.5720, 13020.00
621.7390, 12881.00
622.9050, 13008.00
624.0710, 13030.00
625.2370, 12946.00
626.4030, 13093.00
627.5690, 13066.00
628.7340, 13023.00
629.9000, 13139.00
631.0650, 13002.00
632.2300, 13034.00
633.3950, 13102.00
634.5600, 13216.00
635.7240, 13126.00
636.8890, 13160.00
638.0530, 13145.00
639.2170, 13135.00
640.3810, 13134.00
641.5450, 13138.00
642.7080, 13091.00
643.8720, 13142.00
645.0350, 13322.00
646.1980, 13179.00
647.3610, 13344.00
648.5240, 13227.00
649.6870, 13350.00
650.8490, 13344.00
652.0120, 13285.00
653.1740, 13355.00
654.3360, 13429.00
655.4980, 13327.00
656.6600, 13454.00
657.8210, 13421.00
658.9830, 13499.00
660.1440, 13445.00
661.3050, 13397.00
662.4660, 13538.00
663.6270, 13475.00
664.7870, 13512.00
665.9480, 13453.00
667.1080, 13655.00
668.2680, 13544.00
669.4280, 13634.00
670.5880, 13669.00
671.7480, 13602.00
672.9070, 13648.00
674.0670, 13637.82
675.2260, 13562.00
676.3850, 13657.00
677.5440, 13686.00
678.7030, 13718.00
679.8610, 13659.00
681.0200, 13736.00
682.1780, 13700.00
683.3360, 13717.00
684.4940, 13748.00
685.6520, 13833.00
686.8090, 13764.00
687.9670, 13886.00
689.1240, 13913.00
690.2810, 13909.00
691.4380, 14006.00
692.5950, 14071.00
693.7520, 14051.00
694.9080, 14043.00
696.0650, 14317.00
697.2210, 14083.00
698.3770, 14204.00
699.5330, 14434.00
700.6880, 14674.00
701.8440, 15059.00
702.9990, 15466.00
704.1550, 15658.00
705.3100, 16164.00
706.4650, 16523.00
707.6190, 16891.00
708.7740, 16887.00
709.9290, 16652.00
711.0830, 16150.00
712.2370, 15785.00
713.3910, 15400.00
714.5450, 15165.00
715.6980, 14815.00
716.8520, 14758.00
718.0050, 14501.00
719.1580, 14392.00
720.3110, 14423.00
721.4640, 14506.00
722.6170, 14513.00
723.7700, 14434.00
724.9220, 14444.00
726.0740, 14406.00
727.2260, 14412.00
728.3780, 14343.00
729.5300, 14508.00
730.6810, 14446.00
731.8330, 14523.00
732.9840, 14516.72
734.1350, 14471.00
735.2860, 14450.00
736.4370, 14460.00
737.5880, 14387.00
738.7380, 14534.00
739.8880, 14434.00
741.0390, 14642.00
742.1890, 14395.00
743.3380, 14419.00
744.4880, 14510.00
745.6380, 14424.00
746.7870, 14525.00
747.9360, 14689.00
749.0850, 14553.00
750.2340, 14602.00
751.3830, 14677.00
752.5310, 14635.00
753.6800, 14672.00
754.8280, 14751.00
755.9760, 14645.00
757.1240, 14832.00
758.2720, 14715.00
759.4190, 14653.00
760.5670, 14977.00
761.7140, 14928.00
762.8610, 14892.00
764.0080, 15078.00
765.1550, 14606.00
766.3020, 14894.00
767.4480, 14804.00
768.5950, 14802.00
769.7410, 14821.00
770.8870, 14922.00
772.0330, 14924.00
773.1780, 14924.00
774.3240, 14956.00
775.4690, 14864.00
776.6140, 14974.00
777.7590, 15133.00
778.9040, 14912.00
780.0490, 15080.00
781.1940, 15019.00
782.3380, 15106.00
783.4820, 15186.00
784.6260, 15082.00
785.7700, 15147.00
786.9140, 14996.00
788.0580, 15050.48
789.2010, 14997.00
790.3450, 15087.00
791.4880, 15177.00
792.6310, 15152.00
793.7730, 15252.00
794.9160, 15280.00
796.0590, 15316.00
797.2010, 15391.00
798.3430, 15308.00
799.4850, 15207.00
800.6270, 15268.00
801.7690, 15331.00
802.9100, 15402.00
804.0520, 15382.00
805.1930, 15433.00
806.3340, 15416.12
807.4750, 15384.00
808.6160, 15376.00
809.7560, 15415.00
810.8970, 15402.00
812.0370, 15456.00
813.1770, 15483.00
814.3170, 15497.07
815.4570, 15588.00
816.5960, 15534.00
817.7360, 15567.00
818.8750, 15574.00
820.0140, 15689.00
821.1530, 15647.97
822.2920, 15696.00
823.4310, 15624.00
824.5690, 15770.00
825.7070, 15788.00
826.8460, 15720.00
827.9840, 15855.00
829.1220, 15785.00
830.2590, 15929.00
831.3970, 15778.00
832.5340, 15923.00
833.6710, 15777.00
834.8080, 15935.00
835.9450, 15884.00
837.0820, 15748.00
838.2190, 15849.00
839.3550, 15849.00
840.4910, 15874.00
841.6270, 16041.00
842.7630, 16107.00
843.8990, 16036.00
845.0350, 16064.00
846.1700, 16081.00
847.3060, 16025.00
848.4410, 16121.00
849.5760, 16147.00
850.7100, 16058.00
851.8450, 16144.00
852.9800, 16212.00
854.1140, 16279.00
855.2480, 16351.00
856.3820, 16309.00
857.5160, 16171.00
858.6500, 16156.00
859.7830, 16272.00
860.9170, 16336.00
862.0500, 16386.00
863.1830, 16449.00
864.3160, 16293.00
865.4480, 16335.00
866.5810, 16331.00
867.7130, 16551.00
868.8460, 16518.00
869.9780, 16365.00
871.1100, 16469.00
872.2410, 16383.00
873.3730, 16604.00
874.5050, 16320.00
875.6360, 16573.00
876.7670, 16537.00
877.8980, 16524.00
879.0290, 16485.00
880.1590, 16529.00
881.2900, 16590.00
882.4200, 16484.00
883.5500, 16607.00
884.6800, 16575.00
885.8100, 16634.00
886.9400, 16768.00
888.0690, 16717.00
889.1990, 16567.00
890.3280, 16610.00
891.4570, 16599.00
892.5860, 16693.00
893.7140, 16685.00
894.8430, 16681.00
895.9710, 16837.00
897.1000, 16754.00
898.2280, 16825.00
899.3560, 16844.00
900.4830, 16893.00
901.6110, 16809.00
902.7380, 16852.00
903.8660, 16843.00
904.9930, 16815.45
906.1200, 16871.00
907.2460, 16823.00
908.3730, 16913.00
909.5000, 16999.00
910.6260, 17065.00
911.7520, 16943.00
912.8780, 17060.00
914.0040, 17020.00
915.1290, 17113.00
916.2550, 17084.00
917.3800, 17113.00
918.5050, 16966.00
919.6300, 17038.00
920.7550, 17195.00
921.8800, 17104.00
923.0040, 17213.00
924.1290, 17200.00
925.2530, 17314.00
926.3770, 17310.00
927.5010, 17271.00
928.6250, 17304.00
929.7480, 17180.00
930.8720, 17206.00
931.9950, 17170.00
933.1180, 17317.00
934.2410, 17346.00
935.3640, 17454.00
936.4860, 17448.00
937.6090, 17462.00
938.7310, 17584.00
939.8530, 17374.00
940.9750, 17307.00
942.0970, 17227.00
943.2180, 17387.00
944.3400, 17587.00
945.4610, 17548.00
946.5820, 17648.00
947.7030, 17581.00
948.8240, 17780.00
949.9450, 17750.00
951.0650, 17633.00
952.1860, 17727.00
953.3060, 17531.00
954.4260, 17599.00
955.5460, 17756.00
956.6650, 17759.00
957.7850, 17587.00
958.9040, 17766.00
960.0230, 17894.00
961.1420, 17628.00
962.2610, 17736.00
963.3800, 17707.00
964.4990, 17698.00
965.6170, 17954.00
966.7350, 17780.00
967.8530, 17970.00
968.9710, 17909.00
970.0890, 17998.00
971.2070, 17964.00
972.3240, 17908.00
973.4410, 17936.00
974.5580, 17970.00
975.6750, 18098.00
976.7920, 18162.00
977.9090, 18029.00
979.0250, 18130.00
980.1410, 18310.00
981.2580, 18024.00
982.3740, 18214.00
983.4890, 18387.00
984.6050, 18391.00
985.7200, 18436.00
986.8360, 18399.00
987.9510, 18443.00
989.0660, 18568.00
990.1810, 18463.00
991.2950, 18545.00
992.4100, 18707.00
993.5240, 18635.00
994.6390, 18717.00
995.7530, 18848.00
996.8660, 18901.00
997.9800, 18889.00
999.0940, 19121.00
1000.207, 19082.00
1001.320, 19122.00
1002.433, 19328.00
1003.546, 19233.00
1004.659, 19482.00
1005.772, 19515.00
1006.884, 19612.00
1007.996, 19830.00
1009.108, 19847.00
1010.220, 19973.00
1011.332, 20135.00
1012.444, 20270.00
1013.555, 20376.00
1014.666, 20188.00
1015.777, 20196.00
1016.888, 19849.00
1017.999, 19694.00
1019.110, 19365.00
1020.220, 19158.00
1021.331, 19258.00
1022.441, 18963.00
1023.551, 18966.00
1024.661, 18955.00
1025.770, 19116.00
1026.880, 18845.00
1027.989, 18975.00
1029.098, 19108.00
1030.207, 18818.00
1031.316, 18941.00
1032.425, 18818.00
1033.533, 19020.00
1034.642, 19019.00
1035.750, 18992.00
1036.858, 19082.00
1037.966, 19102.00
1039.073, 19162.00
1040.181, 19115.00
1041.288, 19188.00
1042.396, 19258.00
1043.503, 19294.00
1044.610, 19149.00
1045.716, 19383.00
1046.823, 19227.00
1047.929, 19295.00
1049.036, 19320.00
1050.142, 19347.00
1051.248, 19402.00
1052.353, 19344.00
1053.459, 19281.00
1054.564, 19568.00
1055.670, 19454.00
1056.775, 19358.00
1057.880, 19720.00
1058.985, 19720.00
1060.089, 19872.00
1061.194, 20033.00
1062.298, 19984.00
1063.402, 20023.00
1064.506, 20094.00
1065.610, 20187.00
1066.713, 20305.00
1067.817, 20447.00
1068.920, 20821.00
1070.023, 21010.00
1071.126, 21444.00
1072.229, 22156.00
1073.332, 23123.00
1074.435, 24379.00
1075.537, 26865.00
1076.639, 29870.00
1077.741, 34501.00
1078.843, 41583.00
1079.945, 48943.00
1081.046, 56234.00
1082.148, 61874.00
1083.249, 62744.00
1084.350, 57083.00
1085.451, 48902.00
1086.551, 41270.00
1087.652, 34620.00
1088.752, 29771.00
1089.853, 26138.00
1090.953, 23979.00
1092.053, 22526.00
1093.152, 21723.00
1094.252, 21191.00
1095.351, 20743.00
1096.451, 20723.00
1097.550, 20531.00
1098.649, 20312.00
1099.748, 20462.00
1100.846, 20433.00
1101.945, 20256.00
1103.043, 20318.00
1104.141, 20372.00
1105.239, 20179.00
1106.337, 20305.00
1107.434, 20412.00
1108.532, 20345.00
1109.629, 20326.00
1110.726, 20369.00
1111.823, 20135.00
1112.920, 20367.00
1114.017, 20143.00
1115.113, 20410.00
1116.210, 20385.00
1117.306, 20459.00
1118.402, 20362.00
1119.498, 20402.00
1120.593, 20616.00
1121.689, 20609.00
1122.784, 20613.00
1123.879, 20440.00
1124.974, 20510.00
1126.069, 20634.00
1127.164, 20528.00
1128.259, 20626.00
1129.353, 20573.00
1130.447, 20593.00
1131.541, 20453.00
1132.635, 20545.00
1133.729, 20472.00
1134.822, 20513.00
1135.916, 20561.99
1137.009, 20610.00
1138.102, 20610.00
1139.195, 20760.00
1140.288, 20674.00
1141.380, 20651.00
1142.473, 20841.00
1143.565, 20814.00
1144.657, 20768.00
1145.749, 20704.00
1146.841, 20960.00
1147.932, 20829.00
1149.024, 20981.00
1150.115, 20746.00
1151.206, 20775.00
1152.297, 21158.00
1153.388, 20983.00
1154.479, 20977.00
1155.569, 20792.00
1156.659, 20958.00
1157.750, 21001.00
1158.839, 21021.00
1159.929, 20916.00
1161.019, 21087.00
1162.108, 21005.00
1163.198, 21060.00
1164.287, 21014.00
1165.376, 21052.00
1166.465, 21198.00
1167.553, 20972.00
1168.642, 21074.00
1169.730, 21220.00
1170.818, 21132.00
1171.906, 21273.00
1172.994, 21432.00
1174.082, 21150.00
1175.170, 21452.00
1176.257, 21107.00
1177.344, 21243.00
1178.431, 21294.00
1179.518, 21329.00
1180.605, 21182.00
1181.691, 21303.00
1182.778, 21227.11
1183.864, 21435.00
1184.950, 21230.00
1186.036, 21235.00
1187.122, 21367.00
1188.207, 21342.00
1189.292, 21313.00
1190.378, 21559.00
1191.463, 21523.00
1192.548, 21399.00
1193.632, 21306.00
1194.717, 21440.00
1195.801, 21533.00
1196.886, 21493.00
1197.970, 21697.00
1199.054, 21582.00
1200.137, 21738.00
1201.221, 21624.00
1202.305, 21780.00
1203.388, 21713.00
1204.471, 21741.00
1205.554, 21539.00
1206.637, 21767.00
1207.719, 21622.00
1208.802, 21769.00
1209.884, 21707.00
1210.966, 21794.00
1212.048, 21877.00
1213.130, 21762.00
1214.212, 21862.00
1215.293, 21923.00
1216.374, 22055.00
1217.456, 21828.00
1218.536, 21948.00
1219.617, 21783.00
1220.698, 21911.00
1221.778, 22016.00
1222.859, 21898.00
1223.939, 21900.00
1225.019, 22088.00
1226.099, 22183.00
1227.178, 22086.00
1228.258, 22303.00
1229.337, 22258.00
1230.417, 22137.00
1231.496, 22132.00
1232.574, 22194.00
1233.653, 22301.00
1234.732, 22234.00
1235.810, 22278.00
1236.888, 22146.00
1237.966, 22098.00
1239.044, 22234.00
1240.122, 22098.00
1241.199, 22245.00
1242.277, 22286.00
1243.354, 22308.00
1244.431, 22280.00
1245.508, 22286.00
1246.585, 22429.00
1247.661, 22255.00
1248.738, 22255.00
1249.814, 22177.00
1250.890, 22308.00
1251.966, 22264.00
1253.042, 22290.00
1254.117, 22230.00
1255.193, 22300.00
1256.268, 22369.00
1257.343, 22360.00
1258.418, 22466.00
1259.493, 22515.49
1260.567, 22423.00
1261.642, 22603.00
1262.716, 22563.00
1263.790, 22470.00
1264.864, 22584.00
1265.938, 22533.00
1267.011, 22719.00
1268.085, 22666.00
1269.158, 22589.00
1270.231, 22716.00
1271.304, 22715.00
1272.377, 22597.00
1273.450, 22580.00
1274.522, 22690.00
1275.594, 22852.00
1276.666, 22751.00
1277.738, 22809.00
1278.810, 22705.00
1279.882, 22661.00
1280.953, 22727.00
1282.025, 22738.00
1283.096, 22873.00
1284.167, 22879.78
1285.238, 22910.00
1286.308, 22944.00
1287.379, 22909.00
1288.449, 22928.00
1289.519, 22942.22
1290.589, 22927.40
1291.659, 23006.00
1292.729, 22943.00
1293.798, 23030.00
1294.868, 23091.00
1295.937, 23116.00
1297.006, 23111.00
1298.075, 23132.00
1299.143, 23302.00
1300.212, 23094.00
1301.280, 23303.00
1302.348, 23184.00
1303.416, 23454.00
1304.484, 23195.00
1305.552, 23130.00
1306.620, 23314.00
1307.687, 23315.00
1308.754, 23410.00
1309.821, 23495.00
1310.888, 23230.00
1311.955, 23327.00
1313.021, 23495.00
1314.088, 23327.00
1315.154, 23448.00
1316.220, 23391.00
1317.286, 23712.00
1318.352, 23676.00
1319.417, 23600.00
1320.483, 23353.00
1321.548, 23804.00
1322.613, 23520.00
1323.678, 23535.00
1324.743, 23706.00
1325.807, 23685.00
1326.872, 23728.00
1327.936, 23669.00
1329.000, 23790.00
1330.064, 23688.00
1331.128, 23734.00
1332.191, 23611.00
1333.255, 23682.00
1334.318, 23687.00
1335.381, 23824.00
1336.444, 23729.00
1337.507, 23618.00
1338.569, 23735.00
1339.632, 23770.00
1340.694, 23752.02
1341.756, 23793.00
1342.818, 23789.00
1343.880, 23950.00
1344.941, 24015.00
1346.003, 23900.00
1347.064, 24095.00
1348.125, 24010.00
1349.186, 23965.00
1350.247, 23936.00
1351.308, 24133.00
1352.368, 23956.00
1353.428, 24296.00
1354.489, 24293.00
1355.549, 24328.00
1356.608, 24274.00
1357.668, 24222.00
1358.727, 24233.00
1359.787, 24181.40
1360.846, 24289.00
1361.905, 24162.00
1362.964, 24291.00
1364.022, 24371.00
1365.081, 24379.00
1366.139, 24482.00
1367.197, 24376.00
1368.255, 24468.00
1369.313, 24369.00
1370.371, 24465.00
1371.428, 24405.45
1372.486, 24432.00
1373.543, 24291.00
1374.600, 24293.00
1375.657, 24192.00
1376.713, 24275.26
1377.770, 24407.00
1378.826, 24488.00
1379.882, 24445.00
1380.938, 24553.00
1381.994, 24590.00
1383.050, 24492.00
1384.106, 24827.00
1385.161, 24433.00
1386.216, 24551.00
1387.271, 24743.00
1388.326, 24778.00
1389.381, 24782.00
1390.435, 24589.00
1391.490, 24675.00
1392.544, 24687.00
1393.598, 24755.00
1394.652, 24711.00
1395.705, 24760.00
1396.759, 24799.00
1397.812, 24894.00
1398.866, 25033.00
1399.919, 24991.00
1400.972, 25033.22
1402.024, 25144.00
1403.077, 25052.00
1404.129, 25109.26
1405.181, 24928.00
1406.233, 25071.00
1407.285, 25044.00
1408.337, 24948.00
1409.389, 25035.00
1410.440, 25110.00
1411.491, 25128.00
1412.542, 24966.00
1413.593, 25078.00
1414.644, 25017.00
1415.695, 25124.00
1416.745, 25268.00
1417.795, 25271.00
1418.845, 25293.00
1419.895, 25270.00
1420.945, 25406.00
1421.995, 25434.00
1423.044, 25572.00
1424.093, 25562.00
1425.142, 25664.00
1426.191, 25597.00
1427.240, 25702.00
1428.289, 25892.00
1429.337, 25965.00
1430.385, 26111.00
1431.433, 26324.00
1432.481, 26342.00
1433.529, 26485.00
1434.577, 26345.00
1435.624, 26197.00
1436.672, 26017.00
1437.719, 26000.00
1438.766, 25936.00
1439.812, 25840.00
1440.859, 25685.00
1441.905, 25695.00
1442.952, 25683.00
1443.998, 25538.00
1445.044, 25737.00
1446.090, 25807.00
1447.135, 25729.00
1448.181, 25756.00
1449.226, 25606.00
1450.271, 25665.00
1451.316, 25641.00
1452.361, 25874.00
1453.405, 25757.00
1454.450, 25854.00
1455.494, 25845.00
1456.538, 25850.00
1457.582, 25904.00
1458.626, 25850.00
1459.670, 26086.00
1460.713, 26051.20
1461.757, 25911.00
1462.800, 26090.00
1463.843, 26015.00
1464.886, 25941.00
1465.928, 25837.00
1466.971, 25865.00
1468.013, 25958.00
1469.055, 25945.00
1470.097, 25890.00
1471.139, 25959.00
1472.181, 25956.00
1473.222, 26093.00
1474.263, 26081.55
1475.305, 26178.00
1476.346, 26140.00
1477.386, 26110.00
1478.427, 26195.00
1479.468, 26361.00
1480.508, 26115.00
1481.548, 26270.00
1482.588, 26225.00
1483.628, 26161.00
1484.668, 26377.00
1485.707, 26579.00
1486.747, 26220.00
1487.786, 26344.00
1488.825, 26593.00
1489.864, 26336.00
1490.902, 26380.00
1491.941, 26511.00
1492.979, 26448.00
1494.017, 26502.00
1495.055, 26329.00
1496.093, 26441.00
1497.131, 26456.00
1498.168, 26581.00
1499.206, 26708.00
1500.243, 26693.00
1501.280, 26548.00
1502.317, 26622.00
1503.354, 26547.00
1504.390, 26673.00
1505.426, 26544.00
1506.463, 26706.00
1507.499, 26732.00
1508.535, 26688.00
1509.570, 26994.00
1510.606, 26702.00
1511.641, 26898.00
1512.676, 26566.00
1513.711, 26742.00
1514.746, 26757.00
1515.781, 26693.00
1516.816, 26801.00
1517.850, 26885.00
1518.884, 26878.00
1519.918, 26957.00
1520.952, 26948.00
1521.986, 26941.82
1523.019, 27088.00
1524.053, 26918.00
1525.086, 26964.00
1526.119, 26996.00
1527.152, 27171.00
1528.185, 27161.96
1529.217, 27241.89
1530.250, 27249.00
1531.282, 27289.00
1532.314, 27373.73
1533.346, 27298.00
1534.377, 27419.00
1535.409, 27253.00
1536.440, 27177.00
1537.472, 27091.00
1538.503, 27094.07
1539.534, 27099.96
1540.564, 27209.00
1541.595, 27238.00
1542.625, 27372.00
1543.656, 27542.00
1544.686, 27367.00
1545.716, 27076.00
1546.745, 27104.00
1547.775, 27416.00
1548.804, 27697.00
1549.834, 27537.00
1550.863, 27532.00
1551.892, 27380.00
1552.920, 27497.00
1553.949, 27599.00
1554.977, 27437.00
1556.006, 27546.00
1557.034, 27697.00
1558.062, 27665.00
1559.089, 27808.86
1560.117, 27546.00
1561.144, 27850.00
1562.172, 27922.00
1563.199, 27647.00
1564.226, 27662.00
1565.252, 27865.00
1566.279, 27921.00
1567.305, 27694.00
1568.332, 27892.00
1569.358, 27837.00
1570.384, 27863.00
##END=



