##NAMES=Calcite
##RRUFFID=R050009
##IDEAL CHEMISTRY=CaCO_3_
##LOCALITY=Amparo mine, Rodeo, Durango, Mexico
##OWNER=RRUFF
##SOURCE=Eugene Schlepp
##DESCRIPTION=Colorless cleavage rhomb
##STATUS=The identification of this mineral has been confirmed by X-ray diffraction and chemical analysis
##URL=rruff.info/R050009
##MEASURED CHEMISTRY=Ca_1.00_CO_3_; trace amounts of Mn
##PIN_ID=M00141
##ORIENTATION=Laser parallel to a* (1 0 0). Fiducial mark perpendicular to laser is parallel to -c [0 0 -1]
68.39700, 621.0000
69.64100, 623.0000
70.88600, 662.0000
72.13000, 733.0000
73.37400, 843.0000
74.61800, 800.0000
75.86200, 737.0000
77.10600, 793.0000
78.34900, 775.0000
79.59300, 746.0000
80.83600, 693.0000
82.07900, 662.0000
83.32100, 646.0000
84.56400, 681.0000
85.80600, 646.0000
87.04800, 667.0000
88.29000, 667.0000
89.53200, 675.0000
90.77400, 650.0000
92.01500, 646.0000
93.25700, 654.0000
94.49800, 679.0000
95.73900, 643.0000
96.98000, 654.0000
98.22000, 660.0000
99.46100, 652.0000
100.7010, 657.0000
101.9410, 657.5696
103.1810, 621.0000
104.4210, 656.0000
105.6600, 656.0000
106.9000, 644.0000
108.1390, 667.0000
109.3780, 687.0000
110.6170, 689.0000
111.8550, 761.0000
113.0940, 828.0000
114.3320, 792.0000
115.5700, 837.0000
116.8080, 798.0000
118.0460, 796.0000
119.2830, 760.0000
120.5210, 747.0000
121.7580, 707.0000
122.9950, 677.0000
124.2320, 661.0000
125.4690, 674.0000
126.7050, 665.0000
127.9410, 715.0000
129.1780, 685.0000
130.4140, 680.0000
131.6490, 694.0000
132.8850, 661.0000
134.1200, 724.0000
135.3560, 708.0000
136.5910, 718.0000
137.8260, 714.0000
139.0610, 706.0000
140.2950, 717.0000
141.5290, 768.0000
142.7640, 706.0000
143.9980, 821.0000
145.2320, 810.0000
146.4650, 870.0000
147.6990, 854.0000
148.9320, 934.0000
150.1650, 1083.000
151.3980, 1208.000
152.6310, 1386.000
153.8640, 1489.000
155.0960, 1584.000
156.3280, 1615.000
157.5600, 1452.000
158.7920, 1305.000
160.0240, 1180.000
161.2560, 1066.718
162.4870, 945.0000
163.7180, 883.0000
164.9490, 836.0000
166.1800, 764.0000
167.4110, 800.0000
168.6410, 763.0000
169.8720, 783.0000
171.1020, 754.0000
172.3320, 780.0000
173.5620, 744.0000
174.7910, 723.0000
176.0210, 737.0000
177.2500, 733.0000
178.4790, 743.0000
179.7080, 735.4172
180.9370, 728.0000
182.1650, 721.0000
183.3940, 714.0000
184.6220, 714.0000
185.8500, 734.0000
187.0780, 716.0000
188.3050, 734.0000
189.5330, 743.0000
190.7600, 713.0000
191.9870, 723.0000
193.2140, 734.0000
194.4410, 728.0000
195.6680, 735.3943
196.8940, 706.0000
198.1200, 735.0000
199.3470, 727.0000
200.5720, 721.0000
201.7980, 740.0000
203.0240, 759.0000
204.2490, 779.0000
205.4740, 775.8335
206.6990, 796.0000
207.9240, 759.0000
209.1490, 759.0000
210.3740, 739.0000
211.5980, 744.0000
212.8220, 751.0000
214.0460, 720.0000
215.2700, 765.0000
216.4930, 747.0000
217.7170, 744.0000
218.9400, 757.0000
220.1630, 751.0000
221.3860, 751.0000
222.6090, 775.0000
223.8320, 757.0000
225.0540, 725.0000
226.2760, 785.0000
227.4980, 754.0000
228.7200, 743.0000
229.9420, 783.0000
231.1630, 739.0000
232.3850, 750.0000
233.6060, 811.0000
234.8270, 774.0000
236.0480, 764.0000
237.2690, 805.0000
238.4890, 787.0000
239.7090, 836.0000
240.9290, 788.0000
242.1490, 780.0000
243.3690, 826.0000
244.5890, 809.0000
245.8080, 846.0000
247.0270, 826.0000
248.2470, 788.0000
249.4650, 829.0000
250.6840, 819.0000
251.9030, 864.0000
253.1210, 823.0000
254.3390, 832.0000
255.5570, 852.0000
256.7750, 900.0000
257.9930, 894.0000
259.2100, 915.0000
260.4280, 927.8351
261.6450, 929.0000
262.8620, 952.0000
264.0790, 948.0000
265.2950, 980.0000
266.5120, 1041.000
267.7280, 1048.000
268.9440, 1169.000
270.1600, 1176.000
271.3760, 1232.000
272.5920, 1302.000
273.8070, 1461.000
275.0220, 1561.000
276.2370, 1795.000
277.4520, 1955.000
278.6670, 2271.000
279.8820, 2543.000
281.0960, 2656.000
282.3100, 2652.000
283.5240, 2671.000
284.7380, 2421.000
285.9520, 2127.000
287.1650, 1808.000
288.3780, 1605.000
289.5920, 1449.000
290.8050, 1242.000
292.0170, 1161.000
293.2300, 1079.000
294.4430, 1065.000
295.6550, 1026.000
296.8670, 1012.000
298.0790, 953.0000
299.2910, 939.3502
300.5020, 980.0000
301.7140, 905.0000
302.9250, 893.0000
304.1360, 897.0000
305.3470, 861.0000
306.5580, 894.0000
307.7680, 869.0000
308.9780, 861.0000
310.1890, 842.0000
311.3990, 846.7659
312.6090, 842.0000
313.8180, 862.0000
315.0280, 881.0000
316.2370, 888.0000
317.4460, 838.0000
318.6550, 868.0000
319.8640, 856.0000
321.0730, 831.0000
322.2810, 882.0000
323.4890, 858.0000
324.6980, 853.0000
325.9060, 881.0000
327.1130, 824.0000
328.3210, 853.0000
329.5280, 850.0000
330.7360, 865.0000
331.9430, 856.0000
333.1500, 876.0000
334.3560, 870.0000
335.5630, 904.0000
336.7690, 858.0000
337.9760, 851.0000
339.1820, 869.0000
340.3870, 888.0000
341.5930, 862.0000
342.7990, 838.0000
344.0040, 848.0000
345.2090, 824.0000
346.4140, 876.0000
347.6190, 845.0000
348.8240, 827.0000
350.0280, 878.0000
351.2330, 860.0000
352.4370, 849.0000
353.6410, 896.0000
354.8440, 926.0000
356.0480, 828.0000
357.2520, 869.0000
358.4550, 886.0000
359.6580, 864.0000
360.8610, 900.0000
362.0640, 869.0000
363.2660, 883.0000
364.4690, 875.0000
365.6710, 899.0000
366.8730, 890.0000
368.0750, 879.0000
369.2770, 924.0000
370.4780, 865.0000
371.6800, 842.0000
372.8810, 911.0000
374.0820, 906.0000
375.2830, 891.0000
376.4830, 867.0000
377.6840, 873.9730
378.8840, 861.3640
380.0840, 880.0000
381.2840, 875.0000
382.4840, 877.0000
383.6840, 925.0000
384.8830, 913.0000
386.0830, 913.0000
387.2820, 872.0000
388.4810, 927.0000
389.6800, 921.0000
390.8780, 873.0000
392.0770, 909.0000
393.2750, 924.0000
394.4730, 927.0000
395.6710, 906.0000
396.8690, 901.0000
398.0660, 895.0000
399.2640, 892.4344
400.4610, 899.3309
401.6580, 910.0000
402.8550, 915.0000
404.0520, 950.0000
405.2490, 953.0000
406.4450, 908.0000
407.6410, 955.0000
408.8370, 918.0000
410.0330, 954.0000
411.2290, 916.0000
412.4240, 915.0000
413.6200, 962.0000
414.8150, 941.0000
416.0100, 927.0000
417.2050, 895.0000
418.4000, 921.0000
419.5940, 954.0000
420.7880, 957.0000
421.9830, 932.0000
423.1770, 931.0000
424.3700, 987.0000
425.5640, 952.0000
426.7580, 977.0000
427.9510, 952.0000
429.1440, 970.0000
430.3370, 949.0000
431.5300, 928.0000
432.7220, 947.0000
433.9150, 957.0000
435.1070, 947.0000
436.2990, 953.0000
437.4910, 931.0000
438.6830, 960.0000
439.8750, 959.0000
441.0660, 951.0000
442.2570, 968.7347
443.4480, 962.0000
444.6390, 983.0000
445.8300, 961.0000
447.0210, 964.0000
448.2110, 947.0000
449.4010, 954.6766
450.5910, 997.0000
451.7810, 969.0000
452.9710, 985.0000
454.1610, 984.0000
455.3500, 978.0000
456.5390, 978.0000
457.7280, 960.0000
458.9170, 964.0000
460.1060, 992.0000
461.2940, 975.0000
462.4830, 994.0000
463.6710, 1048.000
464.8590, 982.0000
466.0470, 1020.000
467.2350, 990.0000
468.4220, 954.0000
469.6090, 1020.000
470.7970, 984.0000
471.9840, 988.0000
473.1700, 1044.000
474.3570, 1013.000
475.5440, 1012.000
476.7300, 1019.000
477.9160, 994.0000
479.1020, 1025.000
480.2880, 1017.000
481.4740, 1063.000
482.6590, 1030.000
483.8440, 1038.000
485.0300, 1037.000
486.2140, 1014.671
487.3990, 1010.000
488.5840, 983.0000
489.7680, 1001.000
490.9530, 988.0000
492.1370, 1019.000
493.3210, 1027.000
494.5040, 1015.000
495.6880, 1020.000
496.8720, 1024.000
498.0550, 1036.000
499.2380, 1041.000
500.4210, 1078.000
501.6040, 1030.000
502.7860, 1088.000
503.9690, 1028.000
505.1510, 1072.000
506.3330, 1076.000
507.5150, 1086.000
508.6970, 1060.000
509.8780, 1039.000
511.0600, 1043.000
512.2410, 1057.000
513.4220, 1048.000
514.6030, 1084.000
515.7840, 1088.000
516.9640, 1082.000
518.1440, 1098.000
519.3250, 1095.000
520.5050, 1067.000
521.6850, 1076.000
522.8640, 1093.000
524.0440, 1054.000
525.2230, 1080.000
526.4020, 1087.000
527.5820, 1090.000
528.7600, 1036.000
529.9390, 1087.000
531.1180, 1056.000
532.2960, 1078.000
533.4740, 1130.000
534.6520, 1062.000
535.8300, 1048.000
537.0080, 1112.000
538.1850, 1081.000
539.3630, 1169.000
540.5400, 1102.000
541.7170, 1105.000
542.8940, 1087.000
544.0700, 1123.000
545.2470, 1108.000
546.4230, 1085.000
547.5990, 1122.000
548.7750, 1127.000
549.9510, 1118.000
551.1270, 1072.000
552.3020, 1149.000
553.4780, 1069.000
554.6530, 1124.000
555.8280, 1119.000
557.0030, 1115.000
558.1770, 1132.000
559.3520, 1151.000
560.5260, 1113.000
561.7000, 1153.000
562.8740, 1124.000
564.0480, 1154.000
565.2220, 1138.000
566.3950, 1150.000
567.5680, 1146.000
568.7420, 1147.896
569.9150, 1153.000
571.0870, 1158.000
572.2600, 1157.000
573.4320, 1166.000
574.6050, 1178.000
575.7770, 1167.000
576.9490, 1173.000
578.1210, 1199.000
579.2920, 1177.000
580.4640, 1162.000
581.6350, 1185.000
582.8060, 1163.000
583.9770, 1144.000
585.1480, 1190.000
586.3190, 1161.000
587.4890, 1188.000
588.6590, 1189.000
589.8290, 1142.000
590.9990, 1155.000
592.1690, 1172.000
593.3390, 1144.000
594.5080, 1194.000
595.6770, 1188.000
596.8470, 1205.000
598.0160, 1189.000
599.1840, 1179.000
600.3530, 1197.000
601.5210, 1178.000
602.6900, 1138.000
603.8580, 1197.000
605.0260, 1213.000
606.1930, 1176.000
607.3610, 1232.000
608.5280, 1203.000
609.6960, 1181.000
610.8630, 1167.000
612.0300, 1237.000
613.1970, 1227.000
614.3630, 1243.000
615.5300, 1233.000
616.6960, 1218.000
617.8620, 1217.000
619.0280, 1234.000
620.1940, 1199.000
621.3590, 1227.000
622.5250, 1283.000
623.6900, 1257.000
624.8550, 1224.000
626.0200, 1290.000
627.1850, 1187.000
628.3490, 1258.000
629.5140, 1239.000
630.6780, 1303.000
631.8420, 1250.000
633.0060, 1212.000
634.1700, 1248.000
635.3330, 1246.000
636.4970, 1224.000
637.6600, 1176.000
638.8230, 1242.000
639.9860, 1267.000
641.1490, 1226.000
642.3110, 1249.000
643.4740, 1238.000
644.6360, 1251.000
645.7980, 1288.000
646.9600, 1284.000
648.1220, 1293.000
649.2840, 1324.000
650.4450, 1291.000
651.6060, 1276.000
652.7670, 1245.000
653.9280, 1309.000
655.0890, 1224.000
656.2500, 1294.000
657.4100, 1302.000
658.5700, 1237.000
659.7300, 1301.000
660.8900, 1303.000
662.0500, 1320.000
663.2100, 1286.000
664.3690, 1296.000
665.5280, 1302.000
666.6880, 1329.000
667.8460, 1305.000
669.0050, 1322.000
670.1640, 1310.000
671.3220, 1314.000
672.4810, 1304.000
673.6390, 1321.000
674.7970, 1331.000
675.9540, 1352.000
677.1120, 1347.899
678.2690, 1337.000
679.4270, 1327.000
680.5840, 1328.000
681.7410, 1326.274
682.8980, 1325.611
684.0540, 1332.000
685.2110, 1332.000
686.3670, 1331.000
687.5230, 1340.000
688.6790, 1331.000
689.8350, 1363.000
690.9900, 1307.000
692.1460, 1350.000
693.3010, 1339.000
694.4560, 1301.000
695.6110, 1310.000
696.7660, 1335.000
697.9210, 1364.000
699.0750, 1332.000
700.2290, 1368.000
701.3840, 1401.000
702.5370, 1382.000
703.6910, 1371.000
704.8450, 1424.000
705.9980, 1422.000
707.1520, 1458.000
708.3050, 1510.000
709.4580, 1663.000
710.6110, 1838.000
711.7630, 2059.000
712.9160, 2087.000
714.0680, 1993.000
715.2200, 1697.000
716.3720, 1582.000
717.5240, 1480.000
718.6760, 1443.000
719.8270, 1446.000
720.9780, 1424.000
722.1300, 1397.000
723.2810, 1429.000
724.4310, 1449.000
725.5820, 1405.000
726.7330, 1419.000
727.8830, 1427.000
729.0330, 1370.000
730.1830, 1455.000
731.3330, 1476.000
732.4830, 1401.000
733.6320, 1475.000
734.7810, 1446.000
735.9310, 1464.000
737.0800, 1450.000
738.2290, 1407.000
739.3770, 1507.000
740.5260, 1441.000
741.6740, 1409.000
742.8220, 1479.000
743.9700, 1451.000
745.1180, 1446.000
746.2660, 1482.000
747.4130, 1446.000
748.5610, 1492.000
749.7080, 1457.000
750.8550, 1464.000
752.0020, 1474.000
753.1490, 1414.000
754.2950, 1538.000
755.4420, 1471.000
756.5880, 1561.000
757.7340, 1487.000
758.8800, 1476.000
760.0250, 1487.000
761.1710, 1512.000
762.3160, 1468.000
763.4620, 1485.000
764.6070, 1511.000
765.7520, 1523.000
766.8960, 1505.000
768.0410, 1551.000
769.1850, 1533.000
770.3300, 1467.000
771.4740, 1487.000
772.6180, 1512.000
773.7610, 1485.000
774.9050, 1504.000
776.0480, 1504.347
777.1920, 1499.702
778.3350, 1516.000
779.4780, 1510.000
780.6200, 1525.000
781.7630, 1550.000
782.9060, 1499.000
784.0480, 1500.000
785.1900, 1512.000
786.3320, 1566.000
787.4740, 1525.000
788.6150, 1547.000
789.7570, 1577.000
790.8980, 1557.000
792.0390, 1617.000
793.1800, 1583.000
794.3210, 1588.000
795.4620, 1557.000
796.6020, 1599.000
797.7420, 1612.000
798.8830, 1540.000
800.0230, 1538.000
801.1620, 1580.000
802.3020, 1625.000
803.4420, 1589.000
804.5810, 1610.000
805.7200, 1644.000
806.8590, 1561.000
807.9980, 1607.000
809.1370, 1627.000
810.2750, 1618.000
811.4140, 1603.000
812.5520, 1617.000
813.6900, 1619.461
814.8280, 1620.000
815.9650, 1642.000
817.1030, 1642.000
818.2400, 1643.000
819.3780, 1637.000
820.5150, 1641.000
821.6520, 1631.000
822.7880, 1634.000
823.9250, 1632.000
825.0610, 1635.000
826.1980, 1637.000
827.3340, 1634.000
828.4700, 1613.000
829.6050, 1654.000
830.7410, 1650.000
831.8760, 1639.000
833.0120, 1680.000
834.1470, 1637.000
835.2820, 1689.000
836.4160, 1619.000
837.5510, 1637.000
838.6860, 1620.000
839.8200, 1708.000
840.9540, 1675.000
842.0880, 1681.000
843.2220, 1668.000
844.3550, 1659.489
845.4890, 1659.000
846.6220, 1647.000
847.7550, 1681.000
848.8880, 1670.000
850.0210, 1712.000
851.1540, 1713.588
852.2860, 1716.000
853.4190, 1736.000
854.5510, 1746.000
855.6830, 1772.000
856.8150, 1772.000
857.9460, 1707.000
859.0780, 1710.000
860.2090, 1698.000
861.3410, 1829.000
862.4720, 1753.000
863.6020, 1761.000
864.7330, 1763.000
865.8640, 1726.000
866.9940, 1764.000
868.1240, 1754.000
869.2540, 1769.000
870.3840, 1766.000
871.5140, 1786.000
872.6440, 1770.000
873.7730, 1814.000
874.9020, 1801.000
876.0320, 1758.000
877.1600, 1782.000
878.2890, 1801.000
879.4180, 1760.000
880.5460, 1823.000
881.6750, 1828.000
882.8030, 1818.000
883.9310, 1805.000
885.0590, 1823.000
886.1860, 1804.000
887.3140, 1756.000
888.4410, 1825.000
889.5680, 1833.000
890.6950, 1802.000
891.8220, 1836.000
892.9490, 1824.000
894.0750, 1867.000
895.2020, 1819.000
896.3280, 1830.000
897.4540, 1833.000
898.5800, 1836.000
899.7050, 1843.000
900.8310, 1860.000
901.9560, 1880.000
903.0820, 1924.000
904.2070, 1811.000
905.3320, 1864.000
906.4560, 1810.000
907.5810, 1907.000
908.7050, 1888.000
909.8300, 1905.000
910.9540, 1847.000
912.0780, 1931.000
913.2010, 1878.000
914.3250, 1887.000
915.4480, 1927.000
916.5720, 1934.000
917.6950, 1931.000
918.8180, 1955.000
919.9410, 1927.000
921.0630, 1971.000
922.1860, 1974.000
923.3080, 1970.000
924.4300, 1939.000
925.5520, 1909.000
926.6740, 1956.000
927.7960, 1931.000
928.9170, 1946.000
930.0390, 1982.000
931.1600, 1944.000
932.2810, 1955.000
933.4020, 1963.000
934.5230, 1947.000
935.6430, 1977.000
936.7640, 1911.000
937.8840, 1963.000
939.0040, 2006.000
940.1240, 1937.000
941.2440, 1906.000
942.3630, 2019.000
943.4830, 2000.000
944.6020, 2024.000
945.7210, 2009.000
946.8400, 2003.000
947.9590, 2046.000
949.0770, 2005.000
950.1960, 2022.000
951.3140, 2015.000
952.4320, 1986.000
953.5500, 2008.955
954.6680, 1996.751
955.7860, 2026.000
956.9030, 2007.000
958.0210, 2004.099
959.1380, 2023.000
960.2550, 2039.000
961.3720, 2007.000
962.4890, 2066.000
963.6050, 2083.000
964.7220, 2046.000
965.8380, 2035.000
966.9540, 2098.000
968.0700, 2061.000
969.1860, 2073.000
970.3010, 2048.000
971.4170, 2049.000
972.5320, 2085.000
973.6470, 2055.000
974.7620, 2130.000
975.8770, 2100.000
976.9910, 2051.000
978.1060, 2096.000
979.2200, 2104.000
980.3340, 2115.000
981.4480, 2162.000
982.5620, 2144.000
983.6760, 2101.000
984.7890, 2145.000
985.9030, 2156.000
987.0160, 2140.000
988.1290, 2177.000
989.2420, 2150.000
990.3550, 2159.000
991.4670, 2149.000
992.5800, 2187.000
993.6920, 2140.000
994.8040, 2188.000
995.9160, 2217.000
997.0280, 2291.000
998.1390, 2178.000
999.2510, 2220.000
1000.362, 2221.000
1001.473, 2218.000
1002.584, 2247.000
1003.695, 2265.000
1004.805, 2190.000
1005.916, 2253.000
1007.026, 2162.000
1008.136, 2219.000
1009.246, 2250.000
1010.356, 2246.000
1011.466, 2213.000
1012.576, 2233.000
1013.685, 2282.000
1014.794, 2243.000
1015.903, 2260.000
1017.012, 2224.000
1018.121, 2299.000
1019.229, 2258.000
1020.338, 2262.000
1021.446, 2323.000
1022.554, 2250.000
1023.662, 2286.000
1024.770, 2302.000
1025.878, 2247.000
1026.985, 2283.000
1028.092, 2289.000
1029.200, 2286.000
1030.307, 2304.000
1031.413, 2323.000
1032.520, 2340.000
1033.627, 2358.580
1034.733, 2361.220
1035.839, 2373.132
1036.945, 2372.671
1038.051, 2380.000
1039.157, 2365.000
1040.262, 2357.000
1041.368, 2348.000
1042.473, 2336.000
1043.578, 2364.000
1044.683, 2437.000
1045.788, 2427.000
1046.893, 2396.000
1047.997, 2424.000
1049.101, 2369.000
1050.205, 2431.000
1051.309, 2432.000
1052.413, 2422.000
1053.517, 2411.000
1054.621, 2389.000
1055.724, 2468.000
1056.827, 2440.000
1057.930, 2404.000
1059.033, 2502.000
1060.136, 2509.000
1061.238, 2429.000
1062.341, 2425.000
1063.443, 2498.000
1064.545, 2504.000
1065.647, 2571.000
1066.749, 2533.000
1067.850, 2580.000
1068.952, 2573.000
1070.053, 2609.000
1071.154, 2570.000
1072.255, 2594.000
1073.356, 2536.000
1074.457, 2652.000
1075.557, 2664.000
1076.658, 2803.000
1077.758, 2759.000
1078.858, 2872.000
1079.958, 3025.000
1081.057, 3382.000
1082.157, 4094.000
1083.256, 5472.000
1084.356, 8962.000
1085.455, 14591.00
1086.554, 17202.00
1087.653, 12967.00
1088.751, 7718.000
1089.850, 4862.000
1090.948, 3599.000
1092.046, 3133.000
1093.144, 2927.000
1094.242, 2806.000
1095.340, 2785.000
1096.437, 2798.000
1097.534, 2718.000
1098.632, 2715.000
1099.729, 2726.000
1100.826, 2683.000
1101.922, 2745.000
1103.019, 2680.000
1104.115, 2692.000
1105.212, 2665.000
1106.308, 2730.000
1107.404, 2655.000
1108.499, 2710.000
1109.595, 2688.000
1110.691, 2715.000
1111.786, 2679.000
1112.881, 2707.000
1113.976, 2721.000
1115.071, 2658.000
1116.166, 2654.000
1117.260, 2704.000
1118.355, 2679.000
1119.449, 2640.000
1120.543, 2744.000
1121.637, 2729.000
1122.731, 2668.000
1123.824, 2776.000
1124.918, 2712.000
1126.011, 2769.000
1127.104, 2727.000
1128.197, 2793.000
1129.290, 2816.000
1130.382, 2844.000
1131.475, 2736.000
1132.567, 2782.000
1133.659, 2800.000
1134.751, 2757.000
1135.843, 2830.000
1136.935, 2841.000
1138.027, 2842.000
1139.118, 2872.000
1140.209, 2862.775
1141.300, 2762.000
1142.391, 2845.000
1143.482, 2837.000
1144.573, 2803.000
1145.663, 2926.000
1146.754, 2813.000
1147.844, 2860.000
1148.934, 2862.000
1150.024, 2882.000
1151.113, 2836.000
1152.203, 2870.000
1153.292, 2908.000
1154.381, 2821.000
1155.470, 2943.000
1156.559, 2936.000
1157.648, 2891.000
1158.737, 2912.000
1159.825, 2872.000
1160.913, 2927.000
1162.001, 2934.000
1163.089, 2945.000
1164.177, 2874.000
1165.265, 2982.000
1166.352, 3037.000
1167.440, 2918.000
1168.527, 2959.000
1169.614, 2976.000
1170.701, 3000.000
1171.788, 2962.000
1172.874, 3064.000
1173.961, 3012.000
1175.047, 3009.000
1176.133, 3046.000
1177.219, 3030.000
1178.305, 3038.000
1179.390, 3018.000
1180.476, 3009.000
1181.561, 3001.000
1182.646, 3014.186
1183.731, 3057.000
1184.816, 3039.000
1185.901, 3062.000
1186.985, 3042.000
1188.070, 3090.000
1189.154, 3028.000
1190.238, 3043.000
1191.322, 3097.000
1192.406, 3065.000
1193.489, 3142.000
1194.573, 3085.000
1195.656, 3188.000
1196.739, 3165.000
1197.822, 3160.000
1198.905, 3159.000
1199.988, 3159.000
1201.070, 3141.000
1202.153, 3124.000
1203.235, 3159.000
1204.317, 3169.000
1205.399, 3186.000
1206.481, 3141.000
1207.562, 3176.000
1208.644, 3199.000
1209.725, 3249.000
1210.806, 3204.000
1211.887, 3140.000
1212.968, 3192.000
1214.049, 3226.000
1215.129, 3212.000
1216.209, 3236.000
1217.290, 3247.000
1218.370, 3210.000
1219.450, 3283.000
1220.529, 3311.000
1221.609, 3207.000
1222.688, 3294.000
1223.768, 3372.000
1224.847, 3291.000
1225.926, 3298.000
1227.005, 3329.000
1228.083, 3276.000
1229.162, 3361.000
1230.240, 3311.000
1231.318, 3274.000
1232.396, 3345.000
1233.474, 3401.000
1234.552, 3285.000
1235.629, 3368.000
1236.707, 3361.000
1237.784, 3406.000
1238.861, 3420.645
1239.938, 3440.000
1241.015, 3444.000
1242.092, 3436.772
1243.168, 3403.000
1244.244, 3419.000
1245.321, 3404.000
1246.397, 3420.000
1247.473, 3461.000
1248.548, 3376.000
1249.624, 3438.000
1250.699, 3445.000
1251.775, 3413.000
1252.850, 3493.000
1253.925, 3457.000
1254.999, 3472.000
1256.074, 3455.000
1257.148, 3468.385
1258.223, 3508.000
1259.297, 3516.000
1260.371, 3508.000
1261.445, 3553.000
1262.519, 3535.000
1263.592, 3599.000
1264.666, 3569.000
1265.739, 3657.000
1266.812, 3591.000
1267.885, 3513.000
1268.958, 3613.000
1270.030, 3596.000
1271.103, 3580.000
1272.175, 3607.000
1273.247, 3648.000
1274.319, 3667.000
1275.391, 3645.000
1276.463, 3625.000
1277.535, 3638.000
1278.606, 3636.000
1279.677, 3634.000
1280.748, 3617.000
1281.819, 3621.000
1282.890, 3697.000
1283.961, 3721.000
1285.031, 3693.000
1286.102, 3755.000
1287.172, 3714.000
1288.242, 3644.000
1289.312, 3699.000
1290.381, 3762.000
1291.451, 3815.000
1292.520, 3827.170
1293.590, 3723.000
1294.659, 3831.000
1295.728, 3765.000
1296.797, 3749.000
1297.865, 3791.000
1298.934, 3774.000
1300.002, 3805.000
1301.070, 3861.000
1302.138, 3810.000
1303.206, 3825.000
1304.274, 3840.000
1305.341, 3899.000
1306.409, 3835.000
1307.476, 3892.000
1308.543, 3858.000
1309.610, 3835.000
1310.677, 3880.000
1311.744, 3919.000
1312.810, 3928.000
1313.877, 3871.000
1314.943, 3869.000
1316.009, 3956.000
1317.075, 3876.000
1318.140, 3958.000
1319.206, 3939.000
1320.272, 3949.000
1321.337, 3999.000
1322.402, 3966.000
1323.467, 4024.000
1324.532, 3997.000
1325.596, 3923.000
1326.661, 4048.000
1327.725, 3980.000
1328.790, 3983.000
1329.854, 4048.000
1330.918, 4049.000
1331.981, 4053.000
1333.045, 4008.000
1334.108, 4123.000
1335.172, 4048.000
1336.235, 4066.000
1337.298, 4116.000
1338.361, 4072.000
1339.423, 4085.000
1340.486, 4146.000
1341.548, 4092.000
1342.611, 4188.000
1343.673, 4101.000
1344.735, 4154.000
1345.796, 4135.000
1346.858, 4136.000
1347.919, 4136.000
1348.981, 4137.536
1350.042, 4217.000
1351.103, 4188.000
1352.164, 4155.000
1353.225, 4251.000
1354.285, 4245.000
1355.346, 4158.000
1356.406, 4258.000
1357.466, 4277.000
1358.526, 4293.000
1359.586, 4239.000
1360.645, 4319.000
1361.705, 4252.000
1362.764, 4238.000
1363.823, 4379.000
1364.882, 4309.000
1365.941, 4282.000
1367.000, 4311.000
1368.059, 4314.000
1369.117, 4345.000
1370.175, 4325.000
1371.233, 4371.000
1372.291, 4359.000
1373.349, 4395.000
1374.407, 4378.000
1375.464, 4417.054
1376.522, 4376.000
1377.579, 4452.000
1378.636, 4454.000
1379.693, 4390.000
1380.750, 4409.000
1381.806, 4388.000
1382.863, 4461.000
1383.919, 4396.000
1384.975, 4401.000
1386.031, 4458.000
1387.087, 4431.000
1388.143, 4527.000
1389.199, 4511.000
1390.254, 4517.000
1391.309, 4537.000
1392.364, 4529.000
1393.419, 4595.000
1394.474, 4556.000
1395.529, 4672.000
1396.583, 4483.000
1397.638, 4640.000
1398.692, 4575.000
1399.746, 4588.000
1400.800, 4600.000
1401.853, 4603.000
1402.907, 4607.000
1403.960, 4547.000
1405.014, 4750.000
1406.067, 4624.000
1407.120, 4696.000
1408.173, 4686.000
1409.225, 4701.000
1410.278, 4754.000
1411.330, 4712.000
1412.383, 4742.000
1413.435, 4713.000
1414.487, 4786.000
1415.538, 4707.000
1416.590, 4820.000
1417.641, 4725.000
1418.693, 4849.000
1419.744, 4795.000
1420.795, 4792.000
1421.846, 4845.000
1422.897, 4801.000
1423.947, 4779.000
1424.998, 4768.000
1426.048, 4879.000
1427.098, 4875.000
1428.148, 4932.000
1429.198, 4916.000
1430.247, 4844.000
1431.297, 4997.000
1432.346, 5068.000
1433.396, 4985.000
1434.445, 5149.000
1435.494, 5267.000
1436.542, 5174.000
1437.591, 5065.000
1438.639, 4994.000
1439.688, 5007.000
1440.736, 5040.000
1441.784, 5069.000
1442.832, 5010.000
1443.880, 5101.000
1444.927, 5023.000
1445.975, 5063.000
1447.022, 5097.000
1448.069, 5052.000
1449.116, 5114.000
1450.163, 5123.000
1451.209, 5037.000
1452.256, 5202.000
1453.302, 5113.000
1454.348, 5189.000
1455.394, 5143.000
1456.440, 5055.000
1457.486, 5169.000
1458.532, 5134.000
1459.577, 5173.000
1460.623, 5209.000
1461.668, 5164.000
1462.713, 5200.551
1463.758, 5263.000
1464.802, 5228.000
1465.847, 5230.000
1466.891, 5278.000
1467.936, 5346.000
1468.980, 5252.000
1470.024, 5378.000
1471.067, 5348.000
1472.111, 5263.000
1473.155, 5305.000
1474.198, 5370.000
1475.241, 5299.000
1476.284, 5438.000
1477.327, 5361.000
1478.370, 5420.000
1479.413, 5284.000
1480.455, 5431.000
1481.497, 5451.000
1482.540, 5379.000
1483.582, 5457.000
1484.624, 5482.000
1485.665, 5387.000
1486.707, 5597.000
1487.748, 5490.000
1488.790, 5418.000
1489.831, 5598.000
1490.872, 5543.000
1491.912, 5539.000
1492.953, 5599.000
1493.994, 5579.000
1495.034, 5503.000
1496.074, 5651.000
1497.114, 5574.000
1498.154, 5597.000
1499.194, 5736.000
1500.234, 5593.000
1501.273, 5599.000
1502.313, 5682.000
1503.352, 5616.000
1504.391, 5658.000
1505.430, 5686.000
1506.468, 5655.222
1507.507, 5764.000
1508.545, 5651.000
1509.584, 5759.000
1510.622, 5797.000
1511.660, 5804.000
1512.698, 5761.000
1513.735, 5827.000
1514.773, 5798.000
1515.810, 5782.000
1516.848, 5818.000
1517.885, 5855.000
1518.922, 5847.000
1519.958, 5863.000
1520.995, 5852.000
1522.032, 5897.000
1523.068, 5962.000
1524.104, 5983.000
1525.140, 6002.000
1526.176, 6033.000
1527.212, 5952.000
1528.248, 6068.000
1529.283, 5934.000
1530.318, 6045.000
1531.353, 6084.000
1532.389, 6048.000
1533.423, 6155.000
1534.458, 6095.000
1535.493, 6133.000
1536.527, 6145.000
1537.561, 6069.000
1538.596, 6081.000
1539.630, 6138.000
1540.663, 6119.000
1541.697, 6206.000
1542.731, 6207.000
1543.764, 6153.000
1544.797, 6093.000
1545.830, 6251.000
1546.863, 6277.000
1547.896, 6146.000
1548.929, 6283.000
1549.961, 6310.000
1550.994, 6290.000
1552.026, 6227.000
1553.058, 6305.000
1554.090, 6259.000
1555.121, 6331.000
1556.153, 6360.000
1557.185, 6280.000
1558.216, 6340.000
1559.247, 6328.000
1560.278, 6454.000
1561.309, 6304.000
1562.340, 6324.000
1563.370, 6256.000
1564.401, 6401.000
1565.431, 6482.000
1566.461, 6468.000
1567.491, 6455.000
1568.521, 6406.000
1569.551, 6384.000
1570.580, 6464.000
1571.610, 6531.000
1572.639, 6445.000
1573.668, 6540.000
1574.697, 6549.000
1575.726, 6413.000
1576.754, 6553.000
1577.783, 6632.000
##END=



