##NAMES=Calcite
##RRUFFID=R050009
##IDEAL CHEMISTRY=CaCO_3_
##LOCALITY=Amparo mine, Rodeo, Durango, Mexico
##OWNER=RRUFF
##SOURCE=Eugene Schlepp
##DESCRIPTION=Colorless cleavage rhomb
##STATUS=The identification of this mineral has been confirmed by X-ray diffraction and chemical analysis
##URL=rruff.info/R050009
##MEASURED CHEMISTRY=Ca_1.00_CO_3_; trace amounts of Mn
##PIN_ID=M00141
##ORIENTATION=Laser parallel to a* (1 0 0). Fiducial mark perpendicular to laser is parallel to -c [0 0 -1]
74.61800, 5455.000
75.86200, 5562.000
77.10600, 5595.000
78.34900, 5677.000
79.59300, 5657.000
80.83600, 5520.000
82.07900, 5560.000
83.32100, 5561.000
84.56400, 5514.000
85.80600, 5569.000
87.04800, 5640.000
88.29000, 5604.000
89.53200, 5695.000
90.77400, 5615.000
92.01500, 5697.000
93.25700, 5708.000
94.49800, 5678.000
95.73900, 5616.000
96.98000, 5662.000
98.22000, 5658.000
99.46100, 5790.000
100.7010, 5684.000
101.9410, 5765.000
103.1810, 5742.000
104.4210, 5668.000
105.6600, 5683.000
106.9000, 5764.000
108.1390, 5686.000
109.3780, 5761.000
110.6170, 5927.000
111.8550, 5771.000
113.0940, 5933.000
114.3320, 5923.000
115.5700, 6115.000
116.8080, 6152.000
118.0460, 6161.000
119.2830, 6145.000
120.5210, 5959.000
121.7580, 5984.000
122.9950, 5915.000
124.2320, 5952.000
125.4690, 6058.000
126.7050, 6041.000
127.9410, 6046.000
129.1780, 6080.000
130.4140, 6137.000
131.6490, 6160.000
132.8850, 6053.000
134.1200, 6159.000
135.3560, 6078.000
136.5910, 6250.000
137.8260, 6069.000
139.0610, 6045.000
140.2950, 6270.000
141.5290, 6236.000
142.7640, 6179.000
143.9980, 6200.000
145.2320, 6128.000
146.4650, 6245.000
147.6990, 6373.000
148.9320, 6225.000
150.1650, 6563.000
151.3980, 6560.000
152.6310, 6586.000
153.8640, 6728.000
155.0960, 6802.000
156.3280, 6805.000
157.5600, 6716.000
158.7920, 6626.000
160.0240, 6620.000
161.2560, 6459.000
162.4870, 6532.000
163.7180, 6517.000
164.9490, 6407.000
166.1800, 6405.000
167.4110, 6333.000
168.6410, 6437.000
169.8720, 6369.000
171.1020, 6423.000
172.3320, 6367.000
173.5620, 6428.000
174.7910, 6488.000
176.0210, 6500.000
177.2500, 6327.000
178.4790, 6454.000
179.7080, 6481.000
180.9370, 6490.000
182.1650, 6616.000
183.3940, 6552.000
184.6220, 6618.000
185.8500, 6584.000
187.0780, 6643.000
188.3050, 6660.000
189.5330, 6665.000
190.7600, 6560.000
191.9870, 6589.000
193.2140, 6608.000
194.4410, 6639.000
195.6680, 6639.000
196.8940, 6751.000
198.1200, 6719.000
199.3470, 6762.000
200.5720, 6693.000
201.7980, 6803.000
203.0240, 6748.000
204.2490, 6756.000
205.4740, 6770.000
206.6990, 6843.000
207.9240, 6784.000
209.1490, 6861.000
210.3740, 6822.000
211.5980, 6720.000
212.8220, 6800.000
214.0460, 6842.000
215.2700, 6783.000
216.4930, 6935.000
217.7170, 6894.000
218.9400, 6860.000
220.1630, 6890.000
221.3860, 6845.000
222.6090, 6970.000
223.8320, 6971.000
225.0540, 7027.000
226.2760, 6883.000
227.4980, 7004.000
228.7200, 6926.000
229.9420, 6936.000
231.1630, 7024.000
232.3850, 6996.000
233.6060, 7091.000
234.8270, 6958.000
236.0480, 6920.000
237.2690, 7034.000
238.4890, 7118.000
239.7090, 7161.000
240.9290, 7169.000
242.1490, 7082.000
243.3690, 7136.000
244.5890, 7264.000
245.8080, 7125.000
247.0270, 7192.000
248.2470, 7097.000
249.4650, 7121.000
250.6840, 7228.000
251.9030, 7176.000
253.1210, 7238.000
254.3390, 7311.000
255.5570, 7316.000
256.7750, 7256.000
257.9930, 7346.000
259.2100, 7268.000
260.4280, 7281.000
261.6450, 7419.000
262.8620, 7329.000
264.0790, 7382.000
265.2950, 7337.000
266.5120, 7348.000
267.7280, 7337.000
268.9440, 7469.000
270.1600, 7558.000
271.3760, 7609.713
272.5920, 7546.000
273.8070, 7768.000
275.0220, 7745.000
276.2370, 7841.000
277.4520, 7988.000
278.6670, 8147.000
279.8820, 8182.000
281.0960, 8436.000
282.3100, 8327.000
283.5240, 8285.000
284.7380, 8453.000
285.9520, 8174.000
287.1650, 8046.000
288.3780, 7849.000
289.5920, 7720.000
290.8050, 7829.000
292.0170, 7572.000
293.2300, 7734.000
294.4430, 7686.000
295.6550, 7765.000
296.8670, 7649.000
298.0790, 7710.000
299.2910, 7704.000
300.5020, 7553.000
301.7140, 7598.000
302.9250, 7612.000
304.1360, 7659.000
305.3470, 7697.000
306.5580, 7645.000
307.7680, 7699.000
308.9780, 7757.000
310.1890, 7665.000
311.3990, 7760.000
312.6090, 7775.000
313.8180, 7790.000
315.0280, 7675.000
316.2370, 7782.000
317.4460, 7791.000
318.6550, 7697.000
319.8640, 7744.000
321.0730, 7830.000
322.2810, 7782.000
323.4890, 7858.000
324.6980, 7842.000
325.9060, 7839.000
327.1130, 7837.000
328.3210, 7824.863
329.5280, 7984.000
330.7360, 7828.000
331.9430, 7878.000
333.1500, 7928.000
334.3560, 7850.000
335.5630, 8017.000
336.7690, 7935.000
337.9760, 7924.000
339.1820, 8016.000
340.3870, 7940.000
341.5930, 7932.000
342.7990, 7909.000
344.0040, 7987.000
345.2090, 8005.000
346.4140, 8073.000
347.6190, 8020.000
348.8240, 8012.000
350.0280, 8056.000
351.2330, 8022.000
352.4370, 8173.000
353.6410, 7996.000
354.8440, 8099.000
356.0480, 8117.000
357.2520, 8055.000
358.4550, 8199.000
359.6580, 8067.000
360.8610, 8112.000
362.0640, 8146.000
363.2660, 8118.262
364.4690, 8155.000
365.6710, 8190.000
366.8730, 8179.000
368.0750, 8289.000
369.2770, 8188.000
370.4780, 8370.000
371.6800, 8305.000
372.8810, 8212.000
374.0820, 8244.000
375.2830, 8225.000
376.4830, 8266.544
377.6840, 8320.000
378.8840, 8359.000
380.0840, 8384.095
381.2840, 8369.000
382.4840, 8411.000
383.6840, 8413.000
384.8830, 8396.327
386.0830, 8415.633
387.2820, 8358.000
388.4810, 8427.000
389.6800, 8385.000
390.8780, 8406.000
392.0770, 8435.000
393.2750, 8395.000
394.4730, 8435.858
395.6710, 8484.000
396.8690, 8505.000
398.0660, 8523.000
399.2640, 8622.000
400.4610, 8455.000
401.6580, 8613.000
402.8550, 8477.000
404.0520, 8639.000
405.2490, 8579.000
406.4450, 8619.000
407.6410, 8554.000
408.8370, 8622.000
410.0330, 8717.000
411.2290, 8617.000
412.4240, 8736.000
413.6200, 8684.000
414.8150, 8791.000
416.0100, 8752.000
417.2050, 8671.000
418.4000, 8652.000
419.5940, 8635.000
420.7880, 8752.000
421.9830, 8656.000
423.1770, 8849.000
424.3700, 8848.000
425.5640, 8773.000
426.7580, 8672.000
427.9510, 8714.000
429.1440, 8812.000
430.3370, 8846.000
431.5300, 8769.000
432.7220, 8790.000
433.9150, 8838.000
435.1070, 8865.000
436.2990, 8887.000
437.4910, 8853.000
438.6830, 8964.000
439.8750, 8950.000
441.0660, 8812.000
442.2570, 8845.000
443.4480, 8875.000
444.6390, 9045.000
445.8300, 8973.000
447.0210, 9026.000
448.2110, 8941.000
449.4010, 9039.000
450.5910, 9152.000
451.7810, 9121.000
452.9710, 9161.000
454.1610, 9177.667
455.3500, 9101.000
456.5390, 9180.000
457.7280, 9122.000
458.9170, 9119.000
460.1060, 9008.000
461.2940, 9040.000
462.4830, 9271.000
463.6710, 9235.000
464.8590, 9155.000
466.0470, 9183.000
467.2350, 9135.000
468.4220, 9254.000
469.6090, 9147.000
470.7970, 9301.000
471.9840, 9190.000
473.1700, 9320.000
474.3570, 9253.000
475.5440, 9381.000
476.7300, 9281.000
477.9160, 9313.000
479.1020, 9331.000
480.2880, 9255.000
481.4740, 9421.000
482.6590, 9566.000
483.8440, 9289.000
485.0300, 9425.000
486.2140, 9537.000
487.3990, 9347.000
488.5840, 9570.000
489.7680, 9503.000
490.9530, 9369.000
492.1370, 9518.000
493.3210, 9564.000
494.5040, 9475.000
495.6880, 9644.000
496.8720, 9581.000
498.0550, 9640.000
499.2380, 9508.000
500.4210, 9544.000
501.6040, 9635.000
502.7860, 9570.000
503.9690, 9602.000
505.1510, 9693.000
506.3330, 9630.000
507.5150, 9638.000
508.6970, 9601.000
509.8780, 9675.000
511.0600, 9692.000
512.2410, 9747.000
513.4220, 9737.000
514.6030, 9739.000
515.7840, 9720.000
516.9640, 9643.000
518.1440, 9797.000
519.3250, 9684.000
520.5050, 9730.000
521.6850, 9682.000
522.8640, 9841.000
524.0440, 9844.000
525.2230, 9805.000
526.4020, 9850.000
527.5820, 9825.000
528.7600, 9819.000
529.9390, 9817.000
531.1180, 9803.000
532.2960, 9918.000
533.4740, 9923.000
534.6520, 9945.000
535.8300, 10005.00
537.0080, 9976.000
538.1850, 9920.000
539.3630, 10029.00
540.5400, 10036.00
541.7170, 9977.000
542.8940, 9917.000
544.0700, 9990.000
545.2470, 10113.00
546.4230, 10218.00
547.5990, 9992.000
548.7750, 10108.00
549.9510, 9951.000
551.1270, 10093.00
552.3020, 9983.000
553.4780, 10150.00
554.6530, 10220.00
555.8280, 10159.00
557.0030, 10262.00
558.1770, 10106.00
559.3520, 10221.00
560.5260, 10287.00
561.7000, 10138.00
562.8740, 10244.00
564.0480, 10186.00
565.2220, 10356.00
566.3950, 10275.00
567.5680, 10204.00
568.7420, 10198.00
569.9150, 10284.00
571.0870, 10427.00
572.2600, 10363.00
573.4320, 10388.00
574.6050, 10298.00
575.7770, 10386.00
576.9490, 10404.00
578.1210, 10265.00
579.2920, 10407.00
580.4640, 10476.00
581.6350, 10426.00
582.8060, 10403.00
583.9770, 10522.00
585.1480, 10459.00
586.3190, 10562.00
587.4890, 10481.00
588.6590, 10730.00
589.8290, 10472.00
590.9990, 10509.00
592.1690, 10613.00
593.3390, 10467.00
594.5080, 10714.00
595.6770, 10510.00
596.8470, 10558.00
598.0160, 10529.00
599.1840, 10603.00
600.3530, 10669.00
601.5210, 10649.00
602.6900, 10613.00
603.8580, 10660.24
605.0260, 10737.00
606.1930, 10707.00
607.3610, 10742.00
608.5280, 10776.00
609.6960, 10753.00
610.8630, 10676.00
612.0300, 10660.00
613.1970, 10911.00
614.3630, 10736.00
615.5300, 10809.00
616.6960, 10844.00
617.8620, 10800.00
619.0280, 10768.00
620.1940, 10805.00
621.3590, 10853.00
622.5250, 10896.00
623.6900, 11014.00
624.8550, 10935.00
626.0200, 10948.00
627.1850, 10809.00
628.3490, 10986.00
629.5140, 10963.00
630.6780, 11010.00
631.8420, 11052.70
633.0060, 10961.00
634.1700, 11090.00
635.3330, 11105.00
636.4970, 11160.00
637.6600, 11062.00
638.8230, 11036.00
639.9860, 10978.00
641.1490, 11042.00
642.3110, 11054.00
643.4740, 11116.00
644.6360, 11114.00
645.7980, 11142.00
646.9600, 11164.00
648.1220, 11185.00
649.2840, 11306.00
650.4450, 11178.00
651.6060, 11319.00
652.7670, 11176.00
653.9280, 11383.00
655.0890, 11176.00
656.2500, 11179.00
657.4100, 11297.00
658.5700, 11276.00
659.7300, 11385.00
660.8900, 11305.00
662.0500, 11303.00
663.2100, 11379.00
664.3690, 11304.00
665.5280, 11360.00
666.6880, 11373.00
667.8460, 11435.00
669.0050, 11427.00
670.1640, 11334.00
671.3220, 11503.00
672.4810, 11368.00
673.6390, 11516.00
674.7970, 11389.00
675.9540, 11473.00
677.1120, 11421.00
678.2690, 11425.51
679.4270, 11604.00
680.5840, 11479.00
681.7410, 11560.00
682.8980, 11645.00
684.0540, 11667.00
685.2110, 11690.00
686.3670, 11721.31
687.5230, 11715.24
688.6790, 11704.00
689.8350, 11746.00
690.9900, 11652.00
692.1460, 11753.00
693.3010, 11949.00
694.4560, 11762.00
695.6110, 11841.00
696.7660, 11773.00
697.9210, 11819.00
699.0750, 11886.00
700.2290, 11854.00
701.3840, 11827.00
702.5370, 11789.00
703.6910, 11862.00
704.8450, 11834.72
705.9980, 11931.00
707.1520, 11880.00
708.3050, 12017.00
709.4580, 12098.00
710.6110, 12132.00
711.7630, 12372.00
712.9160, 12284.63
714.0680, 12403.00
715.2200, 12232.00
716.3720, 12041.00
717.5240, 12070.00
718.6760, 12109.00
719.8270, 12011.00
720.9780, 11969.00
722.1300, 12047.00
723.2810, 11997.00
724.4310, 11935.00
725.5820, 12024.45
726.7330, 12007.97
727.8830, 12118.00
729.0330, 12129.00
730.1830, 12115.00
731.3330, 12253.00
732.4830, 12213.00
733.6320, 12176.00
734.7810, 12110.00
735.9310, 12152.01
737.0800, 12142.48
738.2290, 12218.00
739.3770, 12234.00
740.5260, 12225.00
741.6740, 12344.00
742.8220, 12144.00
743.9700, 12278.00
745.1180, 12293.00
746.2660, 12398.00
747.4130, 12337.00
748.5610, 12372.00
749.7080, 12454.00
750.8550, 12310.00
752.0020, 12405.00
753.1490, 12442.00
754.2950, 12465.00
755.4420, 12471.42
756.5880, 12387.00
757.7340, 12432.00
758.8800, 12423.00
760.0250, 12414.00
761.1710, 12545.00
762.3160, 12511.00
763.4620, 12506.00
764.6070, 12722.00
765.7520, 12472.00
766.8960, 12668.00
768.0410, 12564.00
769.1850, 12603.00
770.3300, 12592.00
771.4740, 12575.00
772.6180, 12611.32
773.7610, 12635.86
774.9050, 12653.00
776.0480, 12691.00
777.1920, 12702.00
778.3350, 12641.00
779.4780, 12722.00
780.6200, 12716.00
781.7630, 12588.00
782.9060, 12714.00
784.0480, 12772.00
785.1900, 12750.00
786.3320, 12829.00
787.4740, 12898.00
788.6150, 12814.00
789.7570, 12862.00
790.8980, 12899.00
792.0390, 12981.00
793.1800, 12940.00
794.3210, 12843.00
795.4620, 12843.00
796.6020, 12876.00
797.7420, 12853.45
798.8830, 12964.00
800.0230, 12934.00
801.1620, 13027.00
802.3020, 13164.00
803.4420, 12961.00
804.5810, 13063.00
805.7200, 12960.00
806.8590, 13095.00
807.9980, 12957.00
809.1370, 13155.00
810.2750, 13097.00
811.4140, 13067.00
812.5520, 13148.00
813.6900, 13058.00
814.8280, 13203.00
815.9650, 13222.00
817.1030, 13204.00
818.2400, 13229.00
819.3780, 13232.45
820.5150, 13300.00
821.6520, 13239.00
822.7880, 13290.00
823.9250, 13269.00
825.0610, 13203.00
826.1980, 13346.00
827.3340, 13331.00
828.4700, 13247.00
829.6050, 13360.00
830.7410, 13381.00
831.8760, 13329.00
833.0120, 13494.00
834.1470, 13470.00
835.2820, 13465.00
836.4160, 13576.00
837.5510, 13462.00
838.6860, 13501.00
839.8200, 13446.00
840.9540, 13401.00
842.0880, 13443.00
843.2220, 13532.00
844.3550, 13629.00
845.4890, 13701.00
846.6220, 13697.00
847.7550, 13696.00
848.8880, 13686.00
850.0210, 13578.00
851.1540, 13654.00
852.2860, 13619.25
853.4190, 13681.00
854.5510, 13645.00
855.6830, 13674.00
856.8150, 13701.00
857.9460, 13664.00
859.0780, 13832.00
860.2090, 13775.00
861.3410, 13638.00
862.4720, 13940.00
863.6020, 13756.00
864.7330, 13816.00
865.8640, 13829.00
866.9940, 13919.00
868.1240, 13962.00
869.2540, 14020.00
870.3840, 13904.00
871.5140, 13882.00
872.6440, 13910.00
873.7730, 13925.00
874.9020, 14025.00
876.0320, 14005.77
877.1600, 13827.00
878.2890, 14039.00
879.4180, 13871.00
880.5460, 13929.00
881.6750, 13998.00
882.8030, 13964.00
883.9310, 13872.00
885.0590, 13971.00
886.1860, 14082.00
887.3140, 13836.00
888.4410, 14075.00
889.5680, 13937.00
890.6950, 14022.00
891.8220, 14087.00
892.9490, 14017.00
894.0750, 14147.00
895.2020, 14113.00
896.3280, 14096.00
897.4540, 14074.00
898.5800, 14237.00
899.7050, 14308.00
900.8310, 14247.00
901.9560, 14217.00
903.0820, 14125.00
904.2070, 14306.00
905.3320, 14205.00
906.4560, 14433.00
907.5810, 14207.00
908.7050, 14294.00
909.8300, 14331.00
910.9540, 14350.00
912.0780, 14622.00
913.2010, 14336.00
914.3250, 14430.00
915.4480, 14598.00
916.5720, 14445.00
917.6950, 14738.00
918.8180, 14560.00
919.9410, 14487.00
921.0630, 14518.00
922.1860, 14609.00
923.3080, 14445.00
924.4300, 14655.00
925.5520, 14496.00
926.6740, 14608.00
927.7960, 14581.00
928.9170, 14568.00
930.0390, 14705.00
931.1600, 14561.00
932.2810, 14670.00
933.4020, 14889.00
934.5230, 14651.00
935.6430, 14731.00
936.7640, 14616.00
937.8840, 14640.00
939.0040, 14856.00
940.1240, 14827.00
941.2440, 14812.00
942.3630, 14666.00
943.4830, 14821.00
944.6020, 14871.00
945.7210, 14821.00
946.8400, 14912.00
947.9590, 14890.00
949.0770, 15030.00
950.1960, 15053.52
951.3140, 15242.00
952.4320, 15104.00
953.5500, 15162.00
954.6680, 15075.00
955.7860, 15079.00
956.9030, 14996.00
958.0210, 14977.00
959.1380, 15108.00
960.2550, 15027.00
961.3720, 15207.00
962.4890, 15093.00
963.6050, 15134.00
964.7220, 15125.00
965.8380, 15107.00
966.9540, 15155.00
968.0700, 15092.00
969.1860, 15237.00
970.3010, 15200.00
971.4170, 15163.00
972.5320, 15139.00
973.6470, 15132.00
974.7620, 15250.00
975.8770, 15187.00
976.9910, 15214.00
978.1060, 15444.00
979.2200, 15220.00
980.3340, 15518.00
981.4480, 15263.00
982.5620, 15462.00
983.6760, 15423.00
984.7890, 15224.00
985.9030, 15616.00
987.0160, 15396.00
988.1290, 15612.00
989.2420, 15449.00
990.3550, 15718.00
991.4670, 15434.00
992.5800, 15589.00
993.6920, 15510.00
994.8040, 15429.00
995.9160, 15814.00
997.0280, 15606.00
998.1390, 15472.00
999.2510, 15755.00
1000.362, 15553.00
1001.473, 15718.00
1002.584, 15657.00
1003.695, 15789.00
1004.805, 15548.00
1005.916, 15763.00
1007.026, 15719.00
1008.136, 15612.00
1009.246, 15821.00
1010.356, 15650.00
1011.466, 15750.00
1012.576, 15884.00
1013.685, 15859.00
1014.794, 15798.00
1015.903, 15907.00
1017.012, 15916.00
1018.121, 15849.00
1019.229, 15851.00
1020.338, 15779.00
1021.446, 15934.00
1022.554, 16122.00
1023.662, 15878.00
1024.770, 16063.00
1025.878, 15888.00
1026.985, 16179.00
1028.092, 15984.00
1029.200, 16135.00
1030.307, 16062.00
1031.413, 16121.00
1032.520, 16274.00
1033.627, 16112.00
1034.733, 16165.00
1035.839, 16125.00
1036.945, 16211.00
1038.051, 16169.47
1039.157, 16259.00
1040.262, 16149.00
1041.368, 16222.00
1042.473, 16288.00
1043.578, 16314.00
1044.683, 16262.00
1045.788, 16401.00
1046.893, 16298.00
1047.997, 16496.00
1049.101, 16582.00
1050.205, 16154.00
1051.309, 16456.00
1052.413, 16445.00
1053.517, 16327.00
1054.621, 16420.00
1055.724, 16395.00
1056.827, 16379.00
1057.930, 16410.00
1059.033, 16548.00
1060.136, 16432.00
1061.238, 16502.00
1062.341, 16545.00
1063.443, 16487.00
1064.545, 16789.00
1065.647, 16657.00
1066.749, 16850.00
1067.850, 16778.00
1068.952, 16789.00
1070.053, 16808.00
1071.154, 16714.00
1072.255, 16643.00
1073.356, 16773.00
1074.457, 16767.00
1075.557, 17002.00
1076.658, 16930.00
1077.758, 17260.00
1078.858, 17132.00
1079.958, 17400.00
1081.057, 17609.00
1082.157, 18528.00
1083.256, 20322.00
1084.356, 23941.00
1085.455, 29903.00
1086.554, 33303.00
1087.653, 28496.00
1088.751, 22975.00
1089.850, 19330.00
1090.948, 18150.00
1092.046, 17510.00
1093.144, 17616.00
1094.242, 17194.00
1095.340, 17063.00
1096.437, 17079.00
1097.534, 17156.00
1098.632, 17279.00
1099.729, 17149.00
1100.826, 17242.00
1101.922, 17210.00
1103.019, 17230.00
1104.115, 17158.00
1105.212, 17143.00
1106.308, 17246.00
1107.404, 17145.00
1108.499, 17221.00
1109.595, 17301.00
1110.691, 17394.00
1111.786, 17298.00
1112.881, 17452.00
1113.976, 17420.00
1115.071, 17278.00
1116.166, 17397.00
1117.260, 17488.00
1118.355, 17329.00
1119.449, 17370.00
1120.543, 17365.00
1121.637, 17377.00
1122.731, 17468.00
1123.824, 17426.00
1124.918, 17498.00
1126.011, 17489.00
1127.104, 17537.00
1128.197, 17403.00
1129.290, 17664.00
1130.382, 17501.00
1131.475, 17491.00
1132.567, 17832.00
1133.659, 17505.00
1134.751, 17541.00
1135.843, 17798.00
1136.935, 17668.00
1138.027, 17691.00
1139.118, 17629.00
1140.209, 17721.00
1141.300, 17823.00
1142.391, 17678.00
1143.482, 17642.00
1144.573, 17747.00
1145.663, 17879.00
1146.754, 17788.00
1147.844, 17824.00
1148.934, 17792.00
1150.024, 17818.00
1151.113, 17816.00
1152.203, 17846.00
1153.292, 17863.00
1154.381, 17714.00
1155.470, 17884.00
1156.559, 17831.00
1157.648, 17852.00
1158.737, 18082.00
1159.825, 17856.00
1160.913, 17932.00
1162.001, 18096.00
1163.089, 17978.00
1164.177, 18103.00
1165.265, 18004.00
1166.352, 18104.00
1167.440, 18017.00
1168.527, 18161.00
1169.614, 18239.00
1170.701, 18104.00
1171.788, 18047.00
1172.874, 18191.00
1173.961, 18224.00
1175.047, 18224.00
1176.133, 18240.00
1177.219, 18263.56
1178.305, 18225.00
1179.390, 18304.00
1180.476, 18410.00
1181.561, 18432.00
1182.646, 18361.00
1183.731, 18203.00
1184.816, 18605.00
1185.901, 18404.00
1186.985, 18192.00
1188.070, 18570.00
1189.154, 18426.00
1190.238, 18756.00
1191.322, 18624.00
1192.406, 18589.00
1193.489, 18465.00
1194.573, 18587.00
1195.656, 18582.00
1196.739, 18456.00
1197.822, 18592.00
1198.905, 18648.00
1199.988, 18644.00
1201.070, 18819.00
1202.153, 18404.00
1203.235, 18645.00
1204.317, 18790.00
1205.399, 18576.00
1206.481, 18732.00
1207.562, 18734.00
1208.644, 18703.00
1209.725, 18676.00
1210.806, 19003.00
1211.887, 18636.00
1212.968, 18839.00
1214.049, 18827.00
1215.129, 18662.00
1216.209, 19030.00
1217.290, 18972.00
1218.370, 18940.00
1219.450, 18671.00
1220.529, 19038.00
1221.609, 19025.00
1222.688, 18984.00
1223.768, 19083.00
1224.847, 19045.00
1225.926, 19105.00
1227.005, 19096.00
1228.083, 19092.74
1229.162, 19257.00
1230.240, 19106.00
1231.318, 19117.00
1232.396, 19171.00
1233.474, 19021.00
1234.552, 19036.00
1235.629, 19220.00
1236.707, 19371.00
1237.784, 19230.00
1238.861, 19285.28
1239.938, 19385.00
1241.015, 19170.00
1242.092, 19148.00
1243.168, 19173.00
1244.244, 19266.00
1245.321, 19384.00
1246.397, 19246.00
1247.473, 19411.00
1248.548, 19328.00
1249.624, 19411.00
1250.699, 19419.00
1251.775, 19257.00
1252.850, 19353.00
1253.925, 19442.00
1254.999, 19512.00
1256.074, 19607.00
1257.148, 19527.00
1258.223, 19687.00
1259.297, 19635.00
1260.371, 19541.00
1261.445, 19541.00
1262.519, 19545.69
1263.592, 19577.83
1264.666, 19599.00
1265.739, 19614.01
1266.812, 19664.00
1267.885, 19635.00
1268.958, 19663.53
1270.030, 19643.00
1271.103, 19684.00
1272.175, 19820.00
1273.247, 19900.00
1274.319, 19867.00
1275.391, 19930.00
1276.463, 19834.00
1277.535, 19664.00
1278.606, 19819.00
1279.677, 20003.00
1280.748, 19882.00
1281.819, 19945.00
1282.890, 20023.00
1283.961, 19766.00
1285.031, 19992.00
1286.102, 20020.00
1287.172, 20076.00
1288.242, 19872.00
1289.312, 20050.00
1290.381, 19751.00
1291.451, 19915.00
1292.520, 20143.00
1293.590, 19871.00
1294.659, 20153.00
1295.728, 19946.00
1296.797, 19943.00
1297.865, 20129.00
1298.934, 20113.00
1300.002, 19977.00
1301.070, 20211.00
1302.138, 20141.00
1303.206, 20024.00
1304.274, 20183.00
1305.341, 20126.66
1306.409, 20143.00
1307.476, 20195.00
1308.543, 20368.00
1309.610, 20398.00
1310.677, 20551.00
1311.744, 20515.00
1312.810, 20326.00
1313.877, 20389.00
1314.943, 20405.00
1316.009, 20602.00
1317.075, 20390.00
1318.140, 20442.00
1319.206, 20630.00
1320.272, 20561.00
1321.337, 20645.00
1322.402, 20629.34
1323.467, 20597.00
1324.532, 20556.00
1325.596, 20615.00
1326.661, 20592.00
1327.725, 20669.00
1328.790, 20849.00
1329.854, 20800.00
1330.918, 20740.00
1331.981, 20796.00
1333.045, 20498.00
1334.108, 20750.00
1335.172, 20701.00
1336.235, 20733.00
1337.298, 20924.00
1338.361, 20748.00
1339.423, 21039.00
1340.486, 20758.00
1341.548, 20886.00
1342.611, 20917.00
1343.673, 20642.00
1344.735, 21070.00
1345.796, 20836.00
1346.858, 21054.00
1347.919, 21164.00
1348.981, 21053.00
1350.042, 21094.00
1351.103, 20953.00
1352.164, 21196.00
1353.225, 21129.00
1354.285, 21056.00
1355.346, 21283.00
1356.406, 21270.00
1357.466, 21240.00
1358.526, 21216.00
1359.586, 21176.00
1360.645, 21327.00
1361.705, 21174.00
1362.764, 21410.00
1363.823, 21151.00
1364.882, 21187.00
1365.941, 21407.00
1367.000, 21383.00
1368.059, 21363.00
1369.117, 21471.00
1370.175, 21177.00
1371.233, 21450.00
1372.291, 21615.00
1373.349, 21346.00
1374.407, 21432.00
1375.464, 21412.00
1376.522, 21688.00
1377.579, 21425.00
1378.636, 21497.00
1379.693, 21645.00
1380.750, 21463.00
1381.806, 21549.00
1382.863, 21556.00
1383.919, 21692.00
1384.975, 21442.00
1386.031, 21766.00
1387.087, 21801.00
1388.143, 21497.00
1389.199, 21779.00
1390.254, 21735.00
1391.309, 21638.00
1392.364, 21998.00
1393.419, 21712.00
1394.474, 21889.00
1395.529, 21783.00
1396.583, 21849.00
1397.638, 21984.00
1398.692, 21529.00
1399.746, 21896.00
1400.800, 21692.00
1401.853, 21837.00
1402.907, 22100.00
1403.960, 21874.00
1405.014, 22049.00
1406.067, 22035.00
1407.120, 21825.00
1408.173, 22071.00
1409.225, 21791.00
1410.278, 21959.00
1411.330, 21839.00
1412.383, 22075.00
1413.435, 22182.00
1414.487, 22018.00
1415.538, 22027.00
1416.590, 22223.00
1417.641, 21900.00
1418.693, 22135.00
1419.744, 22063.00
1420.795, 22454.00
1421.846, 22224.00
1422.897, 22188.00
1423.947, 22375.00
1424.998, 22256.00
1426.048, 22334.00
1427.098, 22173.00
1428.148, 22289.00
1429.198, 22481.00
1430.247, 22325.00
1431.297, 22466.00
1432.346, 22350.00
1433.396, 22550.00
1434.445, 22596.00
1435.494, 22554.00
1436.542, 22628.00
1437.591, 22533.00
1438.639, 22497.00
1439.688, 22460.00
1440.736, 22529.00
1441.784, 22731.00
1442.832, 22678.00
1443.880, 22611.00
1444.927, 22783.00
1445.975, 22602.00
1447.022, 22787.00
1448.069, 22530.00
1449.116, 22779.00
1450.163, 22931.00
1451.209, 22623.00
1452.256, 22938.00
1453.302, 22865.00
1454.348, 22824.00
1455.394, 22846.00
1456.440, 22771.00
1457.486, 22989.00
1458.532, 22955.00
1459.577, 23010.00
1460.623, 23035.00
1461.668, 22926.00
1462.713, 23098.00
1463.758, 22983.00
1464.802, 22954.00
1465.847, 23028.00
1466.891, 22963.00
1467.936, 23051.00
1468.980, 23035.00
1470.024, 23044.06
1471.067, 23062.00
1472.111, 23121.00
1473.155, 23185.00
1474.198, 23343.00
1475.241, 23075.00
1476.284, 23327.00
1477.327, 23166.00
1478.370, 23319.00
1479.413, 23219.00
1480.455, 23158.00
1481.497, 23584.00
1482.540, 23300.00
1483.582, 23441.00
1484.624, 23308.00
1485.665, 23339.00
1486.707, 23480.00
1487.748, 23270.00
1488.790, 23638.00
1489.831, 23601.00
1490.872, 23630.00
1491.912, 23744.00
1492.953, 23690.86
1493.994, 23613.00
1495.034, 23612.00
1496.074, 23758.00
1497.114, 23606.00
1498.154, 23447.00
1499.194, 23987.00
1500.234, 23760.00
1501.273, 23209.00
1502.313, 23452.00
1503.352, 23708.00
1504.391, 23995.00
1505.430, 23774.00
1506.468, 23838.00
1507.507, 23765.00
1508.545, 23929.00
1509.584, 23880.00
1510.622, 23800.00
1511.660, 23948.00
1512.698, 24055.00
1513.735, 24077.00
1514.773, 24236.00
1515.810, 24053.00
1516.848, 23937.00
1517.885, 24029.00
1518.922, 24075.00
1519.958, 24282.00
1520.995, 24057.00
1522.032, 24132.00
1523.068, 24276.00
1524.104, 24081.00
1525.140, 24304.00
1526.176, 24265.00
1527.212, 24141.00
1528.248, 24509.00
1529.283, 24272.00
1530.318, 24094.00
1531.353, 24331.00
1532.389, 24222.00
1533.423, 24504.00
1534.458, 24110.00
1535.493, 24525.00
1536.527, 24453.00
1537.561, 24289.00
1538.596, 24522.00
1539.630, 24688.00
1540.663, 24513.00
1541.697, 24550.00
1542.731, 24604.00
1543.764, 24497.00
1544.797, 24747.00
1545.830, 24531.00
1546.863, 24692.00
1547.896, 24549.00
1548.929, 24673.00
1549.961, 24667.00
1550.994, 24648.00
1552.026, 24763.00
1553.058, 24629.00
1554.090, 24564.00
1555.121, 24662.00
1556.153, 24790.00
1557.185, 24855.00
1558.216, 24788.00
1559.247, 25009.00
1560.278, 24703.00
1561.309, 24853.00
1562.340, 24908.00
1563.370, 24826.00
1564.401, 24855.00
1565.431, 24920.00
1566.461, 24838.00
1567.491, 25081.00
1568.521, 24832.00
1569.551, 24843.00
1570.580, 24988.00
1571.610, 25054.00
1572.639, 25155.00
1573.668, 24828.00
1574.697, 25063.00
1575.726, 24875.00
1576.754, 24927.00
1577.783, 25055.00
##END=



