##NAMES=Calcite
##RRUFFID=R050009
##IDEAL CHEMISTRY=CaCO_3_
##LOCALITY=Amparo mine, Rodeo, Durango, Mexico
##OWNER=RRUFF
##SOURCE=Eugene Schlepp
##DESCRIPTION=Colorless cleavage rhomb
##STATUS=The identification of this mineral has been confirmed by X-ray diffraction and chemical analysis
##URL=rruff.info/R050009
##MEASURED CHEMISTRY=Ca_1.00_CO_3_; trace amounts of Mn
##PIN_ID=L00060
##ORIENTATION=Laser parallel to c* (0 0 1). Fiducial mark perpendicular to laser is parallel to a [1 0 0]
74.61800, 1980.000
75.86200, 1944.000
77.10600, 1979.000
78.34900, 1999.000
79.59300, 1986.000
80.83600, 1957.000
82.07900, 1953.000
83.32100, 1969.000
84.56400, 1948.000
85.80600, 1999.000
87.04800, 1967.000
88.29000, 1962.000
89.53200, 1989.000
90.77400, 1983.000
92.01500, 1963.000
93.25700, 1998.000
94.49800, 1949.000
95.73900, 2007.000
96.98000, 1935.000
98.22000, 2017.000
99.46100, 2010.000
100.7010, 1981.000
101.9410, 1952.000
103.1810, 2019.000
104.4210, 2025.000
105.6600, 1996.000
106.9000, 1954.000
108.1390, 2041.000
109.3780, 2022.000
110.6170, 2051.000
111.8550, 2029.000
113.0940, 2070.000
114.3320, 2087.000
115.5700, 2135.000
116.8080, 2084.000
118.0460, 2104.000
119.2830, 2075.000
120.5210, 2113.000
121.7580, 2060.000
122.9950, 2100.000
124.2320, 2068.000
125.4690, 2094.000
126.7050, 2139.000
127.9410, 2118.000
129.1780, 2098.000
130.4140, 2163.000
131.6490, 2111.000
132.8850, 2117.000
134.1200, 2124.000
135.3560, 2136.000
136.5910, 2129.000
137.8260, 2166.000
139.0610, 2157.000
140.2950, 2160.000
141.5290, 2137.000
142.7640, 2195.000
143.9980, 2198.000
145.2320, 2276.000
146.4650, 2256.000
147.6990, 2289.000
148.9320, 2332.000
150.1650, 2377.000
151.3980, 2466.000
152.6310, 2648.000
153.8640, 2635.000
155.0960, 2764.000
156.3280, 2784.000
157.5600, 2735.000
158.7920, 2656.000
160.0240, 2517.000
161.2560, 2403.000
162.4870, 2387.000
163.7180, 2342.000
164.9490, 2301.000
166.1800, 2314.000
167.4110, 2249.000
168.6410, 2272.000
169.8720, 2257.000
171.1020, 2206.000
172.3320, 2265.000
173.5620, 2282.000
174.7910, 2276.000
176.0210, 2291.000
177.2500, 2242.000
178.4790, 2272.000
179.7080, 2295.000
180.9370, 2267.000
182.1650, 2310.000
183.3940, 2290.000
184.6220, 2273.000
185.8500, 2284.000
187.0780, 2235.000
188.3050, 2270.000
189.5330, 2343.000
190.7600, 2293.000
191.9870, 2223.000
193.2140, 2346.000
194.4410, 2211.000
195.6680, 2347.000
196.8940, 2333.000
198.1200, 2342.000
199.3470, 2359.000
200.5720, 2371.000
201.7980, 2325.000
203.0240, 2275.000
204.2490, 2239.000
205.4740, 2380.000
206.6990, 2348.000
207.9240, 2326.000
209.1490, 2406.000
210.3740, 2323.000
211.5980, 2370.000
212.8220, 2374.000
214.0460, 2395.000
215.2700, 2363.000
216.4930, 2419.000
217.7170, 2384.000
218.9400, 2387.607
220.1630, 2406.000
221.3860, 2377.000
222.6090, 2399.000
223.8320, 2405.000
225.0540, 2408.000
226.2760, 2419.000
227.4980, 2392.000
228.7200, 2412.000
229.9420, 2474.000
231.1630, 2312.000
232.3850, 2451.000
233.6060, 2412.000
234.8270, 2450.000
236.0480, 2505.000
237.2690, 2454.000
238.4890, 2461.000
239.7090, 2535.000
240.9290, 2432.000
242.1490, 2527.000
243.3690, 2476.000
244.5890, 2432.000
245.8080, 2457.000
247.0270, 2517.000
248.2470, 2492.000
249.4650, 2510.000
250.6840, 2548.000
251.9030, 2564.000
253.1210, 2579.209
254.3390, 2562.000
255.5570, 2584.000
256.7750, 2569.000
257.9930, 2533.000
259.2100, 2543.000
260.4280, 2589.000
261.6450, 2631.000
262.8620, 2572.000
264.0790, 2675.000
265.2950, 2605.000
266.5120, 2709.000
267.7280, 2750.000
268.9440, 2713.000
270.1600, 2766.000
271.3760, 2753.000
272.5920, 2807.000
273.8070, 2913.000
275.0220, 2895.000
276.2370, 3042.000
277.4520, 3131.000
278.6670, 3280.000
279.8820, 3450.000
281.0960, 3546.000
282.3100, 3701.000
283.5240, 3681.000
284.7380, 3590.000
285.9520, 3399.000
287.1650, 3206.000
288.3780, 3140.000
289.5920, 3020.000
290.8050, 2890.000
292.0170, 2895.000
293.2300, 2770.000
294.4430, 2810.000
295.6550, 2853.000
296.8670, 2774.000
298.0790, 2681.000
299.2910, 2700.000
300.5020, 2732.000
301.7140, 2665.000
302.9250, 2688.000
304.1360, 2652.000
305.3470, 2638.000
306.5580, 2651.000
307.7680, 2659.000
308.9780, 2676.000
310.1890, 2637.000
311.3990, 2665.000
312.6090, 2681.000
313.8180, 2685.000
315.0280, 2725.000
316.2370, 2711.000
317.4460, 2699.000
318.6550, 2640.000
319.8640, 2673.000
321.0730, 2701.000
322.2810, 2639.000
323.4890, 2758.000
324.6980, 2680.000
325.9060, 2737.000
327.1130, 2697.000
328.3210, 2664.000
329.5280, 2727.000
330.7360, 2720.000
331.9430, 2785.000
333.1500, 2740.000
334.3560, 2748.000
335.5630, 2750.000
336.7690, 2715.000
337.9760, 2716.000
339.1820, 2741.000
340.3870, 2798.000
341.5930, 2775.000
342.7990, 2808.000
344.0040, 2829.000
345.2090, 2819.000
346.4140, 2791.000
347.6190, 2782.000
348.8240, 2813.000
350.0280, 2780.000
351.2330, 2770.000
352.4370, 2842.000
353.6410, 2758.000
354.8440, 2785.000
356.0480, 2829.000
357.2520, 2776.000
358.4550, 2788.000
359.6580, 2821.000
360.8610, 2828.000
362.0640, 2831.728
363.2660, 2859.000
364.4690, 2822.000
365.6710, 2838.000
366.8730, 2825.000
368.0750, 2876.000
369.2770, 2877.000
370.4780, 2927.000
371.6800, 2857.000
372.8810, 2806.000
374.0820, 2878.000
375.2830, 2820.000
376.4830, 2924.000
377.6840, 2843.000
378.8840, 2937.000
380.0840, 2884.000
381.2840, 2884.000
382.4840, 2938.000
383.6840, 2880.000
384.8830, 2940.000
386.0830, 2907.000
387.2820, 2950.000
388.4810, 2952.000
389.6800, 2936.000
390.8780, 2962.000
392.0770, 3010.000
393.2750, 2996.029
394.4730, 3005.000
395.6710, 2982.000
396.8690, 2966.000
398.0660, 2914.000
399.2640, 2996.000
400.4610, 3080.000
401.6580, 2949.000
402.8550, 2925.000
404.0520, 2979.000
405.2490, 2935.000
406.4450, 2984.000
407.6410, 3008.000
408.8370, 3003.000
410.0330, 3076.000
411.2290, 3020.000
412.4240, 2940.000
413.6200, 3049.000
414.8150, 3014.000
416.0100, 3064.000
417.2050, 3042.000
418.4000, 3023.000
419.5940, 3035.000
420.7880, 3046.000
421.9830, 3028.715
423.1770, 3064.000
424.3700, 3023.000
425.5640, 3046.000
426.7580, 3081.000
427.9510, 3055.000
429.1440, 3110.000
430.3370, 3094.000
431.5300, 3072.000
432.7220, 3082.000
433.9150, 3069.000
435.1070, 3078.000
436.2990, 3049.000
437.4910, 3088.000
438.6830, 3072.000
439.8750, 3117.000
441.0660, 3064.000
442.2570, 3115.000
443.4480, 3154.000
444.6390, 3129.000
445.8300, 3107.000
447.0210, 3111.000
448.2110, 3165.000
449.4010, 3137.000
450.5910, 3098.000
451.7810, 3115.000
452.9710, 3201.000
454.1610, 3107.000
455.3500, 3155.000
456.5390, 3167.000
457.7280, 3157.000
458.9170, 3170.000
460.1060, 3183.000
461.2940, 3131.000
462.4830, 3224.000
463.6710, 3187.000
464.8590, 3185.000
466.0470, 3223.000
467.2350, 3176.000
468.4220, 3210.000
469.6090, 3199.000
470.7970, 3237.000
471.9840, 3260.000
473.1700, 3175.000
474.3570, 3284.000
475.5440, 3223.000
476.7300, 3286.000
477.9160, 3289.000
479.1020, 3281.000
480.2880, 3232.000
481.4740, 3275.000
482.6590, 3263.000
483.8440, 3254.000
485.0300, 3265.000
486.2140, 3290.000
487.3990, 3260.000
488.5840, 3297.000
489.7680, 3362.000
490.9530, 3283.000
492.1370, 3302.000
493.3210, 3330.000
494.5040, 3292.000
495.6880, 3296.000
496.8720, 3315.000
498.0550, 3297.000
499.2380, 3308.187
500.4210, 3310.202
501.6040, 3315.000
502.7860, 3322.000
503.9690, 3334.000
505.1510, 3353.000
506.3330, 3347.000
507.5150, 3413.000
508.6970, 3402.000
509.8780, 3398.000
511.0600, 3431.000
512.2410, 3357.000
513.4220, 3428.000
514.6030, 3347.000
515.7840, 3457.000
516.9640, 3395.000
518.1440, 3379.000
519.3250, 3366.000
520.5050, 3412.000
521.6850, 3430.000
522.8640, 3430.000
524.0440, 3365.000
525.2230, 3371.000
526.4020, 3494.000
527.5820, 3417.000
528.7600, 3516.000
529.9390, 3424.000
531.1180, 3497.000
532.2960, 3459.000
533.4740, 3398.000
534.6520, 3460.000
535.8300, 3454.000
537.0080, 3447.000
538.1850, 3468.000
539.3630, 3495.000
540.5400, 3498.511
541.7170, 3545.000
542.8940, 3535.000
544.0700, 3532.000
545.2470, 3572.000
546.4230, 3517.000
547.5990, 3629.000
548.7750, 3546.000
549.9510, 3552.000
551.1270, 3504.000
552.3020, 3634.000
553.4780, 3575.000
554.6530, 3620.000
555.8280, 3627.000
557.0030, 3559.000
558.1770, 3526.000
559.3520, 3529.000
560.5260, 3586.000
561.7000, 3586.000
562.8740, 3567.000
564.0480, 3644.000
565.2220, 3665.000
566.3950, 3566.000
567.5680, 3582.000
568.7420, 3588.000
569.9150, 3659.000
571.0870, 3627.000
572.2600, 3593.000
573.4320, 3707.000
574.6050, 3633.000
575.7770, 3621.000
576.9490, 3673.000
578.1210, 3685.000
579.2920, 3642.000
580.4640, 3637.000
581.6350, 3630.414
582.8060, 3643.000
583.9770, 3613.000
585.1480, 3657.000
586.3190, 3642.000
587.4890, 3730.000
588.6590, 3761.000
589.8290, 3754.000
590.9990, 3655.000
592.1690, 3744.000
593.3390, 3726.000
594.5080, 3768.000
595.6770, 3786.000
596.8470, 3687.000
598.0160, 3784.000
599.1840, 3677.000
600.3530, 3790.000
601.5210, 3776.000
602.6900, 3772.000
603.8580, 3741.000
605.0260, 3761.000
606.1930, 3765.000
607.3610, 3863.000
608.5280, 3858.000
609.6960, 3804.000
610.8630, 3769.000
612.0300, 3741.000
613.1970, 3864.000
614.3630, 3882.000
615.5300, 3823.000
616.6960, 3836.000
617.8620, 3751.000
619.0280, 3837.000
620.1940, 3819.000
621.3590, 3867.000
622.5250, 3785.000
623.6900, 3905.000
624.8550, 3791.000
626.0200, 3868.000
627.1850, 3863.000
628.3490, 3897.000
629.5140, 3863.000
630.6780, 3823.000
631.8420, 3893.000
633.0060, 3903.000
634.1700, 3897.000
635.3330, 3980.000
636.4970, 3910.000
637.6600, 3940.000
638.8230, 3888.000
639.9860, 3988.000
641.1490, 3926.000
642.3110, 3924.000
643.4740, 3958.000
644.6360, 3940.000
645.7980, 3969.000
646.9600, 3974.098
648.1220, 3969.000
649.2840, 3978.000
650.4450, 3966.000
651.6060, 3940.000
652.7670, 4015.000
653.9280, 3994.000
655.0890, 4063.000
656.2500, 3925.000
657.4100, 3975.000
658.5700, 4012.000
659.7300, 4059.000
660.8900, 4024.000
662.0500, 4059.622
663.2100, 4023.000
664.3690, 4031.000
665.5280, 4042.000
666.6880, 3936.000
667.8460, 4063.000
669.0050, 4087.000
670.1640, 4059.000
671.3220, 3980.000
672.4810, 4002.000
673.6390, 4145.000
674.7970, 4028.000
675.9540, 4147.000
677.1120, 4036.000
678.2690, 4045.000
679.4270, 4089.000
680.5840, 4171.000
681.7410, 4158.000
682.8980, 4130.000
684.0540, 4189.000
685.2110, 4112.000
686.3670, 4139.000
687.5230, 4115.000
688.6790, 4088.000
689.8350, 4165.000
690.9900, 4214.000
692.1460, 4267.000
693.3010, 4187.000
694.4560, 4272.000
695.6110, 4222.000
696.7660, 4376.000
697.9210, 4216.000
699.0750, 4179.000
700.2290, 4248.000
701.3840, 4214.000
702.5370, 4303.000
703.6910, 4255.000
704.8450, 4309.000
705.9980, 4395.000
707.1520, 4571.000
708.3050, 4852.944
709.4580, 5000.000
710.6110, 5578.000
711.7630, 6200.000
712.9160, 6636.000
714.0680, 6182.000
715.2200, 5614.000
716.3720, 4983.000
717.5240, 4686.000
718.6760, 4531.000
719.8270, 4378.000
720.9780, 4391.000
722.1300, 4333.000
723.2810, 4369.000
724.4310, 4365.000
725.5820, 4315.000
726.7330, 4364.000
727.8830, 4339.000
729.0330, 4229.000
730.1830, 4310.000
731.3330, 4397.000
732.4830, 4271.000
733.6320, 4353.000
734.7810, 4401.000
735.9310, 4439.000
737.0800, 4349.000
738.2290, 4370.000
739.3770, 4368.000
740.5260, 4336.000
741.6740, 4418.000
742.8220, 4294.000
743.9700, 4464.000
745.1180, 4370.000
746.2660, 4404.000
747.4130, 4484.000
748.5610, 4457.000
749.7080, 4527.000
750.8550, 4486.000
752.0020, 4421.000
753.1490, 4445.000
754.2950, 4441.000
755.4420, 4451.000
756.5880, 4487.000
757.7340, 4492.490
758.8800, 4507.512
760.0250, 4518.000
761.1710, 4524.000
762.3160, 4508.000
763.4620, 4507.652
764.6070, 4505.000
765.7520, 4517.000
766.8960, 4548.000
768.0410, 4569.297
769.1850, 4475.000
770.3300, 4592.000
771.4740, 4584.000
772.6180, 4545.000
773.7610, 4621.000
774.9050, 4481.000
776.0480, 4603.000
777.1920, 4577.000
778.3350, 4653.000
779.4780, 4546.000
780.6200, 4514.000
781.7630, 4622.000
782.9060, 4542.000
784.0480, 4594.000
785.1900, 4582.000
786.3320, 4686.000
787.4740, 4676.812
788.6150, 4682.000
789.7570, 4695.000
790.8980, 4644.000
792.0390, 4632.000
793.1800, 4732.000
794.3210, 4705.000
795.4620, 4655.000
796.6020, 4744.000
797.7420, 4665.000
798.8830, 4676.000
800.0230, 4707.000
801.1620, 4674.000
802.3020, 4753.000
803.4420, 4663.000
804.5810, 4801.000
805.7200, 4697.000
806.8590, 4740.000
807.9980, 4759.000
809.1370, 4755.000
810.2750, 4818.000
811.4140, 4814.525
812.5520, 4728.000
813.6900, 4803.000
814.8280, 4831.000
815.9650, 4743.000
817.1030, 4779.000
818.2400, 4870.000
819.3780, 4810.000
820.5150, 4872.000
821.6520, 4780.000
822.7880, 4776.000
823.9250, 4785.000
825.0610, 4744.000
826.1980, 4855.000
827.3340, 4805.000
828.4700, 4868.000
829.6050, 4863.000
830.7410, 5009.000
831.8760, 4864.000
833.0120, 4937.000
834.1470, 4871.000
835.2820, 4871.000
836.4160, 4956.000
837.5510, 4898.000
838.6860, 4966.000
839.8200, 4936.000
840.9540, 4949.000
842.0880, 4905.000
843.2220, 4931.000
844.3550, 4942.000
845.4890, 4884.000
846.6220, 5005.000
847.7550, 4956.000
848.8880, 5015.000
850.0210, 4946.000
851.1540, 4809.000
852.2860, 4915.749
853.4190, 4935.000
854.5510, 5035.000
855.6830, 5001.000
856.8150, 5046.000
857.9460, 5047.000
859.0780, 5018.000
860.2090, 5058.000
861.3410, 5041.000
862.4720, 5051.706
863.6020, 5044.081
864.7330, 5075.000
865.8640, 5032.000
866.9940, 5051.000
868.1240, 5087.000
869.2540, 5108.000
870.3840, 5041.000
871.5140, 5031.000
872.6440, 5062.000
873.7730, 5137.000
874.9020, 5174.000
876.0320, 5139.000
877.1600, 5158.800
878.2890, 5193.000
879.4180, 5133.000
880.5460, 5162.000
881.6750, 5191.000
882.8030, 5107.000
883.9310, 5229.000
885.0590, 5105.000
886.1860, 5263.000
887.3140, 5162.000
888.4410, 5223.000
889.5680, 5183.000
890.6950, 5252.000
891.8220, 5279.000
892.9490, 5232.000
894.0750, 5300.000
895.2020, 5179.000
896.3280, 5262.000
897.4540, 5221.000
898.5800, 5255.000
899.7050, 5284.000
900.8310, 5231.000
901.9560, 5329.000
903.0820, 5277.000
904.2070, 5322.000
905.3320, 5314.000
906.4560, 5326.000
907.5810, 5352.000
908.7050, 5331.000
909.8300, 5288.000
910.9540, 5345.000
912.0780, 5350.000
913.2010, 5352.000
914.3250, 5387.947
915.4480, 5394.000
916.5720, 5399.000
917.6950, 5427.000
918.8180, 5365.000
919.9410, 5517.000
921.0630, 5415.000
922.1860, 5350.000
923.3080, 5501.000
924.4300, 5464.000
925.5520, 5481.000
926.6740, 5503.000
927.7960, 5523.000
928.9170, 5453.000
930.0390, 5423.000
931.1600, 5544.000
932.2810, 5429.000
933.4020, 5433.000
934.5230, 5490.000
935.6430, 5462.000
936.7640, 5537.000
937.8840, 5548.000
939.0040, 5632.000
940.1240, 5513.000
941.2440, 5534.000
942.3630, 5597.000
943.4830, 5509.000
944.6020, 5618.000
945.7210, 5635.000
946.8400, 5567.000
947.9590, 5598.000
949.0770, 5632.000
950.1960, 5621.000
951.3140, 5549.000
952.4320, 5656.000
953.5500, 5630.000
954.6680, 5719.000
955.7860, 5675.000
956.9030, 5787.000
958.0210, 5759.495
959.1380, 5714.000
960.2550, 5699.000
961.3720, 5738.000
962.4890, 5634.000
963.6050, 5641.000
964.7220, 5693.000
965.8380, 5819.000
966.9540, 5757.000
968.0700, 5786.000
969.1860, 5745.000
970.3010, 5823.000
971.4170, 5654.000
972.5320, 5832.000
973.6470, 5758.000
974.7620, 5659.000
975.8770, 5767.000
976.9910, 5819.000
978.1060, 5788.000
979.2200, 5816.000
980.3340, 5795.000
981.4480, 5792.363
982.5620, 5821.299
983.6760, 5789.000
984.7890, 5850.000
985.9030, 5868.000
987.0160, 5833.000
988.1290, 5964.000
989.2420, 6027.000
990.3550, 5789.000
991.4670, 5857.000
992.5800, 5905.000
993.6920, 5976.000
994.8040, 6002.000
995.9160, 5969.000
997.0280, 5968.000
998.1390, 5962.000
999.2510, 6048.000
1000.362, 5881.000
1001.473, 6062.000
1002.584, 6063.000
1003.695, 6157.000
1004.805, 5969.000
1005.916, 5994.000
1007.026, 6004.000
1008.136, 5941.000
1009.246, 6029.000
1010.356, 6045.000
1011.466, 6048.000
1012.576, 6026.000
1013.685, 6082.000
1014.794, 6118.000
1015.903, 6091.000
1017.012, 6085.000
1018.121, 6180.000
1019.229, 6101.000
1020.338, 6121.000
1021.446, 6108.000
1022.554, 6198.000
1023.662, 6227.000
1024.770, 6204.000
1025.878, 6165.000
1026.985, 6279.000
1028.092, 6210.911
1029.200, 6070.000
1030.307, 6179.000
1031.413, 6177.000
1032.520, 6182.000
1033.627, 6244.000
1034.733, 6215.000
1035.839, 6335.000
1036.945, 6274.000
1038.051, 6359.000
1039.157, 6361.000
1040.262, 6276.000
1041.368, 6377.000
1042.473, 6221.000
1043.578, 6374.000
1044.683, 6366.000
1045.788, 6397.000
1046.893, 6368.000
1047.997, 6441.000
1049.101, 6402.000
1050.205, 6372.000
1051.309, 6411.000
1052.413, 6371.000
1053.517, 6489.000
1054.621, 6373.000
1055.724, 6375.000
1056.827, 6597.000
1057.930, 6550.000
1059.033, 6484.000
1060.136, 6508.000
1061.238, 6477.000
1062.341, 6616.000
1063.443, 6484.000
1064.545, 6703.000
1065.647, 6663.000
1066.749, 6714.833
1067.850, 6773.455
1068.952, 6781.000
1070.053, 6800.000
1071.154, 6750.000
1072.255, 6734.000
1073.356, 6811.000
1074.457, 6882.000
1075.557, 7010.000
1076.658, 7038.000
1077.758, 7295.000
1078.858, 7381.000
1079.958, 7971.000
1081.057, 8612.000
1082.157, 10317.00
1083.256, 13782.00
1084.356, 21876.00
1085.455, 36683.00
1086.554, 48082.00
1087.653, 39898.00
1088.751, 24657.00
1089.850, 14393.00
1090.948, 10188.00
1092.046, 8430.000
1093.144, 7778.000
1094.242, 7492.000
1095.340, 7185.000
1096.437, 7167.000
1097.534, 7101.000
1098.632, 7042.000
1099.729, 6934.000
1100.826, 6941.000
1101.922, 7000.000
1103.019, 6912.000
1104.115, 6988.000
1105.212, 6929.000
1106.308, 6932.000
1107.404, 6921.000
1108.499, 6977.000
1109.595, 7006.000
1110.691, 6880.000
1111.786, 7004.000
1112.881, 6873.000
1113.976, 6996.000
1115.071, 6918.000
1116.166, 6776.000
1117.260, 6981.000
1118.355, 6899.000
1119.449, 6969.000
1120.543, 7025.000
1121.637, 6928.000
1122.731, 7034.000
1123.824, 6990.000
1124.918, 7001.000
1126.011, 7009.000
1127.104, 7096.000
1128.197, 7110.000
1129.290, 7044.000
1130.382, 6989.000
1131.475, 6980.000
1132.567, 7071.000
1133.659, 7091.000
1134.751, 7025.000
1135.843, 7208.000
1136.935, 7073.000
1138.027, 7175.000
1139.118, 7131.000
1140.209, 7155.000
1141.300, 7143.000
1142.391, 7151.000
1143.482, 7175.000
1144.573, 7160.000
1145.663, 7238.000
1146.754, 7147.000
1147.844, 7125.000
1148.934, 7328.000
1150.024, 7203.000
1151.113, 7267.000
1152.203, 7280.000
1153.292, 7223.000
1154.381, 7278.000
1155.470, 7102.000
1156.559, 7344.000
1157.648, 7208.000
1158.737, 7245.000
1159.825, 7335.000
1160.913, 7275.000
1162.001, 7509.000
1163.089, 7282.000
1164.177, 7529.000
1165.265, 7186.000
1166.352, 7474.000
1167.440, 7311.000
1168.527, 7369.000
1169.614, 7470.000
1170.701, 7383.000
1171.788, 7475.000
1172.874, 7384.000
1173.961, 7347.000
1175.047, 7502.000
1176.133, 7389.000
1177.219, 7596.000
1178.305, 7438.000
1179.390, 7457.000
1180.476, 7497.000
1181.561, 7410.000
1182.646, 7499.000
1183.731, 7423.000
1184.816, 7613.000
1185.901, 7713.000
1186.985, 7588.000
1188.070, 7605.000
1189.154, 7567.000
1190.238, 7569.000
1191.322, 7637.000
1192.406, 7652.000
1193.489, 7609.000
1194.573, 7662.000
1195.656, 7666.000
1196.739, 7695.000
1197.822, 7712.000
1198.905, 7840.000
1199.988, 7634.000
1201.070, 7790.000
1202.153, 7735.000
1203.235, 7631.000
1204.317, 7772.000
1205.399, 7759.000
1206.481, 7779.000
1207.562, 7637.000
1208.644, 7794.000
1209.725, 7739.000
1210.806, 7917.000
1211.887, 7777.000
1212.968, 7749.000
1214.049, 7887.000
1215.129, 7774.000
1216.209, 7901.000
1217.290, 7848.000
1218.370, 7853.000
1219.450, 7855.000
1220.529, 7949.000
1221.609, 7843.000
1222.688, 8017.000
1223.768, 7907.000
1224.847, 8077.000
1225.926, 7878.000
1227.005, 7968.000
1228.083, 7974.000
1229.162, 7948.000
1230.240, 8009.000
1231.318, 7962.000
1232.396, 8080.000
1233.474, 8073.000
1234.552, 8063.000
1235.629, 8016.000
1236.707, 8095.000
1237.784, 8077.000
1238.861, 7977.000
1239.938, 8064.000
1241.015, 8193.000
1242.092, 7931.000
1243.168, 8293.000
1244.244, 8080.000
1245.321, 8156.000
1246.397, 8205.000
1247.473, 8197.000
1248.548, 8271.000
1249.624, 8172.000
1250.699, 8211.000
1251.775, 8184.000
1252.850, 8132.000
1253.925, 8257.000
1254.999, 8168.000
1256.074, 8401.000
1257.148, 8308.000
1258.223, 8323.000
1259.297, 8364.000
1260.371, 8290.000
1261.445, 8484.000
1262.519, 8371.000
1263.592, 8416.000
1264.666, 8484.000
1265.739, 8234.000
1266.812, 8402.000
1267.885, 8261.000
1268.958, 8520.000
1270.030, 8469.000
1271.103, 8347.000
1272.175, 8484.000
1273.247, 8381.000
1274.319, 8594.000
1275.391, 8427.000
1276.463, 8570.000
1277.535, 8542.000
1278.606, 8553.000
1279.677, 8625.000
1280.748, 8520.000
1281.819, 8619.000
1282.890, 8655.000
1283.961, 8501.000
1285.031, 8666.000
1286.102, 8634.000
1287.172, 8618.000
1288.242, 8728.000
1289.312, 8606.000
1290.381, 8588.000
1291.451, 8617.000
1292.520, 8809.000
1293.590, 8542.000
1294.659, 8714.000
1295.728, 8807.000
1296.797, 8570.000
1297.865, 8807.000
1298.934, 8791.000
1300.002, 8631.000
1301.070, 8805.000
1302.138, 8719.000
1303.206, 8755.000
1304.274, 8801.000
1305.341, 9021.000
1306.409, 8994.000
1307.476, 8744.000
1308.543, 8903.000
1309.610, 8788.000
1310.677, 9007.000
1311.744, 8907.000
1312.810, 8896.000
1313.877, 8940.000
1314.943, 8888.000
1316.009, 9004.000
1317.075, 8954.679
1318.140, 9016.000
1319.206, 8960.000
1320.272, 9005.000
1321.337, 9105.000
1322.402, 8890.000
1323.467, 9052.000
1324.532, 9110.000
1325.596, 9012.000
1326.661, 9092.000
1327.725, 9030.000
1328.790, 9081.000
1329.854, 9094.548
1330.918, 9157.000
1331.981, 9142.000
1333.045, 9148.000
1334.108, 9197.000
1335.172, 9248.000
1336.235, 9173.000
1337.298, 9186.000
1338.361, 9196.000
1339.423, 9183.000
1340.486, 9165.000
1341.548, 9210.000
1342.611, 9273.000
1343.673, 9292.000
1344.735, 9393.000
1345.796, 9311.000
1346.858, 9261.000
1347.919, 9362.000
1348.981, 9333.000
1350.042, 9320.000
1351.103, 9454.000
1352.164, 9340.000
1353.225, 9582.000
1354.285, 9380.000
1355.346, 9438.000
1356.406, 9443.000
1357.466, 9469.000
1358.526, 9518.000
1359.586, 9538.000
1360.645, 9597.000
1361.705, 9569.000
1362.764, 9475.000
1363.823, 9664.000
1364.882, 9517.000
1365.941, 9627.000
1367.000, 9588.000
1368.059, 9435.000
1369.117, 9551.000
1370.175, 9645.000
1371.233, 9724.000
1372.291, 9716.000
1373.349, 9661.000
1374.407, 9676.000
1375.464, 9636.000
1376.522, 9622.212
1377.579, 9723.000
1378.636, 9625.000
1379.693, 9667.000
1380.750, 9741.000
1381.806, 9842.000
1382.863, 9899.000
1383.919, 9740.000
1384.975, 9853.000
1386.031, 9727.000
1387.087, 9889.000
1388.143, 9786.000
1389.199, 9834.000
1390.254, 10008.00
1391.309, 9874.000
1392.364, 10045.00
1393.419, 10060.00
1394.474, 10022.00
1395.529, 10048.00
1396.583, 10016.00
1397.638, 10000.00
1398.692, 10062.00
1399.746, 10039.00
1400.800, 10117.00
1401.853, 10159.00
1402.907, 10092.00
1403.960, 10151.00
1405.014, 10098.00
1406.067, 10072.00
1407.120, 10068.00
1408.173, 10168.00
1409.225, 10165.00
1410.278, 10238.00
1411.330, 10327.00
1412.383, 10118.00
1413.435, 10205.00
1414.487, 10209.00
1415.538, 10340.00
1416.590, 10315.00
1417.641, 10162.00
1418.693, 10397.00
1419.744, 10244.00
1420.795, 10419.00
1421.846, 10442.00
1422.897, 10275.00
1423.947, 10539.00
1424.998, 10370.00
1426.048, 10371.00
1427.098, 10492.00
1428.148, 10459.00
1429.198, 10629.00
1430.247, 10526.00
1431.297, 10639.00
1432.346, 10756.00
1433.396, 10827.00
1434.445, 11195.00
1435.494, 11162.00
1436.542, 11101.00
1437.591, 11076.00
1438.639, 10946.00
1439.688, 10922.00
1440.736, 10737.00
1441.784, 10769.00
1442.832, 10548.00
1443.880, 10741.00
1444.927, 10786.00
1445.975, 10655.00
1447.022, 10791.00
1448.069, 10922.00
1449.116, 10667.00
1450.163, 10933.00
1451.209, 10685.00
1452.256, 10838.00
1453.302, 10826.00
1454.348, 10984.00
1455.394, 10986.00
1456.440, 10796.00
1457.486, 10906.00
1458.532, 10938.00
1459.577, 10818.00
1460.623, 10900.00
1461.668, 10952.00
1462.713, 10947.00
1463.758, 11115.00
1464.802, 11015.00
1465.847, 11086.00
1466.891, 11115.00
1467.936, 11058.00
1468.980, 11117.00
1470.024, 10992.00
1471.067, 11194.00
1472.111, 10996.00
1473.155, 11113.00
1474.198, 11140.00
1475.241, 11333.00
1476.284, 11191.00
1477.327, 11142.00
1478.370, 11211.00
1479.413, 11137.00
1480.455, 11283.00
1481.497, 11302.00
1482.540, 11385.00
1483.582, 11333.00
1484.624, 11412.00
1485.665, 11345.00
1486.707, 11383.00
1487.748, 11496.00
1488.790, 11309.00
1489.831, 11462.00
1490.872, 11280.00
1491.912, 11513.00
1492.953, 11450.00
1493.994, 11454.00
1495.034, 11491.00
1496.074, 11453.00
1497.114, 11680.00
1498.154, 11604.00
1499.194, 11577.00
1500.234, 11610.00
1501.273, 11482.00
1502.313, 11625.00
1503.352, 11522.00
1504.391, 11491.00
1505.430, 11725.00
1506.468, 11730.00
1507.507, 11715.00
1508.545, 11830.00
1509.584, 11886.00
1510.622, 11715.00
1511.660, 11722.00
1512.698, 11841.00
1513.735, 11862.00
1514.773, 11963.00
1515.810, 11908.00
1516.848, 11793.00
1517.885, 11839.00
1518.922, 11811.00
1519.958, 11938.00
1520.995, 11947.00
1522.032, 11928.00
1523.068, 12139.00
1524.104, 11925.00
1525.140, 12012.00
1526.176, 12125.00
1527.212, 12159.00
1528.248, 12104.00
1529.283, 12242.00
1530.318, 12128.00
1531.353, 12139.00
1532.389, 12119.00
1533.423, 12221.00
1534.458, 12296.00
1535.493, 12365.00
1536.527, 12257.00
1537.561, 12104.00
1538.596, 12245.00
1539.630, 12309.00
1540.663, 12212.00
1541.697, 12407.00
1542.731, 12423.00
1543.764, 12443.00
1544.797, 12400.00
1545.830, 12383.00
1546.863, 12369.00
1547.896, 12506.00
1548.929, 12579.00
1549.961, 12473.00
1550.994, 12356.00
1552.026, 12550.00
1553.058, 12399.00
1554.090, 12444.00
1555.121, 12539.00
1556.153, 12419.00
1557.185, 12531.00
1558.216, 12679.00
1559.247, 12594.00
1560.278, 12707.00
1561.309, 12400.00
1562.340, 12655.00
1563.370, 12640.00
1564.401, 12610.00
1565.431, 12774.00
1566.461, 12781.00
1567.491, 12731.00
1568.521, 12699.00
1569.551, 12814.00
1570.580, 12975.00
1571.610, 12867.00
1572.639, 12781.00
1573.668, 12978.00
1574.697, 13003.00
1575.726, 12884.00
1576.754, 12888.00
1577.783, 13047.00
##END=



