##NAMES=Cancrinite
##RRUFFID=R050352
##IDEAL CHEMISTRY=(Na,Ca,[box])_8_(Al_6_Si_6_)O_24_(CO_3_,S^6+^O_4_)_2_&#183;2H_2_O
##LOCALITY=York River, quarry #2, Dungannon Township, Ontario, Canada
##OWNER=RRUFF
##SOURCE=California Institute of Technology
##DESCRIPTION=Pink fragment
##STATUS=The identification of this mineral has been confirmed by X-ray diffraction and chemical analysis
##URL=rruff.info/R050352
##MEASURED CHEMISTRY=(Na_6.07_Ca_1.62_[box]_0.31_)_Σ=8_(Al_0.99_Si_1.01_O_4_)_6_((CO_3_)_0.84_[box]_0.16_)_Σ=2_·2H_2_O
##PIN_ID=L01694
##ORIENTATION=Laser parallel to -c* (0 0 -1). Fiducial mark perpendicular to laser is parallel to a [1 0 0]
83.60200, 6589.000
84.83700, 7270.000
86.07200, 7955.000
87.30800, 8473.000
88.54200, 9081.000
89.77700, 9485.000
91.01200, 9675.000
92.24600, 9714.000
93.48000, 9851.000
94.71400, 9521.000
95.94800, 9484.000
97.18200, 9200.000
98.41600, 8998.000
99.64900, 8880.000
100.8830, 8747.000
102.1160, 8695.000
103.3490, 8543.000
104.5820, 8427.000
105.8150, 8446.000
107.0470, 8570.000
108.2800, 9165.000
109.5120, 9593.000
110.7440, 8960.000
111.9760, 8504.000
113.2080, 8340.000
114.4400, 8456.000
115.6710, 8565.000
116.9030, 8406.000
118.1340, 8568.000
119.3650, 8591.000
120.5960, 8448.000
121.8270, 8343.000
123.0580, 8353.000
124.2880, 8259.821
125.5190, 8195.000
126.7490, 8194.000
127.9790, 8178.000
129.2090, 8162.000
130.4390, 8104.000
131.6680, 8114.000
132.8980, 8177.000
134.1270, 7970.000
135.3560, 8008.000
136.5850, 8005.000
137.8140, 8130.000
139.0430, 8143.000
140.2710, 8307.000
141.5000, 8352.000
142.7280, 8544.000
143.9560, 8482.000
145.1840, 8266.000
146.4120, 8028.000
147.6390, 7818.000
148.8670, 7638.000
150.0940, 7606.000
151.3210, 7653.000
152.5490, 7520.000
153.7750, 7521.000
155.0020, 7419.000
156.2290, 7444.000
157.4550, 7421.000
158.6810, 7393.000
159.9080, 7441.000
161.1340, 7336.000
162.3590, 7335.000
163.5850, 7508.000
164.8110, 7604.000
166.0360, 7561.000
167.2610, 7643.000
168.4860, 7677.000
169.7110, 7837.000
170.9360, 7914.000
172.1610, 7915.000
173.3850, 7941.000
174.6100, 8053.000
175.8340, 8196.000
177.0580, 8331.000
178.2820, 8452.000
179.5050, 8518.000
180.7290, 8659.000
181.9520, 8803.283
183.1760, 8884.000
184.3990, 9117.000
185.6220, 9329.000
186.8450, 9461.000
188.0670, 9408.000
189.2900, 9587.000
190.5120, 9633.061
191.7340, 9668.000
192.9560, 9804.000
194.1780, 9911.000
195.4000, 10010.00
196.6220, 10108.00
197.8430, 9947.000
199.0640, 9914.000
200.2860, 9861.000
201.5070, 9635.000
202.7270, 9571.000
203.9480, 9413.000
205.1690, 9279.000
206.3890, 8950.000
207.6090, 8924.000
208.8290, 8842.000
210.0490, 8891.000
211.2690, 8997.263
212.4890, 9052.328
213.7080, 9209.000
214.9280, 9411.000
216.1470, 9289.000
217.3660, 9699.000
218.5850, 9709.000
219.8030, 9776.000
221.0220, 10052.00
222.2400, 9951.000
223.4590, 10012.00
224.6770, 10151.00
225.8950, 10053.00
227.1120, 10245.00
228.3300, 10503.00
229.5480, 10306.00
230.7650, 10371.00
231.9820, 10508.00
233.1990, 10439.00
234.4160, 10386.00
235.6330, 10504.00
236.8490, 10504.00
238.0660, 10555.00
239.2820, 10536.00
240.4980, 10346.00
241.7140, 10452.00
242.9300, 10249.00
244.1460, 10299.00
245.3610, 10214.00
246.5770, 10294.00
247.7920, 10360.00
249.0070, 10550.00
250.2220, 10601.00
251.4370, 10549.00
252.6510, 10792.00
253.8660, 10956.00
255.0800, 11218.00
256.2940, 11572.00
257.5080, 11928.00
258.7220, 12366.52
259.9360, 12794.14
261.1490, 13331.00
262.3630, 13822.00
263.5760, 14312.00
264.7890, 15025.00
266.0020, 15799.00
267.2150, 16531.00
268.4270, 17107.00
269.6400, 17986.00
270.8520, 18506.00
272.0640, 19315.00
273.2760, 19525.00
274.4880, 19879.00
275.7000, 20211.00
276.9120, 19997.00
278.1230, 19475.00
279.3340, 18775.00
280.5450, 17855.00
281.7560, 17023.00
282.9670, 15857.00
284.1780, 15097.00
285.3880, 14554.00
286.5980, 13956.00
287.8090, 13524.00
289.0190, 13413.00
290.2290, 13409.00
291.4380, 13525.00
292.6480, 13678.00
293.8570, 13703.00
295.0670, 13855.00
296.2760, 14080.00
297.4850, 14183.00
298.6930, 14104.00
299.9020, 14026.00
301.1110, 13904.00
302.3190, 13557.00
303.5270, 13210.00
304.7350, 12851.00
305.9430, 12430.00
307.1510, 11978.00
308.3580, 11483.00
309.5660, 11117.00
310.7730, 10641.00
311.9800, 10430.00
313.1870, 10141.00
314.3940, 9718.000
315.6010, 9662.000
316.8070, 9338.000
318.0130, 9205.000
319.2200, 9096.000
320.4260, 8990.000
321.6310, 8986.000
322.8370, 9029.000
324.0430, 8867.000
325.2480, 8906.000
326.4540, 9086.000
327.6590, 9111.000
328.8640, 9334.000
330.0680, 9260.000
331.2730, 9409.000
332.4780, 9274.000
333.6820, 9329.000
334.8860, 9426.000
336.0900, 9455.000
337.2940, 9261.000
338.4980, 9243.000
339.7010, 9150.000
340.9050, 9043.000
342.1080, 9033.000
343.3110, 8959.000
344.5140, 8846.000
345.7170, 8770.000
346.9200, 8803.000
348.1220, 8755.000
349.3240, 8723.000
350.5270, 8642.000
351.7290, 8597.000
352.9310, 8565.000
354.1320, 8388.000
355.3340, 8457.000
356.5350, 8263.000
357.7370, 8058.000
358.9380, 8020.000
360.1390, 7993.000
361.3400, 7955.000
362.5400, 7796.000
363.7410, 7693.000
364.9410, 7681.000
366.1410, 7601.596
367.3410, 7610.000
368.5410, 7575.000
369.7410, 7612.000
370.9400, 7650.000
372.1400, 7644.000
373.3390, 7694.000
374.5380, 7716.816
375.7370, 7776.000
376.9360, 7778.000
378.1350, 7783.000
379.3330, 7803.000
380.5310, 7821.000
381.7300, 7825.667
382.9280, 7831.000
384.1260, 7872.000
385.3230, 7933.000
386.5210, 8030.000
387.7180, 8048.000
388.9160, 8124.621
390.1130, 8211.000
391.3100, 8221.000
392.5060, 8251.000
393.7030, 8260.000
394.9000, 8515.000
396.0960, 8548.000
397.2920, 8730.000
398.4880, 8648.000
399.6840, 8825.000
400.8800, 9100.000
402.0750, 9037.000
403.2710, 8943.000
404.4660, 9038.000
405.6610, 8786.000
406.8560, 8691.000
408.0510, 8660.000
409.2450, 8652.000
410.4400, 8437.000
411.6340, 8424.000
412.8280, 8460.000
414.0220, 8467.000
415.2160, 8575.000
416.4100, 8629.000
417.6030, 8804.000
418.7970, 8859.000
419.9900, 8989.000
421.1830, 9137.000
422.3760, 9267.000
423.5690, 9679.000
424.7610, 9930.000
425.9540, 10473.00
427.1460, 10826.00
428.3380, 11482.00
429.5300, 12033.00
430.7220, 12969.00
431.9140, 13968.00
433.1050, 14771.00
434.2970, 16127.00
435.4880, 17253.00
436.6790, 18919.00
437.8700, 20024.00
439.0610, 21307.00
440.2510, 22243.00
441.4420, 22919.00
442.6320, 22956.00
443.8220, 22301.00
445.0120, 21110.00
446.2020, 19437.00
447.3910, 17916.00
448.5810, 16238.00
449.7700, 15080.00
450.9600, 14138.00
452.1490, 13353.00
453.3370, 12756.00
454.5260, 12381.00
455.7150, 12281.00
456.9030, 12352.00
458.0910, 12461.00
459.2800, 12560.00
460.4670, 12900.00
461.6550, 13129.00
462.8430, 13451.00
464.0300, 13580.00
465.2180, 13742.00
466.4050, 13851.00
467.5920, 13807.00
468.7790, 13624.00
469.9650, 13247.00
471.1520, 12972.00
472.3380, 12524.00
473.5250, 11926.00
474.7110, 11465.00
475.8970, 10991.00
477.0820, 10531.00
478.2680, 10224.00
479.4540, 10090.00
480.6390, 9830.000
481.8240, 9743.000
483.0090, 9629.676
484.1940, 9553.000
485.3780, 9519.000
486.5630, 9539.000
487.7470, 9566.000
488.9320, 9630.000
490.1160, 9605.000
491.3000, 9772.000
492.4830, 9801.000
493.6670, 9831.000
494.8500, 9873.000
496.0340, 9812.174
497.2170, 9789.000
498.4000, 9725.000
499.5820, 9681.000
500.7650, 9742.000
501.9480, 9687.000
503.1300, 9762.000
504.3120, 9807.000
505.4940, 9825.000
506.6760, 9908.000
507.8580, 9921.000
509.0390, 10268.00
510.2210, 10401.00
511.4020, 10613.00
512.5830, 11018.00
513.7640, 11397.00
514.9450, 11913.00
516.1250, 12288.00
517.3060, 12792.00
518.4860, 13416.00
519.6660, 13845.00
520.8460, 14208.00
522.0260, 14714.00
523.2060, 14958.00
524.3850, 14867.00
525.5650, 14551.00
526.7440, 14046.00
527.9230, 13550.00
529.1020, 12766.00
530.2810, 12056.00
531.4590, 11553.00
532.6380, 10986.00
533.8160, 10697.00
534.9940, 10283.00
536.1720, 10024.00
537.3500, 9804.000
538.5270, 9743.000
539.7050, 9459.000
540.8820, 9380.000
542.0590, 9310.000
543.2360, 9162.000
544.4130, 9157.000
545.5900, 9068.000
546.7660, 9079.000
547.9430, 8973.000
549.1190, 8980.000
550.2950, 8951.000
551.4710, 8952.000
552.6470, 8983.000
553.8220, 8867.000
554.9980, 8875.000
556.1730, 8873.000
557.3480, 8912.000
558.5230, 8723.000
559.6980, 8881.000
560.8730, 8768.000
562.0470, 8764.000
563.2220, 8900.000
564.3960, 8805.000
565.5700, 8863.000
566.7440, 8799.000
567.9170, 8758.000
569.0910, 8879.000
570.2640, 8910.000
571.4380, 8952.000
572.6110, 8784.000
573.7840, 8779.000
574.9570, 8868.000
576.1290, 8784.000
577.3020, 8848.000
578.4740, 8924.000
579.6460, 8830.000
580.8180, 8871.000
581.9900, 8848.000
583.1620, 8848.000
584.3330, 8853.000
585.5040, 8862.781
586.6760, 8882.000
587.8470, 8879.000
589.0180, 8830.000
590.1880, 8779.000
591.3590, 8893.000
592.5290, 8840.000
593.7000, 8917.000
594.8700, 9050.000
596.0400, 8973.000
597.2090, 8936.000
598.3790, 8819.000
599.5490, 9130.000
600.7180, 9093.000
601.8870, 9016.000
603.0560, 8963.000
604.2250, 8939.000
605.3940, 8931.793
606.5620, 8970.000
607.7300, 9017.000
608.8990, 8953.000
610.0670, 9097.000
611.2350, 9067.000
612.4020, 9176.000
613.5700, 9094.394
614.7370, 9089.000
615.9050, 9017.000
617.0720, 9051.000
618.2390, 9263.000
619.4060, 9192.000
620.5720, 9114.000
621.7390, 9202.000
622.9050, 9004.000
624.0710, 9182.000
625.2370, 9193.000
626.4030, 9284.000
627.5690, 9217.000
628.7340, 9266.132
629.9000, 9317.000
631.0650, 9291.000
632.2300, 9254.000
633.3950, 9264.000
634.5600, 9315.000
635.7240, 9387.000
636.8890, 9378.000
638.0530, 9396.000
639.2170, 9562.000
640.3810, 9430.000
641.5450, 9535.000
642.7080, 9466.000
643.8720, 9539.000
645.0350, 9532.000
646.1980, 9444.000
647.3610, 9449.000
648.5240, 9375.000
649.6870, 9417.862
650.8490, 9434.067
652.0120, 9481.000
653.1740, 9553.000
654.3360, 9510.000
655.4980, 9626.000
656.6600, 9542.000
657.8210, 9489.000
658.9830, 9613.000
660.1440, 9519.000
661.3050, 9507.000
662.4660, 9337.000
663.6270, 9632.000
664.7870, 9572.000
665.9480, 9607.000
667.1080, 9667.000
668.2680, 9836.000
669.4280, 9732.000
670.5880, 9758.000
671.7480, 9797.000
672.9070, 9697.000
674.0670, 9934.000
675.2260, 10019.00
676.3850, 9994.000
677.5440, 10172.00
678.7030, 10040.00
679.8610, 10285.00
681.0200, 10235.00
682.1780, 10425.00
683.3360, 10568.00
684.4940, 10537.00
685.6520, 10689.00
686.8090, 10651.00
687.9670, 10603.00
689.1240, 10521.00
690.2810, 10690.00
691.4380, 10698.00
692.5950, 10780.00
693.7520, 10830.00
694.9080, 10868.00
696.0650, 10905.00
697.2210, 11036.00
698.3770, 10947.00
699.5330, 11053.00
700.6880, 10949.00
701.8440, 11081.00
702.9990, 11040.00
704.1550, 10795.00
705.3100, 10931.00
706.4650, 10806.00
707.6190, 10859.00
708.7740, 10962.00
709.9290, 10823.00
711.0830, 10774.00
712.2370, 11009.00
713.3910, 11150.00
714.5450, 11159.00
715.6980, 11223.00
716.8520, 11618.00
718.0050, 11505.00
719.1580, 11578.00
720.3110, 11492.00
721.4640, 11135.00
722.6170, 10960.00
723.7700, 10798.00
724.9220, 10757.00
726.0740, 10539.00
727.2260, 10494.00
728.3780, 10457.00
729.5300, 10430.00
730.6810, 10416.00
731.8330, 10500.00
732.9840, 10605.00
734.1350, 10543.00
735.2860, 10625.26
736.4370, 10571.00
737.5880, 10614.00
738.7380, 10568.00
739.8880, 10554.89
741.0390, 10645.00
742.1890, 10538.00
743.3380, 10551.00
744.4880, 10598.00
745.6380, 10554.83
746.7870, 10754.00
747.9360, 10601.00
749.0850, 10591.00
750.2340, 10702.00
751.3830, 10635.00
752.5310, 10709.00
753.6800, 10723.00
754.8280, 10710.00
755.9760, 10723.00
757.1240, 10783.00
758.2720, 10880.00
759.4190, 10914.00
760.5670, 10979.00
761.7140, 11010.00
762.8610, 11117.00
764.0080, 11169.79
765.1550, 11222.00
766.3020, 11313.00
767.4480, 11356.00
768.5950, 11422.00
769.7410, 11530.01
770.8870, 11710.00
772.0330, 11734.00
773.1780, 11854.00
774.3240, 11928.00
775.4690, 11817.00
776.6140, 11706.00
777.7590, 11684.00
778.9040, 11715.00
780.0490, 11570.00
781.1940, 11335.00
782.3380, 11393.00
783.4820, 11310.00
784.6260, 11208.00
785.7700, 11206.00
786.9140, 11179.00
788.0580, 11270.00
789.2010, 11324.00
790.3450, 11170.00
791.4880, 11097.00
792.6310, 11081.00
793.7730, 11264.00
794.9160, 11255.00
796.0590, 11333.00
797.2010, 11385.00
798.3430, 11338.00
799.4850, 11216.00
800.6270, 11233.00
801.7690, 11254.00
802.9100, 11310.00
804.0520, 11321.00
805.1930, 11362.55
806.3340, 11353.00
807.4750, 11408.00
808.6160, 11404.00
809.7560, 11372.00
810.8970, 11375.00
812.0370, 11373.00
813.1770, 11464.00
814.3170, 11445.00
815.4570, 11479.00
816.5960, 11468.00
817.7360, 11418.00
818.8750, 11445.00
820.0140, 11511.00
821.1530, 11488.00
822.2920, 11516.00
823.4310, 11576.00
824.5690, 11555.00
825.7070, 11595.00
826.8460, 11609.00
827.9840, 11684.00
829.1220, 11826.00
830.2590, 11715.00
831.3970, 11796.00
832.5340, 11785.00
833.6710, 11680.00
834.8080, 11897.00
835.9450, 11761.00
837.0820, 11873.00
838.2190, 11741.00
839.3550, 11835.00
840.4910, 11855.00
841.6270, 11986.00
842.7630, 11868.00
843.8990, 11989.00
845.0350, 11937.00
846.1700, 11859.00
847.3060, 12204.00
848.4410, 11987.00
849.5760, 11996.00
850.7100, 12157.00
851.8450, 12191.00
852.9800, 12209.67
854.1140, 12266.96
855.2480, 12201.00
856.3820, 12246.00
857.5160, 12208.00
858.6500, 12096.00
859.7830, 12191.00
860.9170, 12261.00
862.0500, 12160.00
863.1830, 12297.00
864.3160, 12260.00
865.4480, 12245.00
866.5810, 12307.00
867.7130, 12294.00
868.8460, 12393.00
869.9780, 12309.00
871.1100, 12397.00
872.2410, 12444.00
873.3730, 12447.22
874.5050, 12556.00
875.6360, 12523.00
876.7670, 12573.00
877.8980, 12626.00
879.0290, 12576.53
880.1590, 12595.00
881.2900, 12616.00
882.4200, 12562.00
883.5500, 12626.99
884.6800, 12631.00
885.8100, 12700.00
886.9400, 12792.00
888.0690, 12802.00
889.1990, 12760.00
890.3280, 12701.00
891.4570, 12618.00
892.5860, 12884.00
893.7140, 12911.00
894.8430, 12803.00
895.9710, 12926.00
897.1000, 12935.00
898.2280, 12969.00
899.3560, 13001.00
900.4830, 13125.00
901.6110, 12942.00
902.7380, 12984.00
903.8660, 13109.00
904.9930, 13144.00
906.1200, 13234.00
907.2460, 13292.00
908.3730, 13243.00
909.5000, 13365.00
910.6260, 13319.00
911.7520, 13284.00
912.8780, 13378.00
914.0040, 13578.00
915.1290, 13576.00
916.2550, 13771.00
917.3800, 13794.00
918.5050, 13731.00
919.6300, 13821.00
920.7550, 13925.00
921.8800, 13860.00
923.0040, 13960.00
924.1290, 14015.00
925.2530, 14216.00
926.3770, 14209.00
927.5010, 14384.00
928.6250, 14234.00
929.7480, 14376.00
930.8720, 14326.00
931.9950, 14468.00
933.1180, 14427.00
934.2410, 14565.00
935.3640, 14557.00
936.4860, 14653.00
937.6090, 14644.80
938.7310, 14648.00
939.8530, 14642.00
940.9750, 14654.00
942.0970, 14728.00
943.2180, 14740.00
944.3400, 14830.75
945.4610, 14981.00
946.5820, 15074.00
947.7030, 15206.00
948.8240, 15464.00
949.9450, 15492.00
951.0650, 15677.00
952.1860, 15748.00
953.3060, 15689.00
954.4260, 15891.00
955.5460, 15748.00
956.6650, 15757.00
957.7850, 15730.00
958.9040, 15772.00
960.0230, 15706.00
961.1420, 15730.00
962.2610, 15645.00
963.3800, 15676.00
964.4990, 15731.00
965.6170, 15540.00
966.7350, 15660.00
967.8530, 15641.00
968.9710, 15791.00
970.0890, 15933.00
971.2070, 15900.00
972.3240, 15985.00
973.4410, 16040.00
974.5580, 16146.00
975.6750, 16018.00
976.7920, 16171.00
977.9090, 16200.00
979.0250, 16327.00
980.1410, 16296.00
981.2580, 16433.00
982.3740, 16523.00
983.4890, 16538.00
984.6050, 16861.00
985.7200, 16922.00
986.8360, 16762.00
987.9510, 17096.00
989.0660, 16966.00
990.1810, 17196.00
991.2950, 17300.00
992.4100, 17358.00
993.5240, 17593.00
994.6390, 17565.00
995.7530, 17652.00
996.8660, 17697.00
997.9800, 17834.00
999.0940, 17939.00
1000.207, 17990.00
1001.320, 17971.00
1002.433, 17986.00
1003.546, 18003.00
1004.659, 17949.00
1005.772, 17901.00
1006.884, 18025.00
1007.996, 17958.00
1009.108, 18007.00
1010.220, 17973.00
1011.332, 17887.64
1012.444, 17846.00
1013.555, 17720.00
1014.666, 17655.00
1015.777, 17619.00
1016.888, 17502.00
1017.999, 17588.00
1019.110, 17399.00
1020.220, 17522.00
1021.331, 17719.00
1022.441, 17815.00
1023.551, 17740.00
1024.661, 17876.00
1025.770, 17851.00
1026.880, 18099.00
1027.989, 17966.00
1029.098, 18146.00
1030.207, 18487.00
1031.316, 18690.00
1032.425, 19007.00
1033.533, 19341.00
1034.642, 19950.00
1035.750, 20677.00
1036.858, 21659.00
1037.966, 23027.00
1039.073, 24341.00
1040.181, 26317.00
1041.288, 28462.00
1042.396, 29114.00
1043.503, 29546.00
1044.610, 29143.00
1045.716, 29401.00
1046.823, 30547.00
1047.929, 32666.00
1049.036, 36501.00
1050.142, 41523.00
1051.248, 46547.00
1052.353, 51796.00
1053.459, 56567.00
1054.564, 59913.00
1055.670, 61048.00
1056.775, 61418.00
1057.880, 60023.00
1058.985, 56425.00
1060.089, 51334.00
1061.194, 44371.00
1062.298, 37668.00
1063.402, 31751.00
1064.506, 27486.00
1065.610, 24562.00
1066.713, 22798.00
1067.817, 21479.00
1068.920, 20533.00
1070.023, 19977.00
1071.126, 19654.00
1072.229, 19270.00
1073.332, 18929.00
1074.435, 18843.00
1075.537, 18654.00
1076.639, 18614.00
1077.741, 18573.00
1078.843, 18460.00
1079.945, 18524.00
1081.046, 18488.00
1082.148, 18566.00
1083.249, 18612.00
1084.350, 18512.00
1085.451, 18774.00
1086.551, 19023.00
1087.652, 19046.00
1088.752, 18998.00
1089.853, 19032.00
1090.953, 18944.00
1092.053, 18885.00
1093.152, 18957.00
1094.252, 18851.00
1095.351, 18787.00
1096.451, 18957.00
1097.550, 18907.00
1098.649, 18787.00
1099.748, 18878.00
1100.846, 18701.00
1101.945, 18688.00
1103.043, 18688.00
1104.141, 18741.00
1105.239, 18424.00
1106.337, 18516.00
1107.434, 18374.00
1108.532, 18442.00
1109.629, 18417.00
1110.726, 18298.00
1111.823, 18198.00
1112.920, 18190.00
1114.017, 18296.00
1115.113, 18579.00
1116.210, 18519.00
1117.306, 18684.00
1118.402, 18983.00
1119.498, 18978.00
1120.593, 19242.00
1121.689, 19542.00
1122.784, 19385.00
1123.879, 19362.00
1124.974, 19224.00
1126.069, 19003.00
1127.164, 18811.00
1128.259, 18711.00
1129.353, 18547.66
1130.447, 18440.64
1131.541, 18355.00
1132.635, 18276.00
1133.729, 18267.00
1134.822, 18271.00
1135.916, 18256.85
1137.009, 18319.00
1138.102, 18313.00
1139.195, 18337.00
1140.288, 18429.00
1141.380, 18525.00
1142.473, 18388.00
1143.565, 18570.00
1144.657, 18448.00
1145.749, 18519.00
1146.841, 18585.00
1147.932, 18676.00
1149.024, 18468.00
1150.115, 18648.00
1151.206, 18530.00
1152.297, 18697.00
1153.388, 18676.00
1154.479, 18601.00
1155.569, 18514.00
1156.659, 18716.00
1157.750, 18888.00
1158.839, 18861.00
1159.929, 18906.00
1161.019, 18945.00
1162.108, 18977.07
1163.198, 18912.00
1164.287, 19048.00
1165.376, 19056.00
1166.465, 19016.00
1167.553, 19141.00
1168.642, 19109.00
1169.730, 19269.00
1170.818, 19162.00
1171.906, 19217.00
1172.994, 19030.00
1174.082, 19220.00
1175.170, 19157.00
1176.257, 19234.00
1177.344, 19162.00
1178.431, 19310.00
1179.518, 19382.00
1180.605, 19332.00
1181.691, 19320.00
1182.778, 19317.00
1183.864, 19484.00
1184.950, 19432.00
1186.036, 19425.00
1187.122, 19467.00
1188.207, 19439.00
1189.292, 19451.78
1190.378, 19614.00
1191.463, 19524.00
1192.548, 19597.00
1193.632, 19796.00
1194.717, 19744.00
1195.801, 19807.00
1196.886, 19848.00
1197.970, 19878.57
1199.054, 19858.00
1200.137, 19970.00
1201.221, 20029.00
1202.305, 20028.00
1203.388, 20180.00
1204.471, 20025.00
1205.554, 20202.00
1206.637, 20219.00
1207.719, 20168.00
1208.802, 20263.00
1209.884, 20348.00
1210.966, 20172.00
1212.048, 20240.00
1213.130, 20299.00
1214.212, 20279.00
1215.293, 20367.00
1216.374, 20467.00
1217.456, 20518.00
1218.536, 20646.00
1219.617, 20645.00
1220.698, 20634.00
1221.778, 20532.00
1222.859, 20699.00
1223.939, 20634.00
1225.019, 20680.00
1226.099, 20918.00
1227.178, 20745.00
1228.258, 20822.00
1229.337, 20975.00
1230.417, 20691.00
1231.496, 20895.00
1232.574, 20748.00
1233.653, 21125.00
1234.732, 21049.00
1235.810, 20934.00
1236.888, 21072.00
1237.966, 21022.00
1239.044, 21066.00
1240.122, 21097.00
1241.199, 21061.00
1242.277, 21318.00
1243.354, 21159.00
1244.431, 21351.00
1245.508, 21321.00
1246.585, 21374.00
1247.661, 21387.00
1248.738, 21428.00
1249.814, 21264.00
1250.890, 21419.00
1251.966, 21353.00
1253.042, 21545.00
1254.117, 21483.00
1255.193, 21566.00
1256.268, 21584.00
1257.343, 21646.00
1258.418, 21651.00
1259.493, 21611.00
1260.567, 21630.00
1261.642, 21674.25
1262.716, 21729.00
1263.790, 21774.83
1264.864, 21785.00
1265.938, 21905.00
1267.011, 21964.00
1268.085, 22058.00
1269.158, 21926.00
1270.231, 21857.00
1271.304, 22010.00
1272.377, 22123.00
1273.450, 22072.00
1274.522, 22189.00
1275.594, 22078.00
1276.666, 22265.00
1277.738, 22426.00
1278.810, 22321.00
1279.882, 22448.00
1280.953, 22330.00
1282.025, 22403.00
1283.096, 22561.00
1284.167, 22499.00
1285.238, 22449.00
1286.308, 22499.00
1287.379, 22689.00
1288.449, 22618.00
1289.519, 22577.00
1290.589, 22837.00
1291.659, 22798.00
1292.729, 22921.00
1293.798, 22993.00
1294.868, 22980.00
1295.937, 22865.00
1297.006, 22916.00
1298.075, 22928.00
1299.143, 22984.00
1300.212, 23063.00
1301.280, 23212.00
1302.348, 23106.00
1303.416, 23200.00
1304.484, 23156.00
1305.552, 23271.00
1306.620, 23135.00
1307.687, 23319.00
1308.754, 23276.00
1309.821, 23414.00
1310.888, 23422.00
1311.955, 23612.00
1313.021, 23535.00
1314.088, 23543.00
1315.154, 23605.00
1316.220, 23586.00
1317.286, 23670.00
1318.352, 23766.00
1319.417, 23905.00
1320.483, 23832.49
1321.548, 23989.00
1322.613, 23829.00
1323.678, 23810.00
1324.743, 24122.00
1325.807, 24161.00
1326.872, 24070.00
1327.936, 24376.00
1329.000, 24189.00
1330.064, 24485.00
1331.128, 24219.00
1332.191, 24300.00
1333.255, 24362.00
1334.318, 24232.00
1335.381, 24424.00
1336.444, 24345.00
1337.507, 24600.00
1338.569, 24462.00
1339.632, 24583.00
1340.694, 24577.00
1341.756, 24713.00
1342.818, 24583.00
1343.880, 24753.00
1344.941, 24718.00
1346.003, 24995.00
1347.064, 24823.00
1348.125, 25143.00
1349.186, 24873.00
1350.247, 24715.00
1351.308, 25116.00
1352.368, 24949.00
1353.428, 25139.00
1354.489, 25103.00
1355.549, 25118.00
1356.608, 25311.00
1357.668, 25316.00
1358.727, 25250.00
1359.787, 25132.00
1360.846, 25233.33
1361.905, 25260.16
1362.964, 25461.00
1364.022, 25512.00
1365.081, 25770.00
1366.139, 25981.00
1367.197, 25946.00
1368.255, 25820.00
1369.313, 26173.00
1370.371, 26452.00
1371.428, 26514.00
1372.486, 26880.00
1373.543, 26951.00
1374.600, 27360.00
1375.657, 27449.00
1376.713, 27447.00
1377.770, 27512.00
1378.826, 27320.00
1379.882, 27218.00
1380.938, 27167.00
1381.994, 26837.00
1383.050, 26890.00
1384.106, 26716.00
1385.161, 26913.00
1386.216, 26967.00
1387.271, 27050.00
1388.326, 26865.00
1389.381, 26974.00
1390.435, 26962.00
1391.490, 27031.00
1392.544, 27060.46
1393.598, 27172.00
1394.652, 27047.00
1395.705, 27058.00
1396.759, 26917.00
1397.812, 27256.00
1398.866, 27352.00
1399.919, 27275.00
1400.972, 27106.00
1402.024, 27340.00
1403.077, 27310.00
1404.129, 27408.00
1405.181, 27379.00
1406.233, 27392.00
1407.285, 27533.00
1408.337, 27662.00
1409.389, 27633.00
1410.440, 27611.00
1411.491, 27718.00
1412.542, 27772.00
1413.593, 27770.00
1414.644, 27755.00
1415.695, 27663.00
1416.745, 27589.00
1417.795, 27552.00
1418.845, 27583.10
1419.895, 27583.00
1420.945, 27735.00
1421.995, 27803.00
1423.044, 27930.00
1424.093, 27909.00
1425.142, 27823.00
1426.191, 28030.00
1427.240, 27859.00
1428.289, 28230.00
1429.337, 27936.00
1430.385, 28162.00
1431.433, 28065.00
1432.481, 28266.00
1433.529, 28526.00
1434.577, 28453.00
1435.624, 28394.00
1436.672, 28465.00
1437.719, 28594.00
1438.766, 28644.00
1439.812, 28729.00
1440.859, 28813.76
1441.905, 28893.00
1442.952, 28979.00
1443.998, 29080.00
1445.044, 29194.00
1446.090, 29401.00
1447.135, 29411.00
1448.181, 29388.00
1449.226, 29843.00
1450.271, 29914.00
1451.316, 29822.00
1452.361, 29737.00
1453.405, 29894.00
1454.450, 29628.00
1455.494, 29583.00
1456.538, 29605.00
1457.582, 29783.00
1458.626, 29563.00
1459.670, 29606.00
1460.713, 29596.00
1461.757, 29568.00
1462.800, 29619.00
1463.843, 29789.00
1464.886, 29832.00
1465.928, 29893.00
1466.971, 29996.74
1468.013, 29823.00
1469.055, 30094.00
1470.097, 30177.00
1471.139, 30110.00
1472.181, 29970.00
1473.222, 29952.00
1474.263, 30209.00
1475.305, 30348.00
1476.346, 30626.00
1477.386, 30509.00
1478.427, 30781.00
1479.468, 30739.00
1480.508, 30744.00
1481.548, 30643.00
1482.588, 30906.00
1483.628, 30908.00
1484.668, 30938.00
1485.707, 30959.00
1486.747, 31111.00
1487.786, 30976.00
1488.825, 31125.00
1489.864, 30970.00
1490.902, 31170.00
1491.941, 31131.00
1492.979, 31438.00
1494.017, 31394.01
1495.055, 31436.63
1496.093, 31393.00
1497.131, 31406.00
1498.168, 31388.00
1499.206, 31329.00
1500.243, 31407.00
1501.280, 31462.00
1502.317, 31382.00
1503.354, 31643.00
1504.390, 31742.00
1505.426, 31412.00
1506.463, 31660.00
1507.499, 31357.00
1508.535, 31863.00
1509.570, 31744.00
1510.606, 31925.00
1511.641, 31793.00
1512.676, 32140.00
1513.711, 31944.00
1514.746, 32125.00
1515.781, 31937.00
1516.816, 32183.00
1517.850, 32167.00
1518.884, 32311.00
1519.918, 32448.00
1520.952, 32616.00
1521.986, 32577.00
1523.019, 32541.00
1524.053, 32717.00
1525.086, 32427.00
1526.119, 32766.00
1527.152, 32655.00
1528.185, 32682.00
1529.217, 32915.00
1530.250, 32468.00
1531.282, 32872.00
1532.314, 32807.00
1533.346, 32901.00
1534.377, 32936.00
1535.409, 33084.00
1536.440, 32960.00
1537.472, 33133.00
1538.503, 33069.00
1539.534, 33227.00
1540.564, 33157.00
1541.595, 33292.00
1542.625, 33369.00
1543.656, 33436.00
1544.686, 33387.00
1545.716, 33349.00
1546.745, 33388.00
1547.775, 33424.23
1548.804, 33639.00
1549.834, 33634.00
1550.863, 33725.00
1551.892, 33947.00
1552.920, 33691.00
1553.949, 33734.00
1554.977, 34086.00
1556.006, 34164.00
1557.034, 33974.00
1558.062, 33973.00
1559.089, 34028.33
1560.117, 34321.00
1561.144, 34145.00
1562.172, 34399.00
1563.199, 34436.00
1564.226, 34378.00
1565.252, 34431.00
1566.279, 34536.00
1567.305, 34663.00
1568.332, 34697.00
1569.358, 34854.00
1570.384, 34832.00
##END=



