##NAMES=Carrollite
##RRUFFID=R040165
##IDEAL CHEMISTRY=Cu^1+^Co^3+^_2_S_4_
##LOCALITY=Katanga, Democratic Republic of the Congo
##OWNER=RRUFF
##SOURCE=University of Arizona Mineral Museum
##DESCRIPTION=Steel gray octahedral crystals that have a tarnished exterior
##STATUS=The identification of this mineral has been confirmed by X-ray diffraction and chemical analysis
##URL=rruff.info/R040165
##MEASURED CHEMISTRY=(Cu_0.97_Fe_0.03_)Co_1.98_S_4_
##PIN_ID=M00105
##ORIENTATION=Laser parallel to -a* (-1 0 0). Fiducial mark perpendicular to laser is parallel to -c [0 0 -1]
96.62100, 42853.00
97.86200, 42750.00
99.10300, 43397.00
100.3440, 43498.00
101.5850, 43989.00
102.8250, 45200.00
104.0650, 46688.00
105.3050, 47867.00
106.5450, 49089.56
107.7850, 49704.48
109.0250, 51169.00
110.2640, 50775.00
111.5030, 51138.00
112.7420, 52002.00
113.9810, 52349.00
115.2200, 52400.00
116.4580, 51767.00
117.6970, 51774.00
118.9350, 50318.00
120.1730, 46777.00
121.4100, 44897.00
122.6480, 45103.00
123.8850, 44602.00
125.1230, 44371.00
126.3600, 44249.00
127.5960, 44423.00
128.8330, 44250.00
130.0700, 44525.00
131.3060, 44110.00
132.5420, 44025.00
133.7780, 43996.00
135.0140, 44348.00
136.2500, 44560.00
137.4850, 44482.00
138.7200, 44731.00
139.9550, 44542.00
141.1900, 44056.00
142.4250, 43967.00
143.6600, 43603.00
144.8940, 43715.00
146.1280, 43783.00
147.3620, 43924.00
148.5960, 43925.00
149.8300, 44089.00
151.0630, 44134.58
152.2960, 44383.00
153.5300, 44180.00
154.7620, 44434.00
155.9950, 44292.00
157.2280, 44094.00
158.4600, 44146.00
159.6920, 44015.00
160.9250, 44493.00
162.1560, 44543.00
163.3880, 44678.00
164.6200, 44774.00
165.8510, 44465.00
167.0820, 44620.00
168.3130, 44537.00
169.5440, 44678.00
170.7750, 45013.00
172.0050, 44918.00
173.2350, 45054.86
174.4650, 44624.00
175.6950, 44999.00
176.9250, 44789.00
178.1550, 44548.00
179.3840, 44965.00
180.6130, 44838.00
181.8420, 44768.00
183.0710, 45146.00
184.3000, 45188.00
185.5280, 45529.00
186.7570, 45413.00
187.9850, 45993.00
189.2130, 46158.00
190.4400, 46563.00
191.6680, 46785.00
192.8960, 46755.00
194.1230, 47076.00
195.3500, 46840.00
196.5770, 47207.00
197.8030, 47114.00
199.0300, 46973.00
200.2560, 47540.00
201.4830, 47774.00
202.7090, 47304.00
203.9340, 46262.00
205.1600, 45629.00
206.3860, 44949.00
207.6110, 44663.00
208.8360, 45002.00
210.0610, 44931.00
211.2860, 45108.00
212.5100, 45286.00
213.7350, 45663.00
214.9590, 45362.00
216.1830, 45117.00
217.4070, 45290.00
218.6310, 45455.00
219.8540, 45165.00
221.0780, 45045.00
222.3010, 45490.00
223.5240, 45211.00
224.7470, 45210.00
225.9690, 45499.00
227.1920, 45549.00
228.4140, 45306.00
229.6360, 45606.00
230.8580, 45768.00
232.0800, 45717.00
233.3020, 45872.00
234.5230, 45979.45
235.7440, 46205.00
236.9650, 46278.00
238.1860, 46470.00
239.4070, 46695.00
240.6280, 46481.00
241.8480, 46810.00
243.0680, 46943.00
244.2880, 47323.00
245.5080, 47580.00
246.7280, 47868.00
247.9470, 48113.00
249.1660, 48474.00
250.3860, 48784.00
251.6040, 48562.00
252.8230, 49139.00
254.0420, 49355.00
255.2600, 48901.00
256.4790, 49531.00
257.6970, 50474.00
258.9150, 50007.01
260.1320, 49750.59
261.3500, 49703.00
262.5670, 48413.00
263.7840, 48063.00
265.0010, 48106.00
266.2180, 47633.00
267.4350, 47676.00
268.6510, 47487.00
269.8680, 47477.00
271.0840, 47164.00
272.3000, 47310.00
273.5160, 47146.00
274.7310, 47028.00
275.9470, 47344.00
277.1620, 47064.00
278.3770, 47169.00
279.5920, 47373.00
280.8070, 47042.00
282.0210, 46946.00
283.2360, 46975.00
284.4500, 46991.00
285.6640, 47152.00
286.8780, 47035.00
288.0920, 47110.14
289.3050, 46938.00
290.5180, 47188.00
291.7320, 47270.00
292.9450, 47440.00
294.1570, 47632.00
295.3700, 47507.00
296.5830, 47669.00
297.7950, 47415.00
299.0070, 47569.00
300.2190, 47714.00
301.4310, 47590.00
302.6420, 47696.00
303.8540, 47894.00
305.0650, 47890.00
306.2760, 48118.00
307.4870, 47879.00
308.6980, 48142.00
309.9080, 48078.00
311.1190, 47732.00
312.3290, 47883.00
313.5390, 48093.00
314.7490, 48199.00
315.9580, 48236.00
317.1680, 48267.00
318.3770, 48306.00
319.5860, 48260.91
320.7950, 48141.00
322.0040, 48191.00
323.2130, 48182.00
324.4210, 48231.21
325.6290, 48311.00
326.8380, 48318.00
328.0460, 48382.00
329.2530, 48643.00
330.4610, 48469.00
331.6680, 48632.00
332.8760, 48281.00
334.0830, 48720.00
335.2890, 48823.00
336.4960, 48632.00
337.7030, 48882.00
338.9090, 48895.00
340.1150, 48888.00
341.3210, 48794.00
342.5270, 48964.00
343.7330, 48939.76
344.9380, 49000.64
346.1440, 49094.00
347.3490, 49217.00
348.5540, 49402.00
349.7590, 49713.00
350.9630, 49613.00
352.1680, 49857.00
353.3720, 49750.00
354.5760, 50250.00
355.7800, 49725.00
356.9840, 50143.00
358.1870, 50190.00
359.3910, 49924.00
360.5940, 49674.00
361.7970, 49733.70
363.0000, 49865.00
364.2030, 49741.00
365.4050, 49869.00
366.6080, 49888.00
367.8100, 49886.00
369.0120, 49843.00
370.2140, 49578.00
371.4150, 49591.00
372.6170, 49517.00
373.8180, 49542.00
375.0190, 49679.00
376.2200, 49565.00
377.4210, 49815.00
378.6220, 49599.00
379.8220, 49822.00
381.0230, 49624.00
382.2230, 49912.00
383.4230, 49577.00
384.6220, 49986.00
385.8220, 49889.00
387.0220, 49942.00
388.2210, 50036.00
389.4200, 50168.00
390.6190, 49960.00
391.8180, 50059.24
393.0160, 50210.00
394.2150, 50041.00
395.4130, 50129.00
396.6110, 50167.00
397.8090, 50335.00
399.0060, 50057.00
400.2040, 50140.00
401.4010, 50090.00
402.5980, 50198.00
403.7950, 50188.55
404.9920, 50343.00
406.1890, 50192.00
407.3860, 50273.00
408.5820, 50246.00
409.7780, 50504.00
410.9740, 50405.00
412.1700, 50615.00
413.3650, 50693.00
414.5610, 50465.00
415.7560, 50482.00
416.9510, 50659.00
418.1460, 50728.00
419.3410, 50778.15
420.5360, 50835.21
421.7300, 50897.00
422.9240, 50784.00
424.1180, 50881.00
425.3120, 50699.00
426.5060, 50944.00
427.7000, 51221.00
428.8930, 50979.00
430.0860, 51057.00
431.2790, 51178.00
432.4720, 51095.00
433.6650, 51176.00
434.8580, 51191.00
436.0500, 51336.00
437.2420, 51158.00
438.4340, 51222.00
439.6260, 51346.00
440.8180, 51575.00
442.0090, 51329.00
443.2010, 51552.00
444.3920, 51208.00
445.5830, 51378.00
446.7740, 51617.00
447.9640, 51575.00
449.1550, 51423.00
450.3450, 51725.00
451.5350, 51615.00
452.7250, 51653.00
453.9150, 51559.00
455.1050, 51515.00
456.2940, 51629.00
457.4830, 51879.00
458.6720, 51488.00
459.8610, 51924.00
461.0500, 51651.00
462.2390, 51879.00
463.4270, 52066.00
464.6150, 51689.00
465.8040, 51802.00
466.9910, 51793.00
468.1790, 51970.00
469.3670, 52106.00
470.5540, 52216.00
471.7410, 52040.00
472.9280, 52050.00
474.1150, 52153.00
475.3020, 51843.00
476.4890, 51887.00
477.6750, 52049.00
478.8610, 52413.00
480.0470, 52502.00
481.2330, 52239.00
482.4190, 52569.00
483.6040, 52337.00
484.7900, 52611.00
485.9750, 52942.00
487.1600, 52666.00
488.3450, 52360.00
489.5290, 52586.00
490.7140, 52864.00
491.8980, 52605.00
493.0820, 52822.00
494.2660, 52654.00
495.4500, 52766.00
496.6340, 52814.00
497.8170, 52918.00
499.0010, 52957.90
500.1840, 53116.00
501.3670, 53006.00
502.5500, 53304.00
503.7320, 53289.00
504.9150, 53258.00
506.0970, 52921.00
507.2790, 52914.00
508.4610, 53717.00
509.6430, 53315.00
510.8250, 53348.00
512.0060, 53151.00
513.1870, 53176.00
514.3680, 53514.00
515.5490, 53334.00
516.7300, 53297.00
517.9110, 53788.00
519.0910, 53731.00
520.2710, 53577.00
521.4510, 53558.00
522.6310, 53561.48
523.8110, 53580.12
524.9910, 53691.00
526.1700, 53812.00
527.3490, 53985.00
528.5280, 54277.00
529.7070, 53918.00
530.8860, 53660.00
532.0650, 53888.00
533.2430, 54052.00
534.4210, 53480.00
535.5990, 53667.00
536.7770, 53766.00
537.9550, 54031.00
539.1320, 53947.00
540.3100, 53968.00
541.4870, 54399.00
542.6640, 54172.00
543.8410, 54408.00
545.0170, 54103.00
546.1940, 54463.00
547.3700, 54333.00
548.5470, 54521.00
549.7230, 54643.00
550.8980, 54618.00
552.0740, 54676.46
553.2500, 54594.00
554.4250, 54752.00
555.6000, 54457.00
556.7750, 54745.00
557.9500, 54582.00
559.1250, 54716.00
560.2990, 55038.00
561.4730, 54738.00
562.6480, 54758.00
563.8220, 54813.00
564.9950, 54694.00
566.1690, 54912.00
567.3430, 55122.00
568.5160, 55085.00
569.6890, 55405.00
570.8620, 55001.00
572.0350, 54806.00
573.2070, 54917.00
574.3800, 54679.00
575.5520, 54699.00
576.7240, 54472.00
577.8960, 54279.00
579.0680, 54211.00
580.2400, 54035.00
581.4110, 53869.38
582.5830, 53827.00
583.7540, 53584.00
584.9250, 53443.00
586.0950, 53447.00
587.2660, 53414.00
588.4370, 53394.00
589.6070, 53523.00
590.7770, 53468.02
591.9470, 53475.02
593.1170, 53361.00
594.2860, 53421.00
595.4560, 53143.00
596.6250, 53094.00
597.7940, 53433.00
598.9630, 53140.00
600.1320, 53452.00
601.3000, 53368.00
602.4690, 53383.00
603.6370, 53515.00
604.8050, 53571.00
605.9730, 53601.00
607.1410, 53586.77
608.3090, 53397.00
609.4760, 53483.00
610.6430, 53383.00
611.8100, 53354.00
612.9770, 53428.00
614.1440, 53231.00
615.3110, 53378.00
616.4770, 53503.00
617.6430, 53038.00
618.8090, 53145.00
619.9750, 53163.00
621.1410, 53573.00
622.3070, 53562.00
623.4720, 53740.00
624.6370, 53621.00
625.8020, 53526.00
626.9670, 53830.00
628.1320, 53800.00
629.2970, 53704.00
630.4610, 53627.00
631.6250, 53679.00
632.7890, 53576.00
633.9530, 53513.00
635.1170, 53912.00
636.2810, 53625.00
637.4440, 53626.00
638.6070, 53706.00
639.7700, 53527.00
640.9330, 53796.00
642.0960, 53688.00
643.2590, 53623.00
644.4210, 53497.00
645.5830, 53618.00
646.7450, 53691.00
647.9070, 53671.00
649.0690, 53680.04
650.2310, 53769.00
651.3920, 53597.00
652.5530, 53590.00
653.7140, 53586.00
654.8750, 53404.00
656.0360, 53587.00
657.1970, 53658.00
658.3570, 53693.00
659.5170, 53622.00
660.6770, 53811.00
661.8370, 53787.00
662.9970, 53614.00
664.1570, 53472.00
665.3160, 53638.00
666.4750, 53364.00
667.6340, 53618.00
668.7930, 53413.00
669.9520, 53533.00
671.1110, 53601.00
672.2690, 53378.00
673.4270, 53741.00
674.5850, 53578.00
675.7430, 53734.00
676.9010, 53739.00
678.0590, 53635.00
679.2160, 53699.00
680.3730, 53861.00
681.5300, 53518.00
682.6870, 53936.61
683.8440, 53740.60
685.0010, 53741.70
686.1570, 53655.00
687.3130, 53632.00
688.4690, 53683.00
689.6250, 53508.00
690.7810, 53964.00
691.9370, 53910.00
693.0920, 53797.00
694.2470, 53548.00
695.4020, 53978.00
696.5570, 53760.00
697.7120, 53676.00
698.8670, 53760.09
700.0210, 53665.00
701.1750, 53716.00
702.3290, 53918.00
703.4830, 54011.00
704.6370, 53509.00
705.7910, 53951.00
706.9440, 53593.00
708.0970, 53688.00
709.2510, 53855.00
710.4030, 53588.00
711.5560, 53817.00
712.7090, 54084.00
713.8610, 53889.00
715.0140, 54078.00
716.1660, 53980.00
717.3180, 53618.00
718.4690, 53730.00
719.6210, 54096.00
720.7730, 54089.00
721.9240, 53875.00
723.0750, 54124.00
724.2260, 53920.00
725.3770, 53919.00
726.5270, 54311.00
727.6780, 54135.00
728.8280, 54009.00
729.9780, 54093.00
731.1280, 54031.00
732.2780, 53932.18
733.4280, 54353.00
734.5770, 53852.00
735.7260, 54101.00
736.8760, 54373.00
738.0250, 54200.00
739.1730, 53917.00
740.3220, 54322.00
741.4700, 54271.00
742.6190, 54180.00
743.7670, 54462.00
744.9150, 54437.00
746.0630, 54293.00
747.2100, 54355.00
748.3580, 54327.00
749.5050, 54476.00
750.6520, 54461.00
751.7990, 54384.00
752.9460, 54178.00
754.0930, 54365.00
755.2390, 54436.00
756.3860, 54332.00
757.5320, 54430.00
758.6780, 54530.00
759.8240, 54413.00
760.9690, 54347.00
762.1150, 54310.00
763.2600, 54547.00
764.4060, 54531.00
765.5510, 54555.90
766.6950, 54551.00
767.8400, 54519.00
768.9850, 54544.00
770.1290, 54467.00
771.2730, 54603.00
772.4170, 54332.00
773.5610, 54448.00
774.7050, 54755.00
775.8480, 54481.00
776.9920, 54469.00
778.1350, 54279.00
779.2780, 54694.00
780.4210, 54485.00
781.5640, 54547.00
782.7060, 54510.00
783.8490, 54410.00
784.9910, 54414.00
786.1330, 54337.00
787.2750, 54375.00
788.4170, 54718.00
789.5580, 54581.00
790.7000, 54550.00
791.8410, 54748.00
792.9820, 54460.00
794.1230, 54838.00
795.2640, 54480.00
796.4040, 54961.00
797.5450, 54538.00
798.6850, 54739.00
799.8250, 54775.00
800.9650, 54608.00
802.1050, 54698.00
803.2450, 54777.00
804.3840, 54700.00
805.5230, 54626.00
806.6630, 54610.00
807.8020, 54636.12
808.9400, 54740.00
810.0790, 54757.00
811.2170, 54631.00
812.3560, 54672.00
813.4940, 54876.00
814.6320, 54521.00
815.7700, 55010.00
816.9070, 54846.00
818.0450, 54656.00
819.1820, 55030.00
820.3190, 54948.00
821.4560, 55122.00
822.5930, 54906.00
823.7300, 54745.00
824.8670, 54685.00
826.0030, 54951.00
827.1390, 54616.00
828.2750, 54948.00
829.4110, 54730.00
830.5470, 54910.00
831.6820, 54983.00
832.8180, 55054.00
833.9530, 54817.00
835.0880, 54963.00
836.2230, 54723.00
837.3580, 55208.00
838.4920, 55060.00
839.6270, 54970.00
840.7610, 54801.00
841.8950, 55039.00
843.0290, 54950.00
844.1630, 55036.00
845.2960, 55106.00
846.4300, 55169.00
847.5630, 55264.00
848.6960, 54917.00
849.8290, 55084.00
850.9620, 55173.00
852.0940, 54975.00
853.2270, 55126.00
854.3590, 55122.00
855.4910, 55030.00
856.6230, 55105.00
857.7550, 54985.00
858.8870, 55160.00
860.0180, 54987.00
861.1500, 55048.00
862.2810, 54996.00
863.4120, 54970.00
864.5430, 55102.00
865.6730, 55113.00
866.8040, 55181.00
867.9340, 55081.00
869.0640, 55334.00
870.1940, 55059.00
871.3240, 55343.00
872.4540, 55331.00
873.5830, 55260.00
874.7130, 55411.00
875.8420, 55437.00
876.9710, 55424.49
878.1000, 55617.00
879.2290, 55377.00
880.3570, 55397.00
881.4860, 55297.00
882.6140, 55407.00
883.7420, 55425.00
884.8700, 55370.56
885.9980, 55429.00
887.1250, 55322.00
888.2530, 55497.00
889.3800, 55555.00
890.5070, 55607.00
891.6340, 55541.00
892.7610, 55557.98
893.8880, 55610.00
895.0140, 55541.00
896.1400, 55640.00
897.2670, 55748.00
898.3930, 55459.00
899.5180, 55674.00
900.6440, 55347.00
901.7700, 55785.00
902.8950, 55538.00
904.0200, 55550.00
905.1450, 55835.00
906.2700, 55807.00
907.3950, 55499.00
908.5190, 55631.00
909.6440, 55575.00
910.7680, 55630.00
911.8920, 55675.00
913.0160, 55530.00
914.1400, 55841.00
915.2630, 56083.00
916.3870, 55890.00
917.5100, 56010.00
918.6330, 55842.00
919.7560, 55815.00
920.8790, 55885.00
922.0010, 55730.00
923.1240, 55915.00
924.2460, 55400.00
925.3680, 56094.00
926.4900, 55800.00
927.6120, 56128.00
928.7340, 56051.00
929.8550, 56104.00
930.9760, 55881.00
932.0980, 56156.00
933.2190, 56031.36
934.3390, 55826.51
935.4600, 56042.79
936.5810, 56169.80
937.7010, 56212.36
938.8210, 55917.52
939.9410, 56058.36
941.0610, 56024.59
942.1810, 55983.67
943.3010, 56185.83
944.4200, 55940.05
945.5390, 56138.34
946.6580, 56159.37
947.7770, 56261.53
948.8960, 56188.01
950.0150, 56168.75
951.1330, 56325.21
952.2510, 56384.37
953.3690, 56290.61
954.4870, 56397.92
955.6050, 56145.99
956.7230, 56209.29
957.8400, 56408.59
958.9580, 56323.67
960.0750, 56434.17
961.1920, 56470.24
962.3090, 56168.04
963.4250, 56454.12
964.5420, 56485.79
965.6580, 56256.22
966.7740, 56522.14
967.8900, 56479.00
969.0060, 56618.00
970.1220, 56324.00
971.2380, 56496.00
972.3530, 56524.00
973.4680, 56345.00
974.5830, 56349.00
975.6980, 56380.00
976.8130, 56496.00
977.9280, 56437.66
979.0420, 56600.00
980.1560, 56469.00
981.2710, 56443.00
982.3850, 56651.00
983.4980, 56608.76
984.6120, 56689.00
985.7260, 56719.00
986.8390, 56779.34
987.9520, 56737.97
989.0650, 56855.00
990.1780, 56741.00
991.2910, 56875.00
992.4030, 56906.62
993.5160, 56755.00
994.6280, 56992.00
995.7400, 57000.00
996.8520, 56943.00
997.9640, 56701.00
999.0750, 56612.00
1000.187, 56933.00
1001.298, 57065.00
1002.409, 56987.00
1003.520, 56893.00
1004.631, 57041.00
1005.741, 56833.00
1006.852, 56727.00
1007.962, 57284.00
1009.072, 57056.00
1010.182, 57110.00
1011.292, 57025.00
1012.402, 56844.00
1013.511, 57144.00
1014.621, 56960.00
1015.730, 56867.00
1016.839, 57217.00
1017.948, 57183.00
1019.056, 56934.00
1020.165, 56921.00
1021.273, 56931.00
1022.382, 57179.00
1023.490, 57417.00
1024.598, 57071.00
1025.706, 56969.00
1026.813, 57140.00
1027.921, 57299.00
1029.028, 57477.00
1030.135, 57146.00
1031.242, 57298.00
1032.349, 57086.00
1033.456, 57164.43
1034.562, 57534.00
1035.668, 57270.00
1036.775, 57329.00
1037.881, 57196.00
1038.987, 57545.00
1040.092, 57715.00
1041.198, 57587.00
1042.303, 57592.00
1043.408, 57424.00
1044.514, 57645.00
1045.618, 57703.00
1046.723, 57532.00
1047.828, 57647.00
1048.932, 57489.64
1050.037, 57591.00
1051.141, 57307.00
1052.245, 57541.00
1053.349, 57629.00
1054.452, 57866.00
1055.556, 57660.00
1056.659, 57354.00
1057.762, 57576.00
1058.865, 57718.00
1059.968, 57919.00
1061.071, 57532.00
1062.174, 57808.00
1063.276, 57621.00
1064.378, 57538.00
1065.480, 57825.00
1066.582, 57786.00
1067.684, 57933.00
1068.786, 57759.00
1069.887, 57592.00
1070.988, 57659.00
1072.090, 57697.00
1073.191, 57957.00
1074.291, 57760.00
1075.392, 57878.00
1076.493, 57839.00
1077.593, 57713.00
1078.693, 58024.00
1079.793, 57650.00
1080.893, 57873.00
1081.993, 57816.00
1083.092, 57938.00
1084.192, 58005.00
1085.291, 58053.75
1086.390, 58178.00
1087.489, 58152.00
1088.588, 57888.00
1089.686, 57781.00
1090.785, 57845.00
1091.883, 57794.00
1092.981, 57860.00
1094.079, 57969.00
1095.177, 57944.64
1096.275, 57877.00
1097.373, 57905.00
1098.470, 58075.00
1099.567, 57901.00
1100.664, 57756.00
1101.761, 57946.00
1102.858, 57778.00
1103.954, 57963.00
1105.051, 57826.00
1106.147, 57748.00
1107.243, 58151.00
1108.339, 57576.00
1109.435, 58164.00
1110.531, 58017.00
1111.626, 57742.00
1112.722, 58130.00
1113.817, 57941.00
1114.912, 58019.00
1116.007, 57778.00
1117.101, 57997.00
1118.196, 58163.00
1119.290, 57890.00
1120.385, 58137.00
1121.479, 58375.00
1122.573, 58395.00
1123.666, 58017.00
1124.760, 58049.00
1125.853, 58288.00
1126.947, 57859.00
1128.040, 57871.00
1129.133, 57892.00
1130.226, 57694.00
1131.318, 57563.00
1132.411, 57497.00
1133.503, 57781.00
1134.596, 57314.00
1135.688, 57651.00
1136.780, 57786.00
1137.871, 57429.00
1138.963, 57187.00
1140.054, 57474.00
1141.146, 57579.00
1142.237, 57198.00
1143.328, 56993.00
1144.419, 57363.00
1145.509, 57468.00
1146.600, 57461.00
1147.690, 57463.00
1148.780, 57569.30
1149.870, 57422.00
1150.960, 57607.00
1152.050, 57475.00
1153.139, 57185.00
1154.229, 57444.00
1155.318, 57585.00
1156.407, 57336.00
1157.496, 57461.00
1158.585, 57248.00
1159.674, 57127.00
1160.762, 57544.00
1161.850, 57463.00
1162.939, 57166.00
1164.027, 57572.00
1165.114, 57422.00
1166.202, 57228.00
1167.290, 57458.00
1168.377, 57219.00
1169.464, 57354.00
1170.551, 57308.00
1171.638, 57273.00
1172.725, 57342.16
1173.812, 57393.92
1174.898, 57389.00
1175.984, 57571.00
1177.071, 57590.00
1178.157, 57600.90
1179.242, 57316.00
1180.328, 57373.00
1181.414, 57221.00
1182.499, 57014.00
1183.584, 57418.00
1184.669, 57351.00
1185.754, 57380.00
1186.839, 57042.00
1187.924, 57406.00
1189.008, 57735.00
1190.092, 56985.00
1191.177, 57054.00
1192.260, 56764.00
1193.344, 57580.00
1194.428, 57274.00
1195.512, 57438.00
1196.595, 56969.00
1197.678, 57149.00
1198.761, 57002.00
1199.844, 57047.00
1200.927, 57365.00
1202.009, 57116.00
1203.092, 56969.00
1204.174, 57045.00
1205.256, 57159.00
1206.338, 57144.99
1207.420, 57215.89
1208.502, 57247.00
1209.583, 57268.00
1210.665, 57264.00
1211.746, 57267.00
1212.827, 57367.00
1213.908, 57132.00
1214.988, 57138.00
1216.069, 57198.00
1217.149, 57291.00
1218.230, 57567.00
1219.310, 57364.00
1220.390, 57254.00
1221.470, 57491.00
1222.549, 57189.00
1223.629, 57369.00
1224.708, 57399.00
1225.787, 57137.00
1226.866, 57325.00
1227.945, 57277.00
1229.024, 57317.00
1230.103, 57668.00
1231.181, 57104.00
1232.259, 56796.00
1233.337, 57231.00
1234.415, 56910.00
1235.493, 57241.00
1236.571, 57383.00
1237.648, 57206.00
1238.726, 57398.00
1239.803, 57315.00
1240.880, 57330.00
1241.957, 57343.00
1243.034, 57318.00
1244.110, 57164.00
1245.187, 57213.00
1246.263, 57398.00
1247.339, 57206.00
1248.415, 57408.00
1249.491, 57489.00
1250.566, 57221.00
1251.642, 57374.00
1252.717, 57383.00
1253.793, 57426.00
1254.868, 57317.00
1255.943, 57259.00
1257.017, 57102.00
1258.092, 57254.00
1259.166, 57435.00
1260.241, 57425.00
1261.315, 57192.00
1262.389, 57381.00
1263.462, 57252.00
1264.536, 57563.00
1265.610, 57142.00
1266.683, 57240.00
1267.756, 57118.00
1268.829, 57100.00
1269.902, 57406.00
1270.975, 57053.00
1272.048, 57359.00
1273.120, 57412.00
1274.192, 57306.00
1275.264, 57275.00
1276.336, 57217.00
1277.408, 57218.27
1278.480, 57058.00
1279.551, 57240.00
1280.623, 57226.00
1281.694, 57193.18
1282.765, 57618.00
1283.836, 57267.00
1284.907, 57782.00
1285.977, 57666.00
1287.048, 57806.00
1288.118, 57687.00
1289.188, 57677.19
1290.258, 57315.00
1291.328, 57646.00
1292.398, 57681.00
1293.467, 57773.00
1294.537, 57378.00
1295.606, 57657.00
1296.675, 57369.00
1297.744, 57403.00
1298.813, 57518.00
1299.882, 57568.00
1300.950, 57594.00
1302.018, 57657.00
1303.086, 57598.00
1304.155, 57608.27
1305.222, 57510.00
1306.290, 57562.00
1307.358, 57594.00
1308.425, 57602.00
1309.492, 57694.00
1310.559, 57660.68
1311.626, 57713.34
1312.693, 57582.00
1313.760, 57776.00
1314.826, 57652.00
1315.893, 57679.00
1316.959, 57678.00
1318.025, 57550.00
1319.091, 57785.00
1320.157, 57542.00
1321.222, 57512.00
1322.288, 57690.00
1323.353, 57634.00
1324.418, 57622.00
1325.483, 57490.00
1326.548, 57632.00
1327.612, 57803.00
1328.677, 57614.00
1329.741, 57793.00
1330.806, 57670.00
1331.870, 57415.00
1332.934, 57772.00
1333.997, 57724.00
1335.061, 57794.00
1336.124, 57667.00
1337.188, 57817.00
1338.251, 57637.00
1339.314, 57702.00
1340.377, 57631.00
1341.439, 57823.00
1342.502, 57685.00
1343.564, 57692.00
1344.627, 57790.00
1345.689, 57796.00
1346.751, 57772.00
1347.813, 57665.00
1348.874, 57845.00
1349.936, 57687.00
1350.997, 57593.00
1352.058, 57714.00
1353.119, 57962.00
1354.180, 57829.00
1355.241, 57846.00
1356.301, 57598.00
1357.362, 57564.00
1358.422, 57906.00
1359.482, 57692.00
1360.542, 57679.00
1361.602, 58063.00
1362.662, 57862.00
1363.721, 57800.00
1364.781, 57677.00
1365.840, 57722.00
1366.899, 57761.00
1367.958, 57882.00
1369.017, 57684.00
1370.075, 57789.00
1371.134, 57671.00
1372.192, 57815.00
1373.250, 57574.00
1374.308, 57927.00
1375.366, 57965.00
1376.424, 57553.00
1377.481, 57859.00
1378.539, 57958.00
1379.596, 58023.00
1380.653, 57742.00
1381.710, 57870.00
1382.767, 57685.00
1383.824, 57707.00
1384.880, 57695.88
1385.937, 57793.00
1386.993, 57647.00
1388.049, 57702.00
1389.105, 57651.00
1390.161, 57970.00
1391.216, 57910.00
1392.272, 57942.00
1393.327, 57827.00
1394.382, 57836.00
1395.437, 57755.00
1396.492, 57959.00
1397.547, 57810.00
1398.601, 57956.00
1399.656, 57763.00
1400.710, 57591.00
1401.764, 57633.68
1402.818, 57614.88
1403.872, 57588.00
1404.925, 57812.00
1405.979, 57853.00
1407.032, 57997.00
1408.085, 57688.00
1409.139, 58141.00
1410.191, 57796.00
1411.244, 58133.00
1412.297, 57800.00
1413.349, 57946.00
1414.402, 57971.00
1415.454, 58086.00
1416.506, 58040.62
1417.558, 57925.00
1418.609, 57924.00
1419.661, 57905.00
1420.712, 57863.00
1421.764, 57843.48
1422.815, 58169.00
1423.866, 57850.00
1424.916, 57885.00
1425.967, 58054.00
1427.018, 57856.00
1428.068, 57862.00
1429.118, 57951.00
1430.168, 58136.00
1431.218, 57846.00
1432.268, 57729.00
1433.318, 57904.00
1434.367, 57781.00
1435.416, 58020.00
1436.465, 58068.00
1437.514, 58189.00
1438.563, 57975.00
1439.612, 57915.00
1440.661, 57998.00
1441.709, 57921.00
1442.757, 58035.00
1443.805, 57868.00
1444.853, 57982.00
1445.901, 58210.00
1446.949, 58066.00
1447.996, 58011.00
1449.044, 57940.00
1450.091, 58255.00
1451.138, 58244.00
1452.185, 58117.00
1453.232, 58129.00
1454.278, 58015.00
1455.325, 58191.00
1456.371, 58217.00
1457.417, 57930.00
1458.463, 57923.00
1459.509, 58229.00
1460.555, 58082.00
1461.601, 58024.00
1462.646, 57955.00
1463.691, 58141.00
1464.737, 58102.00
1465.782, 57944.00
1466.826, 58121.00
1467.871, 57749.00
1468.916, 58033.00
1469.960, 58057.00
1471.004, 57955.00
1472.048, 58249.00
1473.092, 58068.00
1474.136, 58175.00
1475.180, 58251.00
1476.223, 57879.00
1477.267, 58000.00
1478.310, 57904.00
1479.353, 57994.00
1480.396, 58325.00
1481.439, 57836.00
1482.481, 58233.00
1483.524, 58168.00
1484.566, 58075.00
1485.608, 58195.00
1486.650, 57874.00
1487.692, 57796.00
1488.734, 57775.00
1489.775, 57747.66
1490.817, 58134.00
1491.858, 58013.00
1492.899, 57986.00
1493.940, 58330.00
1494.981, 58076.00
1496.022, 58046.00
1497.062, 58093.00
1498.103, 58103.00
1499.143, 57912.00
1500.183, 58077.00
1501.223, 58156.00
1502.263, 58091.00
1503.302, 58237.00
1504.342, 57935.00
1505.381, 58094.00
1506.420, 58309.00
1507.459, 58046.00
1508.498, 58223.00
1509.537, 58178.00
1510.576, 58096.00
1511.614, 58147.00
1512.652, 57935.00
1513.691, 58045.00
1514.729, 57882.00
1515.767, 58047.00
1516.804, 58175.00
1517.842, 57892.00
1518.879, 58275.00
1519.917, 58051.00
1520.954, 57769.00
1521.991, 58387.00
1523.028, 58278.00
1524.064, 57948.00
1525.101, 57980.00
1526.137, 58072.00
1527.173, 58037.00
1528.210, 58103.00
1529.245, 58052.00
1530.281, 57894.24
1531.317, 58099.64
1532.352, 58215.80
1533.388, 58247.50
1534.423, 57941.80
1535.458, 58071.78
1536.493, 58027.16
1537.528, 57975.38
1538.562, 58166.68
1539.597, 57910.06
1540.631, 58097.51
1541.665, 58107.69
1542.700, 58199.00
1543.733, 58114.63
1544.767, 58084.52
1545.801, 58230.15
1546.834, 58278.47
1547.868, 58173.88
1548.901, 58270.34
1549.934, 58007.58
1550.967, 58060.04
1551.999, 58248.52
1553.032, 58152.75
1554.064, 58252.43
1555.097, 58277.67
1556.129, 57964.64
1557.161, 58239.90
1558.193, 58260.75
1559.224, 58020.36
1560.256, 58275.46
1561.287, 58071.09
1562.318, 58030.71
1563.350, 58113.77
1564.380, 58068.16
1565.411, 58225.40
1566.442, 58187.22
1567.472, 58110.00
1568.503, 58174.00
1569.533, 58242.00
1570.563, 58464.00
##END=



