##NAMES=Carrollite
##RRUFFID=R040165
##IDEAL CHEMISTRY=Cu^1+^Co^3+^_2_S_4_
##LOCALITY=Katanga, Democratic Republic of the Congo
##OWNER=RRUFF
##SOURCE=University of Arizona Mineral Museum
##DESCRIPTION=Steel gray octahedral crystals that have a tarnished exterior
##STATUS=The identification of this mineral has been confirmed by X-ray diffraction and chemical analysis
##URL=rruff.info/R040165
##MEASURED CHEMISTRY=(Cu_0.97_Fe_0.03_)Co_1.98_S_4_
##PIN_ID=M00105
##ORIENTATION=Laser parallel to -a* (-1 0 0). Fiducial mark perpendicular to laser is parallel to -c [0 0 -1]
96.62100, 46971.00
97.86200, 46778.29
99.10300, 47512.00
100.3440, 47168.00
101.5850, 46997.00
102.8250, 47837.00
104.0650, 49657.00
105.3050, 51436.00
106.5450, 53226.00
107.7850, 55369.00
109.0250, 53837.00
110.2640, 53286.00
111.5030, 54734.00
112.7420, 56457.00
113.9810, 57511.00
115.2200, 57404.00
116.4580, 56600.00
117.6970, 55313.00
118.9350, 53195.00
120.1730, 51485.00
121.4100, 50670.00
122.6480, 50154.00
123.8850, 48682.00
125.1230, 47639.00
126.3600, 47527.00
127.5960, 47449.00
128.8330, 47971.00
130.0700, 48008.00
131.3060, 48332.00
132.5420, 47462.00
133.7780, 46879.00
135.0140, 46880.00
136.2500, 47465.00
137.4850, 48031.00
138.7200, 47882.00
139.9550, 47559.00
141.1900, 46792.00
142.4250, 46618.00
143.6600, 46583.00
144.8940, 46937.00
146.1280, 47106.00
147.3620, 46725.00
148.5960, 46343.00
149.8300, 46338.00
151.0630, 47714.00
152.2960, 47360.00
153.5300, 47323.00
154.7620, 47043.00
155.9950, 46841.00
157.2280, 46826.00
158.4600, 46373.00
159.6920, 46781.00
160.9250, 47116.00
162.1560, 46933.00
163.3880, 47390.00
164.6200, 48093.00
165.8510, 48006.00
167.0820, 48265.71
168.3130, 47631.00
169.5440, 48008.00
170.7750, 47776.00
172.0050, 47105.00
173.2350, 47054.00
174.4650, 47168.00
175.6950, 47527.00
176.9250, 47511.00
178.1550, 47592.00
179.3840, 47707.00
180.6130, 47300.00
181.8420, 47328.00
183.0710, 47336.00
184.3000, 47432.00
185.5280, 47720.43
186.7570, 48044.00
187.9850, 48448.00
189.2130, 48721.00
190.4400, 49138.00
191.6680, 49322.09
192.8960, 49354.00
194.1230, 49643.00
195.3500, 49622.00
196.5770, 49671.00
197.8030, 49731.00
199.0300, 49873.00
200.2560, 49935.00
201.4830, 49575.55
202.7090, 49852.00
203.9340, 48771.00
205.1600, 47661.00
206.3860, 47299.00
207.6110, 46928.00
208.8360, 46882.00
210.0610, 46705.00
211.2860, 47101.00
212.5100, 47603.00
213.7350, 47878.00
214.9590, 47727.00
216.1830, 47306.00
217.4070, 47215.00
218.6310, 47394.00
219.8540, 47298.00
221.0780, 47402.00
222.3010, 47361.00
223.5240, 47341.00
224.7470, 47556.00
225.9690, 47441.00
227.1920, 47658.00
228.4140, 47445.00
229.6360, 47316.00
230.8580, 47543.00
232.0800, 48027.00
233.3020, 47597.00
234.5230, 48131.00
235.7440, 47990.00
236.9650, 48275.00
238.1860, 48248.00
239.4070, 48187.00
240.6280, 48978.00
241.8480, 49438.00
243.0680, 48914.00
244.2880, 49201.00
245.5080, 49777.00
246.7280, 50014.00
247.9470, 50369.00
249.1660, 50398.00
250.3860, 50706.00
251.6040, 50994.00
252.8230, 50937.00
254.0420, 51386.00
255.2600, 51034.00
256.4790, 51337.00
257.6970, 51922.00
258.9150, 51730.71
260.1320, 51356.91
261.3500, 51842.00
262.5670, 50121.00
263.7840, 49969.00
265.0010, 49698.00
266.2180, 49544.00
267.4350, 49398.00
268.6510, 49276.00
269.8680, 49146.00
271.0840, 49069.00
272.3000, 49101.00
273.5160, 49006.00
274.7310, 48906.00
275.9470, 49053.00
277.1620, 49005.00
278.3770, 48842.00
279.5920, 48527.00
280.8070, 48583.00
282.0210, 49053.00
283.2360, 49199.00
284.4500, 48774.00
285.6640, 48962.00
286.8780, 48627.00
288.0920, 48759.00
289.3050, 49156.00
290.5180, 48974.00
291.7320, 49082.00
292.9450, 48933.00
294.1570, 49174.00
295.3700, 49027.00
296.5830, 49152.00
297.7950, 49176.00
299.0070, 49209.00
300.2190, 49177.00
301.4310, 49212.00
302.6420, 49315.00
303.8540, 49498.00
305.0650, 49533.00
306.2760, 49770.00
307.4870, 49535.00
308.6980, 49633.00
309.9080, 49510.00
311.1190, 49988.00
312.3290, 49444.00
313.5390, 49700.00
314.7490, 49540.00
315.9580, 49533.00
317.1680, 49614.00
318.3770, 49754.00
319.5860, 49854.00
320.7950, 49750.00
322.0040, 49708.00
323.2130, 49913.00
324.4210, 50234.00
325.6290, 49796.00
326.8380, 49810.00
328.0460, 50025.00
329.2530, 49805.00
330.4610, 49647.00
331.6680, 50029.00
332.8760, 49953.00
334.0830, 50271.00
335.2890, 50143.00
336.4960, 50287.00
337.7030, 50251.00
338.9090, 50227.00
340.1150, 50314.16
341.3210, 50531.00
342.5270, 50444.00
343.7330, 50577.00
344.9380, 50725.00
346.1440, 51138.00
347.3490, 51038.00
348.5540, 51070.00
349.7590, 51319.00
350.9630, 51291.00
352.1680, 51417.00
353.3720, 51501.00
354.5760, 51551.00
355.7800, 51618.00
356.9840, 51683.00
358.1870, 51596.00
359.3910, 51383.00
360.5940, 51411.00
361.7970, 51354.00
363.0000, 51621.00
364.2030, 51252.00
365.4050, 50949.00
366.6080, 51398.00
367.8100, 51218.00
369.0120, 51250.00
370.2140, 50980.00
371.4150, 50997.00
372.6170, 50811.00
373.8180, 50950.00
375.0190, 50829.00
376.2200, 50841.00
377.4210, 51352.00
378.6220, 50877.00
379.8220, 50921.00
381.0230, 51340.00
382.2230, 50843.00
383.4230, 51165.00
384.6220, 51167.00
385.8220, 51364.00
387.0220, 51293.00
388.2210, 51467.00
389.4200, 51191.00
390.6190, 51275.00
391.8180, 51204.00
393.0160, 51605.00
394.2150, 51562.00
395.4130, 51517.00
396.6110, 51637.00
397.8090, 51642.00
399.0060, 51675.00
400.2040, 51552.00
401.4010, 51646.00
402.5980, 51478.00
403.7950, 51477.00
404.9920, 51717.00
406.1890, 51497.00
407.3860, 51772.00
408.5820, 51482.00
409.7780, 51904.00
410.9740, 51859.00
412.1700, 51888.00
413.3650, 51949.00
414.5610, 52104.00
415.7560, 52124.00
416.9510, 51975.00
418.1460, 51999.00
419.3410, 51851.00
420.5360, 52148.00
421.7300, 51985.00
422.9240, 52193.00
424.1180, 52022.00
425.3120, 52083.00
426.5060, 51998.00
427.7000, 52184.00
428.8930, 51985.00
430.0860, 52182.00
431.2790, 52323.00
432.4720, 52288.00
433.6650, 52608.00
434.8580, 52091.00
436.0500, 52259.00
437.2420, 52160.00
438.4340, 52732.00
439.6260, 52539.00
440.8180, 52459.00
442.0090, 52567.00
443.2010, 52724.00
444.3920, 52337.00
445.5830, 52619.00
446.7740, 52725.00
447.9640, 52516.00
449.1550, 52626.00
450.3450, 52872.00
451.5350, 52729.00
452.7250, 53099.00
453.9150, 52756.00
455.1050, 52715.00
456.2940, 52853.00
457.4830, 53187.00
458.6720, 53007.00
459.8610, 52675.00
461.0500, 53112.00
462.2390, 52924.00
463.4270, 53089.00
464.6150, 52944.00
465.8040, 52933.00
466.9910, 53223.00
468.1790, 53254.00
469.3670, 53084.00
470.5540, 53226.00
471.7410, 53061.00
472.9280, 53131.00
474.1150, 53168.00
475.3020, 53330.00
476.4890, 53215.00
477.6750, 53414.00
478.8610, 53310.00
480.0470, 53269.00
481.2330, 53266.00
482.4190, 53692.00
483.6040, 53527.00
484.7900, 53649.00
485.9750, 53935.00
487.1600, 53720.00
488.3450, 53958.00
489.5290, 54005.00
490.7140, 53898.00
491.8980, 53837.00
493.0820, 53966.00
494.2660, 53737.00
495.4500, 54106.00
496.6340, 53638.00
497.8170, 53774.00
499.0010, 54063.00
500.1840, 54228.00
501.3670, 54078.00
502.5500, 54018.00
503.7320, 54202.00
504.9150, 54432.00
506.0970, 54592.88
507.2790, 54941.00
508.4610, 54650.00
509.6430, 55190.00
510.8250, 54267.00
512.0060, 54464.00
513.1870, 54211.00
514.3680, 54527.00
515.5490, 54900.00
516.7300, 54527.00
517.9110, 54640.00
519.0910, 54871.00
520.2710, 54516.00
521.4510, 54595.00
522.6310, 54715.00
523.8110, 55030.00
524.9910, 55110.00
526.1700, 55121.31
527.3490, 54985.00
528.5280, 54965.00
529.7070, 55055.00
530.8860, 54864.00
532.0650, 54904.00
533.2430, 54858.00
534.4210, 55157.00
535.5990, 54789.00
536.7770, 55046.00
537.9550, 54789.00
539.1320, 55002.00
540.3100, 55147.00
541.4870, 54870.00
542.6640, 55100.00
543.8410, 55265.00
545.0170, 55375.00
546.1940, 55415.27
547.3700, 55295.00
548.5470, 55371.00
549.7230, 55282.00
550.8980, 55234.00
552.0740, 55459.00
553.2500, 55600.00
554.4250, 55409.00
555.6000, 55683.00
556.7750, 55590.00
557.9500, 55886.00
559.1250, 55751.00
560.2990, 55582.00
561.4730, 56171.00
562.6480, 55687.00
563.8220, 55837.00
564.9950, 55507.00
566.1690, 55809.00
567.3430, 55917.00
568.5160, 55789.00
569.6890, 55804.00
570.8620, 55925.00
572.0350, 56040.00
573.2070, 55789.00
574.3800, 55579.00
575.5520, 55336.00
576.7240, 55306.00
577.8960, 55129.00
579.0680, 55009.00
580.2400, 54907.11
581.4110, 54838.50
582.5830, 54766.56
583.7540, 54799.00
584.9250, 54673.00
586.0950, 54717.00
587.2660, 54691.00
588.4370, 54464.00
589.6070, 54588.00
590.7770, 54415.00
591.9470, 54383.43
593.1170, 54421.00
594.2860, 54401.00
595.4560, 54589.00
596.6250, 54844.00
597.7940, 54906.00
598.9630, 54703.00
600.1320, 54452.00
601.3000, 54754.00
602.4690, 54466.00
603.6370, 54394.00
604.8050, 54256.00
605.9730, 54349.50
607.1410, 54511.00
608.3090, 54680.00
609.4760, 54665.00
610.6430, 54829.00
611.8100, 54713.00
612.9770, 54715.00
614.1440, 54831.00
615.3110, 54653.00
616.4770, 54929.00
617.6430, 54607.00
618.8090, 55038.00
619.9750, 54728.00
621.1410, 54651.00
622.3070, 54827.00
623.4720, 54787.00
624.6370, 54615.00
625.8020, 54669.00
626.9670, 54957.00
628.1320, 54803.00
629.2970, 54927.00
630.4610, 54888.00
631.6250, 55047.00
632.7890, 55113.02
633.9530, 54945.00
635.1170, 55201.00
636.2810, 55412.00
637.4440, 55233.00
638.6070, 55081.00
639.7700, 55302.00
640.9330, 55277.00
642.0960, 55303.00
643.2590, 55002.00
644.4210, 54931.00
645.5830, 55088.00
646.7450, 54871.00
647.9070, 55038.00
649.0690, 54968.00
650.2310, 54862.00
651.3920, 54918.22
652.5530, 54837.00
653.7140, 54975.00
654.8750, 54895.00
656.0360, 55126.00
657.1970, 55485.00
658.3570, 55380.00
659.5170, 55111.00
660.6770, 55343.00
661.8370, 55019.00
662.9970, 54979.00
664.1570, 55129.00
665.3160, 54921.00
666.4750, 55051.00
667.6340, 54999.00
668.7930, 54934.00
669.9520, 55156.00
671.1110, 55125.00
672.2690, 54922.00
673.4270, 54946.00
674.5850, 54919.00
675.7430, 55081.00
676.9010, 54781.00
678.0590, 54885.00
679.2160, 54967.00
680.3730, 55218.00
681.5300, 54942.00
682.6870, 55303.00
683.8440, 55074.00
685.0010, 54872.00
686.1570, 54992.00
687.3130, 55201.00
688.4690, 55012.00
689.6250, 55398.00
690.7810, 55274.00
691.9370, 54995.00
693.0920, 55318.00
694.2470, 55290.00
695.4020, 55295.00
696.5570, 55452.00
697.7120, 55192.00
698.8670, 55058.00
700.0210, 55095.00
701.1750, 55108.00
702.3290, 55186.00
703.4830, 55154.00
704.6370, 55382.00
705.7910, 55319.00
706.9440, 55173.00
708.0970, 55363.00
709.2510, 55322.00
710.4030, 55047.00
711.5560, 55366.00
712.7090, 55120.00
713.8610, 54992.00
715.0140, 55086.00
716.1660, 54975.54
717.3180, 55061.00
718.4690, 55024.00
719.6210, 55116.61
720.7730, 55440.00
721.9240, 55328.00
723.0750, 55393.00
724.2260, 55461.00
725.3770, 55360.00
726.5270, 55339.00
727.6780, 55534.00
728.8280, 55286.00
729.9780, 55412.00
731.1280, 55204.00
732.2780, 55677.00
733.4280, 55584.00
734.5770, 55597.00
735.7260, 55692.00
736.8760, 55589.00
738.0250, 55496.00
739.1730, 55648.00
740.3220, 55573.00
741.4700, 55602.00
742.6190, 55572.00
743.7670, 55647.00
744.9150, 55529.00
746.0630, 55513.00
747.2100, 55904.00
748.3580, 55771.00
749.5050, 55624.00
750.6520, 55963.00
751.7990, 55671.00
752.9460, 55696.00
754.0930, 55741.00
755.2390, 55756.00
756.3860, 55816.00
757.5320, 55699.00
758.6780, 55860.00
759.8240, 55742.00
760.9690, 56056.00
762.1150, 55771.00
763.2600, 55956.00
764.4060, 55662.00
765.5510, 55903.00
766.6950, 55846.00
767.8400, 55610.00
768.9850, 55706.00
770.1290, 55665.00
771.2730, 55906.67
772.4170, 56110.00
773.5610, 56002.00
774.7050, 56164.66
775.8480, 55847.00
776.9920, 56286.00
778.1350, 55984.00
779.2780, 56150.00
780.4210, 56145.00
781.5640, 56274.00
782.7060, 56228.00
783.8490, 55835.00
784.9910, 56154.00
786.1330, 55978.00
787.2750, 56304.00
788.4170, 55969.00
789.5580, 55809.00
790.7000, 56027.00
791.8410, 56102.00
792.9820, 55570.00
794.1230, 55906.00
795.2640, 55766.16
796.4040, 55963.00
797.5450, 55998.00
798.6850, 55938.00
799.8250, 56105.33
800.9650, 56353.00
802.1050, 56326.00
803.2450, 56421.00
804.3840, 56597.00
805.5230, 56520.00
806.6630, 56526.67
807.8020, 56359.00
808.9400, 56406.00
810.0790, 56364.00
811.2170, 56397.00
812.3560, 56298.00
813.4940, 56574.00
814.6320, 56292.00
815.7700, 56522.00
816.9070, 56558.00
818.0450, 56188.00
819.1820, 56517.00
820.3190, 56754.00
821.4560, 56406.00
822.5930, 56596.00
823.7300, 56297.00
824.8670, 56573.00
826.0030, 56548.00
827.1390, 56616.00
828.2750, 56431.00
829.4110, 56743.00
830.5470, 56576.00
831.6820, 56583.00
832.8180, 56784.00
833.9530, 56300.00
835.0880, 56363.00
836.2230, 56641.00
837.3580, 56692.00
838.4920, 56692.00
839.6270, 56578.00
840.7610, 56900.00
841.8950, 56311.00
843.0290, 56793.00
844.1630, 56573.00
845.2960, 56677.00
846.4300, 56384.00
847.5630, 56570.00
848.6960, 56564.00
849.8290, 56633.00
850.9620, 56824.00
852.0940, 56795.00
853.2270, 56713.00
854.3590, 56633.00
855.4910, 56861.00
856.6230, 56525.00
857.7550, 57105.00
858.8870, 56639.00
860.0180, 56707.00
861.1500, 56777.00
862.2810, 56792.00
863.4120, 56804.00
864.5430, 56707.00
865.6730, 56767.63
866.8040, 56761.00
867.9340, 56811.00
869.0640, 56843.89
870.1940, 56850.00
871.3240, 56843.00
872.4540, 56840.00
873.5830, 56847.00
874.7130, 56940.00
875.8420, 56696.00
876.9710, 56752.00
878.1000, 57067.00
879.2290, 56797.00
880.3570, 56876.00
881.4860, 56766.00
882.6140, 57126.00
883.7420, 57037.00
884.8700, 57191.00
885.9980, 56939.00
887.1250, 56979.00
888.2530, 57075.00
889.3800, 57058.00
890.5070, 57007.00
891.6340, 56965.00
892.7610, 56979.20
893.8880, 56926.00
895.0140, 57068.00
896.1400, 57289.00
897.2670, 57479.00
898.3930, 57236.00
899.5180, 57400.00
900.6440, 57203.00
901.7700, 57280.00
902.8950, 57254.00
904.0200, 57409.00
905.1450, 57498.00
906.2700, 57374.00
907.3950, 57405.00
908.5190, 57118.00
909.6440, 57493.00
910.7680, 57372.00
911.8920, 57648.00
913.0160, 57401.00
914.1400, 57313.00
915.2630, 57285.00
916.3870, 57592.00
917.5100, 57355.00
918.6330, 57543.00
919.7560, 57396.00
920.8790, 57486.00
922.0010, 57524.00
923.1240, 57483.00
924.2460, 57643.00
925.3680, 57856.00
926.4900, 57590.00
927.6120, 57685.00
928.7340, 57842.00
929.8550, 57754.00
930.9760, 58036.00
932.0980, 57950.71
933.2190, 57973.34
934.3390, 57872.00
935.4600, 57912.00
936.5810, 57837.00
937.7010, 57768.00
938.8210, 57817.00
939.9410, 57667.00
941.0610, 57736.00
942.1810, 57971.00
943.3010, 57625.00
944.4200, 57849.00
945.5390, 58156.00
946.6580, 58093.00
947.7770, 58026.00
948.8960, 58022.00
950.0150, 57985.00
951.1330, 58072.00
952.2510, 57930.00
953.3690, 58050.00
954.4870, 58045.00
955.6050, 58056.00
956.7230, 58044.00
957.8400, 58149.00
958.9580, 58357.00
960.0750, 58169.00
961.1920, 58326.00
962.3090, 57970.00
963.4250, 58178.00
964.5420, 58244.00
965.6580, 58215.00
966.7740, 58258.00
967.8900, 58280.42
969.0060, 58352.00
970.1220, 58332.00
971.2380, 58339.34
972.3530, 58371.64
973.4680, 58378.00
974.5830, 58329.00
975.6980, 58427.00
976.8130, 58398.00
977.9280, 58621.00
979.0420, 58365.00
980.1560, 58711.00
981.2710, 58595.00
982.3850, 58544.00
983.4980, 58311.00
984.6120, 58673.00
985.7260, 58392.00
986.8390, 58493.00
987.9520, 58881.00
989.0650, 58525.00
990.1780, 58454.00
991.2910, 58489.00
992.4030, 58753.00
993.5160, 58652.00
994.6280, 58578.00
995.7400, 58801.00
996.8520, 58680.00
997.9640, 58965.00
999.0750, 58920.00
1000.187, 58900.00
1001.298, 58704.00
1002.409, 58800.00
1003.520, 58948.00
1004.631, 58803.00
1005.741, 58956.00
1006.852, 58757.00
1007.962, 58683.00
1009.072, 59017.00
1010.182, 59011.00
1011.292, 58978.00
1012.402, 58613.00
1013.511, 58960.00
1014.621, 58816.00
1015.730, 59050.00
1016.839, 59081.23
1017.948, 58968.00
1019.056, 59110.00
1020.165, 58985.00
1021.273, 58921.00
1022.382, 58964.11
1023.490, 59149.00
1024.598, 59026.00
1025.706, 59118.00
1026.813, 59298.00
1027.921, 58999.00
1029.028, 59066.00
1030.135, 59215.00
1031.242, 59031.00
1032.349, 59185.00
1033.456, 59302.00
1034.562, 59005.00
1035.668, 59362.00
1036.775, 59202.00
1037.881, 59184.00
1038.987, 59405.00
1040.092, 59213.00
1041.198, 59285.58
1042.303, 59229.00
1043.408, 59298.00
1044.514, 59354.00
1045.618, 59476.00
1046.723, 59400.00
1047.828, 59240.00
1048.932, 59324.00
1050.037, 59394.00
1051.141, 59926.00
1052.245, 59624.00
1053.349, 59663.00
1054.452, 59701.00
1055.556, 59446.00
1056.659, 59489.00
1057.762, 59645.00
1058.865, 59809.00
1059.968, 59611.00
1061.071, 59850.00
1062.174, 59655.00
1063.276, 59892.00
1064.378, 59559.00
1065.480, 59523.00
1066.582, 59970.00
1067.684, 59560.00
1068.786, 59649.00
1069.887, 59625.00
1070.988, 59595.00
1072.090, 59707.83
1073.191, 60000.00
1074.291, 59862.00
1075.392, 59962.59
1076.493, 59984.00
1077.593, 59933.00
1078.693, 59826.00
1079.793, 60043.00
1080.893, 59631.00
1081.993, 60059.00
1083.092, 59801.00
1084.192, 60150.00
1085.291, 59790.00
1086.390, 60095.00
1087.489, 59740.00
1088.588, 59902.00
1089.686, 59742.00
1090.785, 59987.00
1091.883, 60063.00
1092.981, 60102.00
1094.079, 59980.00
1095.177, 60115.00
1096.275, 59817.00
1097.373, 59967.00
1098.470, 60019.00
1099.567, 59894.00
1100.664, 59919.00
1101.761, 59772.00
1102.858, 59600.00
1103.954, 59628.00
1105.051, 59680.00
1106.147, 59899.00
1107.243, 59872.60
1108.339, 60001.00
1109.435, 60014.00
1110.531, 59917.00
1111.626, 60136.00
1112.722, 59537.00
1113.817, 59984.00
1114.912, 59682.00
1116.007, 60101.00
1117.101, 59964.00
1118.196, 60021.00
1119.290, 60106.00
1120.385, 60201.00
1121.479, 60102.00
1122.573, 60123.00
1123.666, 59865.00
1124.760, 60019.00
1125.853, 59902.00
1126.947, 59557.00
1128.040, 59779.00
1129.133, 59775.00
1130.226, 59623.00
1131.318, 59767.00
1132.411, 59797.00
1133.503, 59605.00
1134.596, 59494.00
1135.688, 59623.00
1136.780, 59297.00
1137.871, 59698.00
1138.963, 59194.00
1140.054, 59777.00
1141.146, 59647.00
1142.237, 59488.00
1143.328, 59519.00
1144.419, 59649.00
1145.509, 59654.00
1146.600, 59510.00
1147.690, 59512.00
1148.780, 59460.00
1149.870, 59170.00
1150.960, 59990.00
1152.050, 59952.00
1153.139, 60341.00
1154.229, 59623.00
1155.318, 59333.00
1156.407, 59497.00
1157.496, 59256.00
1158.585, 59613.00
1159.674, 59290.00
1160.762, 59394.00
1161.850, 59450.00
1162.939, 59534.00
1164.027, 59550.00
1165.114, 59431.00
1166.202, 59065.00
1167.290, 59335.00
1168.377, 59592.00
1169.464, 59123.00
1170.551, 59565.00
1171.638, 59388.00
1172.725, 59368.00
1173.812, 59277.00
1174.898, 59402.00
1175.984, 59546.00
1177.071, 59378.00
1178.157, 59429.00
1179.242, 59395.00
1180.328, 59395.00
1181.414, 59569.00
1182.499, 59336.00
1183.584, 59283.00
1184.669, 59374.00
1185.754, 59466.00
1186.839, 59531.00
1187.924, 59296.00
1189.008, 59357.00
1190.092, 59356.29
1191.177, 59397.00
1192.260, 59452.00
1193.344, 59409.00
1194.428, 59490.00
1195.512, 59386.00
1196.595, 59411.71
1197.678, 59575.59
1198.761, 59358.00
1199.844, 59118.00
1200.927, 58992.53
1202.009, 59418.00
1203.092, 58968.00
1204.174, 59324.00
1205.256, 59629.00
1206.338, 59528.00
1207.420, 59408.00
1208.502, 59300.00
1209.583, 59438.00
1210.665, 59393.00
1211.746, 59487.83
1212.827, 59395.00
1213.908, 59645.00
1214.988, 59356.00
1216.069, 59294.00
1217.149, 59514.00
1218.230, 59374.00
1219.310, 59532.00
1220.390, 59187.00
1221.470, 59608.00
1222.549, 59788.00
1223.629, 59418.00
1224.708, 59265.00
1225.787, 59854.00
1226.866, 59611.00
1227.945, 59425.00
1229.024, 59320.00
1230.103, 59378.00
1231.181, 59345.00
1232.259, 59416.00
1233.337, 59299.00
1234.415, 59389.00
1235.493, 59233.07
1236.571, 59272.18
1237.648, 59118.00
1238.726, 59242.00
1239.803, 59590.00
1240.880, 59493.00
1241.957, 59339.00
1243.034, 59158.00
1244.110, 59640.00
1245.187, 59146.00
1246.263, 59269.00
1247.339, 59553.00
1248.415, 59212.00
1249.491, 59410.00
1250.566, 59503.00
1251.642, 59550.00
1252.717, 59698.87
1253.793, 59504.00
1254.868, 59731.00
1255.943, 59696.00
1257.017, 59324.00
1258.092, 59504.00
1259.166, 59566.00
1260.241, 59633.00
1261.315, 59476.00
1262.389, 59418.00
1263.462, 59438.89
1264.536, 59459.00
1265.610, 59464.00
1266.683, 59526.77
1267.756, 59677.00
1268.829, 59633.00
1269.902, 59725.00
1270.975, 59741.00
1272.048, 59428.00
1273.120, 59390.00
1274.192, 59981.00
1275.264, 59478.00
1276.336, 59595.00
1277.408, 59732.00
1278.480, 59417.00
1279.551, 59536.00
1280.623, 59404.00
1281.694, 59438.00
1282.765, 59852.00
1283.836, 59416.00
1284.907, 59695.00
1285.977, 59474.00
1287.048, 59726.00
1288.118, 59726.00
1289.188, 59843.00
1290.258, 59546.00
1291.328, 59488.00
1292.398, 59529.54
1293.467, 59447.00
1294.537, 59610.00
1295.606, 59642.00
1296.675, 59705.00
1297.744, 59742.00
1298.813, 59735.00
1299.882, 59923.00
1300.950, 59904.00
1302.018, 59763.00
1303.086, 59875.00
1304.155, 59699.00
1305.222, 59618.00
1306.290, 59993.00
1307.358, 59416.00
1308.425, 59694.00
1309.492, 59599.98
1310.559, 60352.00
1311.626, 59566.00
1312.693, 59769.00
1313.760, 59844.00
1314.826, 59788.00
1315.893, 60028.00
1316.959, 59841.00
1318.025, 59674.00
1319.091, 59715.00
1320.157, 59804.00
1321.222, 59982.00
1322.288, 59941.00
1323.353, 59671.00
1324.418, 59901.00
1325.483, 59759.00
1326.548, 59932.00
1327.612, 59850.00
1328.677, 59980.00
1329.741, 59905.00
1330.806, 60215.00
1331.870, 59940.00
1332.934, 59743.00
1333.997, 60092.00
1335.061, 59911.00
1336.124, 59997.00
1337.188, 59971.00
1338.251, 60022.00
1339.314, 59851.00
1340.377, 59805.00
1341.439, 59830.00
1342.502, 59792.14
1343.564, 59752.00
1344.627, 59946.00
1345.689, 59965.00
1346.751, 60237.00
1347.813, 60183.00
1348.874, 60156.00
1349.936, 60206.00
1350.997, 60029.00
1352.058, 59980.00
1353.119, 60082.00
1354.180, 60146.00
1355.241, 60258.00
1356.301, 60272.00
1357.362, 60222.00
1358.422, 59887.00
1359.482, 59973.00
1360.542, 59808.00
1361.602, 59935.00
1362.662, 60187.00
1363.721, 60149.00
1364.781, 59942.00
1365.840, 60232.00
1366.899, 60061.83
1367.958, 60001.00
1369.017, 60039.00
1370.075, 59930.00
1371.134, 60026.00
1372.192, 60212.00
1373.250, 59955.00
1374.308, 60215.00
1375.366, 60105.00
1376.424, 59880.00
1377.481, 59971.00
1378.539, 60206.00
1379.596, 60204.00
1380.653, 60177.00
1381.710, 60117.00
1382.767, 60073.51
1383.824, 60040.83
1384.880, 60001.59
1385.937, 59982.00
1386.993, 59965.00
1388.049, 59957.00
1389.105, 59987.00
1390.161, 60203.00
1391.216, 60336.00
1392.272, 60146.00
1393.327, 60235.00
1394.382, 59940.00
1395.437, 59937.00
1396.492, 60057.00
1397.547, 60176.00
1398.601, 60032.00
1399.656, 60001.00
1400.710, 60067.00
1401.764, 60269.00
1402.818, 60326.00
1403.872, 60045.00
1404.925, 60086.00
1405.979, 59909.00
1407.032, 60198.00
1408.085, 60477.00
1409.139, 59954.00
1410.191, 60243.00
1411.244, 60241.00
1412.297, 60119.00
1413.349, 60569.00
1414.402, 60110.00
1415.454, 60108.00
1416.506, 60147.00
1417.558, 60501.00
1418.609, 59987.00
1419.661, 60522.00
1420.712, 60149.00
1421.764, 60181.00
1422.815, 60159.00
1423.866, 60073.47
1424.916, 60002.00
1425.967, 60119.00
1427.018, 60032.00
1428.068, 60081.00
1429.118, 60346.00
1430.168, 60178.00
1431.218, 60103.00
1432.268, 60061.00
1433.318, 60272.00
1434.367, 60551.00
1435.416, 60301.00
1436.465, 60501.00
1437.514, 60324.00
1438.563, 60590.00
1439.612, 60387.00
1440.661, 60233.00
1441.709, 60378.00
1442.757, 60331.45
1443.805, 60296.00
1444.853, 60514.00
1445.901, 60414.00
1446.949, 60477.00
1447.996, 60298.00
1449.044, 60396.00
1450.091, 60575.00
1451.138, 60437.00
1452.185, 60181.00
1453.232, 60173.00
1454.278, 60387.00
1455.325, 60571.00
1456.371, 60518.00
1457.417, 60532.00
1458.463, 60578.00
1459.509, 60212.00
1460.555, 60333.00
1461.601, 60255.00
1462.646, 60602.00
1463.691, 60419.00
1464.737, 60541.00
1465.782, 60401.00
1466.826, 60420.00
1467.871, 60429.00
1468.916, 60481.00
1469.960, 60472.45
1471.004, 60285.00
1472.048, 60409.00
1473.092, 60369.00
1474.136, 60190.00
1475.180, 60246.86
1476.223, 60528.00
1477.267, 60292.00
1478.310, 60296.00
1479.353, 60577.00
1480.396, 60373.00
1481.439, 60244.00
1482.481, 60565.00
1483.524, 60664.00
1484.566, 60566.00
1485.608, 60364.00
1486.650, 60842.00
1487.692, 60380.00
1488.734, 60420.00
1489.775, 60319.00
1490.817, 60558.00
1491.858, 60382.00
1492.899, 60130.00
1493.940, 60366.00
1494.981, 60290.00
1496.022, 60194.00
1497.062, 60227.00
1498.103, 60354.00
1499.143, 60220.00
1500.183, 60337.86
1501.223, 60320.00
1502.263, 60476.00
1503.302, 60392.00
1504.342, 60525.00
1505.381, 60669.00
1506.420, 60232.00
1507.459, 60304.00
1508.498, 60220.00
1509.537, 60402.00
1510.576, 60409.00
1511.614, 60298.00
1512.652, 60369.00
1513.691, 60436.00
1514.729, 60384.00
1515.767, 60527.00
1516.804, 60472.00
1517.842, 60621.00
1518.879, 60468.00
1519.917, 60462.77
1520.954, 60634.00
1521.991, 60364.00
1523.028, 60350.00
1524.064, 60387.00
1525.101, 60451.00
1526.137, 60421.00
1527.173, 60215.00
1528.210, 60702.00
1529.245, 60746.00
1530.281, 60526.00
1531.317, 60583.00
1532.352, 60374.82
1533.388, 60570.09
1534.423, 60680.89
1535.458, 60711.77
1536.493, 60423.31
1537.528, 60547.20
1538.562, 60505.84
1539.597, 60457.70
1540.631, 60639.62
1541.665, 60397.61
1542.700, 60575.89
1543.733, 60586.39
1544.767, 60673.68
1545.801, 60594.70
1546.834, 60567.07
1547.868, 60705.77
1548.901, 60752.36
1549.934, 60654.24
1550.967, 60746.41
1551.999, 60498.58
1553.032, 60549.11
1554.064, 60728.35
1555.097, 60638.59
1556.129, 60733.79
1557.161, 60758.55
1558.193, 60463.16
1559.224, 60724.54
1560.256, 60745.13
1561.287, 60518.49
1562.318, 60760.79
1563.350, 60568.24
1564.380, 60530.89
1565.411, 60610.37
1566.442, 60291.00
1567.472, 60705.00
1568.503, 60748.00
1569.533, 60154.00
1570.563, 60942.00
##END=



