##NAMES=Carrollite
##RRUFFID=R050089
##IDEAL CHEMISTRY=Cu^1+^Co^3+^_2_S_4_
##LOCALITY=Kambove, Katanga, Democratic Republic of the Congo
##OWNER=RRUFF
##SOURCE=Rock Currier
##DESCRIPTION=Steel-gray octahedral crystal associated with calcite
##STATUS=The identification of this mineral has been confirmed by X-ray diffraction and chemical analysis
##URL=rruff.info/R050089
##MEASURED CHEMISTRY=(Cu_0.96_Fe^2+^_0.04_)_Σ=1_Co_2.00_S_4.00_ ; the vein is pyrite: (Fe_0.99_Co_0.01_)_Σ=1_S_2.00_
##PIN_ID=L00215
##ORIENTATION=Laser parallel to a* (1 0 0). Fiducial mark perpendicular to laser is parallel to b [0 1 0]
95.38000, 40752.00
96.62100, 40476.00
97.86200, 40598.00
99.10300, 41134.00
100.3440, 40832.00
101.5850, 41262.00
102.8250, 42044.00
104.0650, 43041.00
105.3050, 44797.07
106.5450, 45237.60
107.7850, 45576.79
109.0250, 45820.08
110.2640, 45680.09
111.5030, 46034.82
112.7420, 47906.00
113.9810, 50315.00
115.2200, 52723.00
116.4580, 57316.00
117.6970, 61323.00
118.9350, 60489.00
120.1730, 52863.00
121.4100, 47611.00
122.6480, 44126.00
123.8850, 42505.00
125.1230, 41464.00
126.3600, 41139.00
127.5960, 41038.00
128.8330, 41291.00
130.0700, 41472.00
131.3060, 41330.00
132.5420, 40865.00
133.7780, 40670.00
135.0140, 40882.00
136.2500, 41043.00
137.4850, 41168.00
138.7200, 41442.00
139.9550, 41278.00
141.1900, 40720.00
142.4250, 40563.00
143.6600, 40586.00
144.8940, 40422.00
146.1280, 40447.00
147.3620, 40549.00
148.5960, 40656.00
149.8300, 40609.00
151.0630, 40758.00
152.2960, 40715.00
153.5300, 40756.00
154.7620, 40727.00
155.9950, 40477.00
157.2280, 40495.00
158.4600, 40539.21
159.6920, 40625.00
160.9250, 40792.00
162.1560, 41082.00
163.3880, 41307.00
164.6200, 41265.00
165.8510, 41200.00
167.0820, 40888.00
168.3130, 41274.00
169.5440, 41110.00
170.7750, 41002.09
172.0050, 41257.39
173.2350, 41411.34
174.4650, 41469.39
175.6950, 41144.32
176.9250, 41313.97
178.1550, 41285.36
179.3840, 41248.60
180.6130, 41487.87
181.8420, 41218.50
183.0710, 41252.00
184.3000, 41506.00
185.5280, 41778.00
186.7570, 42189.00
187.9850, 42226.00
189.2130, 42396.00
190.4400, 42611.00
191.6680, 43102.00
192.8960, 42967.00
194.1230, 43134.00
195.3500, 43338.00
196.5770, 43317.00
197.8030, 43474.00
199.0300, 43823.00
200.2560, 43872.00
201.4830, 44046.00
202.7090, 43355.00
203.9340, 42260.00
205.1600, 41219.00
206.3860, 40565.00
207.6110, 40721.00
208.8360, 40431.00
210.0610, 40639.00
211.2860, 40768.00
212.5100, 40620.00
213.7350, 40888.00
214.9590, 40822.00
216.1830, 40975.00
217.4070, 41034.00
218.6310, 40824.00
219.8540, 40961.00
221.0780, 40979.00
222.3010, 41106.00
223.5240, 41059.00
224.7470, 41251.00
225.9690, 41123.00
227.1920, 41126.00
228.4140, 40882.00
229.6360, 41134.00
230.8580, 40811.00
232.0800, 41423.00
233.3020, 41289.00
234.5230, 41305.00
235.7440, 41431.88
236.9650, 41805.00
238.1860, 41309.00
239.4070, 41657.00
240.6280, 41507.00
241.8480, 41424.00
243.0680, 41631.00
244.2880, 41485.00
245.5080, 41675.00
246.7280, 41759.00
247.9470, 41625.00
249.1660, 41463.00
250.3860, 41987.00
251.6040, 42006.00
252.8230, 42398.00
254.0420, 42384.00
255.2600, 42059.00
256.4790, 42406.00
257.6970, 43361.00
258.9150, 43199.95
260.1320, 44369.00
261.3500, 43238.00
262.5670, 43371.00
263.7840, 42506.00
265.0010, 42234.53
266.2180, 42483.61
267.4350, 42631.36
268.6510, 42683.19
269.8680, 42351.90
271.0840, 42515.34
272.3000, 42480.50
273.5160, 42437.54
274.7310, 42670.59
275.9470, 42395.02
277.1620, 42588.00
278.3770, 42757.00
279.5920, 42217.00
280.8070, 42435.00
282.0210, 42223.00
283.2360, 42543.00
284.4500, 42674.00
285.6640, 42529.00
286.8780, 42631.00
288.0920, 42411.00
289.3050, 42688.00
290.5180, 42559.00
291.7320, 42610.00
292.9450, 42598.00
294.1570, 42828.00
295.3700, 42635.00
296.5830, 42950.00
297.7950, 42730.00
299.0070, 42927.00
300.2190, 43108.00
301.4310, 42932.00
302.6420, 43072.00
303.8540, 43164.00
305.0650, 43390.00
306.2760, 43246.00
307.4870, 43241.00
308.6980, 43400.00
309.9080, 43215.00
311.1190, 43515.00
312.3290, 43225.00
313.5390, 43375.00
314.7490, 43518.00
315.9580, 43152.00
317.1680, 43355.00
318.3770, 43476.00
319.5860, 43522.00
320.7950, 43499.00
322.0040, 43680.00
323.2130, 43310.00
324.4210, 43660.00
325.6290, 43645.00
326.8380, 43379.00
328.0460, 43598.00
329.2530, 43576.00
330.4610, 43810.00
331.6680, 43576.00
332.8760, 43889.00
334.0830, 43899.00
335.2890, 43763.00
336.4960, 44110.00
337.7030, 43980.00
338.9090, 43942.00
340.1150, 44075.00
341.3210, 44231.00
342.5270, 43998.00
343.7330, 44164.00
344.9380, 44272.00
346.1440, 44352.00
347.3490, 44482.00
348.5540, 44483.00
349.7590, 44470.00
350.9630, 44720.00
352.1680, 44414.00
353.3720, 44678.00
354.5760, 44528.00
355.7800, 44782.00
356.9840, 44767.00
358.1870, 44812.00
359.3910, 44803.00
360.5940, 44808.50
361.7970, 44763.30
363.0000, 44846.00
364.2030, 44684.00
365.4050, 44767.00
366.6080, 44837.00
367.8100, 45014.00
369.0120, 44836.00
370.2140, 45054.00
371.4150, 44863.00
372.6170, 44993.00
373.8180, 44887.00
375.0190, 44784.00
376.2200, 44935.00
377.4210, 44922.00
378.6220, 44930.00
379.8220, 45034.00
381.0230, 44961.00
382.2230, 44876.00
383.4230, 44957.97
384.6220, 45040.00
385.8220, 45069.00
387.0220, 45145.00
388.2210, 45278.00
389.4200, 45044.00
390.6190, 45464.00
391.8180, 45073.00
393.0160, 45301.00
394.2150, 45409.00
395.4130, 45350.00
396.6110, 45451.00
397.8090, 45598.00
399.0060, 45283.00
400.2040, 45479.00
401.4010, 45530.00
402.5980, 45650.00
403.7950, 45444.00
404.9920, 45434.00
406.1890, 45515.00
407.3860, 45664.00
408.5820, 45678.00
409.7780, 45884.00
410.9740, 45736.00
412.1700, 45681.00
413.3650, 46095.00
414.5610, 46063.00
415.7560, 45949.00
416.9510, 45751.00
418.1460, 45757.00
419.3410, 45952.00
420.5360, 45847.00
421.7300, 46034.00
422.9240, 46298.00
424.1180, 46015.00
425.3120, 46163.00
426.5060, 46495.00
427.7000, 46316.00
428.8930, 46105.00
430.0860, 46321.00
431.2790, 46416.00
432.4720, 46469.00
433.6650, 46450.00
434.8580, 46432.00
436.0500, 46647.00
437.2420, 46707.00
438.4340, 46429.00
439.6260, 46626.00
440.8180, 46620.00
442.0090, 46300.00
443.2010, 46714.00
444.3920, 46547.00
445.5830, 46478.00
446.7740, 46588.00
447.9640, 46887.00
449.1550, 46900.00
450.3450, 46739.00
451.5350, 46950.00
452.7250, 46899.00
453.9150, 46938.00
455.1050, 46892.00
456.2940, 47117.00
457.4830, 46961.00
458.6720, 46979.00
459.8610, 47053.00
461.0500, 47364.00
462.2390, 47423.00
463.4270, 47183.00
464.6150, 47326.00
465.8040, 47078.00
466.9910, 47311.00
468.1790, 47070.00
469.3670, 47177.00
470.5540, 47163.00
471.7410, 47350.00
472.9280, 47542.00
474.1150, 47461.00
475.3020, 47515.00
476.4890, 47495.00
477.6750, 47370.00
478.8610, 47754.00
480.0470, 47703.00
481.2330, 47885.00
482.4190, 47813.00
483.6040, 47769.00
484.7900, 48116.00
485.9750, 47947.00
487.1600, 47886.00
488.3450, 47884.00
489.5290, 48050.00
490.7140, 47959.00
491.8980, 48086.00
493.0820, 47863.00
494.2660, 47920.28
495.4500, 48106.00
496.6340, 47995.00
497.8170, 48150.00
499.0010, 48397.00
500.1840, 48282.00
501.3670, 48498.00
502.5500, 48312.00
503.7320, 48348.00
504.9150, 48552.00
506.0970, 48641.00
507.2790, 48631.00
508.4610, 48629.00
509.6430, 48481.00
510.8250, 48861.00
512.0060, 48459.00
513.1870, 48915.00
514.3680, 48835.00
515.5490, 48787.00
516.7300, 48740.00
517.9110, 48844.00
519.0910, 48812.00
520.2710, 49433.00
521.4510, 49464.00
522.6310, 49221.00
523.8110, 48868.00
524.9910, 48665.00
526.1700, 48890.00
527.3490, 49069.00
528.5280, 49074.00
529.7070, 49230.00
530.8860, 49108.00
532.0650, 49366.00
533.2430, 49195.00
534.4210, 49070.00
535.5990, 49221.00
536.7770, 49159.00
537.9550, 49203.00
539.1320, 49230.00
540.3100, 49301.00
541.4870, 49350.94
542.6640, 49424.53
543.8410, 49493.00
545.0170, 49576.00
546.1940, 49681.00
547.3700, 49737.00
548.5470, 49789.00
549.7230, 50087.00
550.8980, 50002.00
552.0740, 49901.00
553.2500, 49776.00
554.4250, 49991.00
555.6000, 49830.00
556.7750, 49973.00
557.9500, 49930.00
559.1250, 50090.00
560.2990, 50184.00
561.4730, 50078.00
562.6480, 50106.00
563.8220, 50227.00
564.9950, 50030.00
566.1690, 50092.00
567.3430, 50217.00
568.5160, 50126.00
569.6890, 50235.00
570.8620, 50222.00
572.0350, 50141.00
573.2070, 50158.00
574.3800, 49924.00
575.5520, 49795.00
576.7240, 49498.00
577.8960, 49506.00
579.0680, 49492.00
580.2400, 49208.00
581.4110, 49278.00
582.5830, 48829.00
583.7540, 48714.00
584.9250, 48466.00
586.0950, 48572.00
587.2660, 48818.00
588.4370, 48476.00
589.6070, 48557.00
590.7770, 48416.00
591.9470, 48519.00
593.1170, 48378.00
594.2860, 48709.00
595.4560, 48421.00
596.6250, 48272.00
597.7940, 48530.00
598.9630, 48598.00
600.1320, 48523.00
601.3000, 48609.68
602.4690, 48606.64
603.6370, 48588.00
604.8050, 48606.00
605.9730, 48669.00
607.1410, 48593.00
608.3090, 48578.00
609.4760, 48745.00
610.6430, 48545.00
611.8100, 48197.00
612.9770, 48964.00
614.1440, 48498.00
615.3110, 48365.00
616.4770, 48551.00
617.6430, 48556.00
618.8090, 48573.26
619.9750, 48645.00
621.1410, 48655.00
622.3070, 48799.00
623.4720, 48873.00
624.6370, 48744.00
625.8020, 48778.00
626.9670, 49034.00
628.1320, 48844.00
629.2970, 48754.00
630.4610, 48892.00
631.6250, 48523.00
632.7890, 48838.00
633.9530, 48794.00
635.1170, 48736.00
636.2810, 48726.00
637.4440, 49056.00
638.6070, 48999.00
639.7700, 48936.00
640.9330, 48909.00
642.0960, 48662.00
643.2590, 48730.00
644.4210, 48728.18
645.5830, 49004.00
646.7450, 48899.00
647.9070, 48997.00
649.0690, 49140.00
650.2310, 48982.00
651.3920, 49041.63
652.5530, 48815.00
653.7140, 48880.00
654.8750, 49075.00
656.0360, 48871.00
657.1970, 48519.00
658.3570, 49139.00
659.5170, 48517.00
660.6770, 48770.00
661.8370, 48627.00
662.9970, 48960.00
664.1570, 48902.00
665.3160, 48837.00
666.4750, 48823.00
667.6340, 48768.00
668.7930, 48777.27
669.9520, 48663.00
671.1110, 48752.00
672.2690, 48955.00
673.4270, 48844.00
674.5850, 48810.00
675.7430, 49031.00
676.9010, 49067.00
678.0590, 48579.00
679.2160, 49008.00
680.3730, 48695.00
681.5300, 49110.00
682.6870, 48784.00
683.8440, 48925.00
685.0010, 48951.00
686.1570, 48977.00
687.3130, 48957.00
688.4690, 49083.00
689.6250, 48931.00
690.7810, 49109.00
691.9370, 48981.00
693.0920, 49207.00
694.2470, 49102.00
695.4020, 49103.00
696.5570, 48972.00
697.7120, 48929.00
698.8670, 48851.00
700.0210, 49230.00
701.1750, 49196.00
702.3290, 48974.00
703.4830, 48607.00
704.6370, 48939.00
705.7910, 49159.00
706.9440, 49065.00
708.0970, 48949.00
709.2510, 49124.00
710.4030, 49068.00
711.5560, 49004.00
712.7090, 49169.00
713.8610, 48955.00
715.0140, 49079.00
716.1660, 49062.00
717.3180, 48895.00
718.4690, 49113.52
719.6210, 48989.00
720.7730, 49384.00
721.9240, 49046.00
723.0750, 49095.00
724.2260, 49455.00
725.3770, 49170.00
726.5270, 49304.00
727.6780, 49140.00
728.8280, 49127.00
729.9780, 49660.00
731.1280, 49246.00
732.2780, 49453.00
733.4280, 49589.00
734.5770, 49371.00
735.7260, 49351.00
736.8760, 49297.00
738.0250, 49490.00
739.1730, 49186.00
740.3220, 49320.00
741.4700, 49287.00
742.6190, 49278.00
743.7670, 49321.01
744.9150, 49384.00
746.0630, 49352.00
747.2100, 49539.00
748.3580, 49611.00
749.5050, 49533.00
750.6520, 49580.00
751.7990, 49846.00
752.9460, 49602.00
754.0930, 49687.00
755.2390, 49789.00
756.3860, 49571.00
757.5320, 49436.00
758.6780, 49824.00
759.8240, 49886.00
760.9690, 49749.00
762.1150, 49666.00
763.2600, 49483.00
764.4060, 49731.00
765.5510, 49680.00
766.6950, 49720.00
767.8400, 49738.00
768.9850, 49852.00
770.1290, 49579.00
771.2730, 49851.00
772.4170, 49693.00
773.5610, 49764.00
774.7050, 49852.00
775.8480, 49923.00
776.9920, 49869.00
778.1350, 49654.00
779.2780, 49846.00
780.4210, 49980.00
781.5640, 49669.00
782.7060, 49968.00
783.8490, 49671.00
784.9910, 49859.00
786.1330, 49862.17
787.2750, 49992.00
788.4170, 49892.00
789.5580, 49824.00
790.7000, 49801.00
791.8410, 49983.00
792.9820, 50026.00
794.1230, 49811.00
795.2640, 50087.00
796.4040, 49920.00
797.5450, 49858.00
798.6850, 49838.00
799.8250, 49891.00
800.9650, 50047.00
802.1050, 49839.00
803.2450, 50019.00
804.3840, 50336.00
805.5230, 50177.00
806.6630, 50155.00
807.8020, 49836.00
808.9400, 50124.00
810.0790, 50103.00
811.2170, 50078.00
812.3560, 49950.00
813.4940, 50294.00
814.6320, 50209.00
815.7700, 50386.00
816.9070, 50258.00
818.0450, 50212.00
819.1820, 50193.00
820.3190, 50359.00
821.4560, 50125.00
822.5930, 50280.00
823.7300, 50574.00
824.8670, 50314.00
826.0030, 50384.00
827.1390, 50040.00
828.2750, 50244.00
829.4110, 50349.00
830.5470, 50074.00
831.6820, 50195.00
832.8180, 50293.00
833.9530, 50365.00
835.0880, 50420.62
836.2230, 50450.00
837.3580, 50467.00
838.4920, 50426.00
839.6270, 50401.00
840.7610, 50295.00
841.8950, 50293.00
843.0290, 50304.00
844.1630, 50477.00
845.2960, 50175.00
846.4300, 50466.00
847.5630, 50469.00
848.6960, 50222.00
849.8290, 50342.00
850.9620, 50231.00
852.0940, 50589.00
853.2270, 50331.00
854.3590, 50492.00
855.4910, 50751.00
856.6230, 50373.00
857.7550, 50379.00
858.8870, 50509.00
860.0180, 50339.00
861.1500, 50710.00
862.2810, 50371.00
863.4120, 50582.00
864.5430, 50710.00
865.6730, 50473.00
866.8040, 50356.00
867.9340, 50636.00
869.0640, 50634.00
870.1940, 50801.00
871.3240, 50870.00
872.4540, 50629.00
873.5830, 50487.00
874.7130, 50643.00
875.8420, 50820.00
876.9710, 50446.00
878.1000, 50698.00
879.2290, 50954.00
880.3570, 50841.00
881.4860, 51039.00
882.6140, 50643.00
883.7420, 50682.00
884.8700, 50844.00
885.9980, 50706.00
887.1250, 50894.00
888.2530, 50719.00
889.3800, 51040.00
890.5070, 50766.00
891.6340, 50898.00
892.7610, 50901.00
893.8880, 51071.00
895.0140, 50876.00
896.1400, 50779.00
897.2670, 50583.00
898.3930, 50991.00
899.5180, 51004.00
900.6440, 51085.00
901.7700, 51066.00
902.8950, 51082.80
904.0200, 51034.00
905.1450, 51101.00
906.2700, 50962.00
907.3950, 51023.00
908.5190, 51170.00
909.6440, 51136.00
910.7680, 51235.67
911.8920, 51373.00
913.0160, 51245.00
914.1400, 51248.00
915.2630, 51031.00
916.3870, 51067.00
917.5100, 51402.00
918.6330, 51638.00
919.7560, 52028.00
920.8790, 51144.00
922.0010, 51327.00
923.1240, 51401.00
924.2460, 51136.00
925.3680, 51600.00
926.4900, 51461.00
927.6120, 51511.00
928.7340, 51779.00
929.8550, 51279.00
930.9760, 51417.00
932.0980, 51417.00
933.2190, 51439.00
934.3390, 51518.28
935.4600, 51611.00
936.5810, 51612.00
937.7010, 51532.00
938.8210, 51548.00
939.9410, 51316.00
941.0610, 51468.00
942.1810, 51515.00
943.3010, 51223.00
944.4200, 51734.00
945.5390, 51368.00
946.6580, 51527.00
947.7770, 51672.00
948.8960, 51951.00
950.0150, 51668.00
951.1330, 51878.00
952.2510, 51755.00
953.3690, 51466.00
954.4870, 51676.09
955.6050, 51659.71
956.7230, 51820.00
957.8400, 51851.00
958.9580, 51885.00
960.0750, 51749.00
961.1920, 52019.00
962.3090, 51973.00
963.4250, 52001.00
964.5420, 51610.00
965.6580, 51886.00
966.7740, 51831.00
967.8900, 51795.86
969.0060, 51952.77
970.1220, 51767.00
971.2380, 52122.00
972.3530, 51965.00
973.4680, 52046.00
974.5830, 51867.00
975.6980, 52031.00
976.8130, 52048.00
977.9280, 51887.00
979.0420, 51980.00
980.1560, 51706.00
981.2710, 51923.00
982.3850, 52181.00
983.4980, 52025.00
984.6120, 52248.00
985.7260, 51921.00
986.8390, 52068.00
987.9520, 52238.00
989.0650, 52273.00
990.1780, 52297.00
991.2910, 52169.00
992.4030, 52262.00
993.5160, 52232.00
994.6280, 52419.00
995.7400, 52287.00
996.8520, 52348.00
997.9640, 52303.00
999.0750, 52500.00
1000.187, 52429.44
1001.298, 52508.00
1002.409, 52439.00
1003.520, 52467.00
1004.631, 52580.00
1005.741, 52356.00
1006.852, 52328.00
1007.962, 52275.00
1009.072, 52510.00
1010.182, 52576.00
1011.292, 52744.00
1012.402, 52691.00
1013.511, 52762.00
1014.621, 52752.00
1015.730, 52542.00
1016.839, 52637.00
1017.948, 52812.00
1019.056, 52512.00
1020.165, 52665.00
1021.273, 52649.00
1022.382, 52579.70
1023.490, 52584.20
1024.598, 52577.00
1025.706, 52542.00
1026.813, 52571.00
1027.921, 52763.00
1029.028, 52912.00
1030.135, 52659.00
1031.242, 52867.00
1032.349, 52795.00
1033.456, 52752.00
1034.562, 52838.00
1035.668, 52981.00
1036.775, 52893.00
1037.881, 53002.00
1038.987, 52946.00
1040.092, 52622.00
1041.198, 52934.00
1042.303, 53002.00
1043.408, 53236.00
1044.514, 53050.00
1045.618, 53347.00
1046.723, 53177.00
1047.828, 53248.00
1048.932, 52998.00
1050.037, 53010.00
1051.141, 53197.00
1052.245, 53418.00
1053.349, 53498.00
1054.452, 53553.04
1055.556, 53340.00
1056.659, 53410.00
1057.762, 53448.00
1058.865, 53103.00
1059.968, 53361.00
1061.071, 53401.00
1062.174, 53368.00
1063.276, 53422.00
1064.378, 53386.00
1065.480, 53227.00
1066.582, 53292.08
1067.684, 53496.00
1068.786, 53163.00
1069.887, 53819.00
1070.988, 53523.00
1072.090, 53205.00
1073.191, 53418.00
1074.291, 53704.00
1075.392, 53655.00
1076.493, 53261.00
1077.593, 53675.00
1078.693, 53429.00
1079.793, 53464.00
1080.893, 53417.00
1081.993, 53634.00
1083.092, 53433.00
1084.192, 53580.00
1085.291, 53746.00
1086.390, 53557.00
1087.489, 53705.00
1088.588, 53749.00
1089.686, 53407.00
1090.785, 53521.00
1091.883, 53914.00
1092.981, 53546.00
1094.079, 53654.00
1095.177, 53496.00
1096.275, 53385.00
1097.373, 53680.00
1098.470, 53150.00
1099.567, 53711.00
1100.664, 53437.00
1101.761, 53583.00
1102.858, 53750.00
1103.954, 53623.00
1105.051, 53467.00
1106.147, 53539.00
1107.243, 53627.00
1108.339, 53564.00
1109.435, 53824.00
1110.531, 53760.74
1111.626, 53796.00
1112.722, 53737.00
1113.817, 53590.00
1114.912, 53489.00
1116.007, 53524.00
1117.101, 53568.00
1118.196, 53681.00
1119.290, 53807.00
1120.385, 53595.00
1121.479, 53482.00
1122.573, 53446.00
1123.666, 53410.04
1124.760, 53471.00
1125.853, 53415.00
1126.947, 53475.00
1128.040, 53339.00
1129.133, 53160.00
1130.226, 53167.00
1131.318, 53325.00
1132.411, 53203.00
1133.503, 53476.00
1134.596, 53181.00
1135.688, 53342.00
1136.780, 53124.00
1137.871, 53078.00
1138.963, 53274.00
1140.054, 53083.00
1141.146, 53510.00
1142.237, 53325.00
1143.328, 53208.00
1144.419, 53273.00
1145.509, 53454.00
1146.600, 53067.00
1147.690, 52948.00
1148.780, 53239.00
1149.870, 53065.00
1150.960, 53187.00
1152.050, 53164.00
1153.139, 52962.00
1154.229, 53207.00
1155.318, 53165.23
1156.407, 53638.00
1157.496, 53249.00
1158.585, 53353.00
1159.674, 53215.00
1160.762, 52955.00
1161.850, 52829.00
1162.939, 53060.00
1164.027, 53200.00
1165.114, 53276.00
1166.202, 53401.00
1167.290, 53859.00
1168.377, 53541.10
1169.464, 53572.18
1170.551, 53124.00
1171.638, 53209.00
1172.725, 53138.00
1173.812, 53042.00
1174.898, 52909.00
1175.984, 52924.00
1177.071, 52922.73
1178.157, 53082.00
1179.242, 52907.00
1180.328, 52963.14
1181.414, 53066.00
1182.499, 52961.00
1183.584, 53012.00
1184.669, 53129.00
1185.754, 53037.00
1186.839, 53233.00
1187.924, 53255.00
1189.008, 53455.00
1190.092, 53135.00
1191.177, 52940.00
1192.260, 52842.00
1193.344, 52897.00
1194.428, 52953.00
1195.512, 52837.83
1196.595, 53798.00
1197.678, 52788.00
1198.761, 53120.00
1199.844, 53389.00
1200.927, 52898.00
1202.009, 52843.00
1203.092, 53021.00
1204.174, 53231.00
1205.256, 52832.00
1206.338, 53034.00
1207.420, 53181.00
1208.502, 53100.00
1209.583, 53136.00
1210.665, 53030.00
1211.746, 53150.00
1212.827, 53152.00
1213.908, 53050.00
1214.988, 53080.00
1216.069, 52834.00
1217.149, 53115.00
1218.230, 53098.00
1219.310, 53044.00
1220.390, 52846.00
1221.470, 53015.00
1222.549, 52972.75
1223.629, 52992.00
1224.708, 53079.00
1225.787, 53026.00
1226.866, 53017.00
1227.945, 53163.00
1229.024, 52898.00
1230.103, 53310.00
1231.181, 53051.00
1232.259, 52859.00
1233.337, 53326.00
1234.415, 53027.00
1235.493, 53002.00
1236.571, 52875.00
1237.648, 53057.00
1238.726, 53023.00
1239.803, 53260.00
1240.880, 53065.00
1241.957, 53206.00
1243.034, 52879.00
1244.110, 52925.00
1245.187, 53231.00
1246.263, 52982.00
1247.339, 53347.00
1248.415, 53194.00
1249.491, 53031.00
1250.566, 53070.00
1251.642, 52970.00
1252.717, 53006.00
1253.793, 52993.58
1254.868, 53006.96
1255.943, 52990.00
1257.017, 53134.00
1258.092, 53125.00
1259.166, 53294.00
1260.241, 53297.00
1261.315, 53124.00
1262.389, 53077.00
1263.462, 52957.00
1264.536, 52958.72
1265.610, 53126.00
1266.683, 53015.00
1267.756, 53209.00
1268.829, 53274.00
1269.902, 53384.00
1270.975, 53343.00
1272.048, 53090.00
1273.120, 53170.00
1274.192, 53124.00
1275.264, 53291.00
1276.336, 53349.00
1277.408, 53278.00
1278.480, 53113.00
1279.551, 52959.00
1280.623, 53193.00
1281.694, 53291.00
1282.765, 53253.00
1283.836, 53274.00
1284.907, 53329.00
1285.977, 53209.00
1287.048, 53444.00
1288.118, 53436.00
1289.188, 53129.00
1290.258, 53368.00
1291.328, 53385.00
1292.398, 53480.00
1293.467, 53276.00
1294.537, 53359.00
1295.606, 53377.00
1296.675, 53461.00
1297.744, 53532.46
1298.813, 53570.58
1299.882, 53620.00
1300.950, 53686.00
1302.018, 53569.00
1303.086, 53647.00
1304.155, 53431.00
1305.222, 53378.00
1306.290, 53602.00
1307.358, 53431.00
1308.425, 53438.00
1309.492, 53442.00
1310.559, 53457.29
1311.626, 53347.00
1312.693, 53484.00
1313.760, 53640.00
1314.826, 53398.00
1315.893, 53630.00
1316.959, 53435.00
1318.025, 53427.91
1319.091, 53540.31
1320.157, 53419.00
1321.222, 53602.00
1322.288, 53757.00
1323.353, 53590.00
1324.418, 53433.00
1325.483, 53412.00
1326.548, 53793.00
1327.612, 53529.00
1328.677, 53561.00
1329.741, 53402.00
1330.806, 53287.00
1331.870, 53390.34
1332.934, 53346.60
1333.997, 53563.00
1335.061, 53497.00
1336.124, 53558.00
1337.188, 53695.00
1338.251, 53505.00
1339.314, 53472.00
1340.377, 53582.00
1341.439, 53349.00
1342.502, 53533.00
1343.564, 53666.00
1344.627, 53571.00
1345.689, 53801.00
1346.751, 53359.00
1347.813, 53495.00
1348.874, 53747.00
1349.936, 53535.00
1350.997, 53779.00
1352.058, 53744.21
1353.119, 53647.00
1354.180, 53772.00
1355.241, 53703.00
1356.301, 53763.00
1357.362, 53825.00
1358.422, 53825.93
1359.482, 53840.59
1360.542, 53845.00
1361.602, 53811.00
1362.662, 53696.00
1363.721, 53666.00
1364.781, 53879.00
1365.840, 53650.00
1366.899, 53825.00
1367.958, 53712.00
1369.017, 53816.00
1370.075, 53713.00
1371.134, 53762.00
1372.192, 53697.00
1373.250, 53731.00
1374.308, 53625.00
1375.366, 53844.00
1376.424, 53657.00
1377.481, 53792.00
1378.539, 53837.00
1379.596, 53621.00
1380.653, 53992.00
1381.710, 53801.00
1382.767, 53661.00
1383.824, 53849.00
1384.880, 53887.00
1385.937, 53622.00
1386.993, 53762.00
1388.049, 53834.00
1389.105, 54027.00
1390.161, 53747.00
1391.216, 53714.00
1392.272, 53801.00
1393.327, 53748.00
1394.382, 53895.00
1395.437, 54159.00
1396.492, 53859.00
1397.547, 54136.00
1398.601, 53923.00
1399.656, 53768.00
1400.710, 54094.00
1401.764, 53764.00
1402.818, 53761.00
1403.872, 54028.00
1404.925, 53649.00
1405.979, 53968.00
1407.032, 53977.00
1408.085, 54023.00
1409.139, 53859.00
1410.191, 53786.00
1411.244, 53923.00
1412.297, 53822.00
1413.349, 53920.00
1414.402, 54000.00
1415.454, 54089.00
1416.506, 54095.97
1417.558, 53632.00
1418.609, 54097.00
1419.661, 53976.00
1420.712, 53990.00
1421.764, 54245.00
1422.815, 53764.00
1423.866, 53893.00
1424.916, 53888.00
1425.967, 53927.00
1427.018, 53762.00
1428.068, 53910.00
1429.118, 54016.00
1430.168, 54158.00
1431.218, 54124.29
1432.268, 54285.00
1433.318, 54046.25
1434.367, 54032.00
1435.416, 54052.00
1436.465, 54020.00
1437.514, 54377.00
1438.563, 54023.00
1439.612, 54038.00
1440.661, 54165.00
1441.709, 53912.00
1442.757, 54125.00
1443.805, 54078.00
1444.853, 54104.00
1445.901, 54188.00
1446.949, 54132.00
1447.996, 54327.00
1449.044, 54130.00
1450.091, 54522.00
1451.138, 54072.00
1452.185, 53949.00
1453.232, 54132.00
1454.278, 54097.00
1455.325, 54118.00
1456.371, 54159.00
1457.417, 54340.00
1458.463, 53979.00
1459.509, 54311.00
1460.555, 54009.00
1461.601, 54109.00
1462.646, 54319.00
1463.691, 54138.00
1464.737, 54175.00
1465.782, 54406.00
1466.826, 53999.00
1467.871, 54188.00
1468.916, 54026.00
1469.960, 54152.00
1471.004, 54373.00
1472.048, 54290.00
1473.092, 54291.00
1474.136, 54044.00
1475.180, 54212.00
1476.223, 54361.00
1477.267, 54132.00
1478.310, 54420.00
1479.353, 54136.00
1480.396, 54172.00
1481.439, 54187.00
1482.481, 54133.00
1483.524, 54366.00
1484.566, 53897.00
1485.608, 54233.00
1486.650, 54299.00
1487.692, 54043.00
1488.734, 54525.00
1489.775, 54153.00
1490.817, 54198.00
1491.858, 54330.00
1492.899, 54300.00
1493.940, 54200.00
1494.981, 54332.00
1496.022, 54040.00
1497.062, 54035.00
1498.103, 54541.00
1499.143, 54279.00
1500.183, 54334.00
1501.223, 53906.00
1502.263, 54203.00
1503.302, 54527.00
1504.342, 54086.00
1505.381, 54332.00
1506.420, 54273.00
1507.459, 54590.00
1508.498, 54175.00
1509.537, 54512.00
1510.576, 54151.00
1511.614, 54240.00
1512.652, 54269.00
1513.691, 54388.00
1514.729, 54269.00
1515.767, 54477.00
1516.804, 54710.00
1517.842, 54249.00
1518.879, 54454.00
1519.917, 54437.00
1520.954, 54426.00
1521.991, 54266.00
1523.028, 54195.00
1524.064, 54144.00
1525.101, 54108.15
1526.137, 54416.00
1527.173, 54111.00
1528.210, 54447.00
1529.245, 54458.00
1530.281, 54093.39
1531.317, 54329.53
1532.352, 54464.32
1533.388, 54503.22
1534.423, 54158.99
1535.458, 54309.48
1536.493, 54261.71
1537.528, 54205.82
1538.562, 54425.94
1539.597, 54137.43
1540.631, 54353.18
1541.665, 54367.63
1542.700, 54474.22
1543.733, 54381.30
1544.767, 54350.01
1545.801, 54518.27
1546.834, 54576.04
1547.868, 54460.16
1548.901, 54572.59
1549.934, 54277.11
1550.967, 54339.58
1551.999, 54556.48
1553.032, 54450.63
1554.064, 54566.71
1555.097, 54598.27
1556.129, 54245.70
1557.161, 54561.16
1558.193, 54587.71
1559.224, 54317.64
1560.256, 54610.20
1561.287, 54381.02
1562.318, 54338.06
1563.350, 54435.27
1564.380, 54386.36
1565.411, 54567.80
1566.442, 54527.33
1567.472, 54467.03
1568.503, 54490.00
1569.533, 54544.00
1570.563, 54949.00
##END=



