##NAMES=Carrollite
##RRUFFID=R050089
##IDEAL CHEMISTRY=Cu^1+^Co^3+^_2_S_4_
##LOCALITY=Kambove, Katanga, Democratic Republic of the Congo
##OWNER=RRUFF
##SOURCE=Rock Currier
##DESCRIPTION=Steel-gray octahedral crystal associated with calcite
##STATUS=The identification of this mineral has been confirmed by X-ray diffraction and chemical analysis
##URL=rruff.info/R050089
##MEASURED CHEMISTRY=(Cu_0.96_Fe^2+^_0.04_)_Σ=1_Co_2.00_S_4.00_ ; the vein is pyrite: (Fe_0.99_Co_0.01_)_Σ=1_S_2.00_
##PIN_ID=L00215
##ORIENTATION=Laser parallel to a* (1 0 0). Fiducial mark perpendicular to laser is parallel to b [0 1 0]
96.62100, 38352.00
97.86200, 38491.00
99.10300, 38892.00
100.3440, 39177.00
101.5850, 39145.49
102.8250, 39983.78
104.0650, 40708.85
105.3050, 41326.76
106.5450, 41516.60
107.7850, 42259.21
109.0250, 42780.29
110.2640, 43291.83
111.5030, 44949.00
112.7420, 46699.00
113.9810, 49032.00
115.2200, 52896.00
116.4580, 58911.00
117.6970, 62516.00
118.9350, 57366.00
120.1730, 44002.00
121.4100, 40493.00
122.6480, 40208.00
123.8850, 39760.00
125.1230, 38974.00
126.3600, 38518.00
127.5960, 38487.00
128.8330, 38861.00
130.0700, 38716.00
131.3060, 38679.00
132.5420, 38782.00
133.7780, 38468.00
135.0140, 38581.00
136.2500, 38306.00
137.4850, 38492.00
138.7200, 39139.00
139.9550, 38925.00
141.1900, 38527.00
142.4250, 37986.00
143.6600, 38061.00
144.8940, 37921.00
146.1280, 38057.00
147.3620, 37844.00
148.5960, 38188.00
149.8300, 38257.00
151.0630, 38834.00
152.2960, 38771.00
153.5300, 38214.00
154.7620, 38577.00
155.9950, 38515.00
157.2280, 37974.00
158.4600, 38216.00
159.6920, 38337.00
160.9250, 38628.00
162.1560, 38854.00
163.3880, 38711.00
164.6200, 38933.00
165.8510, 38673.00
167.0820, 38607.00
168.3130, 38704.00
169.5440, 38662.00
170.7750, 38829.00
172.0050, 38766.00
173.2350, 38865.00
174.4650, 38596.00
175.6950, 38686.00
176.9250, 38506.00
178.1550, 38769.00
179.3840, 38872.68
180.6130, 38614.00
181.8420, 39214.00
183.0710, 38965.00
184.3000, 38913.00
185.5280, 39301.00
186.7570, 39453.00
187.9850, 39866.00
189.2130, 40314.00
190.4400, 40665.00
191.6680, 40726.00
192.8960, 40928.00
194.1230, 40493.00
195.3500, 40760.00
196.5770, 40858.00
197.8030, 40977.00
199.0300, 41219.00
200.2560, 41479.00
201.4830, 41380.00
202.7090, 40898.00
203.9340, 39333.00
205.1600, 38491.00
206.3860, 38428.00
207.6110, 37829.00
208.8360, 38242.00
210.0610, 38007.00
211.2860, 38374.00
212.5100, 38290.00
213.7350, 38373.00
214.9590, 38553.00
216.1830, 38369.00
217.4070, 38219.00
218.6310, 38638.00
219.8540, 38413.00
221.0780, 38448.00
222.3010, 38527.00
223.5240, 38391.00
224.7470, 38529.00
225.9690, 38276.00
227.1920, 38417.00
228.4140, 38552.00
229.6360, 38634.00
230.8580, 38574.00
232.0800, 38717.77
233.3020, 38737.82
234.5230, 38795.00
235.7440, 38871.00
236.9650, 38726.00
238.1860, 38811.00
239.4070, 38777.00
240.6280, 38797.00
241.8480, 38979.00
243.0680, 38866.00
244.2880, 39235.00
245.5080, 39097.00
246.7280, 39029.00
247.9470, 39323.00
249.1660, 39518.00
250.3860, 39474.00
251.6040, 39552.00
252.8230, 39702.00
254.0420, 39677.81
255.2600, 39948.71
256.4790, 40106.38
257.6970, 40156.89
258.9150, 39779.33
260.1320, 39954.53
261.3500, 39908.21
262.5670, 39852.80
263.7840, 40105.79
265.0010, 39790.48
266.2180, 39912.00
267.4350, 39815.00
268.6510, 39957.00
269.8680, 39807.00
271.0840, 39845.00
272.3000, 39746.00
273.5160, 39707.10
274.7310, 39688.17
275.9470, 39653.00
277.1620, 39628.00
278.3770, 39643.00
279.5920, 39626.00
280.8070, 39644.02
282.0210, 39699.00
283.2360, 39704.00
284.4500, 39758.00
285.6640, 39834.00
286.8780, 39842.00
288.0920, 39758.00
289.3050, 39928.00
290.5180, 40047.00
291.7320, 39811.00
292.9450, 40130.00
294.1570, 39945.00
295.3700, 40000.00
296.5830, 40129.00
297.7950, 40245.00
299.0070, 40074.00
300.2190, 40125.00
301.4310, 40065.00
302.6420, 40320.00
303.8540, 40279.00
305.0650, 40365.69
306.2760, 40317.00
307.4870, 40478.00
308.6980, 40420.98
309.9080, 40447.00
311.1190, 40381.00
312.3290, 40468.00
313.5390, 40253.00
314.7490, 40483.00
315.9580, 40556.00
317.1680, 40715.00
318.3770, 40517.00
319.5860, 40677.00
320.7950, 40676.00
322.0040, 40685.00
323.2130, 40891.00
324.4210, 40444.00
325.6290, 40870.00
326.8380, 40710.00
328.0460, 41245.00
329.2530, 41126.00
330.4610, 40843.00
331.6680, 40777.00
332.8760, 40936.00
334.0830, 40930.00
335.2890, 40975.00
336.4960, 41198.00
337.7030, 40864.00
338.9090, 41001.57
340.1150, 41449.00
341.3210, 41022.00
342.5270, 41362.00
343.7330, 41532.00
344.9380, 41268.00
346.1440, 41256.00
347.3490, 41452.00
348.5540, 41192.00
349.7590, 41189.00
350.9630, 41696.00
352.1680, 41511.00
353.3720, 41780.00
354.5760, 41577.00
355.7800, 41524.00
356.9840, 41848.00
358.1870, 41851.00
359.3910, 41763.00
360.5940, 41825.00
361.7970, 41436.00
363.0000, 41836.00
364.2030, 41713.00
365.4050, 41986.00
366.6080, 41750.00
367.8100, 41845.00
369.0120, 41985.00
370.2140, 41836.00
371.4150, 42145.00
372.6170, 41915.00
373.8180, 42093.00
375.0190, 41948.00
376.2200, 41932.00
377.4210, 42095.00
378.6220, 42051.00
379.8220, 42548.00
381.0230, 42359.00
382.2230, 42226.00
383.4230, 41898.00
384.6220, 41992.00
385.8220, 42449.00
387.0220, 42326.00
388.2210, 42276.00
389.4200, 42405.00
390.6190, 42386.00
391.8180, 42389.00
393.0160, 42305.00
394.2150, 42013.00
395.4130, 42220.00
396.6110, 42331.00
397.8090, 42632.00
399.0060, 42745.00
400.2040, 42601.00
401.4010, 42630.00
402.5980, 42789.00
403.7950, 42633.00
404.9920, 42731.84
406.1890, 42470.00
407.3860, 42751.00
408.5820, 42763.00
409.7780, 42736.00
410.9740, 42836.00
412.1700, 42989.00
413.3650, 42703.00
414.5610, 42956.00
415.7560, 42840.00
416.9510, 43110.00
418.1460, 42995.00
419.3410, 43200.00
420.5360, 43062.00
421.7300, 43276.00
422.9240, 43052.00
424.1180, 43425.00
425.3120, 43410.00
426.5060, 43430.00
427.7000, 43462.00
428.8930, 43523.00
430.0860, 43512.00
431.2790, 43455.00
432.4720, 43718.00
433.6650, 43619.00
434.8580, 43742.00
436.0500, 43653.00
437.2420, 43676.00
438.4340, 43807.00
439.6260, 43526.00
440.8180, 43868.00
442.0090, 43520.00
443.2010, 43965.00
444.3920, 43837.00
445.5830, 43784.00
446.7740, 43807.00
447.9640, 44173.00
449.1550, 43930.00
450.3450, 43998.00
451.5350, 44078.00
452.7250, 43993.00
453.9150, 43980.00
455.1050, 43848.00
456.2940, 44051.00
457.4830, 44053.00
458.6720, 44080.00
459.8610, 44306.00
461.0500, 44269.58
462.2390, 44275.00
463.4270, 44340.00
464.6150, 44456.00
465.8040, 44487.85
466.9910, 44716.00
468.1790, 44475.00
469.3670, 44530.00
470.5540, 44673.00
471.7410, 44620.00
472.9280, 44701.00
474.1150, 44835.00
475.3020, 44663.00
476.4890, 44973.00
477.6750, 44897.00
478.8610, 44784.00
480.0470, 44858.00
481.2330, 44970.00
482.4190, 45006.00
483.6040, 44980.00
484.7900, 45259.00
485.9750, 45062.00
487.1600, 45257.00
488.3450, 45026.00
489.5290, 45271.00
490.7140, 45149.00
491.8980, 45390.00
493.0820, 45403.00
494.2660, 45393.47
495.4500, 45447.00
496.6340, 45410.00
497.8170, 45639.00
499.0010, 45722.00
500.1840, 45676.00
501.3670, 45792.00
502.5500, 45818.00
503.7320, 45530.00
504.9150, 45624.00
506.0970, 45789.00
507.2790, 45905.00
508.4610, 46178.00
509.6430, 46400.00
510.8250, 46315.00
512.0060, 46011.00
513.1870, 46131.00
514.3680, 45904.00
515.5490, 46189.00
516.7300, 46138.00
517.9110, 46226.00
519.0910, 46237.00
520.2710, 46315.00
521.4510, 46089.00
522.6310, 46303.00
523.8110, 46432.00
524.9910, 46123.00
526.1700, 46595.00
527.3490, 46576.00
528.5280, 46612.00
529.7070, 46616.00
530.8860, 46763.00
532.0650, 46725.30
533.2430, 46835.00
534.4210, 46746.00
535.5990, 46800.56
536.7770, 46592.20
537.9550, 46871.00
539.1320, 46803.00
540.3100, 46882.00
541.4870, 47193.00
542.6640, 47251.00
543.8410, 47214.00
545.0170, 47079.00
546.1940, 47136.00
547.3700, 46955.00
548.5470, 47300.00
549.7230, 47658.00
550.8980, 47495.00
552.0740, 47376.00
553.2500, 47452.00
554.4250, 47488.00
555.6000, 47533.00
556.7750, 47587.41
557.9500, 47598.00
559.1250, 47639.00
560.2990, 47626.00
561.4730, 47557.00
562.6480, 47664.00
563.8220, 47695.97
564.9950, 47767.28
566.1690, 47880.00
567.3430, 47884.00
568.5160, 47972.00
569.6890, 47861.00
570.8620, 47490.00
572.0350, 47338.00
573.2070, 47163.00
574.3800, 47182.00
575.5520, 47039.00
576.7240, 46880.00
577.8960, 46566.00
579.0680, 46606.00
580.2400, 46305.00
581.4110, 46194.00
582.5830, 46024.00
583.7540, 45718.00
584.9250, 45512.00
586.0950, 45684.00
587.2660, 45722.00
588.4370, 45595.00
589.6070, 45597.00
590.7770, 45366.00
591.9470, 45475.00
593.1170, 45276.00
594.2860, 45351.00
595.4560, 45123.00
596.6250, 45312.00
597.7940, 45676.00
598.9630, 45317.00
600.1320, 45584.00
601.3000, 45366.00
602.4690, 45363.00
603.6370, 45252.00
604.8050, 45115.00
605.9730, 45199.00
607.1410, 45410.00
608.3090, 45411.00
609.4760, 45563.00
610.6430, 45608.00
611.8100, 45460.00
612.9770, 45348.00
614.1440, 45393.00
615.3110, 45529.00
616.4770, 45361.00
617.6430, 45678.00
618.8090, 45624.00
619.9750, 45718.00
621.1410, 45492.00
622.3070, 45873.00
623.4720, 45683.00
624.6370, 45419.00
625.8020, 45815.00
626.9670, 45637.00
628.1320, 45782.00
629.2970, 45909.00
630.4610, 45532.00
631.6250, 45844.00
632.7890, 45820.00
633.9530, 45953.00
635.1170, 45916.00
636.2810, 45969.84
637.4440, 45905.00
638.6070, 45904.00
639.7700, 45811.00
640.9330, 45484.00
642.0960, 45704.00
643.2590, 45651.00
644.4210, 45515.00
645.5830, 45645.00
646.7450, 45422.00
647.9070, 45779.00
649.0690, 45785.00
650.2310, 45577.00
651.3920, 45685.00
652.5530, 45830.00
653.7140, 45891.00
654.8750, 45575.00
656.0360, 45782.00
657.1970, 45664.00
658.3570, 45792.00
659.5170, 45637.00
660.6770, 45492.00
661.8370, 45586.00
662.9970, 45463.00
664.1570, 45558.00
665.3160, 45739.00
666.4750, 45741.00
667.6340, 45557.00
668.7930, 45549.00
669.9520, 45628.00
671.1110, 45377.00
672.2690, 45643.00
673.4270, 45824.00
674.5850, 45919.00
675.7430, 45908.00
676.9010, 45772.00
678.0590, 45980.00
679.2160, 45663.00
680.3730, 45730.00
681.5300, 45697.00
682.6870, 45908.00
683.8440, 45796.00
685.0010, 45618.00
686.1570, 45699.00
687.3130, 45792.00
688.4690, 45821.00
689.6250, 45836.00
690.7810, 45610.00
691.9370, 45819.00
693.0920, 45617.00
694.2470, 45754.00
695.4020, 45553.00
696.5570, 45805.00
697.7120, 46010.00
698.8670, 45656.00
700.0210, 45778.00
701.1750, 46035.00
702.3290, 46038.00
703.4830, 45978.00
704.6370, 46042.63
705.7910, 46091.00
706.9440, 46031.00
708.0970, 45919.00
709.2510, 46034.00
710.4030, 45893.00
711.5560, 45793.00
712.7090, 45830.00
713.8610, 46046.00
715.0140, 45855.00
716.1660, 45804.00
717.3180, 45982.00
718.4690, 45846.00
719.6210, 46098.00
720.7730, 46023.00
721.9240, 45979.00
723.0750, 45767.00
724.2260, 45832.00
725.3770, 45883.00
726.5270, 45839.00
727.6780, 45995.00
728.8280, 45941.00
729.9780, 46053.00
731.1280, 45918.00
732.2780, 46143.00
733.4280, 46312.00
734.5770, 46301.00
735.7260, 46115.00
736.8760, 46149.00
738.0250, 46247.00
739.1730, 46372.00
740.3220, 46270.00
741.4700, 46258.00
742.6190, 46271.00
743.7670, 46330.00
744.9150, 46476.00
746.0630, 46421.00
747.2100, 46435.00
748.3580, 46351.00
749.5050, 46425.00
750.6520, 46424.00
751.7990, 46387.00
752.9460, 46499.00
754.0930, 46206.00
755.2390, 46455.00
756.3860, 46315.00
757.5320, 46446.00
758.6780, 46610.00
759.8240, 46496.00
760.9690, 46560.00
762.1150, 46702.00
763.2600, 46591.00
764.4060, 46598.00
765.5510, 46426.00
766.6950, 46746.00
767.8400, 46452.00
768.9850, 46594.00
770.1290, 46683.00
771.2730, 46482.00
772.4170, 46630.00
773.5610, 46646.00
774.7050, 46532.00
775.8480, 46528.00
776.9920, 46546.31
778.1350, 46549.00
779.2780, 46600.00
780.4210, 46658.00
781.5640, 46663.00
782.7060, 46415.00
783.8490, 46596.00
784.9910, 46187.00
786.1330, 46660.00
787.2750, 46611.00
788.4170, 47010.00
789.5580, 46829.00
790.7000, 46523.00
791.8410, 46828.00
792.9820, 46689.00
794.1230, 46724.00
795.2640, 46989.00
796.4040, 46659.00
797.5450, 47096.00
798.6850, 46859.00
799.8250, 46693.00
800.9650, 46715.00
802.1050, 46707.00
803.2450, 46855.00
804.3840, 46863.00
805.5230, 46887.00
806.6630, 46981.00
807.8020, 46917.00
808.9400, 46971.00
810.0790, 46840.00
811.2170, 47212.00
812.3560, 47014.00
813.4940, 46953.00
814.6320, 47140.00
815.7700, 46905.00
816.9070, 47104.00
818.0450, 46708.00
819.1820, 46805.00
820.3190, 47074.00
821.4560, 46765.00
822.5930, 47058.00
823.7300, 46893.00
824.8670, 47011.00
826.0030, 47007.00
827.1390, 47231.00
828.2750, 47180.00
829.4110, 47087.00
830.5470, 47190.00
831.6820, 47123.00
832.8180, 47093.00
833.9530, 47114.83
835.0880, 47102.00
836.2230, 47114.00
837.3580, 46984.00
838.4920, 47014.00
839.6270, 47176.00
840.7610, 47210.00
841.8950, 46888.00
843.0290, 47160.00
844.1630, 47013.00
845.2960, 47377.00
846.4300, 47077.00
847.5630, 47340.00
848.6960, 47207.00
849.8290, 47399.00
850.9620, 47304.00
852.0940, 47494.00
853.2270, 47292.00
854.3590, 47165.00
855.4910, 47186.00
856.6230, 47183.00
857.7550, 47252.67
858.8870, 47528.00
860.0180, 47358.00
861.1500, 47366.00
862.2810, 47137.00
863.4120, 47223.00
864.5430, 47237.00
865.6730, 47153.00
866.8040, 47358.00
867.9340, 47305.00
869.0640, 47030.00
870.1940, 47238.00
871.3240, 46993.00
872.4540, 47224.00
873.5830, 47223.00
874.7130, 47460.00
875.8420, 47529.00
876.9710, 47539.00
878.1000, 47621.00
879.2290, 47621.00
880.3570, 47350.00
881.4860, 47543.00
882.6140, 47424.00
883.7420, 47383.00
884.8700, 47420.00
885.9980, 47311.00
887.1250, 47314.00
888.2530, 47469.00
889.3800, 47557.00
890.5070, 47569.00
891.6340, 47671.68
892.7610, 47471.00
893.8880, 47733.00
895.0140, 47689.00
896.1400, 47611.00
897.2670, 47719.00
898.3930, 47665.00
899.5180, 47690.00
900.6440, 47748.00
901.7700, 47655.00
902.8950, 47721.22
904.0200, 47792.00
905.1450, 47729.00
906.2700, 47792.00
907.3950, 47720.00
908.5190, 47754.00
909.6440, 47974.00
910.7680, 47663.00
911.8920, 47647.00
913.0160, 48035.00
914.1400, 47841.00
915.2630, 47951.00
916.3870, 47913.00
917.5100, 47843.00
918.6330, 47951.00
919.7560, 48151.00
920.8790, 48222.00
922.0010, 48192.00
923.1240, 47944.00
924.2460, 48196.00
925.3680, 47749.00
926.4900, 47987.00
927.6120, 48159.00
928.7340, 48412.00
929.8550, 48498.77
930.9760, 48134.00
932.0980, 48509.00
933.2190, 48435.00
934.3390, 48089.00
935.4600, 48460.00
936.5810, 48065.00
937.7010, 48421.00
938.8210, 48348.00
939.9410, 47988.00
941.0610, 48112.00
942.1810, 48059.11
943.3010, 48343.00
944.4200, 48253.00
945.5390, 48397.00
946.6580, 48618.00
947.7770, 48579.00
948.8960, 48417.00
950.0150, 48500.00
951.1330, 48464.00
952.2510, 48446.00
953.3690, 48451.00
954.4870, 48479.00
955.6050, 48663.00
956.7230, 48539.00
957.8400, 48639.00
958.9580, 48476.00
960.0750, 48569.00
961.1920, 48791.00
962.3090, 48656.00
963.4250, 48640.00
964.5420, 48668.00
965.6580, 48644.55
966.7740, 48538.00
967.8900, 48750.00
969.0060, 48589.00
970.1220, 48716.00
971.2380, 48689.00
972.3530, 48734.00
973.4680, 48632.00
974.5830, 48619.00
975.6980, 48790.00
976.8130, 48699.28
977.9280, 48967.07
979.0420, 49121.61
980.1560, 49169.01
981.2710, 48788.35
982.3850, 48960.44
983.4980, 48911.00
984.6120, 48852.49
985.7260, 49102.38
986.8390, 48783.96
987.9520, 49028.96
989.0650, 49049.04
990.1780, 49172.07
991.2910, 49072.20
992.4030, 49041.17
993.5160, 49233.11
994.6280, 49301.58
995.7400, 49176.04
996.8520, 49305.60
997.9640, 48979.39
999.0750, 49136.00
1000.187, 49132.00
1001.298, 48921.00
1002.409, 49235.00
1003.520, 49317.00
1004.631, 49129.00
1005.741, 49083.00
1006.852, 49349.00
1007.962, 49159.00
1009.072, 49622.00
1010.182, 49176.00
1011.292, 49302.00
1012.402, 49304.00
1013.511, 49325.00
1014.621, 49244.00
1015.730, 49281.62
1016.839, 49270.00
1017.948, 49287.00
1019.056, 49349.00
1020.165, 49332.00
1021.273, 49213.00
1022.382, 49443.00
1023.490, 49401.00
1024.598, 49495.00
1025.706, 49337.00
1026.813, 49232.00
1027.921, 49456.00
1029.028, 49442.00
1030.135, 49588.00
1031.242, 49901.00
1032.349, 49612.00
1033.456, 49338.00
1034.562, 49713.00
1035.668, 49679.00
1036.775, 49640.00
1037.881, 49689.00
1038.987, 49599.00
1040.092, 49778.00
1041.198, 49829.00
1042.303, 49847.00
1043.408, 49650.00
1044.514, 49712.00
1045.618, 49651.00
1046.723, 49796.00
1047.828, 49915.00
1048.932, 49896.00
1050.037, 49893.26
1051.141, 50008.00
1052.245, 49730.00
1053.349, 49934.00
1054.452, 49860.00
1055.556, 49654.00
1056.659, 49986.00
1057.762, 49836.00
1058.865, 49763.00
1059.968, 50020.00
1061.071, 50192.00
1062.174, 50161.00
1063.276, 49948.00
1064.378, 50185.00
1065.480, 49992.00
1066.582, 50175.00
1067.684, 49984.00
1068.786, 50174.00
1069.887, 50037.00
1070.988, 50348.00
1072.090, 50416.00
1073.191, 50445.00
1074.291, 50005.00
1075.392, 50187.00
1076.493, 50288.00
1077.593, 50227.00
1078.693, 50332.00
1079.793, 50470.00
1080.893, 50044.00
1081.993, 50198.00
1083.092, 50173.00
1084.192, 50209.00
1085.291, 50312.00
1086.390, 49857.00
1087.489, 50122.00
1088.588, 50459.00
1089.686, 50079.00
1090.785, 50455.00
1091.883, 50224.00
1092.981, 50052.00
1094.079, 50433.00
1095.177, 49788.00
1096.275, 50257.00
1097.373, 50138.00
1098.470, 50027.00
1099.567, 50402.00
1100.664, 50396.00
1101.761, 50166.00
1102.858, 50297.00
1103.954, 50290.00
1105.051, 50498.00
1106.147, 50092.00
1107.243, 50196.00
1108.339, 50073.00
1109.435, 49897.00
1110.531, 49929.00
1111.626, 50208.00
1112.722, 50264.00
1113.817, 50199.00
1114.912, 50459.00
1116.007, 50067.00
1117.101, 50093.00
1118.196, 50033.00
1119.290, 50258.00
1120.385, 50212.00
1121.479, 50349.00
1122.573, 50128.00
1123.666, 50317.00
1124.760, 50127.00
1125.853, 50158.00
1126.947, 49984.00
1128.040, 50082.00
1129.133, 49984.00
1130.226, 49830.00
1131.318, 49912.00
1132.411, 50176.00
1133.503, 49706.00
1134.596, 49912.00
1135.688, 50163.00
1136.780, 49642.00
1137.871, 49660.00
1138.963, 50199.00
1140.054, 49888.00
1141.146, 49869.00
1142.237, 49903.00
1143.328, 49800.00
1144.419, 49727.00
1145.509, 49721.00
1146.600, 49819.00
1147.690, 49735.00
1148.780, 49638.00
1149.870, 49739.00
1150.960, 49608.00
1152.050, 49606.53
1153.139, 49548.00
1154.229, 49626.00
1155.318, 49732.00
1156.407, 49942.00
1157.496, 49859.68
1158.585, 50025.00
1159.674, 49814.00
1160.762, 49612.00
1161.850, 49729.00
1162.939, 49643.00
1164.027, 49937.00
1165.114, 49680.00
1166.202, 49947.00
1167.290, 49376.00
1168.377, 49641.00
1169.464, 49813.00
1170.551, 49539.00
1171.638, 49554.00
1172.725, 49757.00
1173.812, 49766.00
1174.898, 49701.00
1175.984, 49671.00
1177.071, 49972.00
1178.157, 49773.00
1179.242, 49606.00
1180.328, 49546.00
1181.414, 49830.00
1182.499, 49865.00
1183.584, 49677.00
1184.669, 49752.00
1185.754, 49578.00
1186.839, 49674.00
1187.924, 49484.00
1189.008, 49837.00
1190.092, 49620.00
1191.177, 49729.00
1192.260, 49596.00
1193.344, 49759.00
1194.428, 49510.00
1195.512, 49407.00
1196.595, 49482.00
1197.678, 49493.67
1198.761, 49605.00
1199.844, 49655.00
1200.927, 49685.00
1202.009, 49729.21
1203.092, 49863.00
1204.174, 49734.00
1205.256, 49683.00
1206.338, 49623.00
1207.420, 49450.00
1208.502, 49355.00
1209.583, 49516.00
1210.665, 49633.00
1211.746, 49500.00
1212.827, 49715.00
1213.908, 49600.00
1214.988, 50063.00
1216.069, 49635.00
1217.149, 49658.00
1218.230, 49454.00
1219.310, 49741.00
1220.390, 49514.00
1221.470, 49426.00
1222.549, 49426.00
1223.629, 49716.00
1224.708, 49613.00
1225.787, 49820.00
1226.866, 49570.00
1227.945, 49573.00
1229.024, 49708.00
1230.103, 49443.00
1231.181, 49300.00
1232.259, 49432.00
1233.337, 49559.00
1234.415, 49659.00
1235.493, 49559.00
1236.571, 49763.00
1237.648, 49893.00
1238.726, 49636.00
1239.803, 49491.00
1240.880, 49603.00
1241.957, 49693.00
1243.034, 49856.00
1244.110, 49546.00
1245.187, 49264.00
1246.263, 49607.00
1247.339, 49655.00
1248.415, 49545.00
1249.491, 49673.00
1250.566, 49860.00
1251.642, 49500.00
1252.717, 49463.00
1253.793, 49706.00
1254.868, 49607.00
1255.943, 49513.00
1257.017, 49501.00
1258.092, 49783.00
1259.166, 49688.00
1260.241, 49824.00
1261.315, 49569.00
1262.389, 49775.00
1263.462, 49686.00
1264.536, 49925.00
1265.610, 49769.00
1266.683, 49907.00
1267.756, 49596.00
1268.829, 49681.00
1269.902, 49389.00
1270.975, 49450.00
1272.048, 49904.00
1273.120, 49721.33
1274.192, 49864.22
1275.264, 49886.00
1276.336, 49728.00
1277.408, 49933.00
1278.480, 49595.00
1279.551, 49840.00
1280.623, 50015.00
1281.694, 49878.00
1282.765, 50020.00
1283.836, 49803.00
1284.907, 49814.00
1285.977, 49916.00
1287.048, 49996.00
1288.118, 50032.00
1289.188, 49708.00
1290.258, 49845.00
1291.328, 49698.00
1292.398, 49840.00
1293.467, 50023.00
1294.537, 49776.00
1295.606, 49925.00
1296.675, 49907.00
1297.744, 49977.00
1298.813, 49962.00
1299.882, 49825.00
1300.950, 50091.00
1302.018, 50072.00
1303.086, 49758.00
1304.155, 50158.00
1305.222, 49964.00
1306.290, 49825.00
1307.358, 49749.00
1308.425, 50155.00
1309.492, 49805.00
1310.559, 49954.00
1311.626, 50078.00
1312.693, 49724.00
1313.760, 49718.00
1314.826, 49762.00
1315.893, 49782.00
1316.959, 50143.00
1318.025, 50073.00
1319.091, 49947.00
1320.157, 49654.00
1321.222, 50150.00
1322.288, 49979.00
1323.353, 50042.00
1324.418, 50151.00
1325.483, 49747.00
1326.548, 49923.00
1327.612, 49858.00
1328.677, 50129.00
1329.741, 49939.00
1330.806, 50244.00
1331.870, 49800.00
1332.934, 49962.00
1333.997, 50002.00
1335.061, 50050.00
1336.124, 50396.00
1337.188, 50137.00
1338.251, 50270.00
1339.314, 49707.00
1340.377, 49925.00
1341.439, 49898.00
1342.502, 49848.00
1343.564, 50141.00
1344.627, 49776.00
1345.689, 50227.00
1346.751, 50172.00
1347.813, 50117.00
1348.874, 49870.00
1349.936, 50054.00
1350.997, 50289.00
1352.058, 50194.00
1353.119, 50244.00
1354.180, 50259.43
1355.241, 50232.58
1356.301, 50208.00
1357.362, 50188.00
1358.422, 50168.00
1359.482, 50053.00
1360.542, 50106.00
1361.602, 50328.00
1362.662, 50108.00
1363.721, 50097.00
1364.781, 49911.00
1365.840, 50161.00
1366.899, 50053.88
1367.958, 50161.00
1369.017, 50012.00
1370.075, 50265.00
1371.134, 50150.00
1372.192, 50146.00
1373.250, 49904.00
1374.308, 50284.00
1375.366, 50204.00
1376.424, 50268.00
1377.481, 50169.00
1378.539, 50170.07
1379.596, 50131.00
1380.653, 50136.00
1381.710, 50121.00
1382.767, 50113.45
1383.824, 50172.00
1384.880, 50170.00
1385.937, 50208.00
1386.993, 50159.00
1388.049, 50158.00
1389.105, 50225.00
1390.161, 50274.00
1391.216, 50454.00
1392.272, 50354.72
1393.327, 50571.00
1394.382, 50181.00
1395.437, 50192.00
1396.492, 50064.00
1397.547, 49996.34
1398.601, 50107.00
1399.656, 50058.00
1400.710, 50228.00
1401.764, 50385.00
1402.818, 50402.00
1403.872, 50213.00
1404.925, 50039.00
1405.979, 50369.00
1407.032, 50161.00
1408.085, 50311.00
1409.139, 50216.00
1410.191, 50034.00
1411.244, 50607.00
1412.297, 50230.00
1413.349, 50275.00
1414.402, 50462.00
1415.454, 50431.00
1416.506, 50434.00
1417.558, 50347.00
1418.609, 50365.00
1419.661, 50340.00
1420.712, 50348.00
1421.764, 50323.91
1422.815, 50239.00
1423.866, 50234.00
1424.916, 50265.00
1425.967, 50144.00
1427.018, 50381.00
1428.068, 50169.00
1429.118, 50539.00
1430.168, 50451.00
1431.218, 50655.00
1432.268, 50190.00
1433.318, 50384.00
1434.367, 50375.00
1435.416, 50361.00
1436.465, 50393.00
1437.514, 50366.00
1438.563, 50469.00
1439.612, 50705.00
1440.661, 50602.00
1441.709, 50714.00
1442.757, 50614.00
1443.805, 50574.00
1444.853, 50626.00
1445.901, 50455.00
1446.949, 50791.00
1447.996, 50520.00
1449.044, 50718.00
1450.091, 50329.00
1451.138, 50525.00
1452.185, 50594.00
1453.232, 50307.00
1454.278, 50365.00
1455.325, 50722.00
1456.371, 50711.00
1457.417, 50660.00
1458.463, 50383.00
1459.509, 50398.00
1460.555, 50389.00
1461.601, 50638.00
1462.646, 50692.00
1463.691, 50540.00
1464.737, 50438.00
1465.782, 50705.00
1466.826, 50257.00
1467.871, 50638.00
1468.916, 50549.00
1469.960, 50213.00
1471.004, 50297.00
1472.048, 50820.00
1473.092, 50415.00
1474.136, 50540.00
1475.180, 50519.00
1476.223, 50338.00
1477.267, 50660.00
1478.310, 50479.00
1479.353, 50356.00
1480.396, 50387.00
1481.439, 50677.00
1482.481, 50689.00
1483.524, 50742.00
1484.566, 50665.00
1485.608, 50384.00
1486.650, 50424.00
1487.692, 50847.00
1488.734, 50352.00
1489.775, 50541.00
1490.817, 50613.00
1491.858, 50411.00
1492.899, 50627.00
1493.940, 50394.00
1494.981, 50584.00
1496.022, 50441.00
1497.062, 50230.00
1498.103, 50692.00
1499.143, 50537.00
1500.183, 50690.00
1501.223, 50632.00
1502.263, 50330.00
1503.302, 50619.00
1504.342, 50693.00
1505.381, 50237.00
1506.420, 50755.00
1507.459, 50585.00
1508.498, 50783.00
1509.537, 50443.00
1510.576, 50587.00
1511.614, 50662.00
1512.652, 50488.00
1513.691, 50499.00
1514.729, 50445.00
1515.767, 50546.00
1516.804, 50663.00
1517.842, 50586.00
1518.879, 50409.00
1519.917, 50783.00
1520.954, 50747.00
1521.991, 50530.00
1523.028, 50427.00
1524.064, 50812.00
1525.101, 50726.00
1526.137, 50568.00
1527.173, 50632.00
1528.210, 50508.00
1529.245, 50680.00
1530.281, 50487.00
1531.317, 50755.00
1532.352, 50500.24
1533.388, 50764.68
1534.423, 50915.89
1535.458, 50959.95
1536.493, 50575.93
1537.528, 50744.69
1538.562, 50691.91
1539.597, 50630.05
1540.631, 50876.60
1541.665, 50554.84
1542.700, 50796.50
1543.733, 50813.25
1544.767, 50932.93
1545.801, 50829.73
1546.834, 50795.36
1547.868, 50983.96
1548.901, 51049.09
1549.934, 50920.22
1550.967, 51046.45
1551.999, 50716.89
1553.032, 50787.29
1554.064, 51030.24
1555.097, 50912.57
1556.129, 51042.87
1557.161, 51078.72
1558.193, 50685.40
1559.224, 51038.45
1560.256, 51068.73
1561.287, 50767.57
1562.318, 51095.05
1563.350, 50839.58
1564.380, 50792.18
1565.411, 50901.38
1566.442, 50751.00
1567.472, 50787.00
1568.503, 51012.00
1569.533, 50281.00
1570.563, 50964.00
##END=



