##NAMES=Carrollite
##RRUFFID=R050089
##IDEAL CHEMISTRY=Cu^1+^Co^3+^_2_S_4_
##LOCALITY=Kambove, Katanga, Democratic Republic of the Congo
##OWNER=RRUFF
##SOURCE=Rock Currier
##DESCRIPTION=Steel-gray octahedral crystal associated with calcite
##STATUS=The identification of this mineral has been confirmed by X-ray diffraction and chemical analysis
##URL=rruff.info/R050089
##MEASURED CHEMISTRY=(Cu_0.96_Fe^2+^_0.04_)_Σ=1_Co_2.00_S_4.00_ ; the vein is pyrite: (Fe_0.99_Co_0.01_)_Σ=1_S_2.00_
##PIN_ID=L00215
##ORIENTATION=Laser parallel to a* (1 0 0). Fiducial mark perpendicular to laser is parallel to b [0 1 0]
96.62100, 39652.00
97.86200, 40050.00
99.10300, 40816.00
100.3440, 40911.00
101.5850, 41922.00
102.8250, 43334.00
104.0650, 42926.00
105.3050, 44068.00
106.5450, 44373.76
107.7850, 44185.32
109.0250, 45364.00
110.2640, 44805.00
111.5030, 45788.00
112.7420, 48161.00
113.9810, 50166.00
115.2200, 53377.00
116.4580, 58704.00
117.6970, 61967.00
118.9350, 60141.00
120.1730, 50835.00
121.4100, 43987.00
122.6480, 42516.00
123.8850, 41671.00
125.1230, 40408.00
126.3600, 40557.00
127.5960, 41069.00
128.8330, 40787.00
130.0700, 40842.00
131.3060, 40695.00
132.5420, 40386.00
133.7780, 40664.00
135.0140, 40746.00
136.2500, 40551.00
137.4850, 40652.00
138.7200, 40512.39
139.9550, 40467.88
141.1900, 40270.00
142.4250, 40274.00
143.6600, 40138.00
144.8940, 39847.00
146.1280, 40278.00
147.3620, 40162.00
148.5960, 40141.00
149.8300, 39944.00
151.0630, 40477.00
152.2960, 40220.00
153.5300, 40128.00
154.7620, 40458.00
155.9950, 40214.00
157.2280, 40328.00
158.4600, 40403.00
159.6920, 40277.00
160.9250, 40478.00
162.1560, 40812.00
163.3880, 40942.00
164.6200, 40800.00
165.8510, 40581.00
167.0820, 40704.00
168.3130, 40781.00
169.5440, 41009.00
170.7750, 41070.00
172.0050, 40704.00
173.2350, 40748.00
174.4650, 40888.00
175.6950, 40730.00
176.9250, 40866.00
178.1550, 41017.00
179.3840, 40827.00
180.6130, 40795.00
181.8420, 41076.00
183.0710, 41173.00
184.3000, 41478.00
185.5280, 41831.00
186.7570, 41944.00
187.9850, 42163.00
189.2130, 42300.00
190.4400, 42463.60
191.6680, 42693.00
192.8960, 42723.00
194.1230, 42990.00
195.3500, 42991.96
196.5770, 43173.00
197.8030, 43340.00
199.0300, 43512.00
200.2560, 43975.00
201.4830, 43622.00
202.7090, 43131.00
203.9340, 42466.00
205.1600, 41600.00
206.3860, 41443.00
207.6110, 41247.00
208.8360, 41093.79
210.0610, 41356.34
211.2860, 41485.59
212.5100, 41488.72
213.7350, 40987.84
214.9590, 41137.78
216.1830, 41026.91
217.4070, 40905.35
218.6310, 41146.88
219.8540, 40719.38
221.0780, 40955.15
222.3010, 40926.18
223.5240, 40793.00
224.7470, 40754.00
225.9690, 40733.00
227.1920, 40612.00
228.4140, 40702.65
229.6360, 40930.00
230.8580, 40886.00
232.0800, 41016.00
233.3020, 41189.00
234.5230, 40982.00
235.7440, 40989.00
236.9650, 41129.00
238.1860, 41240.00
239.4070, 41392.00
240.6280, 41262.00
241.8480, 41251.00
243.0680, 41546.00
244.2880, 40953.00
245.5080, 41326.00
246.7280, 41343.00
247.9470, 41240.33
249.1660, 41567.50
250.3860, 41761.39
251.6040, 41829.09
252.8230, 41392.83
254.0420, 41607.35
255.2600, 41561.05
256.4790, 41504.07
257.6970, 41810.16
258.9150, 41447.19
260.1320, 41747.51
261.3500, 41783.07
262.5670, 41939.79
263.7840, 41834.09
265.0010, 41809.45
266.2180, 42047.31
267.4350, 42139.82
268.6510, 42003.90
269.8680, 42168.32
271.0840, 41796.14
272.3000, 41894.82
273.5160, 42196.66
274.7310, 42073.92
275.9470, 42243.12
277.1620, 42301.12
278.3770, 41853.84
279.5920, 42285.30
280.8070, 42336.73
282.0210, 41997.94
283.2360, 42399.29
284.4500, 42114.29
285.6640, 42074.27
286.8780, 42218.61
288.0920, 42413.00
289.3050, 42352.00
290.5180, 42347.00
291.7320, 42481.00
292.9450, 42672.00
294.1570, 42487.00
295.3700, 42370.00
296.5830, 42557.00
297.7950, 42839.00
299.0070, 42832.00
300.2190, 42884.00
301.4310, 42759.00
302.6420, 42671.00
303.8540, 42976.00
305.0650, 42810.00
306.2760, 43078.00
307.4870, 43131.00
308.6980, 43308.00
309.9080, 43418.32
311.1190, 43164.00
312.3290, 43552.00
313.5390, 43302.00
314.7490, 43233.00
315.9580, 43473.00
317.1680, 43188.00
318.3770, 43458.00
319.5860, 43189.00
320.7950, 43452.00
322.0040, 43461.00
323.2130, 43424.00
324.4210, 43798.00
325.6290, 44254.00
326.8380, 43734.00
328.0460, 43892.00
329.2530, 43921.52
330.4610, 43719.00
331.6680, 43834.00
332.8760, 44120.00
334.0830, 43805.35
335.2890, 44570.00
336.4960, 43946.00
337.7030, 44110.00
338.9090, 43925.00
340.1150, 44043.00
341.3210, 43840.00
342.5270, 44163.00
343.7330, 43789.00
344.9380, 44207.00
346.1440, 43949.00
347.3490, 43977.00
348.5540, 44387.00
349.7590, 44633.00
350.9630, 44658.00
352.1680, 44572.00
353.3720, 44424.00
354.5760, 44524.00
355.7800, 44902.00
356.9840, 44865.00
358.1870, 44609.00
359.3910, 45003.00
360.5940, 44733.00
361.7970, 44865.00
363.0000, 45263.00
364.2030, 44828.00
365.4050, 44914.00
366.6080, 44601.00
367.8100, 44565.00
369.0120, 45128.00
370.2140, 45289.00
371.4150, 45014.00
372.6170, 44699.00
373.8180, 44791.00
375.0190, 44587.00
376.2200, 44810.00
377.4210, 44649.00
378.6220, 44680.00
379.8220, 44774.00
381.0230, 44769.00
382.2230, 44855.00
383.4230, 44859.09
384.6220, 44943.00
385.8220, 44876.00
387.0220, 44879.00
388.2210, 44898.00
389.4200, 44897.21
390.6190, 45002.00
391.8180, 44923.00
393.0160, 44984.00
394.2150, 44935.00
395.4130, 45187.00
396.6110, 45080.00
397.8090, 45170.00
399.0060, 45558.00
400.2040, 45150.00
401.4010, 45248.00
402.5980, 45264.00
403.7950, 45507.00
404.9920, 45264.00
406.1890, 45498.00
407.3860, 45450.00
408.5820, 45358.00
409.7780, 45584.00
410.9740, 45713.00
412.1700, 45574.00
413.3650, 45650.00
414.5610, 45636.00
415.7560, 45721.00
416.9510, 45939.00
418.1460, 46060.00
419.3410, 46002.00
420.5360, 45906.00
421.7300, 45962.00
422.9240, 45925.00
424.1180, 45792.00
425.3120, 45985.00
426.5060, 46086.00
427.7000, 45964.00
428.8930, 46077.00
430.0860, 46262.00
431.2790, 46218.00
432.4720, 46043.00
433.6650, 46406.00
434.8580, 46306.00
436.0500, 46161.00
437.2420, 46312.00
438.4340, 46185.00
439.6260, 46504.00
440.8180, 46262.00
442.0090, 46398.00
443.2010, 46557.00
444.3920, 46584.00
445.5830, 46549.00
446.7740, 46638.00
447.9640, 46555.00
449.1550, 46768.00
450.3450, 46717.00
451.5350, 47050.00
452.7250, 46654.00
453.9150, 46861.00
455.1050, 46770.00
456.2940, 46868.00
457.4830, 46668.00
458.6720, 46636.00
459.8610, 46917.00
461.0500, 46949.00
462.2390, 46720.00
463.4270, 46935.00
464.6150, 47101.00
465.8040, 47244.00
466.9910, 47205.00
468.1790, 47170.00
469.3670, 47098.00
470.5540, 47098.00
471.7410, 47194.00
472.9280, 47657.00
474.1150, 47670.00
475.3020, 47439.00
476.4890, 47610.00
477.6750, 47421.00
478.8610, 47533.00
480.0470, 47517.06
481.2330, 47562.00
482.4190, 47524.00
483.6040, 47716.00
484.7900, 47762.00
485.9750, 47608.00
487.1600, 47827.00
488.3450, 47961.00
489.5290, 47926.00
490.7140, 48147.00
491.8980, 48064.00
493.0820, 48109.00
494.2660, 48009.00
495.4500, 48191.00
496.6340, 48418.00
497.8170, 48319.00
499.0010, 48433.00
500.1840, 48343.00
501.3670, 48454.00
502.5500, 48474.00
503.7320, 48543.00
504.9150, 48465.00
506.0970, 48558.00
507.2790, 48528.00
508.4610, 48780.00
509.6430, 48819.00
510.8250, 48755.00
512.0060, 48809.00
513.1870, 48835.00
514.3680, 48727.00
515.5490, 48800.00
516.7300, 49107.00
517.9110, 48796.00
519.0910, 49034.00
520.2710, 49224.00
521.4510, 49157.00
522.6310, 49000.00
523.8110, 48866.00
524.9910, 49022.00
526.1700, 48994.00
527.3490, 49420.00
528.5280, 49349.00
529.7070, 49401.00
530.8860, 49315.00
532.0650, 49138.00
533.2430, 49340.00
534.4210, 49258.00
535.5990, 49254.00
536.7770, 49524.00
537.9550, 49465.00
539.1320, 49678.00
540.3100, 49689.00
541.4870, 49563.00
542.6640, 49625.00
543.8410, 49641.00
545.0170, 49627.00
546.1940, 49899.00
547.3700, 50057.00
548.5470, 50012.00
549.7230, 49933.00
550.8980, 50035.00
552.0740, 49905.00
553.2500, 50153.00
554.4250, 50126.00
555.6000, 50010.00
556.7750, 50366.00
557.9500, 50391.00
559.1250, 50576.00
560.2990, 50538.00
561.4730, 50230.00
562.6480, 50153.00
563.8220, 50145.00
564.9950, 50272.00
566.1690, 50314.00
567.3430, 50443.00
568.5160, 50269.00
569.6890, 50407.00
570.8620, 50527.00
572.0350, 50046.00
573.2070, 50085.00
574.3800, 49891.00
575.5520, 49536.00
576.7240, 49362.00
577.8960, 49549.00
579.0680, 49245.00
580.2400, 49101.00
581.4110, 48761.00
582.5830, 48660.00
583.7540, 48422.00
584.9250, 48137.00
586.0950, 48332.00
587.2660, 48012.00
588.4370, 48317.00
589.6070, 48240.00
590.7770, 48156.00
591.9470, 48025.00
593.1170, 48168.00
594.2860, 47979.00
595.4560, 47954.00
596.6250, 48161.00
597.7940, 48096.00
598.9630, 48266.00
600.1320, 48076.00
601.3000, 48223.00
602.4690, 48148.00
603.6370, 47983.00
604.8050, 48025.00
605.9730, 48267.00
607.1410, 47932.00
608.3090, 48223.00
609.4760, 48027.00
610.6430, 47909.00
611.8100, 48197.00
612.9770, 48063.00
614.1440, 48161.00
615.3110, 48080.00
616.4770, 48207.00
617.6430, 48230.46
618.8090, 48313.00
619.9750, 48243.00
621.1410, 48275.00
622.3070, 48075.00
623.4720, 48340.00
624.6370, 48213.00
625.8020, 48087.00
626.9670, 48513.00
628.1320, 48433.00
629.2970, 48248.00
630.4610, 48323.00
631.6250, 48399.00
632.7890, 48405.00
633.9530, 48479.00
635.1170, 48575.00
636.2810, 48374.00
637.4440, 48356.00
638.6070, 48457.00
639.7700, 48286.00
640.9330, 48348.00
642.0960, 48471.00
643.2590, 48464.00
644.4210, 48508.00
645.5830, 48496.33
646.7450, 48617.00
647.9070, 48392.00
649.0690, 48384.00
650.2310, 48268.00
651.3920, 48370.00
652.5530, 48302.00
653.7140, 48423.00
654.8750, 48348.00
656.0360, 48128.00
657.1970, 48693.00
658.3570, 48352.00
659.5170, 48527.00
660.6770, 48138.00
661.8370, 48477.00
662.9970, 48285.00
664.1570, 48257.86
665.3160, 48469.00
666.4750, 48303.00
667.6340, 48132.00
668.7930, 48356.00
669.9520, 48144.00
671.1110, 48232.00
672.2690, 48337.00
673.4270, 48356.00
674.5850, 48457.09
675.7430, 48349.00
676.9010, 48494.00
678.0590, 48466.00
679.2160, 48236.00
680.3730, 48165.00
681.5300, 48179.78
682.6870, 48156.25
683.8440, 48309.00
685.0010, 48303.00
686.1570, 48481.00
687.3130, 48590.00
688.4690, 48509.00
689.6250, 48421.00
690.7810, 48289.00
691.9370, 48412.00
693.0920, 48534.00
694.2470, 48371.00
695.4020, 48190.00
696.5570, 48626.00
697.7120, 48515.00
698.8670, 48198.00
700.0210, 48534.00
701.1750, 48854.00
702.3290, 48377.00
703.4830, 48551.00
704.6370, 48548.00
705.7910, 48465.00
706.9440, 48333.00
708.0970, 48549.00
709.2510, 48227.00
710.4030, 48296.00
711.5560, 48367.00
712.7090, 48578.00
713.8610, 48539.68
715.0140, 48566.00
716.1660, 48610.00
717.3180, 48702.00
718.4690, 48651.05
719.6210, 48500.00
720.7730, 48551.00
721.9240, 48583.00
723.0750, 48493.00
724.2260, 48722.00
725.3770, 48646.00
726.5270, 48729.00
727.6780, 48700.00
728.8280, 48576.00
729.9780, 48912.00
731.1280, 48656.00
732.2780, 48658.00
733.4280, 48785.00
734.5770, 48952.00
735.7260, 48762.00
736.8760, 48825.00
738.0250, 48840.00
739.1730, 48876.00
740.3220, 48873.00
741.4700, 48873.00
742.6190, 48679.00
743.7670, 48873.00
744.9150, 48887.00
746.0630, 48851.00
747.2100, 49143.00
748.3580, 48645.00
749.5050, 48994.00
750.6520, 49287.00
751.7990, 48777.00
752.9460, 48831.00
754.0930, 48891.00
755.2390, 49120.00
756.3860, 48762.00
757.5320, 48979.00
758.6780, 48756.00
759.8240, 49088.00
760.9690, 48999.00
762.1150, 49095.00
763.2600, 49148.00
764.4060, 49133.00
765.5510, 49326.00
766.6950, 48999.00
767.8400, 49100.00
768.9850, 49080.00
770.1290, 49187.00
771.2730, 49218.00
772.4170, 49001.00
773.5610, 49057.00
774.7050, 49167.00
775.8480, 49355.00
776.9920, 49149.00
778.1350, 49117.00
779.2780, 49025.00
780.4210, 49083.00
781.5640, 49174.00
782.7060, 49532.00
783.8490, 49097.00
784.9910, 49073.00
786.1330, 49451.00
787.2750, 49033.00
788.4170, 48942.00
789.5580, 49636.00
790.7000, 49185.00
791.8410, 49437.00
792.9820, 49469.61
794.1230, 49454.00
795.2640, 49430.00
796.4040, 49498.10
797.5450, 49474.80
798.6850, 49544.00
799.8250, 49529.00
800.9650, 49389.00
802.1050, 49485.00
803.2450, 49388.00
804.3840, 49327.00
805.5230, 49731.00
806.6630, 49499.00
807.8020, 49163.00
808.9400, 49493.00
810.0790, 49479.00
811.2170, 49474.00
812.3560, 49450.00
813.4940, 49717.00
814.6320, 49637.00
815.7700, 49430.00
816.9070, 49664.00
818.0450, 49856.00
819.1820, 49171.00
820.3190, 49541.00
821.4560, 49334.00
822.5930, 49548.00
823.7300, 49621.00
824.8670, 49404.00
826.0030, 49457.00
827.1390, 49622.00
828.2750, 49532.00
829.4110, 49387.00
830.5470, 49457.00
831.6820, 49515.00
832.8180, 49602.00
833.9530, 49133.00
835.0880, 49474.00
836.2230, 49532.00
837.3580, 49351.00
838.4920, 49829.00
839.6270, 49543.00
840.7610, 49607.00
841.8950, 49596.00
843.0290, 49637.00
844.1630, 49781.00
845.2960, 49573.00
846.4300, 49707.00
847.5630, 49592.00
848.6960, 49519.00
849.8290, 49684.00
850.9620, 49745.00
852.0940, 49943.00
853.2270, 49863.52
854.3590, 49718.00
855.4910, 49769.00
856.6230, 49651.00
857.7550, 49746.00
858.8870, 49899.00
860.0180, 49537.00
861.1500, 49619.00
862.2810, 49833.00
863.4120, 49870.00
864.5430, 49642.00
865.6730, 49862.49
866.8040, 49725.80
867.9340, 50115.00
869.0640, 49588.00
870.1940, 49832.00
871.3240, 49696.00
872.4540, 50000.00
873.5830, 49929.00
874.7130, 50015.30
875.8420, 49959.00
876.9710, 50133.00
878.1000, 50065.00
879.2290, 50079.00
880.3570, 49890.00
881.4860, 50110.00
882.6140, 50242.00
883.7420, 50093.00
884.8700, 50008.00
885.9980, 49912.00
887.1250, 50175.00
888.2530, 49772.00
889.3800, 50169.00
890.5070, 49971.00
891.6340, 50114.00
892.7610, 49950.00
893.8880, 50267.00
895.0140, 50031.00
896.1400, 50130.00
897.2670, 50240.00
898.3930, 50240.00
899.5180, 50290.47
900.6440, 50307.00
901.7700, 50242.00
902.8950, 50300.00
904.0200, 50151.00
905.1450, 50472.00
906.2700, 50190.00
907.3950, 50219.00
908.5190, 50441.00
909.6440, 50083.00
910.7680, 50449.00
911.8920, 50390.00
913.0160, 50254.00
914.1400, 50338.00
915.2630, 50052.00
916.3870, 50136.00
917.5100, 50333.00
918.6330, 50577.00
919.7560, 50446.00
920.8790, 50586.00
922.0010, 50535.00
923.1240, 50467.00
924.2460, 50365.00
925.3680, 50617.00
926.4900, 50920.00
927.6120, 50647.00
928.7340, 50637.00
929.8550, 50313.00
930.9760, 50585.00
932.0980, 50824.00
933.2190, 50513.00
934.3390, 50520.00
935.4600, 50616.00
936.5810, 50762.00
937.7010, 50634.00
938.8210, 50463.00
939.9410, 50781.00
941.0610, 50670.00
942.1810, 51157.00
943.3010, 51132.00
944.4200, 50533.00
945.5390, 50632.00
946.6580, 50888.00
947.7770, 50775.00
948.8960, 50785.00
950.0150, 50618.00
951.1330, 51083.00
952.2510, 50852.53
953.3690, 50948.00
954.4870, 50845.00
955.6050, 50645.00
956.7230, 50886.00
957.8400, 51037.00
958.9580, 50865.00
960.0750, 51142.00
961.1920, 50943.00
962.3090, 51121.00
963.4250, 51108.00
964.5420, 51284.00
965.6580, 51224.91
966.7740, 51216.51
967.8900, 51189.00
969.0060, 51033.00
970.1220, 51181.00
971.2380, 50952.00
972.3530, 51004.20
973.4680, 51249.00
974.5830, 51010.00
975.6980, 51260.00
976.8130, 51288.00
977.9280, 51160.00
979.0420, 51195.00
980.1560, 51032.00
981.2710, 51330.00
982.3850, 51402.00
983.4980, 51239.00
984.6120, 51278.00
985.7260, 51372.00
986.8390, 51150.00
987.9520, 51535.00
989.0650, 51382.00
990.1780, 51180.00
991.2910, 51352.00
992.4030, 51307.00
993.5160, 51336.00
994.6280, 51402.00
995.7400, 51531.00
996.8520, 51366.00
997.9640, 51391.00
999.0750, 51557.00
1000.187, 51390.00
1001.298, 51449.00
1002.409, 51614.00
1003.520, 51564.00
1004.631, 51190.00
1005.741, 51570.00
1006.852, 51633.00
1007.962, 51192.00
1009.072, 51643.00
1010.182, 51635.00
1011.292, 51491.00
1012.402, 51995.00
1013.511, 51618.00
1014.621, 51623.00
1015.730, 51669.00
1016.839, 51597.00
1017.948, 51688.00
1019.056, 51423.00
1020.165, 51722.00
1021.273, 51876.00
1022.382, 51631.00
1023.490, 52007.00
1024.598, 51399.00
1025.706, 51868.00
1026.813, 51627.00
1027.921, 51480.00
1029.028, 51730.00
1030.135, 51884.00
1031.242, 51780.00
1032.349, 51738.00
1033.456, 51873.00
1034.562, 52035.00
1035.668, 51858.00
1036.775, 52216.00
1037.881, 52187.00
1038.987, 52520.00
1040.092, 52301.00
1041.198, 52042.00
1042.303, 52082.00
1043.408, 52052.00
1044.514, 52245.00
1045.618, 52299.00
1046.723, 52256.00
1047.828, 52100.00
1048.932, 52228.00
1050.037, 52481.00
1051.141, 52186.00
1052.245, 52214.00
1053.349, 52529.00
1054.452, 52106.00
1055.556, 52180.00
1056.659, 52141.00
1057.762, 52235.00
1058.865, 52127.00
1059.968, 52264.41
1061.071, 51887.00
1062.174, 52472.00
1063.276, 52508.00
1064.378, 52568.00
1065.480, 52212.00
1066.582, 52568.00
1067.684, 52501.00
1068.786, 52689.00
1069.887, 52653.00
1070.988, 52563.00
1072.090, 52489.00
1073.191, 52980.00
1074.291, 52549.00
1075.392, 52619.00
1076.493, 52897.00
1077.593, 52386.00
1078.693, 52624.00
1079.793, 52591.00
1080.893, 52592.00
1081.993, 52452.00
1083.092, 52782.00
1084.192, 52886.00
1085.291, 52946.00
1086.390, 52940.00
1087.489, 52887.57
1088.588, 52664.00
1089.686, 52659.00
1090.785, 52564.00
1091.883, 52414.00
1092.981, 52493.98
1094.079, 52435.54
1095.177, 52617.00
1096.275, 52442.00
1097.373, 52526.00
1098.470, 52463.00
1099.567, 52410.08
1100.664, 52823.00
1101.761, 52290.00
1102.858, 52633.00
1103.954, 52512.00
1105.051, 52367.00
1106.147, 52444.00
1107.243, 52406.69
1108.339, 52316.84
1109.435, 52577.00
1110.531, 52277.00
1111.626, 52481.00
1112.722, 52739.00
1113.817, 52809.00
1114.912, 52656.00
1116.007, 52629.00
1117.101, 52669.00
1118.196, 52572.00
1119.290, 52581.92
1120.385, 52569.18
1121.479, 52549.00
1122.573, 52524.00
1123.666, 52532.00
1124.760, 52449.02
1125.853, 52368.00
1126.947, 52408.00
1128.040, 52269.00
1129.133, 52225.00
1130.226, 52168.53
1131.318, 52134.45
1132.411, 52137.04
1133.503, 52134.00
1134.596, 52182.00
1135.688, 52210.00
1136.780, 52269.00
1137.871, 52180.00
1138.963, 52122.00
1140.054, 52061.00
1141.146, 52051.37
1142.237, 52077.45
1143.328, 52141.00
1144.419, 52145.00
1145.509, 52357.00
1146.600, 52312.51
1147.690, 52225.00
1148.780, 52103.00
1149.870, 51973.00
1150.960, 51803.00
1152.050, 51795.00
1153.139, 51850.00
1154.229, 52189.00
1155.318, 51899.00
1156.407, 52095.00
1157.496, 52167.00
1158.585, 51910.00
1159.674, 51991.00
1160.762, 51919.00
1161.850, 52093.00
1162.939, 52075.00
1164.027, 52110.00
1165.114, 52076.00
1166.202, 51936.00
1167.290, 51977.00
1168.377, 51759.00
1169.464, 51974.00
1170.551, 51919.00
1171.638, 52043.00
1172.725, 52130.00
1173.812, 51882.00
1174.898, 51758.00
1175.984, 51781.00
1177.071, 51808.00
1178.157, 51848.00
1179.242, 51875.20
1180.328, 52125.00
1181.414, 51876.00
1182.499, 52193.00
1183.584, 52076.00
1184.669, 52006.00
1185.754, 52030.00
1186.839, 52049.00
1187.924, 51958.00
1189.008, 51821.00
1190.092, 52015.00
1191.177, 52101.00
1192.260, 51618.00
1193.344, 52006.00
1194.428, 51707.00
1195.512, 51979.00
1196.595, 51822.00
1197.678, 51654.00
1198.761, 51767.00
1199.844, 51924.00
1200.927, 52332.00
1202.009, 52190.28
1203.092, 51750.00
1204.174, 52124.00
1205.256, 51707.00
1206.338, 51811.00
1207.420, 51834.00
1208.502, 51871.00
1209.583, 51913.43
1210.665, 51927.54
1211.746, 51947.00
1212.827, 51973.00
1213.908, 51963.00
1214.988, 52004.00
1216.069, 51849.00
1217.149, 51878.00
1218.230, 51877.00
1219.310, 51845.00
1220.390, 52061.00
1221.470, 51949.12
1222.549, 51972.00
1223.629, 51856.00
1224.708, 51797.00
1225.787, 51723.00
1226.866, 51681.28
1227.945, 51655.56
1229.024, 51745.00
1230.103, 51649.00
1231.181, 51923.00
1232.259, 51984.00
1233.337, 51983.00
1234.415, 51708.00
1235.493, 51912.00
1236.571, 51662.00
1237.648, 51849.00
1238.726, 52264.00
1239.803, 51789.00
1240.880, 52170.00
1241.957, 52058.00
1243.034, 51900.00
1244.110, 51841.00
1245.187, 51776.00
1246.263, 51910.00
1247.339, 51861.45
1248.415, 51992.00
1249.491, 51908.00
1250.566, 51980.00
1251.642, 51999.00
1252.717, 52189.00
1253.793, 52136.67
1254.868, 51956.00
1255.943, 52094.00
1257.017, 52206.00
1258.092, 52171.48
1259.166, 51898.00
1260.241, 52029.00
1261.315, 51864.00
1262.389, 51868.00
1263.462, 51697.00
1264.536, 52017.00
1265.610, 51842.00
1266.683, 51947.00
1267.756, 52121.00
1268.829, 51690.00
1269.902, 51972.00
1270.975, 51952.00
1272.048, 51803.00
1273.120, 52042.00
1274.192, 51763.00
1275.264, 51833.00
1276.336, 51919.00
1277.408, 51822.00
1278.480, 51873.00
1279.551, 51733.00
1280.623, 52185.00
1281.694, 51797.00
1282.765, 52215.00
1283.836, 52028.00
1284.907, 52095.00
1285.977, 52244.00
1287.048, 52363.00
1288.118, 52321.30
1289.188, 52218.00
1290.258, 52185.00
1291.328, 51989.00
1292.398, 51829.00
1293.467, 52209.00
1294.537, 51946.00
1295.606, 52043.00
1296.675, 52241.00
1297.744, 52035.00
1298.813, 52191.00
1299.882, 52283.00
1300.950, 51814.00
1302.018, 52126.00
1303.086, 52403.00
1304.155, 52419.00
1305.222, 51946.00
1306.290, 52670.00
1307.358, 52977.00
1308.425, 52272.00
1309.492, 52165.00
1310.559, 51882.00
1311.626, 52216.00
1312.693, 51899.00
1313.760, 52379.00
1314.826, 52283.00
1315.893, 52123.00
1316.959, 52449.00
1318.025, 52192.00
1319.091, 52164.00
1320.157, 52243.00
1321.222, 52348.00
1322.288, 52267.00
1323.353, 52120.00
1324.418, 52023.00
1325.483, 52383.00
1326.548, 51976.00
1327.612, 52518.00
1328.677, 52304.00
1329.741, 51993.00
1330.806, 52173.00
1331.870, 52078.00
1332.934, 52200.00
1333.997, 52026.00
1335.061, 51925.00
1336.124, 52409.00
1337.188, 52179.00
1338.251, 52307.00
1339.314, 52243.00
1340.377, 52126.00
1341.439, 52239.00
1342.502, 52278.00
1343.564, 52500.00
1344.627, 52110.00
1345.689, 52297.00
1346.751, 52320.00
1347.813, 52226.00
1348.874, 52253.00
1349.936, 52348.00
1350.997, 52165.00
1352.058, 52396.00
1353.119, 52483.00
1354.180, 52320.00
1355.241, 52510.00
1356.301, 52481.00
1357.362, 52315.06
1358.422, 52482.00
1359.482, 52060.00
1360.542, 52372.00
1361.602, 52486.00
1362.662, 52418.00
1363.721, 52217.00
1364.781, 52474.00
1365.840, 52298.00
1366.899, 52081.00
1367.958, 52657.00
1369.017, 52199.00
1370.075, 52397.00
1371.134, 52218.00
1372.192, 52183.00
1373.250, 52292.00
1374.308, 52204.20
1375.366, 52298.18
1376.424, 52405.00
1377.481, 52398.00
1378.539, 52346.50
1379.596, 52910.00
1380.653, 52230.00
1381.710, 51865.00
1382.767, 52004.00
1383.824, 52259.00
1384.880, 52081.00
1385.937, 52345.00
1386.993, 52399.00
1388.049, 52575.00
1389.105, 52397.00
1390.161, 52296.00
1391.216, 52525.00
1392.272, 52415.00
1393.327, 52692.00
1394.382, 52280.00
1395.437, 52246.00
1396.492, 52515.00
1397.547, 52388.00
1398.601, 52441.00
1399.656, 52363.00
1400.710, 52533.00
1401.764, 52701.00
1402.818, 52271.00
1403.872, 52479.00
1404.925, 52537.00
1405.979, 52315.00
1407.032, 52650.00
1408.085, 52528.00
1409.139, 52436.00
1410.191, 52473.00
1411.244, 52491.00
1412.297, 52540.00
1413.349, 52516.00
1414.402, 52861.00
1415.454, 52467.00
1416.506, 52729.00
1417.558, 52418.00
1418.609, 52545.00
1419.661, 52541.00
1420.712, 52524.00
1421.764, 52402.00
1422.815, 52317.00
1423.866, 52364.00
1424.916, 52479.00
1425.967, 52063.00
1427.018, 52553.00
1428.068, 52265.00
1429.118, 52404.00
1430.168, 52812.00
1431.218, 52684.00
1432.268, 52652.00
1433.318, 52480.00
1434.367, 52544.00
1435.416, 52790.00
1436.465, 52737.00
1437.514, 52697.00
1438.563, 52639.00
1439.612, 52575.00
1440.661, 52505.00
1441.709, 52433.00
1442.757, 52481.41
1443.805, 52584.00
1444.853, 52608.00
1445.901, 52450.00
1446.949, 52506.00
1447.996, 52405.00
1449.044, 52503.77
1450.091, 52703.00
1451.138, 52788.00
1452.185, 52564.00
1453.232, 52783.00
1454.278, 52673.00
1455.325, 52793.00
1456.371, 52714.00
1457.417, 52710.00
1458.463, 52961.00
1459.509, 52639.00
1460.555, 52450.00
1461.601, 52671.00
1462.646, 52660.00
1463.691, 52628.00
1464.737, 52905.00
1465.782, 52716.00
1466.826, 52654.00
1467.871, 52659.00
1468.916, 52715.00
1469.960, 52683.55
1471.004, 52485.00
1472.048, 52690.00
1473.092, 52779.00
1474.136, 52781.00
1475.180, 52462.00
1476.223, 52470.00
1477.267, 52525.95
1478.310, 52687.00
1479.353, 52711.00
1480.396, 52641.00
1481.439, 52611.00
1482.481, 52838.00
1483.524, 52423.00
1484.566, 52799.00
1485.608, 52677.00
1486.650, 52671.00
1487.692, 52767.00
1488.734, 52763.00
1489.775, 52912.00
1490.817, 52722.00
1491.858, 52789.57
1492.899, 52942.00
1493.940, 52674.00
1494.981, 52654.00
1496.022, 52422.00
1497.062, 52555.00
1498.103, 52765.00
1499.143, 52616.00
1500.183, 52723.00
1501.223, 52708.00
1502.263, 52652.00
1503.302, 52723.00
1504.342, 52790.00
1505.381, 52897.00
1506.420, 52903.92
1507.459, 52809.00
1508.498, 52994.00
1509.537, 52757.00
1510.576, 52919.00
1511.614, 52575.00
1512.652, 52697.00
1513.691, 52821.00
1514.729, 52836.00
1515.767, 52869.95
1516.804, 52626.00
1517.842, 52802.00
1518.879, 52622.00
1519.917, 52502.00
1520.954, 52696.00
1521.991, 52503.00
1523.028, 52705.00
1524.064, 53028.00
1525.101, 52460.00
1526.137, 52662.00
1527.173, 53039.00
1528.210, 52756.00
1529.245, 52953.00
1530.281, 52981.00
1531.317, 52817.00
1532.352, 52733.00
1533.388, 52997.00
1534.423, 52759.00
1535.458, 52922.00
1536.493, 52700.00
1537.528, 52809.60
1538.562, 52986.46
1539.597, 53087.15
1540.631, 53115.75
1541.665, 52856.36
1542.700, 52968.85
1543.733, 52932.30
1544.767, 52889.65
1545.801, 53054.48
1546.834, 52836.98
1547.868, 52998.52
1548.901, 53008.75
1549.934, 53088.23
1550.967, 53017.75
1551.999, 52993.59
1553.032, 53119.43
1554.064, 53162.22
1555.097, 53074.48
1556.129, 53158.36
1557.161, 52935.62
1558.193, 52981.95
1559.224, 53144.35
1560.256, 53064.16
1561.287, 53150.77
1562.318, 53173.86
1563.350, 52908.21
1564.380, 53144.70
1565.411, 53164.03
1566.442, 52853.00
1567.472, 53070.00
1568.503, 52759.00
1569.533, 53002.00
1570.563, 53291.00
##END=



