##NAMES=Carrollite
##RRUFFID=R040165
##IDEAL CHEMISTRY=Cu^1+^Co^3+^_2_S_4_
##LOCALITY=Katanga, Democratic Republic of the Congo
##OWNER=RRUFF
##SOURCE=University of Arizona Mineral Museum
##DESCRIPTION=Steel gray octahedral crystals that have a tarnished exterior
##STATUS=The identification of this mineral has been confirmed by X-ray diffraction and chemical analysis
##URL=rruff.info/R040165
##MEASURED CHEMISTRY=(Cu_0.97_Fe_0.03_)Co_1.98_S_4_
##PIN_ID=M00105
##ORIENTATION=Laser parallel to -a* (-1 0 0). Fiducial mark perpendicular to laser is parallel to -c [0 0 -1]
96.62100, 48586.00
97.86200, 48515.00
99.10300, 49059.00
100.3440, 48507.00
101.5850, 48558.00
102.8250, 49409.00
104.0650, 51542.00
105.3050, 53166.00
106.5450, 55337.00
107.7850, 57638.00
109.0250, 55906.00
110.2640, 55693.00
111.5030, 57198.00
112.7420, 58837.00
113.9810, 59554.00
115.2200, 59149.00
116.4580, 58014.00
117.6970, 58053.00
118.9350, 55326.00
120.1730, 54063.00
121.4100, 52479.00
122.6480, 52304.00
123.8850, 50646.00
125.1230, 49332.00
126.3600, 49581.00
127.5960, 49827.00
128.8330, 50334.00
130.0700, 50237.00
131.3060, 50647.00
132.5420, 49674.00
133.7780, 49237.00
135.0140, 49321.00
136.2500, 49795.00
137.4850, 49651.47
138.7200, 50407.00
139.9550, 49851.00
141.1900, 48964.00
142.4250, 48780.00
143.6600, 49094.00
144.8940, 49012.00
146.1280, 48937.00
147.3620, 49088.00
148.5960, 49225.88
149.8300, 48997.00
151.0630, 49641.00
152.2960, 49722.00
153.5300, 49730.00
154.7620, 49302.00
155.9950, 48992.00
157.2280, 48813.00
158.4600, 48804.91
159.6920, 49054.00
160.9250, 49168.00
162.1560, 49596.00
163.3880, 50076.00
164.6200, 50403.00
165.8510, 50005.00
167.0820, 49524.00
168.3130, 49801.00
169.5440, 49736.00
170.7750, 50044.00
172.0050, 49525.00
173.2350, 49498.00
174.4650, 49654.00
175.6950, 49764.00
176.9250, 50008.00
178.1550, 49999.00
179.3840, 50012.00
180.6130, 49706.00
181.8420, 50020.00
183.0710, 49971.00
184.3000, 50123.00
185.5280, 50635.00
186.7570, 50763.00
187.9850, 50781.00
189.2130, 51196.00
190.4400, 51784.00
191.6680, 51895.00
192.8960, 52217.00
194.1230, 52159.00
195.3500, 52571.00
196.5770, 52370.00
197.8030, 52261.00
199.0300, 52559.00
200.2560, 52964.00
201.4830, 53127.00
202.7090, 52484.00
203.9340, 51289.00
205.1600, 50529.00
206.3860, 49987.00
207.6110, 49850.00
208.8360, 49343.00
210.0610, 49643.00
211.2860, 49893.00
212.5100, 49915.00
213.7350, 50163.00
214.9590, 49890.00
216.1830, 49973.00
217.4070, 49995.00
218.6310, 49940.00
219.8540, 50038.00
221.0780, 49994.71
222.3010, 50018.00
223.5240, 49986.00
224.7470, 50099.82
225.9690, 50133.69
227.1920, 50268.00
228.4140, 50202.00
229.6360, 49919.00
230.8580, 50063.00
232.0800, 50380.00
233.3020, 49979.00
234.5230, 50352.00
235.7440, 50544.00
236.9650, 50742.00
238.1860, 50821.00
239.4070, 50941.80
240.6280, 51021.05
241.8480, 51122.00
243.0680, 51249.53
244.2880, 51342.01
245.5080, 51494.00
246.7280, 51664.00
247.9470, 51765.82
249.1660, 51720.00
250.3860, 51983.00
251.6040, 52109.00
252.8230, 52285.00
254.0420, 52203.00
255.2600, 51857.65
256.4790, 52031.99
257.6970, 52121.87
258.9150, 52131.82
260.1320, 51822.46
261.3500, 51925.43
262.5670, 51863.16
263.7840, 51794.12
265.0010, 51955.13
266.2180, 51692.21
267.4350, 52029.00
268.6510, 51477.00
269.8680, 51860.00
271.0840, 51884.00
272.3000, 51440.00
273.5160, 51644.00
274.7310, 51825.00
275.9470, 51901.00
277.1620, 51874.00
278.3770, 51787.00
279.5920, 51582.00
280.8070, 51534.00
282.0210, 51548.00
283.2360, 51654.00
284.4500, 52014.00
285.6640, 51915.00
286.8780, 51852.00
288.0920, 51702.00
289.3050, 52019.00
290.5180, 52021.00
291.7320, 52455.00
292.9450, 51826.00
294.1570, 52189.00
295.3700, 52096.00
296.5830, 52169.00
297.7950, 52437.00
299.0070, 52458.00
300.2190, 52558.00
301.4310, 52948.00
302.6420, 52885.00
303.8540, 52942.00
305.0650, 53261.00
306.2760, 53290.00
307.4870, 53162.00
308.6980, 53388.00
309.9080, 53384.00
311.1190, 53529.00
312.3290, 53330.00
313.5390, 53358.00
314.7490, 53333.00
315.9580, 53415.00
317.1680, 53095.00
318.3770, 53412.00
319.5860, 53063.00
320.7950, 53135.00
322.0040, 53541.00
323.2130, 53251.00
324.4210, 53055.00
325.6290, 53149.00
326.8380, 53442.00
328.0460, 53332.00
329.2530, 53531.00
330.4610, 53295.00
331.6680, 53872.00
332.8760, 53452.00
334.0830, 53860.00
335.2890, 54421.00
336.4960, 53775.00
337.7030, 54202.00
338.9090, 54101.00
340.1150, 54097.00
341.3210, 54257.00
342.5270, 54432.00
343.7330, 54805.00
344.9380, 54587.00
346.1440, 55236.00
347.3490, 55180.00
348.5540, 55187.00
349.7590, 55671.00
350.9630, 56050.00
352.1680, 56030.00
353.3720, 56139.00
354.5760, 56274.00
355.7800, 56723.00
356.9840, 56632.00
358.1870, 56688.00
359.3910, 56674.00
360.5940, 56602.00
361.7970, 56353.00
363.0000, 56246.88
364.2030, 56091.00
365.4050, 55836.00
366.6080, 55701.00
367.8100, 55457.00
369.0120, 55238.00
370.2140, 55151.43
371.4150, 54948.00
372.6170, 54867.00
373.8180, 54797.00
375.0190, 54709.40
376.2200, 54657.83
377.4210, 54661.00
378.6220, 54587.00
379.8220, 54643.00
381.0230, 54688.00
382.2230, 54637.00
383.4230, 54751.00
384.6220, 54693.00
385.8220, 54799.00
387.0220, 54684.00
388.2210, 54682.00
389.4200, 54619.00
390.6190, 54794.00
391.8180, 54640.00
393.0160, 54676.00
394.2150, 54931.00
395.4130, 54920.00
396.6110, 54740.00
397.8090, 54870.00
399.0060, 54979.00
400.2040, 54801.00
401.4010, 54855.00
402.5980, 54822.00
403.7950, 55194.00
404.9920, 55148.00
406.1890, 55446.00
407.3860, 54888.00
408.5820, 55127.00
409.7780, 54930.00
410.9740, 55279.00
412.1700, 55051.00
413.3650, 55228.00
414.5610, 55436.00
415.7560, 55195.00
416.9510, 55381.00
418.1460, 55594.00
419.3410, 55693.00
420.5360, 55800.82
421.7300, 55369.00
422.9240, 55807.00
424.1180, 55601.00
425.3120, 55332.00
426.5060, 55683.00
427.7000, 55449.00
428.8930, 55760.00
430.0860, 55683.00
431.2790, 55661.00
432.4720, 55629.00
433.6650, 55726.00
434.8580, 55947.00
436.0500, 55487.00
437.2420, 56109.00
438.4340, 55765.00
439.6260, 55757.00
440.8180, 55925.00
442.0090, 56287.00
443.2010, 56205.00
444.3920, 56085.00
445.5830, 56397.00
446.7740, 56157.00
447.9640, 55893.00
449.1550, 56049.00
450.3450, 55976.88
451.5350, 56054.00
452.7250, 56256.00
453.9150, 56383.00
455.1050, 56696.00
456.2940, 56080.00
457.4830, 56490.00
458.6720, 56189.00
459.8610, 56736.00
461.0500, 56904.00
462.2390, 56403.00
463.4270, 56145.00
464.6150, 56640.00
465.8040, 56691.00
466.9910, 56579.00
468.1790, 56760.00
469.3670, 56742.47
470.5540, 56930.00
471.7410, 56771.00
472.9280, 56838.00
474.1150, 56707.00
475.3020, 56813.00
476.4890, 56867.00
477.6750, 56830.00
478.8610, 57000.00
480.0470, 56961.00
481.2330, 57061.00
482.4190, 57130.00
483.6040, 56982.00
484.7900, 57352.00
485.9750, 57628.00
487.1600, 57486.00
488.3450, 57336.00
489.5290, 57483.00
490.7140, 57031.00
491.8980, 57281.00
493.0820, 57540.00
494.2660, 57267.00
495.4500, 57359.00
496.6340, 57311.00
497.8170, 57749.00
499.0010, 57795.00
500.1840, 57865.00
501.3670, 58066.00
502.5500, 57578.00
503.7320, 57639.00
504.9150, 57477.00
506.0970, 57762.00
507.2790, 58065.00
508.4610, 57860.00
509.6430, 57898.00
510.8250, 57967.00
512.0060, 57851.00
513.1870, 58110.00
514.3680, 58199.00
515.5490, 58005.00
516.7300, 58124.00
517.9110, 58136.00
519.0910, 58433.00
520.2710, 58178.00
521.4510, 58360.00
522.6310, 58207.00
523.8110, 58213.00
524.9910, 58467.00
526.1700, 58529.00
527.3490, 58629.82
528.5280, 58312.00
529.7070, 58762.00
530.8860, 58612.00
532.0650, 58542.00
533.2430, 58759.00
534.4210, 58491.00
535.5990, 58631.00
536.7770, 58725.00
537.9550, 58426.00
539.1320, 58793.00
540.3100, 58617.00
541.4870, 58799.00
542.6640, 58814.00
543.8410, 58780.00
545.0170, 59055.00
546.1940, 58745.00
547.3700, 58975.00
548.5470, 59230.00
549.7230, 59049.00
550.8980, 59118.00
552.0740, 59478.00
553.2500, 59284.00
554.4250, 59282.00
555.6000, 59258.00
556.7750, 59478.00
557.9500, 59477.00
559.1250, 59519.00
560.2990, 59583.00
561.4730, 59394.00
562.6480, 59565.00
563.8220, 59465.00
564.9950, 59148.00
566.1690, 59660.00
567.3430, 59542.00
568.5160, 59672.00
569.6890, 59549.00
570.8620, 59592.00
572.0350, 59505.00
573.2070, 59490.00
574.3800, 59369.00
575.5520, 59247.00
576.7240, 59409.00
577.8960, 58643.00
579.0680, 59022.00
580.2400, 58478.00
581.4110, 58787.00
582.5830, 58283.00
583.7540, 58294.00
584.9250, 58145.00
586.0950, 57994.00
587.2660, 57998.00
588.4370, 58314.00
589.6070, 57959.00
590.7770, 57632.00
591.9470, 58112.00
593.1170, 58100.00
594.2860, 57923.00
595.4560, 57819.00
596.6250, 58164.00
597.7940, 57731.00
598.9630, 58075.00
600.1320, 57893.00
601.3000, 57848.00
602.4690, 58094.00
603.6370, 57853.00
604.8050, 57879.00
605.9730, 57995.00
607.1410, 58160.00
608.3090, 58167.00
609.4760, 57876.00
610.6430, 58282.00
611.8100, 57963.51
612.9770, 58369.00
614.1440, 57859.00
615.3110, 58009.00
616.4770, 58459.00
617.6430, 57947.00
618.8090, 57880.00
619.9750, 58263.00
621.1410, 58248.00
622.3070, 58139.00
623.4720, 58404.00
624.6370, 58274.00
625.8020, 58336.00
626.9670, 58387.30
628.1320, 58353.00
629.2970, 58349.00
630.4610, 58359.00
631.6250, 58416.90
632.7890, 58533.00
633.9530, 58570.00
635.1170, 58517.00
636.2810, 58563.00
637.4440, 58433.00
638.6070, 58472.04
639.7700, 58278.00
640.9330, 58472.00
642.0960, 58440.29
643.2590, 58411.00
644.4210, 58584.00
645.5830, 58440.00
646.7450, 58416.00
647.9070, 58286.00
649.0690, 58174.00
650.2310, 58455.00
651.3920, 58396.00
652.5530, 58317.00
653.7140, 58307.00
654.8750, 58205.00
656.0360, 58297.00
657.1970, 58264.00
658.3570, 58252.00
659.5170, 58212.00
660.6770, 58248.00
661.8370, 58471.00
662.9970, 58205.00
664.1570, 58735.00
665.3160, 58241.00
666.4750, 58406.00
667.6340, 58512.00
668.7930, 58139.00
669.9520, 58341.00
671.1110, 58385.00
672.2690, 58312.00
673.4270, 58275.00
674.5850, 58207.00
675.7430, 58181.29
676.9010, 58175.98
678.0590, 58152.12
679.2160, 58210.51
680.3730, 58242.00
681.5300, 58301.00
682.6870, 58494.00
683.8440, 58497.00
685.0010, 58574.00
686.1570, 58478.00
687.3130, 58502.00
688.4690, 58441.00
689.6250, 58340.00
690.7810, 58478.00
691.9370, 58644.00
693.0920, 58436.00
694.2470, 58253.00
695.4020, 58441.00
696.5570, 58480.00
697.7120, 58557.00
698.8670, 58683.84
700.0210, 58571.00
701.1750, 58865.00
702.3290, 58398.00
703.4830, 58390.00
704.6370, 58677.00
705.7910, 58343.00
706.9440, 58771.00
708.0970, 59390.00
709.2510, 58407.00
710.4030, 58618.00
711.5560, 58358.00
712.7090, 58619.00
713.8610, 58933.00
715.0140, 58251.00
716.1660, 58790.00
717.3180, 58605.00
718.4690, 58429.00
719.6210, 58830.00
720.7730, 58645.00
721.9240, 58706.00
723.0750, 59379.00
724.2260, 58779.00
725.3770, 58932.00
726.5270, 58767.00
727.6780, 58525.00
728.8280, 58957.00
729.9780, 58821.00
731.1280, 58669.00
732.2780, 58868.00
733.4280, 59042.00
734.5770, 58851.00
735.7260, 58937.00
736.8760, 58712.00
738.0250, 58991.00
739.1730, 59044.00
740.3220, 59191.00
741.4700, 58944.00
742.6190, 59065.00
743.7670, 59115.68
744.9150, 59071.00
746.0630, 59228.00
747.2100, 59032.00
748.3580, 58905.00
749.5050, 58997.00
750.6520, 58939.00
751.7990, 58948.00
752.9460, 59120.00
754.0930, 58994.00
755.2390, 59144.00
756.3860, 59150.00
757.5320, 59001.00
758.6780, 59579.00
759.8240, 59189.00
760.9690, 59260.00
762.1150, 59115.00
763.2600, 59404.00
764.4060, 59170.00
765.5510, 59460.00
766.6950, 59420.00
767.8400, 58917.00
768.9850, 59352.00
770.1290, 59280.00
771.2730, 59566.00
772.4170, 59379.00
773.5610, 59339.00
774.7050, 59444.00
775.8480, 59381.00
776.9920, 59295.00
778.1350, 59397.00
779.2780, 59284.00
780.4210, 59513.00
781.5640, 59221.00
782.7060, 59284.00
783.8490, 59177.00
784.9910, 59150.00
786.1330, 59124.75
787.2750, 59325.00
788.4170, 59070.00
789.5580, 59170.00
790.7000, 59217.00
791.8410, 58836.00
792.9820, 59311.00
794.1230, 59460.00
795.2640, 59182.00
796.4040, 59356.00
797.5450, 59492.00
798.6850, 58939.00
799.8250, 59592.00
800.9650, 59205.00
802.1050, 59607.00
803.2450, 59634.00
804.3840, 59591.00
805.5230, 59604.00
806.6630, 59455.00
807.8020, 59560.00
808.9400, 59577.79
810.0790, 59699.00
811.2170, 59779.00
812.3560, 59509.00
813.4940, 59673.00
814.6320, 59783.00
815.7700, 59554.00
816.9070, 59643.00
818.0450, 59524.00
819.1820, 59657.00
820.3190, 59650.00
821.4560, 59673.77
822.5930, 59620.00
823.7300, 59709.00
824.8670, 59710.00
826.0030, 59619.00
827.1390, 59704.00
828.2750, 59728.00
829.4110, 60157.00
830.5470, 59564.00
831.6820, 59954.00
832.8180, 59361.00
833.9530, 59793.00
835.0880, 60020.00
836.2230, 60114.00
837.3580, 59816.00
838.4920, 59710.00
839.6270, 60047.00
840.7610, 59435.00
841.8950, 59890.00
843.0290, 59534.00
844.1630, 60034.00
845.2960, 59809.00
846.4300, 59471.00
847.5630, 60046.00
848.6960, 59785.00
849.8290, 59676.00
850.9620, 59865.00
852.0940, 59707.00
853.2270, 60109.00
854.3590, 59828.00
855.4910, 59949.00
856.6230, 59695.00
857.7550, 59944.00
858.8870, 59752.00
860.0180, 59840.00
861.1500, 59875.00
862.2810, 60082.00
863.4120, 60092.00
864.5430, 59988.00
865.6730, 59912.00
866.8040, 60070.00
867.9340, 60065.00
869.0640, 60297.00
870.1940, 59924.00
871.3240, 60354.00
872.4540, 59957.00
873.5830, 60089.00
874.7130, 59987.00
875.8420, 60160.00
876.9710, 60247.00
878.1000, 60090.00
879.2290, 60243.00
880.3570, 60084.00
881.4860, 60328.00
882.6140, 60176.00
883.7420, 60168.00
884.8700, 60090.00
885.9980, 60109.00
887.1250, 60190.00
888.2530, 60344.00
889.3800, 60186.00
890.5070, 60176.03
891.6340, 60408.00
892.7610, 60020.00
893.8880, 60176.00
895.0140, 60309.00
896.1400, 60267.00
897.2670, 60073.00
898.3930, 60458.00
899.5180, 60465.00
900.6440, 60525.00
901.7700, 60187.00
902.8950, 60249.00
904.0200, 60227.00
905.1450, 60220.00
906.2700, 60349.00
907.3950, 60366.00
908.5190, 60577.00
909.6440, 60718.00
910.7680, 60950.00
911.8920, 60745.00
913.0160, 60659.00
914.1400, 60481.00
915.2630, 60608.00
916.3870, 60673.00
917.5100, 60446.00
918.6330, 60405.00
919.7560, 60346.00
920.8790, 60849.00
922.0010, 60697.00
923.1240, 60732.00
924.2460, 60437.00
925.3680, 60708.00
926.4900, 60522.00
927.6120, 60688.00
928.7340, 60757.00
929.8550, 61053.00
930.9760, 60814.00
932.0980, 60670.00
933.2190, 60580.00
934.3390, 60875.00
935.4600, 60795.00
936.5810, 61010.00
937.7010, 60774.00
938.8210, 60969.00
939.9410, 60760.00
941.0610, 60644.00
942.1810, 60892.00
943.3010, 61025.00
944.4200, 60800.00
945.5390, 60959.00
946.6580, 60912.00
947.7770, 60959.00
948.8960, 61035.00
950.0150, 60806.00
951.1330, 60751.00
952.2510, 61322.00
953.3690, 61064.00
954.4870, 61207.00
955.6050, 61196.00
956.7230, 61106.00
957.8400, 61231.00
958.9580, 60959.00
960.0750, 61107.00
961.1920, 61441.00
962.3090, 61331.00
963.4250, 61118.00
964.5420, 61199.00
965.6580, 61428.00
966.7740, 61321.00
967.8900, 61272.00
969.0060, 61308.00
970.1220, 61217.00
971.2380, 61162.00
972.3530, 61321.00
973.4680, 61328.00
974.5830, 61199.00
975.6980, 61495.00
976.8130, 61521.00
977.9280, 61227.00
979.0420, 61489.00
980.1560, 61565.00
981.2710, 61492.00
982.3850, 61595.77
983.4980, 61627.62
984.6120, 61577.00
985.7260, 61727.00
986.8390, 61733.00
987.9520, 61730.13
989.0650, 62012.00
990.1780, 61635.00
991.2910, 61829.00
992.4030, 61915.00
993.5160, 61729.00
994.6280, 61594.00
995.7400, 61906.00
996.8520, 61858.00
997.9640, 61732.00
999.0750, 61607.00
1000.187, 62073.00
1001.298, 61674.00
1002.409, 62077.00
1003.520, 61885.00
1004.631, 61657.00
1005.741, 61942.00
1006.852, 61989.00
1007.962, 61815.00
1009.072, 62065.00
1010.182, 61829.00
1011.292, 61996.00
1012.402, 61667.00
1013.511, 62131.00
1014.621, 62068.00
1015.730, 61877.00
1016.839, 61787.00
1017.948, 61808.00
1019.056, 61792.24
1020.165, 61903.00
1021.273, 61953.00
1022.382, 61836.00
1023.490, 61952.00
1024.598, 61808.00
1025.706, 61854.10
1026.813, 61902.00
1027.921, 61890.00
1029.028, 61972.24
1030.135, 62134.00
1031.242, 62094.00
1032.349, 62195.00
1033.456, 62241.00
1034.562, 62162.00
1035.668, 62042.00
1036.775, 62272.00
1037.881, 62223.00
1038.987, 62134.00
1040.092, 62136.00
1041.198, 62194.00
1042.303, 62333.00
1043.408, 62259.00
1044.514, 62208.00
1045.618, 62538.00
1046.723, 62559.00
1047.828, 62234.00
1048.932, 62460.00
1050.037, 62464.00
1051.141, 62555.00
1052.245, 62546.00
1053.349, 62622.00
1054.452, 62266.00
1055.556, 62704.00
1056.659, 62674.00
1057.762, 62199.00
1058.865, 62443.00
1059.968, 62373.00
1061.071, 62652.00
1062.174, 62710.00
1063.276, 62624.00
1064.378, 62662.00
1065.480, 62637.46
1066.582, 62390.00
1067.684, 62604.00
1068.786, 62581.00
1069.887, 62573.00
1070.988, 62718.00
1072.090, 62707.00
1073.191, 62877.00
1074.291, 62631.00
1075.392, 62911.00
1076.493, 62666.00
1077.593, 62832.00
1078.693, 62728.00
1079.793, 62745.00
1080.893, 62470.00
1081.993, 62744.00
1083.092, 62780.00
1084.192, 63127.00
1085.291, 62649.00
1086.390, 62973.00
1087.489, 62516.00
1088.588, 62558.00
1089.686, 62776.00
1090.785, 62918.00
1091.883, 62840.00
1092.981, 62612.00
1094.079, 62933.00
1095.177, 62783.00
1096.275, 62609.00
1097.373, 62880.00
1098.470, 62616.00
1099.567, 62923.00
1100.664, 62707.00
1101.761, 62657.20
1102.858, 62838.37
1103.954, 62935.08
1105.051, 62951.86
1106.147, 62649.31
1107.243, 62759.11
1108.339, 62703.66
1109.435, 62641.44
1110.531, 62809.28
1111.626, 62553.19
1112.722, 62717.38
1113.817, 62713.81
1114.912, 62787.02
1116.007, 62693.96
1117.101, 62652.28
1118.196, 62776.90
1119.290, 62809.43
1120.385, 62697.24
1121.479, 62775.34
1122.573, 62513.46
1123.666, 62549.93
1124.760, 62715.11
1125.853, 62611.30
1126.947, 62692.45
1128.040, 62703.15
1129.133, 62393.71
1130.226, 62641.04
1131.318, 62647.60
1132.411, 62406.91
1133.503, 62635.18
1134.596, 62428.57
1135.688, 62377.19
1136.780, 62442.63
1137.871, 62386.30
1138.963, 62271.00
1140.054, 62157.00
1141.146, 62253.00
1142.237, 62046.00
1143.328, 62413.00
1144.419, 62102.00
1145.509, 62110.00
1146.600, 62280.00
1147.690, 62173.00
1148.780, 62364.00
1149.870, 62192.00
1150.960, 62304.00
1152.050, 62094.00
1153.139, 62128.00
1154.229, 62211.00
1155.318, 62095.00
1156.407, 62302.00
1157.496, 62025.00
1158.585, 61909.00
1159.674, 61857.00
1160.762, 62302.00
1161.850, 61928.00
1162.939, 61993.00
1164.027, 62541.00
1165.114, 61891.00
1166.202, 62309.00
1167.290, 62081.00
1168.377, 62285.00
1169.464, 62049.00
1170.551, 61920.00
1171.638, 61892.00
1172.725, 62024.00
1173.812, 61901.00
1174.898, 62074.00
1175.984, 62029.44
1177.071, 62027.00
1178.157, 62048.00
1179.242, 61989.00
1180.328, 62077.00
1181.414, 62132.00
1182.499, 61997.00
1183.584, 62426.00
1184.669, 62175.00
1185.754, 62199.00
1186.839, 62137.00
1187.924, 61928.00
1189.008, 62228.00
1190.092, 62131.00
1191.177, 61839.00
1192.260, 62299.00
1193.344, 61995.00
1194.428, 62037.00
1195.512, 62029.00
1196.595, 61961.28
1197.678, 62146.00
1198.761, 61975.00
1199.844, 62003.00
1200.927, 61975.00
1202.009, 62157.00
1203.092, 62020.00
1204.174, 61855.00
1205.256, 62282.00
1206.338, 61887.00
1207.420, 62706.00
1208.502, 62030.00
1209.583, 62082.00
1210.665, 62112.00
1211.746, 62000.00
1212.827, 62070.00
1213.908, 61999.00
1214.988, 61938.00
1216.069, 62149.00
1217.149, 62076.00
1218.230, 61922.00
1219.310, 62337.00
1220.390, 62312.00
1221.470, 62062.00
1222.549, 61924.00
1223.629, 62061.00
1224.708, 61956.00
1225.787, 62047.19
1226.866, 62019.00
1227.945, 62205.00
1229.024, 62222.00
1230.103, 62258.00
1231.181, 62218.00
1232.259, 61701.00
1233.337, 62142.00
1234.415, 62096.00
1235.493, 61663.00
1236.571, 62071.00
1237.648, 61955.00
1238.726, 62135.00
1239.803, 62084.00
1240.880, 62417.00
1241.957, 62176.00
1243.034, 62024.00
1244.110, 62014.00
1245.187, 62358.00
1246.263, 62222.00
1247.339, 62263.00
1248.415, 62039.00
1249.491, 62046.00
1250.566, 62170.00
1251.642, 62432.00
1252.717, 62348.76
1253.793, 62386.60
1254.868, 62258.00
1255.943, 62283.00
1257.017, 62130.00
1258.092, 62159.00
1259.166, 61815.00
1260.241, 62157.00
1261.315, 62419.00
1262.389, 62139.00
1263.462, 62225.00
1264.536, 62362.00
1265.610, 62168.00
1266.683, 62282.00
1267.756, 62125.00
1268.829, 62175.00
1269.902, 62307.00
1270.975, 62278.00
1272.048, 62231.00
1273.120, 62005.00
1274.192, 62155.00
1275.264, 62119.00
1276.336, 62375.00
1277.408, 62261.01
1278.480, 61935.00
1279.551, 62056.00
1280.623, 62066.00
1281.694, 61865.00
1282.765, 62009.00
1283.836, 62129.00
1284.907, 62213.00
1285.977, 62248.49
1287.048, 62325.00
1288.118, 62303.00
1289.188, 62271.00
1290.258, 62397.00
1291.328, 62420.46
1292.398, 62343.00
1293.467, 62549.00
1294.537, 62477.00
1295.606, 62436.41
1296.675, 62555.00
1297.744, 62389.00
1298.813, 62252.00
1299.882, 62365.16
1300.950, 62415.00
1302.018, 62495.00
1303.086, 62522.00
1304.155, 62586.00
1305.222, 62518.89
1306.290, 62421.00
1307.358, 62332.00
1308.425, 62478.00
1309.492, 62359.00
1310.559, 62326.00
1311.626, 62267.00
1312.693, 62446.00
1313.760, 62698.00
1314.826, 62205.00
1315.893, 62432.00
1316.959, 62278.00
1318.025, 62420.00
1319.091, 62511.00
1320.157, 62352.00
1321.222, 62473.00
1322.288, 62545.00
1323.353, 62740.00
1324.418, 62298.00
1325.483, 62425.00
1326.548, 62167.00
1327.612, 62535.00
1328.677, 62641.00
1329.741, 62250.00
1330.806, 62390.00
1331.870, 62479.00
1332.934, 62453.00
1333.997, 62544.00
1335.061, 62480.00
1336.124, 62439.00
1337.188, 62624.00
1338.251, 62657.00
1339.314, 62527.00
1340.377, 62016.00
1341.439, 62472.00
1342.502, 62363.00
1343.564, 62736.00
1344.627, 62570.00
1345.689, 62664.39
1346.751, 62540.00
1347.813, 62666.00
1348.874, 62722.00
1349.936, 62642.00
1350.997, 62386.00
1352.058, 62575.00
1353.119, 62737.00
1354.180, 62254.00
1355.241, 62538.00
1356.301, 62334.00
1357.362, 62637.00
1358.422, 62552.00
1359.482, 62434.00
1360.542, 62742.30
1361.602, 62520.66
1362.662, 62574.16
1363.721, 62392.00
1364.781, 62541.00
1365.840, 62598.00
1366.899, 62658.00
1367.958, 62611.00
1369.017, 62735.00
1370.075, 62766.00
1371.134, 62645.00
1372.192, 62459.00
1373.250, 62741.00
1374.308, 62184.00
1375.366, 62314.00
1376.424, 62614.00
1377.481, 62585.00
1378.539, 62634.00
1379.596, 62799.00
1380.653, 62642.00
1381.710, 62439.00
1382.767, 62447.00
1383.824, 62388.30
1384.880, 62483.00
1385.937, 62500.00
1386.993, 62613.00
1388.049, 62820.00
1389.105, 62702.00
1390.161, 62496.00
1391.216, 62696.00
1392.272, 62614.00
1393.327, 62766.00
1394.382, 62767.00
1395.437, 62604.00
1396.492, 62782.00
1397.547, 62651.00
1398.601, 62494.00
1399.656, 62703.00
1400.710, 62615.00
1401.764, 62467.00
1402.818, 62554.00
1403.872, 62571.47
1404.925, 62684.00
1405.979, 62727.00
1407.032, 62740.33
1408.085, 62692.00
1409.139, 62757.00
1410.191, 62458.00
1411.244, 62715.00
1412.297, 62839.00
1413.349, 63185.00
1414.402, 62633.00
1415.454, 62773.00
1416.506, 62629.00
1417.558, 62609.00
1418.609, 62857.00
1419.661, 62745.00
1420.712, 62765.00
1421.764, 62892.00
1422.815, 62937.00
1423.866, 62587.00
1424.916, 62632.00
1425.967, 62710.00
1427.018, 62730.00
1428.068, 62798.20
1429.118, 62795.56
1430.168, 62787.62
1431.218, 62765.00
1432.268, 62745.00
1433.318, 62693.00
1434.367, 62696.95
1435.416, 62746.23
1436.465, 62737.00
1437.514, 62892.00
1438.563, 62882.00
1439.612, 62951.00
1440.661, 62728.00
1441.709, 62715.00
1442.757, 62822.00
1443.805, 62697.00
1444.853, 62765.00
1445.901, 62902.00
1446.949, 62704.00
1447.996, 62642.00
1449.044, 63258.00
1450.091, 62955.00
1451.138, 63001.00
1452.185, 62750.00
1453.232, 62680.00
1454.278, 62997.00
1455.325, 62974.00
1456.371, 62813.00
1457.417, 62831.00
1458.463, 62902.00
1459.509, 62645.00
1460.555, 62814.00
1461.601, 62770.00
1462.646, 62802.00
1463.691, 62848.99
1464.737, 62968.00
1465.782, 62872.00
1466.826, 62915.00
1467.871, 62911.00
1468.916, 62872.00
1469.960, 62792.00
1471.004, 63098.00
1472.048, 62662.00
1473.092, 62827.00
1474.136, 63039.00
1475.180, 62788.00
1476.223, 62801.00
1477.267, 62762.00
1478.310, 62769.00
1479.353, 62809.00
1480.396, 62750.00
1481.439, 62810.00
1482.481, 62815.00
1483.524, 62859.00
1484.566, 62875.00
1485.608, 62894.00
1486.650, 62799.00
1487.692, 62737.00
1488.734, 62672.00
1489.775, 62917.00
1490.817, 63009.00
1491.858, 62684.00
1492.899, 62867.00
1493.940, 62580.00
1494.981, 62614.00
1496.022, 62708.00
1497.062, 62713.00
1498.103, 62902.00
1499.143, 62971.00
1500.183, 62803.00
1501.223, 62868.00
1502.263, 62722.00
1503.302, 62736.00
1504.342, 62794.00
1505.381, 62676.00
1506.420, 62900.00
1507.459, 62751.00
1508.498, 62823.00
1509.537, 62954.00
1510.576, 62572.00
1511.614, 62764.83
1512.652, 62958.19
1513.691, 63067.08
1514.729, 63096.04
1515.767, 62805.68
1516.804, 62927.66
1517.842, 62884.39
1518.879, 62834.34
1519.917, 63014.36
1520.954, 62770.43
1521.991, 62946.80
1523.028, 62955.39
1524.064, 63040.78
1525.101, 62959.89
1526.137, 62930.35
1527.173, 63067.14
1528.210, 63111.83
1529.245, 63011.80
1530.281, 63102.06
1531.317, 62852.33
1532.352, 62900.95
1533.388, 63078.29
1534.423, 62986.62
1535.458, 63079.91
1536.493, 63102.77
1537.528, 62805.47
1538.562, 63064.95
1539.597, 63083.63
1540.631, 62855.09
1541.665, 63095.48
1542.700, 62901.02
1543.733, 62861.78
1544.767, 62939.34
1545.801, 62895.14
1546.834, 63042.93
1547.868, 63005.75
1548.901, 62952.05
1549.934, 62970.47
1550.967, 62784.54
1551.999, 62977.72
1553.032, 62911.93
1554.064, 62974.87
1555.097, 63066.99
1556.129, 62935.69
1557.161, 63040.92
1558.193, 62779.35
1559.224, 62824.70
1560.256, 62836.99
1561.287, 63045.46
1562.318, 62785.68
1563.350, 62822.49
1564.380, 62985.59
1565.411, 62971.99
1566.442, 63032.27
1567.472, 63133.00
1568.503, 62684.00
1569.533, 62862.00
1570.563, 63256.00
##END=



