##NAMES=Cassiterite
##RRUFFID=R050502
##IDEAL CHEMISTRY=SnO_2_
##LOCALITY=Redruth, Cornwall, England
##OWNER=RRUFF
##SOURCE=California Institute of Technology
##DESCRIPTION=Black crystals associated with colorless quartz and grey stannite.
##STATUS=The identification of this mineral has been confirmed by X-ray diffraction and chemical analysis
##URL=rruff.info/R050502
##MEASURED CHEMISTRY=SnO_2_
##PIN_ID=M00499
##ORIENTATION=Laser parallel to a* (1 0 0). Fiducial mark perpendicular to laser is parallel to -c [0 0 -1]
185.7910, 20910.00
187.0220, 20956.00
188.2540, 20862.00
189.4840, 20940.00
190.7150, 20920.00
191.9460, 21073.00
193.1760, 21061.00
194.4060, 21416.00
195.6360, 21503.00
196.8660, 21659.00
198.0960, 21932.00
199.3250, 22298.00
200.5540, 22771.00
201.7830, 22960.00
203.0120, 23391.00
204.2400, 23550.00
205.4690, 23940.00
206.6970, 24134.00
207.9250, 24908.00
209.1530, 25398.00
210.3800, 26280.00
211.6080, 26839.00
212.8350, 27694.00
214.0620, 28403.00
215.2880, 29399.00
216.5150, 30573.00
217.7410, 31670.00
218.9680, 32594.00
220.1940, 33692.00
221.4190, 34807.00
222.6450, 36038.00
223.8700, 37212.96
225.0960, 38478.00
226.3210, 39624.00
227.5450, 40835.00
228.7700, 41929.00
229.9940, 43077.00
231.2190, 44154.00
232.4430, 44763.00
233.6660, 45387.00
234.8900, 45716.00
236.1140, 45744.00
237.3370, 45508.00
238.5600, 45429.00
239.7830, 44684.00
241.0050, 43472.00
242.2280, 42316.00
243.4500, 40479.00
244.6720, 38585.00
245.8940, 37013.00
247.1160, 35162.00
248.3370, 33202.00
249.5580, 31425.00
250.7790, 29644.00
252.0000, 28114.00
253.2210, 26727.00
254.4410, 25303.00
255.6620, 24307.00
256.8820, 23221.00
258.1020, 22437.00
259.3210, 21632.49
260.5410, 21062.19
261.7600, 20437.00
262.9790, 20105.00
264.1980, 19920.00
265.4170, 19342.00
266.6360, 19221.00
267.8540, 18906.00
269.0720, 18859.00
270.2900, 18740.00
271.5080, 18734.00
272.7260, 18783.00
273.9430, 19414.00
275.1600, 19873.00
276.3770, 20752.00
277.5940, 22060.00
278.8100, 23214.00
280.0270, 24645.00
281.2430, 25504.00
282.4590, 26215.00
283.6750, 26502.00
284.8910, 26389.00
286.1060, 25738.00
287.3210, 25120.00
288.5360, 24124.00
289.7510, 23326.00
290.9660, 22506.00
292.1800, 21413.00
293.3950, 20675.00
294.6090, 19944.00
295.8230, 19255.00
297.0360, 18742.00
298.2500, 18157.00
299.4630, 17761.00
300.6760, 17429.00
301.8890, 16967.00
303.1020, 16765.00
304.3150, 16215.00
305.5270, 16264.00
306.7390, 15979.00
307.9510, 15707.00
309.1630, 15393.00
310.3750, 15249.89
311.5860, 14994.00
312.7970, 14980.00
314.0080, 14817.00
315.2190, 14693.00
316.4300, 14463.00
317.6400, 14361.00
318.8510, 14335.00
320.0610, 14105.00
321.2710, 14160.00
322.4800, 13921.00
323.6900, 13816.00
324.8990, 13888.00
326.1080, 13589.00
327.3170, 13427.00
328.5260, 13515.00
329.7340, 13072.00
330.9430, 13094.00
332.1510, 13179.00
333.3590, 13051.00
334.5670, 13010.00
335.7740, 12970.00
336.9820, 12832.00
338.1890, 12854.00
339.3960, 12789.00
340.6030, 12790.00
341.8100, 12838.00
343.0160, 12744.00
344.2220, 12713.00
345.4280, 12730.00
346.6340, 12818.00
347.8400, 12660.00
349.0460, 12829.00
350.2510, 12670.00
351.4560, 12669.00
352.6610, 12599.00
353.8660, 12614.00
355.0700, 12677.00
356.2750, 12599.00
357.4790, 12392.00
358.6830, 12200.00
359.8870, 11662.00
361.0910, 11381.00
362.2940, 11168.00
363.4970, 10677.00
364.7000, 10588.00
365.9030, 10237.00
367.1060, 10215.00
368.3080, 10102.00
369.5110, 10111.00
370.7130, 9838.000
371.9150, 9852.000
373.1170, 9748.000
374.3180, 9871.000
375.5200, 9817.000
376.7210, 9690.000
377.9220, 9895.000
379.1230, 9870.000
380.3230, 9873.000
381.5240, 9963.000
382.7240, 9829.000
383.9240, 10039.00
385.1240, 9946.000
386.3240, 10110.00
387.5230, 10094.00
388.7230, 10110.00
389.9220, 10425.00
391.1210, 10434.00
392.3200, 10508.00
393.5180, 10719.00
394.7170, 10693.00
395.9150, 10832.00
397.1130, 10876.00
398.3110, 10913.00
399.5080, 11028.00
400.7060, 10990.00
401.9030, 11167.00
403.1000, 11340.00
404.2970, 11316.00
405.4940, 11570.00
406.6910, 11547.00
407.8870, 11688.00
409.0830, 12031.00
410.2790, 12104.00
411.4750, 12409.00
412.6710, 12679.00
413.8660, 12771.00
415.0610, 13193.00
416.2560, 13260.00
417.4510, 13480.00
418.6460, 13440.00
419.8410, 13654.00
421.0350, 13897.00
422.2290, 14008.00
423.4230, 14506.00
424.6170, 15090.00
425.8100, 15716.00
427.0040, 16165.00
428.1970, 17132.00
429.3900, 18020.00
430.5830, 19106.00
431.7760, 20554.00
432.9680, 22051.00
434.1610, 23636.00
435.3530, 25170.00
436.5450, 27060.00
437.7360, 28700.00
438.9280, 30094.00
440.1190, 31031.00
441.3110, 32186.00
442.5020, 33011.00
443.6930, 33774.00
444.8830, 33991.00
446.0740, 34210.00
447.2640, 33977.00
448.4540, 33577.00
449.6440, 32706.00
450.8340, 31431.00
452.0240, 30024.00
453.2130, 28621.00
454.4020, 27519.00
455.5910, 26664.00
456.7800, 26245.00
457.9690, 25860.00
459.1570, 25759.00
460.3460, 25825.00
461.5340, 25945.00
462.7220, 26445.00
463.9090, 26480.00
465.0970, 27086.00
466.2840, 27196.00
467.4720, 27898.00
468.6590, 28226.00
469.8460, 28672.00
471.0320, 28975.00
472.2190, 29000.00
473.4050, 28759.00
474.5910, 28312.00
475.7770, 27578.00
476.9630, 26624.00
478.1490, 25630.00
479.3340, 24769.00
480.5190, 23906.00
481.7040, 23321.00
482.8890, 22807.00
484.0740, 22589.00
485.2580, 22629.00
486.4430, 22777.00
487.6270, 22772.00
488.8110, 22707.00
489.9950, 22882.00
491.1780, 23095.00
492.3620, 22893.00
493.5450, 23246.00
494.7280, 23130.00
495.9110, 23233.00
497.0940, 23086.00
498.2760, 23150.00
499.4590, 23266.00
500.6410, 23003.00
501.8230, 22994.00
503.0050, 22995.00
504.1860, 22826.00
505.3680, 22781.00
506.5490, 22856.00
507.7300, 22724.00
508.9110, 22861.00
510.0920, 23095.00
511.2730, 23100.00
512.4530, 22967.00
513.6330, 23089.00
514.8130, 22825.00
515.9930, 22967.00
517.1730, 22828.00
518.3520, 22597.00
519.5320, 22664.00
520.7110, 22626.00
521.8900, 22647.00
523.0690, 22602.78
524.2470, 22367.00
525.4260, 22396.00
526.6040, 22374.00
527.7820, 22080.00
528.9600, 22256.00
530.1380, 22022.00
531.3150, 22212.00
532.4930, 22194.00
533.6700, 22253.00
534.8470, 22170.00
536.0240, 22423.00
537.2000, 22293.00
538.3770, 22812.00
539.5530, 23005.00
540.7290, 22925.00
541.9050, 23240.00
543.0810, 23302.00
544.2570, 23394.00
545.4320, 23260.00
546.6080, 23350.00
547.7830, 23414.00
548.9580, 23878.00
550.1320, 23916.00
551.3070, 24139.00
552.4810, 24179.00
553.6550, 24398.00
554.8300, 24854.00
556.0030, 25071.00
557.1770, 25385.00
558.3510, 25614.00
559.5240, 25944.00
560.6970, 26523.00
561.8700, 26861.00
563.0430, 27078.00
564.2160, 27443.00
565.3880, 27559.00
566.5600, 27733.08
567.7320, 27723.00
568.9040, 27895.00
570.0760, 27932.00
571.2480, 28094.49
572.4190, 28181.91
573.5900, 28417.00
574.7610, 28595.00
575.9320, 28710.56
577.1030, 28878.29
578.2740, 28850.00
579.4440, 28977.00
580.6140, 29085.00
581.7840, 28812.00
582.9540, 28973.00
584.1240, 28610.00
585.2930, 28512.00
586.4630, 27997.00
587.6320, 28005.00
588.8010, 27805.00
589.9700, 27584.00
591.1380, 27494.00
592.3070, 27376.00
593.4750, 27297.00
594.6430, 27532.00
595.8110, 27431.00
596.9790, 27689.00
598.1460, 28081.00
599.3140, 28483.00
600.4810, 28891.00
601.6480, 29612.00
602.8150, 29949.00
603.9820, 30739.00
605.1480, 31157.00
606.3150, 31986.00
607.4810, 32548.00
608.6470, 32997.00
609.8130, 33511.00
610.9790, 33860.00
612.1440, 34393.00
613.3100, 34480.00
614.4750, 34666.00
615.6400, 34670.00
616.8050, 34844.00
617.9690, 35196.00
619.1340, 35445.00
620.2980, 35938.00
621.4620, 36339.00
622.6260, 37102.00
623.7900, 38229.00
624.9540, 39791.00
626.1170, 41729.00
627.2810, 43709.00
628.4440, 47889.00
629.6070, 49302.00
630.7690, 51519.00
631.9320, 53121.00
633.0950, 54049.00
634.2570, 53393.00
635.4190, 52570.00
636.5810, 50975.00
637.7430, 48648.00
638.9040, 46074.00
640.0660, 43873.00
641.2270, 41918.00
642.3880, 40263.00
643.5490, 39193.00
644.7100, 37728.00
645.8700, 36991.00
647.0310, 35836.00
648.1910, 35134.00
649.3510, 34884.00
650.5110, 34289.00
651.6710, 33502.00
652.8300, 32892.00
653.9900, 31983.00
655.1490, 31369.00
656.3080, 30797.00
657.4670, 29946.00
658.6250, 29627.00
659.7840, 29026.00
660.9420, 28178.00
662.1010, 27948.00
663.2590, 27332.00
664.4170, 26750.00
665.5740, 26433.00
666.7320, 25912.00
667.8890, 25273.00
669.0460, 25067.00
670.2030, 24419.00
671.3600, 24355.00
672.5170, 23940.00
673.6740, 23719.00
674.8300, 23698.00
675.9860, 23492.00
677.1420, 23499.00
678.2980, 23747.00
679.4540, 23945.00
680.6090, 24364.00
681.7650, 24648.00
682.9200, 25013.34
684.0750, 25410.95
685.2300, 25792.00
686.3840, 26179.00
687.5390, 26599.00
688.6930, 26929.00
689.8470, 27192.00
691.0010, 27569.00
692.1550, 27619.00
693.3090, 27718.00
694.4620, 27859.00
695.6160, 27531.00
696.7690, 27459.00
697.9220, 26977.00
699.0750, 26719.00
700.2280, 26127.00
701.3800, 25803.00
702.5320, 25454.00
703.6850, 25053.00
704.8370, 24660.00
705.9880, 24560.00
707.1400, 24433.00
708.2920, 24502.00
709.4430, 24281.00
710.5940, 24416.00
711.7450, 24403.00
712.8960, 24401.00
714.0470, 24799.00
715.1970, 24581.00
716.3480, 24856.00
717.4980, 25149.00
718.6480, 25432.00
719.7980, 25112.00
720.9470, 25090.00
722.0970, 25223.00
723.2460, 25035.00
724.3960, 25035.00
725.5450, 24946.00
726.6940, 24727.00
727.8420, 24638.00
728.9910, 24623.00
730.1390, 24432.00
731.2870, 24409.00
732.4350, 24150.00
733.5830, 24018.00
734.7310, 23787.00
735.8790, 23716.00
737.0260, 23509.00
738.1730, 23219.00
739.3200, 23049.00
740.4670, 22823.00
741.6140, 22625.00
742.7610, 22477.00
743.9070, 22028.00
745.0530, 21952.00
746.1990, 21624.00
747.3450, 21672.00
748.4910, 21593.00
749.6370, 21209.00
750.7820, 20953.00
751.9270, 20709.00
753.0720, 20428.00
754.2170, 20075.00
755.3620, 19810.77
756.5070, 19372.00
757.6510, 19248.00
758.7950, 18722.00
759.9400, 18506.00
761.0840, 18125.00
762.2270, 17915.00
763.3710, 17604.00
764.5140, 17322.85
765.6580, 16824.00
766.8010, 16821.00
767.9440, 16527.00
769.0870, 16358.00
770.2290, 16274.00
771.3720, 16048.00
772.5140, 15903.00
773.6560, 15812.00
774.7990, 15648.00
775.9400, 15491.00
777.0820, 15298.00
778.2240, 15068.00
779.3650, 15048.00
780.5060, 14818.00
781.6470, 14791.00
782.7880, 14572.00
783.9290, 14520.00
785.0690, 14511.00
786.2100, 14524.00
787.3500, 14304.00
788.4900, 14356.00
789.6300, 14378.00
790.7700, 14538.00
791.9090, 14548.00
793.0490, 14418.00
794.1880, 14510.00
795.3270, 14611.00
796.4660, 14368.00
797.6050, 14210.00
798.7440, 14188.00
799.8820, 13800.00
801.0200, 13748.00
802.1590, 13650.00
803.2970, 13493.00
804.4340, 13335.00
805.5720, 13139.00
806.7100, 13003.00
807.8470, 12868.00
808.9840, 12797.59
810.1210, 12750.02
811.2580, 12754.00
812.3950, 12776.00
813.5310, 12845.00
814.6680, 12973.00
815.8040, 13055.85
816.9400, 13225.00
818.0760, 13334.00
819.2120, 13483.00
820.3470, 13697.00
821.4830, 14036.40
822.6180, 14400.65
823.7530, 14931.00
824.8880, 15450.00
826.0230, 16106.00
827.1580, 16962.00
828.2920, 17636.00
829.4270, 18772.00
830.5610, 20002.00
831.6950, 21167.00
832.8290, 22253.00
833.9620, 23268.00
835.0960, 24281.00
836.2290, 24911.00
837.3620, 25141.00
838.4950, 24853.00
839.6280, 24298.00
840.7610, 23615.00
841.8940, 22132.00
843.0260, 20794.00
844.1580, 19517.00
845.2910, 18127.00
846.4230, 16753.00
847.5540, 15728.00
848.6860, 14744.00
849.8170, 14076.00
850.9490, 13663.00
852.0800, 13049.00
853.2110, 12707.00
854.3420, 12396.00
855.4730, 12065.00
856.6030, 11919.00
857.7340, 11727.00
858.8640, 11550.00
859.9940, 11480.00
861.1240, 11391.40
862.2540, 11359.62
863.3830, 11377.00
864.5130, 11362.00
865.6420, 11348.57
866.7710, 11352.52
867.9000, 11343.00
869.0290, 11335.00
870.1570, 11376.00
871.2860, 11350.00
872.4140, 11457.00
873.5430, 11579.00
874.6710, 11460.00
875.7980, 11388.00
876.9260, 11629.00
878.0540, 11518.00
879.1810, 11562.00
880.3080, 11574.00
881.4360, 11515.00
882.5630, 11491.00
883.6890, 11358.00
884.8160, 11365.00
885.9420, 11393.00
887.0690, 11497.00
888.1950, 11407.00
889.3210, 11488.00
890.4470, 11537.00
891.5730, 11326.00
892.6980, 11439.00
893.8240, 11498.00
894.9490, 11465.00
896.0740, 11449.00
897.1990, 11388.00
898.3240, 11217.00
899.4480, 11123.00
900.5730, 11111.00
901.6970, 10922.46
902.8210, 10959.00
903.9450, 10598.00
905.0690, 10740.00
906.1930, 10526.00
907.3160, 10457.00
908.4400, 10628.00
909.5630, 10393.00
910.6860, 10273.00
911.8090, 10257.00
912.9320, 10202.00
914.0550, 10112.00
915.1770, 10093.00
916.2990, 10099.00
917.4210, 10041.07
918.5440, 10138.00
919.6650, 10019.00
920.7870, 10014.00
921.9090, 10086.00
923.0300, 9920.000
924.1510, 9884.000
925.2720, 9861.000
926.3930, 9887.000
927.5140, 9729.000
928.6350, 9914.000
929.7550, 9962.000
930.8760, 9907.000
931.9960, 9856.000
933.1160, 9900.000
934.2360, 9927.000
935.3550, 9895.000
936.4750, 9962.000
937.5940, 9948.000
938.7140, 10036.00
939.8330, 9949.000
940.9520, 10074.00
942.0710, 10177.00
943.1890, 10089.00
944.3080, 10170.00
945.4260, 10176.00
946.5440, 10242.00
947.6620, 10189.00
948.7800, 10285.00
949.8980, 10277.00
951.0160, 10376.00
952.1330, 10334.00
953.2500, 10303.00
954.3680, 10436.00
955.4850, 10353.12
956.6010, 10390.14
957.7180, 10360.00
958.8350, 10399.00
959.9510, 10409.10
961.0670, 10428.13
962.1830, 10465.00
963.2990, 10485.00
964.4150, 10554.00
965.5310, 10584.00
966.6460, 10671.00
967.7620, 10610.00
968.8770, 10601.00
969.9920, 10518.00
971.1070, 10690.00
972.2210, 10771.00
973.3360, 10601.00
974.4500, 10748.00
975.5650, 10625.00
976.6790, 10578.00
977.7930, 10568.00
978.9070, 10611.00
980.0200, 10381.00
981.1340, 10520.00
982.2470, 10341.00
983.3610, 10408.00
984.4740, 10294.00
985.5870, 10324.00
986.6990, 10408.00
987.8120, 10206.00
988.9250, 10266.00
990.0370, 10231.00
991.1490, 10292.00
992.2610, 10311.00
993.3730, 10247.00
994.4850, 10373.00
995.5960, 10305.00
996.7080, 10510.00
997.8190, 10224.00
998.9300, 10383.00
1000.041, 10381.00
1001.152, 10436.00
1002.263, 10421.00
1003.373, 10443.00
1004.484, 10639.00
1005.594, 10419.00
1006.704, 10655.00
1007.814, 10453.00
1008.924, 10445.00
1010.034, 10517.00
1011.143, 10528.00
1012.253, 10594.00
1013.362, 10645.00
1014.471, 10739.00
1015.580, 10741.68
1016.689, 10842.00
1017.797, 10764.00
1018.906, 10796.00
1020.014, 10825.00
1021.122, 10838.00
1022.230, 10811.00
1023.338, 10822.00
1024.446, 10914.00
1025.554, 10936.00
1026.661, 10999.00
1027.768, 11060.00
1028.875, 11070.72
1029.983, 11053.00
1031.089, 11069.00
1032.196, 11058.79
1033.303, 10979.00
1034.409, 11086.00
1035.515, 11092.00
1036.622, 11105.00
1037.728, 10897.00
1038.833, 10959.00
1039.939, 11088.00
1041.045, 11037.00
1042.150, 11184.00
1043.255, 11126.00
1044.360, 11150.00
1045.465, 11134.00
1046.570, 11105.00
1047.675, 11146.00
1048.779, 11243.00
1049.884, 11263.00
1050.988, 11340.00
1052.092, 11401.00
1053.196, 11289.00
1054.300, 11403.00
1055.404, 11341.00
1056.507, 11481.00
1057.610, 11380.00
1058.714, 11417.00
1059.817, 11385.00
1060.920, 11481.00
1062.022, 11510.00
1063.125, 11605.00
1064.228, 11636.35
1065.330, 11624.00
1066.432, 11662.00
1067.534, 11598.00
1068.636, 11625.71
1069.738, 11544.00
1070.840, 11621.00
1071.941, 11648.00
1073.042, 11614.00
1074.144, 11663.00
1075.245, 11615.00
1076.346, 11645.00
1077.446, 11575.00
1078.547, 11683.00
1079.647, 11693.00
1080.748, 11698.12
1081.848, 11683.00
1082.948, 11739.00
1084.048, 11742.00
1085.148, 11784.00
1086.247, 11779.00
1087.347, 11741.00
1088.446, 11898.00
1089.545, 11805.00
1090.644, 11913.00
1091.743, 11842.00
1092.842, 11820.00
1093.940, 11761.00
1095.039, 11838.00
1096.137, 11915.00
1097.235, 11812.00
1098.333, 11862.00
1099.431, 11881.00
1100.529, 11872.00
1101.627, 11927.00
1102.724, 11855.00
1103.822, 11819.00
1104.919, 11938.00
1106.016, 11974.00
1107.113, 11834.00
1108.209, 11913.00
1109.306, 11795.00
1110.402, 11889.00
1111.499, 11964.00
1112.595, 11839.00
1113.691, 11868.00
1114.787, 11978.00
1115.883, 12034.00
1116.978, 12086.68
1118.074, 12312.00
1119.169, 12195.00
1120.264, 12348.00
1121.359, 12418.00
1122.454, 12377.00
1123.549, 12246.00
1124.644, 12240.00
1125.738, 12138.00
1126.832, 12076.00
1127.927, 12031.00
1129.021, 11888.00
1130.115, 11876.00
1131.208, 11849.00
1132.302, 11798.14
1133.396, 11788.82
1134.489, 11753.00
1135.582, 11727.00
1136.675, 11682.71
1137.768, 11606.99
1138.861, 11631.00
1139.954, 11589.00
1141.046, 11553.00
1142.138, 11569.38
1143.231, 11607.00
1144.323, 11567.00
1145.415, 11524.00
1146.507, 11496.68
1147.598, 11585.00
1148.690, 11506.00
1149.781, 11492.00
1150.872, 11535.00
1151.964, 11477.38
1153.054, 11495.00
1154.145, 11431.00
1155.236, 11425.00
1156.327, 11391.00
1157.417, 11360.00
1158.507, 11449.00
1159.597, 11456.00
1160.687, 11433.00
1161.777, 11293.00
1162.867, 11320.00
1163.956, 11261.00
1165.046, 11378.00
1166.135, 11404.00
1167.224, 11218.00
1168.313, 11324.00
1169.402, 11297.00
1170.491, 11306.00
1171.580, 11178.00
1172.668, 11325.00
1173.756, 11430.00
1174.845, 11191.00
1175.933, 11313.00
1177.020, 11328.00
1178.108, 11186.00
1179.196, 11298.00
1180.283, 11216.00
1181.371, 11407.00
1182.458, 11392.00
1183.545, 11332.00
1184.632, 11343.00
1185.719, 11367.00
1186.805, 11339.00
1187.892, 11404.00
1188.978, 11415.00
1190.065, 11491.00
1191.151, 11354.00
1192.237, 11346.00
1193.323, 11316.00
1194.408, 11489.00
1195.494, 11258.00
1196.579, 11486.00
1197.664, 11350.00
1198.750, 11385.00
1199.835, 11344.00
1200.919, 11503.00
1202.004, 11606.00
1203.089, 11558.00
1204.173, 11623.56
1205.258, 11490.00
1206.342, 11587.00
1207.426, 11524.00
1208.510, 11482.00
1209.594, 11494.00
1210.677, 11383.00
1211.761, 11726.00
1212.844, 11483.00
1213.927, 11702.00
1215.010, 11658.00
1216.093, 11635.00
1217.176, 11677.00
1218.259, 11613.00
1219.341, 11639.00
1220.424, 11644.89
1221.506, 11734.00
1222.588, 11687.00
1223.670, 11690.00
1224.752, 11746.00
1225.834, 11730.00
1226.915, 11771.00
1227.997, 11794.00
1229.078, 11837.00
1230.159, 11856.00
1231.240, 11822.00
1232.321, 11980.00
1233.402, 11790.00
1234.483, 11997.00
1235.563, 11923.00
1236.644, 11920.00
1237.724, 11980.00
1238.804, 11949.00
1239.884, 11980.53
1240.964, 12053.00
1242.044, 12038.00
1243.123, 12060.00
1244.203, 12147.00
1245.282, 12186.00
1246.361, 12115.00
1247.440, 12083.00
1248.519, 12222.00
1249.598, 12304.00
1250.676, 12423.00
1251.755, 12385.00
1252.833, 12535.00
1253.911, 12437.00
1254.989, 12668.00
1256.067, 12483.00
1257.145, 12748.00
1258.223, 12687.00
1259.300, 12747.00
1260.378, 12927.00
1261.455, 13011.00
1262.532, 13046.00
1263.609, 13126.00
1264.686, 13182.00
1265.763, 13405.00
1266.840, 13473.00
1267.916, 13479.00
1268.992, 13476.00
1270.069, 13602.57
1271.145, 13790.00
1272.221, 13860.00
1273.296, 13951.00
1274.372, 14124.00
1275.448, 14261.00
1276.523, 14401.00
1277.598, 14381.00
1278.673, 14463.67
1279.749, 14443.00
1280.823, 14466.00
1281.898, 14472.00
1282.973, 14403.50
1284.047, 14370.00
1285.122, 14160.00
1286.196, 13938.00
1287.270, 13793.00
1288.344, 13627.00
1289.418, 13473.00
1290.491, 13298.00
1291.565, 13310.00
1292.638, 13254.00
1293.712, 12971.00
1294.785, 13018.00
1295.858, 12708.00
1296.931, 12842.00
1298.003, 12656.00
1299.076, 12783.00
1300.149, 12718.00
1301.221, 12674.00
1302.293, 12539.00
1303.365, 12622.00
1304.437, 12501.36
1305.509, 12496.00
1306.581, 12343.00
1307.652, 12512.00
1308.724, 12407.00
1309.795, 12190.00
1310.866, 12382.00
1311.937, 12500.00
1313.008, 12127.00
1314.079, 12245.00
1315.150, 12094.00
1316.220, 12122.00
1317.291, 12080.00
1318.361, 12091.00
1319.431, 12075.00
1320.501, 12129.00
1321.571, 11935.00
1322.641, 11970.00
1323.710, 12087.00
1324.780, 11915.00
1325.849, 11808.00
1326.918, 11779.00
1327.987, 11820.00
1329.056, 11789.00
1330.125, 11727.00
1331.194, 11781.00
1332.263, 11753.00
1333.331, 11854.00
1334.399, 11815.00
1335.467, 11672.00
1336.535, 11846.00
1337.603, 11751.00
1338.671, 11956.00
1339.739, 11711.00
1340.806, 11720.00
1341.874, 11836.00
1342.941, 11810.00
1344.008, 11750.00
1345.075, 11877.00
1346.142, 11794.00
1347.209, 11801.00
1348.275, 11805.00
1349.342, 11740.00
1350.408, 11793.00
1351.475, 11668.00
1352.541, 11841.00
1353.607, 11641.00
1354.673, 11800.00
1355.738, 11811.00
1356.804, 11611.00
1357.869, 11791.00
1358.935, 12039.00
1360.000, 11928.00
1361.065, 11737.00
1362.130, 11683.00
1363.195, 11665.00
1364.259, 11836.00
1365.324, 11739.00
1366.388, 11747.00
1367.453, 11701.00
1368.517, 11714.00
1369.581, 11712.00
1370.645, 11742.00
1371.709, 11732.42
1372.772, 11665.00
1373.836, 11756.00
1374.899, 11727.00
1375.963, 11803.00
1377.026, 11759.00
1378.089, 11796.00
1379.152, 11682.00
1380.214, 11710.00
1381.277, 11583.00
1382.340, 11737.00
1383.402, 11634.00
1384.464, 11661.00
1385.526, 11444.00
1386.588, 11658.00
1387.650, 11594.00
1388.712, 11622.00
1389.774, 11456.00
1390.835, 11513.00
1391.896, 11438.00
1392.958, 11632.00
1394.019, 11573.00
1395.080, 11460.00
1396.141, 11494.00
1397.201, 11407.00
1398.262, 11425.00
1399.323, 11406.00
1400.383, 11348.37
1401.443, 11332.00
1402.503, 11290.00
1403.563, 11323.00
1404.623, 11372.00
1405.683, 11357.00
1406.742, 11211.00
1407.802, 11338.00
1408.861, 11312.00
1409.920, 11185.00
1410.980, 11207.00
1412.039, 11186.00
1413.097, 11163.72
1414.156, 11328.00
1415.215, 11135.00
1416.273, 11260.00
1417.331, 11169.00
1418.390, 11118.00
1419.448, 11260.00
1420.506, 11328.00
1421.564, 11147.00
1422.621, 11088.00
1423.679, 11056.00
1424.736, 11095.00
1425.794, 11062.00
1426.851, 11062.00
1427.908, 11050.00
1428.965, 11032.00
1430.022, 10997.00
1431.079, 10947.00
1432.135, 10980.00
1433.192, 10960.00
1434.248, 11020.00
1435.304, 11007.00
1436.360, 10960.00
1437.416, 11039.00
1438.472, 10877.00
1439.528, 10896.00
1440.583, 10887.00
1441.639, 10805.00
1442.694, 10778.00
1443.749, 10900.00
1444.804, 10995.00
1445.859, 11046.00
1446.914, 10872.00
1447.969, 10898.00
1449.024, 10894.00
1450.078, 10991.00
1451.132, 10972.00
1452.187, 10997.00
1453.241, 11026.00
1454.295, 10980.00
1455.349, 11001.00
1456.402, 11110.00
1457.456, 11014.00
1458.509, 11101.00
1459.563, 11082.00
1460.616, 11001.00
1461.669, 11102.00
1462.722, 10952.00
1463.775, 10970.00
1464.828, 10956.00
1465.880, 11047.00
1466.933, 10988.00
1467.985, 10956.00
1469.037, 10985.00
1470.090, 11030.00
1471.142, 10972.00
1472.193, 10878.00
1473.245, 10975.00
1474.297, 10821.00
1475.348, 10873.00
1476.400, 10830.00
1477.451, 10823.00
1478.502, 10899.00
1479.553, 10860.98
1480.604, 10771.00
1481.655, 10824.00
1482.706, 10860.00
1483.756, 10762.00
1484.807, 10881.00
1485.857, 11018.00
1486.907, 10716.00
1487.957, 10708.00
1489.007, 10773.00
1490.057, 10786.00
1491.106, 10753.89
1492.156, 10601.00
1493.205, 10679.00
1494.255, 10598.00
1495.304, 10565.00
1496.353, 10749.00
1497.402, 10577.00
1498.451, 10521.00
1499.500, 10654.00
1500.548, 10487.00
1501.597, 10645.00
1502.645, 10579.00
1503.693, 10573.00
1504.741, 10491.00
1505.789, 10469.00
1506.837, 10603.00
1507.885, 10512.00
1508.932, 10538.00
1509.980, 10367.00
1511.027, 10390.00
1512.075, 10325.00
1513.122, 10464.00
1514.169, 10330.00
1515.216, 10324.00
1516.262, 10428.00
1517.309, 10286.00
1518.356, 10308.00
1519.402, 10293.00
1520.448, 10202.00
1521.495, 10211.00
1522.541, 10269.00
1523.587, 10226.00
1524.632, 10168.00
1525.678, 10037.00
1526.724, 10168.00
1527.769, 10039.88
1528.814, 10217.00
1529.860, 10002.00
1530.905, 9899.000
1531.950, 10031.00
1532.995, 9995.000
1534.039, 9848.000
1535.084, 9838.000
1536.128, 9983.000
1537.173, 9897.000
1538.217, 9871.000
1539.261, 9780.000
1540.305, 9819.000
1541.349, 9870.000
1542.393, 9789.000
1543.436, 9712.000
1544.480, 9900.000
1545.523, 9738.000
1546.567, 9850.000
1547.610, 9665.000
1548.653, 9676.000
1549.696, 9584.000
1550.739, 9593.000
1551.781, 9662.000
1552.824, 9643.000
1553.867, 9696.000
1554.909, 9812.000
1555.951, 9846.000
1556.993, 9758.000
1558.035, 9581.000
1559.077, 9458.000
1560.119, 9517.000
1561.161, 9571.000
1562.202, 9412.000
1563.243, 9319.000
1564.285, 9491.000
1565.326, 9425.000
##END=



