##NAMES=Cassiterite
##RRUFFID=R050502
##IDEAL CHEMISTRY=SnO_2_
##LOCALITY=Redruth, Cornwall, England
##OWNER=RRUFF
##SOURCE=California Institute of Technology
##DESCRIPTION=Black crystals associated with colorless quartz and grey stannite.
##STATUS=The identification of this mineral has been confirmed by X-ray diffraction and chemical analysis
##URL=rruff.info/R050502
##MEASURED CHEMISTRY=SnO_2_
##PIN_ID=M00499
##ORIENTATION=Laser parallel to a* (1 0 0). Fiducial mark perpendicular to laser is parallel to -c [0 0 -1]
185.7910, 13005.00
187.0220, 13139.00
188.2540, 13124.00
189.4840, 13168.00
190.7150, 13113.00
191.9460, 13232.00
193.1760, 13240.00
194.4060, 13339.00
195.6360, 13427.00
196.8660, 13504.00
198.0960, 13584.00
199.3250, 13829.00
200.5540, 13929.00
201.7830, 14240.00
203.0120, 14269.00
204.2400, 14238.00
205.4690, 14608.00
206.6970, 14505.00
207.9250, 14620.00
209.1530, 15046.00
210.3800, 15330.00
211.6080, 15923.00
212.8350, 16315.00
214.0620, 16788.00
215.2880, 17340.00
216.5150, 17815.00
217.7410, 18255.00
218.9680, 19001.00
220.1940, 19700.00
221.4190, 20172.00
222.6450, 20930.00
223.8700, 21641.00
225.0960, 22266.00
226.3210, 22888.00
227.5450, 23662.00
228.7700, 24278.00
229.9940, 24850.00
231.2190, 25339.00
232.4430, 25568.00
233.6660, 25892.00
234.8900, 26103.00
236.1140, 26079.00
237.3370, 26256.00
238.5600, 26200.00
239.7830, 25595.00
241.0050, 24789.00
242.2280, 24356.00
243.4500, 23311.00
244.6720, 22448.00
245.8940, 21564.00
247.1160, 20298.00
248.3370, 19468.00
249.5580, 18338.00
250.7790, 17221.00
252.0000, 16451.00
253.2210, 15545.00
254.4410, 14813.00
255.6620, 14205.00
256.8820, 13620.00
258.1020, 13402.00
259.3210, 12926.65
260.5410, 12579.11
261.7600, 12285.00
262.9790, 11990.00
264.1980, 11757.18
265.4170, 11546.00
266.6360, 11398.00
267.8540, 11282.00
269.0720, 11230.00
270.2900, 11166.00
271.5080, 11186.00
272.7260, 11052.00
273.9430, 11276.00
275.1600, 11577.00
276.3770, 11993.00
277.5940, 12578.00
278.8100, 13119.00
280.0270, 13750.00
281.2430, 14267.00
282.4590, 14622.00
283.6750, 14729.00
284.8910, 14809.00
286.1060, 14724.00
287.3210, 14387.00
288.5360, 13899.00
289.7510, 13414.00
290.9660, 12943.00
292.1800, 12606.00
293.3950, 12203.25
294.6090, 11901.00
295.8230, 11524.00
297.0360, 11287.00
298.2500, 10957.00
299.4630, 10731.00
300.6760, 10623.00
301.8890, 10421.00
303.1020, 10213.00
304.3150, 10177.00
305.5270, 10029.00
306.7390, 9839.000
307.9510, 9703.000
309.1630, 9722.000
310.3750, 9596.000
311.5860, 9463.000
312.7970, 9332.000
314.0080, 9287.000
315.2190, 9182.000
316.4300, 9089.000
317.6400, 9139.000
318.8510, 8963.000
320.0610, 9030.000
321.2710, 8828.000
322.4800, 8898.000
323.6900, 8659.000
324.8990, 8777.000
326.1080, 8637.000
327.3170, 8618.000
328.5260, 8656.000
329.7340, 8464.000
330.9430, 8655.000
332.1510, 8571.000
333.3590, 8594.000
334.5670, 8638.000
335.7740, 8577.000
336.9820, 8541.000
338.1890, 8604.000
339.3960, 8514.000
340.6030, 8621.000
341.8100, 8551.000
343.0160, 8651.000
344.2220, 8567.000
345.4280, 8635.000
346.6340, 8766.000
347.8400, 8783.000
349.0460, 8722.000
350.2510, 8704.000
351.4560, 8743.000
352.6610, 8805.000
353.8660, 8735.000
355.0700, 8728.000
356.2750, 8735.000
357.4790, 8589.000
358.6830, 8280.000
359.8870, 8179.000
361.0910, 7845.000
362.2940, 7632.000
363.4970, 7411.000
364.7000, 7206.000
365.9030, 6989.000
367.1060, 6820.000
368.3080, 6611.000
369.5110, 6620.000
370.7130, 6548.000
371.9150, 6512.000
373.1170, 6618.000
374.3180, 6577.000
375.5200, 6552.298
376.7210, 6464.000
377.9220, 6517.000
379.1230, 6390.000
380.3230, 6497.000
381.5240, 6472.000
382.7240, 6449.000
383.9240, 6506.000
385.1240, 6522.000
386.3240, 6550.000
387.5230, 6538.000
388.7230, 6577.000
389.9220, 6628.000
391.1210, 6584.000
392.3200, 6689.000
393.5180, 6834.000
394.7170, 6799.000
395.9150, 6889.000
397.1130, 6924.000
398.3110, 6904.000
399.5080, 6957.014
400.7060, 6870.000
401.9030, 6989.000
403.1000, 6966.000
404.2970, 6976.000
405.4940, 7035.000
406.6910, 7056.000
407.8870, 7152.000
409.0830, 7155.000
410.2790, 7265.000
411.4750, 7358.000
412.6710, 7541.000
413.8660, 7602.636
415.0610, 7724.398
416.2560, 7796.000
417.4510, 7924.000
418.6460, 8073.000
419.8410, 8180.000
421.0350, 8342.000
422.2290, 8555.429
423.4230, 8806.000
424.6170, 9080.000
425.8100, 9389.000
427.0040, 9782.000
428.1970, 10260.00
429.3900, 10694.00
430.5830, 11405.00
431.7760, 12328.00
432.9680, 12838.00
434.1610, 13925.00
435.3530, 14805.00
436.5450, 15676.00
437.7360, 16324.00
438.9280, 16656.00
440.1190, 17106.00
441.3110, 17182.00
442.5020, 16939.00
443.6930, 16710.00
444.8830, 16356.00
446.0740, 16144.00
447.2640, 15803.00
448.4540, 15344.00
449.6440, 14892.00
450.8340, 14406.00
452.0240, 14164.00
453.2130, 13989.00
454.4020, 13725.00
455.5910, 13621.00
456.7800, 13717.00
457.9690, 13877.00
459.1570, 14014.00
460.3460, 14385.00
461.5340, 14656.00
462.7220, 15260.00
463.9090, 15654.00
465.0970, 16256.00
466.2840, 16775.00
467.4720, 17284.00
468.6590, 17850.00
469.8460, 18288.00
471.0320, 19078.00
472.2190, 19252.00
473.4050, 19457.00
474.5910, 19379.00
475.7770, 18771.00
476.9630, 18087.00
478.1490, 17045.00
479.3340, 16235.00
480.5190, 15500.00
481.7040, 14591.00
482.8890, 14197.00
484.0740, 13762.00
485.2580, 13769.00
486.4430, 13612.00
487.6270, 13633.00
488.8110, 13614.68
489.9950, 13645.00
491.1780, 13651.00
492.3620, 13777.00
493.5450, 13838.00
494.7280, 13828.00
495.9110, 13948.00
497.0940, 13903.00
498.2760, 13911.00
499.4590, 13928.00
500.6410, 13738.00
501.8230, 13705.00
503.0050, 13794.00
504.1860, 13696.00
505.3680, 13729.00
506.5490, 13483.00
507.7300, 13627.00
508.9110, 13422.00
510.0920, 13516.00
511.2730, 13406.00
512.4530, 13429.00
513.6330, 13318.00
514.8130, 13350.00
515.9930, 13402.00
517.1730, 13366.00
518.3520, 13294.00
519.5320, 13217.00
520.7110, 13054.00
521.8900, 13073.00
523.0690, 13014.00
524.2470, 13136.00
525.4260, 13222.00
526.6040, 13130.00
527.7820, 13011.00
528.9600, 13173.00
530.1380, 13156.00
531.3150, 13031.00
532.4930, 13297.00
533.6700, 13244.00
534.8470, 13430.00
536.0240, 13472.00
537.2000, 13516.00
538.3770, 13783.00
539.5530, 13855.00
540.7290, 13990.00
541.9050, 14099.00
543.0810, 14172.00
544.2570, 14268.00
545.4320, 14169.00
546.6080, 14221.00
547.7830, 14276.00
548.9580, 14469.00
550.1320, 14466.00
551.3070, 14456.00
552.4810, 14739.00
553.6550, 14664.00
554.8300, 14942.00
556.0030, 14982.00
557.1770, 15057.00
558.3510, 15206.00
559.5240, 15415.00
560.6970, 15567.00
561.8700, 15574.00
563.0430, 15504.00
564.2160, 15837.00
565.3880, 15798.00
566.5600, 15611.00
567.7320, 15883.00
568.9040, 15674.00
570.0760, 15724.00
571.2480, 15831.00
572.4190, 15721.00
573.5900, 15645.00
574.7610, 15702.00
575.9320, 15827.00
577.1030, 15744.00
578.2740, 15726.00
579.4440, 15930.00
580.6140, 15777.00
581.7840, 15849.00
582.9540, 15834.00
584.1240, 15792.00
585.2930, 16030.00
586.4630, 16013.00
587.6320, 16038.00
588.8010, 16341.00
589.9700, 16385.00
591.1380, 16496.00
592.3070, 16638.00
593.4750, 16676.00
594.6430, 16907.00
595.8110, 17180.00
596.9790, 17339.00
598.1460, 17636.00
599.3140, 17871.00
600.4810, 18358.00
601.6480, 18438.00
602.8150, 18992.00
603.9820, 19436.00
605.1480, 19699.00
606.3150, 20038.00
607.4810, 20800.00
608.6470, 21269.00
609.8130, 21899.00
610.9790, 22106.00
612.1440, 22624.00
613.3100, 23208.00
614.4750, 23951.00
615.6400, 24392.00
616.8050, 25269.00
617.9690, 26263.00
619.1340, 27268.00
620.2980, 28941.00
621.4620, 30423.00
622.6260, 32775.00
623.7900, 35718.00
624.9540, 38871.00
626.1170, 43250.00
627.2810, 47764.00
628.4440, 52817.00
629.6070, 57872.00
630.7690, 62009.00
631.9320, 65012.00
633.0950, 65535.00
634.2570, 64792.00
635.4190, 61976.00
636.5810, 57906.00
637.7430, 52717.00
638.9040, 47499.00
640.0660, 42120.00
641.2270, 37965.00
642.3880, 33968.00
643.5490, 31077.00
644.7100, 28854.00
645.8700, 27190.00
647.0310, 25411.00
648.1910, 24216.00
649.3510, 22822.00
650.5110, 22161.00
651.6710, 21104.00
652.8300, 20458.00
653.9900, 19698.00
655.1490, 18926.00
656.3080, 18513.00
657.4670, 17923.00
658.6250, 17141.00
659.7840, 16935.00
660.9420, 16401.00
662.1010, 16026.00
663.2590, 15493.00
664.4170, 15150.00
665.5740, 14887.00
666.7320, 14614.00
667.8890, 14376.00
669.0460, 14134.00
670.2030, 13824.00
671.3600, 13488.00
672.5170, 13548.00
673.6740, 13383.00
674.8300, 13325.00
675.9860, 13106.00
677.1420, 13054.00
678.2980, 13124.00
679.4540, 13247.00
680.6090, 13355.00
681.7650, 13435.08
682.9200, 13520.00
684.0750, 13625.00
685.2300, 13747.00
686.3840, 13880.00
687.5390, 14096.00
688.6930, 14059.00
689.8470, 14297.00
691.0010, 14376.00
692.1550, 14633.00
693.3090, 14623.00
694.4620, 14661.00
695.6160, 14588.00
696.7690, 14483.00
697.9220, 14516.00
699.0750, 14471.00
700.2280, 14306.00
701.3800, 13927.00
702.5320, 13749.00
703.6850, 13549.00
704.8370, 13427.00
705.9880, 13445.00
707.1400, 13455.00
708.2920, 13563.00
709.4430, 13477.00
710.5940, 13592.00
711.7450, 13667.00
712.8960, 13758.00
714.0470, 14070.00
715.1970, 13947.00
716.3480, 14065.00
717.4980, 14487.00
718.6480, 14495.00
719.7980, 14442.00
720.9470, 14607.00
722.0970, 14644.00
723.2460, 14766.00
724.3960, 14710.00
725.5450, 14663.00
726.6940, 14745.00
727.8420, 14691.00
728.9910, 14646.00
730.1390, 14812.00
731.2870, 14616.00
732.4350, 14711.00
733.5830, 14691.00
734.7310, 14647.00
735.8790, 14578.00
737.0260, 14593.71
738.1730, 14474.00
739.3200, 14575.00
740.4670, 14394.00
741.6140, 14303.00
742.7610, 14270.00
743.9070, 14276.00
745.0530, 14086.00
746.1990, 14231.00
747.3450, 14132.00
748.4910, 14146.00
749.6370, 13967.00
750.7820, 13784.00
751.9270, 13731.00
753.0720, 13687.00
754.2170, 13652.00
755.3620, 13498.00
756.5070, 13292.00
757.6510, 13086.00
758.7950, 12947.00
759.9400, 12786.00
761.0840, 12589.00
762.2270, 12529.00
763.3710, 12427.00
764.5140, 12229.00
765.6580, 12240.00
766.8010, 12339.00
767.9440, 12339.00
769.0870, 12559.00
770.2290, 12714.00
771.3720, 12884.00
772.5140, 13024.00
773.6560, 13099.00
774.7990, 13230.00
775.9400, 13155.00
777.0820, 12973.00
778.2240, 12622.00
779.3650, 12195.00
780.5060, 11798.00
781.6470, 11619.00
782.7880, 11063.00
783.9290, 10570.00
785.0690, 10310.00
786.2100, 10044.00
787.3500, 9850.000
788.4900, 9642.980
789.6300, 9356.000
790.7700, 9286.000
791.9090, 9121.000
793.0490, 8928.000
794.1880, 8901.000
795.3270, 8868.000
796.4660, 8802.000
797.6050, 8477.000
798.7440, 8462.000
799.8820, 8319.000
801.0200, 8229.000
802.1590, 8146.000
803.2970, 8011.000
804.4340, 8027.000
805.5720, 7876.000
806.7100, 7825.000
807.8470, 7679.000
808.9840, 7718.000
810.1210, 7517.000
811.2580, 7592.000
812.3950, 7558.000
813.5310, 7423.000
814.6680, 7446.000
815.8040, 7493.000
816.9400, 7509.000
818.0760, 7471.000
819.2120, 7480.000
820.3470, 7473.000
821.4830, 7596.000
822.6180, 7631.000
823.7530, 7774.000
824.8880, 7800.000
826.0230, 7866.000
827.1580, 8183.000
828.2920, 8263.000
829.4270, 8508.000
830.5610, 8737.000
831.6950, 8895.000
832.8290, 9278.000
833.9620, 9353.000
835.0960, 9740.000
836.2290, 9892.524
837.3620, 9963.912
838.4950, 10060.00
839.6280, 10006.00
840.7610, 9679.000
841.8940, 9550.000
843.0260, 9128.000
844.1580, 8921.000
845.2910, 8461.000
846.4230, 8218.000
847.5540, 8074.000
848.6860, 7803.000
849.8170, 7621.000
850.9490, 7577.000
852.0800, 7371.000
853.2110, 7375.000
854.3420, 7238.000
855.4730, 7199.000
856.6030, 7125.000
857.7340, 7132.000
858.8640, 7153.000
859.9940, 7086.000
861.1240, 7082.000
862.2540, 7027.000
863.3830, 7001.000
864.5130, 7087.000
865.6420, 7062.000
866.7710, 7176.000
867.9000, 6949.000
869.0290, 6948.000
870.1570, 6978.000
871.2860, 6908.000
872.4140, 6912.000
873.5430, 6836.000
874.6710, 6879.000
875.7980, 6897.000
876.9260, 6837.000
878.0540, 6869.000
879.1810, 6813.000
880.3080, 6636.000
881.4360, 6567.000
882.5630, 6622.000
883.6890, 6628.000
884.8160, 6535.000
885.9420, 6448.000
887.0690, 6549.000
888.1950, 6503.000
889.3210, 6429.000
890.4470, 6558.000
891.5730, 6414.000
892.6980, 6443.000
893.8240, 6373.000
894.9490, 6232.000
896.0740, 6370.000
897.1990, 6346.000
898.3240, 6278.000
899.4480, 6188.000
900.5730, 6241.000
901.6970, 6200.000
902.8210, 6099.000
903.9450, 6073.000
905.0690, 6022.000
906.1930, 6030.000
907.3160, 5969.000
908.4400, 6049.000
909.5630, 6056.000
910.6860, 5946.000
911.8090, 5784.000
912.9320, 5880.000
914.0550, 5897.000
915.1770, 5906.000
916.2990, 5869.000
917.4210, 5945.000
918.5440, 5931.000
919.6650, 5780.000
920.7870, 5801.000
921.9090, 5848.000
923.0300, 5739.000
924.1510, 5776.000
925.2720, 5853.000
926.3930, 5770.000
927.5140, 5794.000
928.6350, 5782.000
929.7550, 5795.000
930.8760, 5775.000
931.9960, 5804.000
933.1160, 5845.000
934.2360, 5774.000
935.3550, 5801.000
936.4750, 5784.000
937.5940, 5687.000
938.7140, 5966.000
939.8330, 5877.000
940.9520, 5853.000
942.0710, 5924.000
943.1890, 5877.000
944.3080, 5839.000
945.4260, 5923.000
946.5440, 6007.000
947.6620, 5914.000
948.7800, 5852.000
949.8980, 6071.000
951.0160, 5991.000
952.1330, 5950.000
953.2500, 6005.000
954.3680, 6031.000
955.4850, 6031.000
956.6010, 6134.000
957.7180, 6048.000
958.8350, 6214.000
959.9510, 6140.000
961.0670, 6172.000
962.1830, 6101.000
963.2990, 6231.000
964.4150, 6248.000
965.5310, 6240.000
966.6460, 6284.000
967.7620, 6333.000
968.8770, 6318.000
969.9920, 6323.000
971.1070, 6261.000
972.2210, 6347.000
973.3360, 6330.000
974.4500, 6271.000
975.5650, 6292.000
976.6790, 6231.000
977.7930, 6324.000
978.9070, 6176.000
980.0200, 6298.000
981.1340, 6240.000
982.2470, 6198.000
983.3610, 6170.000
984.4740, 6099.000
985.5870, 6133.000
986.6990, 6185.000
987.8120, 6102.000
988.9250, 6064.000
990.0370, 6156.000
991.1490, 6043.000
992.2610, 6076.000
993.3730, 6128.000
994.4850, 6003.000
995.5960, 6098.000
996.7080, 5865.000
997.8190, 5997.000
998.9300, 6030.000
1000.041, 6108.000
1001.152, 6069.000
1002.263, 6107.000
1003.373, 6108.000
1004.484, 6158.000
1005.594, 6106.000
1006.704, 6120.000
1007.814, 6135.000
1008.924, 6180.000
1010.034, 6166.000
1011.143, 6199.211
1012.253, 6128.000
1013.362, 6209.000
1014.471, 6209.000
1015.580, 6148.000
1016.689, 6217.000
1017.797, 6208.000
1018.906, 6199.000
1020.014, 6324.000
1021.122, 6281.000
1022.230, 6367.000
1023.338, 6293.000
1024.446, 6276.000
1025.554, 6338.000
1026.661, 6328.000
1027.768, 6373.000
1028.875, 6314.000
1029.983, 6382.000
1031.089, 6390.000
1032.196, 6316.000
1033.303, 6286.000
1034.409, 6273.000
1035.515, 6358.000
1036.622, 6407.000
1037.728, 6389.000
1038.833, 6379.000
1039.939, 6327.000
1041.045, 6480.000
1042.150, 6425.000
1043.255, 6429.000
1044.360, 6401.000
1045.465, 6399.000
1046.570, 6399.000
1047.675, 6358.000
1048.779, 6286.000
1049.884, 6327.000
1050.988, 6282.000
1052.092, 6346.000
1053.196, 6367.000
1054.300, 6287.000
1055.404, 6422.000
1056.507, 6381.000
1057.610, 6417.000
1058.714, 6378.000
1059.817, 6353.000
1060.920, 6368.000
1062.022, 6343.000
1063.125, 6423.000
1064.228, 6411.000
1065.330, 6428.000
1066.432, 6367.000
1067.534, 6349.000
1068.636, 6489.000
1069.738, 6400.000
1070.840, 6357.000
1071.941, 6476.000
1073.042, 6419.000
1074.144, 6429.000
1075.245, 6514.000
1076.346, 6421.000
1077.446, 6472.000
1078.547, 6459.000
1079.647, 6433.000
1080.748, 6499.000
1081.848, 6463.000
1082.948, 6534.000
1084.048, 6465.000
1085.148, 6605.000
1086.247, 6410.000
1087.347, 6620.000
1088.446, 6574.000
1089.545, 6477.000
1090.644, 6519.000
1091.743, 6591.000
1092.842, 6482.000
1093.940, 6502.000
1095.039, 6519.000
1096.137, 6534.000
1097.235, 6559.000
1098.333, 6587.000
1099.431, 6608.000
1100.529, 6607.000
1101.627, 6650.510
1102.724, 6671.000
1103.822, 6696.000
1104.919, 6762.000
1106.016, 6731.000
1107.113, 6766.000
1108.209, 6767.211
1109.306, 6654.000
1110.402, 6724.000
1111.499, 6756.000
1112.595, 6656.000
1113.691, 6739.000
1114.787, 6736.000
1115.883, 6762.000
1116.978, 6763.000
1118.074, 6836.000
1119.169, 6866.000
1120.264, 6872.194
1121.359, 6799.000
1122.454, 6897.000
1123.549, 6837.000
1124.644, 6872.000
1125.738, 6854.000
1126.832, 6882.000
1127.927, 6821.000
1129.021, 6800.000
1130.115, 6798.000
1131.208, 6822.000
1132.302, 6822.000
1133.396, 6853.000
1134.489, 6800.000
1135.582, 6808.000
1136.675, 6831.000
1137.768, 6818.000
1138.861, 6832.334
1139.954, 6827.000
1141.046, 6839.000
1142.138, 6802.000
1143.231, 6795.000
1144.323, 6672.000
1145.415, 6727.000
1146.507, 6768.000
1147.598, 6642.000
1148.690, 6694.000
1149.781, 6642.000
1150.872, 6745.000
1151.964, 6645.000
1153.054, 6659.224
1154.145, 6678.000
1155.236, 6641.000
1156.327, 6662.000
1157.417, 6705.000
1158.507, 6665.000
1159.597, 6725.000
1160.687, 6675.000
1161.777, 6707.000
1162.867, 6667.000
1163.956, 6736.000
1165.046, 6626.000
1166.135, 6573.000
1167.224, 6595.000
1168.313, 6620.000
1169.402, 6660.000
1170.491, 6695.000
1171.580, 6683.824
1172.668, 6674.000
1173.756, 6640.000
1174.845, 6728.000
1175.933, 6683.000
1177.020, 6701.000
1178.108, 6630.000
1179.196, 6736.000
1180.283, 6698.000
1181.371, 6710.000
1182.458, 6712.000
1183.545, 6739.000
1184.632, 6715.000
1185.719, 6732.000
1186.805, 6705.000
1187.892, 6766.000
1188.978, 6753.000
1190.065, 6750.000
1191.151, 6754.000
1192.237, 6738.000
1193.323, 6816.000
1194.408, 6806.000
1195.494, 6811.613
1196.579, 6805.000
1197.664, 6805.000
1198.750, 6824.000
1199.835, 6829.000
1200.919, 6751.000
1202.004, 6788.000
1203.089, 6786.000
1204.173, 6769.000
1205.258, 6859.000
1206.342, 6770.000
1207.426, 6859.000
1208.510, 6866.000
1209.594, 6859.000
1210.677, 6895.801
1211.761, 6899.464
1212.844, 6930.000
1213.927, 6893.000
1215.010, 6945.000
1216.093, 6860.000
1217.176, 6871.000
1218.259, 6839.000
1219.341, 6955.000
1220.424, 6904.000
1221.506, 6930.520
1222.588, 6977.000
1223.670, 6926.000
1224.752, 7043.000
1225.834, 7029.000
1226.915, 7090.000
1227.997, 7056.000
1229.078, 7104.000
1230.159, 7122.000
1231.240, 7144.000
1232.321, 7132.000
1233.402, 7142.868
1234.483, 7159.000
1235.563, 7120.000
1236.644, 7139.000
1237.724, 7088.000
1238.804, 7153.000
1239.884, 7179.000
1240.964, 7101.000
1242.044, 7229.000
1243.123, 7074.000
1244.203, 7255.000
1245.282, 7191.000
1246.361, 7261.000
1247.440, 7215.000
1248.519, 7280.000
1249.598, 7317.000
1250.676, 7339.000
1251.755, 7396.000
1252.833, 7353.000
1253.911, 7325.000
1254.989, 7421.000
1256.067, 7409.000
1257.145, 7476.000
1258.223, 7556.000
1259.300, 7386.000
1260.378, 7445.000
1261.455, 7518.000
1262.532, 7442.000
1263.609, 7588.000
1264.686, 7574.000
1265.763, 7650.000
1266.840, 7589.000
1267.916, 7650.000
1268.992, 7751.000
1270.069, 7757.000
1271.145, 7797.000
1272.221, 7762.000
1273.296, 7893.000
1274.372, 7831.000
1275.448, 7915.000
1276.523, 7873.000
1277.598, 7961.000
1278.673, 8032.000
1279.749, 7968.000
1280.823, 7939.000
1281.898, 7948.000
1282.973, 7935.000
1284.047, 7877.000
1285.122, 7886.000
1286.196, 7873.000
1287.270, 7715.000
1288.344, 7805.000
1289.418, 7623.000
1290.491, 7600.000
1291.565, 7615.000
1292.638, 7565.000
1293.712, 7607.000
1294.785, 7707.000
1295.858, 7577.000
1296.931, 7510.000
1298.003, 7494.000
1299.076, 7358.000
1300.149, 7515.000
1301.221, 7551.000
1302.293, 7438.000
1303.365, 7431.000
1304.437, 7444.000
1305.509, 7428.000
1306.581, 7415.000
1307.652, 7363.000
1308.724, 7468.000
1309.795, 7319.000
1310.866, 7441.000
1311.937, 7409.000
1313.008, 7291.000
1314.079, 7298.000
1315.150, 7307.000
1316.220, 7350.000
1317.291, 7301.000
1318.361, 7307.704
1319.431, 7370.000
1320.501, 7266.000
1321.571, 7221.000
1322.641, 7197.000
1323.710, 7242.000
1324.780, 7266.000
1325.849, 7130.000
1326.918, 7253.000
1327.987, 7185.000
1329.056, 7126.000
1330.125, 7306.000
1331.194, 7235.000
1332.263, 7128.000
1333.331, 7207.000
1334.399, 7190.000
1335.467, 7254.000
1336.535, 7141.000
1337.603, 7151.000
1338.671, 7131.000
1339.739, 7275.000
1340.806, 7086.000
1341.874, 7140.000
1342.941, 7252.000
1344.008, 7164.000
1345.075, 7115.000
1346.142, 7195.000
1347.209, 7184.000
1348.275, 7197.000
1349.342, 7176.000
1350.408, 7163.000
1351.475, 7149.000
1352.541, 7233.000
1353.607, 7216.000
1354.673, 7221.000
1355.738, 7261.000
1356.804, 7165.000
1357.869, 7301.000
1358.935, 7181.000
1360.000, 7226.000
1361.065, 7286.000
1362.130, 7288.000
1363.195, 7178.000
1364.259, 7242.000
1365.324, 7233.057
1366.388, 7233.602
1367.453, 7262.000
1368.517, 7280.000
1369.581, 7301.324
1370.645, 7238.000
1371.709, 7360.000
1372.772, 7348.000
1373.836, 7389.000
1374.899, 7317.000
1375.963, 7402.000
1377.026, 7289.000
1378.089, 7442.000
1379.152, 7311.000
1380.214, 7303.000
1381.277, 7401.000
1382.340, 7341.000
1383.402, 7300.000
1384.464, 7240.000
1385.526, 7305.000
1386.588, 7213.000
1387.650, 7251.000
1388.712, 7178.000
1389.774, 7182.000
1390.835, 7193.000
1391.896, 7336.000
1392.958, 7125.000
1394.019, 7076.000
1395.080, 7233.000
1396.141, 7150.000
1397.201, 7142.000
1398.262, 7100.000
1399.323, 7048.000
1400.383, 7033.000
1401.443, 7045.000
1402.503, 7017.000
1403.563, 7100.000
1404.623, 7049.000
1405.683, 6956.000
1406.742, 7055.000
1407.802, 7029.000
1408.861, 6913.000
1409.920, 7114.000
1410.980, 6973.000
1412.039, 6949.000
1413.097, 6989.000
1414.156, 7015.000
1415.215, 7108.000
1416.273, 6986.000
1417.331, 6989.000
1418.390, 7028.000
1419.448, 6833.000
1420.506, 7020.000
1421.564, 6927.000
1422.621, 6993.000
1423.679, 6831.000
1424.736, 6881.000
1425.794, 7017.000
1426.851, 7003.000
1427.908, 6972.000
1428.965, 6916.000
1430.022, 6925.000
1431.079, 7004.000
1432.135, 6904.000
1433.192, 6953.000
1434.248, 6947.000
1435.304, 6909.000
1436.360, 6973.000
1437.416, 6923.000
1438.472, 6914.000
1439.528, 6858.000
1440.583, 6947.000
1441.639, 6946.000
1442.694, 6964.000
1443.749, 6988.000
1444.804, 7093.000
1445.859, 6917.000
1446.914, 6945.000
1447.969, 6910.000
1449.024, 7066.000
1450.078, 7121.000
1451.132, 7048.000
1452.187, 7002.000
1453.241, 7128.000
1454.295, 7184.000
1455.349, 7176.000
1456.402, 7117.000
1457.456, 7141.000
1458.509, 7125.000
1459.563, 7160.000
1460.616, 7174.000
1461.669, 7174.000
1462.722, 7132.000
1463.775, 7260.000
1464.828, 7140.000
1465.880, 7271.000
1466.933, 7142.000
1467.985, 7106.000
1469.037, 7111.000
1470.090, 7177.000
1471.142, 7186.000
1472.193, 7204.000
1473.245, 7221.000
1474.297, 7193.000
1475.348, 7161.000
1476.400, 7147.326
1477.451, 7146.220
1478.502, 7151.359
1479.553, 7178.000
1480.604, 7191.000
1481.655, 7240.000
1482.706, 7269.000
1483.756, 7108.000
1484.807, 7218.000
1485.857, 7214.000
1486.907, 7291.000
1487.957, 7172.000
1489.007, 7180.000
1490.057, 7243.000
1491.106, 7213.000
1492.156, 7204.000
1493.205, 7260.000
1494.255, 7259.000
1495.304, 7140.000
1496.353, 7125.000
1497.402, 7111.000
1498.451, 7189.000
1499.500, 7199.000
1500.548, 7180.000
1501.597, 7293.000
1502.645, 7220.000
1503.693, 7235.000
1504.741, 7246.000
1505.789, 7216.000
1506.837, 7231.000
1507.885, 7274.000
1508.932, 7173.000
1509.980, 7234.000
1511.027, 7330.000
1512.075, 7203.000
1513.122, 7206.000
1514.169, 7137.000
1515.216, 7229.000
1516.262, 7125.000
1517.309, 7218.000
1518.356, 7162.000
1519.402, 7082.000
1520.448, 7167.000
1521.495, 7086.000
1522.541, 7072.000
1523.587, 7179.000
1524.632, 7150.000
1525.678, 7039.000
1526.724, 7213.000
1527.769, 7054.000
1528.814, 6892.000
1529.860, 6940.000
1530.905, 6914.000
1531.950, 6823.000
1532.995, 6791.000
1534.039, 6897.000
1535.084, 6879.000
1536.128, 6769.000
1537.173, 6820.000
1538.217, 6762.000
1539.261, 6725.000
1540.305, 6800.000
1541.349, 6746.000
1542.393, 6692.000
1543.436, 6688.000
1544.480, 6591.000
1545.523, 6660.000
1546.567, 6530.000
1547.610, 6662.000
1548.653, 6659.000
1549.696, 6519.000
1550.739, 6571.000
1551.781, 6563.000
1552.824, 6589.000
1553.867, 6478.000
1554.909, 6565.000
1555.951, 6702.000
1556.993, 6655.000
1558.035, 6435.000
1559.077, 6300.000
1560.119, 6326.000
1561.161, 6162.000
1562.202, 6245.000
1563.243, 6247.000
1564.285, 6280.000
1565.326, 6101.000
##END=



