##NAMES=Cassiterite
##RRUFFID=R050502
##IDEAL CHEMISTRY=SnO_2_
##LOCALITY=Redruth, Cornwall, England
##OWNER=RRUFF
##SOURCE=California Institute of Technology
##DESCRIPTION=Black crystals associated with colorless quartz and grey stannite.
##STATUS=The identification of this mineral has been confirmed by X-ray diffraction and chemical analysis
##URL=rruff.info/R050502
##MEASURED CHEMISTRY=SnO_2_
##PIN_ID=M00088
##ORIENTATION=Laser parallel to -c* (0 0 -1). Fiducial mark perpendicular to laser is parallel to b [0 1 0]
201.1900, 9814.000
202.4130, 9905.000
203.6360, 9837.000
204.8590, 9784.000
206.0820, 9829.000
207.3050, 9887.000
208.5270, 9861.000
209.7490, 9895.000
210.9710, 9906.000
212.1930, 10041.00
213.4150, 10183.00
214.6370, 10240.00
215.8580, 10337.00
217.0790, 10362.00
218.3010, 10445.00
219.5210, 10576.00
220.7420, 10728.00
221.9630, 10704.00
223.1830, 10849.00
224.4040, 10919.00
225.6240, 10905.00
226.8440, 11013.00
228.0640, 11021.00
229.2840, 11195.00
230.5030, 11381.00
231.7230, 11623.00
232.9420, 11950.00
234.1610, 12099.00
235.3800, 12519.00
236.5990, 12588.00
237.8170, 12386.00
239.0360, 12298.00
240.2540, 12537.00
241.4720, 12691.00
242.6900, 12686.00
243.9080, 12744.00
245.1250, 12631.00
246.3430, 12422.00
247.5600, 12293.00
248.7770, 12110.01
249.9940, 11706.00
251.2110, 11802.00
252.4280, 11617.00
253.6450, 11583.00
254.8610, 11655.00
256.0770, 11832.00
257.2930, 11791.00
258.5090, 11834.88
259.7250, 11823.76
260.9400, 11803.00
262.1560, 11718.00
263.3710, 11708.00
264.5860, 11640.00
265.8010, 11552.93
267.0160, 11498.00
268.2310, 11343.00
269.4450, 11167.00
270.6600, 11005.00
271.8740, 10842.00
273.0880, 10644.00
274.3020, 10544.96
275.5150, 10543.00
276.7290, 10417.00
277.9420, 10474.00
279.1550, 10596.00
280.3680, 10624.00
281.5810, 10609.00
282.7940, 10618.00
284.0070, 10633.00
285.2190, 10622.00
286.4310, 10631.00
287.6430, 10651.83
288.8550, 10609.00
290.0670, 10672.00
291.2790, 10669.00
292.4900, 10619.00
293.7020, 10598.00
294.9130, 10691.00
296.1240, 10663.00
297.3350, 10737.00
298.5450, 10618.00
299.7560, 10717.00
300.9660, 10664.00
302.1760, 10638.00
303.3860, 10512.00
304.5960, 10484.00
305.8060, 10374.00
307.0150, 10483.00
308.2250, 10532.00
309.4340, 10521.00
310.6430, 10363.00
311.8520, 10316.00
313.0610, 10312.00
314.2700, 10252.00
315.4780, 10195.00
316.6860, 10187.00
317.8940, 10246.00
319.1020, 10167.00
320.3100, 10244.00
321.5180, 10116.00
322.7250, 10259.00
323.9330, 10042.00
325.1400, 10126.00
326.3470, 10053.00
327.5540, 10149.00
328.7600, 10018.00
329.9670, 10198.00
331.1730, 10120.00
332.3800, 10086.00
333.5860, 10180.00
334.7920, 10247.00
335.9970, 10099.00
337.2030, 9974.000
338.4080, 10167.00
339.6140, 10230.00
340.8190, 10323.00
342.0240, 10249.00
343.2290, 10318.00
344.4330, 10409.00
345.6380, 10538.87
346.8420, 10450.00
348.0460, 10923.00
349.2500, 11147.00
350.4540, 11336.00
351.6580, 10613.00
352.8610, 10650.00
354.0650, 10484.00
355.2680, 10460.00
356.4710, 10450.00
357.6740, 10347.00
358.8760, 10211.00
360.0790, 10006.00
361.2810, 9998.000
362.4840, 9884.000
363.6860, 9868.000
364.8880, 9771.000
366.0900, 9793.000
367.2910, 9766.000
368.4930, 9870.000
369.6940, 9717.000
370.8950, 9795.000
372.0960, 9758.000
373.2970, 9913.000
374.4980, 9850.000
375.6980, 9859.000
376.8980, 9993.000
378.0990, 10046.00
379.2990, 10067.00
380.4980, 10080.00
381.6980, 10174.00
382.8980, 10120.00
384.0970, 10290.00
385.2960, 10242.00
386.4950, 10472.00
387.6940, 10388.00
388.8930, 10295.81
390.0920, 10548.40
391.2900, 10729.77
392.4880, 10843.81
393.6860, 10688.87
394.8840, 10881.26
396.0820, 10934.46
397.2800, 10981.95
398.4770, 11223.15
399.6750, 11107.34
400.8720, 11306.00
402.0690, 11518.00
403.2660, 11611.00
404.4620, 11915.00
405.6590, 11944.00
406.8550, 12122.00
408.0510, 12317.00
409.2480, 12665.00
410.4430, 12766.00
411.6390, 13132.00
412.8350, 13297.00
414.0300, 13675.00
415.2250, 13699.00
416.4200, 13961.00
417.6150, 14301.00
418.8100, 14503.00
420.0050, 14692.00
421.1990, 14954.00
422.3940, 15029.00
423.5880, 15381.92
424.7820, 15593.00
425.9750, 15933.00
427.1690, 16111.00
428.3630, 16186.00
429.5560, 16315.00
430.7490, 16271.00
431.9420, 16390.00
433.1350, 16412.00
434.3280, 16315.00
435.5200, 16408.00
436.7130, 16217.00
437.9050, 16232.00
439.0970, 16288.00
440.2890, 16161.00
441.4810, 16371.00
442.6720, 16596.00
443.8640, 16827.00
445.0550, 17173.00
446.2460, 17401.00
447.4370, 17864.00
448.6280, 18196.00
449.8180, 18919.00
451.0090, 18865.00
452.1990, 19375.00
453.3890, 19750.00
454.5790, 19919.00
455.7690, 20410.00
456.9590, 20491.00
458.1480, 20569.00
459.3380, 20758.00
460.5270, 20764.00
461.7160, 20791.00
462.9050, 20862.00
464.0940, 21033.00
465.2820, 20923.00
466.4700, 20910.00
467.6590, 20660.00
468.8470, 20646.00
470.0350, 20294.00
471.2220, 19922.00
472.4100, 19446.00
473.5970, 18826.00
474.7850, 18372.00
475.9720, 18113.00
477.1590, 17393.00
478.3460, 17030.00
479.5320, 16546.00
480.7190, 16376.00
481.9050, 15960.00
483.0910, 15791.00
484.2770, 15589.00
485.4630, 15427.00
486.6490, 15356.00
487.8340, 15206.00
489.0200, 15130.00
490.2050, 15080.00
491.3900, 15021.00
492.5750, 14895.00
493.7600, 14812.00
494.9440, 14693.00
496.1290, 14815.00
497.3130, 14434.00
498.4970, 14601.00
499.6810, 14370.00
500.8650, 14362.00
502.0480, 14089.00
503.2320, 14003.00
504.4150, 13941.00
505.5980, 13860.00
506.7810, 13625.00
507.9640, 13512.00
509.1460, 13627.00
510.3290, 13520.00
511.5110, 13222.00
512.6930, 13126.00
513.8750, 12936.00
515.0570, 12944.00
516.2390, 12956.00
517.4210, 12719.00
518.6020, 12709.00
519.7830, 12554.00
520.9640, 12485.00
522.1450, 12372.00
523.3260, 12477.00
524.5060, 12452.00
525.6870, 12530.00
526.8670, 12418.00
528.0470, 12435.00
529.2270, 12448.00
530.4070, 12439.00
531.5870, 12376.00
532.7660, 12462.00
533.9450, 12328.00
535.1240, 12332.00
536.3030, 12403.00
537.4820, 12710.00
538.6610, 12545.00
539.8390, 12642.00
541.0180, 12615.00
542.1960, 12566.00
543.3740, 12559.00
544.5520, 12471.00
545.7290, 12526.00
546.9070, 12451.00
548.0840, 12442.00
549.2620, 12496.00
550.4390, 12507.00
551.6160, 12553.00
552.7920, 12537.44
553.9690, 12490.00
555.1450, 12501.00
556.3220, 12461.00
557.4980, 12450.00
558.6740, 12438.00
559.8490, 12423.73
561.0250, 12515.00
562.2000, 12397.00
563.3760, 12434.00
564.5510, 12390.00
565.7260, 12295.00
566.9010, 12320.00
568.0750, 12293.46
569.2500, 12185.00
570.4240, 12326.00
571.5980, 12263.00
572.7720, 12302.00
573.9460, 12378.00
575.1200, 12335.00
576.2930, 12333.00
577.4670, 12443.00
578.6400, 12461.00
579.8130, 12463.00
580.9860, 12703.00
582.1590, 12706.00
583.3310, 12895.00
584.5040, 12989.00
585.6760, 13088.00
586.8480, 13391.00
588.0200, 13591.00
589.1920, 13753.00
590.3630, 14106.00
591.5350, 14158.00
592.7060, 14510.00
593.8770, 14837.00
595.0480, 15160.00
596.2190, 15392.00
597.3900, 15674.00
598.5600, 16008.00
599.7310, 16427.00
600.9010, 16780.00
602.0710, 17286.00
603.2410, 17682.00
604.4100, 17924.00
605.5800, 18444.00
606.7490, 18694.00
607.9190, 19317.00
609.0880, 19840.00
610.2570, 20301.00
611.4250, 20743.00
612.5940, 21323.00
613.7620, 22232.00
614.9310, 22980.00
616.0990, 24188.00
617.2670, 25263.00
618.4340, 27153.00
619.6020, 29035.00
620.7690, 31771.00
621.9370, 34805.00
623.1040, 38240.00
624.2710, 42037.00
625.4380, 45685.00
626.6040, 49408.00
627.7710, 52342.00
628.9370, 54877.00
630.1030, 56804.00
631.2690, 57654.00
632.4350, 57266.00
633.6010, 55452.00
634.7660, 51960.00
635.9320, 48165.00
637.0970, 43985.00
638.2620, 39122.00
639.4270, 35036.00
640.5920, 31531.00
641.7560, 28695.00
642.9210, 26473.00
644.0850, 24663.00
645.2490, 23162.00
646.4130, 21737.00
647.5770, 20719.00
648.7400, 20000.00
649.9040, 19488.00
651.0670, 18843.00
652.2300, 18199.00
653.3930, 17828.00
654.5560, 17242.00
655.7190, 16782.00
656.8810, 16357.00
658.0440, 16043.08
659.2060, 15787.00
660.3680, 15591.00
661.5300, 15365.00
662.6910, 15202.00
663.8530, 14961.00
665.0140, 14780.00
666.1750, 14682.00
667.3360, 14435.00
668.4970, 14335.00
669.6580, 14256.00
670.8190, 14190.00
671.9790, 14149.17
673.1390, 14062.00
674.2990, 14081.00
675.4590, 14086.00
676.6190, 14012.00
677.7790, 13877.00
678.9380, 14165.00
680.0970, 14095.00
681.2570, 14149.00
682.4160, 14035.00
683.5740, 14149.00
684.7330, 14348.00
685.8920, 14418.00
687.0500, 14544.00
688.2080, 14553.00
689.3660, 14529.00
690.5240, 14846.00
691.6820, 14750.00
692.8390, 14985.00
693.9960, 14925.00
695.1540, 15010.00
696.3110, 15056.00
697.4680, 15144.00
698.6240, 14990.51
699.7810, 14912.00
700.9370, 14644.00
702.0940, 14642.00
703.2500, 14496.00
704.4060, 14498.00
705.5610, 14338.00
706.7170, 14300.00
707.8720, 14259.48
709.0280, 14200.00
710.1830, 14201.00
711.3380, 14141.00
712.4920, 14131.00
713.6470, 14130.00
714.8020, 14109.00
715.9560, 14301.00
717.1100, 14302.00
718.2640, 14133.00
719.4180, 14354.00
720.5720, 14387.00
721.7250, 14229.00
722.8780, 14455.00
724.0320, 14350.00
725.1850, 14491.00
726.3380, 14421.00
727.4900, 14406.00
728.6430, 14356.00
729.7950, 14440.00
730.9470, 14476.00
732.1000, 14460.00
733.2510, 14431.00
734.4030, 14376.00
735.5550, 14450.00
736.7060, 14586.00
737.8570, 14575.00
739.0090, 14560.00
740.1600, 14715.00
741.3100, 14669.00
742.4610, 14803.00
743.6110, 14660.00
744.7620, 14833.00
745.9120, 14749.00
747.0620, 14807.00
748.2120, 15083.00
749.3610, 14906.00
750.5110, 15096.00
751.6600, 15182.00
752.8090, 15221.00
753.9580, 15163.00
755.1070, 15285.00
756.2560, 15364.00
757.4050, 15606.00
758.5530, 15743.00
759.7010, 16227.00
760.8490, 16606.00
761.9970, 17135.00
763.1450, 17734.00
764.2920, 18611.00
765.4400, 19209.00
766.5870, 20535.00
767.7340, 21560.00
768.8810, 22568.00
770.0280, 23410.00
771.1740, 24347.00
772.3210, 24668.00
773.4670, 25021.00
774.6130, 24675.00
775.7590, 24607.00
776.9050, 23882.00
778.0510, 22913.00
779.1960, 22167.00
780.3420, 20990.00
781.4870, 20006.00
782.6320, 19302.00
783.7770, 18251.00
784.9210, 17460.00
786.0660, 16739.00
787.2100, 16432.00
788.3540, 15924.00
789.4980, 15557.00
790.6420, 15247.00
791.7860, 15105.00
792.9300, 14796.00
794.0730, 14714.00
795.2160, 14419.00
796.3590, 14453.00
797.5020, 14011.00
798.6450, 13847.00
799.7880, 13778.00
800.9300, 13501.00
802.0720, 13474.00
803.2150, 13268.00
804.3560, 13065.00
805.4980, 12972.00
806.6400, 12677.00
807.7810, 12653.00
808.9230, 12490.00
810.0640, 12530.00
811.2050, 12211.00
812.3460, 11982.00
813.4860, 11918.00
814.6270, 11783.72
815.7670, 11819.00
816.9070, 11732.00
818.0470, 11735.00
819.1870, 11735.00
820.3270, 11448.00
821.4670, 11364.00
822.6060, 11338.00
823.7450, 11208.00
824.8840, 11299.00
826.0230, 11116.00
827.1620, 11103.00
828.3010, 11103.00
829.4390, 10986.00
830.5770, 11055.00
831.7150, 11003.00
832.8530, 10956.00
833.9910, 10931.00
835.1290, 10948.67
836.2660, 10955.00
837.4030, 11015.00
838.5410, 11010.00
839.6780, 11029.00
840.8140, 10981.00
841.9510, 11022.16
843.0870, 11073.61
844.2240, 11070.00
845.3600, 11192.00
846.4960, 11210.00
847.6320, 11198.00
848.7680, 11169.00
849.9030, 11195.14
851.0380, 11204.41
852.1740, 11216.00
853.3090, 11264.00
854.4440, 11259.00
855.5780, 11290.00
856.7130, 11268.68
857.8470, 11332.00
858.9820, 11238.00
860.1160, 11356.00
861.2500, 11406.00
862.3830, 11332.00
863.5170, 11375.00
864.6500, 11435.00
865.7840, 11376.00
866.9170, 11338.00
868.0500, 11351.00
869.1830, 11321.00
870.3150, 11430.00
871.4480, 11298.00
872.5800, 11375.00
873.7120, 11188.00
874.8440, 11217.00
875.9760, 11216.00
877.1080, 11235.00
878.2390, 11109.00
879.3710, 10990.00
880.5020, 11196.00
881.6330, 11041.00
882.7640, 11006.00
883.8940, 10958.00
885.0250, 10926.00
886.1550, 10880.00
887.2850, 10872.00
888.4160, 10819.00
889.5450, 10787.00
890.6750, 10901.00
891.8050, 10752.00
892.9340, 10737.00
894.0630, 10879.00
895.1930, 10846.00
896.3220, 10819.38
897.4500, 10924.00
898.5790, 10774.00
899.7070, 10729.00
900.8360, 10869.00
901.9640, 10736.00
903.0920, 10690.00
904.2200, 10764.00
905.3470, 10689.00
906.4750, 10731.00
907.6020, 10768.00
908.7290, 10771.00
909.8560, 10759.00
910.9830, 10738.00
912.1100, 10745.82
913.2360, 10789.00
914.3630, 10760.00
915.4890, 10728.00
916.6150, 10754.00
917.7410, 10725.00
918.8670, 10636.00
919.9920, 10680.00
921.1180, 10673.00
922.2430, 10676.00
923.3680, 10693.00
924.4930, 10779.00
925.6180, 10790.00
926.7420, 10897.00
927.8670, 10782.00
928.9910, 10662.00
930.1150, 10680.00
931.2390, 10657.95
932.3630, 10825.00
933.4860, 10731.00
934.6100, 10857.00
935.7330, 10887.00
936.8560, 10788.00
937.9790, 10895.00
939.1020, 11025.00
940.2250, 10966.00
941.3470, 10933.00
942.4700, 10970.47
943.5920, 10880.00
944.7140, 10982.00
945.8360, 10982.00
946.9570, 11028.55
948.0790, 10994.00
949.2000, 10986.00
950.3220, 11027.00
951.4430, 10919.00
952.5640, 11124.00
953.6840, 11008.00
954.8050, 11123.00
955.9250, 11238.00
957.0460, 11081.00
958.1660, 11059.00
959.2860, 11159.00
960.4050, 11193.00
961.5250, 11299.00
962.6440, 11310.96
963.7640, 11489.00
964.8830, 11304.00
966.0020, 11336.00
967.1210, 11260.00
968.2390, 11333.00
969.3580, 11313.00
970.4760, 11401.00
971.5940, 11467.00
972.7120, 11337.00
973.8300, 11237.00
974.9480, 11492.00
976.0650, 11507.00
977.1830, 11402.00
978.3000, 11535.00
979.4170, 11351.00
980.5340, 11332.00
981.6500, 11394.00
982.7670, 11393.00
983.8830, 11322.00
985.0000, 11220.00
986.1160, 11246.00
987.2320, 11247.00
988.3470, 11355.00
989.4630, 11127.00
990.5780, 11164.00
991.6940, 11382.00
992.8090, 11285.00
993.9240, 11419.00
995.0380, 11444.00
996.1530, 11401.00
997.2680, 11344.00
998.3820, 11371.00
999.4960, 11366.00
1000.610, 11389.00
1001.724, 11386.00
1002.837, 11495.00
1003.951, 11502.00
1005.064, 11328.00
1006.177, 11439.00
1007.291, 11605.00
1008.403, 11676.00
1009.516, 11505.00
1010.629, 11548.00
1011.741, 11447.00
1012.853, 11606.00
1013.965, 11424.00
1015.077, 11494.00
1016.189, 11434.00
1017.300, 11449.00
1018.412, 11648.00
1019.523, 11612.00
1020.634, 11720.00
1021.745, 11583.00
1022.856, 11615.00
1023.966, 11677.00
1025.077, 11627.00
1026.187, 11799.00
1027.297, 11716.00
1028.407, 11725.00
1029.517, 11676.00
1030.627, 11753.00
1031.736, 11595.00
1032.845, 11705.00
1033.955, 11784.00
1035.064, 11902.00
1036.172, 11756.00
1037.281, 11784.00
1038.390, 11703.00
1039.498, 11730.00
1040.606, 11733.00
1041.714, 11870.00
1042.822, 11739.00
1043.930, 11824.00
1045.037, 11832.00
1046.145, 11724.00
1047.252, 11770.00
1048.359, 11727.00
1049.466, 11877.00
1050.573, 11704.00
1051.679, 11770.00
1052.786, 11654.00
1053.892, 11630.00
1054.998, 11683.00
1056.104, 11728.00
1057.210, 11732.00
1058.315, 11671.00
1059.421, 11860.00
1060.526, 11826.00
1061.631, 11754.00
1062.736, 11704.00
1063.841, 11794.00
1064.946, 11659.00
1066.050, 11830.00
1067.154, 11768.00
1068.258, 11902.00
1069.362, 11830.00
1070.466, 11883.00
1071.570, 12009.00
1072.674, 11957.00
1073.777, 11860.00
1074.880, 11855.00
1075.983, 11878.00
1077.086, 11863.00
1078.189, 11865.00
1079.291, 11972.00
1080.394, 11879.00
1081.496, 11957.00
1082.598, 11934.00
1083.700, 12065.00
1084.802, 12054.00
1085.903, 12071.00
1087.005, 12130.00
1088.106, 12024.00
1089.207, 12075.00
1090.308, 11956.00
1091.409, 12035.00
1092.509, 12005.00
1093.610, 11910.00
1094.710, 12134.00
1095.810, 12299.00
1096.910, 11995.00
1098.010, 12023.00
1099.110, 12168.00
1100.209, 12107.00
1101.309, 12099.00
1102.408, 12164.00
1103.507, 12170.00
1104.606, 12188.00
1105.704, 12144.00
1106.803, 12299.00
1107.901, 12014.00
1108.999, 12136.00
1110.097, 12330.00
1111.195, 12192.00
1112.293, 12400.00
1113.391, 12213.00
1114.488, 12378.00
1115.585, 12299.00
1116.682, 12332.00
1117.779, 12483.00
1118.876, 12361.00
1119.973, 12234.00
1121.069, 12313.00
1122.165, 12359.00
1123.261, 12388.00
1124.357, 12470.00
1125.453, 12514.00
1126.549, 12564.00
1127.644, 12593.00
1128.739, 12532.00
1129.835, 12684.00
1130.930, 12509.00
1132.024, 12407.00
1133.119, 12554.00
1134.214, 12568.00
1135.308, 12692.00
1136.402, 12484.00
1137.496, 12620.00
1138.590, 12587.00
1139.684, 12586.00
1140.777, 12616.00
1141.871, 12584.00
1142.964, 12537.00
1144.057, 12583.62
1145.150, 12553.00
1146.243, 12655.00
1147.335, 12644.00
1148.428, 12699.00
1149.520, 12541.00
1150.612, 12618.00
1151.704, 12625.00
1152.796, 12683.00
1153.887, 12747.00
1154.979, 12713.00
1156.070, 12623.00
1157.161, 12763.00
1158.252, 12782.00
1159.343, 12741.00
1160.433, 12810.00
1161.524, 12902.00
1162.614, 12902.77
1163.704, 12664.00
1164.794, 12938.00
1165.884, 12842.00
1166.974, 12764.00
1168.063, 12881.00
1169.153, 12733.00
1170.242, 12804.00
1171.331, 12913.00
1172.420, 12647.00
1173.508, 12846.00
1174.597, 12893.00
1175.685, 12841.00
1176.774, 13007.00
1177.862, 12976.00
1178.950, 12878.00
1180.037, 12818.00
1181.125, 12847.00
1182.212, 12792.95
1183.300, 13015.00
1184.387, 12827.00
1185.474, 12916.00
1186.560, 13047.00
1187.647, 12946.00
1188.733, 12812.21
1189.820, 12999.32
1190.906, 13115.26
1191.992, 13163.88
1193.078, 12943.52
1194.163, 13070.47
1195.249, 13058.24
1196.334, 13040.29
1197.419, 13216.11
1198.504, 13034.86
1199.589, 13207.61
1200.674, 13239.05
1201.758, 13335.14
1202.843, 13291.21
1203.927, 13372.00
1205.011, 13196.00
1206.095, 13270.00
1207.179, 13301.00
1208.262, 13235.00
1209.345, 13430.00
1210.429, 13404.00
1211.512, 13353.00
1212.595, 13301.00
1213.677, 13340.00
1214.760, 13382.00
1215.842, 13363.00
1216.925, 13452.00
1218.007, 13402.00
1219.089, 13500.00
1220.171, 13510.63
1221.252, 13603.00
1222.334, 13534.00
1223.415, 13523.00
1224.496, 13467.00
1225.577, 13487.00
1226.658, 13501.00
1227.738, 13639.00
1228.819, 13467.00
1229.899, 13404.00
1230.979, 13607.00
1232.060, 13565.00
1233.139, 13705.00
1234.219, 13587.00
1235.299, 13690.00
1236.378, 13710.00
1237.457, 13702.00
1238.536, 13740.00
1239.615, 13884.00
1240.694, 13732.00
1241.772, 13649.00
1242.851, 13818.00
1243.929, 13815.00
1245.007, 13704.00
1246.085, 13762.00
1247.163, 13705.00
1248.240, 13800.00
1249.318, 13758.00
1250.395, 13769.00
1251.472, 13824.00
1252.549, 13946.00
1253.626, 13713.00
1254.703, 13873.00
1255.779, 14087.00
1256.855, 13916.00
1257.931, 14104.00
1259.007, 13991.00
1260.083, 14092.00
1261.159, 14003.00
1262.234, 13976.00
1263.310, 14144.00
1264.385, 14024.00
1265.460, 14086.00
1266.535, 14171.00
1267.610, 14112.00
1268.684, 14258.00
1269.758, 14143.00
1270.833, 14178.00
1271.907, 14149.00
1272.981, 14259.00
1274.054, 14136.00
1275.128, 14322.00
1276.201, 14377.00
1277.275, 14197.00
1278.348, 14586.00
1279.421, 14445.00
1280.493, 14281.00
1281.566, 14381.00
1282.638, 14394.00
1283.711, 14413.00
1284.783, 14479.00
1285.855, 14421.00
1286.927, 14362.00
1287.998, 14640.00
1289.070, 14602.00
1290.141, 14590.00
1291.212, 14597.00
1292.283, 14558.00
1293.354, 14559.47
1294.425, 14585.00
1295.495, 14567.00
1296.566, 14636.00
1297.636, 14705.00
1298.706, 14738.00
1299.776, 14625.00
1300.845, 14669.00
1301.915, 14628.00
1302.984, 14716.00
1304.054, 14892.00
1305.123, 14673.00
1306.191, 14712.00
1307.260, 14633.00
1308.329, 14804.00
1309.397, 14772.00
1310.465, 14863.00
1311.534, 14902.00
1312.602, 14783.00
1313.669, 14762.00
1314.737, 15004.00
1315.804, 14779.00
1316.872, 14931.00
1317.939, 14869.00
1319.006, 14933.00
1320.073, 14825.00
1321.139, 15001.00
1322.206, 15059.00
1323.272, 14887.00
1324.338, 15046.00
1325.404, 15199.00
1326.470, 15110.00
1327.536, 15052.00
1328.601, 15171.00
1329.667, 15085.00
1330.732, 15026.00
1331.797, 15199.00
1332.862, 15028.00
1333.926, 15199.00
1334.991, 15143.00
1336.055, 15268.00
1337.120, 15186.00
1338.184, 15402.00
1339.248, 15292.00
1340.311, 15236.00
1341.375, 15307.00
1342.438, 15401.00
1343.502, 15371.00
1344.565, 15264.00
1345.628, 15366.00
1346.691, 15520.00
1347.753, 15355.00
1348.816, 15411.00
1349.878, 15405.00
1350.940, 15402.00
1352.002, 15486.00
1353.064, 15541.00
1354.126, 15571.33
1355.187, 15626.51
1356.248, 15600.00
1357.310, 15705.00
1358.371, 15607.00
1359.431, 15647.00
1360.492, 15682.00
1361.553, 15549.00
1362.613, 15701.00
1363.673, 15698.00
1364.733, 15697.00
1365.793, 15714.00
1366.853, 15774.59
1367.912, 15806.65
1368.972, 15945.00
1370.031, 15881.00
1371.090, 15995.00
1372.149, 15956.00
1373.208, 15985.00
1374.267, 15991.00
1375.325, 16098.00
1376.383, 16089.00
1377.441, 16027.00
1378.499, 15959.00
1379.557, 16090.00
1380.615, 16070.00
1381.672, 16049.00
1382.730, 16133.00
1383.787, 16151.00
1384.844, 16042.00
1385.901, 16137.00
1386.957, 16112.00
1388.014, 15998.00
1389.070, 16182.00
1390.126, 16137.00
1391.182, 16136.00
1392.238, 16199.00
1393.294, 16108.00
1394.349, 16041.00
1395.405, 16235.00
1396.460, 16220.00
1397.515, 16225.00
1398.570, 16148.00
1399.625, 16138.00
1400.679, 16203.00
1401.734, 16158.00
1402.788, 16227.00
1403.842, 16188.25
1404.896, 16355.73
1405.950, 16452.07
1407.003, 16481.07
1408.057, 16241.11
1409.110, 16348.46
1410.163, 16316.63
1411.216, 16279.09
1412.269, 16435.33
1413.322, 16234.48
1414.374, 16316.00
1415.427, 16263.00
1416.479, 16273.00
1417.531, 16278.94
1418.583, 16342.00
1419.634, 16335.00
1420.686, 16444.00
1421.737, 16537.00
1422.788, 16544.00
1423.839, 16460.00
1424.890, 16558.00
1425.941, 16494.00
1426.992, 16471.00
1428.042, 16707.00
1429.092, 16743.00
1430.142, 16565.00
1431.192, 16626.00
1432.242, 16811.00
1433.291, 16782.00
1434.341, 16796.00
1435.390, 16892.00
1436.439, 16860.00
1437.488, 16884.00
1438.537, 16883.00
1439.586, 16848.00
1440.634, 16787.00
1441.682, 16954.00
1442.731, 17069.00
1443.779, 16916.00
1444.826, 17101.00
1445.874, 17046.00
1446.922, 17169.00
1447.969, 17112.00
1449.016, 17272.00
1450.063, 17128.00
1451.110, 17220.00
1452.157, 17094.00
1453.203, 17182.00
1454.250, 17164.54
1455.296, 17341.34
1456.342, 17446.99
1457.388, 17485.32
1458.433, 17254.66
1459.479, 17371.34
1460.524, 17348.82
1461.570, 17320.60
1462.615, 17486.14
1463.660, 17294.61
1464.705, 17457.08
1465.749, 17478.23
1466.794, 17564.07
1467.838, 17509.84
1468.882, 17498.87
1469.926, 17628.00
1470.970, 17679.55
1472.013, 17609.19
1473.057, 17699.12
1474.100, 17502.67
1475.143, 17557.51
1476.186, 17505.00
1477.229, 17384.00
1478.272, 17337.00
1479.314, 17631.00
1480.357, 17651.00
1481.399, 17633.00
1482.441, 17834.00
1483.483, 17739.00
1484.525, 17606.00
1485.566, 17898.00
1486.608, 17765.65
1487.649, 17828.00
1488.690, 17840.00
1489.731, 17716.00
1490.771, 17848.00
1491.812, 17755.00
1492.853, 17727.00
1493.893, 17963.00
1494.933, 17984.00
1495.973, 17880.00
1497.013, 17917.00
1498.052, 17858.00
1499.092, 18079.00
1500.131, 18017.00
1501.170, 18233.00
1502.209, 18040.00
1503.248, 18168.00
1504.287, 18013.00
1505.325, 18215.00
1506.363, 18125.00
1507.402, 18279.00
1508.440, 18336.00
1509.478, 18270.00
1510.515, 18260.00
1511.553, 18157.00
1512.590, 18298.00
1513.627, 18429.00
1514.664, 18470.00
1515.701, 18395.00
1516.738, 18417.00
1517.775, 18290.00
1518.811, 18367.00
1519.847, 18357.00
1520.883, 18343.00
1521.919, 18411.00
1522.955, 18474.00
1523.991, 18614.00
1525.026, 18571.00
1526.061, 18616.22
1527.096, 18670.00
1528.131, 18615.00
1529.166, 18481.00
1530.201, 18505.00
1531.235, 18525.00
1532.270, 18590.00
1533.304, 18526.76
1534.338, 18457.00
1535.372, 18443.00
1536.405, 18478.00
1537.439, 18515.00
1538.472, 18432.00
1539.505, 18423.00
1540.538, 18566.00
1541.571, 18539.00
1542.604, 18483.00
1543.637, 18546.00
1544.669, 18520.00
1545.701, 18465.00
1546.733, 18539.00
1547.765, 18457.00
1548.797, 18545.00
1549.829, 18457.00
1550.860, 18597.00
1551.891, 18740.00
1552.922, 18744.00
1553.953, 18718.00
1554.984, 18657.00
1556.015, 18792.00
1557.045, 18628.00
1558.076, 18691.00
1559.106, 18526.00
1560.136, 18634.00
1561.165, 18524.00
1562.195, 18696.00
1563.225, 18591.00
1564.254, 18587.00
1565.283, 18711.00
##END=



