##NAMES=Cassiterite
##RRUFFID=R060563
##IDEAL CHEMISTRY=SnO_2_
##LOCALITY=unknown
##OWNER=RRUFF
##SOURCE=Gemological Institute of America
##DESCRIPTION=Dark brown fragment
##STATUS=The identification of this mineral has been confirmed by X-ray diffraction and chemical analysis
##URL=rruff.info/R060563
##MEASURED CHEMISTRY=Sn_1.00_O_2_
##PIN_ID=L01330
##ORIENTATION=Laser parallel to -a* (-1 0 0). Fiducial mark perpendicular to laser is parallel to c [0 0 1]
114.4400, 733.0000
115.6710, 764.0000
116.9030, 777.0000
118.1340, 817.0000
119.3650, 900.0000
120.5960, 933.0000
121.8270, 1016.000
123.0580, 991.1147
124.2880, 1077.000
125.5190, 932.0000
126.7490, 843.0000
127.9790, 812.0000
129.2090, 774.0000
130.4390, 770.0000
131.6680, 761.0000
132.8980, 756.9345
134.1270, 759.2078
135.3560, 772.0000
136.5850, 770.0000
137.8140, 786.0000
139.0430, 799.0000
140.2710, 811.0000
141.5000, 787.0000
142.7280, 755.0000
143.9560, 808.0000
145.1840, 762.0000
146.4120, 759.0000
147.6390, 772.0000
148.8670, 747.0000
150.0940, 762.0000
151.3210, 792.0000
152.5490, 787.0000
153.7750, 799.6538
155.0020, 805.0000
156.2290, 795.0000
157.4550, 786.0000
158.6810, 762.0000
159.9080, 798.0000
161.1340, 768.0000
162.3590, 801.0000
163.5850, 774.0000
164.8110, 768.0000
166.0360, 795.0000
167.2610, 784.0000
168.4860, 791.0000
169.7110, 791.0000
170.9360, 808.0000
172.1610, 796.0000
173.3850, 775.0000
174.6100, 803.0000
175.8340, 770.0000
177.0580, 783.0000
178.2820, 773.0000
179.5050, 776.0000
180.7290, 770.0000
181.9520, 793.0000
183.1760, 778.0000
184.3990, 799.0000
185.6220, 784.0000
186.8450, 785.0000
188.0670, 783.0000
189.2900, 805.0000
190.5120, 793.0000
191.7340, 797.0000
192.9560, 822.0000
194.1780, 818.0000
195.4000, 830.0000
196.6220, 828.0000
197.8430, 838.0000
199.0640, 849.2057
200.2860, 853.0000
201.5070, 861.0000
202.7270, 874.0000
203.9480, 851.0000
205.1690, 855.0000
206.3890, 856.0000
207.6090, 862.4250
208.8290, 882.7774
210.0490, 910.0000
211.2690, 936.0000
212.4890, 1000.000
213.7080, 1042.000
214.9280, 1087.000
216.1470, 1145.000
217.3660, 1242.000
218.5850, 1240.000
219.8030, 1353.000
221.0220, 1344.000
222.2400, 1337.000
223.4590, 1325.000
224.6770, 1307.000
225.8950, 1317.000
227.1120, 1269.000
228.3300, 1282.000
229.5480, 1323.000
230.7650, 1319.000
231.9820, 1282.000
233.1990, 1278.000
234.4160, 1281.000
235.6330, 1272.000
236.8490, 1284.000
238.0660, 1312.000
239.2820, 1324.000
240.4980, 1345.000
241.7140, 1325.000
242.9300, 1361.000
244.1460, 1378.000
245.3610, 1421.000
246.5770, 1460.000
247.7920, 1473.000
249.0070, 1484.000
250.2220, 1478.000
251.4370, 1472.000
252.6510, 1500.000
253.8660, 1506.000
255.0800, 1472.000
256.2940, 1526.000
257.5080, 1474.000
258.7220, 1532.000
259.9360, 1558.000
261.1490, 1465.000
262.3630, 1510.000
263.5760, 1435.000
264.7890, 1469.000
266.0020, 1493.000
267.2150, 1505.000
268.4270, 1520.000
269.6400, 1503.000
270.8520, 1509.000
272.0640, 1471.000
273.2760, 1366.000
274.4880, 1296.000
275.7000, 1272.000
276.9120, 1224.000
278.1230, 1236.000
279.3340, 1157.000
280.5450, 1205.000
281.7560, 1167.000
282.9670, 1194.000
284.1780, 1163.000
285.3880, 1133.000
286.5980, 1142.000
287.8090, 1118.000
289.0190, 1121.045
290.2290, 1153.000
291.4380, 1128.000
292.6480, 1129.000
293.8570, 1134.000
295.0670, 1180.000
296.2760, 1188.000
297.4850, 1162.000
298.6930, 1198.000
299.9020, 1173.000
301.1110, 1225.000
302.3190, 1226.000
303.5270, 1282.000
304.7350, 1273.000
305.9430, 1227.000
307.1510, 1266.000
308.3580, 1225.000
309.5660, 1209.000
310.7730, 1193.000
311.9800, 1230.000
313.1870, 1260.000
314.3940, 1242.000
315.6010, 1234.000
316.8070, 1262.000
318.0130, 1276.000
319.2200, 1319.000
320.4260, 1312.000
321.6310, 1351.000
322.8370, 1380.000
324.0430, 1378.000
325.2480, 1364.000
326.4540, 1407.000
327.6590, 1366.000
328.8640, 1371.000
330.0680, 1398.000
331.2730, 1408.000
332.4780, 1397.000
333.6820, 1373.000
334.8860, 1402.000
336.0900, 1413.000
337.2940, 1393.000
338.4980, 1415.000
339.7010, 1410.000
340.9050, 1405.000
342.1080, 1393.000
343.3110, 1401.000
344.5140, 1379.000
345.7170, 1410.000
346.9200, 1421.000
348.1220, 1361.000
349.3240, 1368.000
350.5270, 1318.000
351.7290, 1344.000
352.9310, 1301.000
354.1320, 1301.000
355.3340, 1340.000
356.5350, 1303.000
357.7370, 1307.000
358.9380, 1310.000
360.1390, 1284.000
361.3400, 1305.000
362.5400, 1311.000
363.7410, 1290.000
364.9410, 1298.536
366.1410, 1304.000
367.3410, 1286.000
368.5410, 1278.000
369.7410, 1271.000
370.9400, 1268.096
372.1400, 1279.000
373.3390, 1279.000
374.5380, 1285.000
375.7370, 1308.000
376.9360, 1307.000
378.1350, 1333.000
379.3330, 1315.000
380.5310, 1299.000
381.7300, 1367.000
382.9280, 1353.000
384.1260, 1375.000
385.3230, 1356.000
386.5210, 1360.000
387.7180, 1391.000
388.9160, 1379.000
390.1130, 1357.000
391.3100, 1429.000
392.5060, 1401.000
393.7030, 1376.000
394.9000, 1405.000
396.0960, 1417.000
397.2920, 1384.000
398.4880, 1392.000
399.6840, 1365.000
400.8800, 1420.000
402.0750, 1436.000
403.2710, 1409.000
404.4660, 1360.000
405.6610, 1373.000
406.8560, 1398.000
408.0510, 1385.000
409.2450, 1421.000
410.4400, 1428.000
411.6340, 1426.430
412.8280, 1443.000
414.0220, 1427.000
415.2160, 1431.000
416.4100, 1436.000
417.6030, 1396.000
418.7970, 1429.000
419.9900, 1364.000
421.1830, 1387.000
422.3760, 1390.000
423.5690, 1382.000
424.7610, 1425.000
425.9540, 1346.000
427.1460, 1425.000
428.3380, 1438.000
429.5300, 1504.000
430.7220, 1501.000
431.9140, 1483.000
433.1050, 1579.000
434.2970, 1567.000
435.4880, 1575.000
436.6790, 1540.000
437.8700, 1555.000
439.0610, 1552.000
440.2510, 1545.000
441.4420, 1501.000
442.6320, 1526.000
443.8220, 1551.000
445.0120, 1527.000
446.2020, 1552.000
447.3910, 1527.000
448.5810, 1582.000
449.7700, 1588.000
450.9600, 1603.000
452.1490, 1608.000
453.3370, 1615.030
454.5260, 1663.000
455.7150, 1656.000
456.9030, 1680.000
458.0910, 1767.000
459.2800, 1750.000
460.4670, 1861.000
461.6550, 1871.000
462.8430, 1999.000
464.0300, 2047.000
465.2180, 2061.000
466.4050, 2200.000
467.5920, 2287.000
468.7790, 2262.000
469.9650, 2393.000
471.1520, 2416.000
472.3380, 2496.000
473.5250, 2488.000
474.7110, 2454.000
475.8970, 2519.000
477.0820, 2451.000
478.2680, 2484.000
479.4540, 2479.000
480.6390, 2518.000
481.8240, 2541.000
483.0090, 2617.000
484.1940, 2688.000
485.3780, 2729.000
486.5630, 2802.000
487.7470, 2910.000
488.9320, 2987.000
490.1160, 3020.000
491.3000, 3129.000
492.4830, 3153.000
493.6670, 3201.000
494.8500, 3306.000
496.0340, 3397.000
497.2170, 3468.000
498.4000, 3518.000
499.5820, 3410.000
500.7650, 3335.000
501.9480, 3328.000
503.1300, 3180.000
504.3120, 3147.000
505.4940, 3119.000
506.6760, 3084.000
507.8580, 3017.220
509.0390, 2932.000
510.2210, 2864.000
511.4020, 2812.000
512.5830, 2720.000
513.7640, 2653.837
514.9450, 2607.000
516.1250, 2513.000
517.3060, 2405.000
518.4860, 2362.000
519.6660, 2275.000
520.8460, 2199.000
522.0260, 2143.000
523.2060, 2068.000
524.3850, 2091.000
525.5650, 2091.000
526.7440, 2133.000
527.9230, 2103.000
529.1020, 2170.000
530.2810, 2238.000
531.4590, 2342.000
532.6380, 2430.744
533.8160, 2504.000
534.9940, 2647.000
536.1720, 2759.000
537.3500, 2881.000
538.5270, 2957.000
539.7050, 2979.000
540.8820, 3061.000
542.0590, 3053.000
543.2360, 2884.000
544.4130, 2884.000
545.5900, 2893.000
546.7660, 2780.000
547.9430, 2776.000
549.1190, 2722.000
550.2950, 2723.000
551.4710, 2719.000
552.6470, 2601.000
553.8220, 2625.000
554.9980, 2652.000
556.1730, 2547.000
557.3480, 2413.000
558.5230, 2377.000
559.6980, 2354.000
560.8730, 2365.000
562.0470, 2291.000
563.2220, 2261.000
564.3960, 2307.000
565.5700, 2197.000
566.7440, 2248.000
567.9170, 2213.000
569.0910, 2201.000
570.2640, 2197.000
571.4380, 2131.000
572.6110, 2089.000
573.7840, 2123.000
574.9570, 2126.000
576.1290, 2105.000
577.3020, 2097.000
578.4740, 2099.000
579.6460, 2091.280
580.8180, 2100.000
581.9900, 2091.000
583.1620, 2106.000
584.3330, 2105.000
585.5040, 2196.000
586.6760, 2219.000
587.8470, 2288.000
589.0180, 2322.009
590.1880, 2377.420
591.3590, 2418.000
592.5290, 2494.000
593.7000, 2565.146
594.8700, 2649.178
596.0400, 2751.000
597.2090, 2838.000
598.3790, 2973.000
599.5490, 3068.000
600.7180, 3262.000
601.8870, 3426.000
603.0560, 3660.000
604.2250, 3837.000
605.3940, 3977.000
606.5620, 4274.000
607.7300, 4503.000
608.8990, 4800.000
610.0670, 5096.000
611.2350, 5510.000
612.4020, 6043.000
613.5700, 6482.000
614.7370, 7143.000
615.9050, 7788.000
617.0720, 8947.000
618.2390, 10060.00
619.4060, 11627.00
620.5720, 13425.00
621.7390, 15641.00
622.9050, 18790.00
624.0710, 22801.00
625.2370, 27560.00
626.4030, 33144.00
627.5690, 40117.00
628.7340, 47351.00
629.9000, 54899.00
631.0650, 60941.00
632.2300, 64590.00
633.3950, 64657.00
634.5600, 60924.00
635.7240, 53919.00
636.8890, 45488.00
638.0530, 37290.00
639.2170, 30484.00
640.3810, 24848.00
641.5450, 20451.00
642.7080, 16897.00
643.8720, 14440.00
645.0350, 12479.00
646.1980, 10795.00
647.3610, 9491.000
648.5240, 8749.000
649.6870, 7816.000
650.8490, 7170.000
652.0120, 6467.000
653.1740, 6023.000
654.3360, 5690.000
655.4980, 5260.000
656.6600, 4966.000
657.8210, 4729.000
658.9830, 4467.000
660.1440, 4404.000
661.3050, 4203.000
662.4660, 4015.000
663.6270, 3926.000
664.7870, 3774.000
665.9480, 3612.000
667.1080, 3607.000
668.2680, 3443.000
669.4280, 3438.000
670.5880, 3374.000
671.7480, 3422.000
672.9070, 3340.000
674.0670, 3302.000
675.2260, 3265.000
676.3850, 3258.000
677.5440, 3261.000
678.7030, 3222.000
679.8610, 3209.000
681.0200, 3218.000
682.1780, 3151.000
683.3360, 3273.000
684.4940, 3302.000
685.6520, 3306.000
686.8090, 3458.000
687.9670, 3502.000
689.1240, 3543.000
690.2810, 3540.000
691.4380, 3632.000
692.5950, 3662.000
693.7520, 3755.000
694.9080, 3775.000
696.0650, 3585.000
697.2210, 3454.000
698.3770, 3312.000
699.5330, 3133.000
700.6880, 2904.000
701.8440, 2642.000
702.9990, 2490.000
704.1550, 2371.000
705.3100, 2312.000
706.4650, 2227.000
707.6190, 2173.000
708.7740, 2223.000
709.9290, 2160.000
711.0830, 2173.000
712.2370, 2153.000
713.3910, 2168.000
714.5450, 2172.244
715.6980, 2138.000
716.8520, 2181.000
718.0050, 2185.000
719.1580, 2168.000
720.3110, 2188.000
721.4640, 2105.000
722.6170, 2096.000
723.7700, 2119.000
724.9220, 2053.000
726.0740, 2034.000
727.2260, 1991.000
728.3780, 1976.000
729.5300, 1982.000
730.6810, 1921.000
731.8330, 1973.000
732.9840, 1933.000
734.1350, 1879.000
735.2860, 1863.000
736.4370, 1844.000
737.5880, 1873.000
738.7380, 1840.000
739.8880, 1779.000
741.0390, 1810.000
742.1890, 1770.000
743.3380, 1766.000
744.4880, 1791.000
745.6380, 1750.000
746.7870, 1753.000
747.9360, 1676.000
749.0850, 1685.000
750.2340, 1737.000
751.3830, 1677.000
752.5310, 1705.000
753.6800, 1695.000
754.8280, 1706.000
755.9760, 1736.000
757.1240, 1730.000
758.2720, 1757.000
759.4190, 1754.000
760.5670, 1855.000
761.7140, 1884.000
762.8610, 2066.000
764.0080, 2259.000
765.1550, 2408.000
766.3020, 2699.000
767.4480, 3010.000
768.5950, 3381.000
769.7410, 3733.000
770.8870, 4078.000
772.0330, 4363.000
773.1780, 4568.000
774.3240, 4686.000
775.4690, 4622.000
776.6140, 4600.000
777.7590, 4331.000
778.9040, 4089.000
780.0490, 3705.000
781.1940, 3486.000
782.3380, 3153.000
783.4820, 2930.000
784.6260, 2701.000
785.7700, 2557.000
786.9140, 2383.000
788.0580, 2291.000
789.2010, 2167.000
790.3450, 2081.000
791.4880, 1996.000
792.6310, 1933.000
793.7730, 1843.000
794.9160, 1899.000
796.0590, 1810.000
797.2010, 1800.000
798.3430, 1730.000
799.4850, 1713.000
800.6270, 1716.000
801.7690, 1678.000
802.9100, 1676.846
804.0520, 1659.000
805.1930, 1638.000
806.3340, 1604.000
807.4750, 1543.000
808.6160, 1559.000
809.7560, 1496.000
810.8970, 1499.000
812.0370, 1468.000
813.1770, 1465.000
814.3170, 1430.000
815.4570, 1472.000
816.5960, 1422.000
817.7360, 1417.000
818.8750, 1407.000
820.0140, 1343.000
821.1530, 1330.000
822.2920, 1342.000
823.4310, 1313.000
824.5690, 1307.000
825.7070, 1283.000
826.8460, 1266.000
827.9840, 1251.404
829.1220, 1220.000
830.2590, 1220.000
831.3970, 1238.000
832.5340, 1230.000
833.6710, 1217.000
834.8080, 1220.000
835.9450, 1199.000
837.0820, 1261.000
838.2190, 1287.000
839.3550, 1282.000
840.4910, 1344.000
841.6270, 1369.000
842.7630, 1389.000
843.8990, 1372.000
845.0350, 1485.000
846.1700, 1499.000
847.3060, 1494.000
848.4410, 1564.000
849.5760, 1567.000
850.7100, 1545.000
851.8450, 1540.000
852.9800, 1569.000
854.1140, 1552.000
855.2480, 1519.000
856.3820, 1588.000
857.5160, 1576.000
858.6500, 1569.000
859.7830, 1602.000
860.9170, 1586.000
862.0500, 1593.000
863.1830, 1582.000
864.3160, 1567.000
865.4480, 1560.259
866.5810, 1548.000
867.7130, 1528.000
868.8460, 1486.000
869.9780, 1457.000
871.1100, 1430.000
872.2410, 1388.000
873.3730, 1400.000
874.5050, 1373.000
875.6360, 1320.000
876.7670, 1346.000
877.8980, 1336.000
879.0290, 1282.000
880.1590, 1209.000
881.2900, 1179.000
882.4200, 1182.000
883.5500, 1123.000
884.6800, 1150.000
885.8100, 1109.000
886.9400, 1092.000
888.0690, 1067.000
889.1990, 1046.799
890.3280, 1020.000
891.4570, 1021.000
892.5860, 1023.000
893.7140, 1023.000
894.8430, 994.0000
895.9710, 954.0000
897.1000, 976.0000
898.2280, 979.0000
899.3560, 937.0000
900.4830, 917.0000
901.6110, 924.0000
902.7380, 899.0000
903.8660, 875.0000
904.9930, 912.0000
906.1200, 890.0000
907.2460, 905.0000
908.3730, 883.0000
909.5000, 873.0000
910.6260, 873.2235
911.7520, 878.0000
912.8780, 859.0000
914.0040, 887.0000
915.1290, 873.0000
916.2550, 869.0000
917.3800, 878.0000
918.5050, 902.0000
919.6300, 871.0000
920.7550, 868.0000
921.8800, 896.0000
923.0040, 899.0000
924.1290, 899.9557
925.2530, 868.0000
926.3770, 902.0000
927.5010, 873.0000
928.6250, 882.0000
929.7480, 856.0000
930.8720, 878.0000
931.9950, 866.0000
933.1180, 901.0000
934.2410, 875.0000
935.3640, 857.0000
936.4860, 896.0000
937.6090, 858.0000
938.7310, 901.0000
939.8530, 860.0000
940.9750, 876.0000
942.0970, 905.0000
943.2180, 895.0000
944.3400, 899.0000
945.4610, 918.0000
946.5820, 946.0000
947.7030, 952.9395
948.8240, 939.0000
949.9450, 972.0000
951.0650, 980.0000
952.1860, 971.0000
953.3060, 990.0000
954.4260, 1010.000
955.5460, 1000.000
956.6650, 1016.000
957.7850, 1044.000
958.9040, 1057.000
960.0230, 1037.000
961.1420, 1040.000
962.2610, 1093.000
963.3800, 1120.000
964.4990, 1146.000
965.6170, 1161.000
966.7350, 1185.908
967.8530, 1226.000
968.9710, 1225.000
970.0890, 1245.000
971.2070, 1261.000
972.3240, 1254.605
973.4410, 1238.000
974.5580, 1236.000
975.6750, 1221.000
976.7920, 1189.000
977.9090, 1194.000
979.0250, 1176.000
980.1410, 1144.000
981.2580, 1131.116
982.3740, 1104.588
983.4890, 1083.000
984.6050, 1054.000
985.7200, 1034.000
986.8360, 1001.000
987.9510, 979.0000
989.0660, 982.0000
990.1810, 940.0000
991.2950, 953.0000
992.4100, 930.0000
993.5240, 954.0000
994.6390, 935.0000
995.7530, 925.0000
996.8660, 879.0000
997.9800, 906.0000
999.0940, 933.0000
1000.207, 956.0000
1001.320, 928.0000
1002.433, 953.0000
1003.546, 926.0000
1004.659, 942.0000
1005.772, 943.0000
1006.884, 959.0000
1007.996, 978.0000
1009.108, 951.0000
1010.220, 940.0000
1011.332, 978.0000
1012.444, 966.0000
1013.555, 949.0000
1014.666, 978.0000
1015.777, 941.0000
1016.888, 1014.000
1017.999, 956.0000
1019.110, 954.0000
1020.220, 990.0000
1021.331, 986.0000
1022.441, 972.0000
1023.551, 997.0000
1024.661, 983.0000
1025.770, 990.0000
1026.880, 984.0000
1027.989, 989.0000
1029.098, 992.5890
1030.207, 1023.000
1031.316, 1004.000
1032.425, 1024.000
1033.533, 1036.000
1034.642, 1025.000
1035.750, 1047.000
1036.858, 1049.000
1037.966, 1034.000
1039.073, 1046.000
1040.181, 1013.000
1041.288, 1038.000
1042.396, 1002.000
1043.503, 1020.000
1044.610, 988.0000
1045.716, 971.0000
1046.823, 920.0000
1047.929, 933.0000
1049.036, 907.0000
1050.142, 880.0000
1051.248, 869.0000
1052.353, 853.0000
1053.459, 803.0000
1054.564, 815.0000
1055.670, 781.0000
1056.775, 763.0000
1057.880, 788.0000
1058.985, 741.0000
1060.089, 756.0000
1061.194, 730.0000
1062.298, 723.0000
1063.402, 733.0000
1064.506, 731.0000
1065.610, 711.0000
1066.713, 731.0000
1067.817, 721.0000
1068.920, 700.0000
1070.023, 717.0000
1071.126, 709.0000
1072.229, 683.0000
1073.332, 718.0000
1074.435, 725.0000
1075.537, 705.0000
1076.639, 697.0000
1077.741, 708.0000
1078.843, 696.0000
1079.945, 704.0000
1081.046, 709.0000
1082.148, 731.0000
1083.249, 725.0000
1084.350, 724.0000
1085.451, 723.0000
1086.551, 723.0000
1087.652, 726.0952
1088.752, 720.0000
1089.853, 734.0000
1090.953, 752.0000
1092.053, 757.0000
1093.152, 744.0000
1094.252, 749.0000
1095.351, 747.0000
1096.451, 741.0000
1097.550, 749.0000
1098.649, 760.0000
1099.748, 787.0000
1100.846, 796.0000
1101.945, 771.0000
1103.043, 798.0000
1104.141, 771.0000
1105.239, 794.0000
1106.337, 761.0000
1107.434, 769.0000
1108.532, 778.0000
1109.629, 821.0000
1110.726, 819.0000
1111.823, 833.0000
1112.920, 803.0000
1114.017, 851.0000
1115.113, 854.0000
1116.210, 857.0000
1117.306, 903.0000
1118.402, 908.0000
1119.498, 890.0000
1120.593, 913.0000
1121.689, 894.0000
1122.784, 885.0000
1123.879, 940.0000
1124.974, 924.0000
1126.069, 889.0000
1127.164, 926.0000
1128.259, 880.0000
1129.353, 858.0000
1130.447, 873.0000
1131.541, 874.0000
1132.635, 864.0000
1133.729, 863.0000
1134.822, 863.0000
1135.916, 858.0000
1137.009, 833.0000
1138.102, 830.0000
1139.195, 828.0000
1140.288, 814.6833
1141.380, 820.0000
1142.473, 810.0000
1143.565, 800.0000
1144.657, 817.0000
1145.749, 796.0000
1146.841, 791.0000
1147.932, 758.0000
1149.024, 760.8854
1150.115, 757.0000
1151.206, 757.0000
1152.297, 772.0000
1153.388, 768.0000
1154.479, 767.0000
1155.569, 767.4356
1156.659, 748.0000
1157.750, 758.0000
1158.839, 728.0000
1159.929, 719.0000
1161.019, 731.0000
1162.108, 719.0000
1163.198, 727.0000
1164.287, 706.0000
1165.376, 692.0000
1166.465, 704.0000
1167.553, 708.0000
1168.642, 705.0000
1169.730, 680.0000
1170.818, 672.0000
1171.906, 667.0000
1172.994, 685.0000
1174.082, 657.0000
1175.170, 665.0000
1176.257, 704.0000
1177.344, 685.0000
1178.431, 667.0000
1179.518, 675.0000
1180.605, 696.0000
1181.691, 689.0000
1182.778, 692.5428
1183.864, 683.0000
1184.950, 690.0000
1186.036, 657.0000
1187.122, 668.0000
1188.207, 683.0000
1189.292, 661.0000
1190.378, 687.0000
1191.463, 658.0000
1192.548, 661.0000
1193.632, 629.0000
1194.717, 681.0000
1195.801, 660.0000
1196.886, 651.0000
1197.970, 656.0000
1199.054, 655.0000
1200.137, 644.0000
1201.221, 650.0000
1202.305, 643.0000
1203.388, 649.0000
1204.471, 663.0000
1205.554, 669.0000
1206.637, 654.0000
1207.719, 676.0000
1208.802, 636.0000
1209.884, 660.0000
1210.966, 694.0000
1212.048, 672.0000
1213.130, 680.0000
1214.212, 695.0000
1215.293, 680.0000
1216.374, 695.0000
1217.456, 719.0000
1218.536, 685.0000
1219.617, 705.0000
1220.698, 704.0000
1221.778, 734.0000
1222.859, 727.0000
1223.939, 730.0000
1225.019, 743.0000
1226.099, 715.0000
1227.178, 702.0000
1228.258, 740.0000
1229.337, 730.0000
1230.417, 784.0000
1231.496, 764.0000
1232.574, 747.0000
1233.653, 770.0000
1234.732, 750.0000
1235.810, 733.0000
1236.888, 773.0000
1237.966, 753.0000
1239.044, 743.0000
1240.122, 767.0000
1241.199, 743.0000
1242.277, 741.0000
1243.354, 745.0000
1244.431, 778.0000
1245.508, 795.0000
1246.585, 758.0000
1247.661, 722.0000
1248.738, 761.0000
1249.814, 767.0000
1250.890, 752.0000
1251.966, 797.0000
1253.042, 780.0000
1254.117, 784.0000
1255.193, 785.0000
1256.268, 797.0000
1257.343, 798.0000
1258.418, 760.0000
1259.493, 787.0000
1260.567, 785.0000
1261.642, 811.0000
1262.716, 787.0000
1263.790, 790.0000
1264.864, 766.0000
1265.938, 767.0000
1267.011, 772.0000
1268.085, 788.0000
1269.158, 786.0000
1270.231, 798.0000
1271.304, 803.0000
1272.377, 777.0000
1273.450, 784.0000
1274.522, 758.0000
1275.594, 774.0000
1276.666, 803.0000
1277.738, 785.0000
1278.810, 784.0000
1279.882, 760.0000
1280.953, 771.0000
1282.025, 814.0000
1283.096, 811.0000
1284.167, 787.0000
1285.238, 797.0000
1286.308, 789.0000
1287.379, 781.0000
1288.449, 788.0000
1289.519, 764.0000
1290.589, 781.0000
1291.659, 809.0000
1292.729, 817.0000
1293.798, 790.0000
1294.868, 800.0000
1295.937, 772.0000
1297.006, 793.0000
1298.075, 794.0000
1299.143, 794.0000
1300.212, 786.0000
1301.280, 786.0000
1302.348, 821.0000
1303.416, 778.0000
1304.484, 798.0000
1305.552, 779.0000
1306.620, 811.0000
1307.687, 789.0000
1308.754, 810.0000
1309.821, 802.0000
1310.888, 788.0000
1311.955, 791.0000
1313.021, 786.0000
1314.088, 772.0000
1315.154, 769.0000
1316.220, 744.0000
1317.286, 781.0000
1318.352, 759.0071
1319.417, 785.0000
1320.483, 750.0000
1321.548, 745.0000
1322.613, 747.0000
1323.678, 717.0000
1324.743, 737.0000
1325.807, 722.0000
1326.872, 752.0000
1327.936, 707.0000
1329.000, 747.0000
1330.064, 694.0000
1331.128, 728.0000
1332.191, 709.0000
1333.255, 719.0000
1334.318, 693.0000
1335.381, 697.0000
1336.444, 704.0000
1337.507, 700.0000
1338.569, 691.0000
1339.632, 700.4998
1340.694, 696.0000
1341.756, 696.4825
1342.818, 694.0000
1343.880, 698.0000
1344.941, 703.0000
1346.003, 706.0000
1347.064, 716.0000
1348.125, 690.0000
1349.186, 709.0000
1350.247, 696.0000
1351.308, 710.0000
1352.368, 698.0000
1353.428, 718.0000
1354.489, 716.0000
1355.549, 724.0000
1356.608, 703.0000
1357.668, 734.0000
1358.727, 722.0000
1359.787, 702.0000
1360.846, 730.0000
1361.905, 740.0000
1362.964, 746.0000
1364.022, 735.0000
1365.081, 758.0000
1366.139, 765.0000
1367.197, 802.0000
1368.255, 794.0000
1369.313, 788.0000
1370.371, 787.0000
1371.428, 779.0000
1372.486, 776.0000
1373.543, 793.0000
1374.600, 812.0000
1375.657, 827.0000
1376.713, 836.0000
1377.770, 843.0000
1378.826, 853.6627
1379.882, 861.0000
1380.938, 859.0000
1381.994, 864.0000
1383.050, 843.0000
1384.106, 845.0000
1385.161, 848.0000
1386.216, 836.0000
1387.271, 839.0000
1388.326, 837.0000
1389.381, 836.0000
1390.435, 842.0000
1391.490, 805.0000
1392.544, 811.0000
1393.598, 803.0000
1394.652, 799.0000
1395.705, 823.0000
1396.759, 796.0000
1397.812, 782.0000
1398.866, 809.0000
1399.919, 781.0000
1400.972, 775.0000
1402.024, 786.0000
1403.077, 788.0000
1404.129, 770.0000
1405.181, 778.0000
1406.233, 774.0000
1407.285, 782.0000
1408.337, 766.0000
1409.389, 764.0000
1410.440, 787.0000
1411.491, 807.0000
1412.542, 814.0000
1413.593, 776.0000
1414.644, 772.0000
1415.695, 823.0000
1416.745, 798.0000
1417.795, 820.0000
1418.845, 806.0000
1419.895, 856.0000
1420.945, 812.0000
1421.995, 830.0000
1423.044, 871.0000
1424.093, 852.0000
1425.142, 861.0000
1426.191, 833.0000
1427.240, 876.0000
1428.289, 857.0000
1429.337, 875.0000
1430.385, 879.0000
1431.433, 900.0000
1432.481, 884.0000
1433.529, 893.0000
1434.577, 934.0000
1435.624, 915.0000
1436.672, 903.0000
1437.719, 945.0000
1438.766, 959.0000
1439.812, 951.0000
1440.859, 924.0000
1441.905, 958.0000
1442.952, 924.0000
1443.998, 982.0000
1445.044, 984.0000
1446.090, 979.0000
1447.135, 1002.000
1448.181, 1001.000
1449.226, 1014.000
1450.271, 1016.828
1451.316, 1024.499
1452.361, 1023.000
1453.405, 1045.000
1454.450, 1061.000
1455.494, 1082.000
1456.538, 1091.000
1457.582, 1062.000
1458.626, 1106.000
1459.670, 1103.000
1460.713, 1082.000
1461.757, 1128.000
1462.800, 1116.000
1463.843, 1155.000
1464.886, 1140.000
1465.928, 1172.000
1466.971, 1165.000
1468.013, 1139.000
1469.055, 1165.000
1470.097, 1176.000
1471.139, 1153.000
1472.181, 1174.000
1473.222, 1159.000
1474.263, 1203.000
1475.305, 1189.000
1476.346, 1200.000
1477.386, 1188.000
1478.427, 1196.155
1479.468, 1208.000
1480.508, 1222.000
1481.548, 1222.000
1482.588, 1257.000
1483.628, 1232.000
1484.668, 1261.000
1485.707, 1284.000
1486.747, 1264.000
1487.786, 1272.000
1488.825, 1330.000
1489.864, 1325.000
1490.902, 1297.000
1491.941, 1347.000
1492.979, 1338.000
1494.017, 1372.000
1495.055, 1391.000
1496.093, 1360.000
1497.131, 1390.000
1498.168, 1367.000
1499.206, 1381.000
1500.243, 1448.000
1501.280, 1444.000
1502.317, 1464.000
1503.354, 1486.000
1504.390, 1467.000
1505.426, 1494.000
1506.463, 1534.000
1507.499, 1545.000
1508.535, 1547.000
1509.570, 1539.000
1510.606, 1560.000
1511.641, 1584.000
1512.676, 1608.000
1513.711, 1588.000
1514.746, 1599.000
1515.781, 1564.000
1516.816, 1532.000
1517.850, 1543.961
1518.884, 1532.000
1519.918, 1557.000
1520.952, 1529.000
1521.986, 1545.000
1523.019, 1493.000
1524.053, 1510.000
1525.086, 1485.000
1526.119, 1518.000
1527.152, 1484.000
1528.185, 1433.000
1529.217, 1439.000
1530.250, 1431.000
1531.282, 1463.000
1532.314, 1444.000
1533.346, 1436.000
1534.377, 1397.000
1535.409, 1368.000
1536.440, 1362.250
1537.472, 1327.000
1538.503, 1351.000
1539.534, 1341.000
1540.564, 1346.134
1541.595, 1335.185
1542.625, 1320.000
1543.656, 1305.000
1544.686, 1250.000
1545.716, 1239.000
1546.745, 1226.000
1547.775, 1210.000
1548.804, 1207.000
1549.834, 1190.492
1550.863, 1184.000
1551.892, 1166.000
1552.920, 1130.000
1553.949, 1118.000
1554.977, 1102.000
1556.006, 1081.000
1557.034, 1066.000
1558.062, 1061.000
1559.089, 1031.000
1560.117, 1015.000
1561.144, 1012.000
1562.172, 993.0000
1563.199, 954.0000
1564.226, 940.0000
1565.252, 897.0000
1566.279, 916.0000
1567.305, 901.0000
1568.332, 877.0000
1569.358, 857.0000
1570.384, 894.0000
##END=



