##NAMES=Cassiterite
##RRUFFID=R050502
##IDEAL CHEMISTRY=SnO_2_
##LOCALITY=Redruth, Cornwall, England
##OWNER=RRUFF
##SOURCE=California Institute of Technology
##DESCRIPTION=Black crystals associated with colorless quartz and grey stannite.
##STATUS=The identification of this mineral has been confirmed by X-ray diffraction and chemical analysis
##URL=rruff.info/R050502
##MEASURED CHEMISTRY=SnO_2_
##PIN_ID=M00088
##ORIENTATION=Laser parallel to -c* (0 0 -1). Fiducial mark perpendicular to laser is parallel to b [0 1 0]
201.1900, 8094.000
202.4130, 8018.000
203.6360, 8082.000
204.8590, 7911.000
206.0820, 8096.000
207.3050, 8107.000
208.5270, 8209.000
209.7490, 8361.614
210.9710, 8368.000
212.1930, 8645.000
213.4150, 8823.000
214.6370, 8948.000
215.8580, 9145.000
217.0790, 9207.000
218.3010, 9221.000
219.5210, 9456.000
220.7420, 9434.000
221.9630, 9704.000
223.1830, 9728.000
224.4040, 10010.00
225.6240, 10157.00
226.8440, 10239.00
228.0640, 10534.00
229.2840, 10529.00
230.5030, 10990.00
231.7230, 11530.00
232.9420, 12380.00
234.1610, 13148.00
235.3800, 13637.00
236.5990, 13192.00
237.8170, 12893.00
239.0360, 12647.00
240.2540, 12299.39
241.4720, 12191.00
242.6900, 11716.00
243.9080, 11375.00
245.1250, 11052.00
246.3430, 10259.00
247.5600, 9914.000
248.7770, 9497.000
249.9940, 9122.000
251.2110, 8948.000
252.4280, 8800.000
253.6450, 8649.000
254.8610, 8627.000
256.0770, 8654.000
257.2930, 8760.000
258.5090, 8668.753
259.7250, 8642.642
260.9400, 8537.000
262.1560, 8468.000
263.3710, 8379.000
264.5860, 8301.000
265.8010, 8128.000
267.0160, 8044.000
268.2310, 8166.000
269.4450, 7960.000
270.6600, 8035.000
271.8740, 7970.000
273.0880, 7985.000
274.3020, 8268.000
275.5150, 8382.000
276.7290, 8412.000
277.9420, 8506.000
279.1550, 8519.000
280.3680, 8532.000
281.5810, 8578.000
282.7940, 8568.783
284.0070, 8565.000
285.2190, 8529.000
286.4310, 8587.000
287.6430, 8486.000
288.8550, 8531.000
290.0670, 8400.000
291.2790, 8437.000
292.4900, 8281.000
293.7020, 8169.000
294.9130, 8237.000
296.1240, 8151.000
297.3350, 8135.000
298.5450, 8082.000
299.7560, 8105.000
300.9660, 7990.000
302.1760, 7997.000
303.3860, 7868.000
304.5960, 7869.000
305.8060, 7841.000
307.0150, 7755.000
308.2250, 7739.000
309.4340, 7568.000
310.6430, 7547.000
311.8520, 7488.000
313.0610, 7593.000
314.2700, 7528.000
315.4780, 7556.000
316.6860, 7441.000
317.8940, 7486.000
319.1020, 7406.000
320.3100, 7458.000
321.5180, 7431.000
322.7250, 7500.000
323.9330, 7414.000
325.1400, 7350.000
326.3470, 7378.000
327.5540, 7274.000
328.7600, 7298.000
329.9670, 7462.000
331.1730, 7408.000
332.3800, 7364.000
333.5860, 7550.000
334.7920, 7613.000
335.9970, 7630.000
337.2030, 7576.000
338.4080, 7560.000
339.6140, 7692.000
340.8190, 7770.000
342.0240, 7755.000
343.2290, 7881.000
344.4330, 7945.000
345.6380, 7906.000
346.8420, 8119.000
348.0460, 8142.000
349.2500, 8169.000
350.4540, 8050.000
351.6580, 8019.000
352.8610, 7836.000
354.0650, 7691.000
355.2680, 7637.000
356.4710, 7382.000
357.6740, 7247.000
358.8760, 7025.000
360.0790, 6920.000
361.2810, 6707.000
362.4840, 6543.000
363.6860, 6556.000
364.8880, 6265.000
366.0900, 6397.000
367.2910, 6298.000
368.4930, 6287.000
369.6940, 6214.000
370.8950, 6362.000
372.0960, 6396.000
373.2970, 6398.000
374.4980, 6271.000
375.6980, 6396.000
376.8980, 6445.000
378.0990, 6521.000
379.2990, 6582.000
380.4980, 6587.000
381.6980, 6662.000
382.8980, 6678.000
384.0970, 6737.000
385.2960, 6742.000
386.4950, 6806.000
387.6940, 6934.000
388.8930, 6900.000
390.0920, 7022.000
391.2900, 6984.000
392.4880, 7020.000
393.6860, 7046.000
394.8840, 7215.000
396.0820, 7243.000
397.2800, 7415.000
398.4770, 7635.000
399.6750, 7723.000
400.8720, 7892.000
402.0690, 8053.000
403.2660, 8151.000
404.4620, 8283.000
405.6590, 8545.000
406.8550, 8724.000
408.0510, 9070.000
409.2480, 9262.000
410.4430, 9614.000
411.6390, 9838.000
412.8350, 9954.000
414.0300, 10168.00
415.2250, 10509.00
416.4200, 10652.00
417.6150, 11088.00
418.8100, 11278.00
420.0050, 11603.00
421.1990, 11702.00
422.3940, 12017.00
423.5880, 12261.00
424.7820, 12376.00
425.9750, 12701.00
427.1690, 12550.00
428.3630, 12710.00
429.5560, 12762.00
430.7490, 12594.00
431.9420, 12801.00
433.1350, 12562.00
434.3280, 12444.00
435.5200, 12331.00
436.7130, 12416.00
437.9050, 12465.00
439.0970, 12688.00
440.2890, 12778.00
441.4810, 13262.00
442.6720, 13359.00
443.8640, 13913.00
445.0550, 14193.00
446.2460, 14755.00
447.4370, 15022.00
448.6280, 15449.00
449.8180, 15681.00
451.0090, 16061.00
452.1990, 16295.00
453.3890, 16276.00
454.5790, 16313.00
455.7690, 16121.00
456.9590, 16193.00
458.1480, 15827.00
459.3380, 16062.00
460.5270, 15948.00
461.7160, 15755.00
462.9050, 15702.00
464.0940, 15381.00
465.2820, 15116.00
466.4700, 14906.00
467.6590, 14627.00
468.8470, 14362.36
470.0350, 14025.00
471.2220, 13787.00
472.4100, 13436.00
473.5970, 13104.00
474.7850, 12886.00
475.9720, 12613.44
477.1590, 12342.00
478.3460, 12281.00
479.5320, 12098.00
480.7190, 12150.00
481.9050, 12003.00
483.0910, 12057.00
484.2770, 11962.00
485.4630, 12003.00
486.6490, 11944.54
487.8340, 11785.00
489.0200, 11807.00
490.2050, 11784.00
491.3900, 11651.00
492.5750, 11813.00
493.7600, 11709.00
494.9440, 11732.00
496.1290, 11538.00
497.3130, 11425.00
498.4970, 11274.00
499.6810, 11373.00
500.8650, 11201.54
502.0480, 11122.25
503.2320, 11038.00
504.4150, 10855.00
505.5980, 10819.00
506.7810, 10628.00
507.9640, 10588.00
509.1460, 10480.00
510.3290, 10245.00
511.5110, 10203.00
512.6930, 10174.00
513.8750, 9993.000
515.0570, 9874.000
516.2390, 9836.000
517.4210, 9678.000
518.6020, 9776.000
519.7830, 9613.000
520.9640, 9573.000
522.1450, 9588.000
523.3260, 9474.000
524.5060, 9508.000
525.6870, 9380.000
526.8670, 9507.000
528.0470, 9385.000
529.2270, 9430.000
530.4070, 9542.000
531.5870, 9616.000
532.7660, 9507.000
533.9450, 9587.000
535.1240, 9670.000
536.3030, 9552.000
537.4820, 9666.000
538.6610, 9617.000
539.8390, 9789.000
541.0180, 9655.000
542.1960, 9762.000
543.3740, 9727.000
544.5520, 9742.000
545.7290, 9620.000
546.9070, 9655.665
548.0840, 9670.504
549.2620, 9702.000
550.4390, 9728.000
551.6160, 9834.000
552.7920, 9799.000
553.9690, 9837.479
555.1450, 9882.000
556.3220, 9839.000
557.4980, 9902.000
558.6740, 9892.000
559.8490, 9896.000
561.0250, 9911.000
562.2000, 9801.000
563.3760, 9820.000
564.5510, 9941.000
565.7260, 9777.461
566.9010, 9698.000
568.0750, 9525.000
569.2500, 9577.000
570.4240, 9377.000
571.5980, 9322.000
572.7720, 9505.000
573.9460, 9466.000
575.1200, 9430.000
576.2930, 9466.000
577.4670, 9610.000
578.6400, 9659.000
579.8130, 9909.000
580.9860, 10021.00
582.1590, 10277.00
583.3310, 10379.00
584.5040, 10660.00
585.6760, 10920.20
586.8480, 11228.74
588.0200, 11543.00
589.1920, 11920.00
590.3630, 12308.00
591.5350, 12577.00
592.7060, 13042.00
593.8770, 13378.00
595.0480, 13760.00
596.2190, 14135.00
597.3900, 14482.00
598.5600, 15024.00
599.7310, 15595.00
600.9010, 16235.00
602.0710, 16586.00
603.2410, 17304.00
604.4100, 17944.00
605.5800, 18284.00
606.7490, 18936.00
607.9190, 19416.00
609.0880, 20129.00
610.2570, 20762.00
611.4250, 21314.00
612.5940, 22310.00
613.7620, 23619.00
614.9310, 24568.00
616.0990, 26402.00
617.2670, 28317.00
618.4340, 30833.00
619.6020, 33695.00
620.7690, 37532.00
621.9370, 42046.00
623.1040, 47331.00
624.2710, 52169.00
625.4380, 56564.00
626.6040, 60533.00
627.7710, 61945.00
628.9370, 62776.00
630.1030, 62418.00
631.2690, 60926.00
632.4350, 58943.00
633.6010, 55102.00
634.7660, 50326.00
635.9320, 45774.00
637.0970, 41127.00
638.2620, 36960.00
639.4270, 32514.00
640.5920, 29387.00
641.7560, 26702.00
642.9210, 24452.00
644.0850, 22792.00
645.2490, 21199.00
646.4130, 20120.00
647.5770, 18956.00
648.7400, 18204.00
649.9040, 17262.00
651.0670, 16512.00
652.2300, 15998.00
653.3930, 15421.00
654.5560, 14741.00
655.7190, 14283.00
656.8810, 13949.00
658.0440, 13237.00
659.2060, 12987.00
660.3680, 12678.00
661.5300, 12325.00
662.6910, 11963.00
663.8530, 11672.00
665.0140, 11420.71
666.1750, 11326.00
667.3360, 11026.00
668.4970, 10967.00
669.6580, 10854.00
670.8190, 10713.00
671.9790, 10665.44
673.1390, 10380.00
674.2990, 10483.00
675.4590, 10418.00
676.6190, 10226.00
677.7790, 10402.00
678.9380, 10346.00
680.0970, 10410.00
681.2570, 10343.00
682.4160, 10365.00
683.5740, 10726.00
684.7330, 10683.00
685.8920, 10742.00
687.0500, 10896.00
688.2080, 10843.00
689.3660, 10848.00
690.5240, 11031.00
691.6820, 10859.00
692.8390, 10755.00
693.9960, 10801.00
695.1540, 10732.00
696.3110, 10799.00
697.4680, 10577.00
698.6240, 10543.00
699.7810, 10303.00
700.9370, 10399.00
702.0940, 10234.00
703.2500, 10258.00
704.4060, 10199.00
705.5610, 10291.00
706.7170, 10506.00
707.8720, 10652.00
709.0280, 10771.00
710.1830, 10749.00
711.3380, 10849.00
712.4920, 10949.00
713.6470, 11241.00
714.8020, 11223.00
715.9560, 11416.00
717.1100, 11417.00
718.2640, 11546.00
719.4180, 11585.00
720.5720, 11701.00
721.7250, 11755.00
722.8780, 11807.00
724.0320, 11876.00
725.1850, 11901.64
726.3380, 11819.00
727.4900, 11906.00
728.6430, 11947.00
729.7950, 11840.00
730.9470, 11937.00
732.1000, 11898.00
733.2510, 11887.00
734.4030, 11980.00
735.5550, 11921.04
736.7060, 11796.00
737.8570, 11896.00
739.0090, 11856.00
740.1600, 11861.67
741.3100, 11855.00
742.4610, 11766.00
743.6110, 11872.00
744.7620, 11796.00
745.9120, 11922.00
747.0620, 11903.00
748.2120, 11768.00
749.3610, 11657.00
750.5110, 11620.00
751.6600, 11472.00
752.8090, 11424.00
753.9580, 11306.00
755.1070, 11222.00
756.2560, 11045.00
757.4050, 11054.00
758.5530, 10811.00
759.7010, 10959.00
760.8490, 10755.00
761.9970, 10683.00
763.1450, 10808.00
764.2920, 10987.00
765.4400, 11121.00
766.5870, 11384.00
767.7340, 11557.00
768.8810, 11812.00
770.0280, 12006.00
771.1740, 12087.00
772.3210, 12098.00
773.4670, 12043.00
774.6130, 11830.00
775.7590, 11565.00
776.9050, 11052.00
778.0510, 10739.00
779.1960, 10303.00
780.3420, 9696.000
781.4870, 9339.000
782.6320, 8923.000
783.7770, 8677.000
784.9210, 8318.000
786.0660, 7941.000
787.2100, 7690.000
788.3540, 7559.000
789.4980, 7293.000
790.6420, 7158.000
791.7860, 7035.000
792.9300, 6895.000
794.0730, 6639.000
795.2160, 6652.000
796.3590, 6427.000
797.5020, 6385.000
798.6450, 6291.000
799.7880, 6202.000
800.9300, 6054.000
802.0720, 5975.000
803.2150, 5934.000
804.3560, 5944.000
805.4980, 5813.000
806.6400, 5714.000
807.7810, 5645.000
808.9230, 5542.000
810.0640, 5528.000
811.2050, 5461.579
812.3460, 5435.000
813.4860, 5381.000
814.6270, 5302.000
815.7670, 5258.000
816.9070, 5173.000
818.0470, 5229.000
819.1870, 5053.000
820.3270, 5067.000
821.4670, 5086.000
822.6060, 4845.000
823.7450, 4897.000
824.8840, 4902.000
826.0230, 4912.000
827.1620, 4872.000
828.3010, 4839.000
829.4390, 4800.000
830.5770, 4780.900
831.7150, 4800.000
832.8530, 4743.000
833.9910, 4789.000
835.1290, 4768.000
836.2660, 4807.000
837.4030, 4742.000
838.5410, 4756.000
839.6780, 4823.000
840.8140, 4921.000
841.9510, 4902.000
843.0870, 4917.000
844.2240, 4943.000
845.3600, 4936.000
846.4960, 4967.000
847.6320, 4975.000
848.7680, 4954.000
849.9030, 4935.000
851.0380, 4959.000
852.1740, 4958.000
853.3090, 5027.000
854.4440, 5006.000
855.5780, 4958.000
856.7130, 5065.000
857.8470, 5048.000
858.9820, 5026.000
860.1160, 4962.000
861.2500, 5011.000
862.3830, 4990.000
863.5170, 4911.000
864.6500, 4938.000
865.7840, 5002.000
866.9170, 4911.000
868.0500, 4899.000
869.1830, 4875.000
870.3150, 4845.000
871.4480, 4820.701
872.5800, 4786.000
873.7120, 4759.000
874.8440, 4718.000
875.9760, 4685.000
877.1080, 4631.000
878.2390, 4672.000
879.3710, 4548.000
880.5020, 4535.000
881.6330, 4442.000
882.7640, 4434.000
883.8940, 4336.000
885.0250, 4329.000
886.1550, 4355.000
887.2850, 4271.000
888.4160, 4284.000
889.5450, 4215.000
890.6750, 4196.000
891.8050, 4133.000
892.9340, 4146.000
894.0630, 4104.000
895.1930, 4070.000
896.3220, 4036.000
897.4500, 4102.000
898.5790, 3994.000
899.7070, 4029.000
900.8360, 3964.000
901.9640, 3943.000
903.0920, 4019.000
904.2200, 3917.000
905.3470, 3919.000
906.4750, 3961.000
907.6020, 3974.000
908.7290, 3957.000
909.8560, 3941.604
910.9830, 3918.578
912.1100, 3895.267
913.2360, 3859.000
914.3630, 3840.000
915.4890, 3826.000
916.6150, 3816.105
917.7410, 3805.000
918.8670, 3820.000
919.9920, 3829.000
921.1180, 3845.000
922.2430, 3797.000
923.3680, 3831.000
924.4930, 3822.000
925.6180, 3823.000
926.7420, 3760.000
927.8670, 3777.124
928.9910, 3844.000
930.1150, 3781.000
931.2390, 3788.000
932.3630, 3804.000
933.4860, 3747.000
934.6100, 3815.000
935.7330, 3841.000
936.8560, 3938.000
937.9790, 3841.000
939.1020, 3839.000
940.2250, 3837.000
941.3470, 3871.000
942.4700, 3823.000
943.5920, 3836.000
944.7140, 3902.000
945.8360, 3907.000
946.9570, 3868.000
948.0790, 3869.000
949.2000, 3881.400
950.3220, 3870.613
951.4430, 3930.000
952.5640, 3892.000
953.6840, 3934.000
954.8050, 3971.000
955.9250, 3943.000
957.0460, 3987.000
958.1660, 3986.000
959.2860, 4033.000
960.4050, 4016.000
961.5250, 4093.000
962.6440, 4065.000
963.7640, 4033.000
964.8830, 4093.000
966.0020, 4120.000
967.1210, 4149.000
968.2390, 4135.000
969.3580, 4116.000
970.4760, 4164.000
971.5940, 4130.000
972.7120, 4163.000
973.8300, 4169.000
974.9480, 4184.000
976.0650, 4138.000
977.1830, 4093.000
978.3000, 4122.000
979.4170, 4070.000
980.5340, 4082.000
981.6500, 3931.000
982.7670, 3979.000
983.8830, 3963.000
985.0000, 4040.000
986.1160, 3912.000
987.2320, 3971.000
988.3470, 3905.000
989.4630, 3882.000
990.5780, 3836.000
991.6940, 3942.000
992.8090, 3844.000
993.9240, 3837.000
995.0380, 3910.000
996.1530, 3827.000
997.2680, 3864.000
998.3820, 3880.000
999.4960, 3797.000
1000.610, 3831.000
1001.724, 3854.000
1002.837, 3801.000
1003.951, 3828.000
1005.064, 3832.000
1006.177, 3846.000
1007.291, 3795.000
1008.403, 3754.000
1009.516, 3820.000
1010.629, 3855.000
1011.741, 3837.000
1012.853, 3854.000
1013.965, 3880.000
1015.077, 3882.000
1016.189, 3878.124
1017.300, 3817.000
1018.412, 3876.000
1019.523, 3870.000
1020.634, 3923.000
1021.745, 3897.000
1022.856, 3823.000
1023.966, 3812.000
1025.077, 3809.406
1026.187, 3925.000
1027.297, 3857.000
1028.407, 3897.000
1029.517, 3966.000
1030.627, 3925.000
1031.736, 3913.000
1032.845, 3950.000
1033.955, 3830.000
1035.064, 3884.000
1036.172, 3871.000
1037.281, 3911.000
1038.390, 3831.000
1039.498, 3784.000
1040.606, 3897.000
1041.714, 3878.000
1042.822, 3777.000
1043.930, 3807.000
1045.037, 3784.000
1046.145, 3760.000
1047.252, 3825.000
1048.359, 3705.000
1049.466, 3609.000
1050.573, 3636.000
1051.679, 3580.093
1052.786, 3619.000
1053.892, 3591.000
1054.998, 3590.000
1056.104, 3607.000
1057.210, 3582.241
1058.315, 3589.048
1059.421, 3562.000
1060.526, 3581.000
1061.631, 3582.000
1062.736, 3578.000
1063.841, 3558.000
1064.946, 3530.000
1066.050, 3502.000
1067.154, 3549.000
1068.258, 3546.000
1069.362, 3605.000
1070.466, 3493.000
1071.570, 3500.000
1072.674, 3506.000
1073.777, 3459.000
1074.880, 3556.000
1075.983, 3517.000
1077.086, 3566.000
1078.189, 3560.000
1079.291, 3506.000
1080.394, 3560.000
1081.496, 3589.000
1082.598, 3599.000
1083.700, 3461.000
1084.802, 3573.000
1085.903, 3588.000
1087.005, 3538.000
1088.106, 3619.000
1089.207, 3537.000
1090.308, 3550.000
1091.409, 3563.000
1092.509, 3551.000
1093.610, 3572.000
1094.710, 3604.000
1095.810, 3515.000
1096.910, 3522.000
1098.010, 3532.000
1099.110, 3543.000
1100.209, 3544.000
1101.309, 3557.000
1102.408, 3523.000
1103.507, 3554.000
1104.606, 3552.275
1105.704, 3629.000
1106.803, 3565.000
1107.901, 3557.000
1108.999, 3543.000
1110.097, 3641.000
1111.195, 3625.000
1112.293, 3588.000
1113.391, 3656.000
1114.488, 3594.000
1115.585, 3609.000
1116.682, 3679.000
1117.779, 3685.000
1118.876, 3763.000
1119.973, 3694.000
1121.069, 3680.000
1122.165, 3695.000
1123.261, 3717.000
1124.357, 3767.000
1125.453, 3697.000
1126.549, 3657.000
1127.644, 3662.000
1128.739, 3717.000
1129.835, 3689.000
1130.930, 3635.000
1132.024, 3596.000
1133.119, 3660.000
1134.214, 3710.000
1135.308, 3563.000
1136.402, 3662.000
1137.496, 3627.000
1138.590, 3586.000
1139.684, 3644.000
1140.777, 3545.000
1141.871, 3577.000
1142.964, 3588.000
1144.057, 3627.000
1145.150, 3544.000
1146.243, 3557.000
1147.335, 3550.000
1148.428, 3613.000
1149.520, 3580.000
1150.612, 3652.000
1151.704, 3548.000
1152.796, 3551.000
1153.887, 3506.000
1154.979, 3572.000
1156.070, 3511.000
1157.161, 3527.000
1158.252, 3602.000
1159.343, 3506.000
1160.433, 3589.000
1161.524, 3537.000
1162.614, 3542.000
1163.704, 3523.000
1164.794, 3562.000
1165.884, 3509.000
1166.974, 3585.000
1168.063, 3539.000
1169.153, 3546.000
1170.242, 3531.000
1171.331, 3531.000
1172.420, 3511.000
1173.508, 3500.000
1174.597, 3489.000
1175.685, 3562.000
1176.774, 3500.000
1177.862, 3563.000
1178.950, 3529.000
1180.037, 3527.000
1181.125, 3519.000
1182.212, 3559.000
1183.300, 3498.000
1184.387, 3544.000
1185.474, 3575.000
1186.560, 3523.000
1187.647, 3506.000
1188.733, 3494.000
1189.820, 3518.000
1190.906, 3480.000
1191.992, 3509.000
1193.078, 3524.000
1194.163, 3474.000
1195.249, 3606.000
1196.334, 3517.000
1197.419, 3589.000
1198.504, 3583.000
1199.589, 3505.000
1200.674, 3572.000
1201.758, 3541.000
1202.843, 3477.000
1203.927, 3545.000
1205.011, 3564.000
1206.095, 3497.000
1207.179, 3495.000
1208.262, 3558.000
1209.345, 3534.000
1210.429, 3544.000
1211.512, 3531.000
1212.595, 3576.000
1213.677, 3592.000
1214.760, 3613.000
1215.842, 3641.000
1216.925, 3593.000
1218.007, 3629.000
1219.089, 3593.000
1220.171, 3604.000
1221.252, 3660.000
1222.334, 3644.000
1223.415, 3619.000
1224.496, 3608.000
1225.577, 3574.000
1226.658, 3621.000
1227.738, 3639.000
1228.819, 3597.000
1229.899, 3633.000
1230.979, 3611.437
1232.060, 3679.000
1233.139, 3615.000
1234.219, 3632.000
1235.299, 3687.000
1236.378, 3718.000
1237.457, 3713.000
1238.536, 3695.000
1239.615, 3633.000
1240.694, 3649.000
1241.772, 3770.000
1242.851, 3677.000
1243.929, 3713.000
1245.007, 3621.000
1246.085, 3673.000
1247.163, 3663.000
1248.240, 3724.000
1249.318, 3662.000
1250.395, 3731.000
1251.472, 3636.000
1252.549, 3709.000
1253.626, 3774.000
1254.703, 3689.000
1255.779, 3736.000
1256.855, 3726.000
1257.931, 3665.000
1259.007, 3796.000
1260.083, 3744.000
1261.159, 3707.000
1262.234, 3717.000
1263.310, 3710.000
1264.385, 3709.533
1265.460, 3754.000
1266.535, 3712.000
1267.610, 3733.000
1268.684, 3708.159
1269.758, 3690.000
1270.833, 3690.000
1271.907, 3727.000
1272.981, 3707.000
1274.054, 3740.000
1275.128, 3775.000
1276.201, 3764.000
1277.275, 3793.334
1278.348, 3789.838
1279.421, 3811.000
1280.493, 3796.716
1281.566, 3788.622
1282.638, 3819.000
1283.711, 3761.000
1284.783, 3683.000
1285.855, 3751.000
1286.927, 3741.000
1287.998, 3691.000
1289.070, 3725.000
1290.141, 3739.000
1291.212, 3730.000
1292.283, 3739.000
1293.354, 3721.000
1294.425, 3782.000
1295.495, 3817.000
1296.566, 3801.000
1297.636, 3789.000
1298.706, 3783.000
1299.776, 3822.000
1300.845, 3767.000
1301.915, 3829.000
1302.984, 3807.000
1304.054, 3750.000
1305.123, 3769.000
1306.191, 3802.000
1307.260, 3827.000
1308.329, 3794.000
1309.397, 3747.000
1310.465, 3837.000
1311.534, 3800.000
1312.602, 3834.000
1313.669, 3881.000
1314.737, 3766.000
1315.804, 3797.000
1316.872, 3830.000
1317.939, 3792.000
1319.006, 3806.000
1320.073, 3777.000
1321.139, 3800.000
1322.206, 3760.000
1323.272, 3768.000
1324.338, 3749.000
1325.404, 3746.574
1326.470, 3746.830
1327.536, 3753.000
1328.601, 3752.000
1329.667, 3759.000
1330.732, 3774.000
1331.797, 3797.440
1332.862, 3831.000
1333.926, 3831.000
1334.991, 3883.000
1336.055, 3840.000
1337.120, 3873.000
1338.184, 3818.000
1339.248, 3859.000
1340.311, 3896.000
1341.375, 3825.000
1342.438, 3838.000
1343.502, 3836.000
1344.565, 3816.000
1345.628, 3863.000
1346.691, 3808.000
1347.753, 3865.000
1348.816, 3862.000
1349.878, 3903.000
1350.940, 3955.000
1352.002, 3933.000
1353.064, 3917.000
1354.126, 3955.960
1355.187, 3891.000
1356.248, 3981.000
1357.310, 3918.000
1358.371, 3873.000
1359.431, 3966.000
1360.492, 3897.000
1361.553, 3937.000
1362.613, 3976.000
1363.673, 4037.000
1364.733, 4005.000
1365.793, 4058.000
1366.853, 4048.000
1367.912, 4077.000
1368.972, 4081.948
1370.031, 4030.000
1371.090, 4068.000
1372.149, 4104.000
1373.208, 4069.000
1374.267, 4020.000
1375.325, 4068.000
1376.383, 4120.000
1377.441, 4121.000
1378.499, 4024.000
1379.557, 4107.000
1380.615, 4060.000
1381.672, 4006.000
1382.730, 4105.000
1383.787, 4047.000
1384.844, 4078.000
1385.901, 3995.000
1386.957, 4069.000
1388.014, 4054.000
1389.070, 4085.000
1390.126, 4052.000
1391.182, 4029.647
1392.238, 3927.000
1393.294, 3957.000
1394.349, 3949.000
1395.405, 3920.000
1396.460, 3948.000
1397.515, 3941.000
1398.570, 3947.000
1399.625, 3907.000
1400.679, 3916.187
1401.734, 3900.674
1402.788, 3910.000
1403.842, 3896.000
1404.896, 3892.000
1405.950, 3921.000
1407.003, 3915.000
1408.057, 3904.000
1409.110, 3909.000
1410.163, 3865.000
1411.216, 3915.000
1412.269, 3913.000
1413.322, 3907.000
1414.374, 3970.000
1415.427, 3890.000
1416.479, 3921.000
1417.531, 3955.000
1418.583, 3926.000
1419.634, 3928.000
1420.686, 3990.000
1421.737, 3924.000
1422.788, 3918.000
1423.839, 3851.000
1424.890, 3996.000
1425.941, 3907.000
1426.992, 3979.000
1428.042, 3968.000
1429.092, 3993.000
1430.142, 4023.000
1431.192, 3991.000
1432.242, 3944.000
1433.291, 3939.000
1434.341, 3991.000
1435.390, 3930.000
1436.439, 3954.000
1437.488, 4037.000
1438.537, 4061.000
1439.586, 4020.000
1440.634, 4070.000
1441.682, 4034.000
1442.731, 4065.000
1443.779, 4146.000
1444.826, 4108.000
1445.874, 4121.000
1446.922, 4090.000
1447.969, 4165.000
1449.016, 4208.000
1450.063, 4161.000
1451.110, 4191.000
1452.157, 4118.000
1453.203, 4097.000
1454.250, 4192.000
1455.296, 4155.000
1456.342, 4248.000
1457.388, 4211.000
1458.433, 4244.000
1459.479, 4234.000
1460.524, 4183.000
1461.570, 4237.000
1462.615, 4201.000
1463.660, 4266.000
1464.705, 4221.000
1465.749, 4317.000
1466.794, 4345.000
1467.838, 4259.000
1468.882, 4305.000
1469.926, 4320.000
1470.970, 4334.000
1472.013, 4267.000
1473.057, 4339.000
1474.100, 4292.000
1475.143, 4334.000
1476.186, 4327.000
1477.229, 4355.000
1478.272, 4277.000
1479.314, 4372.000
1480.357, 4364.000
1481.399, 4314.000
1482.441, 4402.000
1483.483, 4419.000
1484.525, 4386.000
1485.566, 4406.000
1486.608, 4415.000
1487.649, 4459.000
1488.690, 4428.000
1489.731, 4454.000
1490.771, 4375.000
1491.812, 4443.000
1492.853, 4417.000
1493.893, 4442.000
1494.933, 4462.000
1495.973, 4486.000
1497.013, 4493.655
1498.052, 4508.522
1499.092, 4502.000
1500.131, 4511.000
1501.170, 4508.000
1502.209, 4475.000
1503.248, 4570.000
1504.287, 4591.000
1505.325, 4481.000
1506.363, 4572.000
1507.402, 4536.000
1508.440, 4637.000
1509.478, 4582.000
1510.515, 4558.000
1511.553, 4588.000
1512.590, 4573.000
1513.627, 4602.000
1514.664, 4594.000
1515.701, 4558.000
1516.738, 4566.000
1517.775, 4569.000
1518.811, 4612.000
1519.847, 4583.000
1520.883, 4549.000
1521.919, 4511.000
1522.955, 4538.000
1523.991, 4484.000
1525.026, 4474.000
1526.061, 4429.000
1527.096, 4484.000
1528.131, 4487.000
1529.166, 4407.000
1530.201, 4503.000
1531.235, 4522.000
1532.270, 4333.000
1533.304, 4418.000
1534.338, 4370.000
1535.372, 4340.000
1536.405, 4374.000
1537.439, 4268.000
1538.472, 4277.000
1539.505, 4244.000
1540.538, 4248.000
1541.571, 4307.000
1542.604, 4263.000
1543.637, 4219.000
1544.669, 4273.000
1545.701, 4307.000
1546.733, 4145.000
1547.765, 4274.000
1548.797, 4141.000
1549.829, 4194.000
1550.860, 4188.000
1551.891, 4212.000
1552.922, 4258.000
1553.953, 4279.000
1554.984, 4248.000
1556.015, 4134.000
1557.045, 3996.000
1558.076, 3979.000
1559.106, 3907.000
1560.136, 3955.000
1561.165, 3873.000
1562.195, 3908.000
1563.225, 3869.000
1564.254, 3826.000
1565.283, 3919.000
##END=



