##NAMES=Cassiterite
##RRUFFID=R040017
##IDEAL CHEMISTRY=SnO_2_
##LOCALITY=Bolivia
##OWNER=RRUFF
##SOURCE=University of Arizona Mineral Museum
##DESCRIPTION=Dark brown short prismatic single crystals
##STATUS=The identification of this mineral has been confirmed by X-ray diffraction and chemical analysis
##URL=rruff.info/R040017
##MEASURED CHEMISTRY=Sn_1.00_O_2_; trace amounts of Fe
##PIN_ID=L00125
##ORIENTATION=Laser parallel to -a* (-1 0 0). Fiducial mark perpendicular to laser is parallel to c [0 0 1]
91.420, 5142.000
92.822, 5286.000
94.224, 5394.000
95.626, 5620.000
97.027, 5686.000
98.428, 5886.000
99.829, 6228.000
101.230, 6183.000
102.630, 6385.000
104.030, 6430.000
105.430, 6663.000
106.830, 7044.000
108.229, 7017.000
109.628, 7242.000
111.027, 7927.000
112.426, 7791.251
113.824, 8068.937
115.222, 7944.000
116.620, 8187.000
118.018, 8293.000
119.416, 8283.000
120.813, 8312.778
122.210, 8123.000
123.607, 8097.000
125.003, 7824.000
126.399, 7530.000
127.795, 7308.000
129.191, 7431.000
130.587, 7243.000
131.982, 7374.000
133.377, 7255.000
134.772, 7238.000
136.167, 7266.000
137.561, 7204.000
138.955, 7262.943
140.349, 7213.000
141.743, 7344.000
143.136, 7231.000
144.529, 7241.000
145.922, 7240.000
147.315, 7085.000
148.707, 7319.000
150.099, 7078.000
151.491, 7298.000
152.883, 7228.000
154.274, 7472.000
155.666, 7906.000
157.057, 7351.000
158.448, 7388.000
159.838, 7160.000
161.228, 7444.000
162.618, 7342.000
164.008, 7370.000
165.398, 7524.000
166.787, 7241.000
168.176, 7583.000
169.565, 7426.000
170.954, 7531.000
172.342, 7379.000
173.730, 7468.000
175.118, 7574.000
176.506, 7333.000
177.893, 7681.000
179.280, 7397.000
180.667, 7715.000
182.054, 7620.000
183.441, 7550.000
184.827, 7822.000
186.213, 7715.000
187.599, 7942.000
188.984, 7755.000
190.369, 7991.000
191.755, 7989.000
193.139, 7950.000
194.524, 8269.000
195.908, 8017.000
197.292, 8376.000
198.676, 8235.000
200.060, 8512.000
201.443, 8527.000
202.826, 8354.000
204.209, 8766.000
205.592, 8441.000
206.975, 8960.000
208.357, 8729.000
209.739, 8880.000
211.121, 8928.000
212.502, 8693.000
213.883, 9179.000
215.264, 8998.000
216.645, 9534.000
218.026, 9276.000
219.406, 9431.000
220.786, 9620.000
222.166, 9247.000
223.546, 9715.000
224.925, 9088.000
226.304, 9551.000
227.683, 9286.000
229.062, 9266.000
230.440, 9609.000
231.818, 9066.000
233.196, 9453.000
234.574, 9382.000
235.952, 9307.000
237.329, 9116.000
238.706, 8855.000
240.083, 9246.000
241.459, 8612.000
242.836, 8875.000
244.212, 8441.000
245.587, 8312.000
246.963, 8100.000
248.338, 7745.000
249.714, 7838.000
251.089, 7298.000
252.463, 7374.000
253.838, 6959.000
255.212, 6771.000
256.586, 6668.000
257.960, 6261.000
259.333, 6282.000
260.706, 5797.000
262.079, 5912.000
263.452, 5609.462
264.825, 5620.000
266.197, 5206.000
267.569, 4914.000
268.941, 4811.000
270.313, 4572.000
271.684, 4559.000
273.055, 4478.000
274.426, 4423.000
275.797, 4724.000
277.167, 5071.000
278.538, 5890.000
279.908, 6510.000
281.277, 7027.000
282.647, 7391.000
284.016, 7110.000
285.385, 7374.000
286.754, 6765.000
288.123, 6635.000
289.491, 6284.000
290.859, 5943.000
292.227, 5905.000
293.595, 5446.000
294.962, 5506.000
296.329, 5246.000
297.696, 5149.000
299.063, 5122.000
300.430, 4914.000
301.796, 5026.000
303.162, 4777.000
304.528, 4853.000
305.893, 4754.000
307.259, 4593.000
308.624, 4670.000
309.989, 4475.000
311.353, 4608.000
312.718, 4371.000
314.082, 4448.000
315.446, 4445.000
316.810, 4380.000
318.173, 4430.000
319.536, 4274.000
320.899, 4385.000
322.262, 4355.000
323.625, 4329.000
324.987, 4426.000
326.349, 4217.000
327.711, 4324.000
329.073, 4192.000
330.434, 4279.000
331.795, 4247.000
333.156, 4194.000
334.517, 4303.000
335.877, 4158.000
337.238, 4232.000
338.598, 4209.000
339.957, 4234.000
341.317, 4298.000
342.676, 4154.000
344.035, 4283.000
345.394, 4106.000
346.753, 4199.000
348.111, 4149.000
349.469, 4084.000
350.827, 4174.000
352.185, 4050.000
353.543, 4108.000
354.900, 3985.000
356.257, 4056.000
357.614, 4016.000
358.970, 3922.000
360.327, 4106.000
361.683, 3982.000
363.039, 3981.000
364.394, 3922.000
365.750, 3887.000
367.105, 3990.000
368.460, 3848.000
369.814, 3950.000
371.169, 3877.000
372.523, 3914.000
373.877, 3945.000
375.231, 3812.000
376.585, 3984.000
377.938, 3927.000
379.291, 3998.000
380.644, 4003.000
381.997, 3956.000
383.349, 4074.000
384.701, 3937.000
386.053, 4126.000
387.405, 4054.000
388.756, 4087.000
390.108, 4147.000
391.459, 4041.000
392.810, 4224.000
394.160, 4053.000
395.511, 4169.000
396.861, 4198.000
398.211, 4143.000
399.560, 4186.000
400.910, 4190.000
402.259, 4257.000
403.608, 4225.000
404.957, 4224.000
406.305, 4300.000
407.654, 4199.000
409.002, 4411.000
410.349, 4292.000
411.697, 4336.000
413.045, 4434.000
414.392, 4350.000
415.739, 4498.000
417.085, 4388.000
418.432, 4533.000
419.778, 4458.000
421.124, 4380.000
422.470, 4516.000
423.816, 4364.000
425.161, 4533.000
426.506, 4589.000
427.851, 4569.385
429.196, 4597.000
430.540, 4550.000
431.884, 4739.000
433.228, 4609.000
434.572, 4800.000
435.916, 4800.000
437.259, 4738.000
438.602, 4927.000
439.945, 4830.000
441.287, 5009.000
442.630, 4820.000
443.972, 4878.000
445.314, 5022.000
446.656, 4864.000
447.997, 5094.000
449.338, 5021.000
450.679, 5071.000
452.020, 5179.000
453.361, 5093.000
454.701, 5364.000
456.041, 5159.000
457.381, 5326.000
458.721, 5380.000
460.060, 5337.000
461.400, 5560.000
462.739, 5383.000
464.077, 5719.000
465.416, 5660.000
466.754, 5709.000
468.092, 6011.000
469.430, 5836.000
470.768, 6096.000
472.105, 6134.000
473.443, 6499.000
474.780, 6669.000
476.116, 6667.000
477.453, 6920.000
478.789, 6513.000
480.125, 6605.000
481.461, 6670.000
482.797, 6536.000
484.132, 6780.000
485.467, 6537.000
486.802, 6908.000
488.137, 6967.000
489.471, 6900.000
490.806, 7245.000
492.140, 6982.000
493.474, 7319.000
494.807, 7182.000
496.141, 7358.000
497.474, 7592.000
498.807, 7447.000
500.139, 7799.000
501.472, 7545.000
502.804, 7648.000
504.136, 7601.000
505.468, 7170.000
506.800, 7521.000
508.131, 7158.000
509.462, 7282.000
510.793, 7148.000
512.124, 7032.000
513.454, 7189.000
514.784, 6800.000
516.114, 7018.000
517.444, 6791.000
518.774, 6603.000
520.103, 6799.000
521.432, 6447.000
522.761, 6559.000
524.090, 6329.000
525.418, 6337.000
526.747, 6495.000
528.075, 6274.535
529.402, 6423.000
530.730, 6152.000
532.057, 6252.000
533.384, 6437.000
534.711, 6258.000
536.038, 6705.000
537.364, 6529.000
538.691, 6812.000
540.017, 6959.000
541.343, 6816.000
542.668, 7227.000
543.993, 6856.000
545.319, 7100.000
546.643, 6892.000
547.968, 6628.000
549.293, 6840.000
550.617, 6511.000
551.941, 6711.000
553.265, 6638.000
554.588, 6590.000
555.911, 6651.000
557.235, 6358.000
558.557, 6586.000
559.880, 6406.000
561.203, 6350.000
562.525, 6419.000
563.847, 6125.000
565.169, 6319.000
566.490, 6167.000
567.812, 6134.000
569.133, 6244.000
570.454, 5950.000
571.774, 6145.000
573.095, 5888.000
574.415, 6006.000
575.735, 6095.000
577.055, 5833.000
578.374, 6099.000
579.694, 5817.000
581.013, 6013.000
582.332, 5911.000
583.650, 5800.000
584.969, 6154.000
586.287, 5853.000
587.605, 6032.000
588.923, 6028.000
590.241, 5960.000
591.558, 6144.000
592.875, 5939.000
594.192, 6236.000
595.509, 6212.000
596.825, 6175.000
598.142, 6504.000
599.458, 6312.000
600.773, 6648.000
602.089, 6585.000
603.404, 6677.000
604.720, 7011.000
606.034, 6857.000
607.349, 7391.000
608.664, 7420.000
609.978, 7521.000
611.292, 7988.000
612.606, 7979.000
613.920, 8691.000
615.233, 8722.000
616.546, 9362.000
617.859, 10120.000
619.172, 10530.000
620.484, 12030.000
621.797, 12550.000
623.109, 14120.000
624.421, 16380.000
625.732, 17900.000
627.044, 22620.000
628.355, 25630.000
629.666, 32870.000
630.977, 41390.000
632.287, 48090.000
633.598, 61880.000
634.908, 62140.000
636.218, 63220.000
637.527, 57930.000
638.837, 45160.000
640.146, 39060.000
641.455, 29940.000
642.764, 24760.000
644.073, 21240.000
645.381, 17200.000
646.689, 15930.000
647.997, 13370.000
649.305, 12490.000
650.612, 11700.000
651.920, 10340.000
653.227, 10180.000
654.533, 9115.000
655.840, 8931.000
657.146, 8515.000
658.453, 7966.000
659.759, 8030.000
661.064, 7522.000
662.370, 7536.000
663.675, 7394.000
664.980, 6981.000
666.285, 7122.000
667.590, 6701.000
668.894, 6877.000
670.199, 6817.000
671.503, 6539.000
672.806, 6746.000
674.110, 6465.000
675.413, 6556.000
676.717, 6490.000
678.020, 6378.000
679.322, 6602.000
680.625, 6241.000
681.927, 6422.000
683.229, 6374.000
684.531, 6233.000
685.833, 6606.000
687.134, 6261.000
688.435, 6560.000
689.736, 6567.000
691.037, 6418.000
692.337, 6836.000
693.638, 6551.000
694.938, 6852.000
696.238, 6891.000
697.538, 6818.000
698.837, 6941.000
700.136, 6487.000
701.435, 6430.000
702.734, 6182.000
704.033, 5764.000
705.331, 5757.000
706.629, 5411.000
707.927, 5438.000
709.225, 5436.000
710.523, 5286.000
711.820, 5462.000
713.117, 5186.000
714.414, 5314.000
715.710, 5390.000
717.007, 5315.000
718.303, 5550.000
719.599, 5312.000
720.895, 5350.000
722.191, 5409.000
723.486, 5207.000
724.781, 5432.000
726.076, 5163.000
727.371, 5140.000
728.665, 5182.000
729.960, 5008.000
731.254, 5206.000
732.548, 5006.000
733.841, 5039.000
735.135, 5108.000
736.428, 4851.000
737.721, 5073.000
739.014, 4888.000
740.306, 4889.000
741.599, 4948.000
742.891, 4791.000
744.183, 4978.000
745.474, 4816.000
746.766, 4790.000
748.057, 4876.000
749.348, 4881.000
750.639, 4831.213
751.930, 4796.172
753.220, 4641.000
754.511, 4713.000
755.801, 4477.000
757.090, 4619.000
758.380, 4544.000
759.669, 4488.000
760.958, 4529.000
762.247, 4380.000
763.536, 4399.000
764.825, 4303.000
766.113, 4244.000
767.401, 4315.000
768.689, 4235.000
769.977, 4374.000
771.264, 4345.000
772.551, 4288.000
773.838, 4426.000
775.125, 4372.000
776.412, 4430.000
777.698, 4348.000
778.984, 4336.000
780.270, 4367.000
781.556, 4268.000
782.842, 4352.000
784.127, 4238.000
785.412, 4175.000
786.697, 4318.000
787.982, 4164.000
789.266, 4315.000
790.550, 4250.000
791.834, 4239.000
793.118, 4317.000
794.402, 4272.000
795.685, 4269.000
796.968, 4294.000
798.251, 4240.000
799.534, 4342.000
800.817, 4278.000
802.099, 4295.000
803.381, 4286.000
804.663, 4241.000
805.945, 4337.000
807.226, 4282.000
808.508, 4345.000
809.789, 4404.000
811.070, 4273.000
812.350, 4466.000
813.631, 4403.000
814.911, 4354.000
816.191, 4485.000
817.471, 4392.000
818.750, 4469.000
820.030, 4511.000
821.309, 4377.000
822.588, 4498.000
823.867, 4439.000
825.145, 4487.000
826.423, 4452.000
827.702, 4424.000
828.980, 4539.000
830.257, 4446.000
831.535, 4500.000
832.812, 4531.000
834.089, 4484.000
835.366, 4570.000
836.643, 4512.000
837.919, 4541.000
839.195, 4695.000
840.471, 4467.000
841.747, 4628.000
843.023, 4650.000
844.298, 4646.000
845.573, 4820.000
846.848, 4742.000
848.123, 4920.000
849.397, 4935.000
850.672, 4884.000
851.946, 5033.000
853.220, 4856.000
854.493, 5026.000
855.767, 5036.000
857.040, 4893.000
858.313, 5088.000
859.586, 4902.000
860.859, 5038.000
862.131, 5143.000
863.404, 4995.000
864.676, 5173.000
865.947, 5049.000
867.219, 5085.000
868.490, 5057.000
869.762, 4867.000
871.033, 5039.000
872.303, 4840.000
873.574, 4945.000
874.844, 4942.000
876.114, 4818.000
877.384, 4913.000
878.654, 4873.000
879.924, 4842.000
881.193, 4896.000
882.462, 4692.000
883.731, 4796.000
884.999, 4697.000
886.268, 4679.000
887.536, 4801.000
888.804, 4665.000
890.072, 4739.000
891.340, 4704.000
892.607, 4649.000
893.874, 4721.000
895.141, 4663.000
896.408, 4672.000
897.675, 4666.000
898.941, 4626.000
900.207, 4717.000
901.473, 4628.000
902.739, 4680.000
904.005, 4710.000
905.270, 4570.000
906.535, 4708.000
907.800, 4690.000
909.065, 4638.000
910.329, 4761.000
911.594, 4665.000
912.858, 4766.000
914.122, 4703.000
915.385, 4616.000
916.649, 4783.000
917.912, 4633.000
919.175, 4693.000
920.438, 4768.000
921.701, 4566.000
922.963, 4820.000
924.225, 4759.000
925.487, 4751.000
926.749, 4884.000
928.011, 4763.000
929.272, 4787.000
930.533, 4758.000
931.794, 4733.000
933.055, 4851.000
934.316, 4687.000
935.576, 4857.000
936.836, 4832.000
938.096, 4661.000
939.356, 4857.000
940.616, 4745.000
941.875, 4807.000
943.134, 4911.000
944.393, 4724.000
945.652, 4936.000
946.910, 4874.000
948.168, 4870.000
949.427, 4967.000
950.684, 4818.000
951.942, 4970.000
953.200, 5024.000
954.457, 4897.000
955.714, 5076.000
956.971, 4942.000
958.228, 5042.000
959.484, 5112.000
960.740, 4995.000
961.996, 5152.000
963.252, 5039.000
964.508, 5122.000
965.763, 5234.000
967.018, 5084.000
968.273, 5202.000
969.528, 5238.000
970.783, 5107.000
972.037, 5317.000
973.291, 5191.000
974.545, 5298.000
975.799, 5324.000
977.053, 5137.000
978.306, 5369.000
979.559, 5158.000
980.812, 5187.000
982.065, 5286.000
983.318, 5039.000
984.570, 5154.000
985.822, 5005.000
987.074, 5018.000
988.326, 5175.000
989.577, 4969.000
990.829, 5028.000
992.080, 5081.000
993.331, 4897.000
994.581, 5077.000
995.832, 4984.000
997.082, 4943.000
998.332, 5076.000
999.582, 4945.000
1000.832, 5107.000
1002.081, 5097.000
1003.331, 5034.000
1004.580, 5150.000
1005.829, 4992.000
1007.077, 5067.000
1008.326, 5076.424
1009.574, 5076.000
1010.822, 5126.000
1012.070, 5048.000
1013.318, 5061.000
1014.565, 5198.000
1015.812, 4950.000
1017.059, 5124.000
1018.306, 5050.000
1019.553, 5006.000
1020.799, 5187.000
1022.045, 5091.000
1023.291, 5099.000
1024.537, 5099.000
1025.783, 5030.000
1027.028, 5132.000
1028.273, 5059.000
1029.518, 5056.000
1030.763, 5189.000
1032.008, 4999.000
1033.252, 5175.000
1034.496, 5134.000
1035.740, 5068.000
1036.984, 5194.000
1038.228, 5082.000
1039.471, 5153.000
1040.714, 5192.000
1041.957, 5054.000
1043.200, 5156.000
1044.443, 5121.000
1045.685, 5041.000
1046.927, 5102.000
1048.169, 4982.000
1049.411, 5040.000
1050.653, 5114.000
1051.894, 4967.000
1053.135, 5070.000
1054.376, 4900.000
1055.617, 4967.000
1056.857, 4886.000
1058.098, 4859.000
1059.338, 4927.000
1060.578, 4899.000
1061.818, 4868.000
1063.057, 4918.000
1064.296, 4822.000
1065.536, 4882.000
1066.775, 4926.000
1068.013, 4758.000
1069.252, 4930.000
1070.490, 4816.000
1071.728, 4875.000
1072.966, 4899.000
1074.204, 4754.000
1075.442, 4877.000
1076.679, 4871.000
1077.916, 4764.000
1079.153, 4916.000
1080.390, 4797.000
1081.626, 4897.000
1082.862, 4878.000
1084.099, 4706.000
1085.334, 4815.000
1086.570, 4803.000
1087.806, 4755.000
1089.041, 4910.000
1090.276, 4727.000
1091.511, 4841.000
1092.746, 4798.000
1093.980, 4755.000
1095.215, 4901.000
1096.449, 4827.000
1097.683, 4817.000
1098.916, 4932.000
1100.150, 4758.000
1101.383, 4902.000
1102.616, 4928.000
1103.849, 4854.000
1105.082, 4929.000
1106.314, 4848.000
1107.547, 4865.000
1108.779, 4945.000
1110.011, 4834.000
1111.243, 4990.000
1112.474, 4889.000
1113.705, 4860.000
1114.936, 4982.000
1116.167, 4836.000
1117.398, 4935.000
1118.629, 4953.000
1119.859, 4887.000
1121.089, 4946.000
1122.319, 4884.000
1123.549, 4856.000
1124.778, 4962.000
1126.008, 4850.000
1127.237, 4856.000
1128.466, 4914.000
1129.694, 4897.000
1130.923, 5031.000
1132.151, 4881.000
1133.379, 4855.000
1134.607, 4966.000
1135.835, 4836.000
1137.062, 4918.000
1138.290, 4941.000
1139.517, 4812.000
1140.744, 4905.000
1141.971, 4839.000
1143.197, 4816.000
1144.423, 4837.925
1145.650, 4796.000
1146.875, 4811.000
1148.101, 4805.000
1149.327, 4751.000
1150.552, 4855.000
1151.777, 4823.000
1153.002, 4736.000
1154.227, 4865.000
1155.451, 4710.000
1156.676, 4822.000
1157.900, 4794.000
1159.124, 4750.000
1160.348, 4804.000
1161.571, 4724.000
1162.795, 4761.000
1164.018, 4766.000
1165.241, 4699.000
1166.463, 4726.000
1167.686, 4800.000
1168.908, 4608.000
1170.131, 4753.000
1171.353, 4669.000
1172.574, 4705.000
1173.796, 4710.000
1175.017, 4687.000
1176.239, 4770.000
1177.460, 4681.000
1178.680, 4697.000
1179.901, 4793.000
1181.121, 4708.000
1182.341, 4714.000
1183.561, 4766.000
1184.781, 4678.000
1186.001, 4759.000
1187.220, 4716.000
1188.440, 4652.000
1189.659, 4757.000
1190.877, 4744.000
1192.096, 4715.000
1193.314, 4773.000
1194.533, 4681.000
1195.751, 4741.000
1196.969, 4742.000
1198.186, 4672.000
1199.404, 4755.000
1200.621, 4648.000
1201.838, 4697.000
1203.055, 4736.000
1204.271, 4686.000
1205.488, 4748.000
1206.704, 4708.000
1207.920, 4631.000
1209.136, 4741.000
1210.352, 4686.000
1211.567, 4718.000
1212.783, 4788.000
1213.998, 4707.000
1215.213, 4755.000
1216.427, 4784.000
1217.642, 4690.000
1218.856, 4811.000
1220.070, 4727.000
1221.284, 4786.000
1222.498, 4791.000
1223.711, 4716.000
1224.925, 4866.000
1226.138, 4797.000
1227.351, 4706.000
1228.563, 4865.000
1229.776, 4797.000
1230.988, 4810.000
1232.200, 4831.000
1233.412, 4803.000
1234.624, 4882.000
1235.836, 4854.000
1237.047, 4702.000
1238.258, 4904.000
1239.469, 4811.000
1240.680, 4781.000
1241.891, 4918.000
1243.101, 4830.000
1244.311, 4867.000
1245.521, 4869.000
1246.731, 4777.000
1247.941, 4947.000
1249.150, 4809.000
1250.359, 4890.000
1251.568, 4865.000
1252.777, 4870.000
1253.986, 4909.000
1255.194, 4908.000
1256.403, 4808.000
1257.611, 4890.000
1258.819, 4841.000
1260.026, 4869.000
1261.234, 4881.000
1262.441, 4859.000
1263.648, 4953.000
1264.855, 4884.000
1266.062, 4828.000
1267.268, 4995.000
1268.475, 4839.000
1269.681, 4888.000
1270.887, 4969.000
1272.092, 4830.000
1273.298, 4918.000
1274.503, 4994.000
1275.708, 4822.000
1276.913, 4937.000
1278.118, 4915.000
1279.323, 4905.000
1280.527, 4928.000
1281.731, 4882.000
1282.935, 4860.000
1284.139, 4913.000
1285.343, 4820.000
1286.546, 4961.000
1287.749, 4874.000
1288.952, 4845.000
1290.155, 4959.000
1291.358, 4826.000
1292.560, 4895.000
1293.762, 4943.000
1294.965, 4868.000
1296.166, 4875.000
1297.368, 4928.000
1298.570, 4826.000
1299.771, 4919.000
1300.972, 4929.000
1302.173, 4868.000
1303.374, 4848.000
1304.574, 4832.000
1305.774, 4855.000
1306.975, 4836.000
1308.174, 4818.000
1309.374, 4888.000
1310.574, 4868.000
1311.773, 4864.000
1312.972, 4900.000
1314.171, 4841.000
1315.370, 4855.000
1316.569, 4867.000
1317.767, 4848.000
1318.965, 4912.000
1320.163, 4908.000
1321.361, 4873.000
1322.559, 4909.000
1323.756, 4849.000
1324.954, 4851.000
1326.151, 4880.000
1327.347, 4817.000
1328.544, 4929.000
1329.741, 4859.000
1330.937, 4852.000
1332.133, 4917.000
1333.329, 4852.000
1334.525, 4822.000
1335.720, 4934.000
1336.916, 4859.000
1338.111, 4852.000
1339.306, 4818.000
1340.500, 4800.000
1341.695, 4921.000
1342.889, 4869.000
1344.084, 4828.000
1345.278, 4939.000
1346.471, 4892.000
1347.665, 4848.000
1348.858, 4944.000
1350.052, 4811.000
1351.245, 4950.000
1352.438, 4946.000
1353.630, 4869.000
1354.823, 5023.000
1356.015, 4939.000
1357.207, 4897.000
1358.399, 5066.000
1359.591, 4974.000
1360.782, 5009.000
1361.973, 5022.000
1363.165, 4986.000
1364.356, 5051.000
1365.546, 5023.000
1366.737, 5027.000
1367.927, 5106.000
1369.117, 5089.000
1370.307, 5035.000
1371.497, 5219.000
1372.687, 5070.000
1373.876, 5072.000
1375.066, 5156.000
1376.255, 5099.000
1377.443, 5188.000
1378.632, 5140.000
1379.821, 5109.000
1381.009, 5174.000
1382.197, 5202.000
1383.385, 5116.000
1384.573, 5184.000
1385.760, 5092.000
1386.947, 5199.000
1388.135, 5198.000
1389.322, 5111.000
1390.508, 5232.000
1391.695, 5214.000
1392.881, 5175.000
1394.068, 5187.000
1395.254, 5147.000
1396.439, 5136.000
1397.625, 5198.000
1398.810, 5107.000
1399.996, 5203.000
1401.181, 5176.000
1402.366, 5093.000
1403.550, 5248.000
1404.735, 5184.000
1405.919, 5166.000
1407.103, 5266.000
1408.287, 5199.000
1409.471, 5164.000
1410.655, 5240.000
1411.838, 5121.000
1413.021, 5168.000
1414.204, 5228.000
1415.387, 5167.000
1416.570, 5302.000
1417.752, 5248.000
1418.934, 5211.000
1420.116, 5302.000
1421.298, 5181.000
1422.480, 5223.000
1423.661, 5317.000
1424.843, 5249.000
1426.024, 5318.000
1427.205, 5217.000
1428.385, 5249.000
1429.566, 5377.000
1430.746, 5345.000
1431.926, 5274.000
1433.106, 5414.000
1434.286, 5352.000
1435.466, 5370.000
1436.645, 5440.000
1437.824, 5389.000
1439.004, 5350.000
1440.182, 5526.000
1441.361, 5377.000
1442.540, 5531.000
1443.718, 5554.000
1444.896, 5566.000
1446.074, 5597.000
1447.252, 5568.000
1448.429, 5560.000
1449.606, 5635.000
1450.784, 5521.000
1451.961, 5612.000
1453.137, 5760.000
1454.314, 5565.000
1455.490, 5706.000
1456.667, 5684.000
1457.843, 5648.000
1459.019, 5784.000
1460.194, 5698.000
1461.370, 5766.000
1462.545, 5824.000
1463.720, 5672.000
1464.895, 5757.000
1466.070, 5848.000
1467.244, 5735.000
1468.419, 5894.000
1469.593, 5810.000
1470.767, 5738.000
1471.941, 5878.000
1473.114, 5802.000
1474.288, 5816.000
1475.461, 5947.000
1476.634, 5782.000
1477.807, 5854.000
1478.980, 5894.000
1480.152, 5822.000
1481.325, 5896.000
1482.497, 5997.000
1483.669, 5798.000
1484.840, 5880.000
1486.012, 5852.000
1487.183, 5838.000
1488.355, 5998.000
1489.526, 5948.000
1490.696, 6003.000
1491.867, 6005.000
1493.038, 5955.000
1494.208, 6008.000
1495.378, 6110.000
1496.548, 5920.000
1497.718, 6145.000
1498.887, 6031.000
1500.056, 6024.000
1501.226, 6156.000
1502.395, 6063.000
1503.563, 6035.000
1504.732, 6258.000
1505.900, 6038.000
1507.069, 6148.000
1508.237, 6250.000
1509.405, 6107.000
1510.572, 6252.000
1511.740, 6268.000
1512.907, 6154.000
1514.074, 6317.000
1515.241, 6224.000
1516.408, 6137.000
1517.574, 6316.000
1518.741, 6169.000
1519.907, 6204.000
1521.073, 6295.000
1522.239, 6156.000
1523.405, 6181.000
1524.570, 6280.000
1525.735, 6069.000
1526.900, 6226.000
1528.065, 6381.000
1529.230, 202.000
##END=



