##NAMES=Cassiterite
##RRUFFID=R060563
##IDEAL CHEMISTRY=SnO_2_
##LOCALITY=unknown
##OWNER=RRUFF
##SOURCE=Gemological Institute of America
##DESCRIPTION=Dark brown fragment
##STATUS=The identification of this mineral has been confirmed by X-ray diffraction and chemical analysis
##URL=rruff.info/R060563
##MEASURED CHEMISTRY=Sn_1.00_O_2_
##PIN_ID=L01474
##ORIENTATION=Laser parallel to c* (0 0 1). Fiducial mark perpendicular to laser is parallel to a [1 0 0]
114.4400, 5696.000
115.6710, 5824.000
116.9030, 5808.000
118.1340, 5903.000
119.3650, 5937.000
120.5960, 5961.000
121.8270, 6145.000
123.0580, 6078.317
124.2880, 6229.000
125.5190, 6035.000
126.7490, 5894.000
127.9790, 5865.000
129.2090, 5863.000
130.4390, 5860.000
131.6680, 5909.000
132.8980, 5867.000
134.1270, 5978.000
135.3560, 6020.000
136.5850, 5961.000
137.8140, 5975.000
139.0430, 6035.000
140.2710, 5987.895
141.5000, 6103.000
142.7280, 6003.000
143.9560, 5982.000
145.1840, 6079.000
146.4120, 6042.000
147.6390, 6130.000
148.8670, 6129.000
150.0940, 6176.000
151.3210, 6085.000
152.5490, 6123.000
153.7750, 6165.000
155.0020, 6263.000
156.2290, 6193.000
157.4550, 6159.000
158.6810, 6189.000
159.9080, 6147.000
161.1340, 6214.000
162.3590, 6108.000
163.5850, 6167.000
164.8110, 6271.000
166.0360, 6197.000
167.2610, 6387.000
168.4860, 6242.000
169.7110, 6298.000
170.9360, 6330.000
172.1610, 6409.000
173.3850, 6288.000
174.6100, 6276.000
175.8340, 6281.000
177.0580, 6292.000
178.2820, 6291.338
179.5050, 6301.976
180.7290, 6314.000
181.9520, 6309.000
183.1760, 6340.000
184.3990, 6325.000
185.6220, 6300.000
186.8450, 6347.036
188.0670, 6363.167
189.2900, 6434.000
190.5120, 6409.000
191.7340, 6480.000
192.9560, 6412.000
194.1780, 6479.000
195.4000, 6543.000
196.6220, 6600.000
197.8430, 6624.270
199.0640, 6667.000
200.2860, 6630.000
201.5070, 6649.000
202.7270, 6597.375
203.9480, 6609.229
205.1690, 6557.000
206.3890, 6614.000
207.6090, 6645.000
208.8290, 6645.000
210.0490, 6740.000
211.2690, 6691.000
212.4890, 6755.000
213.7080, 6785.000
214.9280, 6914.000
216.1470, 6866.000
217.3660, 6890.000
218.5850, 7066.000
219.8030, 7055.000
221.0220, 7101.000
222.2400, 7205.000
223.4590, 7152.000
224.6770, 7158.000
225.8950, 7177.000
227.1120, 7156.000
228.3300, 7166.000
229.5480, 7182.000
230.7650, 7211.697
231.9820, 7301.000
233.1990, 7323.000
234.4160, 7395.319
235.6330, 7500.000
236.8490, 7487.000
238.0660, 7507.000
239.2820, 7529.000
240.4980, 7652.000
241.7140, 7764.000
242.9300, 7760.000
244.1460, 7647.000
245.3610, 7507.000
246.5770, 7485.000
247.7920, 7379.000
249.0070, 7309.000
250.2220, 7276.000
251.4370, 7464.000
252.6510, 7387.000
253.8660, 7496.000
255.0800, 7492.000
256.2940, 7504.000
257.5080, 7554.000
258.7220, 7572.706
259.9360, 7578.676
261.1490, 7637.000
262.3630, 7593.000
263.5760, 7589.000
264.7890, 7620.000
266.0020, 7588.000
267.2150, 7585.000
268.4270, 7683.000
269.6400, 7562.000
270.8520, 7640.000
272.0640, 7572.000
273.2760, 7516.000
274.4880, 7500.000
275.7000, 7487.000
276.9120, 7483.000
278.1230, 7483.000
279.3340, 7480.000
280.5450, 7619.000
281.7560, 7524.000
282.9670, 7592.000
284.1780, 7436.000
285.3880, 7592.000
286.5980, 7534.000
287.8090, 7411.000
289.0190, 7538.000
290.2290, 7427.000
291.4380, 7460.000
292.6480, 7413.000
293.8570, 7487.000
295.0670, 7626.000
296.2760, 7579.000
297.4850, 7572.000
298.6930, 7727.000
299.9020, 7627.000
301.1110, 7715.000
302.3190, 7654.000
303.5270, 7810.000
304.7350, 7660.000
305.9430, 7745.000
307.1510, 7648.000
308.3580, 7707.000
309.5660, 7719.901
310.7730, 7727.000
311.9800, 7787.000
313.1870, 7823.000
314.3940, 7899.000
315.6010, 7796.000
316.8070, 7947.000
318.0130, 7849.000
319.2200, 7963.000
320.4260, 7844.000
321.6310, 7912.000
322.8370, 7972.000
324.0430, 7967.000
325.2480, 8074.000
326.4540, 8114.000
327.6590, 7927.000
328.8640, 8003.000
330.0680, 8050.000
331.2730, 7993.000
332.4780, 8083.000
333.6820, 8100.000
334.8860, 8001.000
336.0900, 8101.000
337.2940, 8155.000
338.4980, 8131.000
339.7010, 8141.000
340.9050, 8105.000
342.1080, 8165.000
343.3110, 8153.739
344.5140, 8102.000
345.7170, 8188.000
346.9200, 8216.000
348.1220, 8256.168
349.3240, 8135.000
350.5270, 8240.000
351.7290, 8184.000
352.9310, 8054.000
354.1320, 8186.000
355.3340, 8183.000
356.5350, 8081.000
357.7370, 8120.000
358.9380, 8222.000
360.1390, 8086.000
361.3400, 8057.000
362.5400, 8163.000
363.7410, 8064.000
364.9410, 8118.000
366.1410, 8063.000
367.3410, 8136.000
368.5410, 8197.000
369.7410, 8249.000
370.9400, 8210.000
372.1400, 8130.000
373.3390, 8354.000
374.5380, 8292.000
375.7370, 8204.000
376.9360, 8413.000
378.1350, 8366.000
379.3330, 8322.000
380.5310, 8357.000
381.7300, 8434.000
382.9280, 8398.000
384.1260, 8440.000
385.3230, 8493.000
386.5210, 8458.000
387.7180, 8396.000
388.9160, 8569.000
390.1130, 8606.000
391.3100, 8493.000
392.5060, 8574.000
393.7030, 8589.000
394.9000, 8552.000
396.0960, 8526.000
397.2920, 8657.000
398.4880, 8668.000
399.6840, 8677.000
400.8800, 8590.000
402.0750, 8660.000
403.2710, 8652.000
404.4660, 8756.000
405.6610, 8713.000
406.8560, 8681.000
408.0510, 8670.000
409.2450, 8743.000
410.4400, 8774.000
411.6340, 8732.000
412.8280, 8859.000
414.0220, 8814.000
415.2160, 8739.000
416.4100, 8722.000
417.6030, 8688.000
418.7970, 8833.000
419.9900, 8821.000
421.1830, 8712.000
422.3760, 8787.000
423.5690, 8660.000
424.7610, 8760.000
425.9540, 8718.000
427.1460, 8786.000
428.3380, 8915.000
429.5300, 8940.000
430.7220, 8902.000
431.9140, 8820.000
433.1050, 8843.325
434.2970, 8881.000
435.4880, 8856.000
436.6790, 8921.000
437.8700, 8987.000
439.0610, 8860.000
440.2510, 8790.000
441.4420, 8882.000
442.6320, 8991.000
443.8220, 8879.000
445.0120, 8932.000
446.2020, 8970.000
447.3910, 9104.000
448.5810, 8998.000
449.7700, 8959.000
450.9600, 9017.000
452.1490, 8934.000
453.3370, 8994.000
454.5260, 8908.000
455.7150, 9023.000
456.9030, 8997.000
458.0910, 9054.000
459.2800, 9087.000
460.4670, 9151.000
461.6550, 9269.000
462.8430, 9316.000
464.0300, 9379.000
465.2180, 9495.000
466.4050, 9516.000
467.5920, 9596.000
468.7790, 9721.000
469.9650, 9630.000
471.1520, 9691.000
472.3380, 9821.000
473.5250, 9707.000
474.7110, 9631.000
475.8970, 9675.000
477.0820, 9605.000
478.2680, 9522.000
479.4540, 9483.000
480.6390, 9503.000
481.8240, 9551.000
483.0090, 9534.229
484.1940, 9558.000
485.3780, 9586.000
486.5630, 9596.000
487.7470, 9696.000
488.9320, 9692.000
490.1160, 9770.000
491.3000, 9889.000
492.4830, 9829.000
493.6670, 9940.750
494.8500, 9981.000
496.0340, 10028.00
497.2170, 10016.00
498.4000, 9991.000
499.5820, 10021.00
500.7650, 9887.000
501.9480, 9818.000
503.1300, 9677.000
504.3120, 9740.000
505.4940, 9628.308
506.6760, 9674.000
507.8580, 9529.000
509.0390, 9560.000
510.2210, 9547.000
511.4020, 9496.000
512.5830, 9386.000
513.7640, 9356.160
514.9450, 9279.367
516.1250, 9221.000
517.3060, 9135.000
518.4860, 9040.000
519.6660, 8924.000
520.8460, 8935.000
522.0260, 8929.000
523.2060, 8877.000
524.3850, 8906.000
525.5650, 8912.301
526.7440, 8933.000
527.9230, 8970.000
529.1020, 9009.000
530.2810, 9041.000
531.4590, 9147.000
532.6380, 9181.000
533.8160, 9238.000
534.9940, 9417.000
536.1720, 9428.000
537.3500, 9491.000
538.5270, 9665.000
539.7050, 9788.000
540.8820, 9720.000
542.0590, 9651.000
543.2360, 9644.000
544.4130, 9575.000
545.5900, 9591.000
546.7660, 9484.000
547.9430, 9368.000
549.1190, 9437.000
550.2950, 9564.000
551.4710, 9461.000
552.6470, 9354.000
553.8220, 9438.000
554.9980, 9382.000
556.1730, 9382.000
557.3480, 9341.000
558.5230, 9224.000
559.6980, 9267.000
560.8730, 9275.000
562.0470, 9344.000
563.2220, 9296.062
564.3960, 9201.000
565.5700, 9221.000
566.7440, 9122.000
567.9170, 9108.000
569.0910, 9187.000
570.2640, 9164.000
571.4380, 9118.000
572.6110, 9113.000
573.7840, 9031.000
574.9570, 9187.000
576.1290, 9165.000
577.3020, 9114.000
578.4740, 9089.000
579.6460, 9099.000
580.8180, 9122.000
581.9900, 9146.000
583.1620, 9230.000
584.3330, 9246.000
585.5040, 9212.000
586.6760, 9142.000
587.8470, 9320.000
589.0180, 9394.000
590.1880, 9586.000
591.3590, 9565.000
592.5290, 9595.000
593.7000, 9686.000
594.8700, 9761.000
596.0400, 9795.000
597.2090, 9983.000
598.3790, 10131.00
599.5490, 10233.00
600.7180, 10497.00
601.8870, 10579.00
603.0560, 10735.00
604.2250, 10910.00
605.3940, 11147.00
606.5620, 11504.00
607.7300, 11688.00
608.8990, 11844.00
610.0670, 12267.00
611.2350, 12474.00
612.4020, 12935.00
613.5700, 13407.00
614.7370, 13850.00
615.9050, 14703.00
617.0720, 15357.00
618.2390, 16488.00
619.4060, 17887.00
620.5720, 19519.00
621.7390, 21512.00
622.9050, 24179.00
624.0710, 27637.00
625.2370, 31741.00
626.4030, 36824.00
627.5690, 42366.00
628.7340, 48358.00
629.9000, 54039.00
631.0650, 58371.00
632.2300, 60867.00
633.3950, 60720.00
634.5600, 57070.00
635.7240, 51151.00
636.8890, 44378.00
638.0530, 37952.00
639.2170, 32303.00
640.3810, 27722.00
641.5450, 24246.00
642.7080, 21612.00
643.8720, 19679.00
645.0350, 17961.00
646.1980, 16634.00
647.3610, 15874.00
648.5240, 15140.00
649.6870, 14242.00
650.8490, 13651.00
652.0120, 13407.00
653.1740, 12928.00
654.3360, 12553.00
655.4980, 12309.00
656.6600, 12098.00
657.8210, 11839.00
658.9830, 11693.00
660.1440, 11586.00
661.3050, 11391.00
662.4660, 11349.00
663.6270, 11148.00
664.7870, 11121.00
665.9480, 10996.00
667.1080, 10904.00
668.2680, 10895.50
669.4280, 10762.00
670.5880, 10839.00
671.7480, 10770.00
672.9070, 10677.00
674.0670, 10733.00
675.2260, 10745.00
676.3850, 10786.00
677.5440, 10693.00
678.7030, 10697.00
679.8610, 10670.00
681.0200, 10717.00
682.1780, 10756.00
683.3360, 10695.00
684.4940, 10823.00
685.6520, 10784.00
686.8090, 10739.00
687.9670, 10972.00
689.1240, 10940.00
690.2810, 11106.00
691.4380, 11081.00
692.5950, 11163.00
693.7520, 11245.00
694.9080, 11207.00
696.0650, 11126.00
697.2210, 10933.00
698.3770, 10886.00
699.5330, 10718.00
700.6880, 10480.00
701.8440, 10363.00
702.9990, 10254.00
704.1550, 10055.00
705.3100, 9973.000
706.4650, 9975.000
707.6190, 9873.000
708.7740, 9868.960
709.9290, 9911.000
711.0830, 9930.000
712.2370, 9871.000
713.3910, 10094.00
714.5450, 9989.000
715.6980, 9922.000
716.8520, 10068.00
718.0050, 10043.00
719.1580, 10008.00
720.3110, 10043.00
721.4640, 10019.00
722.6170, 10013.38
723.7700, 10044.00
724.9220, 9993.000
726.0740, 9974.000
727.2260, 9959.000
728.3780, 9924.000
729.5300, 9889.000
730.6810, 9943.000
731.8330, 9856.000
732.9840, 9907.000
734.1350, 9947.000
735.2860, 9906.000
736.4370, 9986.000
737.5880, 9920.000
738.7380, 9973.000
739.8880, 9929.000
741.0390, 9902.000
742.1890, 10067.00
743.3380, 9955.000
744.4880, 10018.00
745.6380, 10051.00
746.7870, 10029.00
747.9360, 10053.00
749.0850, 10133.00
750.2340, 10168.00
751.3830, 10121.00
752.5310, 10144.00
753.6800, 10102.00
754.8280, 10265.00
755.9760, 10408.00
757.1240, 10428.00
758.2720, 10592.00
759.4190, 10992.00
760.5670, 11148.00
761.7140, 11386.00
762.8610, 11869.00
764.0080, 12008.00
765.1550, 12760.00
766.3020, 13563.00
767.4480, 14133.00
768.5950, 15114.00
769.7410, 15955.00
770.8870, 16740.00
772.0330, 17464.00
773.1780, 18093.00
774.3240, 18194.00
775.4690, 18063.00
776.6140, 17519.00
777.7590, 17239.00
778.9040, 16698.00
780.0490, 15803.00
781.1940, 15242.00
782.3380, 14511.00
783.4820, 13860.00
784.6260, 13495.00
785.7700, 13106.00
786.9140, 12738.00
788.0580, 12574.00
789.2010, 12337.00
790.3450, 12165.00
791.4880, 11887.00
792.6310, 11849.00
793.7730, 11770.00
794.9160, 11564.00
796.0590, 11488.00
797.2010, 11495.00
798.3430, 11457.00
799.4850, 11348.00
800.6270, 11243.00
801.7690, 11093.00
802.9100, 11145.00
804.0520, 11062.00
805.1930, 10979.00
806.3340, 10970.00
807.4750, 10802.00
808.6160, 10744.00
809.7560, 10741.00
810.8970, 10654.00
812.0370, 10786.00
813.1770, 10532.00
814.3170, 10426.00
815.4570, 10342.00
816.5960, 10420.00
817.7360, 10291.88
818.8750, 10351.00
820.0140, 10201.00
821.1530, 10177.00
822.2920, 10225.00
823.4310, 10250.00
824.5690, 10124.00
825.7070, 10109.00
826.8460, 10248.00
827.9840, 10131.00
829.1220, 10146.00
830.2590, 10092.00
831.3970, 10143.00
832.5340, 10078.00
833.6710, 9940.000
834.8080, 10020.00
835.9450, 10147.00
837.0820, 10239.00
838.2190, 10081.00
839.3550, 10092.00
840.4910, 10118.00
841.6270, 10112.00
842.7630, 10112.00
843.8990, 10219.00
845.0350, 10349.00
846.1700, 10289.00
847.3060, 10399.00
848.4410, 10402.00
849.5760, 10513.00
850.7100, 10517.00
851.8450, 10520.00
852.9800, 10398.00
854.1140, 10383.00
855.2480, 10387.00
856.3820, 10523.00
857.5160, 10519.00
858.6500, 10537.00
859.7830, 10551.00
860.9170, 10551.00
862.0500, 10481.00
863.1830, 10573.00
864.3160, 10534.00
865.4480, 10628.00
866.5810, 10613.00
867.7130, 10630.00
868.8460, 10504.00
869.9780, 10596.00
871.1100, 10592.00
872.2410, 10439.00
873.3730, 10495.00
874.5050, 10437.00
875.6360, 10415.00
876.7670, 10492.00
877.8980, 10363.00
879.0290, 10318.00
880.1590, 10413.00
881.2900, 10412.00
882.4200, 10397.00
883.5500, 10371.00
884.6800, 10265.00
885.8100, 10317.94
886.9400, 10295.00
888.0690, 10356.00
889.1990, 10273.00
890.3280, 10237.00
891.4570, 10253.00
892.5860, 10224.00
893.7140, 10183.00
894.8430, 10252.00
895.9710, 10180.00
897.1000, 10245.00
898.2280, 10184.00
899.3560, 10221.00
900.4830, 10146.00
901.6110, 10211.00
902.7380, 10218.00
903.8660, 10171.00
904.9930, 10224.00
906.1200, 10201.00
907.2460, 10261.00
908.3730, 10277.00
909.5000, 10212.00
910.6260, 10098.00
911.7520, 10161.00
912.8780, 10219.00
914.0040, 10120.00
915.1290, 10223.00
916.2550, 10363.00
917.3800, 10262.00
918.5050, 10227.00
919.6300, 10239.00
920.7550, 10264.00
921.8800, 10274.00
923.0040, 10230.00
924.1290, 10169.00
925.2530, 10277.00
926.3770, 10238.08
927.5010, 10308.00
928.6250, 10293.00
929.7480, 10264.00
930.8720, 10316.00
931.9950, 10451.00
933.1180, 10335.00
934.2410, 10383.00
935.3640, 10253.00
936.4860, 10313.00
937.6090, 10361.00
938.7310, 10385.00
939.8530, 10497.00
940.9750, 10515.56
942.0970, 10533.02
943.2180, 10596.00
944.3400, 10535.00
945.4610, 10557.00
946.5820, 10563.00
947.7030, 10556.00
948.8240, 10612.00
949.9450, 10610.04
951.0650, 10718.00
952.1860, 10613.00
953.3060, 10593.00
954.4260, 10522.00
955.5460, 10693.00
956.6650, 10560.00
957.7850, 10674.00
958.9040, 10866.00
960.0230, 10730.00
961.1420, 10746.00
962.2610, 10677.00
963.3800, 10762.00
964.4990, 10781.00
965.6170, 10816.00
966.7350, 10827.00
967.8530, 10877.70
968.9710, 10927.00
970.0890, 10949.00
971.2070, 10964.00
972.3240, 10939.00
973.4410, 10896.00
974.5580, 11077.00
975.6750, 10857.00
976.7920, 10913.00
977.9090, 11015.00
979.0250, 10865.00
980.1410, 10841.00
981.2580, 10896.00
982.3740, 10927.00
983.4890, 10870.00
984.6050, 10916.00
985.7200, 10825.00
986.8360, 10826.00
987.9510, 10807.00
989.0660, 10748.00
990.1810, 10825.00
991.2950, 10767.00
992.4100, 10834.00
993.5240, 10734.00
994.6390, 10791.00
995.7530, 10858.00
996.8660, 10918.00
997.9800, 10964.76
999.0940, 10882.00
1000.207, 10966.00
1001.320, 11073.00
1002.433, 10889.00
1003.546, 11000.00
1004.659, 10982.00
1005.772, 10851.00
1006.884, 10953.00
1007.996, 11016.00
1009.108, 10900.00
1010.220, 10928.00
1011.332, 10867.00
1012.444, 11007.00
1013.555, 11005.00
1014.666, 11113.00
1015.777, 10987.00
1016.888, 11013.00
1017.999, 10954.00
1019.110, 10988.00
1020.220, 11068.00
1021.331, 11003.00
1022.441, 11053.00
1023.551, 11087.00
1024.661, 11014.00
1025.770, 11112.00
1026.880, 11142.00
1027.989, 11140.00
1029.098, 11209.00
1030.207, 11111.00
1031.316, 11151.00
1032.425, 11196.00
1033.533, 11128.00
1034.642, 11185.00
1035.750, 11148.00
1036.858, 11154.79
1037.966, 11108.00
1039.073, 11160.00
1040.181, 11222.00
1041.288, 11209.00
1042.396, 11268.00
1043.503, 11138.00
1044.610, 11176.00
1045.716, 11218.00
1046.823, 11034.00
1047.929, 11159.00
1049.036, 11137.00
1050.142, 10988.00
1051.248, 11155.00
1052.353, 11111.00
1053.459, 10979.00
1054.564, 11176.00
1055.670, 11006.00
1056.775, 11065.00
1057.880, 10964.00
1058.985, 11139.00
1060.089, 11212.00
1061.194, 10935.00
1062.298, 11111.00
1063.402, 11041.00
1064.506, 11132.00
1065.610, 11082.00
1066.713, 11081.00
1067.817, 11080.00
1068.920, 11157.00
1070.023, 10949.00
1071.126, 11084.00
1072.229, 11159.00
1073.332, 11039.00
1074.435, 11134.00
1075.537, 11208.00
1076.639, 11179.00
1077.741, 11156.00
1078.843, 11209.00
1079.945, 11250.00
1081.046, 11241.00
1082.148, 11231.00
1083.249, 11136.00
1084.350, 11337.00
1085.451, 11360.00
1086.551, 11376.00
1087.652, 11193.00
1088.752, 11235.00
1089.853, 11162.00
1090.953, 11185.00
1092.053, 11223.09
1093.152, 11272.00
1094.252, 11308.00
1095.351, 11287.00
1096.451, 11294.00
1097.550, 11309.00
1098.649, 11390.00
1099.748, 11296.83
1100.846, 11428.70
1101.945, 11508.95
1103.043, 11540.34
1104.141, 11376.53
1105.239, 11464.77
1106.337, 11452.00
1107.434, 11435.07
1108.532, 11558.79
1109.629, 11423.36
1110.726, 11398.00
1111.823, 11631.00
1112.920, 11508.00
1114.017, 11585.00
1115.113, 11464.00
1116.210, 11550.00
1117.306, 11486.00
1118.402, 11644.00
1119.498, 11744.00
1120.593, 11546.00
1121.689, 11664.00
1122.784, 11580.00
1123.879, 11641.00
1124.974, 11589.00
1126.069, 11625.00
1127.164, 11580.00
1128.259, 11581.00
1129.353, 11571.00
1130.447, 11613.00
1131.541, 11627.00
1132.635, 11637.00
1133.729, 11623.00
1134.822, 11686.00
1135.916, 11541.00
1137.009, 11624.00
1138.102, 11697.00
1139.195, 11544.00
1140.288, 11661.00
1141.380, 11744.00
1142.473, 11610.00
1143.565, 11580.00
1144.657, 11615.00
1145.749, 11524.00
1146.841, 11758.00
1147.932, 11743.00
1149.024, 11715.00
1150.115, 11638.00
1151.206, 11596.00
1152.297, 11629.00
1153.388, 11809.00
1154.479, 11530.00
1155.569, 11734.00
1156.659, 11649.00
1157.750, 11631.00
1158.839, 11662.00
1159.929, 11584.00
1161.019, 11704.00
1162.108, 11712.00
1163.198, 11769.00
1164.287, 11753.00
1165.376, 11806.00
1166.465, 11787.07
1167.553, 11702.00
1168.642, 11739.00
1169.730, 11691.00
1170.818, 11639.00
1171.906, 11872.00
1172.994, 11623.00
1174.082, 11700.00
1175.170, 11648.00
1176.257, 11829.00
1177.344, 11786.00
1178.431, 11781.00
1179.518, 11874.00
1180.605, 11716.00
1181.691, 11775.00
1182.778, 11825.00
1183.864, 11738.00
1184.950, 11689.00
1186.036, 11789.00
1187.122, 11693.00
1188.207, 11732.00
1189.292, 11859.00
1190.378, 11926.00
1191.463, 11728.00
1192.548, 11951.00
1193.632, 11837.00
1194.717, 11756.00
1195.801, 11838.00
1196.886, 11840.00
1197.970, 11873.00
1199.054, 11927.00
1200.137, 11829.00
1201.221, 11922.00
1202.305, 11750.00
1203.388, 11660.00
1204.471, 11857.00
1205.554, 11843.00
1206.637, 11708.00
1207.719, 11909.00
1208.802, 11879.00
1209.884, 12084.00
1210.966, 11879.00
1212.048, 11912.00
1213.130, 12036.00
1214.212, 12013.00
1215.293, 11911.00
1216.374, 11935.00
1217.456, 12048.00
1218.536, 12031.00
1219.617, 12130.00
1220.698, 11981.00
1221.778, 11933.00
1222.859, 11966.00
1223.939, 12081.00
1225.019, 12026.00
1226.099, 12018.00
1227.178, 12209.00
1228.258, 12002.00
1229.337, 12028.00
1230.417, 12131.00
1231.496, 12113.00
1232.574, 12047.00
1233.653, 12085.00
1234.732, 11981.00
1235.810, 12213.00
1236.888, 12181.00
1237.966, 12115.00
1239.044, 12226.00
1240.122, 12223.00
1241.199, 12208.00
1242.277, 12239.00
1243.354, 12241.00
1244.431, 12151.00
1245.508, 12206.00
1246.585, 12183.00
1247.661, 12158.00
1248.738, 12324.00
1249.814, 12262.00
1250.890, 12284.00
1251.966, 12266.00
1253.042, 12300.00
1254.117, 12255.00
1255.193, 12259.00
1256.268, 12295.00
1257.343, 12230.00
1258.418, 12244.00
1259.493, 12361.00
1260.567, 12314.00
1261.642, 12262.00
1262.716, 12326.00
1263.790, 12415.00
1264.864, 12372.00
1265.938, 12414.00
1267.011, 12298.00
1268.085, 12229.00
1269.158, 12343.00
1270.231, 12260.00
1271.304, 12284.00
1272.377, 12293.00
1273.450, 12301.00
1274.522, 12493.00
1275.594, 12364.00
1276.666, 12408.00
1277.738, 12295.00
1278.810, 12241.00
1279.882, 12414.00
1280.953, 12281.00
1282.025, 12481.00
1283.096, 12292.00
1284.167, 12289.00
1285.238, 12487.00
1286.308, 12459.00
1287.379, 12536.00
1288.449, 12412.00
1289.519, 12397.00
1290.589, 12596.00
1291.659, 12485.00
1292.729, 12533.00
1293.798, 12413.00
1294.868, 12573.00
1295.937, 12569.00
1297.006, 12539.00
1298.075, 12586.00
1299.143, 12571.00
1300.212, 12565.00
1301.280, 12567.00
1302.348, 12605.00
1303.416, 12632.00
1304.484, 12677.61
1305.552, 12637.00
1306.620, 12778.00
1307.687, 12745.00
1308.754, 12769.34
1309.821, 12713.00
1310.888, 12671.00
1311.955, 12641.00
1313.021, 12554.00
1314.088, 12680.00
1315.154, 12602.00
1316.220, 12707.00
1317.286, 12648.00
1318.352, 12653.00
1319.417, 12663.00
1320.483, 12618.00
1321.548, 12629.00
1322.613, 12610.00
1323.678, 12609.54
1324.743, 12621.46
1325.807, 12618.00
1326.872, 12662.00
1327.936, 12663.32
1329.000, 12715.00
1330.064, 12726.00
1331.128, 12701.00
1332.191, 12681.00
1333.255, 12682.08
1334.318, 12810.00
1335.381, 12678.00
1336.444, 12756.00
1337.507, 12777.00
1338.569, 12604.00
1339.632, 12750.00
1340.694, 12874.00
1341.756, 12670.00
1342.818, 12643.00
1343.880, 12786.00
1344.941, 12861.00
1346.003, 12772.00
1347.064, 12702.00
1348.125, 12759.00
1349.186, 12790.00
1350.247, 12872.00
1351.308, 12816.00
1352.368, 12780.00
1353.428, 12761.00
1354.489, 12756.00
1355.549, 12880.00
1356.608, 12839.00
1357.668, 12872.00
1358.727, 12756.00
1359.787, 12892.00
1360.846, 12821.00
1361.905, 12901.00
1362.964, 12981.00
1364.022, 12976.00
1365.081, 12957.00
1366.139, 13019.00
1367.197, 12920.00
1368.255, 12964.00
1369.313, 12988.00
1370.371, 12937.00
1371.428, 13004.70
1372.486, 13119.00
1373.543, 13055.00
1374.600, 13110.00
1375.657, 13078.00
1376.713, 13119.00
1377.770, 13053.00
1378.826, 12992.00
1379.882, 13174.00
1380.938, 13099.00
1381.994, 13133.00
1383.050, 13189.00
1384.106, 13250.00
1385.161, 13254.40
1386.216, 13108.00
1387.271, 13249.00
1388.326, 13096.00
1389.381, 13038.00
1390.435, 13176.00
1391.490, 13199.00
1392.544, 12995.00
1393.598, 13172.00
1394.652, 13065.00
1395.705, 13159.00
1396.759, 13278.00
1397.812, 13173.00
1398.866, 13247.62
1399.919, 13144.00
1400.972, 13253.00
1402.024, 13258.00
1403.077, 13296.83
1404.129, 13034.00
1405.181, 13201.00
1406.233, 13216.00
1407.285, 13032.00
1408.337, 13121.00
1409.389, 13180.00
1410.440, 13338.00
1411.491, 13270.00
1412.542, 13240.00
1413.593, 13276.00
1414.644, 13281.00
1415.695, 13242.00
1416.745, 13182.00
1417.795, 13203.00
1418.845, 13345.00
1419.895, 13305.00
1420.945, 13258.00
1421.995, 13329.00
1423.044, 13280.00
1424.093, 13393.00
1425.142, 13405.00
1426.191, 13422.00
1427.240, 13280.00
1428.289, 13363.00
1429.337, 13406.00
1430.385, 13609.00
1431.433, 13363.00
1432.481, 13513.00
1433.529, 13512.00
1434.577, 13412.00
1435.624, 13566.00
1436.672, 13548.00
1437.719, 13491.00
1438.766, 13541.00
1439.812, 13684.00
1440.859, 13687.00
1441.905, 13624.00
1442.952, 13606.00
1443.998, 13616.00
1445.044, 13705.00
1446.090, 13658.00
1447.135, 13606.00
1448.181, 13837.00
1449.226, 13835.00
1450.271, 13783.00
1451.316, 13755.00
1452.361, 13825.00
1453.405, 13829.00
1454.450, 13775.00
1455.494, 13851.00
1456.538, 13806.00
1457.582, 13802.00
1458.626, 13829.00
1459.670, 13839.00
1460.713, 13846.00
1461.757, 13868.10
1462.800, 13964.00
1463.843, 13913.00
1464.886, 13973.00
1465.928, 14023.00
1466.971, 13933.00
1468.013, 14057.00
1469.055, 14042.00
1470.097, 13970.00
1471.139, 14061.00
1472.181, 14045.00
1473.222, 13978.00
1474.263, 14027.00
1475.305, 14151.00
1476.346, 13887.00
1477.386, 14058.00
1478.427, 13920.00
1479.468, 14015.00
1480.508, 13943.00
1481.548, 13951.00
1482.588, 14134.00
1483.628, 14078.00
1484.668, 14108.00
1485.707, 14186.00
1486.747, 14151.25
1487.786, 14156.00
1488.825, 14167.00
1489.864, 14246.00
1490.902, 14279.00
1491.941, 14319.00
1492.979, 14319.00
1494.017, 14347.65
1495.055, 14359.00
1496.093, 14382.00
1497.131, 14402.00
1498.168, 14430.00
1499.206, 14477.00
1500.243, 14441.00
1501.280, 14437.00
1502.317, 14393.00
1503.354, 14608.00
1504.390, 14510.00
1505.426, 14639.00
1506.463, 14494.00
1507.499, 14651.00
1508.535, 14396.00
1509.570, 14510.00
1510.606, 14659.00
1511.641, 14568.00
1512.676, 14683.00
1513.711, 14580.00
1514.746, 14560.00
1515.781, 14557.00
1516.816, 14565.00
1517.850, 14583.00
1518.884, 14691.00
1519.918, 14659.00
1520.952, 14757.00
1521.986, 14693.00
1523.019, 14712.00
1524.053, 14548.00
1525.086, 14674.00
1526.119, 14452.00
1527.152, 14799.00
1528.185, 14576.00
1529.217, 14540.00
1530.250, 14679.00
1531.282, 14445.00
1532.314, 14647.00
1533.346, 14474.00
1534.377, 14536.00
1535.409, 14394.00
1536.440, 14383.71
1537.472, 14523.00
1538.503, 14397.00
1539.534, 14426.00
1540.564, 14536.00
1541.595, 14445.00
1542.625, 14368.00
1543.656, 14549.00
1544.686, 14349.00
1545.716, 14401.00
1546.745, 14458.00
1547.775, 14410.00
1548.804, 14515.00
1549.834, 14469.63
1550.863, 14354.00
1551.892, 14410.00
1552.920, 14401.00
1553.949, 14345.00
1554.977, 14407.00
1556.006, 14263.00
1557.034, 14406.00
1558.062, 14239.00
1559.089, 14281.00
1560.117, 14165.00
1561.144, 14220.00
1562.172, 14165.43
1563.199, 14072.00
1564.226, 14140.00
1565.252, 14142.00
1566.279, 14233.00
1567.305, 14171.00
1568.332, 14191.00
1569.358, 14306.00
1570.384, 14221.00
##END=



