##NAMES=Cassiterite
##RRUFFID=R050502
##IDEAL CHEMISTRY=SnO_2_
##LOCALITY=Redruth, Cornwall, England
##OWNER=RRUFF
##SOURCE=California Institute of Technology
##DESCRIPTION=Black crystals associated with colorless quartz and grey stannite.
##STATUS=The identification of this mineral has been confirmed by X-ray diffraction and chemical analysis
##URL=rruff.info/R050502
##MEASURED CHEMISTRY=SnO_2_
##PIN_ID=M00499
##ORIENTATION=Laser parallel to a* (1 0 0). Fiducial mark perpendicular to laser is parallel to -c [0 0 -1]
169.7650, 12556.00
170.9990, 12681.00
172.2330, 12509.00
173.4670, 12572.00
174.7000, 12418.00
175.9330, 12409.00
177.1660, 12229.00
178.3990, 12411.00
179.6310, 12366.00
180.8640, 12341.00
182.0960, 12275.00
183.3280, 12346.00
184.5600, 12293.00
185.7910, 12209.00
187.0220, 12379.00
188.2540, 12404.00
189.4840, 12469.00
190.7150, 12404.00
191.9460, 12678.00
193.1760, 12799.00
194.4060, 12843.40
195.6360, 12803.00
196.8660, 13029.00
198.0960, 13171.00
199.3250, 13360.00
200.5540, 13682.00
201.7830, 13921.00
203.0120, 14052.00
204.2400, 14279.00
205.4690, 14323.00
206.6970, 14337.00
207.9250, 14730.00
209.1530, 15050.00
210.3800, 15480.00
211.6080, 15863.00
212.8350, 16375.00
214.0620, 16705.00
215.2880, 17301.87
216.5150, 17831.74
217.7410, 18506.00
218.9680, 19071.00
220.1940, 19752.00
221.4190, 20492.00
222.6450, 21071.00
223.8700, 21812.00
225.0960, 22607.00
226.3210, 23315.00
227.5450, 23848.00
228.7700, 24482.00
229.9940, 25072.00
231.2190, 25550.00
232.4430, 25916.00
233.6660, 26185.00
234.8900, 26349.00
236.1140, 26418.00
237.3370, 26366.00
238.5600, 26133.00
239.7830, 25611.00
241.0050, 24872.00
242.2280, 24347.00
243.4500, 23146.00
244.6720, 22602.00
245.8940, 20996.00
247.1160, 20003.00
248.3370, 18822.00
249.5580, 17803.00
250.7790, 16754.00
252.0000, 15854.00
253.2210, 14911.00
254.4410, 14119.00
255.6620, 13717.00
256.8820, 13109.00
258.1020, 12788.00
259.3210, 12682.00
260.5410, 12456.00
261.7600, 11845.00
262.9790, 11385.00
264.1980, 11274.00
265.4170, 11043.00
266.6360, 10919.00
267.8540, 10824.00
269.0720, 10732.02
270.2900, 10756.00
271.5080, 10727.00
272.7260, 10856.00
273.9430, 11035.00
275.1600, 11506.00
276.3770, 11945.00
277.5940, 12463.00
278.8100, 13245.00
280.0270, 13829.00
281.2430, 14303.00
282.4590, 14528.48
283.6750, 14627.00
284.8910, 14541.00
286.1060, 14249.00
287.3210, 13936.87
288.5360, 13423.00
289.7510, 13077.00
290.9660, 12468.00
292.1800, 11962.00
293.3950, 11632.00
294.6090, 11243.00
295.8230, 10841.00
297.0360, 10747.00
298.2500, 10383.00
299.4630, 10073.00
300.6760, 9994.000
301.8890, 9802.000
303.1020, 9674.000
304.3150, 9608.000
305.5270, 9360.000
306.7390, 9266.000
307.9510, 9206.000
309.1630, 9148.000
310.3750, 8942.000
311.5860, 8796.000
312.7970, 8737.000
314.0080, 8655.000
315.2190, 8578.000
316.4300, 8491.000
317.6400, 8495.000
318.8510, 8323.000
320.0610, 8376.000
321.2710, 8257.000
322.4800, 8307.000
323.6900, 8270.000
324.8990, 8205.000
326.1080, 8074.000
327.3170, 8010.000
328.5260, 8007.000
329.7340, 8001.000
330.9430, 7967.379
332.1510, 7975.000
333.3590, 7947.000
334.5670, 7912.000
335.7740, 7935.000
336.9820, 7996.000
338.1890, 7899.000
339.3960, 8012.000
340.6030, 8005.000
341.8100, 8118.000
343.0160, 8129.000
344.2220, 8134.000
345.4280, 8077.000
346.6340, 8080.000
347.8400, 8181.000
349.0460, 8101.000
350.2510, 8124.000
351.4560, 8170.000
352.6610, 8123.139
353.8660, 8158.000
355.0700, 8050.000
356.2750, 8015.000
357.4790, 7875.000
358.6830, 7761.000
359.8870, 7456.000
361.0910, 7251.000
362.2940, 6969.000
363.4970, 6812.000
364.7000, 6638.000
365.9030, 6403.000
367.1060, 6357.000
368.3080, 6342.000
369.5110, 6198.000
370.7130, 6170.000
371.9150, 6188.000
373.1170, 6116.000
374.3180, 6238.000
375.5200, 6082.000
376.7210, 6156.000
377.9220, 6105.000
379.1230, 6192.000
380.3230, 6121.000
381.5240, 6090.000
382.7240, 6152.000
383.9240, 6109.000
385.1240, 6075.000
386.3240, 6101.000
387.5230, 6190.000
388.7230, 6105.000
389.9220, 6151.000
391.1210, 6055.000
392.3200, 6245.000
393.5180, 6255.000
394.7170, 6267.000
395.9150, 6321.000
397.1130, 6368.000
398.3110, 6245.000
399.5080, 6373.000
400.7060, 6371.000
401.9030, 6463.000
403.1000, 6322.000
404.2970, 6459.000
405.4940, 6547.000
406.6910, 6494.000
407.8870, 6646.000
409.0830, 6658.000
410.2790, 6733.000
411.4750, 6842.000
412.6710, 6875.000
413.8660, 6968.389
415.0610, 7038.338
416.2560, 7144.000
417.4510, 7192.000
418.6460, 7334.000
419.8410, 7439.000
421.0350, 7597.000
422.2290, 7555.000
423.4230, 7715.000
424.6170, 8049.000
425.8100, 8250.000
427.0040, 8573.000
428.1970, 9006.000
429.3900, 9425.000
430.5830, 9758.000
431.7760, 10355.00
432.9680, 10923.00
434.1610, 11424.00
435.3530, 11860.00
436.5450, 12575.00
437.7360, 13076.00
438.9280, 13252.00
440.1190, 13474.00
441.3110, 13487.00
442.5020, 13626.00
443.6930, 13696.00
444.8830, 13513.00
446.0740, 13426.00
447.2640, 13183.00
448.4540, 13046.00
449.6440, 12846.00
450.8340, 12603.00
452.0240, 12322.00
453.2130, 12308.00
454.4020, 12247.00
455.5910, 12431.00
456.7800, 12459.00
457.9690, 12637.00
459.1570, 13000.00
460.3460, 13420.00
461.5340, 13924.00
462.7220, 14322.00
463.9090, 14771.00
465.0970, 15230.00
466.2840, 15657.00
467.4720, 16057.00
468.6590, 16510.00
469.8460, 16711.00
471.0320, 16954.00
472.2190, 17020.00
473.4050, 16792.00
474.5910, 16482.00
475.7770, 15880.00
476.9630, 15341.00
478.1490, 14861.00
479.3340, 14230.00
480.5190, 13884.00
481.7040, 13388.00
482.8890, 13303.00
484.0740, 13140.00
485.2580, 13018.00
486.4430, 13249.00
487.6270, 13246.00
488.8110, 13238.00
489.9950, 13438.00
491.1780, 13365.00
492.3620, 13334.00
493.5450, 13423.00
494.7280, 13644.00
495.9110, 13650.00
497.0940, 13627.00
498.2760, 13501.00
499.4590, 13546.00
500.6410, 13464.00
501.8230, 13389.00
503.0050, 13489.00
504.1860, 13375.00
505.3680, 13230.00
506.5490, 13475.00
507.7300, 13258.00
508.9110, 13302.00
510.0920, 13322.00
511.2730, 13242.00
512.4530, 13072.00
513.6330, 13058.00
514.8130, 13007.56
515.9930, 13211.00
517.1730, 12965.00
518.3520, 13005.00
519.5320, 12929.00
520.7110, 12825.00
521.8900, 12877.00
523.0690, 12927.00
524.2470, 12830.00
525.4260, 12969.00
526.6040, 12878.00
527.7820, 12803.00
528.9600, 12749.00
530.1380, 12781.79
531.3150, 12936.00
532.4930, 12937.00
533.6700, 13080.00
534.8470, 13242.00
536.0240, 13252.00
537.2000, 13399.70
538.3770, 13593.00
539.5530, 13585.00
540.7290, 13795.00
541.9050, 13883.00
543.0810, 13872.00
544.2570, 13748.00
545.4320, 14013.00
546.6080, 13940.00
547.7830, 14088.00
548.9580, 14119.00
550.1320, 14226.00
551.3070, 14317.00
552.4810, 14472.00
553.6550, 14535.43
554.8300, 14701.00
556.0030, 14725.00
557.1770, 14834.00
558.3510, 15002.00
559.5240, 15040.00
560.6970, 15010.00
561.8700, 15302.00
563.0430, 15436.00
564.2160, 15442.00
565.3880, 15449.00
566.5600, 15467.00
567.7320, 15404.00
568.9040, 15532.00
570.0760, 15447.00
571.2480, 15394.00
572.4190, 15431.00
573.5900, 15564.00
574.7610, 15278.00
575.9320, 15259.00
577.1030, 15481.00
578.2740, 15638.00
579.4440, 15399.00
580.6140, 15494.00
581.7840, 15489.00
582.9540, 15710.00
584.1240, 15597.00
585.2930, 15787.00
586.4630, 15756.00
587.6320, 15938.00
588.8010, 16009.00
589.9700, 16332.00
591.1380, 16458.00
592.3070, 16569.00
593.4750, 16841.00
594.6430, 16989.00
595.8110, 17003.00
596.9790, 17407.00
598.1460, 17590.00
599.3140, 17949.00
600.4810, 18296.00
601.6480, 18697.00
602.8150, 19093.00
603.9820, 19700.00
605.1480, 19780.00
606.3150, 20547.00
607.4810, 20801.00
608.6470, 21155.00
609.8130, 21981.00
610.9790, 22350.00
612.1440, 22668.00
613.3100, 23394.00
614.4750, 24085.00
615.6400, 24630.00
616.8050, 25598.00
617.9690, 26789.00
619.1340, 27981.00
620.2980, 29665.00
621.4620, 31760.00
622.6260, 34757.00
623.7900, 37728.00
624.9540, 41709.00
626.1170, 45925.00
627.2810, 50737.00
628.4440, 55259.00
629.6070, 60096.00
630.7690, 63390.00
631.9320, 65278.00
633.0950, 65196.00
634.2570, 62938.00
635.4190, 59882.00
636.5810, 55460.00
637.7430, 50338.00
638.9040, 44981.00
640.0660, 40218.00
641.2270, 36275.00
642.3880, 33075.00
643.5490, 30126.00
644.7100, 27749.00
645.8700, 25823.00
647.0310, 24414.00
648.1910, 23181.00
649.3510, 22009.00
650.5110, 21346.00
651.6710, 20420.00
652.8300, 19690.00
653.9900, 19045.00
655.1490, 18366.00
656.3080, 17771.00
657.4670, 17221.00
658.6250, 16730.00
659.7840, 16281.00
660.9420, 15758.00
662.1010, 15361.00
663.2590, 15049.00
664.4170, 14804.00
665.5740, 14425.00
666.7320, 14088.00
667.8890, 13945.00
669.0460, 13724.00
670.2030, 13444.00
671.3600, 13243.00
672.5170, 13049.00
673.6740, 13030.00
674.8300, 12973.00
675.9860, 12664.00
677.1420, 12662.00
678.2980, 12916.00
679.4540, 12746.00
680.6090, 12966.00
681.7650, 13046.00
682.9200, 13088.00
684.0750, 13286.00
685.2300, 13436.00
686.3840, 13506.00
687.5390, 13660.00
688.6930, 13783.00
689.8470, 13798.00
691.0010, 14008.00
692.1550, 14070.00
693.3090, 14121.00
694.4620, 14222.00
695.6160, 14093.00
696.7690, 14063.00
697.9220, 13927.00
699.0750, 13822.00
700.2280, 13659.00
701.3800, 13421.00
702.5320, 13325.48
703.6850, 13173.00
704.8370, 13060.00
705.9880, 13022.00
707.1400, 12903.00
708.2920, 12868.00
709.4430, 12898.00
710.5940, 13124.00
711.7450, 13288.00
712.8960, 13331.00
714.0470, 13352.00
715.1970, 13466.00
716.3480, 13552.06
717.4980, 13564.00
718.6480, 13773.00
719.7980, 13921.00
720.9470, 13987.00
722.0970, 13991.00
723.2460, 13885.00
724.3960, 13957.00
725.5450, 13962.00
726.6940, 13961.00
727.8420, 14052.00
728.9910, 14017.00
730.1390, 14010.00
731.2870, 13885.00
732.4350, 13847.00
733.5830, 13940.00
734.7310, 13792.00
735.8790, 13816.00
737.0260, 13805.00
738.1730, 13729.00
739.3200, 13699.00
740.4670, 13622.00
741.6140, 13541.00
742.7610, 13450.00
743.9070, 13488.00
745.0530, 13331.00
746.1990, 13378.00
747.3450, 13272.00
748.4910, 13140.00
749.6370, 13133.00
750.7820, 13179.00
751.9270, 12963.00
753.0720, 12900.00
754.2170, 12677.00
755.3620, 12555.00
756.5070, 12478.00
757.6510, 12403.00
758.7950, 12293.71
759.9400, 12173.00
761.0840, 12071.00
762.2270, 11951.00
763.3710, 11779.00
764.5140, 11813.00
765.6580, 11931.00
766.8010, 12265.00
767.9440, 12040.00
769.0870, 12493.00
770.2290, 12677.00
771.3720, 12802.00
772.5140, 13122.00
773.6560, 13141.00
774.7990, 13107.00
775.9400, 12851.00
777.0820, 12656.00
778.2240, 12398.00
779.3650, 11812.00
780.5060, 11386.00
781.6470, 11059.00
782.7880, 10771.00
783.9290, 10243.00
785.0690, 9948.000
786.2100, 9708.000
787.3500, 9360.000
788.4900, 9172.000
789.6300, 8997.000
790.7700, 8837.000
791.9090, 8763.000
793.0490, 8614.000
794.1880, 8500.000
795.3270, 8382.055
796.4660, 8253.000
797.6050, 8162.000
798.7440, 8064.000
799.8820, 8025.000
801.0200, 7989.000
802.1590, 7679.000
803.2970, 7702.000
804.4340, 7569.000
805.5720, 7484.000
806.7100, 7490.000
807.8470, 7358.000
808.9840, 7219.000
810.1210, 7073.000
811.2580, 7204.000
812.3950, 7199.000
813.5310, 7172.000
814.6680, 7090.000
815.8040, 7161.000
816.9400, 7213.000
818.0760, 7147.000
819.2120, 7213.000
820.3470, 7114.000
821.4830, 7228.000
822.6180, 7265.000
823.7530, 7412.000
824.8880, 7508.000
826.0230, 7631.000
827.1580, 7799.877
828.2920, 7942.000
829.4270, 8166.000
830.5610, 8369.000
831.6950, 8606.006
832.8290, 8894.000
833.9620, 9020.000
835.0960, 9238.000
836.2290, 9378.000
837.3620, 9344.000
838.4950, 9371.000
839.6280, 9227.000
840.7610, 8963.000
841.8940, 8631.000
843.0260, 8365.000
844.1580, 8149.000
845.2910, 7947.000
846.4230, 7708.000
847.5540, 7507.904
848.6860, 7351.000
849.8170, 7108.000
850.9490, 7050.000
852.0800, 6901.000
853.2110, 6795.000
854.3420, 6819.000
855.4730, 6652.000
856.6030, 6732.000
857.7340, 6581.000
858.8640, 6606.000
859.9940, 6623.000
861.1240, 6703.000
862.2540, 6598.000
863.3830, 6631.000
864.5130, 6603.000
865.6420, 6591.000
866.7710, 6568.000
867.9000, 6527.000
869.0290, 6530.000
870.1570, 6505.000
871.2860, 6487.062
872.4140, 6491.000
873.5430, 6443.000
874.6710, 6482.000
875.7980, 6440.000
876.9260, 6445.000
878.0540, 6352.000
879.1810, 6318.000
880.3080, 6349.000
881.4360, 6202.000
882.5630, 6167.000
883.6890, 6312.000
884.8160, 6157.000
885.9420, 6285.000
887.0690, 6175.000
888.1950, 6104.000
889.3210, 6025.000
890.4470, 6126.000
891.5730, 6010.000
892.6980, 5935.000
893.8240, 6043.000
894.9490, 5901.000
896.0740, 5963.000
897.1990, 5858.000
898.3240, 5958.000
899.4480, 5851.000
900.5730, 5754.000
901.6970, 5721.000
902.8210, 5781.000
903.9450, 5726.000
905.0690, 5710.000
906.1930, 5603.000
907.3160, 5705.000
908.4400, 5642.000
909.5630, 5535.000
910.6860, 5565.000
911.8090, 5489.000
912.9320, 5498.000
914.0550, 5542.000
915.1770, 5514.000
916.2990, 5436.000
917.4210, 5557.000
918.5440, 5472.000
919.6650, 5494.000
920.7870, 5439.000
921.9090, 5429.820
923.0300, 5416.000
924.1510, 5428.000
925.2720, 5414.000
926.3930, 5434.000
927.5140, 5494.000
928.6350, 5508.000
929.7550, 5474.000
930.8760, 5452.000
931.9960, 5486.000
933.1160, 5452.000
934.2360, 5470.802
935.3550, 5502.000
936.4750, 5506.000
937.5940, 5546.000
938.7140, 5597.000
939.8330, 5557.000
940.9520, 5580.293
942.0710, 5518.000
943.1890, 5569.000
944.3080, 5524.000
945.4260, 5535.000
946.5440, 5544.000
947.6620, 5544.013
948.7800, 5579.000
949.8980, 5579.000
951.0160, 5613.000
952.1330, 5636.000
953.2500, 5628.000
954.3680, 5708.000
955.4850, 5766.000
956.6010, 5722.000
957.7180, 5684.000
958.8350, 5811.000
959.9510, 5711.000
961.0670, 5923.000
962.1830, 5839.000
963.2990, 5812.000
964.4150, 5726.000
965.5310, 5848.000
966.6460, 5870.000
967.7620, 5902.000
968.8770, 5919.000
969.9920, 5916.000
971.1070, 6004.000
972.2210, 6062.000
973.3360, 5962.000
974.4500, 5959.000
975.5650, 5917.000
976.6790, 5920.000
977.7930, 5906.000
978.9070, 5924.000
980.0200, 5907.183
981.1340, 5876.000
982.2470, 5862.000
983.3610, 5854.000
984.4740, 5782.000
985.5870, 5717.000
986.6990, 5755.000
987.8120, 5797.000
988.9250, 5647.000
990.0370, 5724.000
991.1490, 5680.000
992.2610, 5741.000
993.3730, 5746.000
994.4850, 5660.000
995.5960, 5707.000
996.7080, 5664.000
997.8190, 5692.000
998.9300, 5741.000
1000.041, 5698.000
1001.152, 5694.000
1002.263, 5714.000
1003.373, 5701.000
1004.484, 5756.000
1005.594, 5725.000
1006.704, 5756.000
1007.814, 5743.000
1008.924, 5728.000
1010.034, 5753.000
1011.143, 5745.000
1012.253, 5809.000
1013.362, 5840.000
1014.471, 5853.000
1015.580, 5813.000
1016.689, 5815.000
1017.797, 5759.000
1018.906, 5808.000
1020.014, 5891.000
1021.122, 5873.000
1022.230, 5886.000
1023.338, 5894.000
1024.446, 5905.000
1025.554, 5940.000
1026.661, 5893.000
1027.768, 5962.000
1028.875, 5900.000
1029.983, 6004.000
1031.089, 5915.000
1032.196, 5955.000
1033.303, 5970.000
1034.409, 5920.000
1035.515, 6002.000
1036.622, 5988.000
1037.728, 6026.000
1038.833, 6039.000
1039.939, 6048.406
1041.045, 6043.894
1042.150, 6057.000
1043.255, 6020.000
1044.360, 5979.000
1045.465, 5984.000
1046.570, 6062.000
1047.675, 6071.000
1048.779, 6020.000
1049.884, 5916.000
1050.988, 5982.000
1052.092, 5969.000
1053.196, 5923.000
1054.300, 5929.000
1055.404, 5955.000
1056.507, 5981.000
1057.610, 6008.000
1058.714, 6086.000
1059.817, 5993.000
1060.920, 5959.000
1062.022, 6032.000
1063.125, 5955.000
1064.228, 5892.000
1065.330, 6000.000
1066.432, 6019.000
1067.534, 5957.000
1068.636, 6051.000
1069.738, 5972.000
1070.840, 5912.000
1071.941, 5980.000
1073.042, 5939.000
1074.144, 6045.000
1075.245, 6025.000
1076.346, 6001.000
1077.446, 6021.000
1078.547, 6042.000
1079.647, 6034.000
1080.748, 5994.000
1081.848, 6005.000
1082.948, 5991.063
1084.048, 5983.114
1085.148, 5983.000
1086.247, 6003.000
1087.347, 5994.000
1088.446, 6057.000
1089.545, 6038.000
1090.644, 6057.000
1091.743, 6155.000
1092.842, 6160.000
1093.940, 6047.000
1095.039, 6117.000
1096.137, 6200.000
1097.235, 6073.000
1098.333, 6218.000
1099.431, 6120.000
1100.529, 6072.000
1101.627, 6171.000
1102.724, 6103.000
1103.822, 6159.000
1104.919, 6253.000
1106.016, 6108.000
1107.113, 6251.000
1108.209, 6203.000
1109.306, 6220.000
1110.402, 6192.000
1111.499, 6208.000
1112.595, 6217.880
1113.691, 6207.000
1114.787, 6242.000
1115.883, 6308.000
1116.978, 6307.592
1118.074, 6313.000
1119.169, 6392.000
1120.264, 6399.000
1121.359, 6406.000
1122.454, 6300.000
1123.549, 6407.000
1124.644, 6358.000
1125.738, 6384.000
1126.832, 6395.000
1127.927, 6313.000
1129.021, 6116.359
1130.115, 6274.723
1131.208, 6361.941
1132.302, 6381.830
1133.396, 6132.747
1134.489, 6230.990
1135.582, 6190.042
1136.675, 6143.385
1137.768, 6290.513
1138.861, 6080.555
1139.954, 6224.608
1141.046, 6227.351
1142.138, 6294.770
1143.231, 6222.134
1144.323, 6192.760
1145.415, 6303.481
1146.507, 6223.000
1147.598, 6140.000
1148.690, 6222.000
1149.781, 6231.000
1150.872, 6124.000
1151.964, 6135.000
1153.054, 6145.000
1154.145, 6199.000
1155.236, 6245.000
1156.327, 6233.000
1157.417, 6212.000
1158.507, 6150.000
1159.597, 6176.000
1160.687, 6187.000
1161.777, 6201.000
1162.867, 6201.000
1163.956, 6136.000
1165.046, 6067.000
1166.135, 6185.000
1167.224, 6220.000
1168.313, 6139.000
1169.402, 6144.000
1170.491, 6095.000
1171.580, 6159.000
1172.668, 6098.000
1173.756, 6061.000
1174.845, 6150.000
1175.933, 6113.000
1177.020, 6111.000
1178.108, 6108.000
1179.196, 6143.000
1180.283, 6200.000
1181.371, 6174.587
1182.458, 6218.000
1183.545, 6161.000
1184.632, 6142.000
1185.719, 6158.000
1186.805, 6089.000
1187.892, 6139.000
1188.978, 6197.000
1190.065, 6261.000
1191.151, 6213.000
1192.237, 6283.000
1193.323, 6192.000
1194.408, 6256.000
1195.494, 6186.000
1196.579, 6224.000
1197.664, 6214.000
1198.750, 6223.000
1199.835, 6228.000
1200.919, 6208.000
1202.004, 6260.000
1203.089, 6231.000
1204.173, 6288.000
1205.258, 6260.000
1206.342, 6281.000
1207.426, 6255.000
1208.510, 6249.000
1209.594, 6237.000
1210.677, 6303.000
1211.761, 6306.000
1212.844, 6332.343
1213.927, 6365.362
1215.010, 6366.000
1216.093, 6413.000
1217.176, 6401.000
1218.259, 6419.000
1219.341, 6494.000
1220.424, 6517.000
1221.506, 6363.000
1222.588, 6405.000
1223.670, 6310.000
1224.752, 6395.000
1225.834, 6333.000
1226.915, 6472.000
1227.997, 6446.000
1229.078, 6496.000
1230.159, 6390.000
1231.240, 6461.000
1232.321, 6658.000
1233.402, 6568.014
1234.483, 6561.000
1235.563, 6570.000
1236.644, 6571.000
1237.724, 6597.000
1238.804, 6559.000
1239.884, 6526.000
1240.964, 6536.766
1242.044, 6504.000
1243.123, 6534.000
1244.203, 6489.000
1245.282, 6489.000
1246.361, 6611.000
1247.440, 6678.000
1248.519, 6595.000
1249.598, 6642.000
1250.676, 6655.000
1251.755, 6759.000
1252.833, 6717.000
1253.911, 6694.000
1254.989, 6637.000
1256.067, 6750.000
1257.145, 6806.000
1258.223, 6762.000
1259.300, 6701.000
1260.378, 6855.000
1261.455, 6805.000
1262.532, 6807.000
1263.609, 6817.000
1264.686, 6800.000
1265.763, 6884.000
1266.840, 6940.000
1267.916, 7018.000
1268.992, 7024.000
1270.069, 7073.000
1271.145, 7083.000
1272.221, 6969.000
1273.296, 7149.000
1274.372, 7117.000
1275.448, 7184.000
1276.523, 7082.000
1277.598, 7072.000
1278.673, 7184.000
1279.749, 7149.000
1280.823, 7100.000
1281.898, 7175.000
1282.973, 7243.000
1284.047, 7067.000
1285.122, 7151.000
1286.196, 7044.000
1287.270, 7082.000
1288.344, 7023.000
1289.418, 7010.000
1290.491, 7003.000
1291.565, 6959.460
1292.638, 6952.644
1293.712, 6889.000
1294.785, 6898.000
1295.858, 6843.000
1296.931, 6774.000
1298.003, 6822.000
1299.076, 6806.000
1300.149, 6742.000
1301.221, 6757.615
1302.293, 6820.000
1303.365, 6743.000
1304.437, 6714.000
1305.509, 6758.000
1306.581, 6730.000
1307.652, 6718.000
1308.724, 6731.000
1309.795, 6665.000
1310.866, 6698.000
1311.937, 6709.000
1313.008, 6748.000
1314.079, 6714.000
1315.150, 6649.000
1316.220, 6586.000
1317.291, 6608.000
1318.361, 6575.000
1319.431, 6573.000
1320.501, 6516.000
1321.571, 6527.119
1322.641, 6554.000
1323.710, 6546.000
1324.780, 6572.000
1325.849, 6612.000
1326.918, 6562.000
1327.987, 6534.000
1329.056, 6487.000
1330.125, 6555.000
1331.194, 6538.000
1332.263, 6600.000
1333.331, 6526.000
1334.399, 6611.000
1335.467, 6610.000
1336.535, 6521.000
1337.603, 6521.000
1338.671, 6543.000
1339.739, 6572.000
1340.806, 6598.000
1341.874, 6537.000
1342.941, 6589.000
1344.008, 6582.000
1345.075, 6587.000
1346.142, 6496.000
1347.209, 6616.000
1348.275, 6616.000
1349.342, 6492.000
1350.408, 6541.000
1351.475, 6630.000
1352.541, 6650.000
1353.607, 6605.000
1354.673, 6585.000
1355.738, 6644.000
1356.804, 6516.000
1357.869, 6606.000
1358.935, 6583.000
1360.000, 6595.000
1361.065, 6499.000
1362.130, 6603.000
1363.195, 6718.000
1364.259, 6629.000
1365.324, 6716.000
1366.388, 6653.000
1367.453, 6565.000
1368.517, 6601.000
1369.581, 6576.000
1370.645, 6552.000
1371.709, 6577.567
1372.772, 6577.669
1373.836, 6606.000
1374.899, 6610.000
1375.963, 6633.000
1377.026, 6625.000
1378.089, 6627.000
1379.152, 6589.000
1380.214, 6654.000
1381.277, 6617.000
1382.340, 6645.000
1383.402, 6651.000
1384.464, 6578.000
1385.526, 6642.000
1386.588, 6641.000
1387.650, 6597.000
1388.712, 6570.000
1389.774, 6558.000
1390.835, 6527.000
1391.896, 6475.000
1392.958, 6505.000
1394.019, 6506.000
1395.080, 6462.000
1396.141, 6488.000
1397.201, 6456.000
1398.262, 6480.000
1399.323, 6444.571
1400.383, 6436.746
1401.443, 6409.000
1402.503, 6414.000
1403.563, 6471.000
1404.623, 6482.000
1405.683, 6331.000
1406.742, 6436.000
1407.802, 6336.000
1408.861, 6386.000
1409.920, 6377.000
1410.980, 6319.000
1412.039, 6381.000
1413.097, 6393.000
1414.156, 6442.000
1415.215, 6409.000
1416.273, 6391.000
1417.331, 6380.000
1418.390, 6439.000
1419.448, 6376.000
1420.506, 6254.000
1421.564, 6493.000
1422.621, 6328.000
1423.679, 6395.000
1424.736, 6316.000
1425.794, 6398.000
1426.851, 6412.000
1427.908, 6298.000
1428.965, 6292.000
1430.022, 6283.000
1431.079, 6284.000
1432.135, 6327.000
1433.192, 6357.822
1434.248, 6340.812
1435.304, 6343.254
1436.360, 6323.000
1437.416, 6312.000
1438.472, 6330.000
1439.528, 6349.000
1440.583, 6339.000
1441.639, 6386.000
1442.694, 6379.000
1443.749, 6480.000
1444.804, 6332.000
1445.859, 6409.000
1446.914, 6233.000
1447.969, 6522.000
1449.024, 6444.000
1450.078, 6405.000
1451.132, 6365.000
1452.187, 6389.984
1453.241, 6502.000
1454.295, 6467.000
1455.349, 6517.000
1456.402, 6525.000
1457.456, 6509.000
1458.509, 6536.000
1459.563, 6498.000
1460.616, 6525.000
1461.669, 6526.000
1462.722, 6477.000
1463.775, 6636.000
1464.828, 6532.000
1465.880, 6578.000
1466.933, 6521.000
1467.985, 6599.000
1469.037, 6454.000
1470.090, 6491.000
1471.142, 6560.000
1472.193, 6509.000
1473.245, 6520.000
1474.297, 6547.000
1475.348, 6452.000
1476.400, 6551.000
1477.451, 6568.000
1478.502, 6507.000
1479.553, 6544.000
1480.604, 6595.000
1481.655, 6606.000
1482.706, 6604.320
1483.756, 6589.000
1484.807, 6559.000
1485.857, 6559.000
1486.907, 6520.000
1487.957, 6515.000
1489.007, 6567.000
1490.057, 6516.000
1491.106, 6564.000
1492.156, 6552.000
1493.205, 6526.000
1494.255, 6536.000
1495.304, 6492.000
1496.353, 6543.000
1497.402, 6576.000
1498.451, 6572.000
1499.500, 6617.000
1500.548, 6663.000
1501.597, 6619.000
1502.645, 6599.000
1503.693, 6550.000
1504.741, 6592.000
1505.789, 6598.153
1506.837, 6592.000
1507.885, 6655.000
1508.932, 6632.000
1509.980, 6618.000
1511.027, 6647.000
1512.075, 6609.267
1513.122, 6595.375
1514.169, 6553.000
1515.216, 6545.000
1516.262, 6491.000
1517.309, 6483.000
1518.356, 6503.000
1519.402, 6476.000
1520.448, 6482.514
1521.495, 6503.000
1522.541, 6460.000
1523.587, 6487.000
1524.632, 6444.000
1525.678, 6546.000
1526.724, 6454.000
1527.769, 6385.000
1528.814, 6523.000
1529.860, 6379.000
1530.905, 6328.000
1531.950, 6362.000
1532.995, 6279.000
1534.039, 6227.000
1535.084, 6274.000
1536.128, 6215.000
1537.173, 6182.000
1538.217, 6248.000
1539.261, 6357.000
1540.305, 6174.000
1541.349, 6068.000
1542.393, 6117.000
1543.436, 6159.000
1544.480, 6093.000
1545.523, 6125.000
1546.567, 6046.000
1547.610, 6084.000
1548.653, 6118.000
1549.696, 6122.000
1550.739, 6112.504
1551.781, 6115.535
1552.824, 6065.000
1553.867, 6073.000
1554.909, 6068.000
1555.951, 6008.000
1556.993, 5987.645
1558.035, 5915.000
1559.077, 5899.000
1560.119, 5792.000
1561.161, 5754.000
1562.202, 5689.000
1563.243, 5702.000
1564.285, 5597.000
1565.326, 5778.000
##END=



