##NAMES=Cassiterite
##RRUFFID=R060563
##IDEAL CHEMISTRY=SnO_2_
##LOCALITY=unknown
##OWNER=RRUFF
##SOURCE=Gemological Institute of America
##DESCRIPTION=Dark brown fragment
##STATUS=The identification of this mineral has been confirmed by X-ray diffraction and chemical analysis
##URL=rruff.info/R060563
##MEASURED CHEMISTRY=Sn_1.00_O_2_
##PIN_ID=L01474
##ORIENTATION=Laser parallel to c* (0 0 1). Fiducial mark perpendicular to laser is parallel to a [1 0 0]
114.4400, 5677.000
115.6710, 5611.000
116.9030, 5387.000
118.1340, 5516.000
119.3650, 5498.000
120.5960, 5492.000
121.8270, 5478.000
123.0580, 5333.000
124.2880, 5405.000
125.5190, 5202.000
126.7490, 5202.000
127.9790, 5187.000
129.2090, 5131.000
130.4390, 5200.000
131.6680, 5129.000
132.8980, 5227.000
134.1270, 5198.000
135.3560, 5189.000
136.5850, 5274.000
137.8140, 5263.000
139.0430, 5291.000
140.2710, 5248.000
141.5000, 5370.000
142.7280, 5290.000
143.9560, 5323.000
145.1840, 5308.000
146.4120, 5281.000
147.6390, 5316.000
148.8670, 5240.000
150.0940, 5346.000
151.3210, 5337.000
152.5490, 5319.000
153.7750, 5365.000
155.0020, 5408.000
156.2290, 5410.670
157.4550, 5417.082
158.6810, 5398.000
159.9080, 5404.000
161.1340, 5295.000
162.3590, 5313.000
163.5850, 5364.000
164.8110, 5475.000
166.0360, 5307.000
167.2610, 5433.000
168.4860, 5424.000
169.7110, 5443.000
170.9360, 5331.000
172.1610, 5449.000
173.3850, 5388.000
174.6100, 5379.000
175.8340, 5479.000
177.0580, 5410.000
178.2820, 5411.000
179.5050, 5522.000
180.7290, 5479.000
181.9520, 5423.000
183.1760, 5410.000
184.3990, 5495.000
185.6220, 5515.000
186.8450, 5505.000
188.0670, 5586.000
189.2900, 5486.000
190.5120, 5580.000
191.7340, 5563.000
192.9560, 5680.000
194.1780, 5644.000
195.4000, 5762.000
196.6220, 5686.000
197.8430, 5693.000
199.0640, 5769.000
200.2860, 5773.000
201.5070, 5846.000
202.7270, 5791.000
203.9480, 5778.000
205.1690, 5756.000
206.3890, 5735.973
207.6090, 5703.000
208.8290, 5738.000
210.0490, 5808.000
211.2690, 5864.000
212.4890, 5838.000
213.7080, 5955.000
214.9280, 5959.000
216.1470, 6127.000
217.3660, 6133.000
218.5850, 6228.000
219.8030, 6235.000
221.0220, 6360.000
222.2400, 6309.000
223.4590, 6274.000
224.6770, 6244.000
225.8950, 6283.000
227.1120, 6331.000
228.3300, 6349.000
229.5480, 6389.000
230.7650, 6355.000
231.9820, 6440.000
233.1990, 6534.000
234.4160, 6404.000
235.6330, 6605.000
236.8490, 6634.000
238.0660, 6662.000
239.2820, 6719.000
240.4980, 6999.000
241.7140, 7025.000
242.9300, 6871.000
244.1460, 6857.000
245.3610, 6652.000
246.5770, 6544.000
247.7920, 6516.000
249.0070, 6415.000
250.2220, 6385.000
251.4370, 6483.000
252.6510, 6619.000
253.8660, 6553.000
255.0800, 6689.000
256.2940, 6581.000
257.5080, 6731.000
258.7220, 6831.000
259.9360, 7070.000
261.1490, 6750.000
262.3630, 6784.000
263.5760, 6736.000
264.7890, 6838.000
266.0020, 6761.000
267.2150, 6810.000
268.4270, 6842.000
269.6400, 6752.000
270.8520, 6537.000
272.0640, 6703.000
273.2760, 6636.000
274.4880, 6468.000
275.7000, 6502.000
276.9120, 6366.000
278.1230, 6673.910
279.3340, 6598.042
280.5450, 6643.244
281.7560, 6625.000
282.9670, 6668.000
284.1780, 6571.000
285.3880, 6550.000
286.5980, 6531.000
287.8090, 6506.637
289.0190, 6521.386
290.2290, 6534.000
291.4380, 6550.000
292.6480, 6618.000
293.8570, 6622.000
295.0670, 6579.000
296.2760, 6696.000
297.4850, 6737.000
298.6930, 6835.000
299.9020, 6811.000
301.1110, 6777.000
302.3190, 6869.000
303.5270, 6807.000
304.7350, 6806.000
305.9430, 6797.000
307.1510, 6805.000
308.3580, 6823.000
309.5660, 6845.000
310.7730, 7078.000
311.9800, 7098.000
313.1870, 6947.000
314.3940, 6765.000
315.6010, 6876.000
316.8070, 6809.000
318.0130, 6786.000
319.2200, 6922.000
320.4260, 6935.000
321.6310, 7013.000
322.8370, 6996.000
324.0430, 7107.000
325.2480, 6991.000
326.4540, 6997.000
327.6590, 7028.000
328.8640, 7040.000
330.0680, 6996.000
331.2730, 7089.000
332.4780, 7032.000
333.6820, 7232.000
334.8860, 7108.000
336.0900, 6992.000
337.2940, 7104.000
338.4980, 7182.000
339.7010, 7226.000
340.9050, 7260.076
342.1080, 7204.000
343.3110, 7237.000
344.5140, 7214.000
345.7170, 7131.000
346.9200, 7165.000
348.1220, 7120.000
349.3240, 7263.000
350.5270, 7098.000
351.7290, 7106.000
352.9310, 7214.000
354.1320, 7100.000
355.3340, 7203.000
356.5350, 7126.000
357.7370, 7137.000
358.9380, 7133.000
360.1390, 7193.000
361.3400, 7168.962
362.5400, 7174.721
363.7410, 7145.000
364.9410, 7155.000
366.1410, 7127.000
367.3410, 7120.000
368.5410, 7133.000
369.7410, 7216.000
370.9400, 7265.000
372.1400, 7292.000
373.3390, 7173.000
374.5380, 7134.000
375.7370, 7191.000
376.9360, 7316.000
378.1350, 7215.000
379.3330, 7340.000
380.5310, 7311.000
381.7300, 7307.000
382.9280, 7388.000
384.1260, 7394.000
385.3230, 7420.000
386.5210, 7445.000
387.7180, 7427.000
388.9160, 7396.000
390.1130, 7422.000
391.3100, 7417.000
392.5060, 7464.000
393.7030, 7465.000
394.9000, 7510.000
396.0960, 7523.000
397.2920, 7516.000
398.4880, 7498.000
399.6840, 7551.000
400.8800, 7550.000
402.0750, 7481.000
403.2710, 7541.000
404.4660, 7546.000
405.6610, 7555.319
406.8560, 7632.000
408.0510, 7592.000
409.2450, 7636.000
410.4400, 7625.000
411.6340, 7650.000
412.8280, 7686.000
414.0220, 7663.695
415.2160, 7603.000
416.4100, 7620.000
417.6030, 7597.000
418.7970, 7533.000
419.9900, 7546.000
421.1830, 7466.000
422.3760, 7561.000
423.5690, 7585.000
424.7610, 7464.000
425.9540, 7542.000
427.1460, 7594.000
428.3380, 7549.000
429.5300, 7539.000
430.7220, 7698.000
431.9140, 7638.000
433.1050, 7687.000
434.2970, 7605.000
435.4880, 7733.000
436.6790, 7683.000
437.8700, 7695.000
439.0610, 7721.000
440.2510, 7660.000
441.4420, 7648.000
442.6320, 7673.000
443.8220, 7698.000
445.0120, 7605.000
446.2020, 7706.000
447.3910, 7736.000
448.5810, 7746.000
449.7700, 7656.000
450.9600, 7818.000
452.1490, 7668.000
453.3370, 7774.000
454.5260, 7789.000
455.7150, 7728.000
456.9030, 7880.000
458.0910, 7859.000
459.2800, 7905.000
460.4670, 8051.000
461.6550, 8168.000
462.8430, 8293.000
464.0300, 8340.000
465.2180, 8548.000
466.4050, 8637.000
467.5920, 8831.000
468.7790, 8845.000
469.9650, 8906.000
471.1520, 8873.000
472.3380, 8845.402
473.5250, 8812.885
474.7110, 8722.967
475.8970, 8679.590
477.0820, 8543.055
478.2680, 8525.000
479.4540, 8430.000
480.6390, 8309.000
481.8240, 8288.000
483.0090, 8398.000
484.1940, 8343.000
485.3780, 8422.000
486.5630, 8464.000
487.7470, 8518.000
488.9320, 8577.879
490.1160, 8604.421
491.3000, 8683.000
492.4830, 8698.000
493.6670, 8740.000
494.8500, 8746.942
496.0340, 8822.000
497.2170, 8752.000
498.4000, 8771.000
499.5820, 8809.000
500.7650, 8706.000
501.9480, 8651.000
503.1300, 8571.000
504.3120, 8591.000
505.4940, 8390.000
506.6760, 8453.000
507.8580, 8376.000
509.0390, 8291.000
510.2210, 8261.000
511.4020, 8217.000
512.5830, 8121.110
513.7640, 8043.000
514.9450, 7934.000
516.1250, 7857.000
517.3060, 7754.000
518.4860, 7654.000
519.6660, 7590.000
520.8460, 7514.970
522.0260, 7477.000
523.2060, 7427.000
524.3850, 7404.000
525.5650, 7421.000
526.7440, 7599.000
527.9230, 7445.000
529.1020, 7660.000
530.2810, 7694.000
531.4590, 7702.000
532.6380, 7753.000
533.8160, 7845.000
534.9940, 7933.000
536.1720, 8017.225
537.3500, 8144.000
538.5270, 8183.000
539.7050, 8312.000
540.8820, 8344.000
542.0590, 8391.000
543.2360, 8224.000
544.4130, 8163.000
545.5900, 8101.000
546.7660, 8005.000
547.9430, 8080.000
549.1190, 7935.000
550.2950, 8000.000
551.4710, 8039.000
552.6470, 7987.000
553.8220, 8047.000
554.9980, 7816.000
556.1730, 7859.000
557.3480, 7808.000
558.5230, 7792.000
559.6980, 7701.000
560.8730, 7797.000
562.0470, 7712.000
563.2220, 7704.000
564.3960, 7808.000
565.5700, 7643.000
566.7440, 7617.000
567.9170, 7680.000
569.0910, 7586.000
570.2640, 7683.000
571.4380, 7674.000
572.6110, 7613.000
573.7840, 7561.000
574.9570, 7679.000
576.1290, 7499.000
577.3020, 7609.000
578.4740, 7659.000
579.6460, 7525.000
580.8180, 7612.000
581.9900, 7593.000
583.1620, 7735.000
584.3330, 7673.000
585.5040, 7764.000
586.6760, 7659.000
587.8470, 7857.000
589.0180, 7890.000
590.1880, 7888.000
591.3590, 8083.000
592.5290, 8107.000
593.7000, 8168.000
594.8700, 8285.000
596.0400, 8432.000
597.2090, 8540.000
598.3790, 8660.000
599.5490, 8885.000
600.7180, 9044.000
601.8870, 9211.000
603.0560, 9483.000
604.2250, 9715.000
605.3940, 10028.00
606.5620, 10148.00
607.7300, 10351.00
608.8990, 10601.00
610.0670, 10961.55
611.2350, 11406.00
612.4020, 11888.00
613.5700, 12366.00
614.7370, 12995.00
615.9050, 13799.00
617.0720, 14997.00
618.2390, 16086.00
619.4060, 17449.00
620.5720, 19516.00
621.7390, 21921.00
622.9050, 25203.00
624.0710, 29309.39
625.2370, 33796.00
626.4030, 39672.00
627.5690, 45899.00
628.7340, 53013.00
629.9000, 59708.00
631.0650, 64055.00
632.2300, 65535.00
633.3950, 65227.00
634.5600, 60772.00
635.7240, 54281.00
636.8890, 46635.00
638.0530, 39124.00
639.2170, 33273.00
640.3810, 28345.00
641.5450, 24430.00
642.7080, 21505.00
643.8720, 19062.00
645.0350, 17404.00
646.1980, 15933.00
647.3610, 14791.00
648.5240, 13985.00
649.6870, 13241.00
650.8490, 12665.00
652.0120, 12021.00
653.1740, 11683.00
654.3360, 11300.00
655.4980, 11057.00
656.6600, 10730.00
657.8210, 10501.00
658.9830, 10220.00
660.1440, 10135.00
661.3050, 9840.000
662.4660, 9783.000
663.6270, 9590.000
664.7870, 9471.000
665.9480, 9411.000
667.1080, 9332.000
668.2680, 9242.000
669.4280, 9296.000
670.5880, 9217.000
671.7480, 9270.000
672.9070, 9267.000
674.0670, 9112.000
675.2260, 9169.000
676.3850, 9199.000
677.5440, 9166.000
678.7030, 9188.000
679.8610, 9208.000
681.0200, 9048.000
682.1780, 9167.000
683.3360, 9186.000
684.4940, 9221.000
685.6520, 9330.000
686.8090, 9340.000
687.9670, 9496.000
689.1240, 9403.000
690.2810, 9511.000
691.4380, 9700.000
692.5950, 9635.000
693.7520, 9686.000
694.9080, 9698.000
696.0650, 9476.000
697.2210, 9486.000
698.3770, 9190.000
699.5330, 8973.000
700.6880, 8773.000
701.8440, 8536.000
702.9990, 8501.000
704.1550, 8447.000
705.3100, 8402.000
706.4650, 8286.000
707.6190, 8249.000
708.7740, 8244.000
709.9290, 8348.000
711.0830, 8150.000
712.2370, 8294.000
713.3910, 8273.000
714.5450, 8240.000
715.6980, 8328.000
716.8520, 8288.310
718.0050, 8379.000
719.1580, 8293.000
720.3110, 8218.000
721.4640, 8223.000
722.6170, 8226.000
723.7700, 8255.000
724.9220, 8163.000
726.0740, 8099.000
727.2260, 8175.000
728.3780, 8145.000
729.5300, 8321.000
730.6810, 8195.000
731.8330, 8170.000
732.9840, 8101.000
734.1350, 8205.000
735.2860, 8153.000
736.4370, 8171.000
737.5880, 8175.000
738.7380, 8185.000
739.8880, 8252.000
741.0390, 8325.000
742.1890, 8312.000
743.3380, 8362.000
744.4880, 8400.000
745.6380, 8318.000
746.7870, 8302.000
747.9360, 8450.000
749.0850, 8429.000
750.2340, 8582.000
751.3830, 8705.000
752.5310, 8673.000
753.6800, 8886.000
754.8280, 8797.000
755.9760, 9045.000
757.1240, 9339.000
758.2720, 9625.000
759.4190, 9960.000
760.5670, 10432.00
761.7140, 10929.00
762.8610, 11511.00
764.0080, 12547.00
765.1550, 13478.00
766.3020, 14794.00
767.4480, 16154.00
768.5950, 17515.00
769.7410, 19077.00
770.8870, 20454.00
772.0330, 21610.00
773.1780, 22607.00
774.3240, 22781.00
775.4690, 22521.00
776.6140, 22118.00
777.7590, 21128.00
778.9040, 20047.00
780.0490, 18935.00
781.1940, 17803.00
782.3380, 16823.13
783.4820, 15697.00
784.6260, 15046.84
785.7700, 14110.85
786.9140, 13164.00
788.0580, 12694.00
789.2010, 12223.00
790.3450, 11867.00
791.4880, 11533.00
792.6310, 11589.00
793.7730, 11089.00
794.9160, 11160.00
796.0590, 10959.00
797.2010, 10783.00
798.3430, 10593.00
799.4850, 10579.00
800.6270, 10356.00
801.7690, 10267.00
802.9100, 10068.00
804.0520, 10009.00
805.1930, 9869.000
806.3340, 9762.000
807.4750, 9647.000
808.6160, 9584.000
809.7560, 9520.000
810.8970, 9344.000
812.0370, 9161.000
813.1770, 9053.000
814.3170, 8940.541
815.4570, 8834.000
816.5960, 8793.000
817.7360, 8775.111
818.8750, 8598.000
820.0140, 8853.000
821.1530, 9051.000
822.2920, 9188.000
823.4310, 8878.000
824.5690, 8391.000
825.7070, 8181.000
826.8460, 8242.000
827.9840, 8160.000
829.1220, 8128.000
830.2590, 8099.000
831.3970, 8140.000
832.5340, 8091.000
833.6710, 8080.000
834.8080, 8100.460
835.9450, 8092.000
837.0820, 8131.000
838.2190, 8125.000
839.3550, 8147.000
840.4910, 8177.000
841.6270, 8199.305
842.7630, 8233.000
843.8990, 8281.000
845.0350, 8275.000
846.1700, 8339.000
847.3060, 8380.000
848.4410, 8412.000
849.5760, 8376.000
850.7100, 8457.000
851.8450, 8434.000
852.9800, 8469.000
854.1140, 8608.000
855.2480, 8604.000
856.3820, 8579.000
857.5160, 8597.000
858.6500, 8536.000
859.7830, 8630.000
860.9170, 8585.000
862.0500, 8503.000
863.1830, 8489.000
864.3160, 8562.000
865.4480, 8638.000
866.5810, 8523.000
867.7130, 8554.000
868.8460, 8444.000
869.9780, 8585.000
871.1100, 8564.000
872.2410, 8488.000
873.3730, 8472.000
874.5050, 8422.749
875.6360, 8455.000
876.7670, 8368.000
877.8980, 8347.000
879.0290, 8384.000
880.1590, 8314.000
881.2900, 8332.000
882.4200, 8192.000
883.5500, 8271.000
884.6800, 8274.000
885.8100, 8195.000
886.9400, 8088.000
888.0690, 8245.000
889.1990, 8056.000
890.3280, 8115.000
891.4570, 7992.000
892.5860, 8083.000
893.7140, 8002.000
894.8430, 8147.000
895.9710, 8107.000
897.1000, 8031.000
898.2280, 8060.000
899.3560, 8109.000
900.4830, 8026.000
901.6110, 8052.000
902.7380, 7950.000
903.8660, 7935.000
904.9930, 7981.000
906.1200, 7952.000
907.2460, 7933.000
908.3730, 7833.000
909.5000, 7945.000
910.6260, 7980.000
911.7520, 8054.000
912.8780, 7988.000
914.0040, 7947.000
915.1290, 7899.000
916.2550, 7890.982
917.3800, 7895.642
918.5050, 7908.000
919.6300, 7936.000
920.7550, 7975.000
921.8800, 7981.000
923.0040, 7936.000
924.1290, 7937.000
925.2530, 7998.000
926.3770, 8021.000
927.5010, 8034.131
928.6250, 8071.000
929.7480, 8054.000
930.8720, 8026.000
931.9950, 8019.284
933.1180, 8061.000
934.2410, 8018.000
935.3640, 8057.000
936.4860, 8059.000
937.6090, 8162.000
938.7310, 8003.000
939.8530, 8074.000
940.9750, 7999.000
942.0970, 8040.000
943.2180, 8144.000
944.3400, 8032.000
945.4610, 8113.000
946.5820, 8190.000
947.7030, 8140.000
948.8240, 8176.000
949.9450, 8267.000
951.0650, 8222.000
952.1860, 8185.000
953.3060, 8320.000
954.4260, 8216.000
955.5460, 8272.000
956.6650, 8425.000
957.7850, 8237.000
958.9040, 8386.000
960.0230, 8465.000
961.1420, 8420.000
962.2610, 8459.000
963.3800, 8411.000
964.4990, 8335.000
965.6170, 8427.288
966.7350, 8557.000
967.8530, 8538.000
968.9710, 8636.000
970.0890, 8628.000
971.2070, 8687.000
972.3240, 8609.000
973.4410, 8643.000
974.5580, 8659.000
975.6750, 8567.000
976.7920, 8652.000
977.9090, 8569.000
979.0250, 8592.000
980.1410, 8479.000
981.2580, 8551.000
982.3740, 8471.000
983.4890, 8455.000
984.6050, 8513.000
985.7200, 8489.000
986.8360, 8489.000
987.9510, 8475.498
989.0660, 8414.000
990.1810, 8432.000
991.2950, 8434.000
992.4100, 8453.000
993.5240, 8472.553
994.6390, 8464.522
995.7530, 8491.000
996.8660, 8474.000
997.9800, 8422.000
999.0940, 8467.000
1000.207, 8481.000
1001.320, 8512.000
1002.433, 8454.000
1003.546, 8525.000
1004.659, 8532.000
1005.772, 8406.000
1006.884, 8475.000
1007.996, 8533.000
1009.108, 8538.000
1010.220, 8642.000
1011.332, 8604.342
1012.444, 8492.000
1013.555, 8582.000
1014.666, 8580.000
1015.777, 8626.000
1016.888, 8634.720
1017.999, 8635.000
1019.110, 8649.000
1020.220, 8601.000
1021.331, 8647.000
1022.441, 8661.000
1023.551, 8626.000
1024.661, 8727.000
1025.770, 8671.000
1026.880, 8567.000
1027.989, 8647.000
1029.098, 8617.389
1030.207, 8637.000
1031.316, 8682.000
1032.425, 8654.000
1033.533, 8683.000
1034.642, 8767.000
1035.750, 8632.000
1036.858, 8686.000
1037.966, 8761.000
1039.073, 8770.000
1040.181, 8767.000
1041.288, 8656.000
1042.396, 8810.000
1043.503, 8686.000
1044.610, 8768.000
1045.716, 8636.000
1046.823, 8782.000
1047.929, 8604.000
1049.036, 8606.000
1050.142, 8703.000
1051.248, 8624.000
1052.353, 8492.000
1053.459, 8587.000
1054.564, 8463.000
1055.670, 8545.000
1056.775, 8638.000
1057.880, 8647.000
1058.985, 8614.000
1060.089, 8540.000
1061.194, 8648.000
1062.298, 8588.000
1063.402, 8617.000
1064.506, 8644.136
1065.610, 8613.000
1066.713, 8655.000
1067.817, 8629.429
1068.920, 8624.611
1070.023, 8606.000
1071.126, 8602.000
1072.229, 8615.000
1073.332, 8606.000
1074.435, 8523.000
1075.537, 8535.000
1076.639, 8720.000
1077.741, 8620.000
1078.843, 8681.000
1079.945, 8558.000
1081.046, 8555.000
1082.148, 8519.000
1083.249, 8601.000
1084.350, 8681.000
1085.451, 8708.000
1086.551, 8686.000
1087.652, 8707.805
1088.752, 8672.000
1089.853, 8683.000
1090.953, 8654.000
1092.053, 8650.000
1093.152, 8676.000
1094.252, 8616.000
1095.351, 8746.000
1096.451, 8673.000
1097.550, 8724.000
1098.649, 8779.000
1099.748, 8691.000
1100.846, 8736.000
1101.945, 8727.000
1103.043, 8691.000
1104.141, 8668.000
1105.239, 8659.734
1106.337, 8738.000
1107.434, 8683.000
1108.532, 8689.000
1109.629, 8790.000
1110.726, 8725.000
1111.823, 8842.000
1112.920, 8811.000
1114.017, 8932.000
1115.113, 8949.000
1116.210, 8872.000
1117.306, 8914.000
1118.402, 9048.000
1119.498, 9026.000
1120.593, 9040.000
1121.689, 9031.000
1122.784, 9021.139
1123.879, 9036.000
1124.974, 9019.000
1126.069, 9003.000
1127.164, 9037.000
1128.259, 8977.000
1129.353, 9030.000
1130.447, 8978.000
1131.541, 9104.000
1132.635, 8952.000
1133.729, 8863.000
1134.822, 8968.000
1135.916, 9023.000
1137.009, 9039.000
1138.102, 8987.000
1139.195, 8918.000
1140.288, 8905.000
1141.380, 8940.000
1142.473, 8840.000
1143.565, 8900.000
1144.657, 8960.000
1145.749, 8869.000
1146.841, 8899.000
1147.932, 8976.000
1149.024, 8817.000
1150.115, 9048.000
1151.206, 8902.000
1152.297, 9040.000
1153.388, 8940.000
1154.479, 8824.000
1155.569, 9006.000
1156.659, 8829.000
1157.750, 9004.000
1158.839, 8933.000
1159.929, 8927.000
1161.019, 8997.000
1162.108, 9016.000
1163.198, 8922.000
1164.287, 8901.000
1165.376, 8851.000
1166.465, 8907.000
1167.553, 8889.000
1168.642, 8958.000
1169.730, 9031.000
1170.818, 8857.000
1171.906, 8863.000
1172.994, 9005.000
1174.082, 8882.000
1175.170, 9054.000
1176.257, 8808.000
1177.344, 9080.000
1178.431, 8943.000
1179.518, 8847.000
1180.605, 8956.000
1181.691, 8981.000
1182.778, 8998.000
1183.864, 9024.000
1184.950, 8992.000
1186.036, 9014.152
1187.122, 8999.980
1188.207, 9035.000
1189.292, 8975.000
1190.378, 9011.000
1191.463, 8997.000
1192.548, 9036.000
1193.632, 8954.000
1194.717, 8979.000
1195.801, 9029.000
1196.886, 8974.037
1197.970, 9229.000
1199.054, 8964.000
1200.137, 9088.000
1201.221, 9160.000
1202.305, 9031.000
1203.388, 8912.000
1204.471, 9002.000
1205.554, 9047.000
1206.637, 8986.000
1207.719, 9111.000
1208.802, 8997.000
1209.884, 9181.000
1210.966, 9197.000
1212.048, 9168.000
1213.130, 9047.000
1214.212, 9132.000
1215.293, 9140.000
1216.374, 9201.000
1217.456, 9214.000
1218.536, 9199.000
1219.617, 9213.000
1220.698, 9139.000
1221.778, 9070.000
1222.859, 9033.000
1223.939, 9164.000
1225.019, 9196.000
1226.099, 9218.000
1227.178, 9260.000
1228.258, 9252.852
1229.337, 9311.000
1230.417, 9241.000
1231.496, 9250.000
1232.574, 9249.000
1233.653, 9282.000
1234.732, 9282.114
1235.810, 9274.197
1236.888, 9292.000
1237.966, 9285.000
1239.044, 9269.000
1240.122, 9357.000
1241.199, 9230.000
1242.277, 9244.000
1243.354, 9282.000
1244.431, 9395.000
1245.508, 9335.000
1246.585, 9290.000
1247.661, 9308.000
1248.738, 9331.000
1249.814, 9413.000
1250.890, 9340.000
1251.966, 9452.000
1253.042, 9390.000
1254.117, 9302.000
1255.193, 9248.000
1256.268, 9352.000
1257.343, 9324.000
1258.418, 9359.000
1259.493, 9421.000
1260.567, 9338.000
1261.642, 9412.000
1262.716, 9501.000
1263.790, 9413.000
1264.864, 9471.000
1265.938, 9512.000
1267.011, 9379.000
1268.085, 9539.000
1269.158, 9399.000
1270.231, 9420.000
1271.304, 9489.000
1272.377, 9398.000
1273.450, 9454.000
1274.522, 9432.000
1275.594, 9529.000
1276.666, 9377.000
1277.738, 9444.000
1278.810, 9434.000
1279.882, 9524.000
1280.953, 9553.000
1282.025, 9565.259
1283.096, 9432.000
1284.167, 9556.000
1285.238, 9509.000
1286.308, 9423.000
1287.379, 9476.000
1288.449, 9418.000
1289.519, 9414.631
1290.589, 9468.000
1291.659, 9446.000
1292.729, 9449.000
1293.798, 9555.000
1294.868, 9590.000
1295.937, 9576.000
1297.006, 9677.000
1298.075, 9610.000
1299.143, 9589.000
1300.212, 9626.000
1301.280, 9654.000
1302.348, 9653.000
1303.416, 9717.000
1304.484, 9679.000
1305.552, 9548.000
1306.620, 9494.000
1307.687, 9668.000
1308.754, 9529.000
1309.821, 9658.000
1310.888, 9612.000
1311.955, 9661.000
1313.021, 9568.000
1314.088, 9671.000
1315.154, 9496.000
1316.220, 9556.000
1317.286, 9661.000
1318.352, 9616.000
1319.417, 9690.000
1320.483, 9635.000
1321.548, 9616.000
1322.613, 9615.000
1323.678, 9435.000
1324.743, 9560.000
1325.807, 9544.000
1326.872, 9762.000
1327.936, 9707.000
1329.000, 9567.000
1330.064, 9688.000
1331.128, 9776.000
1332.191, 9603.000
1333.255, 9718.000
1334.318, 9503.000
1335.381, 9572.000
1336.444, 9551.000
1337.507, 9674.000
1338.569, 9674.000
1339.632, 9788.000
1340.694, 9628.000
1341.756, 9585.000
1342.818, 9611.000
1343.880, 9626.000
1344.941, 9709.000
1346.003, 9691.000
1347.064, 9553.000
1348.125, 9725.000
1349.186, 9735.000
1350.247, 9850.000
1351.308, 9699.000
1352.368, 9772.000
1353.428, 9723.000
1354.489, 9740.000
1355.549, 9838.000
1356.608, 9677.000
1357.668, 9794.000
1358.727, 9705.000
1359.787, 9712.000
1360.846, 9928.000
1361.905, 9823.000
1362.964, 9867.000
1364.022, 9881.000
1365.081, 10026.00
1366.139, 9822.000
1367.197, 9924.000
1368.255, 9949.000
1369.313, 9863.000
1370.371, 9909.000
1371.428, 9953.000
1372.486, 9966.000
1373.543, 9947.000
1374.600, 9905.000
1375.657, 10078.00
1376.713, 9952.000
1377.770, 10009.00
1378.826, 10074.00
1379.882, 9974.000
1380.938, 9958.000
1381.994, 10083.00
1383.050, 10033.00
1384.106, 10153.00
1385.161, 10103.00
1386.216, 10098.00
1387.271, 10031.00
1388.326, 9999.000
1389.381, 10000.00
1390.435, 10098.00
1391.490, 9980.000
1392.544, 10021.00
1393.598, 10109.00
1394.652, 10063.00
1395.705, 9963.000
1396.759, 9948.000
1397.812, 9892.000
1398.866, 10181.00
1399.919, 10011.00
1400.972, 10054.00
1402.024, 9886.000
1403.077, 10074.00
1404.129, 10084.00
1405.181, 10174.00
1406.233, 9933.000
1407.285, 10121.00
1408.337, 9957.000
1409.389, 9985.000
1410.440, 9975.000
1411.491, 10081.00
1412.542, 10140.00
1413.593, 10079.00
1414.644, 10091.00
1415.695, 10066.00
1416.745, 10087.00
1417.795, 10065.00
1418.845, 10138.00
1419.895, 10048.00
1420.945, 10141.00
1421.995, 10121.00
1423.044, 10163.00
1424.093, 10158.00
1425.142, 10150.00
1426.191, 10122.00
1427.240, 10181.67
1428.289, 10105.00
1429.337, 10309.00
1430.385, 10226.00
1431.433, 10294.00
1432.481, 10272.00
1433.529, 10270.41
1434.577, 10373.00
1435.624, 10306.00
1436.672, 10341.00
1437.719, 10409.00
1438.766, 10315.00
1439.812, 10431.00
1440.859, 10361.00
1441.905, 10432.00
1442.952, 10566.00
1443.998, 10645.00
1445.044, 10546.00
1446.090, 10503.00
1447.135, 10601.00
1448.181, 10622.00
1449.226, 10535.00
1450.271, 10704.00
1451.316, 10755.00
1452.361, 10663.00
1453.405, 10540.00
1454.450, 10617.00
1455.494, 10682.00
1456.538, 10788.00
1457.582, 10749.00
1458.626, 10687.00
1459.670, 10703.00
1460.713, 10675.16
1461.757, 10678.84
1462.800, 10689.00
1463.843, 10717.00
1464.886, 10766.00
1465.928, 10819.00
1466.971, 10803.07
1468.013, 10779.00
1469.055, 10777.00
1470.097, 10830.00
1471.139, 10834.00
1472.181, 10797.00
1473.222, 10747.00
1474.263, 10822.00
1475.305, 10839.00
1476.346, 10874.00
1477.386, 11011.00
1478.427, 10872.00
1479.468, 10891.00
1480.508, 10789.00
1481.548, 10940.00
1482.588, 10888.00
1483.628, 10921.00
1484.668, 10927.00
1485.707, 10922.00
1486.747, 11019.00
1487.786, 10896.00
1488.825, 10928.00
1489.864, 10999.00
1490.902, 11065.00
1491.941, 11037.00
1492.979, 11060.00
1494.017, 10930.00
1495.055, 11059.00
1496.093, 10948.00
1497.131, 11139.00
1498.168, 11074.00
1499.206, 11056.00
1500.243, 11243.00
1501.280, 11187.00
1502.317, 11284.00
1503.354, 11202.00
1504.390, 11094.00
1505.426, 11243.00
1506.463, 11241.00
1507.499, 11354.00
1508.535, 11454.00
1509.570, 11268.00
1510.606, 11331.00
1511.641, 11451.00
1512.676, 11339.00
1513.711, 11480.00
1514.746, 11353.00
1515.781, 11514.00
1516.816, 11469.00
1517.850, 11529.00
1518.884, 11401.00
1519.918, 11439.00
1520.952, 11390.00
1521.986, 11467.00
1523.019, 11352.00
1524.053, 11429.00
1525.086, 11218.00
1526.119, 11355.00
1527.152, 11161.00
1528.185, 11285.00
1529.217, 11382.00
1530.250, 11348.00
1531.282, 11278.00
1532.314, 11277.00
1533.346, 11218.00
1534.377, 11246.00
1535.409, 11243.00
1536.440, 11207.00
1537.472, 11202.07
1538.503, 11188.00
1539.534, 11151.00
1540.564, 11102.00
1541.595, 11084.00
1542.625, 11101.00
1543.656, 10991.00
1544.686, 11078.00
1545.716, 10999.00
1546.745, 11087.00
1547.775, 11141.00
1548.804, 11108.00
1549.834, 11039.00
1550.863, 10941.00
1551.892, 11076.00
1552.920, 10877.00
1553.949, 11080.00
1554.977, 10986.00
1556.006, 10855.00
1557.034, 10793.00
1558.062, 10905.00
1559.089, 10952.00
1560.117, 10871.00
1561.144, 10922.00
1562.172, 10773.00
1563.199, 10959.00
1564.226, 10824.00
1565.252, 10576.00
1566.279, 10709.00
1567.305, 10873.00
1568.332, 10727.00
1569.358, 10840.00
1570.384, 10778.00
##END=



