##NAMES=Cassiterite
##RRUFFID=R060563
##IDEAL CHEMISTRY=SnO_2_
##LOCALITY=unknown
##OWNER=RRUFF
##SOURCE=Gemological Institute of America
##DESCRIPTION=Dark brown fragment
##STATUS=The identification of this mineral has been confirmed by X-ray diffraction and chemical analysis
##URL=rruff.info/R060563
##MEASURED CHEMISTRY=Sn_1.00_O_2_
##PIN_ID=L01330
##ORIENTATION=Laser parallel to -a* (-1 0 0). Fiducial mark perpendicular to laser is parallel to c [0 0 1]
114.4400, 914.0000
115.6710, 951.0000
116.9030, 976.0000
118.1340, 932.0000
119.3650, 1029.000
120.5960, 1055.000
121.8270, 1139.000
123.0580, 1204.000
124.2880, 1226.000
125.5190, 1100.000
126.7490, 1028.000
127.9790, 991.0000
129.2090, 1009.000
130.4390, 1002.000
131.6680, 969.0000
132.8980, 975.0000
134.1270, 1023.000
135.3560, 977.0000
136.5850, 1000.000
137.8140, 990.0000
139.0430, 997.0000
140.2710, 1078.000
141.5000, 1052.000
142.7280, 1022.000
143.9560, 1048.000
145.1840, 999.0000
146.4120, 1002.000
147.6390, 971.0000
148.8670, 988.0000
150.0940, 1010.000
151.3210, 975.0000
152.5490, 998.0000
153.7750, 981.0000
155.0020, 1015.000
156.2290, 991.0000
157.4550, 982.0000
158.6810, 974.0000
159.9080, 968.0000
161.1340, 986.0000
162.3590, 974.0000
163.5850, 1038.000
164.8110, 1006.000
166.0360, 1026.000
167.2610, 1024.000
168.4860, 1013.000
169.7110, 1015.000
170.9360, 968.0000
172.1610, 1011.000
173.3850, 1025.000
174.6100, 966.0000
175.8340, 983.0000
177.0580, 999.0000
178.2820, 966.0000
179.5050, 1012.000
180.7290, 985.0000
181.9520, 973.0000
183.1760, 994.0000
184.3990, 996.0000
185.6220, 984.0000
186.8450, 1030.000
188.0670, 1032.000
189.2900, 1032.000
190.5120, 1020.000
191.7340, 1006.000
192.9560, 1045.000
194.1780, 1050.000
195.4000, 1049.000
196.6220, 1077.000
197.8430, 1078.000
199.0640, 1080.000
200.2860, 1087.000
201.5070, 1084.000
202.7270, 1089.813
203.9480, 1118.000
205.1690, 1085.000
206.3890, 1068.000
207.6090, 1038.000
208.8290, 1089.000
210.0490, 1118.000
211.2690, 1169.000
212.4890, 1217.500
213.7080, 1266.000
214.9280, 1322.000
216.1470, 1406.000
217.3660, 1463.000
218.5850, 1497.000
219.8030, 1518.000
221.0220, 1589.000
222.2400, 1556.000
223.4590, 1538.000
224.6770, 1563.000
225.8950, 1570.000
227.1120, 1555.135
228.3300, 1550.000
229.5480, 1532.000
230.7650, 1528.000
231.9820, 1520.000
233.1990, 1523.000
234.4160, 1526.550
235.6330, 1528.000
236.8490, 1549.000
238.0660, 1591.000
239.2820, 1620.000
240.4980, 1620.000
241.7140, 1661.000
242.9300, 1624.000
244.1460, 1697.000
245.3610, 1702.000
246.5770, 1716.000
247.7920, 1694.000
249.0070, 1753.000
250.2220, 1767.000
251.4370, 1727.000
252.6510, 1778.000
253.8660, 1795.000
255.0800, 1795.000
256.2940, 1776.000
257.5080, 1814.000
258.7220, 1863.000
259.9360, 1928.000
261.1490, 1820.000
262.3630, 1791.000
263.5760, 1777.000
264.7890, 1768.000
266.0020, 1766.000
267.2150, 1805.000
268.4270, 1861.000
269.6400, 1801.000
270.8520, 1796.000
272.0640, 1710.000
273.2760, 1651.000
274.4880, 1559.000
275.7000, 1544.000
276.9120, 1498.000
278.1230, 1441.000
279.3340, 1428.000
280.5450, 1394.000
281.7560, 1468.000
282.9670, 1415.000
284.1780, 1425.000
285.3880, 1381.000
286.5980, 1392.000
287.8090, 1376.675
289.0190, 1364.149
290.2290, 1376.000
291.4380, 1364.000
292.6480, 1402.000
293.8570, 1435.000
295.0670, 1416.000
296.2760, 1445.000
297.4850, 1499.000
298.6930, 1440.000
299.9020, 1488.000
301.1110, 1501.000
302.3190, 1508.000
303.5270, 1519.000
304.7350, 1502.000
305.9430, 1504.844
307.1510, 1492.000
308.3580, 1502.000
309.5660, 1502.000
310.7730, 1526.000
311.9800, 1548.000
313.1870, 1514.000
314.3940, 1547.000
315.6010, 1595.000
316.8070, 1590.000
318.0130, 1560.000
319.2200, 1617.000
320.4260, 1596.000
321.6310, 1665.000
322.8370, 1737.000
324.0430, 1700.000
325.2480, 1749.000
326.4540, 1690.000
327.6590, 1708.000
328.8640, 1713.000
330.0680, 1712.000
331.2730, 1764.000
332.4780, 1690.000
333.6820, 1666.000
334.8860, 1752.000
336.0900, 1694.000
337.2940, 1703.000
338.4980, 1746.000
339.7010, 1716.000
340.9050, 1735.000
342.1080, 1755.000
343.3110, 1717.000
344.5140, 1734.212
345.7170, 1740.000
346.9200, 1717.000
348.1220, 1703.000
349.3240, 1675.000
350.5270, 1670.000
351.7290, 1624.000
352.9310, 1691.000
354.1320, 1677.000
355.3340, 1646.000
356.5350, 1648.000
357.7370, 1611.000
358.9380, 1583.000
360.1390, 1618.000
361.3400, 1631.000
362.5400, 1596.000
363.7410, 1616.000
364.9410, 1611.000
366.1410, 1624.000
367.3410, 1560.000
368.5410, 1645.000
369.7410, 1590.000
370.9400, 1626.000
372.1400, 1564.000
373.3390, 1586.000
374.5380, 1632.000
375.7370, 1645.000
376.9360, 1669.053
378.1350, 1655.000
379.3330, 1698.000
380.5310, 1675.000
381.7300, 1675.000
382.9280, 1688.000
384.1260, 1764.000
385.3230, 1655.000
386.5210, 1756.000
387.7180, 1744.000
388.9160, 1745.000
390.1130, 1733.000
391.3100, 1772.000
392.5060, 1736.000
393.7030, 1772.000
394.9000, 1770.000
396.0960, 1752.000
397.2920, 1758.000
398.4880, 1813.000
399.6840, 1767.000
400.8800, 1828.000
402.0750, 1741.000
403.2710, 1794.000
404.4660, 1790.000
405.6610, 1846.000
406.8560, 1805.000
408.0510, 1843.000
409.2450, 1847.000
410.4400, 1923.000
411.6340, 1901.000
412.8280, 1920.000
414.0220, 1901.000
415.2160, 1862.000
416.4100, 1872.000
417.6030, 1914.000
418.7970, 1846.000
419.9900, 1883.000
421.1830, 1873.000
422.3760, 1881.000
423.5690, 1917.000
424.7610, 1950.000
425.9540, 2003.000
427.1460, 2007.000
428.3380, 2050.000
429.5300, 2101.000
430.7220, 2157.000
431.9140, 2200.934
433.1050, 2280.000
434.2970, 2275.000
435.4880, 2323.000
436.6790, 2315.000
437.8700, 2307.000
439.0610, 2286.000
440.2510, 2251.000
441.4420, 2235.000
442.6320, 2163.000
443.8220, 2167.000
445.0120, 2132.000
446.2020, 2068.000
447.3910, 2134.000
448.5810, 2168.000
449.7700, 2109.000
450.9600, 2155.000
452.1490, 2192.000
453.3370, 2215.000
454.5260, 2211.000
455.7150, 2203.000
456.9030, 2280.000
458.0910, 2267.000
459.2800, 2347.000
460.4670, 2406.000
461.6550, 2470.000
462.8430, 2568.000
464.0300, 2757.000
465.2180, 2879.000
466.4050, 3007.000
467.5920, 3228.000
468.7790, 3269.000
469.9650, 3497.000
471.1520, 3825.000
472.3380, 3989.000
473.5250, 4133.000
474.7110, 4060.000
475.8970, 3890.000
477.0820, 3688.000
478.2680, 3534.000
479.4540, 3385.000
480.6390, 3356.000
481.8240, 3231.000
483.0090, 3297.000
484.1940, 3238.000
485.3780, 3341.000
486.5630, 3471.000
487.7470, 3518.000
488.9320, 3670.000
490.1160, 3690.000
491.3000, 3764.000
492.4830, 3805.000
493.6670, 3885.000
494.8500, 4069.000
496.0340, 4192.000
497.2170, 4248.000
498.4000, 4220.000
499.5820, 4134.000
500.7650, 4075.000
501.9480, 4035.000
503.1300, 3956.000
504.3120, 3914.000
505.4940, 3835.763
506.6760, 3766.296
507.8580, 3673.000
509.0390, 3622.000
510.2210, 3526.000
511.4020, 3460.000
512.5830, 3358.000
513.7640, 3353.000
514.9450, 3214.000
516.1250, 3144.000
517.3060, 2979.000
518.4860, 2891.000
519.6660, 2827.000
520.8460, 2785.000
522.0260, 2662.000
523.2060, 2616.000
524.3850, 2589.000
525.5650, 2604.000
526.7440, 2607.639
527.9230, 2624.000
529.1020, 2680.000
530.2810, 2742.000
531.4590, 2810.000
532.6380, 2855.000
533.8160, 3037.000
534.9940, 3094.000
536.1720, 3266.000
537.3500, 3359.071
538.5270, 3443.672
539.7050, 3498.000
540.8820, 3561.000
542.0590, 3503.000
543.2360, 3447.000
544.4130, 3329.000
545.5900, 3304.000
546.7660, 3142.000
547.9430, 3124.000
549.1190, 3081.000
550.2950, 3010.000
551.4710, 2991.000
552.6470, 2945.000
553.8220, 2961.000
554.9980, 2867.000
556.1730, 2866.000
557.3480, 2753.000
558.5230, 2765.000
559.6980, 2688.000
560.8730, 2608.000
562.0470, 2580.000
563.2220, 2553.000
564.3960, 2541.000
565.5700, 2501.000
566.7440, 2479.743
567.9170, 2466.000
569.0910, 2432.000
570.2640, 2429.000
571.4380, 2424.000
572.6110, 2384.000
573.7840, 2356.000
574.9570, 2392.000
576.1290, 2360.000
577.3020, 2364.000
578.4740, 2346.000
579.6460, 2374.000
580.8180, 2369.000
581.9900, 2337.000
583.1620, 2375.000
584.3330, 2347.000
585.5040, 2429.000
586.6760, 2547.000
587.8470, 2531.000
589.0180, 2529.000
590.1880, 2616.000
591.3590, 2637.000
592.5290, 2712.000
593.7000, 2808.000
594.8700, 2897.000
596.0400, 3008.000
597.2090, 3100.000
598.3790, 3193.000
599.5490, 3314.000
600.7180, 3452.000
601.8870, 3627.000
603.0560, 3881.000
604.2250, 3988.000
605.3940, 4117.000
606.5620, 4408.000
607.7300, 4605.000
608.8990, 4899.000
610.0670, 5309.000
611.2350, 5545.000
612.4020, 6007.000
613.5700, 6530.000
614.7370, 7014.000
615.9050, 7732.000
617.0720, 8732.000
618.2390, 9903.000
619.4060, 11094.00
620.5720, 13007.00
621.7390, 15269.00
622.9050, 18191.00
624.0710, 21869.00
625.2370, 26444.00
626.4030, 31652.00
627.5690, 37767.00
628.7340, 44080.00
629.9000, 50762.00
631.0650, 56193.00
632.2300, 59342.00
633.3950, 59402.00
634.5600, 56002.00
635.7240, 50015.00
636.8890, 42774.00
638.0530, 35321.00
639.2170, 29369.00
640.3810, 23876.00
641.5450, 19942.00
642.7080, 16467.00
643.8720, 14321.00
645.0350, 12318.00
646.1980, 10706.00
647.3610, 9611.000
648.5240, 8797.000
649.6870, 8016.000
650.8490, 7323.000
652.0120, 6704.000
653.1740, 6335.000
654.3360, 6059.000
655.4980, 5634.000
656.6600, 5298.000
657.8210, 5016.000
658.9830, 4776.310
660.1440, 4685.000
661.3050, 4456.000
662.4660, 4413.000
663.6270, 4340.000
664.7870, 4236.000
665.9480, 4140.000
667.1080, 4089.000
668.2680, 3974.000
669.4280, 4006.000
670.5880, 3954.000
671.7480, 4001.000
672.9070, 3967.000
674.0670, 3990.000
675.2260, 3975.963
676.3850, 3876.000
677.5440, 3943.000
678.7030, 3955.000
679.8610, 3945.000
681.0200, 4018.000
682.1780, 4046.000
683.3360, 4083.000
684.4940, 4155.000
685.6520, 4222.409
686.8090, 4302.000
687.9670, 4406.000
689.1240, 4500.000
690.2810, 4612.000
691.4380, 4635.000
692.5950, 4693.000
693.7520, 4686.325
694.9080, 4739.000
696.0650, 4575.000
697.2210, 4427.000
698.3770, 4239.000
699.5330, 3931.000
700.6880, 3590.000
701.8440, 3341.000
702.9990, 3227.000
704.1550, 3014.000
705.3100, 2873.000
706.4650, 2821.000
707.6190, 2666.000
708.7740, 2674.000
709.9290, 2690.000
711.0830, 2666.000
712.2370, 2709.000
713.3910, 2665.000
714.5450, 2676.506
715.6980, 2684.000
716.8520, 2679.000
718.0050, 2705.000
719.1580, 2724.000
720.3110, 2686.000
721.4640, 2604.000
722.6170, 2621.000
723.7700, 2559.000
724.9220, 2510.000
726.0740, 2495.000
727.2260, 2407.000
728.3780, 2424.000
729.5300, 2361.000
730.6810, 2378.000
731.8330, 2346.000
732.9840, 2321.000
734.1350, 2305.000
735.2860, 2298.000
736.4370, 2260.000
737.5880, 2245.000
738.7380, 2218.720
739.8880, 2248.000
741.0390, 2187.000
742.1890, 2146.000
743.3380, 2175.000
744.4880, 2218.000
745.6380, 2144.000
746.7870, 2132.000
747.9360, 2071.000
749.0850, 2071.000
750.2340, 2046.000
751.3830, 2076.000
752.5310, 2016.000
753.6800, 2041.000
754.8280, 2014.000
755.9760, 2013.000
757.1240, 2030.000
758.2720, 2010.000
759.4190, 2042.000
760.5670, 2112.000
761.7140, 2129.000
762.8610, 2240.000
764.0080, 2353.000
765.1550, 2551.000
766.3020, 2782.000
767.4480, 3038.000
768.5950, 3296.000
769.7410, 3588.000
770.8870, 3924.000
772.0330, 4160.000
773.1780, 4339.000
774.3240, 4411.830
775.4690, 4436.000
776.6140, 4317.000
777.7590, 4159.000
778.9040, 3905.000
780.0490, 3696.000
781.1940, 3405.000
782.3380, 3170.000
783.4820, 2943.000
784.6260, 2722.000
785.7700, 2631.000
786.9140, 2511.000
788.0580, 2389.000
789.2010, 2283.000
790.3450, 2175.000
791.4880, 2165.000
792.6310, 2109.000
793.7730, 2032.000
794.9160, 2002.000
796.0590, 1975.200
797.2010, 1992.000
798.3430, 1941.000
799.4850, 1958.000
800.6270, 1913.000
801.7690, 1880.000
802.9100, 1828.000
804.0520, 1846.000
805.1930, 1851.000
806.3340, 1818.000
807.4750, 1818.000
808.6160, 1779.000
809.7560, 1783.000
810.8970, 1763.000
812.0370, 1743.000
813.1770, 1759.000
814.3170, 1766.000
815.4570, 1698.000
816.5960, 1742.000
817.7360, 1671.000
818.8750, 1648.000
820.0140, 1684.000
821.1530, 1622.000
822.2920, 1621.000
823.4310, 1620.000
824.5690, 1610.000
825.7070, 1586.000
826.8460, 1578.000
827.9840, 1582.000
829.1220, 1543.000
830.2590, 1479.000
831.3970, 1473.000
832.5340, 1505.000
833.6710, 1506.000
834.8080, 1522.000
835.9450, 1598.000
837.0820, 1592.000
838.2190, 1624.000
839.3550, 1605.000
840.4910, 1690.000
841.6270, 1725.000
842.7630, 1760.000
843.8990, 1770.000
845.0350, 1890.000
846.1700, 1923.000
847.3060, 1902.000
848.4410, 1975.000
849.5760, 1915.000
850.7100, 1969.000
851.8450, 1941.000
852.9800, 1923.000
854.1140, 1917.000
855.2480, 1953.000
856.3820, 1957.000
857.5160, 1966.000
858.6500, 1990.000
859.7830, 1970.000
860.9170, 1988.000
862.0500, 2065.000
863.1830, 2037.000
864.3160, 1961.000
865.4480, 1935.000
866.5810, 1852.000
867.7130, 1869.000
868.8460, 1868.000
869.9780, 1810.000
871.1100, 1828.000
872.2410, 1808.000
873.3730, 1712.000
874.5050, 1724.000
875.6360, 1673.000
876.7670, 1669.000
877.8980, 1637.000
879.0290, 1562.000
880.1590, 1566.000
881.2900, 1529.000
882.4200, 1515.000
883.5500, 1442.000
884.6800, 1476.000
885.8100, 1443.000
886.9400, 1347.000
888.0690, 1369.000
889.1990, 1338.000
890.3280, 1332.000
891.4570, 1277.000
892.5860, 1273.000
893.7140, 1275.000
894.8430, 1214.000
895.9710, 1281.000
897.1000, 1206.000
898.2280, 1198.000
899.3560, 1155.000
900.4830, 1132.000
901.6110, 1139.000
902.7380, 1157.000
903.8660, 1149.000
904.9930, 1148.000
906.1200, 1136.000
907.2460, 1134.000
908.3730, 1118.000
909.5000, 1109.000
910.6260, 1118.000
911.7520, 1101.000
912.8780, 1146.000
914.0040, 1082.000
915.1290, 1085.000
916.2550, 1088.000
917.3800, 1126.000
918.5050, 1101.000
919.6300, 1124.000
920.7550, 1075.000
921.8800, 1110.000
923.0040, 1074.000
924.1290, 1057.000
925.2530, 1103.000
926.3770, 1090.000
927.5010, 1102.000
928.6250, 1097.000
929.7480, 1105.000
930.8720, 1106.000
931.9950, 1128.000
933.1180, 1104.000
934.2410, 1125.000
935.3640, 1087.000
936.4860, 1139.000
937.6090, 1100.000
938.7310, 1143.000
939.8530, 1098.000
940.9750, 1165.000
942.0970, 1159.000
943.2180, 1157.000
944.3400, 1155.000
945.4610, 1156.000
946.5820, 1157.000
947.7030, 1177.000
948.8240, 1195.000
949.9450, 1186.000
951.0650, 1247.000
952.1860, 1217.000
953.3060, 1211.000
954.4260, 1277.000
955.5460, 1311.000
956.6650, 1302.000
957.7850, 1329.000
958.9040, 1336.000
960.0230, 1333.000
961.1420, 1343.000
962.2610, 1418.000
963.3800, 1384.000
964.4990, 1471.000
965.6170, 1475.000
966.7350, 1479.000
967.8530, 1536.000
968.9710, 1509.000
970.0890, 1527.000
971.2070, 1594.000
972.3240, 1572.000
973.4410, 1537.000
974.5580, 1557.000
975.6750, 1506.000
976.7920, 1542.000
977.9090, 1468.000
979.0250, 1438.000
980.1410, 1437.000
981.2580, 1381.000
982.3740, 1366.000
983.4890, 1337.000
984.6050, 1281.000
985.7200, 1321.000
986.8360, 1248.000
987.9510, 1231.000
989.0660, 1193.000
990.1810, 1206.000
991.2950, 1151.000
992.4100, 1168.000
993.5240, 1159.000
994.6390, 1165.000
995.7530, 1183.000
996.8660, 1174.000
997.9800, 1173.000
999.0940, 1133.000
1000.207, 1188.000
1001.320, 1149.000
1002.433, 1163.000
1003.546, 1193.000
1004.659, 1174.000
1005.772, 1214.000
1006.884, 1177.000
1007.996, 1162.000
1009.108, 1177.000
1010.220, 1171.000
1011.332, 1168.000
1012.444, 1214.000
1013.555, 1215.000
1014.666, 1211.000
1015.777, 1188.000
1016.888, 1201.000
1017.999, 1191.000
1019.110, 1185.000
1020.220, 1180.000
1021.331, 1197.000
1022.441, 1213.000
1023.551, 1189.000
1024.661, 1216.000
1025.770, 1182.000
1026.880, 1215.000
1027.989, 1212.000
1029.098, 1249.000
1030.207, 1218.000
1031.316, 1240.000
1032.425, 1256.000
1033.533, 1230.000
1034.642, 1227.000
1035.750, 1226.000
1036.858, 1254.000
1037.966, 1218.000
1039.073, 1285.000
1040.181, 1234.000
1041.288, 1260.000
1042.396, 1199.000
1043.503, 1213.000
1044.610, 1194.000
1045.716, 1131.000
1046.823, 1157.000
1047.929, 1138.000
1049.036, 1129.000
1050.142, 1150.000
1051.248, 1103.000
1052.353, 1098.000
1053.459, 1065.000
1054.564, 1029.000
1055.670, 1043.000
1056.775, 1021.000
1057.880, 1029.000
1058.985, 997.0000
1060.089, 984.0000
1061.194, 1007.000
1062.298, 998.0000
1063.402, 991.0000
1064.506, 983.0000
1065.610, 980.0000
1066.713, 986.0000
1067.817, 1004.000
1068.920, 953.0000
1070.023, 976.0000
1071.126, 985.0000
1072.229, 933.0000
1073.332, 928.0000
1074.435, 947.0000
1075.537, 960.0000
1076.639, 964.0000
1077.741, 974.0000
1078.843, 970.0000
1079.945, 977.0000
1081.046, 977.6498
1082.148, 962.0000
1083.249, 979.0000
1084.350, 970.0000
1085.451, 970.0000
1086.551, 1017.000
1087.652, 1016.000
1088.752, 996.0000
1089.853, 957.0000
1090.953, 996.0000
1092.053, 1022.000
1093.152, 1039.000
1094.252, 1000.000
1095.351, 1009.000
1096.451, 1009.000
1097.550, 1039.000
1098.649, 1036.000
1099.748, 1041.550
1100.846, 1055.000
1101.945, 1041.000
1103.043, 1059.000
1104.141, 1058.000
1105.239, 1031.000
1106.337, 1034.000
1107.434, 1034.000
1108.532, 1035.621
1109.629, 1041.683
1110.726, 1061.000
1111.823, 1086.000
1112.920, 1110.000
1114.017, 1136.095
1115.113, 1186.000
1116.210, 1192.000
1117.306, 1246.000
1118.402, 1277.000
1119.498, 1339.000
1120.593, 1337.000
1121.689, 1415.000
1122.784, 1434.000
1123.879, 1388.000
1124.974, 1378.000
1126.069, 1364.944
1127.164, 1356.000
1128.259, 1327.000
1129.353, 1303.000
1130.447, 1276.000
1131.541, 1253.370
1132.635, 1233.000
1133.729, 1214.000
1134.822, 1230.000
1135.916, 1223.000
1137.009, 1227.000
1138.102, 1158.000
1139.195, 1174.000
1140.288, 1147.000
1141.380, 1119.000
1142.473, 1174.000
1143.565, 1137.000
1144.657, 1129.000
1145.749, 1129.000
1146.841, 1139.000
1147.932, 1082.000
1149.024, 1121.000
1150.115, 1108.000
1151.206, 1106.000
1152.297, 1132.000
1153.388, 1072.000
1154.479, 1102.000
1155.569, 1077.000
1156.659, 1055.000
1157.750, 1034.000
1158.839, 1031.000
1159.929, 1011.000
1161.019, 1014.000
1162.108, 1005.000
1163.198, 975.0000
1164.287, 1015.000
1165.376, 988.0000
1166.465, 1011.000
1167.553, 970.0000
1168.642, 985.0000
1169.730, 979.0000
1170.818, 967.0000
1171.906, 965.0000
1172.994, 984.0000
1174.082, 996.0000
1175.170, 973.0000
1176.257, 971.0000
1177.344, 953.0000
1178.431, 970.0000
1179.518, 953.0000
1180.605, 978.0000
1181.691, 986.0000
1182.778, 929.0000
1183.864, 984.0000
1184.950, 954.0000
1186.036, 958.0000
1187.122, 929.0000
1188.207, 956.0000
1189.292, 929.0000
1190.378, 951.0000
1191.463, 994.0000
1192.548, 950.0000
1193.632, 933.0000
1194.717, 912.0000
1195.801, 953.0000
1196.886, 904.0000
1197.970, 928.0000
1199.054, 935.0000
1200.137, 934.0000
1201.221, 931.0000
1202.305, 947.0000
1203.388, 935.8245
1204.471, 919.0000
1205.554, 926.0000
1206.637, 931.0000
1207.719, 931.0000
1208.802, 962.0000
1209.884, 931.0000
1210.966, 983.0000
1212.048, 978.0000
1213.130, 969.0000
1214.212, 951.0000
1215.293, 988.0000
1216.374, 1001.000
1217.456, 1005.000
1218.536, 997.0000
1219.617, 995.0000
1220.698, 1021.000
1221.778, 1044.000
1222.859, 1024.000
1223.939, 1051.000
1225.019, 1036.000
1226.099, 1059.000
1227.178, 1053.000
1228.258, 1050.000
1229.337, 1052.000
1230.417, 1043.000
1231.496, 1064.000
1232.574, 1040.000
1233.653, 1104.000
1234.732, 1080.000
1235.810, 1087.000
1236.888, 1076.000
1237.966, 1054.000
1239.044, 1055.000
1240.122, 1070.000
1241.199, 1082.000
1242.277, 1107.000
1243.354, 1088.000
1244.431, 1078.000
1245.508, 1092.000
1246.585, 1082.000
1247.661, 1100.000
1248.738, 1102.000
1249.814, 1099.000
1250.890, 1105.000
1251.966, 1105.000
1253.042, 1112.133
1254.117, 1115.329
1255.193, 1127.000
1256.268, 1126.000
1257.343, 1130.000
1258.418, 1140.000
1259.493, 1137.000
1260.567, 1110.000
1261.642, 1114.000
1262.716, 1090.000
1263.790, 1121.000
1264.864, 1113.000
1265.938, 1115.000
1267.011, 1159.000
1268.085, 1157.000
1269.158, 1141.000
1270.231, 1141.000
1271.304, 1189.000
1272.377, 1110.000
1273.450, 1148.000
1274.522, 1123.000
1275.594, 1171.000
1276.666, 1153.000
1277.738, 1180.000
1278.810, 1161.000
1279.882, 1171.000
1280.953, 1159.000
1282.025, 1170.000
1283.096, 1181.000
1284.167, 1175.000
1285.238, 1166.000
1286.308, 1175.000
1287.379, 1186.000
1288.449, 1163.000
1289.519, 1159.000
1290.589, 1188.000
1291.659, 1200.000
1292.729, 1182.000
1293.798, 1211.000
1294.868, 1191.000
1295.937, 1213.000
1297.006, 1170.000
1298.075, 1194.000
1299.143, 1174.000
1300.212, 1212.000
1301.280, 1200.000
1302.348, 1201.000
1303.416, 1196.000
1304.484, 1168.000
1305.552, 1225.000
1306.620, 1225.000
1307.687, 1209.000
1308.754, 1159.000
1309.821, 1185.000
1310.888, 1179.000
1311.955, 1171.000
1313.021, 1160.000
1314.088, 1156.000
1315.154, 1156.000
1316.220, 1134.000
1317.286, 1140.000
1318.352, 1104.000
1319.417, 1121.000
1320.483, 1097.000
1321.548, 1088.000
1322.613, 1113.000
1323.678, 1084.000
1324.743, 1059.000
1325.807, 1061.000
1326.872, 1079.000
1327.936, 1086.000
1329.000, 1082.000
1330.064, 1058.000
1331.128, 1076.000
1332.191, 1066.000
1333.255, 1087.000
1334.318, 1091.000
1335.381, 1089.137
1336.444, 1055.000
1337.507, 1078.000
1338.569, 1046.000
1339.632, 1017.000
1340.694, 1081.000
1341.756, 1055.000
1342.818, 1051.000
1343.880, 1012.000
1344.941, 1048.000
1346.003, 1031.000
1347.064, 1049.000
1348.125, 1040.000
1349.186, 1019.000
1350.247, 1053.000
1351.308, 1037.000
1352.368, 1092.000
1353.428, 1068.000
1354.489, 1029.000
1355.549, 1022.000
1356.608, 1050.000
1357.668, 1036.000
1358.727, 1073.000
1359.787, 1102.000
1360.846, 1086.000
1361.905, 1112.000
1362.964, 1107.000
1364.022, 1100.000
1365.081, 1121.000
1366.139, 1158.000
1367.197, 1180.000
1368.255, 1167.000
1369.313, 1167.000
1370.371, 1193.000
1371.428, 1208.000
1372.486, 1192.000
1373.543, 1215.000
1374.600, 1261.000
1375.657, 1226.000
1376.713, 1228.000
1377.770, 1256.000
1378.826, 1235.000
1379.882, 1261.000
1380.938, 1219.000
1381.994, 1237.000
1383.050, 1228.000
1384.106, 1214.000
1385.161, 1241.000
1386.216, 1220.000
1387.271, 1188.000
1388.326, 1180.000
1389.381, 1205.000
1390.435, 1157.000
1391.490, 1167.000
1392.544, 1159.000
1393.598, 1147.000
1394.652, 1143.000
1395.705, 1134.666
1396.759, 1135.000
1397.812, 1114.000
1398.866, 1106.000
1399.919, 1078.000
1400.972, 1081.000
1402.024, 1087.000
1403.077, 1098.000
1404.129, 1103.000
1405.181, 1041.000
1406.233, 1067.000
1407.285, 1055.000
1408.337, 1050.000
1409.389, 1051.000
1410.440, 1048.000
1411.491, 1077.000
1412.542, 1059.000
1413.593, 1078.000
1414.644, 1092.000
1415.695, 1081.000
1416.745, 1077.000
1417.795, 1084.000
1418.845, 1052.000
1419.895, 1073.000
1420.945, 1070.000
1421.995, 1099.000
1423.044, 1084.000
1424.093, 1071.000
1425.142, 1081.000
1426.191, 1125.000
1427.240, 1109.000
1428.289, 1149.000
1429.337, 1140.000
1430.385, 1106.000
1431.433, 1137.000
1432.481, 1159.000
1433.529, 1142.000
1434.577, 1142.000
1435.624, 1198.000
1436.672, 1178.000
1437.719, 1181.000
1438.766, 1252.000
1439.812, 1200.000
1440.859, 1222.000
1441.905, 1229.000
1442.952, 1249.000
1443.998, 1264.000
1445.044, 1247.000
1446.090, 1236.000
1447.135, 1276.000
1448.181, 1254.000
1449.226, 1285.000
1450.271, 1308.000
1451.316, 1318.000
1452.361, 1359.000
1453.405, 1365.927
1454.450, 1347.000
1455.494, 1384.000
1456.538, 1372.000
1457.582, 1359.000
1458.626, 1369.000
1459.670, 1386.000
1460.713, 1377.000
1461.757, 1398.000
1462.800, 1365.000
1463.843, 1406.000
1464.886, 1440.000
1465.928, 1420.000
1466.971, 1416.000
1468.013, 1453.000
1469.055, 1437.000
1470.097, 1453.000
1471.139, 1455.000
1472.181, 1435.000
1473.222, 1468.000
1474.263, 1455.000
1475.305, 1427.000
1476.346, 1438.000
1477.386, 1500.000
1478.427, 1474.000
1479.468, 1525.000
1480.508, 1503.000
1481.548, 1522.000
1482.588, 1458.000
1483.628, 1526.000
1484.668, 1521.000
1485.707, 1558.000
1486.747, 1588.000
1487.786, 1589.704
1488.825, 1609.272
1489.864, 1610.000
1490.902, 1600.000
1491.941, 1615.000
1492.979, 1568.000
1494.017, 1629.000
1495.055, 1587.000
1496.093, 1664.000
1497.131, 1690.000
1498.168, 1641.000
1499.206, 1724.000
1500.243, 1735.000
1501.280, 1750.000
1502.317, 1736.000
1503.354, 1783.000
1504.390, 1755.000
1505.426, 1748.000
1506.463, 1837.000
1507.499, 1836.000
1508.535, 1836.000
1509.570, 1821.000
1510.606, 1829.000
1511.641, 1818.000
1512.676, 1841.000
1513.711, 1867.000
1514.746, 1845.000
1515.781, 1814.000
1516.816, 1849.000
1517.850, 1846.000
1518.884, 1857.000
1519.918, 1779.000
1520.952, 1818.000
1521.986, 1807.000
1523.019, 1774.000
1524.053, 1815.000
1525.086, 1770.000
1526.119, 1755.000
1527.152, 1725.000
1528.185, 1662.000
1529.217, 1689.000
1530.250, 1643.000
1531.282, 1629.000
1532.314, 1695.000
1533.346, 1679.000
1534.377, 1665.000
1535.409, 1651.000
1536.440, 1638.000
1537.472, 1621.000
1538.503, 1599.000
1539.534, 1562.000
1540.564, 1616.000
1541.595, 1558.000
1542.625, 1546.000
1543.656, 1569.000
1544.686, 1534.000
1545.716, 1545.000
1546.745, 1517.344
1547.775, 1456.000
1548.804, 1469.000
1549.834, 1444.000
1550.863, 1441.000
1551.892, 1427.647
1552.920, 1412.000
1553.949, 1390.000
1554.977, 1364.000
1556.006, 1334.000
1557.034, 1327.000
1558.062, 1309.034
1559.089, 1286.000
1560.117, 1277.000
1561.144, 1267.000
1562.172, 1222.000
1563.199, 1215.000
1564.226, 1186.000
1565.252, 1146.000
1566.279, 1135.000
1567.305, 1158.000
1568.332, 1110.000
1569.358, 1085.000
1570.384, 1146.000
##END=



