##NAMES=Catapleiite
##RRUFFID=R060208
##IDEAL CHEMISTRY=Na_2_Zr^4+^Si_3_O_9_&#183;2H_2_O
##LOCALITY=Mont Saint-Hilaire, Rouville County, Quebec, Canada
##OWNER=RRUFF
##SOURCE=Royal Ontario Museum
##DESCRIPTION=Colorless transparent thin tabular pseudohexagonal crystal
##STATUS=The identification of this mineral is confirmed by single-crystal X-ray diffraction and chemical analysis.
##URL=rruff.info/R060208
##MEASURED CHEMISTRY=Na_2.00_Zr_1.00_Si_3.00_O_9_Â·2H_2_O
##PIN_ID=M00973
##ORIENTATION=Laser parallel to (-1 0 -1). Fiducial mark perpendicular to laser is parallel to -b [0 -1 0]
99.34500, 4579.000
100.5820, 4839.000
101.8200, 5061.000
103.0570, 5284.000
104.2940, 5617.000
105.5310, 5864.000
106.7680, 6115.000
108.0040, 6425.260
109.2410, 6659.468
110.4770, 7020.000
111.7130, 7118.000
112.9490, 7426.000
114.1850, 7548.000
115.4200, 7807.000
116.6560, 7865.000
117.8910, 7922.000
119.1260, 8017.000
120.3610, 8091.000
121.5960, 8139.000
122.8300, 8313.000
124.0640, 8460.000
125.2990, 8548.000
126.5330, 8647.796
127.7670, 8820.000
129.0000, 8786.000
130.2340, 8751.000
131.4670, 8838.000
132.7000, 8731.000
133.9330, 8875.000
135.1660, 8749.000
136.3990, 8998.000
137.6310, 8753.000
138.8640, 8850.000
140.0960, 8913.000
141.3280, 8792.000
142.5600, 8772.000
143.7910, 8783.000
145.0230, 8810.000
146.2540, 8958.000
147.4850, 9009.000
148.7160, 8994.000
149.9470, 9093.000
151.1780, 9117.000
152.4080, 9216.000
153.6380, 9290.000
154.8690, 9277.000
156.0980, 9386.000
157.3280, 9309.000
158.5580, 9352.000
159.7870, 9131.000
161.0170, 9284.000
162.2460, 9242.000
163.4750, 9375.000
164.7030, 9342.000
165.9320, 9239.000
167.1600, 9357.000
168.3890, 9194.000
169.6170, 9419.000
170.8450, 9303.000
172.0730, 9299.000
173.3000, 9430.000
174.5280, 9399.000
175.7550, 9490.000
176.9820, 9655.000
178.2090, 9519.000
179.4350, 9746.000
180.6620, 9865.000
181.8880, 9929.000
183.1150, 10087.80
184.3410, 10216.00
185.5670, 10313.00
186.7920, 10450.00
188.0180, 10587.00
189.2430, 10698.00
190.4690, 10987.00
191.6940, 11202.00
192.9180, 11424.00
194.1430, 11783.00
195.3680, 11967.00
196.5920, 12436.00
197.8160, 12630.00
199.0400, 12715.00
200.2640, 13202.00
201.4880, 13307.00
202.7110, 13675.00
203.9350, 13754.00
205.1580, 13840.00
206.3810, 13991.00
207.6040, 14064.00
208.8270, 14244.00
210.0490, 14165.00
211.2710, 14124.00
212.4940, 13981.00
213.7160, 13543.00
214.9370, 13347.00
216.1590, 12711.00
217.3810, 12208.00
218.6020, 11546.00
219.8230, 10907.00
221.0440, 10357.00
222.2650, 9745.000
223.4860, 9316.000
224.7060, 8838.000
225.9260, 8336.000
227.1470, 8221.000
228.3670, 7891.000
229.5860, 7487.000
230.8060, 7345.000
232.0260, 7049.000
233.2450, 6844.000
234.4640, 6817.000
235.6830, 6618.000
236.9020, 6591.000
238.1200, 6358.000
239.3390, 6376.000
240.5570, 6219.000
241.7750, 6174.000
242.9930, 6056.000
244.2110, 6068.000
245.4290, 6020.000
246.6460, 5972.000
247.8630, 5936.000
249.0810, 5867.000
250.2980, 5883.000
251.5140, 5871.000
252.7310, 5855.000
253.9470, 5899.000
255.1640, 5926.000
256.3800, 5881.000
257.5960, 5933.000
258.8120, 5998.000
260.0270, 6069.000
261.2430, 6003.000
262.4580, 5926.000
263.6730, 5886.000
264.8880, 5875.000
266.1030, 5755.000
267.3170, 5689.000
268.5320, 5713.000
269.7460, 5639.000
270.9600, 5603.000
272.1740, 5566.000
273.3880, 5561.000
274.6010, 5543.000
275.8150, 5530.847
277.0280, 5601.000
278.2410, 5531.000
279.4540, 5521.000
280.6670, 5552.000
281.8790, 5644.000
283.0920, 5620.000
284.3040, 5699.000
285.5160, 5693.000
286.7280, 5756.335
287.9400, 5862.000
289.1510, 5842.000
290.3630, 5999.000
291.5740, 5958.000
292.7850, 6017.000
293.9960, 6241.000
295.2070, 6110.000
296.4170, 6196.000
297.6280, 6191.000
298.8380, 6177.000
300.0480, 6153.000
301.2580, 6176.000
302.4680, 6043.000
303.6770, 6130.000
304.8870, 5974.000
306.0960, 6116.000
307.3050, 5996.000
308.5140, 6159.000
309.7230, 6069.000
310.9310, 6013.000
312.1400, 6095.000
313.3480, 6062.000
314.5560, 6028.000
315.7640, 6090.000
316.9720, 6169.000
318.1790, 6194.000
319.3870, 6278.000
320.5940, 6179.000
321.8010, 6175.000
323.0080, 6299.000
324.2150, 6401.000
325.4210, 6370.000
326.6280, 6321.000
327.8340, 6269.000
329.0400, 6420.000
330.2460, 6360.000
331.4510, 6321.000
332.6570, 6149.000
333.8620, 6265.000
335.0680, 6229.000
336.2730, 6177.000
337.4780, 6168.000
338.6820, 6054.000
339.8870, 6041.000
341.0910, 5979.000
342.2950, 5935.469
343.5000, 5976.000
344.7030, 5928.000
345.9070, 5947.000
347.1110, 6068.000
348.3140, 6093.000
349.5170, 6083.000
350.7200, 6139.000
351.9230, 6294.000
353.1260, 6393.000
354.3290, 6499.000
355.5310, 6498.000
356.7330, 6704.000
357.9350, 6751.000
359.1370, 6863.000
360.3390, 7133.000
361.5400, 7201.000
362.7420, 7143.000
363.9430, 7264.000
365.1440, 7170.000
366.3450, 7168.000
367.5460, 6965.000
368.7460, 7046.000
369.9470, 6962.000
371.1470, 6884.000
372.3470, 6918.000
373.5470, 6884.000
374.7460, 6774.000
375.9460, 6583.000
377.1450, 6551.000
378.3450, 6434.000
379.5440, 6436.000
380.7430, 6491.000
381.9410, 6521.000
383.1400, 6421.000
384.3380, 6432.000
385.5370, 6431.000
386.7350, 6401.000
387.9320, 6418.486
389.1300, 6406.347
390.3280, 6429.000
391.5250, 6423.000
392.7220, 6428.000
393.9190, 6481.000
395.1160, 6460.000
396.3130, 6484.000
397.5100, 6543.000
398.7060, 6576.868
399.9020, 6652.000
401.0980, 6719.000
402.2940, 6814.000
403.4900, 6922.000
404.6860, 7055.000
405.8810, 7223.000
407.0760, 7378.000
408.2710, 7548.000
409.4660, 7721.000
410.6610, 7970.000
411.8550, 8330.000
413.0500, 8751.000
414.2440, 8971.000
415.4380, 9599.000
416.6320, 10129.00
417.8260, 10905.00
419.0190, 11547.00
420.2130, 12550.00
421.4060, 13636.00
422.5990, 14867.00
423.7920, 16042.00
424.9850, 17460.00
426.1770, 18630.00
427.3700, 19993.00
428.5620, 20565.00
429.7540, 20748.00
430.9460, 20817.00
432.1380, 20080.00
433.3290, 19262.00
434.5210, 17892.00
435.7120, 16462.00
436.9030, 14945.00
438.0940, 13859.00
439.2850, 12670.00
440.4750, 11951.00
441.6660, 11097.00
442.8560, 10452.00
444.0460, 9853.000
445.2360, 9475.000
446.4260, 9118.000
447.6160, 8716.000
448.8050, 8516.000
449.9940, 8195.000
451.1830, 8102.000
452.3720, 7813.000
453.5610, 7752.000
454.7500, 7597.000
455.9380, 7575.000
457.1260, 7439.225
458.3150, 7284.000
459.5020, 7197.000
460.6900, 7133.000
461.8780, 6992.000
463.0650, 7066.000
464.2530, 7059.000
465.4400, 6921.000
466.6270, 6918.000
467.8130, 6974.000
469.0000, 6900.000
470.1870, 6873.000
471.3730, 6877.000
472.5590, 6788.000
473.7450, 6831.000
474.9310, 6768.000
476.1160, 6795.000
477.3020, 6706.000
478.4870, 6714.000
479.6720, 6705.000
480.8570, 6782.000
482.0420, 6643.000
483.2270, 6819.000
484.4110, 7062.000
485.5960, 6722.000
486.7800, 6772.000
487.9640, 6932.000
489.1480, 6756.000
490.3310, 6832.000
491.5150, 6799.000
492.6980, 6790.000
493.8810, 6930.000
495.0640, 6810.000
496.2470, 6993.000
497.4300, 7038.000
498.6120, 7011.000
499.7950, 7024.000
500.9770, 7077.000
502.1590, 7281.000
503.3410, 7255.000
504.5220, 7368.000
505.7040, 7515.000
506.8850, 7512.000
508.0660, 7675.000
509.2470, 7793.000
510.4280, 7906.000
511.6090, 7982.000
512.7890, 8283.000
513.9700, 8401.000
515.1500, 8687.000
516.3300, 8750.000
517.5100, 9133.000
518.6900, 9214.000
519.8690, 9388.000
521.0490, 9499.023
522.2280, 9546.000
523.4070, 9610.000
524.5860, 9578.527
525.7640, 9524.000
526.9430, 9413.000
528.1210, 9303.000
529.3000, 9196.131
530.4780, 8930.000
531.6560, 8941.000
532.8330, 8762.000
534.0110, 8618.000
535.1880, 8553.000
536.3650, 8297.000
537.5430, 8343.000
538.7190, 8230.000
539.8960, 8071.000
541.0730, 8200.000
542.2490, 8077.000
543.4250, 7968.000
544.6020, 8021.000
545.7780, 7921.000
546.9530, 7933.041
548.1290, 7965.000
549.3040, 7983.000
550.4800, 8049.000
551.6550, 8168.000
552.8300, 8203.000
554.0040, 8300.000
555.1790, 8353.000
556.3540, 8596.000
557.5280, 8738.000
558.7020, 8967.000
559.8760, 9272.000
561.0500, 9707.000
562.2230, 10157.00
563.3970, 10695.00
564.5700, 11273.00
565.7430, 11976.00
566.9160, 12605.00
568.0890, 13249.00
569.2620, 13856.00
570.4340, 14524.00
571.6070, 15042.00
572.7790, 15575.00
573.9510, 15514.00
575.1230, 15305.00
576.2940, 14690.00
577.4660, 13925.00
578.6370, 12976.00
579.8080, 12341.00
580.9790, 11404.00
582.1500, 10558.00
583.3210, 9961.000
584.4910, 9332.000
585.6620, 8875.000
586.8320, 8498.000
588.0020, 8201.000
589.1720, 7921.000
590.3410, 7759.000
591.5110, 7485.000
592.6800, 7324.000
593.8500, 7280.000
595.0190, 7243.000
596.1880, 7199.000
597.3560, 7194.000
598.5250, 7161.368
599.6930, 7108.000
600.8620, 7121.000
602.0300, 7124.000
603.1970, 7101.000
604.3650, 7247.000
605.5330, 7255.000
606.7000, 7320.000
607.8680, 7431.000
609.0350, 7502.000
610.2020, 7693.177
611.3680, 7883.000
612.5350, 8145.000
613.7010, 8336.000
614.8680, 8664.000
616.0340, 9059.000
617.2000, 9589.399
618.3660, 10169.00
619.5310, 10991.00
620.6970, 11889.00
621.8620, 12931.00
623.0270, 14162.00
624.1920, 15554.00
625.3570, 16885.00
626.5220, 18212.00
627.6860, 19602.00
628.8500, 20517.00
630.0140, 20624.00
631.1780, 20144.00
632.3420, 19102.00
633.5060, 17506.00
634.6700, 15582.00
635.8330, 13877.00
636.9960, 12340.00
638.1590, 11163.00
639.3220, 10364.00
640.4850, 9467.000
641.6470, 8834.000
642.8100, 8524.000
643.9720, 8020.000
645.1340, 7813.000
646.2960, 7617.000
647.4570, 7495.000
648.6190, 7212.000
649.7800, 7102.000
650.9420, 7000.000
652.1030, 6964.000
653.2640, 6875.000
654.4240, 6774.000
655.5850, 6750.000
656.7450, 6804.000
657.9060, 6574.000
659.0660, 6666.000
660.2260, 6581.000
661.3850, 6556.000
662.5450, 6472.000
663.7040, 6407.000
664.8640, 6417.546
666.0230, 6498.000
667.1820, 6439.000
668.3410, 6421.000
669.4990, 6433.000
670.6580, 6428.000
671.8160, 6487.000
672.9740, 6337.000
674.1320, 6391.000
675.2900, 6268.000
676.4480, 6426.000
677.6050, 6384.000
678.7630, 6361.000
679.9200, 6438.000
681.0770, 6383.000
682.2340, 6355.000
683.3900, 6493.000
684.5470, 6369.000
685.7030, 6328.000
686.8590, 6367.000
688.0150, 6421.000
689.1710, 6307.000
690.3270, 6330.000
691.4830, 6239.000
692.6380, 6344.000
693.7930, 6347.000
694.9480, 6418.000
696.1030, 6425.163
697.2580, 6324.000
698.4130, 6418.000
699.5670, 6346.000
700.7210, 6326.000
701.8750, 6356.000
703.0290, 6314.000
704.1830, 6410.000
705.3370, 6408.000
706.4900, 6398.000
707.6430, 6446.000
708.7970, 6340.000
709.9490, 6479.000
711.1020, 6424.000
712.2550, 6374.000
713.4070, 6474.000
714.5600, 6455.000
715.7120, 6439.000
716.8640, 6534.000
718.0160, 6561.000
719.1670, 6708.000
720.3190, 6630.000
721.4700, 6655.000
722.6210, 6558.000
723.7720, 6608.000
724.9230, 6757.000
726.0740, 6712.000
727.2250, 6753.000
728.3750, 6836.000
729.5250, 6847.000
730.6750, 6917.044
731.8250, 6944.000
732.9750, 6987.000
734.1240, 6984.000
735.2740, 6925.000
736.4230, 7015.000
737.5720, 6818.000
738.7210, 6991.000
739.8700, 7043.000
741.0190, 6890.000
742.1670, 6960.000
743.3150, 6929.000
744.4630, 6867.000
745.6110, 6853.000
746.7590, 6713.000
747.9070, 6787.000
749.0540, 6666.000
750.2020, 6657.000
751.3490, 6638.000
752.4960, 6689.000
753.6430, 6702.000
754.7890, 6583.000
755.9360, 6597.000
757.0820, 6540.000
758.2280, 6554.000
759.3740, 6589.000
760.5200, 6582.000
761.6660, 6618.000
762.8120, 6610.571
763.9570, 6596.000
765.1020, 6598.000
766.2470, 6573.000
767.3920, 6562.000
768.5370, 6508.000
769.6810, 6566.000
770.8260, 6575.000
771.9700, 6501.000
773.1140, 6545.000
774.2580, 6615.000
775.4020, 6595.000
776.5460, 6503.000
777.6890, 6646.000
778.8320, 6579.000
779.9750, 6583.000
781.1180, 6626.000
782.2610, 6614.000
783.4040, 6636.000
784.5460, 6603.000
785.6890, 6512.000
786.8310, 6577.000
787.9730, 6678.000
789.1150, 6530.000
790.2560, 6617.000
791.3980, 6540.000
792.5390, 6683.000
793.6810, 6675.000
794.8220, 6514.000
795.9630, 6643.000
797.1030, 6684.000
798.2440, 6660.000
799.3840, 6656.000
800.5240, 6704.000
801.6650, 6686.673
802.8040, 6673.000
803.9440, 6704.000
805.0840, 6732.000
806.2230, 6750.000
807.3630, 6807.000
808.5020, 6705.000
809.6410, 6675.000
810.7790, 6792.000
811.9180, 6854.000
813.0570, 6803.000
814.1950, 6777.000
815.3330, 6844.000
816.4710, 6874.000
817.6090, 6796.000
818.7470, 6830.000
819.8840, 6845.000
821.0220, 6912.000
822.1590, 6820.000
823.2960, 6794.000
824.4330, 6908.000
825.5690, 6955.000
826.7060, 7024.000
827.8420, 6954.000
828.9790, 7024.000
830.1150, 6988.000
831.2510, 7026.000
832.3860, 6926.000
833.5220, 7027.000
834.6570, 7050.000
835.7930, 7049.000
836.9280, 7101.000
838.0630, 7105.000
839.1980, 7123.735
840.3320, 7176.000
841.4670, 7165.000
842.6010, 7118.000
843.7350, 7160.000
844.8690, 7153.642
846.0030, 7160.000
847.1370, 7200.000
848.2700, 7234.000
849.4040, 7273.179
850.5370, 7295.448
851.6700, 7273.000
852.8030, 7307.000
853.9360, 7294.000
855.0680, 7233.000
856.2000, 7383.000
857.3330, 7278.000
858.4650, 7348.000
859.5970, 7300.000
860.7290, 7390.000
861.8600, 7331.000
862.9920, 7336.000
864.1230, 7333.000
865.2540, 7358.000
866.3850, 7274.000
867.5160, 7367.000
868.6460, 7269.000
869.7770, 7325.000
870.9070, 7361.000
872.0370, 7360.000
873.1670, 7389.000
874.2970, 7459.000
875.4270, 7354.000
876.5570, 7311.000
877.6860, 7389.000
878.8150, 7474.000
879.9440, 7350.000
881.0730, 7336.000
882.2020, 7461.000
883.3300, 7411.000
884.4590, 7536.000
885.5870, 7455.000
886.7150, 7590.000
887.8430, 7592.897
888.9710, 7594.507
890.0990, 7662.000
891.2260, 7623.000
892.3530, 7694.000
893.4810, 7741.000
894.6080, 7751.000
895.7340, 7748.000
896.8610, 7898.000
897.9880, 7810.000
899.1140, 7868.000
900.2400, 7932.000
901.3660, 8078.000
902.4920, 8040.000
903.6180, 8121.000
904.7430, 8139.000
905.8690, 8219.007
906.9940, 8438.000
908.1190, 8414.000
909.2440, 8642.000
910.3690, 8756.000
911.4930, 8920.000
912.6180, 9129.000
913.7420, 9339.915
914.8660, 9460.000
915.9900, 9889.000
917.1140, 10176.00
918.2380, 10558.00
919.3610, 11270.00
920.4850, 11928.00
921.6080, 12587.00
922.7310, 13571.00
923.8540, 14783.00
924.9760, 15966.00
926.0990, 17377.00
927.2210, 18855.00
928.3440, 20478.00
929.4660, 22055.00
930.5880, 23349.00
931.7090, 24015.00
932.8310, 24197.00
933.9520, 24173.00
935.0740, 23228.00
936.1950, 21913.00
937.3160, 20266.00
938.4360, 18536.00
939.5570, 16926.00
940.6780, 15453.00
941.7980, 14481.00
942.9180, 13398.00
944.0380, 12690.00
945.1580, 12041.00
946.2780, 11587.00
947.3970, 11290.00
948.5170, 11053.00
949.6360, 10770.00
950.7550, 10528.00
951.8740, 10178.00
952.9930, 9970.000
954.1110, 9936.000
955.2300, 9665.000
956.3480, 9583.000
957.4660, 9429.000
958.5840, 9290.000
959.7020, 9376.000
960.8190, 9349.000
961.9370, 9332.000
963.0540, 9420.000
964.1710, 9449.000
965.2880, 9479.000
966.4050, 9549.000
967.5220, 9563.000
968.6380, 9706.000
969.7550, 9717.000
970.8710, 9975.000
971.9870, 10205.00
973.1030, 10263.00
974.2190, 10449.00
975.3340, 10678.00
976.4500, 10932.39
977.5650, 11316.00
978.6800, 11623.00
979.7950, 12114.00
980.9100, 12575.00
982.0250, 13101.00
983.1390, 13766.00
984.2530, 14528.00
985.3680, 15550.00
986.4820, 16668.00
987.5950, 18134.00
988.7090, 19751.00
989.8230, 21947.00
990.9360, 24208.00
992.0490, 27122.00
993.1620, 30429.00
994.2750, 34206.00
995.3880, 38045.00
996.5010, 42122.00
997.6130, 46589.00
998.7250, 50723.00
999.8370, 54041.00
1000.949, 57230.00
1002.061, 59736.00
1003.173, 60970.00
1004.284, 61817.00
1005.396, 61247.00
1006.507, 60610.00
1007.618, 59764.00
1008.729, 57743.00
1009.839, 55888.00
1010.950, 53071.00
1012.060, 50500.00
1013.171, 47328.00
1014.281, 44346.00
1015.391, 41234.00
1016.500, 38107.00
1017.610, 34919.00
1018.719, 31824.00
1019.829, 28736.00
1020.938, 26016.00
1022.047, 23585.00
1023.156, 21588.00
1024.264, 19883.00
1025.373, 18466.00
1026.481, 17039.00
1027.589, 16320.00
1028.697, 15638.00
1029.805, 14924.00
1030.913, 14544.00
1032.020, 14044.00
1033.128, 13781.00
1034.235, 13534.00
1035.342, 13484.00
1036.449, 13420.00
1037.556, 13360.00
1038.663, 13219.00
1039.769, 13181.00
1040.875, 13012.00
1041.981, 12706.00
1043.087, 12525.00
1044.193, 12072.00
1045.299, 11783.00
1046.404, 11443.00
1047.510, 11214.00
1048.615, 10924.00
1049.720, 10728.00
1050.825, 10546.00
1051.930, 10408.00
1053.034, 10291.96
1054.139, 10189.10
1055.243, 10138.00
1056.347, 10065.00
1057.451, 10031.00
1058.555, 10030.54
1059.658, 10006.00
1060.762, 10020.00
1061.865, 9970.000
1062.968, 9962.000
1064.071, 10020.00
1065.174, 10131.00
1066.277, 10208.00
1067.380, 10357.00
1068.482, 10444.55
1069.584, 10381.00
1070.686, 10685.00
1071.788, 10886.00
1072.890, 11083.00
1073.992, 11539.00
1075.093, 11746.00
1076.194, 12131.00
1077.295, 12601.00
1078.396, 13102.00
1079.497, 13731.00
1080.598, 14706.00
1081.698, 15556.00
1082.799, 16558.00
1083.899, 17600.00
1084.999, 18624.00
1086.099, 19680.00
1087.199, 20188.00
1088.298, 20933.00
1089.398, 21153.00
1090.497, 20776.00
1091.596, 20191.00
1092.695, 19182.00
1093.794, 18358.00
1094.892, 17156.00
1095.991, 16036.00
1097.089, 15098.00
1098.187, 14198.00
1099.285, 13458.00
1100.383, 12797.00
1101.481, 12282.00
1102.579, 11617.00
1103.676, 11413.00
1104.773, 11103.00
1105.870, 10800.00
1106.967, 10498.00
1108.064, 10254.00
1109.161, 10195.00
1110.257, 9878.000
1111.353, 9846.000
1112.449, 9730.000
1113.545, 9645.000
1114.641, 9583.228
1115.737, 9506.000
1116.832, 9463.000
1117.928, 9328.000
1119.023, 9311.000
1120.118, 9246.000
1121.213, 9282.000
1122.308, 9134.000
1123.402, 9109.000
1124.497, 9160.000
1125.591, 9163.000
1126.685, 9258.000
1127.779, 9136.000
1128.873, 9112.000
1129.967, 8965.000
1131.060, 9182.000
1132.153, 9160.000
1133.247, 9050.000
1134.340, 9168.000
1135.433, 9075.000
1136.525, 9111.000
1137.618, 9120.000
1138.710, 9068.000
1139.802, 9068.000
1140.895, 8933.000
1141.987, 9120.000
1143.078, 8997.000
1144.170, 9116.000
1145.261, 8904.000
1146.353, 8965.000
1147.444, 8895.000
1148.535, 8929.000
1149.626, 8869.000
1150.716, 8831.000
1151.807, 8892.000
1152.897, 8991.000
1153.988, 8929.000
1155.078, 8931.000
1156.168, 8913.000
1157.257, 8840.000
1158.347, 8920.000
1159.436, 8907.000
1160.526, 8812.000
1161.615, 8862.000
1162.704, 8953.000
1163.793, 8883.000
1164.881, 8852.000
1165.970, 9009.000
1167.058, 8823.000
1168.147, 8730.000
1169.235, 8909.000
1170.323, 8841.000
1171.410, 8909.000
1172.498, 9015.000
1173.585, 9037.000
1174.673, 8999.000
1175.760, 8943.000
1176.847, 8901.000
1177.934, 8874.525
1179.020, 8834.000
1180.107, 8879.000
1181.193, 8871.000
1182.279, 8985.000
1183.365, 8899.000
1184.451, 8989.000
1185.537, 8893.000
1186.623, 8923.000
1187.708, 8983.000
1188.793, 8888.000
1189.878, 8943.000
1190.963, 8860.072
1192.048, 8945.000
1193.133, 8816.000
1194.217, 8789.000
1195.302, 9009.000
1196.386, 8836.000
1197.470, 8915.000
1198.554, 8815.000
1199.638, 8853.000
1200.721, 8913.000
1201.805, 8789.000
1202.888, 8869.000
1203.971, 8787.000
1205.054, 8893.000
1206.137, 8950.000
1207.219, 8842.000
1208.302, 8899.000
1209.384, 8936.000
1210.466, 8818.000
1211.548, 8791.000
1212.630, 8890.000
1213.712, 8932.000
1214.794, 9047.000
1215.875, 8946.000
1216.956, 8923.000
1218.037, 8829.000
1219.118, 8811.363
1220.199, 8847.000
1221.280, 8791.000
1222.360, 8845.000
1223.441, 8871.000
1224.521, 8924.000
1225.601, 8942.000
1226.681, 8965.000
1227.760, 8899.000
1228.840, 8915.000
1229.919, 9018.000
1230.999, 8791.000
1232.078, 9017.000
1233.157, 8895.000
1234.236, 8961.000
1235.314, 9053.000
1236.393, 8961.000
1237.471, 8943.000
1238.549, 8917.000
1239.627, 8909.393
1240.705, 8988.000
1241.783, 8925.000
1242.860, 8950.000
1243.938, 8926.000
1245.015, 8930.000
1246.092, 8984.000
1247.169, 8980.000
1248.246, 8941.000
1249.323, 8955.000
1250.399, 9070.000
1251.475, 9054.000
1252.552, 9012.000
1253.628, 8920.000
1254.703, 8951.597
1255.779, 8960.000
1256.855, 8985.000
1257.930, 9113.000
1259.005, 9152.000
1260.080, 9161.000
1261.155, 9018.000
1262.230, 8992.000
1263.305, 8979.000
1264.379, 9042.000
1265.454, 9116.000
1266.528, 8977.000
1267.602, 9090.000
1268.676, 9055.000
1269.750, 8957.000
1270.823, 9079.000
1271.897, 9067.000
1272.970, 9039.000
1274.043, 9012.000
1275.116, 9032.000
1276.189, 9026.000
1277.261, 9160.000
1278.334, 8996.000
1279.406, 8941.000
1280.478, 9060.000
1281.550, 9005.000
1282.622, 9104.000
1283.694, 8969.000
1284.766, 9071.000
1285.837, 9038.000
1286.908, 9010.000
1287.979, 9046.000
1289.050, 9115.000
1290.121, 9071.000
1291.192, 9089.000
1292.262, 9100.000
1293.333, 9049.000
1294.403, 9133.000
1295.473, 9193.000
1296.543, 9114.000
1297.613, 9206.000
1298.682, 9195.000
1299.752, 9168.000
1300.821, 9230.000
1301.890, 9131.000
1302.959, 9221.000
1304.028, 9119.000
1305.096, 9230.000
1306.165, 9165.000
1307.233, 9336.000
1308.301, 9272.000
1309.370, 9124.000
1310.437, 9250.000
1311.505, 9244.000
1312.573, 9345.000
1313.640, 9239.000
1314.708, 9221.000
1315.775, 9364.000
1316.842, 9291.000
1317.908, 9294.000
1318.975, 9394.000
1320.042, 9317.000
1321.108, 9357.000
1322.174, 9200.000
1323.240, 9353.000
1324.306, 9435.000
1325.372, 9318.000
1326.438, 9310.000
1327.503, 9235.000
1328.568, 9264.000
1329.634, 9457.000
1330.699, 9346.000
1331.763, 9278.000
1332.828, 9486.000
1333.893, 9292.000
1334.957, 9294.000
1336.021, 9295.000
1337.085, 9286.000
1338.149, 9285.891
1339.213, 9391.000
1340.277, 9277.000
1341.340, 9306.000
1342.404, 9303.652
1343.467, 9428.000
1344.530, 9331.000
1345.593, 9372.000
1346.655, 9384.931
1347.718, 9434.000
1348.780, 9478.000
1349.843, 9459.000
1350.905, 9411.000
1351.967, 9515.000
1353.028, 9517.000
1354.090, 9414.000
1355.152, 9531.000
1356.213, 9478.000
1357.274, 9460.000
1358.335, 9413.000
1359.396, 9448.000
1360.457, 9459.000
1361.517, 9455.520
1362.578, 9380.000
1363.638, 9482.000
1364.698, 9425.000
1365.758, 9446.000
1366.818, 9493.000
1367.878, 9443.000
1368.937, 9394.000
1369.997, 9565.000
1371.056, 9388.000
1372.115, 9573.000
1373.174, 9570.000
1374.232, 9539.000
1375.291, 9584.000
1376.350, 9531.000
1377.408, 9515.000
1378.466, 9548.000
1379.524, 9457.000
1380.582, 9589.000
1381.640, 9556.000
1382.697, 9573.000
1383.754, 9633.000
1384.812, 9440.000
1385.869, 9536.000
1386.926, 9532.000
1387.983, 9501.000
1389.039, 9526.000
1390.096, 9654.000
1391.152, 9481.000
1392.208, 9608.000
1393.264, 9570.000
1394.320, 9558.000
1395.376, 9633.000
1396.431, 9648.000
1397.487, 9684.000
1398.542, 9634.000
1399.597, 9558.000
1400.652, 9698.000
1401.707, 9631.000
1402.762, 9671.000
1403.816, 9629.000
1404.871, 9561.000
1405.925, 9558.000
1406.979, 9655.000
1408.033, 9660.000
1409.086, 9677.000
1410.140, 9766.000
1411.194, 9735.000
1412.247, 9765.000
1413.300, 9675.000
1414.353, 9811.000
1415.406, 9728.000
1416.458, 9719.000
1417.511, 9753.000
1418.563, 9709.297
1419.616, 9716.000
1420.668, 9707.000
1421.720, 9708.970
1422.772, 9741.162
1423.823, 9731.000
1424.875, 9800.000
1425.926, 9810.000
1426.977, 9808.000
1428.028, 9792.000
1429.079, 9790.000
1430.130, 9842.000
1431.180, 9909.000
1432.231, 9940.000
1433.281, 9951.000
1434.331, 9965.000
1435.381, 9990.000
1436.431, 10000.00
1437.481, 9976.000
1438.530, 9928.000
1439.580, 9846.000
1440.629, 10021.00
1441.678, 10076.00
1442.727, 9891.000
1443.776, 10167.00
1444.824, 10027.00
1445.873, 10240.00
1446.921, 10044.00
1447.969, 10133.00
1449.017, 10161.00
1450.065, 10072.00
1451.113, 10057.00
1452.160, 10044.00
1453.208, 10095.00
1454.255, 9999.000
1455.302, 10095.00
1456.349, 10116.00
1457.396, 10083.00
1458.443, 10099.00
1459.489, 10111.00
1460.535, 10048.00
1461.582, 10186.00
1462.628, 10117.00
1463.674, 10241.00
1464.719, 10155.00
1465.765, 10110.00
1466.810, 10210.00
1467.856, 10280.00
1468.901, 10216.00
1469.946, 10145.00
1470.991, 10127.00
1472.035, 10153.00
1473.080, 9964.000
1474.124, 10305.00
1475.169, 10080.00
1476.213, 10100.00
1477.257, 10217.00
1478.300, 10142.00
1479.344, 10266.00
1480.388, 10223.00
1481.431, 10178.00
1482.474, 10232.00
1483.517, 10274.00
1484.560, 10253.00
1485.603, 10203.00
1486.645, 10207.00
1487.688, 10200.00
1488.730, 10284.00
1489.772, 10230.00
1490.814, 10179.00
1491.856, 10307.00
1492.898, 10284.00
1493.939, 10207.00
1494.981, 10247.00
1496.022, 10233.00
1497.063, 10154.00
1498.104, 10164.00
1499.145, 10221.00
1500.186, 10270.00
1501.226, 10256.91
1502.266, 10241.00
1503.307, 10254.00
1504.347, 10234.00
1505.387, 10265.00
1506.426, 10273.95
1507.466, 10225.00
1508.505, 10301.00
1509.545, 10278.00
1510.584, 10258.00
1511.623, 10311.00
1512.662, 10334.00
1513.700, 10245.00
1514.739, 10263.58
1515.777, 10357.00
1516.815, 10232.00
1517.854, 10285.00
1518.892, 10352.00
1519.929, 10418.00
1520.967, 10318.00
1522.004, 10380.00
1523.042, 10331.00
1524.079, 10334.00
1525.116, 10474.00
1526.153, 10443.00
1527.190, 10484.00
1528.226, 10365.00
1529.263, 10430.00
1530.299, 10319.00
1531.335, 10367.00
1532.371, 10376.00
1533.407, 10430.00
1534.443, 10360.00
1535.478, 10468.00
1536.514, 10468.00
1537.549, 10395.00
1538.584, 10426.00
1539.619, 10394.00
1540.654, 10337.00
1541.689, 10495.00
1542.723, 10465.00
1543.757, 10414.00
1544.792, 10397.00
1545.826, 10361.54
1546.860, 10468.00
1547.893, 10294.00
1548.927, 10431.00
1549.960, 10386.00
1550.994, 10434.00
1552.027, 10469.77
1553.060, 10488.53
1554.093, 10505.00
1555.126, 10578.00
1556.158, 10591.00
1557.191, 10647.00
1558.223, 10318.00
1559.255, 10440.00
1560.287, 10491.00
1561.319, 10512.00
1562.350, 10589.00
##END=



