##NAMES=Catapleiite
##RRUFFID=R060208
##IDEAL CHEMISTRY=Na_2_Zr^4+^Si_3_O_9_&#183;2H_2_O
##LOCALITY=Mont Saint-Hilaire, Rouville County, Quebec, Canada
##OWNER=RRUFF
##SOURCE=Royal Ontario Museum
##DESCRIPTION=Colorless transparent thin tabular pseudohexagonal crystal
##STATUS=The identification of this mineral is confirmed by single-crystal X-ray diffraction and chemical analysis.
##URL=rruff.info/R060208
##MEASURED CHEMISTRY=Na_2.00_Zr_1.00_Si_3.00_O_9_Â·2H_2_O
##PIN_ID=M01568
##ORIENTATION=Laser parallel to b* (0 1 0). Fiducial mark perpendicular to laser is parallel to c [0 0 1]
92.49800, 3061.000
93.73600, 3426.000
94.97300, 3796.000
96.21000, 4169.000
97.44600, 4496.000
98.68300, 4804.932
99.91900, 5144.000
101.1560, 5357.000
102.3920, 5565.000
103.6280, 5797.000
104.8630, 6020.000
106.0990, 6187.000
107.3350, 6370.948
108.5700, 6509.116
109.8050, 6678.000
111.0400, 6786.000
112.2750, 6928.000
113.5100, 7138.000
114.7440, 7153.000
115.9780, 7320.000
117.2130, 7396.000
118.4470, 7375.000
119.6810, 7426.000
120.9140, 7398.000
122.1480, 7311.000
123.3810, 7563.000
124.6150, 7585.000
125.8480, 7520.000
127.0810, 7702.000
128.3130, 7740.000
129.5460, 7774.000
130.7790, 7843.000
132.0110, 7822.000
133.2430, 7845.000
134.4750, 7820.000
135.7070, 7824.000
136.9380, 7880.000
138.1700, 7745.000
139.4010, 7805.000
140.6330, 8013.000
141.8640, 7801.000
143.0950, 7860.000
144.3250, 7967.000
145.5560, 7933.000
146.7860, 7988.000
148.0160, 8136.000
149.2470, 8203.000
150.4760, 8308.000
151.7060, 8450.000
152.9360, 8450.000
154.1650, 8535.000
155.3950, 8560.000
156.6240, 8388.000
157.8530, 8480.000
159.0820, 8395.000
160.3100, 8318.000
161.5390, 8443.000
162.7670, 8372.000
163.9950, 8356.000
165.2230, 8521.000
166.4510, 8492.000
167.6790, 8583.000
168.9060, 8570.000
170.1340, 8644.000
171.3610, 9016.000
172.5880, 8989.000
173.8150, 8978.000
175.0420, 9216.000
176.2690, 9213.000
177.4950, 9290.000
178.7210, 9296.000
179.9470, 9526.000
181.1730, 9682.000
182.3990, 9785.000
183.6250, 9940.000
184.8500, 10069.00
186.0760, 10297.00
187.3010, 10528.55
188.5260, 10863.00
189.7510, 11136.00
190.9750, 11415.00
192.2000, 11853.00
193.4240, 12314.00
194.6490, 12791.00
195.8730, 13091.00
197.0970, 13273.00
198.3200, 13675.00
199.5440, 13908.00
200.7670, 14251.00
201.9910, 14243.00
203.2140, 14307.00
204.4370, 14454.00
205.6590, 14500.00
206.8820, 14680.00
208.1050, 14757.00
209.3270, 14837.00
210.5490, 14870.00
211.7710, 14718.00
212.9930, 14623.00
214.2150, 14123.00
215.4360, 13618.00
216.6570, 12815.00
217.8790, 12099.00
219.1000, 11512.00
220.3210, 10851.00
221.5410, 10223.86
222.7620, 9594.000
223.9820, 9032.000
225.2030, 8491.000
226.4230, 7990.000
227.6430, 7550.000
228.8620, 7195.749
230.0820, 6909.000
231.3010, 6638.000
232.5210, 6411.143
233.7400, 6222.010
234.9590, 6069.000
236.1780, 5925.000
237.3960, 5843.000
238.6150, 5738.000
239.8330, 5667.000
241.0510, 5526.000
242.2690, 5431.000
243.4870, 5323.000
244.7050, 5264.087
245.9230, 5243.000
247.1400, 5195.000
248.3570, 5138.000
249.5740, 5142.071
250.7910, 5213.000
252.0080, 5195.000
253.2240, 5289.000
254.4410, 5313.000
255.6570, 5192.000
256.8730, 5253.000
258.0890, 5340.000
259.3050, 5386.000
260.5210, 5276.000
261.7360, 5241.000
262.9510, 5162.000
264.1670, 5163.000
265.3820, 5040.000
266.5960, 5025.000
267.8110, 4924.000
269.0260, 4872.000
270.2400, 4867.000
271.4540, 4825.000
272.6680, 4774.000
273.8820, 4779.969
275.0960, 4692.000
276.3090, 4779.000
277.5230, 4776.000
278.7360, 4789.000
279.9490, 4732.000
281.1620, 4779.000
282.3750, 4741.000
283.5880, 4737.000
284.8000, 4839.000
286.0120, 4881.000
287.2240, 4907.000
288.4360, 4945.000
289.6480, 4985.000
290.8600, 5028.000
292.0710, 4978.000
293.2830, 5014.000
294.4940, 5023.717
295.7050, 5036.838
296.9160, 5047.000
298.1260, 5101.000
299.3370, 5088.000
300.5470, 5129.000
301.7580, 5083.000
302.9680, 4948.000
304.1770, 5074.000
305.3870, 4922.000
306.5970, 5029.000
307.8060, 5072.000
309.0150, 5010.000
310.2250, 5116.000
311.4340, 5060.000
312.6420, 5144.000
313.8510, 5199.000
315.0590, 5121.000
316.2680, 5217.000
317.4760, 5146.000
318.6840, 5192.000
319.8920, 5283.000
321.0990, 5253.000
322.3070, 5326.000
323.5140, 5251.000
324.7210, 5268.000
325.9280, 5369.000
327.1350, 5363.000
328.3420, 5344.000
329.5490, 5336.000
330.7550, 5373.000
331.9610, 5334.000
333.1670, 5301.000
334.3730, 5196.000
335.5790, 5336.000
336.7840, 5175.000
337.9900, 5170.000
339.1950, 5195.000
340.4000, 5066.000
341.6050, 5042.000
342.8100, 5065.000
344.0150, 5098.000
345.2190, 5015.000
346.4230, 5132.000
347.6280, 5095.000
348.8320, 5181.000
350.0350, 5169.000
351.2390, 5356.000
352.4430, 5344.000
353.6460, 5446.000
354.8490, 5551.000
356.0520, 5684.000
357.2550, 5698.000
358.4580, 5800.000
359.6600, 6094.000
360.8630, 6173.000
362.0650, 6153.000
363.2670, 6227.000
364.4690, 6163.000
365.6710, 6099.000
366.8720, 6141.000
368.0740, 6081.000
369.2750, 6011.000
370.4760, 5948.000
371.6770, 5840.000
372.8780, 5812.000
374.0780, 5737.056
375.2790, 5651.000
376.4790, 5650.000
377.6790, 5540.000
378.8790, 5546.000
380.0790, 5527.000
381.2790, 5426.000
382.4780, 5390.000
383.6780, 5452.000
384.8770, 5478.000
386.0760, 5413.000
387.2750, 5448.000
388.4730, 5391.000
389.6720, 5340.000
390.8700, 5356.000
392.0690, 5324.000
393.2670, 5290.000
394.4650, 5366.000
395.6620, 5362.000
396.8600, 5429.000
398.0570, 5422.000
399.2550, 5510.000
400.4520, 5578.000
401.6490, 5589.000
402.8450, 5588.000
404.0420, 5767.000
405.2390, 5843.000
406.4350, 5905.000
407.6310, 6071.000
408.8270, 6235.000
410.0230, 6300.000
411.2190, 6617.000
412.4140, 6763.000
413.6090, 7067.000
414.8050, 7367.000
416.0000, 7794.459
417.1940, 8243.000
418.3890, 8872.000
419.5840, 9608.000
420.7780, 10357.73
421.9720, 11056.00
423.1660, 12091.00
424.3600, 12998.00
425.5540, 14053.00
426.7480, 14816.00
427.9410, 15752.00
429.1340, 15920.00
430.3270, 15929.00
431.5200, 15479.00
432.7130, 14753.00
433.9060, 13764.00
435.0980, 12687.00
436.2900, 11813.00
437.4830, 10889.00
438.6750, 10017.00
439.8660, 9333.000
441.0580, 8816.000
442.2500, 8311.000
443.4410, 7901.000
444.6320, 7592.000
445.8230, 7205.000
447.0140, 7123.000
448.2050, 6915.000
449.3950, 6717.000
450.5860, 6462.000
451.7760, 6366.000
452.9660, 6188.000
454.1560, 6150.000
455.3450, 6090.000
456.5350, 5942.000
457.7240, 5937.000
458.9140, 5815.000
460.1030, 5840.000
461.2920, 5692.000
462.4810, 5705.000
463.6690, 5603.000
464.8580, 5648.000
466.0460, 5726.000
467.2340, 5723.000
468.4220, 5649.000
469.6100, 5640.000
470.7970, 5628.000
471.9850, 5639.000
473.1720, 5627.000
474.3590, 5663.000
475.5460, 5612.000
476.7330, 5645.000
477.9200, 5601.000
479.1060, 5542.000
480.2930, 5532.000
481.4790, 5614.000
482.6650, 5552.000
483.8510, 5622.000
485.0370, 5614.000
486.2220, 5642.000
487.4080, 5650.000
488.5930, 5665.163
489.7780, 5636.000
490.9630, 5720.000
492.1480, 5677.000
493.3320, 5739.000
494.5170, 5729.000
495.7010, 5685.000
496.8850, 5850.000
498.0690, 5972.000
499.2530, 5927.000
500.4360, 5903.000
501.6200, 5947.000
502.8030, 6103.000
503.9860, 6266.000
505.1690, 6253.000
506.3520, 6337.000
507.5350, 6459.000
508.7170, 6503.000
509.9000, 6733.000
511.0820, 6800.000
512.2640, 7022.000
513.4460, 7197.000
514.6270, 7277.000
515.8090, 7450.000
516.9900, 7717.000
518.1710, 7984.000
519.3530, 7944.000
520.5330, 8121.000
521.7140, 8154.000
522.8950, 8173.000
524.0750, 8009.000
525.2550, 8035.000
526.4350, 7930.000
527.6150, 7751.000
528.7950, 7643.000
529.9750, 7485.000
531.1540, 7314.000
532.3340, 7125.000
533.5130, 7106.000
534.6920, 6922.165
535.8700, 6715.000
537.0490, 6737.000
538.2280, 6567.000
539.4060, 6615.000
540.5840, 6485.000
541.7620, 6396.000
542.9400, 6305.000
544.1180, 6269.000
545.2950, 6269.000
546.4720, 6293.000
547.6500, 6263.000
548.8270, 6162.000
550.0040, 6198.000
551.1800, 6234.000
552.3570, 6318.000
553.5330, 6378.000
554.7090, 6443.000
555.8850, 6580.000
557.0610, 6639.000
558.2370, 6768.000
559.4130, 7009.000
560.5880, 7235.000
561.7630, 7492.000
562.9380, 7797.000
564.1130, 8142.000
565.2880, 8510.000
566.4630, 9014.000
567.6370, 9544.000
568.8120, 10172.00
569.9860, 10307.00
571.1600, 10835.00
572.3330, 11091.00
573.5070, 11243.00
574.6810, 11096.00
575.8540, 10819.00
577.0270, 10376.00
578.2000, 9667.000
579.3730, 9179.000
580.5460, 8665.000
581.7180, 7950.000
582.8910, 7424.000
584.0630, 7152.000
585.2350, 6819.000
586.4070, 6510.000
587.5780, 6355.000
588.7500, 6036.000
589.9210, 5898.000
591.0930, 5900.000
592.2640, 5747.000
593.4350, 5723.000
594.6050, 5651.000
595.7760, 5526.000
596.9460, 5418.000
598.1170, 5595.000
599.2870, 5529.000
600.4570, 5589.000
601.6260, 5547.000
602.7960, 5608.000
603.9650, 5638.000
605.1350, 5644.000
606.3040, 5669.000
607.4730, 5747.000
608.6420, 5807.000
609.8100, 5903.904
610.9790, 6067.000
612.1470, 6186.000
613.3150, 6359.000
614.4830, 6637.000
615.6510, 6892.000
616.8190, 7129.000
617.9860, 7585.000
619.1540, 8155.000
620.3210, 8774.000
621.4880, 9487.000
622.6550, 10403.00
623.8220, 11339.00
624.9880, 12425.00
626.1550, 13417.00
627.3210, 14368.00
628.4870, 15226.00
629.6530, 15400.00
630.8190, 15128.00
631.9840, 14129.00
633.1500, 13033.00
634.3150, 11803.00
635.4800, 10503.00
636.6450, 9445.000
637.8100, 8568.000
638.9740, 7738.000
640.1390, 7274.000
641.3030, 6811.000
642.4670, 6562.000
643.6310, 6347.000
644.7950, 6117.000
645.9590, 5979.616
647.1220, 5791.000
648.2850, 5734.000
649.4490, 5532.000
650.6120, 5398.000
651.7740, 5463.000
652.9370, 5294.000
654.1000, 5291.000
655.2620, 5248.000
656.4240, 5203.000
657.5860, 5169.000
658.7480, 5135.000
659.9100, 5092.000
661.0710, 5116.000
662.2330, 5151.000
663.3940, 5101.000
664.5550, 5083.000
665.7160, 5010.000
666.8770, 5079.000
668.0370, 4997.000
669.1980, 5001.000
670.3580, 5049.000
671.5180, 4979.000
672.6780, 5062.000
673.8380, 5009.000
674.9970, 4900.000
676.1570, 4871.000
677.3160, 5013.000
678.4750, 4955.000
679.6340, 4967.000
680.7930, 5003.000
681.9520, 4904.000
683.1100, 4937.000
684.2680, 5009.000
685.4270, 4834.000
686.5850, 4924.000
687.7420, 4944.000
688.9000, 4889.000
690.0580, 4884.000
691.2150, 4965.000
692.3720, 4907.000
693.5290, 4946.000
694.6860, 4914.000
695.8430, 4935.000
696.9990, 4917.000
698.1560, 4925.000
699.3120, 4914.000
700.4680, 4854.000
701.6240, 4927.000
702.7800, 4923.000
703.9350, 4813.000
705.0900, 4939.000
706.2460, 4864.000
707.4010, 4963.000
708.5560, 4880.000
709.7110, 5030.000
710.8650, 4929.000
712.0200, 4942.000
713.1740, 4888.000
714.3280, 4993.000
715.4820, 4964.000
716.6360, 5076.000
717.7890, 5125.000
718.9430, 5013.000
720.0960, 5093.000
721.2490, 5099.000
722.4020, 5131.000
723.5550, 5134.000
724.7080, 5123.000
725.8600, 5272.000
727.0130, 5223.000
728.1650, 5292.000
729.3170, 5255.000
730.4690, 5313.000
731.6200, 5353.000
732.7720, 5285.000
733.9230, 5418.000
735.0740, 5427.000
736.2250, 5385.000
737.3760, 5425.000
738.5270, 5515.000
739.6780, 5364.000
740.8280, 5439.000
741.9780, 5478.000
743.1280, 5275.000
744.2780, 5415.000
745.4280, 5316.000
746.5770, 5294.000
747.7270, 5248.000
748.8760, 5216.124
750.0250, 5200.319
751.1740, 5190.000
752.3230, 5174.000
753.4720, 5175.000
754.6200, 5170.000
755.7680, 5043.000
756.9160, 5156.000
758.0640, 5048.000
759.2120, 5151.000
760.3600, 5119.000
761.5070, 5139.000
762.6550, 5012.333
763.8020, 5182.828
764.9490, 5278.646
766.0960, 5303.800
767.2420, 5046.646
768.3890, 5154.035
769.5350, 5115.331
770.6810, 5070.637
771.8270, 5229.333
772.9730, 5013.241
774.1190, 5168.712
775.2640, 5175.861
776.4100, 5250.894
777.5550, 5178.932
778.7000, 5152.373
779.8450, 5272.854
780.9900, 5311.918
782.1340, 5223.035
783.2790, 5302.382
784.4230, 5081.155
785.5670, 5123.686
786.7110, 5280.018
787.8550, 5198.526
788.9980, 5280.561
790.1420, 5300.316
791.2850, 5037.033
792.4280, 5265.982
793.5710, 5282.056
794.7140, 5079.556
795.8560, 5291.639
796.9990, 5119.271
798.1410, 5084.128
799.2830, 5265.000
800.4250, 5239.243
801.5670, 5311.000
802.7090, 5232.000
803.8500, 5220.000
804.9920, 5191.000
806.1330, 5206.000
807.2740, 5229.000
808.4150, 5157.000
809.5550, 5184.000
810.6960, 5178.355
811.8360, 5213.000
812.9760, 5197.000
814.1160, 5262.000
815.2560, 5283.000
816.3960, 5289.000
817.5350, 5237.000
818.6750, 5289.000
819.8140, 5344.000
820.9530, 5246.000
822.0920, 5328.000
823.2310, 5330.000
824.3690, 5361.000
825.5080, 5459.000
826.6460, 5433.000
827.7840, 5346.000
828.9220, 5402.000
830.0600, 5330.000
831.1970, 5389.000
832.3350, 5475.000
833.4720, 5382.000
834.6090, 5457.000
835.7460, 5478.000
836.8830, 5441.000
838.0190, 5478.526
839.1560, 5509.000
840.2920, 5498.000
841.4280, 5501.000
842.5640, 5552.000
843.7000, 5504.000
844.8360, 5581.000
845.9710, 5601.000
847.1070, 5555.000
848.2420, 5528.000
849.3770, 5718.000
850.5120, 5648.000
851.6460, 5744.000
852.7810, 5701.000
853.9150, 5772.000
855.0490, 5655.000
856.1830, 5648.000
857.3170, 5765.000
858.4510, 5818.000
859.5840, 5767.000
860.7180, 5706.000
861.8510, 5757.000
862.9840, 5754.000
864.1170, 5801.000
865.2500, 5701.000
866.3820, 5758.000
867.5150, 5846.000
868.6470, 5748.000
869.7790, 5729.000
870.9110, 5712.000
872.0430, 5746.000
873.1740, 5698.000
874.3060, 5777.000
875.4370, 5800.000
876.5680, 5727.000
877.6990, 5711.000
878.8300, 5784.000
879.9600, 5807.000
881.0910, 5778.000
882.2210, 5751.000
883.3510, 5779.000
884.4810, 5819.000
885.6110, 5766.000
886.7410, 5882.000
887.8700, 5763.000
888.9990, 5904.000
890.1290, 5841.000
891.2580, 6029.000
892.3860, 6024.000
893.5150, 5923.000
894.6440, 5973.000
895.7720, 6078.000
896.9000, 6052.000
898.0280, 6124.000
899.1560, 6094.000
900.2840, 6109.000
901.4110, 6174.000
902.5390, 6301.000
903.6660, 6161.000
904.7930, 6282.000
905.9200, 6369.000
907.0470, 6365.000
908.1730, 6479.000
909.3000, 6560.000
910.4260, 6533.000
911.5520, 6816.000
912.6780, 6757.000
913.8030, 6983.000
914.9290, 7192.000
916.0540, 7296.000
917.1800, 7592.000
918.3050, 7841.000
919.4300, 8126.000
920.5550, 8554.000
921.6790, 9008.000
922.8040, 9647.000
923.9280, 10354.00
925.0520, 11171.14
926.1760, 12161.00
927.3000, 13120.00
928.4230, 14253.00
929.5470, 15450.00
930.6700, 16323.00
931.7930, 16918.00
932.9160, 17172.22
934.0390, 17111.59
935.1620, 16772.00
936.2840, 16090.00
937.4070, 15128.00
938.5290, 13931.00
939.6510, 12780.00
940.7730, 11772.00
941.8940, 10947.18
943.0160, 10274.00
944.1370, 9667.000
945.2580, 9273.000
946.3800, 8982.000
947.5000, 8853.000
948.6210, 8657.000
949.7420, 8457.000
950.8620, 8303.000
951.9820, 7971.000
953.1020, 7835.000
954.2220, 7669.000
955.3420, 7550.000
956.4620, 7575.000
957.5810, 7497.000
958.7000, 7461.000
959.8190, 7426.000
960.9380, 7432.960
962.0570, 7327.000
963.1760, 7523.000
964.2940, 7524.000
965.4120, 7645.000
966.5300, 7608.000
967.6480, 7772.000
968.7660, 7869.000
969.8840, 7954.000
971.0010, 8065.000
972.1190, 8326.000
973.2360, 8404.000
974.3530, 8614.000
975.4690, 8986.000
976.5860, 9326.000
977.7030, 9606.285
978.8190, 9885.000
979.9350, 10313.00
981.0510, 10820.00
982.1670, 11372.00
983.2830, 11998.00
984.3980, 12919.00
985.5130, 13815.00
986.6290, 15110.00
987.7440, 16330.00
988.8590, 18127.00
989.9730, 20347.00
991.0880, 22704.00
992.2020, 25714.00
993.3160, 29394.00
994.4300, 33042.00
995.5440, 37418.00
996.6580, 41570.00
997.7720, 46008.00
998.8850, 49951.00
999.9980, 53895.00
1001.111, 56375.00
1002.224, 58354.00
1003.337, 59487.00
1004.450, 59642.00
1005.562, 59132.00
1006.674, 58301.00
1007.786, 56967.00
1008.898, 54974.00
1010.010, 52460.00
1011.122, 49969.00
1012.233, 47173.00
1013.344, 44412.02
1014.455, 41256.00
1015.566, 38530.00
1016.677, 35348.00
1017.788, 32209.00
1018.898, 29367.00
1020.009, 26409.00
1021.119, 23885.00
1022.229, 21469.00
1023.339, 19523.00
1024.448, 17678.00
1025.558, 16510.00
1026.667, 15170.00
1027.776, 14425.00
1028.885, 13785.00
1029.994, 13084.00
1031.103, 12750.00
1032.211, 12377.00
1033.320, 11946.00
1034.428, 12049.00
1035.536, 11827.00
1036.644, 11814.00
1037.751, 11778.00
1038.859, 11762.00
1039.966, 11711.00
1041.074, 11610.00
1042.181, 11327.00
1043.288, 10862.00
1044.394, 10648.00
1045.501, 10254.00
1046.607, 9931.000
1047.713, 9497.000
1048.820, 9128.000
1049.925, 8921.000
1051.031, 8757.000
1052.137, 8634.000
1053.242, 8477.000
1054.348, 8355.000
1055.453, 8171.000
1056.558, 8150.000
1057.662, 8058.000
1058.767, 8136.000
1059.871, 7954.000
1060.976, 8034.000
1062.080, 8051.000
1063.184, 8073.000
1064.288, 8106.399
1065.391, 8054.000
1066.495, 8150.000
1067.598, 8128.000
1068.701, 8170.000
1069.804, 8389.000
1070.907, 8550.000
1072.010, 8584.000
1073.112, 8861.000
1074.214, 9077.000
1075.317, 9380.000
1076.419, 9744.000
1077.521, 10030.00
1078.622, 10546.00
1079.724, 11029.00
1080.825, 11790.00
1081.926, 12579.00
1083.027, 13398.00
1084.128, 14322.00
1085.229, 15208.00
1086.329, 16136.00
1087.430, 16875.00
1088.530, 17196.00
1089.630, 17546.00
1090.730, 17298.00
1091.830, 16927.00
1092.929, 16156.00
1094.029, 15163.00
1095.128, 14277.00
1096.227, 13196.00
1097.326, 12473.00
1098.425, 11567.00
1099.523, 11005.00
1100.622, 10412.00
1101.720, 9859.000
1102.818, 9551.000
1103.916, 9130.000
1105.014, 8895.000
1106.111, 8625.000
1107.209, 8410.000
1108.306, 8153.000
1109.403, 7950.000
1110.500, 7763.000
1111.597, 7769.000
1112.694, 7652.000
1113.790, 7473.000
1114.887, 7359.000
1115.983, 7271.000
1117.079, 7392.000
1118.174, 7309.000
1119.270, 7337.000
1120.366, 7245.000
1121.461, 7155.000
1122.556, 7149.042
1123.651, 7080.000
1124.746, 7107.000
1125.841, 7097.000
1126.935, 7135.000
1128.030, 7127.973
1129.124, 7128.000
1130.218, 7121.000
1131.312, 7134.000
1132.405, 7122.000
1133.499, 7091.000
1134.592, 7075.213
1135.686, 7043.000
1136.779, 7005.000
1137.871, 7001.555
1138.964, 7052.000
1140.057, 6966.000
1141.149, 6996.000
1142.241, 6937.000
1143.334, 6936.000
1144.425, 7015.000
1145.517, 6887.000
1146.609, 6902.000
1147.700, 6843.000
1148.791, 6799.000
1149.883, 6842.000
1150.974, 6770.000
1152.064, 6740.000
1153.155, 6868.000
1154.245, 6853.000
1155.336, 6775.000
1156.426, 6915.000
1157.516, 6768.000
1158.606, 6825.000
1159.695, 6790.000
1160.785, 6722.000
1161.874, 6821.000
1162.963, 6742.000
1164.052, 6724.000
1165.141, 6832.000
1166.230, 6803.000
1167.318, 6786.000
1168.406, 6770.000
1169.495, 6747.000
1170.583, 6713.000
1171.670, 6783.000
1172.758, 6802.000
1173.846, 6794.000
1174.933, 6729.000
1176.020, 6734.000
1177.107, 6720.275
1178.194, 6711.000
1179.281, 6751.000
1180.367, 6827.000
1181.454, 6916.000
1182.540, 6788.000
1183.626, 6733.000
1184.712, 6837.000
1185.798, 6747.000
1186.883, 6833.000
1187.969, 6786.000
1189.054, 6787.000
1190.139, 6755.000
1191.224, 6686.000
1192.309, 6701.000
1193.393, 6711.000
1194.478, 6666.000
1195.562, 6743.000
1196.646, 6756.000
1197.730, 6703.000
1198.814, 6719.000
1199.897, 6747.000
1200.981, 6776.000
1202.064, 6734.000
1203.147, 6709.000
1204.230, 6689.000
1205.313, 6771.000
1206.396, 6632.000
1207.478, 6626.000
1208.560, 6746.000
1209.642, 6734.000
1210.724, 6717.000
1211.806, 6779.000
1212.888, 6689.000
1213.969, 6786.000
1215.051, 6791.000
1216.132, 6838.000
1217.213, 6768.000
1218.294, 6707.000
1219.374, 6783.000
1220.455, 6716.000
1221.535, 6697.000
1222.616, 6762.000
1223.696, 6788.000
1224.775, 6668.000
1225.855, 6694.000
1226.935, 6780.000
1228.014, 6789.000
1229.093, 6846.000
1230.172, 6816.000
1231.251, 6804.000
1232.330, 6797.000
1233.408, 6774.000
1234.487, 6804.000
1235.565, 6809.356
1236.643, 6789.000
1237.721, 6857.000
1238.799, 6864.000
1239.876, 6889.000
1240.954, 6817.000
1242.031, 6757.000
1243.108, 6858.000
1244.185, 6829.000
1245.262, 6835.000
1246.338, 6804.000
1247.415, 6782.000
1248.491, 6792.000
1249.567, 6809.000
1250.643, 6752.000
1251.719, 6852.000
1252.795, 6808.000
1253.870, 6871.000
1254.945, 6791.000
1256.021, 6746.000
1257.096, 6791.000
1258.170, 6826.000
1259.245, 6709.000
1260.320, 6897.000
1261.394, 6866.000
1262.468, 6782.000
1263.542, 6781.000
1264.616, 6790.000
1265.690, 6880.000
1266.763, 6852.000
1267.836, 6861.000
1268.910, 6789.000
1269.983, 6846.000
1271.055, 6804.000
1272.128, 6924.000
1273.201, 6838.000
1274.273, 6934.000
1275.345, 6870.000
1276.417, 6880.000
1277.489, 6835.000
1278.561, 6796.000
1279.632, 6808.942
1280.704, 6803.000
1281.775, 6807.000
1282.846, 6799.000
1283.917, 6775.000
1284.988, 6882.000
1286.058, 6843.000
1287.129, 6947.000
1288.199, 6819.000
1289.269, 7029.000
1290.339, 6907.000
1291.409, 6833.000
1292.478, 7009.000
1293.548, 6913.000
1294.617, 6942.000
1295.686, 6970.000
1296.755, 6928.968
1297.824, 6870.000
1298.893, 6939.000
1299.961, 6903.000
1301.029, 6964.000
1302.097, 6931.000
1303.165, 6948.514
1304.233, 7030.000
1305.301, 6978.000
1306.368, 6941.000
1307.436, 6974.000
1308.503, 6911.000
1309.570, 7012.000
1310.637, 7050.000
1311.703, 6983.000
1312.770, 7005.000
1313.836, 7027.000
1314.902, 7012.000
1315.968, 7082.000
1317.034, 7074.165
1318.100, 6948.000
1319.165, 7063.000
1320.231, 7060.000
1321.296, 6977.000
1322.361, 7052.000
1323.426, 6984.000
1324.491, 7067.000
1325.555, 6978.000
1326.620, 7074.000
1327.684, 6991.000
1328.748, 7054.000
1329.812, 6938.000
1330.875, 7025.000
1331.939, 7024.000
1333.002, 7011.000
1334.066, 6996.000
1335.129, 6985.000
1336.192, 7045.000
1337.254, 6927.000
1338.317, 7092.000
1339.379, 6987.000
1340.442, 7008.000
1341.504, 6988.000
1342.566, 7047.000
1343.628, 7031.000
1344.689, 7074.000
1345.751, 7091.000
1346.812, 6980.000
1347.873, 7120.000
1348.934, 7027.155
1349.995, 7098.000
1351.055, 7021.000
1352.116, 6999.000
1353.176, 7157.000
1354.236, 7123.000
1355.296, 7134.000
1356.356, 6963.000
1357.416, 7118.000
1358.475, 7053.000
1359.535, 7077.000
1360.594, 6980.000
1361.653, 6975.000
1362.712, 7095.000
1363.770, 7083.000
1364.829, 7207.000
1365.887, 7195.000
1366.945, 7079.000
1368.003, 7196.000
1369.061, 7047.000
1370.119, 7095.000
1371.177, 7056.000
1372.234, 7210.000
1373.291, 7194.000
1374.348, 7116.000
1375.405, 7253.000
1376.462, 7251.000
1377.518, 7206.000
1378.575, 7206.000
1379.631, 7193.000
1380.687, 7244.000
1381.743, 7183.000
1382.799, 7188.000
1383.854, 7234.000
1384.910, 7214.000
1385.965, 7241.000
1387.020, 7263.000
1388.075, 7195.000
1389.130, 7208.000
1390.184, 7207.000
1391.239, 7202.952
1392.293, 7180.000
1393.347, 7261.000
1394.401, 7224.000
1395.455, 7306.000
1396.509, 7214.000
1397.562, 7333.000
1398.615, 7320.000
1399.669, 7346.000
1400.722, 7180.000
1401.774, 7182.000
1402.827, 7170.000
1403.879, 7379.000
1404.932, 7306.000
1405.984, 7281.000
1407.036, 7324.000
1408.088, 7283.000
1409.139, 7223.000
1410.191, 7272.000
1411.242, 7211.000
1412.294, 7278.000
1413.345, 7268.000
1414.395, 7270.384
1415.446, 7238.000
1416.497, 7294.000
1417.547, 7273.000
1418.597, 7297.000
1419.647, 7286.000
1420.697, 7314.149
1421.747, 7377.000
1422.796, 7351.000
1423.846, 7361.000
1424.895, 7325.000
1425.944, 7333.000
1426.993, 7358.000
1428.042, 7455.000
1429.090, 7418.000
1430.139, 7344.000
1431.187, 7510.000
1432.235, 7410.000
1433.283, 7484.000
1434.331, 7539.000
1435.378, 7499.000
1436.426, 7589.000
1437.473, 7584.000
1438.520, 7663.000
1439.567, 7658.040
1440.614, 7618.000
1441.661, 7614.000
1442.707, 7604.000
1443.753, 7625.007
1444.799, 7569.000
1445.845, 7698.000
1446.891, 7657.000
1447.937, 7698.000
1448.982, 7769.000
1450.028, 7698.000
1451.073, 7743.000
1452.118, 7643.000
1453.163, 7812.000
1454.207, 7761.000
1455.252, 7761.000
1456.296, 7749.000
1457.340, 7802.000
1458.384, 7695.000
1459.428, 7722.000
1460.472, 7710.000
1461.515, 7669.000
1462.559, 7782.000
1463.602, 7661.000
1464.645, 7660.000
1465.688, 7668.000
1466.731, 7778.000
1467.773, 7644.000
1468.816, 7605.000
1469.858, 7786.000
1470.900, 7524.000
1471.942, 7740.000
1472.983, 7694.000
1474.025, 7707.000
1475.066, 7616.000
1476.108, 7767.000
1477.149, 7731.000
1478.190, 7548.000
1479.230, 7783.000
1480.271, 7616.000
1481.311, 7836.000
1482.352, 7654.000
1483.392, 7745.000
1484.432, 7663.000
1485.472, 7662.000
1486.511, 7610.000
1487.551, 7660.000
1488.590, 7644.414
1489.629, 7672.000
1490.668, 7678.000
1491.707, 7642.000
1492.745, 7685.000
1493.784, 7665.000
1494.822, 7731.000
1495.860, 7617.000
1496.898, 7629.000
1497.936, 7659.000
1498.974, 7658.000
1500.011, 7640.000
1501.049, 7642.000
1502.086, 7630.000
1503.123, 7651.000
1504.160, 7683.000
1505.196, 7666.000
1506.233, 7573.000
1507.269, 7652.000
1508.305, 7621.000
1509.341, 7714.000
1510.377, 7630.000
1511.413, 7789.000
1512.449, 7654.000
1513.484, 7653.000
1514.519, 7794.000
1515.554, 7794.000
1516.589, 7751.000
1517.624, 7746.000
1518.658, 7741.000
1519.693, 7678.000
1520.727, 7757.000
1521.761, 7683.000
1522.795, 7675.000
1523.829, 7726.000
1524.862, 7720.000
1525.896, 7804.000
1526.929, 7776.000
1527.962, 7783.760
1528.995, 7747.000
1530.028, 7737.000
1531.060, 7776.000
1532.093, 7714.000
1533.125, 7751.000
1534.157, 7715.000
1535.189, 7899.000
1536.221, 7900.000
1537.253, 7888.000
1538.284, 7796.000
1539.316, 7846.000
1540.347, 7740.000
1541.378, 7868.000
1542.408, 7810.000
1543.439, 7855.000
1544.470, 7916.000
1545.500, 7890.000
1546.530, 7842.000
1547.560, 7873.000
1548.590, 7840.000
1549.620, 7946.000
1550.649, 7834.000
1551.679, 7902.000
1552.708, 7958.000
1553.737, 7918.000
1554.766, 7878.000
1555.794, 7953.000
1556.823, 7909.000
1557.851, 7841.000
1558.879, 7937.000
1559.907, 7915.000
1560.935, 7879.000
1561.963, 7960.000
##END=



