##NAMES=Catapleiite
##RRUFFID=R060198
##IDEAL CHEMISTRY=Na_2_Zr^4+^Si_3_O_9_&#183;2H_2_O
##LOCALITY=Mont Saint-Hilaire, Rouville County, Quebec, Canada
##OWNER=RRUFF
##SOURCE=Royal Ontario Museum
##DESCRIPTION=Tan colored pseudohexagonal tabular crystals
##STATUS=The identification of this mineral has been confirmed by X-ray diffraction and chemical analysis
##URL=rruff.info/R060198
##MEASURED CHEMISTRY=(Na_1.92_Ca_0.04_[box]_0.04_)_Σ=2_Zr_1.00_Si_3.00_O_9_·2H_2_O
##PIN_ID=L00848
##ORIENTATION=Laser parallel to (1 0 1). Fiducial mark perpendicular to laser is parallel to b [0 1 0]
95.94800, 9289.000
97.18200, 9353.125
98.41600, 9389.000
99.64900, 9414.000
100.8830, 9328.000
102.1160, 9334.000
103.3490, 9441.000
104.5820, 9658.000
105.8150, 10026.00
107.0470, 10610.00
108.2800, 11280.00
109.5120, 11207.00
110.7440, 10427.00
111.9760, 10234.00
113.2080, 10425.00
114.4400, 10612.00
115.6710, 10719.00
116.9030, 10729.00
118.1340, 10644.00
119.3650, 10561.00
120.5960, 10435.00
121.8270, 10592.00
123.0580, 10590.00
124.2880, 10708.00
125.5190, 10545.00
126.7490, 10886.00
127.9790, 10803.00
129.2090, 10882.00
130.4390, 11074.00
131.6680, 11116.00
132.8980, 11147.00
134.1270, 11317.00
135.3560, 11642.00
136.5850, 11890.00
137.8140, 11820.00
139.0430, 11915.00
140.2710, 11846.00
141.5000, 11915.00
142.7280, 11753.00
143.9560, 11805.00
145.1840, 11915.00
146.4120, 11985.00
147.6390, 12158.00
148.8670, 12257.00
150.0940, 12565.00
151.3210, 12619.00
152.5490, 12685.00
153.7750, 12846.00
155.0020, 12770.00
156.2290, 12777.00
157.4550, 12692.00
158.6810, 12920.00
159.9080, 12709.00
161.1340, 12817.00
162.3590, 12679.00
163.5850, 12408.00
164.8110, 12229.00
166.0360, 12023.00
167.2610, 11817.00
168.4860, 11627.90
169.7110, 11370.00
170.9360, 11232.00
172.1610, 10983.00
173.3850, 10772.00
174.6100, 10665.00
175.8340, 10514.00
177.0580, 10462.00
178.2820, 10326.04
179.5050, 10351.00
180.7290, 10115.00
181.9520, 10186.00
183.1760, 10124.00
184.3990, 10320.00
185.6220, 10200.00
186.8450, 10362.00
188.0670, 10297.00
189.2900, 10443.00
190.5120, 10571.00
191.7340, 10720.00
192.9560, 10959.00
194.1780, 11085.00
195.4000, 11246.00
196.6220, 11358.00
197.8430, 11572.00
199.0640, 11839.00
200.2860, 11963.00
201.5070, 12191.00
202.7270, 12211.09
203.9480, 12407.00
205.1690, 12169.00
206.3890, 12150.00
207.6090, 12047.00
208.8290, 11995.00
210.0490, 11911.00
211.2690, 11652.00
212.4890, 11632.00
213.7080, 11203.00
214.9280, 11029.00
216.1470, 10744.00
217.3660, 10392.00
218.5850, 10169.00
219.8030, 9938.000
221.0220, 9738.000
222.2400, 9473.000
223.4590, 9096.000
224.6770, 9162.000
225.8950, 8822.000
227.1120, 8719.000
228.3300, 8597.000
229.5480, 8543.000
230.7650, 8358.000
231.9820, 8468.000
233.1990, 8431.000
234.4160, 8287.000
235.6330, 8275.000
236.8490, 8226.000
238.0660, 8223.000
239.2820, 8214.000
240.4980, 8058.000
241.7140, 7920.000
242.9300, 7968.000
244.1460, 8020.000
245.3610, 7901.000
246.5770, 7902.000
247.7920, 7852.000
249.0070, 7984.000
250.2220, 7917.000
251.4370, 7883.000
252.6510, 7961.000
253.8660, 7940.000
255.0800, 8029.000
256.2940, 8075.000
257.5080, 8174.000
258.7220, 8184.417
259.9360, 8175.975
261.1490, 8196.000
262.3630, 8081.000
263.5760, 8053.000
264.7890, 7962.000
266.0020, 7833.000
267.2150, 7969.000
268.4270, 7986.000
269.6400, 7921.000
270.8520, 8047.000
272.0640, 7937.000
273.2760, 7877.000
274.4880, 7998.000
275.7000, 7978.000
276.9120, 8020.000
278.1230, 8088.000
279.3340, 8190.000
280.5450, 8215.000
281.7560, 8297.000
282.9670, 8382.000
284.1780, 8487.000
285.3880, 8570.000
286.5980, 8745.000
287.8090, 8917.000
289.0190, 9097.000
290.2290, 9203.780
291.4380, 9344.000
292.6480, 9389.000
293.8570, 9503.000
295.0670, 9563.000
296.2760, 9589.000
297.4850, 9549.000
298.6930, 9488.000
299.9020, 9349.000
301.1110, 9174.000
302.3190, 9377.000
303.5270, 9117.000
304.7350, 9152.000
305.9430, 9066.000
307.1510, 9056.000
308.3580, 8910.000
309.5660, 8947.000
310.7730, 8940.000
311.9800, 8897.000
313.1870, 8950.000
314.3940, 8904.000
315.6010, 8850.000
316.8070, 8766.000
318.0130, 8788.000
319.2200, 8880.000
320.4260, 8802.000
321.6310, 8837.000
322.8370, 8852.000
324.0430, 9012.000
325.2480, 8980.000
326.4540, 8899.000
327.6590, 8756.000
328.8640, 8879.000
330.0680, 8783.000
331.2730, 8832.000
332.4780, 8739.000
333.6820, 8805.000
334.8860, 8659.000
336.0900, 8645.000
337.2940, 8677.000
338.4980, 8639.000
339.7010, 8553.000
340.9050, 8468.000
342.1080, 8519.000
343.3110, 8512.000
344.5140, 8405.000
345.7170, 8529.000
346.9200, 8630.000
348.1220, 8550.000
349.3240, 8713.000
350.5270, 8634.000
351.7290, 8777.000
352.9310, 8858.000
354.1320, 8775.000
355.3340, 8870.000
356.5350, 8986.000
357.7370, 9073.000
358.9380, 9141.823
360.1390, 9296.000
361.3400, 9263.000
362.5400, 9312.000
363.7410, 9378.000
364.9410, 9476.000
366.1410, 9378.000
367.3410, 9278.000
368.5410, 9336.000
369.7410, 9279.836
370.9400, 9293.000
372.1400, 9308.000
373.3390, 9237.000
374.5380, 9274.000
375.7370, 9353.000
376.9360, 9198.000
378.1350, 9252.000
379.3330, 9273.000
380.5310, 9227.000
381.7300, 9166.000
382.9280, 9230.000
384.1260, 9158.000
385.3230, 9209.000
386.5210, 9218.000
387.7180, 9283.000
388.9160, 9181.000
390.1130, 9168.000
391.3100, 9223.000
392.5060, 9258.000
393.7030, 9338.000
394.9000, 9266.000
396.0960, 9259.000
397.2920, 9390.000
398.4880, 9427.000
399.6840, 9498.000
400.8800, 9519.000
402.0750, 9653.585
403.2710, 9761.000
404.4660, 9923.000
405.6610, 10065.00
406.8560, 10197.00
408.0510, 10485.00
409.2450, 10713.00
410.4400, 11033.00
411.6340, 11576.00
412.8280, 11990.00
414.0220, 12699.00
415.2160, 13188.00
416.4100, 14100.00
417.6030, 15047.00
418.7970, 16132.00
419.9900, 17396.00
421.1830, 18469.00
422.3760, 19780.00
423.5690, 21324.00
424.7610, 22336.00
425.9540, 23108.00
427.1460, 23382.00
428.3380, 23307.00
429.5300, 22731.00
430.7220, 21924.00
431.9140, 20773.00
433.1050, 19527.00
434.2970, 18508.00
435.4880, 17303.00
436.6790, 16157.00
437.8700, 15244.00
439.0610, 14753.00
440.2510, 13943.00
441.4420, 13280.00
442.6320, 12606.00
443.8220, 12310.00
445.0120, 11963.00
446.2020, 11739.00
447.3910, 11499.00
448.5810, 11121.00
449.7700, 10914.00
450.9600, 10837.00
452.1490, 10790.00
453.3370, 10685.00
454.5260, 10549.00
455.7150, 10537.00
456.9030, 10378.00
458.0910, 10356.00
459.2800, 10099.00
460.4670, 10072.00
461.6550, 10100.00
462.8430, 9866.000
464.0300, 9947.000
465.2180, 9874.000
466.4050, 9820.000
467.5920, 9817.000
468.7790, 9802.000
469.9650, 9861.000
471.1520, 9870.000
472.3380, 9781.000
473.5250, 9779.000
474.7110, 9700.000
475.8970, 9808.000
477.0820, 9784.000
478.2680, 9784.000
479.4540, 9596.000
480.6390, 9811.000
481.8240, 9651.000
483.0090, 9748.000
484.1940, 9682.000
485.3780, 9792.000
486.5630, 9643.000
487.7470, 9696.000
488.9320, 9869.000
490.1160, 9726.000
491.3000, 9804.000
492.4830, 9809.000
493.6670, 9852.723
494.8500, 9846.000
496.0340, 9984.000
497.2170, 9984.000
498.4000, 9955.000
499.5820, 10078.00
500.7650, 9982.000
501.9480, 10237.00
503.1300, 10234.00
504.3120, 10281.00
505.4940, 10363.00
506.6760, 10451.00
507.8580, 10394.00
509.0390, 10605.00
510.2210, 10782.00
511.4020, 11016.00
512.5830, 10945.00
513.7640, 11140.00
514.9450, 11248.00
516.1250, 11527.00
517.3060, 11684.00
518.4860, 11812.06
519.6660, 11791.00
520.8460, 12025.00
522.0260, 12051.00
523.2060, 12088.00
524.3850, 12256.00
525.5650, 12231.00
526.7440, 12256.00
527.9230, 12214.00
529.1020, 12228.76
530.2810, 12240.04
531.4590, 12234.00
532.6380, 12252.00
533.8160, 12244.00
534.9940, 12202.00
536.1720, 12152.00
537.3500, 12147.00
538.5270, 12180.00
539.7050, 12141.00
540.8820, 11985.00
542.0590, 12115.00
543.2360, 11990.00
544.4130, 12192.00
545.5900, 12178.00
546.7660, 12431.00
547.9430, 12506.00
549.1190, 12647.00
550.2950, 12806.00
551.4710, 13130.00
552.6470, 13451.63
553.8220, 13873.77
554.9980, 14397.00
556.1730, 14934.00
557.3480, 15689.00
558.5230, 16419.00
559.6980, 17332.00
560.8730, 18337.93
562.0470, 19737.00
563.2220, 20679.00
564.3960, 22093.00
565.5700, 23591.00
566.7440, 24341.00
567.9170, 25451.00
569.0910, 25990.00
570.2640, 26485.00
571.4380, 26271.00
572.6110, 25711.00
573.7840, 24918.00
574.9570, 23629.00
576.1290, 22264.00
577.3020, 20608.00
578.4740, 19111.00
579.6460, 17855.00
580.8180, 16629.00
581.9900, 15579.84
583.1620, 14597.00
584.3330, 13894.00
585.5040, 13252.00
586.6760, 12813.00
587.8470, 12266.00
589.0180, 12018.00
590.1880, 11724.00
591.3590, 11477.00
592.5290, 11353.00
593.7000, 11271.00
594.8700, 10971.00
596.0400, 10988.00
597.2090, 10872.00
598.3790, 10907.00
599.5490, 10896.00
600.7180, 10802.00
601.8870, 10839.00
603.0560, 10856.00
604.2250, 10966.00
605.3940, 10922.00
606.5620, 11037.00
607.7300, 11171.00
608.8990, 11327.39
610.0670, 11711.00
611.2350, 11832.00
612.4020, 12083.00
613.5700, 12469.00
614.7370, 12996.00
615.9050, 13603.00
617.0720, 14273.00
618.2390, 15126.00
619.4060, 16293.00
620.5720, 17712.00
621.7390, 19432.00
622.9050, 21185.00
624.0710, 23128.00
625.2370, 24676.00
626.4030, 25963.00
627.5690, 26473.00
628.7340, 26280.00
629.9000, 25130.00
631.0650, 23623.00
632.2300, 21949.00
633.3950, 20260.00
634.5600, 18439.00
635.7240, 16801.00
636.8890, 15686.00
638.0530, 14411.00
639.2170, 13752.00
640.3810, 13070.00
641.5450, 12327.00
642.7080, 12103.00
643.8720, 11762.00
645.0350, 11583.00
646.1980, 11264.00
647.3610, 11081.00
648.5240, 10955.00
649.6870, 10738.00
650.8490, 10614.00
652.0120, 10449.00
653.1740, 10501.00
654.3360, 10530.00
655.4980, 10491.00
656.6600, 10304.00
657.8210, 10345.00
658.9830, 10307.00
660.1440, 10256.00
661.3050, 10318.20
662.4660, 10388.01
663.6270, 10315.00
664.7870, 10309.06
665.9480, 10347.85
667.1080, 10170.00
668.2680, 10179.00
669.4280, 10100.00
670.5880, 10111.00
671.7480, 10160.00
672.9070, 10022.00
674.0670, 10026.00
675.2260, 10134.00
676.3850, 10071.00
677.5440, 9978.000
678.7030, 9977.000
679.8610, 10085.00
681.0200, 10161.00
682.1780, 9998.000
683.3360, 10126.00
684.4940, 10018.00
685.6520, 10115.00
686.8090, 10105.00
687.9670, 10128.00
689.1240, 10145.00
690.2810, 10094.00
691.4380, 10240.00
692.5950, 10135.00
693.7520, 10134.00
694.9080, 10072.00
696.0650, 9982.000
697.2210, 10003.43
698.3770, 9969.696
699.5330, 9982.000
700.6880, 10045.00
701.8440, 9988.000
702.9990, 10159.00
704.1550, 10114.00
705.3100, 10144.00
706.4650, 10066.00
707.6190, 10170.00
708.7740, 10304.00
709.9290, 10308.00
711.0830, 10343.00
712.2370, 10334.00
713.3910, 10437.00
714.5450, 10478.00
715.6980, 10426.00
716.8520, 10595.00
718.0050, 10597.00
719.1580, 10724.00
720.3110, 10684.00
721.4640, 10780.00
722.6170, 10871.00
723.7700, 10991.00
724.9220, 10998.00
726.0740, 11079.00
727.2260, 11123.00
728.3780, 11253.00
729.5300, 11435.00
730.6810, 11552.00
731.8330, 11503.00
732.9840, 11596.00
734.1350, 11622.00
735.2860, 11729.00
736.4370, 11703.25
737.5880, 11760.00
738.7380, 11582.00
739.8880, 11518.00
741.0390, 11300.00
742.1890, 11193.00
743.3380, 11163.00
744.4880, 11108.00
745.6380, 11051.00
746.7870, 10979.00
747.9360, 10818.00
749.0850, 10747.00
750.2340, 10787.00
751.3830, 10629.00
752.5310, 10683.00
753.6800, 10494.00
754.8280, 10610.00
755.9760, 10592.00
757.1240, 10534.00
758.2720, 10546.47
759.4190, 10454.00
760.5670, 10485.00
761.7140, 10366.00
762.8610, 10382.00
764.0080, 10445.00
765.1550, 10447.00
766.3020, 10402.00
767.4480, 10408.00
768.5950, 10448.00
769.7410, 10375.00
770.8870, 10366.00
772.0330, 10387.00
773.1780, 10430.00
774.3240, 10448.53
775.4690, 10455.00
776.6140, 10519.00
777.7590, 10510.00
778.9040, 10536.55
780.0490, 10490.00
781.1940, 10517.00
782.3380, 10521.00
783.4820, 10523.00
784.6260, 10497.00
785.7700, 10571.00
786.9140, 10522.00
788.0580, 10342.00
789.2010, 10547.00
790.3450, 10740.00
791.4880, 10381.00
792.6310, 10565.00
793.7730, 10619.00
794.9160, 10555.00
796.0590, 10547.00
797.2010, 10463.00
798.3430, 10538.00
799.4850, 10572.00
800.6270, 10667.00
801.7690, 10553.00
802.9100, 10675.00
804.0520, 10645.00
805.1930, 10836.00
806.3340, 10736.00
807.4750, 10795.00
808.6160, 10905.00
809.7560, 10847.00
810.8970, 10701.00
812.0370, 10792.00
813.1770, 10808.00
814.3170, 10827.00
815.4570, 10858.86
816.5960, 10846.00
817.7360, 10879.00
818.8750, 10893.00
820.0140, 10903.78
821.1530, 11061.00
822.2920, 11023.00
823.4310, 11039.00
824.5690, 11175.00
825.7070, 11095.00
826.8460, 11071.00
827.9840, 11135.00
829.1220, 11157.00
830.2590, 11138.00
831.3970, 11215.00
832.5340, 11362.00
833.6710, 11360.00
834.8080, 11338.00
835.9450, 11355.00
837.0820, 11341.00
838.2190, 11451.00
839.3550, 11388.00
840.4910, 11304.00
841.6270, 11498.00
842.7630, 11469.00
843.8990, 11296.00
845.0350, 11561.00
846.1700, 11432.00
847.3060, 11498.00
848.4410, 11396.00
849.5760, 11459.00
850.7100, 11396.00
851.8450, 11578.00
852.9800, 11587.00
854.1140, 11557.00
855.2480, 11570.00
856.3820, 11635.00
857.5160, 11566.00
858.6500, 11482.00
859.7830, 11677.00
860.9170, 11532.00
862.0500, 11577.00
863.1830, 11701.00
864.3160, 11701.00
865.4480, 11634.00
866.5810, 11585.00
867.7130, 11663.00
868.8460, 11665.00
869.9780, 11673.00
871.1100, 11681.00
872.2410, 11712.00
873.3730, 11718.00
874.5050, 11792.00
875.6360, 11736.00
876.7670, 11801.19
877.8980, 11894.00
879.0290, 11874.00
880.1590, 11900.00
881.2900, 11925.76
882.4200, 11881.00
883.5500, 12060.00
884.6800, 12084.00
885.8100, 12211.00
886.9400, 12208.00
888.0690, 12250.00
889.1990, 12270.00
890.3280, 12300.37
891.4570, 12335.00
892.5860, 12381.00
893.7140, 12459.00
894.8430, 12522.39
895.9710, 12693.00
897.1000, 12779.00
898.2280, 12930.00
899.3560, 13179.00
900.4830, 13092.00
901.6110, 13340.00
902.7380, 13649.00
903.8660, 13792.00
904.9930, 14152.00
906.1200, 14655.00
907.2460, 15253.00
908.3730, 15230.00
909.5000, 15751.00
910.6260, 16312.00
911.7520, 16837.00
912.8780, 17394.00
914.0040, 17984.00
915.1290, 18947.00
916.2550, 20125.00
917.3800, 21170.00
918.5050, 22713.00
919.6300, 24610.00
920.7550, 26764.00
921.8800, 29453.00
923.0040, 32243.00
924.1290, 35944.00
925.2530, 39563.00
926.3770, 44032.00
927.5010, 47407.00
928.6250, 51564.00
929.7480, 54275.00
930.8720, 56161.00
931.9950, 56606.00
933.1180, 56073.00
934.2410, 54223.00
935.3640, 51344.00
936.4860, 47591.00
937.6090, 43872.00
938.7310, 40070.00
939.8530, 36330.00
940.9750, 33126.00
942.0970, 30530.00
943.2180, 28178.00
944.3400, 26228.00
945.4610, 24712.00
946.5820, 23457.00
947.7030, 22178.00
948.8240, 20862.00
949.9450, 19972.00
951.0650, 18821.00
952.1860, 18055.00
953.3060, 17142.00
954.4260, 16433.00
955.5460, 16010.00
956.6650, 15536.00
957.7850, 15177.00
958.9040, 14931.00
960.0230, 14793.00
961.1420, 14647.00
962.2610, 14529.00
963.3800, 14292.00
964.4990, 14170.00
965.6170, 14040.00
966.7350, 14045.00
967.8530, 14050.00
968.9710, 14120.00
970.0890, 14218.00
971.2070, 14150.00
972.3240, 14243.00
973.4410, 14243.00
974.5580, 14452.00
975.6750, 14424.00
976.7920, 14554.00
977.9090, 14787.00
979.0250, 14870.00
980.1410, 15280.00
981.2580, 15593.00
982.3740, 15873.00
983.4890, 16159.00
984.6050, 16767.00
985.7200, 17204.00
986.8360, 17956.00
987.9510, 18812.00
989.0660, 19826.00
990.1810, 21135.00
991.2950, 22621.00
992.4100, 24274.00
993.5240, 26318.00
994.6390, 28181.00
995.7530, 30584.00
996.8660, 32958.00
997.9800, 35473.00
999.0940, 37413.00
1000.207, 39134.00
1001.320, 40638.00
1002.433, 41465.00
1003.546, 42358.00
1004.659, 42559.00
1005.772, 42045.00
1006.884, 41102.00
1007.996, 40353.00
1009.108, 39129.00
1010.220, 37819.00
1011.332, 35932.00
1012.444, 34169.00
1013.555, 32242.00
1014.666, 30754.00
1015.777, 29103.00
1016.888, 27477.00
1017.999, 25953.00
1019.110, 24464.00
1020.220, 23229.00
1021.331, 21875.00
1022.441, 20600.00
1023.551, 19979.00
1024.661, 19213.00
1025.770, 18411.00
1026.880, 18062.00
1027.989, 17574.00
1029.098, 17197.00
1030.207, 16834.00
1031.316, 16515.00
1032.425, 16293.99
1033.533, 16073.00
1034.642, 15964.00
1035.750, 15922.00
1036.858, 15842.00
1037.966, 15826.21
1039.073, 15726.93
1040.181, 15726.00
1041.288, 15588.00
1042.396, 15330.00
1043.503, 15337.00
1044.610, 15103.15
1045.716, 14922.00
1046.823, 14776.00
1047.929, 14620.00
1049.036, 14497.00
1050.142, 14402.00
1051.248, 14360.00
1052.353, 14329.00
1053.459, 14218.00
1054.564, 14241.00
1055.670, 14150.00
1056.775, 14146.00
1057.880, 14036.00
1058.985, 14068.00
1060.089, 14057.00
1061.194, 14136.00
1062.298, 14037.00
1063.402, 14100.00
1064.506, 14059.00
1065.610, 14034.00
1066.713, 14068.00
1067.817, 14301.00
1068.920, 14170.00
1070.023, 14306.00
1071.126, 14435.00
1072.229, 14286.00
1073.332, 14419.00
1074.435, 14351.00
1075.537, 14556.00
1076.639, 14770.00
1077.741, 14840.00
1078.843, 15058.00
1079.945, 15277.00
1081.046, 15594.00
1082.148, 15799.00
1083.249, 16140.00
1084.350, 16382.00
1085.451, 16579.86
1086.551, 16741.00
1087.652, 16893.00
1088.752, 16998.00
1089.853, 17011.00
1090.953, 16731.00
1092.053, 16364.00
1093.152, 16254.00
1094.252, 15903.00
1095.351, 15659.00
1096.451, 15342.00
1097.550, 15166.00
1098.649, 14893.00
1099.748, 14708.32
1100.846, 14558.46
1101.945, 14420.00
1103.043, 14287.00
1104.141, 14277.00
1105.239, 14144.00
1106.337, 14016.00
1107.434, 14081.00
1108.532, 13977.09
1109.629, 14105.00
1110.726, 13927.00
1111.823, 14046.00
1112.920, 14045.00
1114.017, 13923.00
1115.113, 13983.00
1116.210, 14121.00
1117.306, 13994.00
1118.402, 13982.00
1119.498, 14018.00
1120.593, 14322.00
1121.689, 14308.00
1122.784, 14359.00
1123.879, 14364.00
1124.974, 14317.92
1126.069, 14105.00
1127.164, 14180.00
1128.259, 14129.00
1129.353, 13995.00
1130.447, 14022.00
1131.541, 14027.00
1132.635, 13974.00
1133.729, 14078.00
1134.822, 14081.00
1135.916, 14007.00
1137.009, 14113.00
1138.102, 14258.00
1139.195, 14174.00
1140.288, 14286.00
1141.380, 14210.00
1142.473, 14065.00
1143.565, 14144.00
1144.657, 14096.00
1145.749, 14039.00
1146.841, 14139.00
1147.932, 14238.00
1149.024, 14073.00
1150.115, 14066.00
1151.206, 14127.00
1152.297, 14187.00
1153.388, 14134.00
1154.479, 14142.00
1155.569, 14258.00
1156.659, 14003.00
1157.750, 14116.78
1158.839, 14040.00
1159.929, 14154.00
1161.019, 14048.00
1162.108, 14084.00
1163.198, 14111.00
1164.287, 14270.00
1165.376, 14163.00
1166.465, 14267.00
1167.553, 14246.00
1168.642, 14195.02
1169.730, 14072.00
1170.818, 14170.00
1171.906, 14122.00
1172.994, 14255.00
1174.082, 14219.00
1175.170, 14182.00
1176.257, 14288.00
1177.344, 14205.00
1178.431, 14203.00
1179.518, 14182.00
1180.605, 14308.00
1181.691, 14198.00
1182.778, 14245.00
1183.864, 14152.00
1184.950, 14276.00
1186.036, 14058.00
1187.122, 14237.00
1188.207, 14356.00
1189.292, 14170.00
1190.378, 14222.00
1191.463, 14345.00
1192.548, 14146.00
1193.632, 14235.00
1194.717, 14311.00
1195.801, 14259.00
1196.886, 14306.00
1197.970, 14240.00
1199.054, 14271.41
1200.137, 14303.00
1201.221, 14323.00
1202.305, 14285.00
1203.388, 14328.00
1204.471, 14293.00
1205.554, 14415.00
1206.637, 14173.00
1207.719, 14287.00
1208.802, 14398.00
1209.884, 14450.00
1210.966, 14192.00
1212.048, 14313.00
1213.130, 14380.00
1214.212, 14333.00
1215.293, 14425.00
1216.374, 14382.00
1217.456, 14312.00
1218.536, 14387.00
1219.617, 14513.00
1220.698, 14457.00
1221.778, 14415.00
1222.859, 14452.00
1223.939, 14330.00
1225.019, 14531.00
1226.099, 14456.00
1227.178, 14607.00
1228.258, 14417.00
1229.337, 14524.00
1230.417, 14550.00
1231.496, 14702.00
1232.574, 14601.00
1233.653, 14634.00
1234.732, 14495.00
1235.810, 14445.00
1236.888, 14531.00
1237.966, 14366.00
1239.044, 14582.00
1240.122, 14557.00
1241.199, 14530.00
1242.277, 14609.00
1243.354, 14774.00
1244.431, 14547.00
1245.508, 14707.00
1246.585, 14659.00
1247.661, 14702.00
1248.738, 14730.00
1249.814, 14653.00
1250.890, 14598.00
1251.966, 14504.00
1253.042, 14624.00
1254.117, 14643.00
1255.193, 14755.00
1256.268, 14895.00
1257.343, 14744.00
1258.418, 14822.00
1259.493, 14780.00
1260.567, 14703.00
1261.642, 14814.00
1262.716, 14944.00
1263.790, 14773.00
1264.864, 14693.00
1265.938, 14803.00
1267.011, 14682.00
1268.085, 14852.00
1269.158, 14801.00
1270.231, 14688.00
1271.304, 14745.00
1272.377, 14862.00
1273.450, 14897.00
1274.522, 14868.00
1275.594, 14910.98
1276.666, 14982.00
1277.738, 14842.00
1278.810, 14860.00
1279.882, 14710.00
1280.953, 14912.00
1282.025, 15002.00
1283.096, 14968.00
1284.167, 14973.00
1285.238, 14949.00
1286.308, 14957.00
1287.379, 14922.00
1288.449, 14961.00
1289.519, 15028.00
1290.589, 15088.00
1291.659, 14974.00
1292.729, 15022.00
1293.798, 15111.00
1294.868, 15163.00
1295.937, 15006.00
1297.006, 15120.00
1298.075, 15095.00
1299.143, 15164.00
1300.212, 15155.00
1301.280, 15144.41
1302.348, 15095.00
1303.416, 15090.00
1304.484, 15153.00
1305.552, 15094.00
1306.620, 15101.00
1307.687, 15102.00
1308.754, 15084.46
1309.821, 15170.00
1310.888, 15150.00
1311.955, 15104.00
1313.021, 15277.00
1314.088, 15185.00
1315.154, 15244.00
1316.220, 15144.00
1317.286, 15287.00
1318.352, 15377.00
1319.417, 15267.00
1320.483, 15270.00
1321.548, 15278.00
1322.613, 15218.00
1323.678, 15288.34
1324.743, 15485.00
1325.807, 15377.00
1326.872, 15411.00
1327.936, 15409.00
1329.000, 15387.00
1330.064, 15427.60
1331.128, 15423.00
1332.191, 15467.00
1333.255, 15539.00
1334.318, 15533.00
1335.381, 15591.00
1336.444, 15532.00
1337.507, 15478.00
1338.569, 15441.00
1339.632, 15489.00
1340.694, 15595.00
1341.756, 15726.00
1342.818, 15576.00
1343.880, 15491.00
1344.941, 15758.00
1346.003, 15594.00
1347.064, 15674.00
1348.125, 15649.00
1349.186, 15728.00
1350.247, 15754.00
1351.308, 15767.00
1352.368, 15667.00
1353.428, 15840.00
1354.489, 15786.00
1355.549, 15761.00
1356.608, 15976.00
1357.668, 15840.00
1358.727, 16012.00
1359.787, 15969.00
1360.846, 16037.00
1361.905, 16193.00
1362.964, 16083.00
1364.022, 15931.00
1365.081, 16002.00
1366.139, 15903.00
1367.197, 15970.00
1368.255, 15930.00
1369.313, 15832.00
1370.371, 15886.00
1371.428, 15709.00
1372.486, 15923.00
1373.543, 15830.00
1374.600, 15823.00
1375.657, 15748.00
1376.713, 15749.00
1377.770, 15962.00
1378.826, 16053.00
1379.882, 15890.00
1380.938, 15786.00
1381.994, 16089.00
1383.050, 16072.00
1384.106, 15863.00
1385.161, 16089.00
1386.216, 15871.00
1387.271, 16081.00
1388.326, 16028.00
1389.381, 16165.00
1390.435, 16033.00
1391.490, 16214.00
1392.544, 16006.00
1393.598, 16116.00
1394.652, 16312.00
1395.705, 16209.00
1396.759, 16231.00
1397.812, 16294.00
1398.866, 16351.00
1399.919, 16206.00
1400.972, 16264.00
1402.024, 16248.00
1403.077, 15949.00
1404.129, 16015.00
1405.181, 16099.00
1406.233, 15978.00
1407.285, 16118.00
1408.337, 16044.00
1409.389, 16029.00
1410.440, 16035.00
1411.491, 15954.00
1412.542, 16142.00
1413.593, 15976.00
1414.644, 16129.00
1415.695, 16085.00
1416.745, 16169.00
1417.795, 16250.00
1418.845, 16172.00
1419.895, 16286.00
1420.945, 16282.00
1421.995, 16278.00
1423.044, 16317.61
1424.093, 16321.00
1425.142, 16330.00
1426.191, 16302.00
1427.240, 16307.00
1428.289, 16313.72
1429.337, 16361.00
1430.385, 16322.00
1431.433, 16395.00
1432.481, 16375.00
1433.529, 16463.00
1434.577, 16452.37
1435.624, 16442.00
1436.672, 16465.00
1437.719, 16487.29
1438.766, 16341.00
1439.812, 16560.00
1440.859, 16473.00
1441.905, 16488.00
1442.952, 16581.00
1443.998, 16629.00
1445.044, 16657.00
1446.090, 16685.00
1447.135, 16631.00
1448.181, 16687.00
1449.226, 16701.00
1450.271, 16610.00
1451.316, 16685.00
1452.361, 16795.00
1453.405, 16751.00
1454.450, 16714.00
1455.494, 16692.00
1456.538, 16668.85
1457.582, 16669.16
1458.626, 16660.00
1459.670, 16687.15
1460.713, 16725.00
1461.757, 16742.00
1462.800, 16794.00
1463.843, 16781.00
1464.886, 16873.00
1465.928, 16854.00
1466.971, 16758.00
1468.013, 16817.65
1469.055, 16785.80
1470.097, 16835.00
1471.139, 16825.00
1472.181, 16852.00
1473.222, 16922.00
1474.263, 16883.00
1475.305, 16953.00
1476.346, 16986.00
1477.386, 16952.00
1478.427, 16989.06
1479.468, 17016.00
1480.508, 16975.00
1481.548, 17000.00
1482.588, 16963.00
1483.628, 16899.00
1484.668, 16900.00
1485.707, 16877.16
1486.747, 16884.74
1487.786, 16930.00
1488.825, 16897.00
1489.864, 17045.00
1490.902, 16997.00
1491.941, 16976.00
1492.979, 17017.00
1494.017, 16875.00
1495.055, 16891.00
1496.093, 16938.73
1497.131, 17070.00
1498.168, 17104.00
1499.206, 17077.00
1500.243, 17209.00
1501.280, 16980.00
1502.317, 17069.00
1503.354, 17298.00
1504.390, 17028.00
1505.426, 17091.00
1506.463, 17231.00
1507.499, 17075.00
1508.535, 17163.00
1509.570, 17228.00
1510.606, 17123.00
1511.641, 17209.00
1512.676, 17165.00
1513.711, 17183.00
1514.746, 17280.00
1515.781, 17241.00
1516.816, 17270.00
1517.850, 17234.00
1518.884, 17209.00
1519.918, 17335.00
1520.952, 17332.00
1521.986, 17294.00
1523.019, 17411.00
1524.053, 17504.00
1525.086, 17334.00
1526.119, 17470.00
1527.152, 17485.00
1528.185, 17260.00
1529.217, 17257.00
1530.250, 17435.00
1531.282, 17415.00
1532.314, 17416.00
1533.346, 17449.00
1534.377, 17400.00
1535.409, 17582.00
1536.440, 17546.00
1537.472, 17553.00
1538.503, 17469.00
1539.534, 17469.00
1540.564, 17823.00
1541.595, 17875.00
1542.625, 18079.00
1543.656, 18086.00
1544.686, 18116.59
1545.716, 18202.00
1546.745, 17987.00
1547.775, 18046.00
1548.804, 17768.00
1549.834, 17851.00
1550.863, 17944.00
1551.892, 17959.00
1552.920, 18003.00
1553.949, 18146.00
1554.977, 18025.00
1556.006, 17725.00
1557.034, 17761.00
1558.062, 17659.00
1559.089, 17579.00
1560.117, 17802.00
1561.144, 18024.00
1562.172, 17930.00
1563.199, 17944.00
1564.226, 17843.00
1565.252, 17745.00
1566.279, 17800.00
1567.305, 17848.00
1568.332, 17951.00
1569.358, 17883.00
1570.384, 18102.00
##END=



