##NAMES=Catapleiite
##RRUFFID=R060198
##IDEAL CHEMISTRY=Na_2_Zr^4+^Si_3_O_9_&#183;2H_2_O
##LOCALITY=Mont Saint-Hilaire, Rouville County, Quebec, Canada
##OWNER=RRUFF
##SOURCE=Royal Ontario Museum
##DESCRIPTION=Tan colored pseudohexagonal tabular crystals
##STATUS=The identification of this mineral has been confirmed by X-ray diffraction and chemical analysis
##URL=rruff.info/R060198
##MEASURED CHEMISTRY=(Na_1.92_Ca_0.04_[box]_0.04_)_Σ=2_Zr_1.00_Si_3.00_O_9_·2H_2_O
##PIN_ID=L01747
##ORIENTATION=Laser parallel to c* (0 0 1). Fiducial mark perpendicular to laser is parallel to a [1 0 0]
95.94800, 8541.000
97.18200, 8582.000
98.41600, 8746.000
99.64900, 8827.000
100.8830, 9157.000
102.1160, 9202.000
103.3490, 9201.000
104.5820, 9162.000
105.8150, 9753.000
107.0470, 10323.00
108.2800, 11777.00
109.5120, 12460.00
110.7440, 11263.00
111.9760, 10465.00
113.2080, 10637.00
114.4400, 10799.00
115.6710, 11070.00
116.9030, 10995.00
118.1340, 10801.00
119.3650, 10694.00
120.5960, 10489.00
121.8270, 10234.00
123.0580, 10276.00
124.2880, 10495.00
125.5190, 10269.73
126.7490, 10292.00
127.9790, 10147.00
129.2090, 10503.00
130.4390, 10622.00
131.6680, 10569.00
132.8980, 10883.00
134.1270, 10998.00
135.3560, 10865.00
136.5850, 10990.00
137.8140, 11200.00
139.0430, 11289.00
140.2710, 11742.00
141.5000, 11777.00
142.7280, 11942.00
143.9560, 11959.00
145.1840, 12025.00
146.4120, 12162.00
147.6390, 12442.00
148.8670, 12553.00
150.0940, 12737.00
151.3210, 12764.00
152.5490, 12900.00
153.7750, 12912.00
155.0020, 13023.00
156.2290, 13048.00
157.4550, 12787.00
158.6810, 12984.00
159.9080, 12886.00
161.1340, 12683.00
162.3590, 12695.00
163.5850, 12691.00
164.8110, 12577.00
166.0360, 12191.00
167.2610, 12062.00
168.4860, 11812.00
169.7110, 11586.00
170.9360, 11406.00
172.1610, 11219.00
173.3850, 11048.00
174.6100, 10847.00
175.8340, 10634.00
177.0580, 10474.00
178.2820, 10323.00
179.5050, 10345.00
180.7290, 10263.00
181.9520, 10253.00
183.1760, 10287.00
184.3990, 10114.00
185.6220, 10143.00
186.8450, 10283.00
188.0670, 10315.00
189.2900, 10505.00
190.5120, 10622.00
191.7340, 10683.00
192.9560, 10821.00
194.1780, 11003.00
195.4000, 11155.00
196.6220, 11388.00
197.8430, 11592.00
199.0640, 11568.00
200.2860, 11842.00
201.5070, 11970.00
202.7270, 12053.00
203.9480, 12243.00
205.1690, 11970.00
206.3890, 11674.00
207.6090, 11715.00
208.8290, 11596.00
210.0490, 11564.00
211.2690, 11496.00
212.4890, 11432.00
213.7080, 11318.00
214.9280, 11147.00
216.1470, 10761.00
217.3660, 10490.00
218.5850, 10325.00
219.8030, 10060.00
221.0220, 9871.000
222.2400, 9627.000
223.4590, 9476.000
224.6770, 9177.000
225.8950, 9215.000
227.1120, 9094.000
228.3300, 8913.000
229.5480, 8702.000
230.7650, 8577.000
231.9820, 8652.000
233.1990, 8401.000
234.4160, 8510.000
235.6330, 8416.000
236.8490, 8312.000
238.0660, 8359.000
239.2820, 8408.000
240.4980, 8333.000
241.7140, 8258.000
242.9300, 8255.000
244.1460, 8153.000
245.3610, 8118.000
246.5770, 8102.000
247.7920, 7999.000
249.0070, 8035.000
250.2220, 8015.000
251.4370, 7995.000
252.6510, 8000.000
253.8660, 8075.000
255.0800, 8064.000
256.2940, 8115.000
257.5080, 8239.000
258.7220, 8697.000
259.9360, 8480.074
261.1490, 8586.000
262.3630, 8224.000
263.5760, 8196.000
264.7890, 8007.000
266.0020, 7986.000
267.2150, 7908.000
268.4270, 7946.000
269.6400, 7801.000
270.8520, 7873.000
272.0640, 7785.000
273.2760, 7821.000
274.4880, 7860.000
275.7000, 7932.000
276.9120, 7857.000
278.1230, 7863.000
279.3340, 7930.000
280.5450, 8028.000
281.7560, 8029.000
282.9670, 8051.000
284.1780, 7977.000
285.3880, 8201.000
286.5980, 8379.000
287.8090, 8277.000
289.0190, 8484.000
290.2290, 8629.000
291.4380, 8674.000
292.6480, 8864.000
293.8570, 9039.000
295.0670, 9055.000
296.2760, 9253.000
297.4850, 9225.000
298.6930, 9155.000
299.9020, 9196.000
301.1110, 9142.000
302.3190, 9071.000
303.5270, 8927.000
304.7350, 8820.000
305.9430, 8857.000
307.1510, 8819.000
308.3580, 8745.000
309.5660, 8810.000
310.7730, 8714.000
311.9800, 8767.000
313.1870, 8699.000
314.3940, 8616.000
315.6010, 8558.000
316.8070, 8607.000
318.0130, 8552.000
319.2200, 8611.000
320.4260, 8589.000
321.6310, 8467.000
322.8370, 8546.000
324.0430, 8528.000
325.2480, 8491.000
326.4540, 8491.000
327.6590, 8486.000
328.8640, 8455.000
330.0680, 8395.000
331.2730, 8385.420
332.4780, 8357.277
333.6820, 8328.000
334.8860, 8304.000
336.0900, 8265.000
337.2940, 8187.000
338.4980, 8153.000
339.7010, 8234.000
340.9050, 8122.000
342.1080, 8088.000
343.3110, 8193.000
344.5140, 8132.000
345.7170, 8162.797
346.9200, 8151.000
348.1220, 8164.000
349.3240, 8145.000
350.5270, 8119.000
351.7290, 8184.000
352.9310, 8323.000
354.1320, 8430.000
355.3340, 8445.000
356.5350, 8520.000
357.7370, 8428.000
358.9380, 8652.000
360.1390, 8587.000
361.3400, 8657.000
362.5400, 8848.000
363.7410, 8913.000
364.9410, 8842.000
366.1410, 8780.000
367.3410, 8912.000
368.5410, 8908.000
369.7410, 8700.000
370.9400, 8835.000
372.1400, 8852.000
373.3390, 8717.000
374.5380, 8729.000
375.7370, 8779.000
376.9360, 8711.000
378.1350, 8720.000
379.3330, 8789.000
380.5310, 8775.000
381.7300, 8671.000
382.9280, 8643.000
384.1260, 8576.000
385.3230, 8597.000
386.5210, 8661.000
387.7180, 8658.000
388.9160, 8584.000
390.1130, 8702.000
391.3100, 8715.000
392.5060, 8664.000
393.7030, 8731.000
394.9000, 8627.000
396.0960, 8729.000
397.2920, 8771.000
398.4880, 8758.000
399.6840, 8815.284
400.8800, 8929.000
402.0750, 8897.000
403.2710, 8963.000
404.4660, 9102.000
405.6610, 9228.000
406.8560, 9381.556
408.0510, 9609.000
409.2450, 9768.000
410.4400, 10019.00
411.6340, 10297.00
412.8280, 10590.00
414.0220, 10943.00
415.2160, 11516.00
416.4100, 11903.00
417.6030, 12551.00
418.7970, 13149.00
419.9900, 14105.00
421.1830, 14992.00
422.3760, 16042.00
423.5690, 17309.00
424.7610, 18670.00
425.9540, 19997.00
427.1460, 21169.00
428.3380, 21968.00
429.5300, 22295.00
430.7220, 22391.00
431.9140, 21816.00
433.1050, 20665.00
434.2970, 19302.00
435.4880, 18032.00
436.6790, 16852.00
437.8700, 15608.00
439.0610, 14646.00
440.2510, 13714.00
441.4420, 13029.00
442.6320, 12563.00
443.8220, 12135.00
445.0120, 11671.00
446.2020, 11327.00
447.3910, 10889.00
448.5810, 10638.00
449.7700, 10556.00
450.9600, 10321.00
452.1490, 10050.00
453.3370, 10184.00
454.5260, 9932.000
455.7150, 9710.000
456.9030, 9697.000
458.0910, 9548.000
459.2800, 9451.000
460.4670, 9333.000
461.6550, 9269.000
462.8430, 9311.000
464.0300, 9262.000
465.2180, 9150.000
466.4050, 9218.000
467.5920, 9029.000
468.7790, 9052.000
469.9650, 9035.496
471.1520, 9038.000
472.3380, 9037.000
473.5250, 8928.000
474.7110, 8931.000
475.8970, 8881.000
477.0820, 8927.000
478.2680, 8880.000
479.4540, 8885.000
480.6390, 8938.000
481.8240, 8784.000
483.0090, 8749.000
484.1940, 8853.000
485.3780, 8880.000
486.5630, 8939.000
487.7470, 8978.162
488.9320, 8928.000
490.1160, 9022.000
491.3000, 8958.000
492.4830, 8951.000
493.6670, 8892.000
494.8500, 8920.000
496.0340, 8973.000
497.2170, 9006.000
498.4000, 8958.000
499.5820, 9002.000
500.7650, 8965.000
501.9480, 9170.000
503.1300, 9162.000
504.3120, 9117.000
505.4940, 9193.000
506.6760, 9123.000
507.8580, 9379.000
509.0390, 9376.000
510.2210, 9547.000
511.4020, 9498.000
512.5830, 9616.000
513.7640, 9824.000
514.9450, 9881.000
516.1250, 9893.000
517.3060, 10108.00
518.4860, 10294.00
519.6660, 10265.00
520.8460, 10493.00
522.0260, 10635.00
523.2060, 10736.00
524.3850, 10606.00
525.5650, 10765.00
526.7440, 10631.00
527.9230, 10718.00
529.1020, 10640.00
530.2810, 10536.00
531.4590, 10562.00
532.6380, 10503.27
533.8160, 10445.00
534.9940, 10474.00
536.1720, 10452.00
537.3500, 10432.00
538.5270, 10415.00
539.7050, 10420.00
540.8820, 10394.51
542.0590, 10449.00
543.2360, 10393.00
544.4130, 10392.00
545.5900, 10464.00
546.7660, 10532.00
547.9430, 10649.00
549.1190, 10779.00
550.2950, 10897.00
551.4710, 11141.00
552.6470, 11202.00
553.8220, 11382.00
554.9980, 11808.00
556.1730, 12171.00
557.3480, 12574.00
558.5230, 13087.00
559.6980, 13914.00
560.8730, 14653.00
562.0470, 15595.00
563.2220, 16489.00
564.3960, 17639.00
565.5700, 18736.00
566.7440, 19977.00
567.9170, 20869.00
569.0910, 21998.00
570.2640, 22776.00
571.4380, 23489.00
572.6110, 23775.00
573.7840, 23644.00
574.9570, 22957.00
576.1290, 22998.00
577.3020, 20483.00
578.4740, 19068.00
579.6460, 17504.00
580.8180, 16232.00
581.9900, 14884.00
583.1620, 13928.00
584.3330, 12997.00
585.5040, 12364.00
586.6760, 11884.00
587.8470, 11260.00
589.0180, 10937.00
590.1880, 10596.00
591.3590, 10373.00
592.5290, 10142.00
593.7000, 9990.000
594.8700, 9784.000
596.0400, 9712.000
597.2090, 9629.000
598.3790, 9523.000
599.5490, 9473.000
600.7180, 9806.000
601.8870, 9547.000
603.0560, 9646.000
604.2250, 9467.000
605.3940, 9502.000
606.5620, 9587.000
607.7300, 9543.000
608.8990, 9755.000
610.0670, 9687.000
611.2350, 10078.00
612.4020, 10146.00
613.5700, 10380.00
614.7370, 10681.00
615.9050, 11040.00
617.0720, 11441.00
618.2390, 12034.00
619.4060, 12634.00
620.5720, 13464.00
621.7390, 14455.00
622.9050, 15650.00
624.0710, 16780.00
625.2370, 18560.00
626.4030, 20594.00
627.5690, 22056.00
628.7340, 23207.00
629.9000, 23511.31
631.0650, 23962.00
632.2300, 22548.00
633.3950, 20786.00
634.5600, 18739.00
635.7240, 16687.00
636.8890, 15193.00
638.0530, 13879.00
639.2170, 12924.00
640.3810, 12128.00
641.5450, 11427.00
642.7080, 10950.00
643.8720, 10625.00
645.0350, 10244.00
646.1980, 10074.00
647.3610, 9819.000
648.5240, 9594.000
649.6870, 9644.000
650.8490, 9409.000
652.0120, 9401.000
653.1740, 9305.000
654.3360, 9309.000
655.4980, 9144.000
656.6600, 9113.109
657.8210, 9062.782
658.9830, 9027.000
660.1440, 9012.000
661.3050, 9065.000
662.4660, 9121.000
663.6270, 9105.000
664.7870, 8986.000
665.9480, 9023.000
667.1080, 8983.000
668.2680, 8911.000
669.4280, 9036.000
670.5880, 8961.000
671.7480, 8839.000
672.9070, 9036.000
674.0670, 8990.000
675.2260, 9012.000
676.3850, 8935.000
677.5440, 8946.000
678.7030, 9001.000
679.8610, 9048.000
681.0200, 9122.000
682.1780, 9028.000
683.3360, 9100.000
684.4940, 9048.000
685.6520, 9076.000
686.8090, 9132.000
687.9670, 9160.000
689.1240, 9119.000
690.2810, 9180.000
691.4380, 9124.000
692.5950, 9226.000
693.7520, 9134.000
694.9080, 9129.000
696.0650, 9054.000
697.2210, 8981.000
698.3770, 9027.000
699.5330, 8997.000
700.6880, 9026.000
701.8440, 8967.000
702.9990, 8961.000
704.1550, 9131.000
705.3100, 9095.772
706.4650, 9184.000
707.6190, 9189.000
708.7740, 9122.000
709.9290, 9171.000
711.0830, 9120.000
712.2370, 9215.000
713.3910, 9136.000
714.5450, 9184.000
715.6980, 9278.000
716.8520, 9424.000
718.0050, 9405.000
719.1580, 9412.000
720.3110, 9511.000
721.4640, 9603.000
722.6170, 9534.000
723.7700, 9645.000
724.9220, 9668.000
726.0740, 9851.000
727.2260, 9819.000
728.3780, 9949.000
729.5300, 10072.00
730.6810, 10118.00
731.8330, 10274.00
732.9840, 10371.00
734.1350, 10423.00
735.2860, 10477.10
736.4370, 10411.00
737.5880, 10461.00
738.7380, 10431.00
739.8880, 10332.00
741.0390, 10417.00
742.1890, 10231.00
743.3380, 10108.70
744.4880, 10052.00
745.6380, 9811.000
746.7870, 9806.000
747.9360, 9838.000
749.0850, 9684.000
750.2340, 9635.000
751.3830, 9652.000
752.5310, 9486.000
753.6800, 9507.000
754.8280, 9370.000
755.9760, 9538.000
757.1240, 9348.000
758.2720, 9340.000
759.4190, 9427.000
760.5670, 9423.000
761.7140, 9290.000
762.8610, 9228.000
764.0080, 9258.000
765.1550, 9283.000
766.3020, 9264.000
767.4480, 9214.000
768.5950, 9308.000
769.7410, 9170.000
770.8870, 9188.000
772.0330, 9251.000
773.1780, 9210.000
774.3240, 9288.000
775.4690, 9310.015
776.6140, 9302.548
777.7590, 9333.000
778.9040, 9359.000
780.0490, 9250.000
781.1940, 9387.000
782.3380, 9314.000
783.4820, 9330.000
784.6260, 9371.000
785.7700, 9280.000
786.9140, 9395.000
788.0580, 9460.000
789.2010, 9529.000
790.3450, 9469.000
791.4880, 9567.000
792.6310, 9496.000
793.7730, 9563.000
794.9160, 9490.000
796.0590, 9607.000
797.2010, 9665.000
798.3430, 9526.000
799.4850, 9525.000
800.6270, 9594.000
801.7690, 9704.000
802.9100, 9689.000
804.0520, 9844.000
805.1930, 9837.000
806.3340, 9949.000
807.4750, 9877.000
808.6160, 9949.000
809.7560, 9979.558
810.8970, 9955.000
812.0370, 10069.00
813.1770, 10007.00
814.3170, 10083.00
815.4570, 9999.000
816.5960, 10083.00
817.7360, 10242.00
818.8750, 10180.00
820.0140, 10180.00
821.1530, 10299.00
822.2920, 10367.00
823.4310, 10353.00
824.5690, 10500.00
825.7070, 10507.00
826.8460, 10673.00
827.9840, 10638.00
829.1220, 10889.00
830.2590, 10884.00
831.3970, 11147.00
832.5340, 11227.00
833.6710, 11357.00
834.8080, 11440.00
835.9450, 11420.00
837.0820, 11434.00
838.2190, 11565.00
839.3550, 11334.00
840.4910, 11288.00
841.6270, 11353.00
842.7630, 11386.00
843.8990, 11296.33
845.0350, 11200.00
846.1700, 11181.00
847.3060, 11138.25
848.4410, 11122.33
849.5760, 11129.00
850.7100, 11148.00
851.8450, 11167.00
852.9800, 11230.00
854.1140, 11088.00
855.2480, 11077.00
856.3820, 11146.00
857.5160, 10983.00
858.6500, 10964.00
859.7830, 10909.00
860.9170, 10976.00
862.0500, 11029.00
863.1830, 10994.00
864.3160, 11100.00
865.4480, 11062.00
866.5810, 11146.00
867.7130, 11070.00
868.8460, 11037.00
869.9780, 11110.00
871.1100, 11058.00
872.2410, 11092.00
873.3730, 11105.00
874.5050, 11125.99
875.6360, 11158.00
876.7670, 11170.00
877.8980, 11215.00
879.0290, 11159.31
880.1590, 11208.00
881.2900, 11215.00
882.4200, 11167.00
883.5500, 11351.00
884.6800, 11298.00
885.8100, 11452.00
886.9400, 11352.00
888.0690, 11400.00
889.1990, 11384.00
890.3280, 11594.00
891.4570, 11584.00
892.5860, 11629.00
893.7140, 11659.00
894.8430, 11689.00
895.9710, 11864.00
897.1000, 11887.00
898.2280, 12154.00
899.3560, 12341.00
900.4830, 12467.00
901.6110, 12647.00
902.7380, 13045.00
903.8660, 13450.00
904.9930, 14111.00
906.1200, 14722.00
907.2460, 15468.00
908.3730, 16138.00
909.5000, 16865.00
910.6260, 17813.00
911.7520, 18358.00
912.8780, 18784.00
914.0040, 18847.00
915.1290, 19177.00
916.2550, 19624.00
917.3800, 20571.00
918.5050, 21647.00
919.6300, 22968.00
920.7550, 24725.00
921.8800, 27142.00
923.0040, 29186.00
924.1290, 31875.00
925.2530, 35060.00
926.3770, 39144.00
927.5010, 42692.00
928.6250, 46577.00
929.7480, 50209.00
930.8720, 53730.00
931.9950, 55462.00
933.1180, 56582.00
934.2410, 56867.00
935.3640, 55107.00
936.4860, 51883.00
937.6090, 48409.00
938.7310, 44380.00
939.8530, 41526.00
940.9750, 37520.00
942.0970, 34388.00
943.2180, 32403.00
944.3400, 30868.00
945.4610, 29296.00
946.5820, 28375.00
947.7030, 27183.00
948.8240, 25740.00
949.9450, 24145.00
951.0650, 22185.00
952.1860, 20531.00
953.3060, 19022.00
954.4260, 17727.00
955.5460, 16884.00
956.6650, 16223.00
957.7850, 15334.00
958.9040, 15214.00
960.0230, 14719.00
961.1420, 14395.00
962.2610, 14054.00
963.3800, 14110.00
964.4990, 13852.00
965.6170, 13776.00
966.7350, 13620.00
967.8530, 13352.00
968.9710, 13566.00
970.0890, 13542.00
971.2070, 13583.00
972.3240, 13825.00
973.4410, 13837.26
974.5580, 13935.32
975.6750, 14042.00
976.7920, 14141.00
977.9090, 14233.00
979.0250, 14514.00
980.1410, 14582.00
981.2580, 14822.00
982.3740, 14883.00
983.4890, 15189.00
984.6050, 15401.00
985.7200, 15793.00
986.8360, 16426.00
987.9510, 16886.00
989.0660, 17731.00
990.1810, 18778.00
991.2950, 20008.00
992.4100, 21255.00
993.5240, 22883.00
994.6390, 24630.00
995.7530, 26715.00
996.8660, 28768.00
997.9800, 30862.00
999.0940, 32992.00
1000.207, 34753.00
1001.320, 36444.00
1002.433, 37481.00
1003.546, 38274.32
1004.659, 38618.00
1005.772, 38641.00
1006.884, 38203.00
1007.996, 37325.00
1009.108, 36476.00
1010.220, 35191.00
1011.332, 33564.00
1012.444, 32182.00
1013.555, 30562.00
1014.666, 29312.00
1015.777, 27861.00
1016.888, 26397.00
1017.999, 24955.00
1019.110, 23660.49
1020.220, 22386.26
1021.331, 21270.00
1022.441, 20206.00
1023.551, 19345.00
1024.661, 18715.00
1025.770, 17895.00
1026.880, 17361.00
1027.989, 17099.00
1029.098, 16610.00
1030.207, 16414.00
1031.316, 16150.00
1032.425, 15708.00
1033.533, 15447.00
1034.642, 15389.00
1035.750, 15301.00
1036.858, 15224.00
1037.966, 15203.00
1039.073, 15174.00
1040.181, 15020.00
1041.288, 15042.00
1042.396, 14819.00
1043.503, 14790.00
1044.610, 14641.00
1045.716, 14469.00
1046.823, 14409.00
1047.929, 14112.00
1049.036, 14076.00
1050.142, 13884.00
1051.248, 13960.00
1052.353, 13875.00
1053.459, 13646.00
1054.564, 13672.00
1055.670, 13729.00
1056.775, 13542.00
1057.880, 13531.00
1058.985, 13377.00
1060.089, 13512.00
1061.194, 13567.00
1062.298, 13442.00
1063.402, 13285.00
1064.506, 13381.00
1065.610, 13282.00
1066.713, 13221.00
1067.817, 13373.00
1068.920, 13251.00
1070.023, 13313.00
1071.126, 13365.00
1072.229, 13480.00
1073.332, 13541.00
1074.435, 13589.00
1075.537, 13613.00
1076.639, 13640.00
1077.741, 13799.00
1078.843, 13911.00
1079.945, 14012.00
1081.046, 14370.00
1082.148, 14528.00
1083.249, 14779.00
1084.350, 14999.00
1085.451, 15253.08
1086.551, 15606.00
1087.652, 15788.00
1088.752, 15915.00
1089.853, 15956.37
1090.953, 15869.00
1092.053, 15733.00
1093.152, 15630.00
1094.252, 15266.00
1095.351, 14841.00
1096.451, 14590.00
1097.550, 14287.00
1098.649, 13942.00
1099.748, 13866.00
1100.846, 13569.00
1101.945, 13406.00
1103.043, 13299.00
1104.141, 13259.00
1105.239, 13060.00
1106.337, 13042.00
1107.434, 12916.00
1108.532, 13013.00
1109.629, 12942.00
1110.726, 12957.00
1111.823, 12968.40
1112.920, 12942.39
1114.017, 12990.00
1115.113, 12951.00
1116.210, 13015.00
1117.306, 13060.00
1118.402, 13239.00
1119.498, 13378.00
1120.593, 13660.00
1121.689, 13679.00
1122.784, 13818.00
1123.879, 13730.00
1124.974, 13424.00
1126.069, 13473.00
1127.164, 13318.51
1128.259, 13222.20
1129.353, 13143.00
1130.447, 13120.00
1131.541, 12989.00
1132.635, 13021.00
1133.729, 12874.00
1134.822, 12947.00
1135.916, 12844.00
1137.009, 12916.00
1138.102, 12882.00
1139.195, 12788.00
1140.288, 12979.00
1141.380, 12858.00
1142.473, 12806.00
1143.565, 12805.00
1144.657, 12893.00
1145.749, 12832.00
1146.841, 12970.00
1147.932, 12748.00
1149.024, 12887.00
1150.115, 12941.00
1151.206, 12788.00
1152.297, 12850.00
1153.388, 12827.00
1154.479, 12974.00
1155.569, 12785.00
1156.659, 12688.00
1157.750, 12861.00
1158.839, 12722.00
1159.929, 12798.00
1161.019, 12836.00
1162.108, 12761.00
1163.198, 12740.00
1164.287, 12756.00
1165.376, 12679.00
1166.465, 12696.00
1167.553, 12631.00
1168.642, 12615.98
1169.730, 12753.00
1170.818, 12655.00
1171.906, 12655.00
1172.994, 12837.00
1174.082, 12657.00
1175.170, 12751.00
1176.257, 12747.10
1177.344, 12672.19
1178.431, 12734.00
1179.518, 12613.00
1180.605, 12572.00
1181.691, 12592.00
1182.778, 12537.00
1183.864, 12489.00
1184.950, 12444.00
1186.036, 12496.00
1187.122, 12561.00
1188.207, 12374.00
1189.292, 12599.00
1190.378, 12375.00
1191.463, 12338.00
1192.548, 12403.00
1193.632, 12458.00
1194.717, 12453.00
1195.801, 12228.00
1196.886, 12345.00
1197.970, 12360.00
1199.054, 12252.00
1200.137, 12318.00
1201.221, 12387.00
1202.305, 12352.00
1203.388, 12332.00
1204.471, 12327.00
1205.554, 12243.00
1206.637, 12324.00
1207.719, 12217.00
1208.802, 12276.00
1209.884, 12421.00
1210.966, 12340.00
1212.048, 12204.00
1213.130, 12287.00
1214.212, 12258.00
1215.293, 12481.00
1216.374, 12380.00
1217.456, 12422.00
1218.536, 12234.00
1219.617, 12341.00
1220.698, 12419.00
1221.778, 12397.00
1222.859, 12356.00
1223.939, 12382.00
1225.019, 12365.00
1226.099, 12257.00
1227.178, 12397.00
1228.258, 12306.00
1229.337, 12364.00
1230.417, 12437.00
1231.496, 12291.00
1232.574, 12342.00
1233.653, 12366.00
1234.732, 12530.00
1235.810, 12471.00
1236.888, 12317.00
1237.966, 12486.00
1239.044, 12562.00
1240.122, 12619.00
1241.199, 12461.00
1242.277, 12731.00
1243.354, 12677.00
1244.431, 12536.00
1245.508, 12627.00
1246.585, 12649.00
1247.661, 12595.00
1248.738, 12639.00
1249.814, 12685.00
1250.890, 12589.00
1251.966, 12762.00
1253.042, 12581.00
1254.117, 12704.00
1255.193, 12651.00
1256.268, 12808.00
1257.343, 12648.00
1258.418, 12728.00
1259.493, 12820.00
1260.567, 12829.00
1261.642, 12883.00
1262.716, 12946.00
1263.790, 12892.08
1264.864, 12907.00
1265.938, 12855.00
1267.011, 12870.20
1268.085, 12869.21
1269.158, 12895.00
1270.231, 12885.00
1271.304, 12891.00
1272.377, 12898.11
1273.450, 12892.94
1274.522, 12849.00
1275.594, 12886.00
1276.666, 12859.00
1277.738, 12842.00
1278.810, 12851.00
1279.882, 12817.00
1280.953, 12837.00
1282.025, 12855.82
1283.096, 12925.00
1284.167, 12908.00
1285.238, 12958.00
1286.308, 12964.00
1287.379, 12964.00
1288.449, 13056.00
1289.519, 12959.00
1290.589, 12995.00
1291.659, 12986.00
1292.729, 13238.00
1293.798, 13074.00
1294.868, 13123.00
1295.937, 13030.00
1297.006, 12968.00
1298.075, 13024.00
1299.143, 12998.00
1300.212, 12999.92
1301.280, 13079.00
1302.348, 12991.00
1303.416, 13054.00
1304.484, 13018.00
1305.552, 12903.00
1306.620, 12934.00
1307.687, 12963.00
1308.754, 12969.00
1309.821, 12891.00
1310.888, 12873.00
1311.955, 12847.00
1313.021, 12852.00
1314.088, 12967.00
1315.154, 12837.00
1316.220, 13051.00
1317.286, 12952.00
1318.352, 12912.00
1319.417, 12850.00
1320.483, 12874.00
1321.548, 12962.00
1322.613, 13016.00
1323.678, 12946.00
1324.743, 12939.00
1325.807, 13013.00
1326.872, 13020.00
1327.936, 13040.00
1329.000, 13047.00
1330.064, 13155.00
1331.128, 13231.00
1332.191, 13285.00
1333.255, 13341.06
1334.318, 13419.00
1335.381, 13392.00
1336.444, 13429.00
1337.507, 13415.00
1338.569, 13495.00
1339.632, 13513.00
1340.694, 13430.00
1341.756, 13533.00
1342.818, 13372.00
1343.880, 13422.00
1344.941, 13704.00
1346.003, 13533.00
1347.064, 13494.00
1348.125, 13595.00
1349.186, 13510.00
1350.247, 13560.00
1351.308, 13523.00
1352.368, 13583.00
1353.428, 13661.00
1354.489, 13835.00
1355.549, 13940.00
1356.608, 14097.00
1357.668, 14152.00
1358.727, 14339.00
1359.787, 14523.00
1360.846, 14866.00
1361.905, 14662.00
1362.964, 14728.00
1364.022, 14723.00
1365.081, 14515.00
1366.139, 14305.00
1367.197, 14261.00
1368.255, 13994.00
1369.313, 13981.00
1370.371, 13718.00
1371.428, 13644.00
1372.486, 13525.00
1373.543, 13424.00
1374.600, 13453.00
1375.657, 13398.00
1376.713, 13500.00
1377.770, 13328.00
1378.826, 13391.00
1379.882, 13362.00
1380.938, 13470.00
1381.994, 13421.00
1383.050, 13477.00
1384.106, 13429.00
1385.161, 13448.00
1386.216, 13458.00
1387.271, 13519.00
1388.326, 13764.00
1389.381, 14001.00
1390.435, 14160.00
1391.490, 14278.63
1392.544, 14333.00
1393.598, 14420.00
1394.652, 14533.00
1395.705, 14601.00
1396.759, 14579.00
1397.812, 14519.00
1398.866, 14261.00
1399.919, 14002.00
1400.972, 13859.00
1402.024, 13659.00
1403.077, 13503.00
1404.129, 13319.00
1405.181, 13234.00
1406.233, 13016.00
1407.285, 12799.00
1408.337, 12965.00
1409.389, 13032.00
1410.440, 12937.00
1411.491, 12842.00
1412.542, 12790.00
1413.593, 12798.00
1414.644, 12892.00
1415.695, 12886.37
1416.745, 12913.21
1417.795, 12943.00
1418.845, 12939.00
1419.895, 12981.15
1420.945, 12914.00
1421.995, 13034.00
1423.044, 13046.00
1424.093, 13046.00
1425.142, 13150.00
1426.191, 13063.00
1427.240, 13116.00
1428.289, 13238.00
1429.337, 13133.00
1430.385, 13299.00
1431.433, 13253.00
1432.481, 13167.00
1433.529, 13136.00
1434.577, 13122.00
1435.624, 13100.00
1436.672, 13327.00
1437.719, 13216.00
1438.766, 13534.00
1439.812, 13443.00
1440.859, 13433.00
1441.905, 13418.00
1442.952, 13593.00
1443.998, 13505.00
1445.044, 13569.00
1446.090, 13548.00
1447.135, 13751.00
1448.181, 13663.00
1449.226, 13531.00
1450.271, 13662.00
1451.316, 13503.00
1452.361, 13557.00
1453.405, 13664.00
1454.450, 13618.00
1455.494, 13529.00
1456.538, 13599.00
1457.582, 13568.00
1458.626, 13714.00
1459.670, 13614.00
1460.713, 13751.00
1461.757, 13629.00
1462.800, 13747.00
1463.843, 13705.00
1464.886, 13680.00
1465.928, 13748.00
1466.971, 13840.00
1468.013, 13743.00
1469.055, 13741.00
1470.097, 13730.00
1471.139, 13700.19
1472.181, 13706.01
1473.222, 13702.00
1474.263, 13707.00
1475.305, 13734.00
1476.346, 13747.61
1477.386, 13791.00
1478.427, 13749.00
1479.468, 13741.00
1480.508, 13816.00
1481.548, 13748.00
1482.588, 13765.09
1483.628, 13765.64
1484.668, 13719.00
1485.707, 13732.00
1486.747, 13679.00
1487.786, 13616.00
1488.825, 13537.00
1489.864, 13688.00
1490.902, 13569.00
1491.941, 13885.00
1492.979, 13676.00
1494.017, 13834.00
1495.055, 13605.00
1496.093, 13796.00
1497.131, 13796.00
1498.168, 13693.00
1499.206, 13666.00
1500.243, 13675.00
1501.280, 13793.00
1502.317, 13725.00
1503.354, 13791.00
1504.390, 13727.00
1505.426, 13782.00
1506.463, 13799.00
1507.499, 13777.00
1508.535, 13618.00
1509.570, 13818.00
1510.606, 13809.00
1511.641, 13641.00
1512.676, 13752.00
1513.711, 13776.00
1514.746, 13626.00
1515.781, 13696.00
1516.816, 13704.00
1517.850, 13721.00
1518.884, 13788.00
1519.918, 13906.00
1520.952, 13916.12
1521.986, 13713.00
1523.019, 13972.00
1524.053, 13823.00
1525.086, 13790.00
1526.119, 13841.00
1527.152, 13818.00
1528.185, 13854.00
1529.217, 13882.00
1530.250, 13831.00
1531.282, 13905.00
1532.314, 13962.00
1533.346, 13918.00
1534.377, 13947.00
1535.409, 13948.00
1536.440, 14089.00
1537.472, 13897.00
1538.503, 14096.00
1539.534, 14060.00
1540.564, 13962.00
1541.595, 14262.00
1542.625, 14341.00
1543.656, 14541.00
1544.686, 14482.00
1545.716, 14646.00
1546.745, 14703.00
1547.775, 14752.00
1548.804, 14570.00
1549.834, 14471.00
1550.863, 14466.00
1551.892, 14609.00
1552.920, 14362.00
1553.949, 14418.00
1554.977, 14562.00
1556.006, 14480.00
1557.034, 14417.00
1558.062, 14341.00
1559.089, 14283.00
1560.117, 14445.00
1561.144, 14333.00
1562.172, 14442.00
1563.199, 14381.00
1564.226, 14516.00
1565.252, 14545.00
1566.279, 14439.00
1567.305, 14414.00
1568.332, 14508.00
1569.358, 14416.00
1570.384, 14431.00
##END=



