##NAMES=Catapleiite
##RRUFFID=R060198
##IDEAL CHEMISTRY=Na_2_Zr^4+^Si_3_O_9_&#183;2H_2_O
##LOCALITY=Mont Saint-Hilaire, Rouville County, Quebec, Canada
##OWNER=RRUFF
##SOURCE=Royal Ontario Museum
##DESCRIPTION=Tan colored pseudohexagonal tabular crystals
##STATUS=The identification of this mineral has been confirmed by X-ray diffraction and chemical analysis
##URL=rruff.info/R060198
##MEASURED CHEMISTRY=(Na_1.92_Ca_0.04_[box]_0.04_)_Σ=2_Zr_1.00_Si_3.00_O_9_·2H_2_O
##PIN_ID=L01747
##ORIENTATION=Laser parallel to c* (0 0 1). Fiducial mark perpendicular to laser is parallel to a [1 0 0]
95.94800, 8779.000
97.18200, 8874.000
98.41600, 8829.000
99.64900, 9068.000
100.8830, 9147.000
102.1160, 9297.000
103.3490, 9237.000
104.5820, 9459.000
105.8150, 9662.000
107.0470, 10368.00
108.2800, 11757.00
109.5120, 12603.00
110.7440, 11281.00
111.9760, 10550.00
113.2080, 10470.00
114.4400, 10567.00
115.6710, 10918.00
116.9030, 11124.00
118.1340, 10976.00
119.3650, 10828.00
120.5960, 10542.00
121.8270, 10282.00
123.0580, 10610.00
124.2880, 10702.00
125.5190, 10521.00
126.7490, 10617.00
127.9790, 10768.00
129.2090, 10665.00
130.4390, 10985.00
131.6680, 11172.00
132.8980, 11121.00
134.1270, 11336.00
135.3560, 11506.00
136.5850, 11711.00
137.8140, 11836.00
139.0430, 12058.00
140.2710, 12416.00
141.5000, 12350.00
142.7280, 12473.00
143.9560, 12401.00
145.1840, 12569.00
146.4120, 12538.00
147.6390, 12864.00
148.8670, 12932.00
150.0940, 12932.00
151.3210, 13144.00
152.5490, 13193.00
153.7750, 13188.00
155.0020, 13131.00
156.2290, 13077.00
157.4550, 13282.00
158.6810, 13188.00
159.9080, 12991.00
161.1340, 12986.00
162.3590, 12717.00
163.5850, 12735.00
164.8110, 12680.00
166.0360, 12645.00
167.2610, 12264.00
168.4860, 12005.00
169.7110, 11764.00
170.9360, 11581.00
172.1610, 11302.00
173.3850, 11101.00
174.6100, 10848.00
175.8340, 10797.00
177.0580, 10713.00
178.2820, 10507.00
179.5050, 10516.00
180.7290, 10507.00
181.9520, 10409.00
183.1760, 10324.00
184.3990, 10260.00
185.6220, 10344.00
186.8450, 10466.00
188.0670, 10481.00
189.2900, 10576.00
190.5120, 10606.00
191.7340, 10743.00
192.9560, 10922.00
194.1780, 10992.00
195.4000, 11160.00
196.6220, 11396.00
197.8430, 11564.00
199.0640, 11692.00
200.2860, 11878.00
201.5070, 12051.00
202.7270, 12396.00
203.9480, 12372.00
205.1690, 12070.00
206.3890, 11574.00
207.6090, 11655.00
208.8290, 11604.00
210.0490, 11699.00
211.2690, 11481.00
212.4890, 11250.00
213.7080, 11164.00
214.9280, 11149.00
216.1470, 10829.00
217.3660, 10649.00
218.5850, 10423.00
219.8030, 10184.00
221.0220, 10119.00
222.2400, 9791.000
223.4590, 9637.000
224.6770, 9558.000
225.8950, 9562.000
227.1120, 9290.000
228.3300, 9185.000
229.5480, 9236.000
230.7650, 9074.000
231.9820, 8965.000
233.1990, 8863.000
234.4160, 8859.000
235.6330, 8842.000
236.8490, 8718.000
238.0660, 8885.000
239.2820, 8783.000
240.4980, 8807.000
241.7140, 8710.000
242.9300, 8640.000
244.1460, 8573.000
245.3610, 8455.000
246.5770, 8577.000
247.7920, 8506.000
249.0070, 8273.097
250.2220, 8385.944
251.4370, 8443.528
252.6510, 8448.828
253.8660, 8245.196
255.0800, 8311.354
256.2940, 8269.396
257.5080, 8223.006
258.7220, 8327.133
259.9360, 8153.899
261.1490, 8255.650
262.3630, 8247.625
263.5760, 8289.849
264.7890, 8223.289
266.0020, 8190.329
267.2150, 8266.186
268.4270, 8281.801
269.6400, 8202.719
270.8520, 8270.000
272.0640, 8151.000
273.2760, 8196.000
274.4880, 8161.000
275.7000, 8177.000
276.9120, 8191.003
278.1230, 8276.000
279.3340, 8239.000
280.5450, 8339.000
281.7560, 8420.000
282.9670, 8427.000
284.1780, 8553.000
285.3880, 8479.000
286.5980, 8704.000
287.8090, 8738.000
289.0190, 8931.000
290.2290, 8917.000
291.4380, 9122.000
292.6480, 9194.000
293.8570, 9288.000
295.0670, 9433.000
296.2760, 9327.000
297.4850, 9495.000
298.6930, 9549.000
299.9020, 9421.000
301.1110, 9242.000
302.3190, 9248.000
303.5270, 9231.000
304.7350, 8980.000
305.9430, 8963.000
307.1510, 8996.000
308.3580, 8891.000
309.5660, 8914.000
310.7730, 8938.000
311.9800, 8831.000
313.1870, 8865.000
314.3940, 8844.960
315.6010, 8712.000
316.8070, 8832.000
318.0130, 8796.000
319.2200, 8761.000
320.4260, 8784.000
321.6310, 8831.000
322.8370, 8776.000
324.0430, 8761.000
325.2480, 8589.855
326.4540, 8696.949
327.6590, 8748.797
328.8640, 8748.349
330.0680, 8538.997
331.2730, 8599.406
332.4780, 8551.701
333.6820, 8499.578
334.8860, 8597.975
336.0900, 8419.009
337.2940, 8515.017
338.4980, 8501.261
339.7010, 8504.000
340.9050, 8506.000
342.1080, 8477.000
343.3110, 8544.000
344.5140, 8514.000
345.7170, 8573.000
346.9200, 8529.000
348.1220, 8567.265
349.3240, 8606.635
350.5270, 8643.000
351.7290, 8699.000
352.9310, 8785.000
354.1320, 8835.198
355.3340, 8703.000
356.5350, 8877.000
357.7370, 8905.000
358.9380, 8877.000
360.1390, 9057.000
361.3400, 9124.000
362.5400, 9177.826
363.7410, 9280.901
364.9410, 9243.000
366.1410, 9354.000
367.3410, 9250.000
368.5410, 9150.000
369.7410, 9198.000
370.9400, 9063.000
372.1400, 9058.449
373.3390, 9202.000
374.5380, 9028.000
375.7370, 9090.000
376.9360, 9144.000
378.1350, 9197.000
379.3330, 9078.000
380.5310, 9031.000
381.7300, 9050.000
382.9280, 9104.000
384.1260, 9045.000
385.3230, 9046.000
386.5210, 9075.000
387.7180, 9022.000
388.9160, 9075.000
390.1130, 9048.000
391.3100, 9136.000
392.5060, 9113.911
393.7030, 9040.000
394.9000, 9088.000
396.0960, 9101.000
397.2920, 9058.000
398.4880, 9204.000
399.6840, 9102.000
400.8800, 9216.000
402.0750, 9225.000
403.2710, 9393.000
404.4660, 9471.000
405.6610, 9546.000
406.8560, 9717.000
408.0510, 9868.172
409.2450, 10070.00
410.4400, 10320.00
411.6340, 10612.00
412.8280, 10977.00
414.0220, 11378.00
415.2160, 11900.00
416.4100, 12492.00
417.6030, 13261.00
418.7970, 13992.00
419.9900, 14729.00
421.1830, 15779.00
422.3760, 16693.00
423.5690, 17877.00
424.7610, 18992.00
425.9540, 20292.00
427.1460, 21458.00
428.3380, 21954.00
429.5300, 22308.00
430.7220, 22284.00
431.9140, 21527.00
433.1050, 20218.00
434.2970, 19381.00
435.4880, 17998.00
436.6790, 16735.00
437.8700, 15714.00
439.0610, 14682.00
440.2510, 13928.00
441.4420, 13183.00
442.6320, 12643.00
443.8220, 12154.00
445.0120, 11945.00
446.2020, 11642.00
447.3910, 11424.00
448.5810, 10977.00
449.7700, 10773.00
450.9600, 10618.00
452.1490, 10193.00
453.3370, 10231.00
454.5260, 10185.00
455.7150, 9952.000
456.9030, 10002.00
458.0910, 9772.000
459.2800, 9845.000
460.4670, 9620.000
461.6550, 9633.000
462.8430, 9588.000
464.0300, 9542.000
465.2180, 9531.000
466.4050, 9541.000
467.5920, 9490.000
468.7790, 9464.375
469.9650, 9443.601
471.1520, 9384.000
472.3380, 9345.000
473.5250, 9329.000
474.7110, 9189.000
475.8970, 9153.000
477.0820, 9039.397
478.2680, 9178.643
479.4540, 9262.624
480.6390, 9294.300
481.8240, 9117.056
483.0090, 9209.590
484.1940, 9194.009
485.3780, 9173.983
486.5630, 9304.486
487.7470, 9157.619
488.9320, 9285.736
490.1160, 9304.077
491.3000, 9372.655
492.4830, 9332.440
493.6670, 9325.835
494.8500, 9275.000
496.0340, 9172.000
497.2170, 9291.000
498.4000, 9301.000
499.5820, 9194.000
500.7650, 9307.000
501.9480, 9301.000
503.1300, 9310.000
504.3120, 9345.000
505.4940, 9367.000
506.6760, 9462.000
507.8580, 9548.000
509.0390, 9611.000
510.2210, 9703.000
511.4020, 9750.000
512.5830, 9797.000
513.7640, 9953.000
514.9450, 10087.00
516.1250, 10052.00
517.3060, 10410.00
518.4860, 10411.00
519.6660, 10507.00
520.8460, 10778.00
522.0260, 10738.00
523.2060, 10887.00
524.3850, 10869.00
525.5650, 10859.00
526.7440, 10790.00
527.9230, 10786.50
529.1020, 10703.00
530.2810, 10772.00
531.4590, 10688.00
532.6380, 10738.00
533.8160, 10783.00
534.9940, 10826.00
536.1720, 10761.00
537.3500, 10814.00
538.5270, 10739.00
539.7050, 10747.00
540.8820, 10796.00
542.0590, 10848.00
543.2360, 10739.00
544.4130, 10924.00
545.5900, 10788.00
546.7660, 11074.00
547.9430, 11085.00
549.1190, 11109.00
550.2950, 11466.00
551.4710, 11411.00
552.6470, 11812.00
553.8220, 12119.00
554.9980, 12500.00
556.1730, 12829.00
557.3480, 13437.00
558.5230, 14145.00
559.6980, 14884.00
560.8730, 15893.00
562.0470, 16856.00
563.2220, 17933.00
564.3960, 19205.00
565.5700, 20549.00
566.7440, 21418.00
567.9170, 22579.00
569.0910, 23458.00
570.2640, 24209.00
571.4380, 24598.00
572.6110, 24333.00
573.7840, 24145.00
574.9570, 23321.00
576.1290, 21996.00
577.3020, 20618.00
578.4740, 19156.00
579.6460, 17763.00
580.8180, 16320.00
581.9900, 14991.00
583.1620, 14001.00
584.3330, 13171.00
585.5040, 12487.00
586.6760, 11951.00
587.8470, 11545.00
589.0180, 11028.00
590.1880, 10790.00
591.3590, 10552.00
592.5290, 10340.00
593.7000, 10146.00
594.8700, 10154.00
596.0400, 9785.376
597.2090, 9913.598
598.3790, 9986.557
599.5490, 10007.22
600.7180, 9818.964
601.8870, 9900.484
603.0560, 9873.891
604.2250, 9842.862
605.3940, 9962.354
606.5620, 9804.481
607.7300, 9921.583
608.8990, 9955.000
610.0670, 10218.00
611.2350, 10321.00
612.4020, 10521.00
613.5700, 10822.00
614.7370, 11070.00
615.9050, 11596.00
617.0720, 11874.00
618.2390, 12525.00
619.4060, 13188.00
620.5720, 14021.00
621.7390, 15631.00
622.9050, 16557.00
624.0710, 17598.00
625.2370, 19419.00
626.4030, 22101.00
627.5690, 22758.00
628.7340, 23963.00
629.9000, 24835.00
631.0650, 24177.00
632.2300, 22907.00
633.3950, 21214.00
634.5600, 19148.00
635.7240, 17258.00
636.8890, 15439.00
638.0530, 14138.00
639.2170, 13124.00
640.3810, 12371.00
641.5450, 11733.00
642.7080, 11385.00
643.8720, 10831.00
645.0350, 10717.00
646.1980, 10366.00
647.3610, 10109.00
648.5240, 10178.00
649.6870, 9992.000
650.8490, 9774.000
652.0120, 9714.000
653.1740, 9733.000
654.3360, 9494.000
655.4980, 9490.000
656.6600, 9573.000
657.8210, 9493.000
658.9830, 9404.000
660.1440, 9490.000
661.3050, 9536.000
662.4660, 9603.000
663.6270, 9539.000
664.7870, 9577.319
665.9480, 9562.145
667.1080, 9540.000
668.2680, 9575.000
669.4280, 9509.000
670.5880, 9602.000
671.7480, 9552.000
672.9070, 9430.000
674.0670, 9566.000
675.2260, 9511.000
676.3850, 9687.000
677.5440, 9622.000
678.7030, 9529.000
679.8610, 9610.000
681.0200, 9671.000
682.1780, 9685.000
683.3360, 9733.000
684.4940, 9759.000
685.6520, 9706.000
686.8090, 9693.000
687.9670, 9769.000
689.1240, 9722.746
690.2810, 9771.000
691.4380, 9698.000
692.5950, 9675.000
693.7520, 9626.000
694.9080, 9589.000
696.0650, 9706.000
697.2210, 9653.000
698.3770, 9736.000
699.5330, 9707.000
700.6880, 9673.000
701.8440, 9680.383
702.9990, 9608.000
704.1550, 9658.000
705.3100, 9698.000
706.4650, 9761.000
707.6190, 9737.000
708.7740, 9721.000
709.9290, 9783.000
711.0830, 9858.000
712.2370, 9749.000
713.3910, 9949.000
714.5450, 9852.000
715.6980, 9952.000
716.8520, 9850.000
718.0050, 9994.000
719.1580, 10105.00
720.3110, 10160.00
721.4640, 10116.00
722.6170, 10282.00
723.7700, 10206.00
724.9220, 10335.00
726.0740, 10393.00
727.2260, 10419.00
728.3780, 10546.00
729.5300, 10616.00
730.6810, 10614.00
731.8330, 10721.00
732.9840, 11012.00
734.1350, 10914.00
735.2860, 11103.00
736.4370, 11030.00
737.5880, 10816.00
738.7380, 10892.00
739.8880, 10789.00
741.0390, 10819.00
742.1890, 10633.00
743.3380, 10652.00
744.4880, 10505.00
745.6380, 10431.00
746.7870, 10454.00
747.9360, 10382.00
749.0850, 10315.00
750.2340, 10192.00
751.3830, 10099.00
752.5310, 10105.00
753.6800, 10003.00
754.8280, 9937.000
755.9760, 9989.000
757.1240, 9972.000
758.2720, 9917.000
759.4190, 9900.000
760.5670, 9848.000
761.7140, 9823.356
762.8610, 9924.000
764.0080, 9782.000
765.1550, 9716.000
766.3020, 9714.266
767.4480, 9851.000
768.5950, 9727.000
769.7410, 9792.000
770.8870, 9797.000
772.0330, 9803.000
773.1780, 9847.000
774.3240, 10016.00
775.4690, 9871.000
776.6140, 9926.000
777.7590, 10011.00
778.9040, 9945.000
780.0490, 10027.00
781.1940, 10006.00
782.3380, 10073.00
783.4820, 9990.000
784.6260, 9947.000
785.7700, 10127.00
786.9140, 10076.00
788.0580, 10071.00
789.2010, 10069.00
790.3450, 10096.00
791.4880, 10099.00
792.6310, 10128.30
793.7730, 10127.00
794.9160, 10193.00
796.0590, 10226.00
797.2010, 10267.00
798.3430, 10265.00
799.4850, 10340.00
800.6270, 10446.00
801.7690, 10423.00
802.9100, 10451.00
804.0520, 10477.00
805.1930, 10445.00
806.3340, 10481.00
807.4750, 10620.00
808.6160, 10564.00
809.7560, 10718.00
810.8970, 10572.00
812.0370, 10708.00
813.1770, 10724.00
814.3170, 10821.00
815.4570, 10909.00
816.5960, 11125.00
817.7360, 10989.00
818.8750, 10933.00
820.0140, 11150.00
821.1530, 10989.00
822.2920, 11116.00
823.4310, 11298.00
824.5690, 11371.00
825.7070, 11575.00
826.8460, 11724.09
827.9840, 11900.00
829.1220, 12033.00
830.2590, 12153.36
831.3970, 12183.00
832.5340, 12356.00
833.6710, 12444.00
834.8080, 12522.00
835.9450, 12469.00
837.0820, 12431.00
838.2190, 12281.00
839.3550, 12316.00
840.4910, 12177.00
841.6270, 12291.00
842.7630, 12127.00
843.8990, 12225.00
845.0350, 11956.00
846.1700, 12183.00
847.3060, 12078.00
848.4410, 12043.00
849.5760, 12061.00
850.7100, 12075.00
851.8450, 12033.00
852.9800, 11908.00
854.1140, 12022.00
855.2480, 11817.00
856.3820, 11822.00
857.5160, 11713.00
858.6500, 11592.00
859.7830, 11761.00
860.9170, 11846.00
862.0500, 11675.00
863.1830, 11768.00
864.3160, 11720.00
865.4480, 11664.00
866.5810, 11719.00
867.7130, 11782.00
868.8460, 11769.00
869.9780, 11844.00
871.1100, 11801.00
872.2410, 11785.00
873.3730, 11804.00
874.5050, 11971.00
875.6360, 11840.00
876.7670, 12037.00
877.8980, 12005.00
879.0290, 12077.00
880.1590, 12013.00
881.2900, 12112.00
882.4200, 12055.00
883.5500, 11962.00
884.6800, 12079.00
885.8100, 11984.00
886.9400, 12136.00
888.0690, 12139.00
889.1990, 12110.00
890.3280, 12190.00
891.4570, 12337.00
892.5860, 12358.00
893.7140, 12498.96
894.8430, 12508.00
895.9710, 12751.00
897.1000, 12804.00
898.2280, 12968.00
899.3560, 13281.00
900.4830, 13807.00
901.6110, 14121.00
902.7380, 14565.00
903.8660, 15401.00
904.9930, 16234.00
906.1200, 16915.00
907.2460, 17530.00
908.3730, 18285.00
909.5000, 18925.00
910.6260, 19617.00
911.7520, 19935.00
912.8780, 20338.00
914.0040, 20403.00
915.1290, 20995.00
916.2550, 21708.00
917.3800, 22741.00
918.5050, 23956.00
919.6300, 25441.00
920.7550, 27263.00
921.8800, 29555.00
923.0040, 32175.00
924.1290, 34658.00
925.2530, 37563.00
926.3770, 40914.00
927.5010, 44371.00
928.6250, 47660.00
929.7480, 50987.00
930.8720, 53395.00
931.9950, 55534.00
933.1180, 56754.00
934.2410, 56089.00
935.3640, 55314.00
936.4860, 53321.00
937.6090, 50478.00
938.7310, 47190.00
939.8530, 44057.00
940.9750, 41354.00
942.0970, 38690.00
943.2180, 36379.00
944.3400, 34508.00
945.4610, 32752.00
946.5820, 31383.00
947.7030, 29672.00
948.8240, 27939.00
949.9450, 26056.00
951.0650, 24046.00
952.1860, 22161.00
953.3060, 20487.00
954.4260, 19308.00
955.5460, 18253.00
956.6650, 17586.00
957.7850, 16864.00
958.9040, 16263.00
960.0230, 16090.00
961.1420, 15576.00
962.2610, 15320.00
963.3800, 15124.00
964.4990, 14976.00
965.6170, 15002.00
966.7350, 14447.00
967.8530, 14551.00
968.9710, 14367.00
970.0890, 14507.00
971.2070, 14452.00
972.3240, 14444.00
973.4410, 14419.00
974.5580, 14630.00
975.6750, 14844.00
976.7920, 15040.00
977.9090, 15246.00
979.0250, 15317.00
980.1410, 15368.00
981.2580, 15548.00
982.3740, 15632.00
983.4890, 15834.00
984.6050, 16135.72
985.7200, 16378.00
986.8360, 16944.00
987.9510, 17525.00
989.0660, 18220.00
990.1810, 19150.00
991.2950, 20240.86
992.4100, 21463.00
993.5240, 22963.00
994.6390, 24638.00
995.7530, 26441.00
996.8660, 28350.00
997.9800, 30296.00
999.0940, 32206.00
1000.207, 34011.00
1001.320, 35358.00
1002.433, 36631.00
1003.546, 37536.00
1004.659, 38047.00
1005.772, 37759.00
1006.884, 37533.00
1007.996, 36606.00
1009.108, 35609.00
1010.220, 34706.00
1011.332, 33294.00
1012.444, 31927.00
1013.555, 30596.00
1014.666, 29209.00
1015.777, 27556.00
1016.888, 26310.00
1017.999, 25099.00
1019.110, 23738.00
1020.220, 22873.00
1021.331, 21779.00
1022.441, 20564.00
1023.551, 19842.00
1024.661, 19226.00
1025.770, 18689.00
1026.880, 18326.00
1027.989, 17760.00
1029.098, 17473.00
1030.207, 17077.00
1031.316, 16637.00
1032.425, 16518.00
1033.533, 16407.00
1034.642, 16218.00
1035.750, 16273.00
1036.858, 16128.00
1037.966, 15942.00
1039.073, 15902.00
1040.181, 15767.00
1041.288, 15809.00
1042.396, 15680.77
1043.503, 15610.52
1044.610, 15462.00
1045.716, 15407.00
1046.823, 15233.00
1047.929, 15067.00
1049.036, 15011.00
1050.142, 14878.00
1051.248, 14832.00
1052.353, 14783.66
1053.459, 14597.00
1054.564, 14720.00
1055.670, 14701.00
1056.775, 14667.00
1057.880, 14510.00
1058.985, 14435.00
1060.089, 14306.00
1061.194, 14404.00
1062.298, 14389.00
1063.402, 14250.00
1064.506, 14373.00
1065.610, 14372.00
1066.713, 14249.00
1067.817, 14364.00
1068.920, 14370.19
1070.023, 14295.48
1071.126, 14494.00
1072.229, 14405.00
1073.332, 14419.00
1074.435, 14517.92
1075.537, 14540.72
1076.639, 14676.00
1077.741, 14750.00
1078.843, 14890.00
1079.945, 15063.00
1081.046, 15137.00
1082.148, 15465.00
1083.249, 15792.00
1084.350, 15927.00
1085.451, 16314.00
1086.551, 16666.00
1087.652, 16736.00
1088.752, 16718.00
1089.853, 17011.00
1090.953, 16597.00
1092.053, 16512.00
1093.152, 16380.00
1094.252, 16041.00
1095.351, 15817.00
1096.451, 15562.84
1097.550, 15196.00
1098.649, 15006.00
1099.748, 14796.00
1100.846, 14486.00
1101.945, 14329.00
1103.043, 14167.00
1104.141, 14261.00
1105.239, 13988.00
1106.337, 14022.00
1107.434, 13820.00
1108.532, 13964.00
1109.629, 13849.00
1110.726, 13991.00
1111.823, 13848.00
1112.920, 13850.00
1114.017, 13788.00
1115.113, 13910.00
1116.210, 14002.00
1117.306, 14122.00
1118.402, 14139.00
1119.498, 14350.00
1120.593, 14327.00
1121.689, 14526.00
1122.784, 14660.00
1123.879, 14697.00
1124.974, 14695.00
1126.069, 14524.00
1127.164, 14406.00
1128.259, 14350.41
1129.353, 14254.31
1130.447, 14152.00
1131.541, 14137.00
1132.635, 13951.00
1133.729, 13855.00
1134.822, 13971.00
1135.916, 13859.00
1137.009, 13769.00
1138.102, 13799.00
1139.195, 13740.70
1140.288, 13953.00
1141.380, 13801.00
1142.473, 13903.00
1143.565, 14082.00
1144.657, 13898.00
1145.749, 14106.00
1146.841, 13987.00
1147.932, 13977.28
1149.024, 14006.00
1150.115, 14031.00
1151.206, 13895.00
1152.297, 14146.00
1153.388, 13894.00
1154.479, 13852.00
1155.569, 13918.00
1156.659, 13836.00
1157.750, 13796.00
1158.839, 13834.00
1159.929, 13688.00
1161.019, 13902.00
1162.108, 13844.00
1163.198, 13796.00
1164.287, 13849.00
1165.376, 13809.00
1166.465, 13646.00
1167.553, 13742.00
1168.642, 13671.00
1169.730, 13689.00
1170.818, 13633.00
1171.906, 13622.00
1172.994, 13672.00
1174.082, 13658.00
1175.170, 13492.00
1176.257, 13611.00
1177.344, 13448.00
1178.431, 13645.00
1179.518, 13633.00
1180.605, 13450.00
1181.691, 13583.00
1182.778, 13461.00
1183.864, 13496.00
1184.950, 13478.95
1186.036, 13527.00
1187.122, 13406.00
1188.207, 13415.00
1189.292, 13357.00
1190.378, 13343.00
1191.463, 13306.00
1192.548, 13247.00
1193.632, 13396.00
1194.717, 13224.00
1195.801, 13406.00
1196.886, 13282.00
1197.970, 13366.00
1199.054, 13285.00
1200.137, 13175.00
1201.221, 13240.00
1202.305, 13129.00
1203.388, 13189.00
1204.471, 13246.00
1205.554, 13281.00
1206.637, 13214.00
1207.719, 13268.85
1208.802, 13153.00
1209.884, 13267.00
1210.966, 13274.00
1212.048, 13216.00
1213.130, 13277.00
1214.212, 13194.00
1215.293, 13240.00
1216.374, 13239.00
1217.456, 13166.00
1218.536, 13288.00
1219.617, 13260.00
1220.698, 13329.00
1221.778, 13172.00
1222.859, 13263.00
1223.939, 13256.40
1225.019, 13442.00
1226.099, 13293.00
1227.178, 13417.00
1228.258, 13398.00
1229.337, 13388.00
1230.417, 13389.00
1231.496, 13348.00
1232.574, 13436.00
1233.653, 13491.00
1234.732, 13414.00
1235.810, 13436.00
1236.888, 13337.00
1237.966, 13481.00
1239.044, 13460.00
1240.122, 13574.00
1241.199, 13401.00
1242.277, 13651.00
1243.354, 13546.00
1244.431, 13560.00
1245.508, 13710.00
1246.585, 13656.00
1247.661, 13714.00
1248.738, 13693.00
1249.814, 13812.00
1250.890, 13732.00
1251.966, 13877.00
1253.042, 13665.00
1254.117, 13659.00
1255.193, 13595.00
1256.268, 13652.94
1257.343, 13809.00
1258.418, 13807.00
1259.493, 13909.00
1260.567, 13830.00
1261.642, 13815.00
1262.716, 13776.00
1263.790, 13874.00
1264.864, 13971.00
1265.938, 13931.00
1267.011, 13904.00
1268.085, 13977.00
1269.158, 13858.00
1270.231, 13884.00
1271.304, 13840.00
1272.377, 13839.00
1273.450, 13873.00
1274.522, 13794.00
1275.594, 13841.00
1276.666, 13752.00
1277.738, 13774.00
1278.810, 13882.00
1279.882, 13898.71
1280.953, 13931.38
1282.025, 14066.00
1283.096, 13909.00
1284.167, 13967.00
1285.238, 13834.00
1286.308, 13811.00
1287.379, 13861.00
1288.449, 13889.00
1289.519, 13953.00
1290.589, 13949.00
1291.659, 14100.00
1292.729, 14005.00
1293.798, 13874.00
1294.868, 14200.00
1295.937, 14001.00
1297.006, 14098.00
1298.075, 14145.00
1299.143, 14223.00
1300.212, 14195.57
1301.280, 14073.00
1302.348, 14121.00
1303.416, 14031.00
1304.484, 14010.00
1305.552, 13971.00
1306.620, 13991.00
1307.687, 13963.00
1308.754, 13939.00
1309.821, 13962.00
1310.888, 13961.75
1311.955, 14069.61
1313.021, 14122.22
1314.088, 14122.52
1315.154, 13913.92
1316.220, 13975.10
1317.286, 13928.16
1318.352, 13876.78
1319.417, 13857.00
1320.483, 13913.00
1321.548, 13995.00
1322.613, 13976.00
1323.678, 14036.96
1324.743, 14041.85
1325.807, 14089.00
1326.872, 14039.00
1327.936, 14043.00
1329.000, 14019.00
1330.064, 14189.00
1331.128, 14279.00
1332.191, 14495.00
1333.255, 14339.00
1334.318, 14382.00
1335.381, 14466.00
1336.444, 14570.00
1337.507, 14593.00
1338.569, 14742.00
1339.632, 14872.00
1340.694, 14763.00
1341.756, 14802.00
1342.818, 14908.00
1343.880, 14759.00
1344.941, 14738.00
1346.003, 14797.00
1347.064, 14882.00
1348.125, 14749.00
1349.186, 14944.00
1350.247, 14878.00
1351.308, 14880.00
1352.368, 15098.00
1353.428, 15186.00
1354.489, 15156.00
1355.549, 15260.00
1356.608, 15421.82
1357.668, 15731.00
1358.727, 15823.00
1359.787, 16118.00
1360.846, 16345.00
1361.905, 16546.00
1362.964, 16329.00
1364.022, 16154.00
1365.081, 16013.00
1366.139, 15750.00
1367.197, 15753.00
1368.255, 15520.00
1369.313, 15185.00
1370.371, 15037.00
1371.428, 14952.00
1372.486, 14619.00
1373.543, 14842.00
1374.600, 14662.00
1375.657, 14569.00
1376.713, 14631.00
1377.770, 14466.00
1378.826, 14562.00
1379.882, 14766.00
1380.938, 14559.00
1381.994, 14648.00
1383.050, 14638.00
1384.106, 14846.00
1385.161, 14838.00
1386.216, 15074.00
1387.271, 15175.00
1388.326, 15278.00
1389.381, 15473.00
1390.435, 15500.00
1391.490, 15756.00
1392.544, 16131.00
1393.598, 16136.00
1394.652, 16233.00
1395.705, 16188.00
1396.759, 16169.00
1397.812, 16060.00
1398.866, 15669.00
1399.919, 15624.00
1400.972, 15084.00
1402.024, 14815.00
1403.077, 14725.00
1404.129, 14369.00
1405.181, 14344.00
1406.233, 14038.00
1407.285, 14134.00
1408.337, 13904.00
1409.389, 13943.00
1410.440, 13870.00
1411.491, 13854.00
1412.542, 13918.00
1413.593, 13822.00
1414.644, 13852.00
1415.695, 13821.00
1416.745, 13816.00
1417.795, 13756.00
1418.845, 13801.75
1419.895, 13762.00
1420.945, 13923.00
1421.995, 13965.00
1423.044, 14112.00
1424.093, 14179.00
1425.142, 14169.00
1426.191, 14271.00
1427.240, 14296.00
1428.289, 14249.00
1429.337, 14308.00
1430.385, 14125.00
1431.433, 14053.00
1432.481, 14107.83
1433.529, 14263.00
1434.577, 14282.00
1435.624, 14410.11
1436.672, 14351.00
1437.719, 14407.68
1438.766, 14475.00
1439.812, 14429.00
1440.859, 14477.00
1441.905, 14473.00
1442.952, 14495.00
1443.998, 14737.00
1445.044, 14711.00
1446.090, 14767.00
1447.135, 14826.00
1448.181, 14721.00
1449.226, 14709.00
1450.271, 14789.00
1451.316, 14650.00
1452.361, 14662.00
1453.405, 14713.00
1454.450, 14685.00
1455.494, 14553.00
1456.538, 14753.00
1457.582, 14653.00
1458.626, 14766.00
1459.670, 14701.00
1460.713, 14693.00
1461.757, 14890.00
1462.800, 14906.00
1463.843, 15014.00
1464.886, 14750.00
1465.928, 14929.00
1466.971, 14888.00
1468.013, 14832.00
1469.055, 14912.00
1470.097, 14933.00
1471.139, 14890.00
1472.181, 14849.00
1473.222, 14861.87
1474.263, 14913.00
1475.305, 14873.00
1476.346, 14882.00
1477.386, 14915.00
1478.427, 14749.00
1479.468, 14846.00
1480.508, 14722.00
1481.548, 14767.00
1482.588, 14742.00
1483.628, 14831.00
1484.668, 14741.00
1485.707, 14811.00
1486.747, 14750.00
1487.786, 14684.00
1488.825, 14747.00
1489.864, 14768.00
1490.902, 14760.00
1491.941, 14797.00
1492.979, 14815.00
1494.017, 14806.00
1495.055, 14778.00
1496.093, 14745.00
1497.131, 14869.00
1498.168, 14666.00
1499.206, 14817.00
1500.243, 14766.00
1501.280, 14750.00
1502.317, 14650.00
1503.354, 14846.00
1504.390, 14689.00
1505.426, 14838.00
1506.463, 14892.00
1507.499, 14809.00
1508.535, 14780.00
1509.570, 14960.00
1510.606, 14805.00
1511.641, 14806.00
1512.676, 14934.00
1513.711, 14835.00
1514.746, 14896.00
1515.781, 14943.00
1516.816, 14885.00
1517.850, 14882.00
1518.884, 14888.00
1519.918, 14892.00
1520.952, 14911.00
1521.986, 15025.00
1523.019, 14943.00
1524.053, 14924.00
1525.086, 15019.00
1526.119, 14866.00
1527.152, 15033.00
1528.185, 14816.00
1529.217, 15059.00
1530.250, 14879.00
1531.282, 14969.00
1532.314, 15018.00
1533.346, 15022.00
1534.377, 14866.00
1535.409, 14828.00
1536.440, 15016.00
1537.472, 15220.00
1538.503, 15044.00
1539.534, 15236.00
1540.564, 15290.00
1541.595, 15051.00
1542.625, 15363.00
1543.656, 15411.00
1544.686, 15790.00
1545.716, 15806.00
1546.745, 15583.00
1547.775, 15659.00
1548.804, 15644.00
1549.834, 15417.00
1550.863, 15595.00
1551.892, 15727.00
1552.920, 15509.00
1553.949, 15556.00
1554.977, 15648.00
1556.006, 15479.00
1557.034, 15421.00
1558.062, 15635.00
1559.089, 15518.00
1560.117, 15473.00
1561.144, 15517.00
1562.172, 15461.00
1563.199, 15427.00
1564.226, 15494.00
1565.252, 15457.00
1566.279, 15556.00
1567.305, 15527.00
1568.332, 15432.00
1569.358, 15536.00
1570.384, 15643.00
##END=



