##NAMES=Catapleiite
##RRUFFID=R060198
##IDEAL CHEMISTRY=Na_2_Zr^4+^Si_3_O_9_&#183;2H_2_O
##LOCALITY=Mont Saint-Hilaire, Rouville County, Quebec, Canada
##OWNER=RRUFF
##SOURCE=Royal Ontario Museum
##DESCRIPTION=Tan colored pseudohexagonal tabular crystals
##STATUS=The identification of this mineral has been confirmed by X-ray diffraction and chemical analysis
##URL=rruff.info/R060198
##MEASURED CHEMISTRY=(Na_1.92_Ca_0.04_[box]_0.04_)_Σ=2_Zr_1.00_Si_3.00_O_9_·2H_2_O
##PIN_ID=L01747
##ORIENTATION=Laser parallel to c* (0 0 1). Fiducial mark perpendicular to laser is parallel to a [1 0 0]
95.94800, 10395.00
97.18200, 10371.00
98.41600, 10465.00
99.64900, 10698.00
100.8830, 10844.00
102.1160, 11020.00
103.3490, 11094.00
104.5820, 11505.00
105.8150, 12098.00
107.0470, 13109.00
108.2800, 13395.62
109.5120, 13478.14
110.7440, 14224.00
111.9760, 13214.00
113.2080, 13294.00
114.4400, 13318.00
115.6710, 13882.00
116.9030, 13694.00
118.1340, 13541.00
119.3650, 13058.00
120.5960, 12659.00
121.8270, 12563.00
123.0580, 12434.00
124.2880, 12357.93
125.5190, 12480.00
126.7490, 12501.00
127.9790, 12474.00
129.2090, 12783.00
130.4390, 13000.00
131.6680, 12903.00
132.8980, 13184.00
134.1270, 13099.00
135.3560, 13225.00
136.5850, 13383.00
137.8140, 13680.00
139.0430, 13769.00
140.2710, 14051.00
141.5000, 14074.00
142.7280, 14133.00
143.9560, 14282.00
145.1840, 14592.00
146.4120, 14651.00
147.6390, 14929.00
148.8670, 15095.00
150.0940, 15265.00
151.3210, 15362.00
152.5490, 15522.00
153.7750, 15270.00
155.0020, 15175.00
156.2290, 15337.00
157.4550, 15419.00
158.6810, 15191.00
159.9080, 15140.00
161.1340, 15027.00
162.3590, 14943.00
163.5850, 14851.38
164.8110, 14922.00
166.0360, 14677.00
167.2610, 14439.00
168.4860, 14390.00
169.7110, 14051.00
170.9360, 13927.00
172.1610, 13635.00
173.3850, 13368.00
174.6100, 13139.00
175.8340, 13138.00
177.0580, 13058.00
178.2820, 12954.00
179.5050, 12939.00
180.7290, 12847.00
181.9520, 12654.00
183.1760, 12691.00
184.3990, 12735.00
185.6220, 12749.00
186.8450, 12969.00
188.0670, 12955.00
189.2900, 13202.00
190.5120, 13163.00
191.7340, 13323.00
192.9560, 13516.00
194.1780, 13708.00
195.4000, 13966.00
196.6220, 14112.00
197.8430, 14340.75
199.0640, 14639.00
200.2860, 14761.00
201.5070, 15020.00
202.7270, 15254.00
203.9480, 15159.00
205.1690, 14643.00
206.3890, 14263.00
207.6090, 14103.00
208.8290, 14102.00
210.0490, 14050.00
211.2690, 13741.00
212.4890, 13678.00
213.7080, 13734.00
214.9280, 13551.00
216.1470, 13213.00
217.3660, 12986.00
218.5850, 12731.00
219.8030, 12370.00
221.0220, 12336.00
222.2400, 12025.00
223.4590, 11904.00
224.6770, 11661.00
225.8950, 11464.00
227.1120, 11472.00
228.3300, 11242.00
229.5480, 11248.51
230.7650, 11131.25
231.9820, 11196.00
233.1990, 10972.00
234.4160, 10873.00
235.6330, 10858.00
236.8490, 10793.00
238.0660, 10711.00
239.2820, 10700.00
240.4980, 10662.00
241.7140, 10620.00
242.9300, 10520.00
244.1460, 10523.00
245.3610, 10492.00
246.5770, 10555.00
247.7920, 10501.00
249.0070, 10440.00
250.2220, 10504.00
251.4370, 10230.84
252.6510, 10405.47
253.8660, 10498.68
255.0800, 10514.87
256.2940, 10223.28
257.5080, 10329.12
258.7220, 10275.69
259.9360, 10215.72
261.1490, 10377.50
262.3630, 10130.69
263.5760, 10288.95
264.7890, 10285.52
266.0020, 10356.09
267.2150, 10266.41
268.4270, 10226.23
269.6400, 10346.35
270.8520, 10377.72
272.0640, 10111.00
273.2760, 10082.00
274.4880, 10173.00
275.7000, 10164.00
276.9120, 10343.00
278.1230, 10321.00
279.3340, 10368.00
280.5450, 10405.52
281.7560, 10314.00
282.9670, 10444.00
284.1780, 10338.00
285.3880, 10415.00
286.5980, 10586.00
287.8090, 10732.00
289.0190, 10821.00
290.2290, 10786.00
291.4380, 11003.00
292.6480, 11124.00
293.8570, 11101.00
295.0670, 11295.00
296.2760, 11276.00
297.4850, 11404.00
298.6930, 11284.00
299.9020, 11177.00
301.1110, 11274.00
302.3190, 11153.00
303.5270, 11043.00
304.7350, 11012.28
305.9430, 10928.56
307.1510, 10866.00
308.3580, 10873.00
309.5660, 10871.00
310.7730, 10931.00
311.9800, 10903.00
313.1870, 10943.00
314.3940, 10848.00
315.6010, 10755.00
316.8070, 10809.00
318.0130, 10687.00
319.2200, 10771.00
320.4260, 10805.00
321.6310, 10804.00
322.8370, 10717.00
324.0430, 10636.00
325.2480, 10726.00
326.4540, 10652.00
327.6590, 10691.00
328.8640, 10770.00
330.0680, 10735.00
331.2730, 10601.00
332.4780, 10627.00
333.6820, 10535.00
334.8860, 10562.00
336.0900, 10685.00
337.2940, 10508.00
338.4980, 10551.00
339.7010, 10437.00
340.9050, 10498.00
342.1080, 10475.00
343.3110, 10478.00
344.5140, 10546.00
345.7170, 10504.00
346.9200, 10537.00
348.1220, 10587.00
349.3240, 10539.00
350.5270, 10657.00
351.7290, 10729.00
352.9310, 10635.00
354.1320, 10821.00
355.3340, 10830.00
356.5350, 10900.00
357.7370, 10940.00
358.9380, 11028.00
360.1390, 11065.20
361.3400, 11011.00
362.5400, 11153.00
363.7410, 11235.00
364.9410, 11279.00
366.1410, 11166.00
367.3410, 11191.00
368.5410, 11064.00
369.7410, 11179.00
370.9400, 11205.00
372.1400, 11226.00
373.3390, 11221.00
374.5380, 11133.00
375.7370, 11008.00
376.9360, 11104.00
378.1350, 11041.00
379.3330, 11069.00
380.5310, 11048.00
381.7300, 11043.04
382.9280, 11064.00
384.1260, 11039.00
385.3230, 11052.00
386.5210, 11029.00
387.7180, 11017.04
388.9160, 11073.00
390.1130, 10984.00
391.3100, 11048.00
392.5060, 11035.00
393.7030, 11032.93
394.9000, 11075.00
396.0960, 11046.00
397.2920, 11072.00
398.4880, 11056.00
399.6840, 11219.00
400.8800, 11277.00
402.0750, 11245.00
403.2710, 11423.00
404.4660, 11480.00
405.6610, 11704.00
406.8560, 11777.00
408.0510, 11876.00
409.2450, 12059.00
410.4400, 12381.00
411.6340, 12645.00
412.8280, 12938.00
414.0220, 13180.00
415.2160, 13807.00
416.4100, 14324.00
417.6030, 15002.00
418.7970, 15650.00
419.9900, 16406.00
421.1830, 17473.00
422.3760, 18454.00
423.5690, 19606.00
424.7610, 20681.00
425.9540, 21640.00
427.1460, 22772.00
428.3380, 23528.00
429.5300, 23510.00
430.7220, 23636.00
431.9140, 22986.00
433.1050, 22205.00
434.2970, 21229.00
435.4880, 19998.00
436.6790, 18769.00
437.8700, 17585.00
439.0610, 16835.00
440.2510, 16019.00
441.4420, 15361.00
442.6320, 14861.00
443.8220, 14349.00
445.0120, 13926.13
446.2020, 13679.00
447.3910, 13275.00
448.5810, 13079.00
449.7700, 12936.00
450.9600, 12800.00
452.1490, 12557.00
453.3370, 12406.00
454.5260, 12330.00
455.7150, 12103.00
456.9030, 12077.00
458.0910, 11893.00
459.2800, 12074.00
460.4670, 12010.00
461.6550, 11942.00
462.8430, 11771.00
464.0300, 11721.00
465.2180, 11661.00
466.4050, 11744.00
467.5920, 11723.00
468.7790, 11666.00
469.9650, 11639.00
471.1520, 11567.00
472.3380, 11604.00
473.5250, 11658.00
474.7110, 11560.00
475.8970, 11546.00
477.0820, 11492.00
478.2680, 11479.69
479.4540, 11608.00
480.6390, 11509.00
481.8240, 11526.00
483.0090, 11600.00
484.1940, 11496.00
485.3780, 11522.00
486.5630, 11569.00
487.7470, 11488.00
488.9320, 11420.00
490.1160, 11445.00
491.3000, 11682.00
492.4830, 11536.00
493.6670, 11615.00
494.8500, 11754.00
496.0340, 11648.00
497.2170, 11655.00
498.4000, 11715.00
499.5820, 11679.00
500.7650, 11732.00
501.9480, 11742.99
503.1300, 11758.00
504.3120, 11779.00
505.4940, 11873.00
506.6760, 11898.00
507.8580, 11963.00
509.0390, 12038.00
510.2210, 12227.00
511.4020, 12182.00
512.5830, 12209.00
513.7640, 12391.00
514.9450, 12596.00
516.1250, 12700.00
517.3060, 12854.50
518.4860, 12967.58
519.6660, 13080.00
520.8460, 13157.00
522.0260, 13242.00
523.2060, 13316.00
524.3850, 13394.00
525.5650, 13350.00
526.7440, 13337.00
527.9230, 13393.00
529.1020, 13307.00
530.2810, 13301.53
531.4590, 13041.00
532.6380, 13210.00
533.8160, 13126.00
534.9940, 13064.00
536.1720, 13113.00
537.3500, 12873.00
538.5270, 12972.00
539.7050, 12991.00
540.8820, 12941.00
542.0590, 13002.00
543.2360, 13068.00
544.4130, 13222.00
545.5900, 13191.00
546.7660, 13241.00
547.9430, 13355.00
549.1190, 13382.00
550.2950, 13452.00
551.4710, 13822.00
552.6470, 13794.00
553.8220, 14285.00
554.9980, 14678.00
556.1730, 14901.00
557.3480, 15470.00
558.5230, 16125.00
559.6980, 16640.00
560.8730, 17696.00
562.0470, 18568.00
563.2220, 19389.00
564.3960, 20452.00
565.5700, 21449.00
566.7440, 22541.00
567.9170, 23330.00
569.0910, 24286.00
570.2640, 25004.00
571.4380, 25649.00
572.6110, 25643.00
573.7840, 25504.00
574.9570, 24723.00
576.1290, 23755.00
577.3020, 22538.00
578.4740, 21224.00
579.6460, 19776.00
580.8180, 18587.00
581.9900, 17538.00
583.1620, 16569.00
584.3330, 15663.00
585.5040, 15195.00
586.6760, 14456.00
587.8470, 14232.00
589.0180, 13850.00
590.1880, 13402.00
591.3590, 13224.00
592.5290, 13121.00
593.7000, 13064.00
594.8700, 12847.00
596.0400, 12608.00
597.2090, 12735.00
598.3790, 12564.00
599.5490, 12626.00
600.7180, 12582.00
601.8870, 12620.00
603.0560, 12534.00
604.2250, 12529.00
605.3940, 12605.00
606.5620, 12644.00
607.7300, 12775.00
608.8990, 12850.00
610.0670, 13018.00
611.2350, 13136.00
612.4020, 13345.00
613.5700, 13679.00
614.7370, 13986.00
615.9050, 14417.00
617.0720, 14743.00
618.2390, 15233.00
619.4060, 16096.00
620.5720, 16823.00
621.7390, 17718.00
622.9050, 18810.00
624.0710, 20090.00
625.2370, 21505.00
626.4030, 23143.00
627.5690, 24492.00
628.7340, 26085.00
629.9000, 26730.00
631.0650, 26040.00
632.2300, 24860.00
633.3950, 23194.00
634.5600, 21536.00
635.7240, 19861.00
636.8890, 18126.00
638.0530, 17074.00
639.2170, 16008.00
640.3810, 15415.00
641.5450, 14679.00
642.7080, 14430.00
643.8720, 13874.00
645.0350, 13821.00
646.1980, 13566.00
647.3610, 13309.00
648.5240, 13255.97
649.6870, 13077.70
650.8490, 13077.00
652.0120, 12917.00
653.1740, 12848.00
654.3360, 12826.00
655.4980, 12788.00
656.6600, 12660.00
657.8210, 12594.00
658.9830, 12554.00
660.1440, 12477.00
661.3050, 12488.00
662.4660, 12429.00
663.6270, 12387.00
664.7870, 12503.00
665.9480, 12479.00
667.1080, 12393.00
668.2680, 12409.46
669.4280, 12366.20
670.5880, 12363.00
671.7480, 12280.00
672.9070, 12360.00
674.0670, 12229.00
675.2260, 12231.00
676.3850, 12173.00
677.5440, 12270.00
678.7030, 12157.00
679.8610, 12279.00
681.0200, 12154.00
682.1780, 12275.00
683.3360, 12234.00
684.4940, 12200.00
685.6520, 12406.00
686.8090, 12265.00
687.9670, 12360.00
689.1240, 12334.00
690.2810, 12275.00
691.4380, 12397.00
692.5950, 12218.00
693.7520, 12300.00
694.9080, 12243.00
696.0650, 12338.00
697.2210, 12254.00
698.3770, 12076.00
699.5330, 11993.00
700.6880, 12286.00
701.8440, 12110.00
702.9990, 12165.00
704.1550, 12183.00
705.3100, 11996.00
706.4650, 12144.00
707.6190, 12229.00
708.7740, 12253.00
709.9290, 12210.00
711.0830, 12237.00
712.2370, 12290.00
713.3910, 12202.00
714.5450, 12178.00
715.6980, 12323.00
716.8520, 12265.00
718.0050, 12351.00
719.1580, 12346.00
720.3110, 12444.00
721.4640, 12463.00
722.6170, 12507.00
723.7700, 12591.00
724.9220, 12582.00
726.0740, 12759.00
727.2260, 12965.00
728.3780, 13012.76
729.5300, 13057.00
730.6810, 13173.00
731.8330, 13203.00
732.9840, 13174.00
734.1350, 13184.00
735.2860, 13176.58
736.4370, 13138.39
737.5880, 13165.00
738.7380, 13097.00
739.8880, 13104.00
741.0390, 13160.00
742.1890, 12979.00
743.3380, 13047.00
744.4880, 12853.00
745.6380, 12787.00
746.7870, 12637.00
747.9360, 12507.00
749.0850, 12463.43
750.2340, 12507.00
751.3830, 12402.00
752.5310, 12424.00
753.6800, 12485.00
754.8280, 12316.00
755.9760, 12276.00
757.1240, 12252.00
758.2720, 12221.00
759.4190, 12283.00
760.5670, 12201.00
761.7140, 12339.00
762.8610, 12141.00
764.0080, 12232.00
765.1550, 12208.00
766.3020, 12181.00
767.4480, 12226.00
768.5950, 12175.00
769.7410, 12335.00
770.8870, 12217.00
772.0330, 12233.00
773.1780, 12359.00
774.3240, 12258.00
775.4690, 12280.00
776.6140, 12357.00
777.7590, 12372.00
778.9040, 12366.00
780.0490, 12396.00
781.1940, 12316.00
782.3380, 12475.00
783.4820, 12303.00
784.6260, 12454.00
785.7700, 12314.00
786.9140, 12328.00
788.0580, 12367.00
789.2010, 12571.00
790.3450, 12417.00
791.4880, 12525.00
792.6310, 12484.00
793.7730, 12565.00
794.9160, 12565.00
796.0590, 12680.00
797.2010, 12617.00
798.3430, 12683.00
799.4850, 12632.00
800.6270, 12740.00
801.7690, 12797.00
802.9100, 12809.00
804.0520, 13131.00
805.1930, 12946.65
806.3340, 13050.00
807.4750, 12832.00
808.6160, 12817.00
809.7560, 12991.00
810.8970, 12942.00
812.0370, 13071.00
813.1770, 13126.00
814.3170, 13075.00
815.4570, 13235.00
816.5960, 13238.00
817.7360, 13366.00
818.8750, 13438.00
820.0140, 13396.00
821.1530, 13374.00
822.2920, 13490.00
823.4310, 13551.00
824.5690, 13706.00
825.7070, 13793.00
826.8460, 14068.00
827.9840, 14192.00
829.1220, 14265.00
830.2590, 14378.00
831.3970, 14452.00
832.5340, 14626.00
833.6710, 14916.00
834.8080, 14994.00
835.9450, 15037.00
837.0820, 14928.00
838.2190, 14912.00
839.3550, 14908.00
840.4910, 14701.00
841.6270, 14795.00
842.7630, 14511.00
843.8990, 14658.00
845.0350, 14740.00
846.1700, 14615.00
847.3060, 14562.00
848.4410, 14443.00
849.5760, 14494.00
850.7100, 14478.00
851.8450, 14628.00
852.9800, 14478.00
854.1140, 14377.00
855.2480, 14197.00
856.3820, 14191.96
857.5160, 14267.00
858.6500, 14175.00
859.7830, 14240.00
860.9170, 14226.00
862.0500, 14120.00
863.1830, 14234.00
864.3160, 14180.00
865.4480, 14240.00
866.5810, 14240.00
867.7130, 14317.00
868.8460, 14249.00
869.9780, 14250.00
871.1100, 14320.00
872.2410, 14381.00
873.3730, 14276.00
874.5050, 14367.00
875.6360, 14168.00
876.7670, 14396.00
877.8980, 14347.00
879.0290, 14236.00
880.1590, 14517.00
881.2900, 14442.00
882.4200, 14415.00
883.5500, 14473.00
884.6800, 14560.00
885.8100, 14572.00
886.9400, 14575.00
888.0690, 14528.00
889.1990, 14745.00
890.3280, 14607.00
891.4570, 14790.00
892.5860, 15008.00
893.7140, 14928.00
894.8430, 14978.00
895.9710, 15006.00
897.1000, 15161.00
898.2280, 15415.00
899.3560, 15679.00
900.4830, 15592.00
901.6110, 16214.00
902.7380, 16522.00
903.8660, 17125.00
904.9930, 18022.00
906.1200, 18550.06
907.2460, 19348.00
908.3730, 20057.00
909.5000, 21075.00
910.6260, 21972.00
911.7520, 22593.00
912.8780, 22888.00
914.0040, 23404.00
915.1290, 23322.00
916.2550, 23877.00
917.3800, 24505.00
918.5050, 25535.00
919.6300, 26658.00
920.7550, 28476.12
921.8800, 30869.00
923.0040, 32970.00
924.1290, 35531.00
925.2530, 38506.00
926.3770, 41178.00
927.5010, 44619.00
928.6250, 47925.00
929.7480, 50801.00
930.8720, 53352.00
931.9950, 54730.00
933.1180, 55815.00
934.2410, 55348.00
935.3640, 54413.00
936.4860, 52016.00
937.6090, 49425.00
938.7310, 46204.00
939.8530, 43311.00
940.9750, 40216.00
942.0970, 37994.00
943.2180, 36390.00
944.3400, 34903.00
945.4610, 33752.00
946.5820, 32974.00
947.7030, 31819.00
948.8240, 30428.00
949.9450, 28985.00
951.0650, 26924.00
952.1860, 25027.00
953.3060, 23188.00
954.4260, 21755.00
955.5460, 20763.00
956.6650, 19963.00
957.7850, 19206.00
958.9040, 19061.00
960.0230, 18648.00
961.1420, 18234.00
962.2610, 17875.00
963.3800, 17626.12
964.4990, 17447.19
965.6170, 17228.00
966.7350, 17304.00
967.8530, 17167.00
968.9710, 17201.00
970.0890, 17172.00
971.2070, 17191.00
972.3240, 17243.00
973.4410, 17326.00
974.5580, 17417.65
975.6750, 17596.25
976.7920, 17674.00
977.9090, 18020.00
979.0250, 18206.00
980.1410, 18449.00
981.2580, 18490.00
982.3740, 18673.00
983.4890, 18933.00
984.6050, 19165.00
985.7200, 19677.00
986.8360, 20078.00
987.9510, 21002.00
989.0660, 21644.00
990.1810, 22781.00
991.2950, 24046.00
992.4100, 25468.00
993.5240, 26981.00
994.6390, 28994.00
995.7530, 31186.00
996.8660, 32980.00
997.9800, 35351.00
999.0940, 37499.00
1000.207, 39694.00
1001.320, 41442.00
1002.433, 42540.00
1003.546, 43371.00
1004.659, 43641.00
1005.772, 43311.00
1006.884, 42685.00
1007.996, 41950.00
1009.108, 41110.00
1010.220, 39518.00
1011.332, 38148.00
1012.444, 36516.00
1013.555, 35067.00
1014.666, 33222.00
1015.777, 31829.00
1016.888, 30289.00
1017.999, 29044.00
1019.110, 27587.00
1020.220, 26186.00
1021.331, 25041.00
1022.441, 24143.00
1023.551, 23109.00
1024.661, 22487.00
1025.770, 21789.00
1026.880, 21133.00
1027.989, 20739.00
1029.098, 20720.00
1030.207, 20184.91
1031.316, 19985.53
1032.425, 19566.00
1033.533, 19429.00
1034.642, 19210.00
1035.750, 18980.00
1036.858, 19054.00
1037.966, 19009.00
1039.073, 18842.00
1040.181, 18961.00
1041.288, 18719.00
1042.396, 18708.00
1043.503, 18478.00
1044.610, 18441.00
1045.716, 18138.00
1046.823, 18158.00
1047.929, 18066.00
1049.036, 17994.00
1050.142, 17720.00
1051.248, 17617.00
1052.353, 17550.00
1053.459, 17601.00
1054.564, 17586.00
1055.670, 17530.00
1056.775, 17355.00
1057.880, 17383.00
1058.985, 17192.00
1060.089, 17305.00
1061.194, 17211.00
1062.298, 17152.00
1063.402, 17264.00
1064.506, 17029.00
1065.610, 17193.00
1066.713, 17110.00
1067.817, 17232.00
1068.920, 17407.00
1070.023, 17202.00
1071.126, 17287.00
1072.229, 17375.00
1073.332, 17336.00
1074.435, 17358.00
1075.537, 17374.00
1076.639, 17478.00
1077.741, 17601.00
1078.843, 17825.00
1079.945, 17948.00
1081.046, 18014.00
1082.148, 18358.00
1083.249, 18643.00
1084.350, 19151.00
1085.451, 19240.00
1086.551, 19483.00
1087.652, 19766.00
1088.752, 19835.00
1089.853, 19741.00
1090.953, 19670.00
1092.053, 19580.00
1093.152, 19450.00
1094.252, 18980.00
1095.351, 18666.00
1096.451, 18442.00
1097.550, 18054.00
1098.649, 17813.00
1099.748, 17550.00
1100.846, 17657.00
1101.945, 17294.00
1103.043, 17353.00
1104.141, 17061.00
1105.239, 16995.00
1106.337, 17049.00
1107.434, 16775.00
1108.532, 16828.00
1109.629, 16745.00
1110.726, 16841.00
1111.823, 16815.00
1112.920, 16681.00
1114.017, 16588.00
1115.113, 16889.00
1116.210, 16712.00
1117.306, 16818.00
1118.402, 16788.00
1119.498, 17079.00
1120.593, 16819.00
1121.689, 17097.00
1122.784, 17009.00
1123.879, 17227.00
1124.974, 17207.00
1126.069, 16973.00
1127.164, 17119.00
1128.259, 17120.00
1129.353, 16832.00
1130.447, 16868.00
1131.541, 16859.00
1132.635, 16829.00
1133.729, 16941.00
1134.822, 16864.00
1135.916, 16967.00
1137.009, 16847.00
1138.102, 16747.00
1139.195, 16919.00
1140.288, 16780.00
1141.380, 16822.00
1142.473, 16943.00
1143.565, 16889.00
1144.657, 16869.00
1145.749, 16742.00
1146.841, 16843.00
1147.932, 16745.00
1149.024, 16856.00
1150.115, 16947.00
1151.206, 16886.00
1152.297, 17036.00
1153.388, 16891.00
1154.479, 16788.00
1155.569, 16782.00
1156.659, 16761.00
1157.750, 16876.00
1158.839, 16816.00
1159.929, 16867.00
1161.019, 16780.00
1162.108, 16852.00
1163.198, 16604.00
1164.287, 16834.00
1165.376, 16671.00
1166.465, 16743.00
1167.553, 16766.00
1168.642, 16771.00
1169.730, 16689.00
1170.818, 16832.00
1171.906, 16792.00
1172.994, 16784.00
1174.082, 16919.00
1175.170, 16710.00
1176.257, 16713.11
1177.344, 16712.77
1178.431, 16663.00
1179.518, 16548.00
1180.605, 16556.02
1181.691, 16444.26
1182.778, 16481.00
1183.864, 16585.00
1184.950, 16506.00
1186.036, 16447.00
1187.122, 16547.00
1188.207, 16637.00
1189.292, 16541.00
1190.378, 16551.00
1191.463, 16672.00
1192.548, 16430.00
1193.632, 16444.00
1194.717, 16538.00
1195.801, 16344.00
1196.886, 16348.00
1197.970, 16361.00
1199.054, 16231.00
1200.137, 16326.00
1201.221, 16323.00
1202.305, 16311.00
1203.388, 16431.00
1204.471, 16324.00
1205.554, 16407.00
1206.637, 16404.00
1207.719, 16301.00
1208.802, 16348.00
1209.884, 16383.00
1210.966, 16519.00
1212.048, 16442.00
1213.130, 16470.00
1214.212, 16360.00
1215.293, 16407.00
1216.374, 16488.00
1217.456, 16535.00
1218.536, 16487.00
1219.617, 16441.00
1220.698, 16551.00
1221.778, 16409.00
1222.859, 16498.00
1223.939, 16587.00
1225.019, 16339.00
1226.099, 16599.00
1227.178, 16544.00
1228.258, 16557.00
1229.337, 16508.00
1230.417, 16764.00
1231.496, 16666.00
1232.574, 16660.00
1233.653, 16728.00
1234.732, 16617.00
1235.810, 16636.00
1236.888, 16684.00
1237.966, 16882.00
1239.044, 16887.00
1240.122, 16791.00
1241.199, 16652.00
1242.277, 16744.00
1243.354, 16838.00
1244.431, 17042.00
1245.508, 16848.00
1246.585, 16954.00
1247.661, 16890.00
1248.738, 16978.00
1249.814, 17009.46
1250.890, 17006.38
1251.966, 17023.00
1253.042, 17054.00
1254.117, 16904.00
1255.193, 16951.00
1256.268, 16997.00
1257.343, 17066.00
1258.418, 17116.00
1259.493, 17129.00
1260.567, 16991.00
1261.642, 17101.00
1262.716, 16917.00
1263.790, 17224.00
1264.864, 17235.00
1265.938, 17169.00
1267.011, 17489.00
1268.085, 16957.00
1269.158, 17137.00
1270.231, 17372.00
1271.304, 17402.00
1272.377, 17161.00
1273.450, 17261.00
1274.522, 17209.00
1275.594, 17240.00
1276.666, 17087.00
1277.738, 17344.00
1278.810, 17338.00
1279.882, 17190.00
1280.953, 17327.00
1282.025, 17346.00
1283.096, 17421.00
1284.167, 17287.11
1285.238, 17477.22
1286.308, 17585.92
1287.379, 17617.59
1288.449, 17341.48
1289.519, 17462.79
1290.589, 17424.84
1291.659, 17380.36
1292.729, 17557.61
1293.798, 17326.26
1294.868, 17500.00
1295.937, 17512.03
1297.006, 17598.06
1298.075, 17523.85
1299.143, 17499.12
1300.212, 17634.71
1301.280, 17681.53
1302.348, 17588.86
1303.416, 17679.60
1304.484, 17442.65
1305.552, 17340.00
1306.620, 17280.00
1307.687, 17341.00
1308.754, 17293.00
1309.821, 17468.00
1310.888, 17289.00
1311.955, 17325.00
1313.021, 17438.00
1314.088, 17416.00
1315.154, 17275.00
1316.220, 17449.00
1317.286, 17663.00
1318.352, 17465.00
1319.417, 17620.00
1320.483, 17426.00
1321.548, 17391.00
1322.613, 17487.00
1323.678, 17503.00
1324.743, 17596.00
1325.807, 17572.00
1326.872, 17583.00
1327.936, 17714.00
1329.000, 17688.00
1330.064, 17619.00
1331.128, 17694.00
1332.191, 17866.00
1333.255, 17985.00
1334.318, 17910.00
1335.381, 17878.00
1336.444, 18010.00
1337.507, 18102.00
1338.569, 18273.00
1339.632, 18154.00
1340.694, 18142.00
1341.756, 18233.00
1342.818, 18165.00
1343.880, 18266.00
1344.941, 18222.00
1346.003, 18451.00
1347.064, 18356.00
1348.125, 18113.00
1349.186, 18205.00
1350.247, 18338.00
1351.308, 18288.00
1352.368, 18495.00
1353.428, 18562.00
1354.489, 18756.00
1355.549, 19085.00
1356.608, 19214.00
1357.668, 19275.00
1358.727, 19645.00
1359.787, 19875.00
1360.846, 19952.00
1361.905, 20076.00
1362.964, 19875.00
1364.022, 19798.00
1365.081, 19631.00
1366.139, 19462.00
1367.197, 19283.05
1368.255, 18938.00
1369.313, 18910.00
1370.371, 18579.00
1371.428, 18488.00
1372.486, 18374.00
1373.543, 18287.00
1374.600, 18192.00
1375.657, 18185.00
1376.713, 18057.00
1377.770, 18074.00
1378.826, 18103.00
1379.882, 18325.00
1380.938, 18124.00
1381.994, 18226.00
1383.050, 18403.00
1384.106, 18282.00
1385.161, 18323.00
1386.216, 18389.00
1387.271, 18690.00
1388.326, 18717.00
1389.381, 18922.00
1390.435, 19364.00
1391.490, 19218.00
1392.544, 19317.00
1393.598, 19653.00
1394.652, 19760.00
1395.705, 19780.00
1396.759, 19826.00
1397.812, 19766.00
1398.866, 19357.00
1399.919, 19099.00
1400.972, 18722.00
1402.024, 18552.00
1403.077, 18209.00
1404.129, 17966.00
1405.181, 17856.00
1406.233, 17863.00
1407.285, 17696.68
1408.337, 17760.00
1409.389, 17587.00
1410.440, 17444.00
1411.491, 17517.00
1412.542, 17249.00
1413.593, 17331.00
1414.644, 17499.00
1415.695, 17547.00
1416.745, 17422.00
1417.795, 17523.00
1418.845, 17376.00
1419.895, 17595.00
1420.945, 17653.00
1421.995, 17601.00
1423.044, 17705.00
1424.093, 17682.00
1425.142, 17836.00
1426.191, 17786.00
1427.240, 17978.00
1428.289, 17898.00
1429.337, 17765.00
1430.385, 17940.00
1431.433, 17984.00
1432.481, 17841.00
1433.529, 17857.00
1434.577, 17786.00
1435.624, 17852.00
1436.672, 18040.00
1437.719, 18048.00
1438.766, 18077.00
1439.812, 18071.00
1440.859, 18082.00
1441.905, 18361.00
1442.952, 18347.00
1443.998, 18524.00
1445.044, 18414.00
1446.090, 18430.00
1447.135, 18525.00
1448.181, 18555.00
1449.226, 18570.00
1450.271, 18328.00
1451.316, 18530.00
1452.361, 18368.00
1453.405, 18454.00
1454.450, 18161.00
1455.494, 18254.00
1456.538, 18478.00
1457.582, 18342.00
1458.626, 18381.00
1459.670, 18435.00
1460.713, 18542.00
1461.757, 18702.00
1462.800, 18611.00
1463.843, 18766.00
1464.886, 18654.00
1465.928, 18540.00
1466.971, 18657.00
1468.013, 18757.00
1469.055, 18592.00
1470.097, 18601.00
1471.139, 18604.00
1472.181, 18496.00
1473.222, 18685.00
1474.263, 18673.00
1475.305, 18763.00
1476.346, 18562.00
1477.386, 18575.00
1478.427, 18574.00
1479.468, 18535.00
1480.508, 18552.60
1481.548, 18595.00
1482.588, 18541.00
1483.628, 18470.00
1484.668, 18428.00
1485.707, 18660.00
1486.747, 18501.00
1487.786, 18636.00
1488.825, 18554.00
1489.864, 18490.00
1490.902, 18556.00
1491.941, 18571.00
1492.979, 18622.00
1494.017, 18497.00
1495.055, 18505.00
1496.093, 18512.00
1497.131, 18554.00
1498.168, 18675.00
1499.206, 18674.00
1500.243, 18695.12
1501.280, 18562.00
1502.317, 18653.00
1503.354, 18655.00
1504.390, 18589.00
1505.426, 18682.00
1506.463, 18570.00
1507.499, 18488.00
1508.535, 18749.00
1509.570, 18720.00
1510.606, 18571.00
1511.641, 18608.00
1512.676, 18755.00
1513.711, 18748.00
1514.746, 18815.00
1515.781, 18747.00
1516.816, 18732.00
1517.850, 18779.00
1518.884, 18727.00
1519.918, 18883.00
1520.952, 18765.00
1521.986, 18965.00
1523.019, 18740.00
1524.053, 18761.00
1525.086, 18807.00
1526.119, 18882.00
1527.152, 18760.00
1528.185, 18793.00
1529.217, 18925.00
1530.250, 18697.00
1531.282, 18791.00
1532.314, 18854.00
1533.346, 18909.00
1534.377, 18808.00
1535.409, 18935.00
1536.440, 18937.00
1537.472, 19078.00
1538.503, 19097.00
1539.534, 19023.00
1540.564, 19049.00
1541.595, 19175.00
1542.625, 19248.00
1543.656, 19453.00
1544.686, 19472.00
1545.716, 19727.00
1546.745, 19617.00
1547.775, 19568.00
1548.804, 19638.00
1549.834, 19531.00
1550.863, 19630.00
1551.892, 19762.00
1552.920, 19644.00
1553.949, 19738.00
1554.977, 19628.00
1556.006, 19556.00
1557.034, 19561.00
1558.062, 19405.00
1559.089, 19596.00
1560.117, 19456.00
1561.144, 19615.00
1562.172, 19488.00
1563.199, 19379.00
1564.226, 19529.00
1565.252, 19721.00
1566.279, 19482.00
1567.305, 19589.00
1568.332, 19841.00
1569.358, 19665.00
1570.384, 19675.00
##END=



