##NAMES=Catapleiite
##RRUFFID=R060208
##IDEAL CHEMISTRY=Na_2_Zr^4+^Si_3_O_9_&#183;2H_2_O
##LOCALITY=Mont Saint-Hilaire, Rouville County, Quebec, Canada
##OWNER=RRUFF
##SOURCE=Royal Ontario Museum
##DESCRIPTION=Colorless transparent thin tabular pseudohexagonal crystal
##STATUS=The identification of this mineral is confirmed by single-crystal X-ray diffraction and chemical analysis.
##URL=rruff.info/R060208
##MEASURED CHEMISTRY=Na_2.00_Zr_1.00_Si_3.00_O_9_Â·2H_2_O
##PIN_ID=M01569
##ORIENTATION=Laser parallel to -c* (0 0 -1). Fiducial mark perpendicular to laser is parallel to a [1 0 0]
120.9140, 7667.000
122.1480, 7957.000
123.3810, 8002.000
124.6150, 8122.000
125.8480, 8139.000
127.0810, 8300.000
128.3130, 8321.000
129.5460, 8551.000
130.7790, 8620.000
132.0110, 8670.000
133.2430, 8655.000
134.4750, 8778.000
135.7070, 8983.000
136.9380, 8968.000
138.1700, 9175.000
139.4010, 9138.000
140.6330, 9281.000
141.8640, 9452.000
143.0950, 9578.000
144.3250, 9544.000
145.5560, 9739.000
146.7860, 9853.000
148.0160, 10088.00
149.2470, 10060.00
150.4760, 10262.00
151.7060, 10254.00
152.9360, 10475.00
154.1650, 10462.00
155.3950, 10540.00
156.6240, 10522.00
157.8530, 10735.00
159.0820, 10611.00
160.3100, 10813.00
161.5390, 10641.00
162.7670, 10368.00
163.9950, 10260.00
165.2230, 10036.00
166.4510, 9858.000
167.6790, 9621.000
168.9060, 9355.000
170.1340, 8998.000
171.3610, 8820.000
172.5880, 8461.000
173.8150, 8380.000
175.0420, 8218.000
176.2690, 8041.000
177.4950, 7851.000
178.7210, 7712.000
179.9470, 7581.170
181.1730, 7448.000
182.3990, 7404.000
183.6250, 7248.000
184.8500, 7242.000
186.0760, 7103.000
187.3010, 7189.000
188.5260, 7129.000
189.7510, 7096.000
190.9750, 7148.000
192.2000, 7179.000
193.4240, 7219.264
194.6490, 7262.000
195.8730, 7326.000
197.0970, 7388.000
198.3200, 7416.000
199.5440, 7460.000
200.7670, 7594.000
201.9910, 7599.000
203.2140, 7612.000
204.4370, 7622.000
205.6590, 7566.000
206.8820, 7731.000
208.1050, 7821.000
209.3270, 7700.000
210.5490, 7826.000
211.7710, 7762.000
212.9930, 7658.000
214.2150, 7602.000
215.4360, 7511.000
216.6570, 7375.000
217.8790, 7184.000
219.1000, 7068.000
220.3210, 6955.000
221.5410, 6798.778
222.7620, 6696.515
223.9820, 6537.000
225.2030, 6478.000
226.4230, 6372.000
227.6430, 6292.000
228.8620, 6335.000
230.0820, 6210.000
231.3010, 6117.000
232.5210, 6157.000
233.7400, 6064.000
234.9590, 6056.000
236.1780, 6050.000
237.3960, 5993.000
238.6150, 5985.000
239.8330, 6034.000
241.0510, 6050.000
242.2690, 6047.000
243.4870, 5972.000
244.7050, 5955.000
245.9230, 5966.000
247.1400, 5867.000
248.3570, 5931.000
249.5740, 5972.000
250.7910, 5920.000
252.0080, 5947.000
253.2240, 5985.000
254.4410, 5890.000
255.6570, 6034.000
256.8730, 6105.000
258.0890, 6129.000
259.3050, 6127.000
260.5210, 6149.000
261.7360, 6133.377
262.9510, 6159.000
264.1670, 6098.000
265.3820, 6070.000
266.5960, 6049.000
267.8110, 6092.000
269.0260, 6045.000
270.2400, 6080.000
271.4540, 6108.000
272.6680, 6046.000
273.8820, 6098.000
275.0960, 6084.000
276.3090, 6132.000
277.5230, 6234.000
278.7360, 6347.000
279.9490, 6288.000
281.1620, 6346.000
282.3750, 6468.000
283.5880, 6600.000
284.8000, 6608.000
286.0120, 6844.000
287.2240, 6917.000
288.4360, 7155.000
289.6480, 7239.000
290.8600, 7451.000
292.0710, 7631.000
293.2830, 7779.000
294.4940, 7955.000
295.7050, 8046.000
296.9160, 8083.000
298.1260, 7910.000
299.3370, 8053.000
300.5470, 7867.000
301.7580, 7876.000
302.9680, 7663.000
304.1770, 7685.000
305.3870, 7712.000
306.5970, 7576.000
307.8060, 7455.000
309.0150, 7442.000
310.2250, 7387.000
311.4340, 7510.000
312.6420, 7347.000
313.8510, 7452.000
315.0590, 7258.000
316.2680, 7301.000
317.4760, 7259.000
318.6840, 7170.000
319.8920, 7160.000
321.0990, 7143.000
322.3070, 7201.000
323.5140, 7135.000
324.7210, 7127.000
325.9280, 7083.000
327.1350, 6935.000
328.3420, 6997.000
329.5490, 7019.000
330.7550, 6842.000
331.9610, 6896.000
333.1670, 6888.000
334.3730, 6755.000
335.5790, 6654.000
336.7840, 6613.000
337.9900, 6602.000
339.1950, 6545.000
340.4000, 6577.000
341.6050, 6379.000
342.8100, 6409.000
344.0150, 6283.000
345.2190, 6349.000
346.4230, 6339.000
347.6280, 6440.000
348.8320, 6336.000
350.0350, 6496.000
351.2390, 6401.000
352.4430, 6357.000
353.6460, 6356.000
354.8490, 6469.000
356.0520, 6486.000
357.2550, 6545.000
358.4580, 6642.000
359.6600, 6686.000
360.8630, 6837.000
362.0650, 6898.000
363.2670, 6918.000
364.4690, 7070.000
365.6710, 6953.000
366.8720, 6969.000
368.0740, 7105.000
369.2750, 7052.000
370.4760, 7022.000
371.6770, 7047.000
372.8780, 7062.000
374.0780, 7128.000
375.2790, 7074.000
376.4790, 7124.000
377.6790, 7180.000
378.8790, 7088.000
380.0790, 7063.000
381.2790, 7016.000
382.4780, 6956.000
383.6780, 6971.000
384.8770, 7010.000
386.0760, 6995.000
387.2750, 6987.604
388.4730, 6981.000
389.6720, 6934.000
390.8700, 7009.000
392.0690, 6984.000
393.2670, 6893.000
394.4650, 7063.000
395.6620, 7056.000
396.8600, 6969.000
398.0570, 6943.000
399.2550, 7062.000
400.4520, 7106.000
401.6490, 7232.000
402.8450, 7313.154
404.0420, 7296.000
405.2390, 7502.000
406.4350, 7567.000
407.6310, 7673.000
408.8270, 7856.000
410.0230, 8164.000
411.2190, 8331.000
412.4140, 8637.000
413.6090, 8993.000
414.8050, 9550.000
416.0000, 10071.00
417.1940, 10859.00
418.3890, 11347.00
419.5840, 12337.00
420.7780, 13183.00
421.9720, 14194.00
423.1660, 15526.00
424.3600, 16899.00
425.5540, 18101.00
426.7480, 19494.00
427.9410, 20311.00
429.1340, 20829.00
430.3270, 21117.00
431.5200, 20512.00
432.7130, 19586.00
433.9060, 18373.00
435.0980, 17054.00
436.2900, 15618.00
437.4830, 14476.00
438.6750, 13386.00
439.8660, 12520.00
441.0580, 11714.00
442.2500, 11106.00
443.4410, 10460.00
444.6320, 10166.00
445.8230, 9731.000
447.0140, 9343.000
448.2050, 9055.000
449.3950, 8842.000
450.5860, 8756.000
451.7760, 8441.000
452.9660, 8353.000
454.1560, 8258.000
455.3450, 7982.000
456.5350, 7969.000
457.7240, 7886.000
458.9140, 7721.000
460.1030, 7712.000
461.2920, 7628.559
462.4810, 7684.000
463.6690, 7574.000
464.8580, 7462.000
466.0460, 7495.000
467.2340, 7415.000
468.4220, 7475.000
469.6100, 7530.000
470.7970, 7332.000
471.9850, 7429.000
473.1720, 7328.000
474.3590, 7411.000
475.5460, 7299.000
476.7330, 7293.000
477.9200, 7241.000
479.1060, 7297.000
480.2930, 7219.000
481.4790, 7197.000
482.6650, 7287.000
483.8510, 7286.000
485.0370, 7178.000
486.2220, 7218.000
487.4080, 7267.000
488.5930, 7187.000
489.7780, 7187.000
490.9630, 7183.000
492.1480, 7202.000
493.3320, 7258.000
494.5170, 7241.000
495.7010, 7288.000
496.8850, 7253.000
498.0690, 7309.000
499.2530, 7364.000
500.4360, 7347.000
501.6200, 7425.000
502.8030, 7451.000
503.9860, 7481.000
505.1690, 7531.000
506.3520, 7542.000
507.5350, 7676.000
508.7170, 7710.000
509.9000, 7827.000
511.0820, 7878.000
512.2640, 7969.000
513.4460, 8119.000
514.6270, 8112.000
515.8090, 8315.000
516.9900, 8438.000
518.1710, 8638.000
519.3530, 8725.885
520.5330, 8812.000
521.7140, 8875.000
522.8950, 8976.000
524.0750, 9006.000
525.2550, 9131.000
526.4350, 9052.000
527.6150, 9115.000
528.7950, 8952.000
529.9750, 9138.000
531.1540, 8943.000
532.3340, 9046.000
533.5130, 9120.000
534.6920, 9118.000
535.8700, 9019.000
537.0490, 8933.000
538.2280, 8974.000
539.4060, 8937.491
540.5840, 9149.000
541.7620, 8978.000
542.9400, 9074.000
544.1180, 9097.000
545.2950, 9017.000
546.4720, 9122.000
547.6500, 9289.000
548.8270, 9310.000
550.0040, 9336.000
551.1800, 9478.000
552.3570, 9809.000
553.5330, 9813.000
554.7090, 10149.00
555.8850, 10284.00
557.0610, 10756.00
558.2370, 10999.00
559.4130, 11558.00
560.5880, 12259.00
561.7630, 12922.00
562.9380, 13711.00
564.1130, 14775.00
565.2880, 15586.00
566.4630, 16781.00
567.6370, 18069.00
568.8120, 19251.00
569.9860, 20522.00
571.1600, 21756.00
572.3330, 22510.00
573.5070, 22811.00
574.6810, 22861.00
575.8540, 21792.00
577.0270, 20776.00
578.2000, 19274.00
579.3730, 17743.00
580.5460, 16093.00
581.7180, 14716.00
582.8910, 13575.00
584.0630, 12349.00
585.2350, 11605.00
586.4070, 10878.00
587.5780, 10301.00
588.7500, 9815.120
589.9210, 9418.000
591.0930, 9112.000
592.2640, 8884.000
593.4350, 8729.000
594.6050, 8470.000
595.7760, 8336.000
596.9460, 8212.000
598.1170, 8110.167
599.2870, 8086.000
600.4570, 8032.000
601.6260, 8040.000
602.7960, 8063.000
603.9650, 8063.000
605.1350, 8163.000
606.3040, 8108.000
607.4730, 8074.000
608.6420, 8263.000
609.8100, 8414.000
610.9790, 8491.000
612.1470, 8745.000
613.3150, 9028.000
614.4830, 9478.000
615.6510, 9693.000
616.8190, 10191.00
617.9860, 10870.00
619.1540, 11543.00
620.3210, 12413.00
621.4880, 13510.00
622.6550, 14920.00
623.8220, 16146.00
624.9880, 17814.00
626.1550, 19692.00
627.3210, 21130.00
628.4870, 22563.00
629.6530, 23155.00
630.8190, 22689.00
631.9840, 21338.00
633.1500, 19689.00
634.3150, 17485.00
635.4800, 15599.00
636.6450, 14098.00
637.8100, 12586.00
638.9740, 11528.00
640.1390, 10662.00
641.3030, 10003.00
642.4670, 9485.000
643.6310, 9199.000
644.7950, 8813.000
645.9590, 8578.000
647.1220, 8387.000
648.2850, 8240.000
649.4490, 8036.000
650.6120, 7994.000
651.7740, 7708.000
652.9370, 7780.000
654.1000, 7765.000
655.2620, 7547.000
656.4240, 7587.000
657.5860, 7460.000
658.7480, 7513.000
659.9100, 7307.000
661.0710, 7328.000
662.2330, 7386.000
663.3940, 7246.000
664.5550, 7272.000
665.7160, 7263.000
666.8770, 7220.000
668.0370, 7239.000
669.1980, 7170.000
670.3580, 7217.000
671.5180, 7233.000
672.6780, 7231.000
673.8380, 7173.000
674.9970, 7174.000
676.1570, 7183.000
677.3160, 7084.000
678.4750, 7217.000
679.6340, 7285.000
680.7930, 7191.000
681.9520, 7161.000
683.1100, 7105.000
684.2680, 7090.000
685.4270, 7099.000
686.5850, 7161.000
687.7420, 7060.000
688.9000, 7112.000
690.0580, 7092.000
691.2150, 7097.000
692.3720, 7126.000
693.5290, 7111.000
694.6860, 7121.000
695.8430, 7137.000
696.9990, 7123.000
698.1560, 7129.000
699.3120, 7121.000
700.4680, 7126.000
701.6240, 7160.000
702.7800, 7174.000
703.9350, 7179.968
705.0900, 7111.000
706.2460, 7180.000
707.4010, 7167.448
708.5560, 7146.000
709.7110, 7232.000
710.8650, 7246.000
712.0200, 7297.000
713.1740, 7476.000
714.3280, 7333.000
715.4820, 7390.000
716.6360, 7529.000
717.7890, 7491.000
718.9430, 7583.000
720.0960, 7681.000
721.2490, 7659.000
722.4020, 7793.000
723.5550, 7791.000
724.7080, 7886.000
725.8600, 7828.000
727.0130, 8011.000
728.1650, 8145.000
729.3170, 8338.000
730.4690, 8365.000
731.6200, 8404.000
732.7720, 8502.000
733.9230, 8591.000
735.0740, 8672.000
736.2250, 8750.000
737.3760, 8724.000
738.5270, 8562.000
739.6780, 8673.000
740.8280, 8584.000
741.9780, 8402.000
743.1280, 8404.000
744.2780, 8258.000
745.4280, 8157.000
746.5770, 8080.000
747.7270, 8009.000
748.8760, 8016.000
750.0250, 7875.000
751.1740, 7879.000
752.3230, 7772.000
753.4720, 7592.000
754.6200, 7640.000
755.7680, 7555.000
756.9160, 7492.000
758.0640, 7521.000
759.2120, 7456.802
760.3600, 7464.000
761.5070, 7442.000
762.6550, 7404.000
763.8020, 7462.000
764.9490, 7513.000
766.0960, 7435.000
767.2420, 7445.000
768.3890, 7428.328
769.5350, 7412.000
770.6810, 7402.000
771.8270, 7391.000
772.9730, 7405.000
774.1190, 7353.000
775.2640, 7382.000
776.4100, 7311.000
777.5550, 7345.000
778.7000, 7321.000
779.8450, 7289.000
780.9900, 7334.000
782.1340, 7377.000
783.2790, 7336.000
784.4230, 7388.000
785.5670, 7351.000
786.7110, 7322.000
787.8550, 7371.000
788.9980, 7306.000
790.1420, 7399.000
791.2850, 7333.000
792.4280, 7361.000
793.5710, 7421.000
794.7140, 7344.000
795.8560, 7419.000
796.9990, 7445.000
798.1410, 7480.000
799.2830, 7486.666
800.4250, 7447.000
801.5670, 7469.000
802.7090, 7449.000
803.8500, 7439.000
804.9920, 7430.000
806.1330, 7459.000
807.2740, 7521.000
808.4150, 7501.000
809.5550, 7522.000
810.6960, 7622.000
811.8360, 7574.000
812.9760, 7547.000
814.1160, 7636.000
815.2560, 7562.000
816.3960, 7589.000
817.5350, 7679.000
818.6750, 7651.000
819.8140, 7651.000
820.9530, 7649.000
822.0920, 7634.092
823.2310, 7643.286
824.3690, 7628.000
825.5080, 7667.000
826.6460, 7690.000
827.7840, 7732.000
828.9220, 7779.000
830.0600, 7866.000
831.1970, 7781.000
832.3350, 7848.000
833.4720, 7797.000
834.6090, 7922.000
835.7460, 7946.000
836.8830, 7938.000
838.0190, 7855.000
839.1560, 7958.000
840.2920, 7882.000
841.4280, 7988.000
842.5640, 7985.000
843.7000, 7968.000
844.8360, 7943.000
845.9710, 7979.000
847.1070, 7987.000
848.2420, 7989.438
849.3770, 7992.851
850.5120, 7999.000
851.6460, 7992.000
852.7810, 7981.000
853.9150, 8015.184
855.0490, 8109.000
856.1830, 8132.000
857.3170, 8183.000
858.4510, 8240.000
859.5840, 8184.000
860.7180, 8268.000
861.8510, 8219.000
862.9840, 8148.000
864.1170, 8226.000
865.2500, 8288.000
866.3820, 8324.000
867.5150, 8232.000
868.6470, 8166.000
869.7790, 8198.000
870.9110, 8261.000
872.0430, 8338.000
873.1740, 8353.000
874.3060, 8418.000
875.4370, 8381.000
876.5680, 8389.000
877.6990, 8422.898
878.8300, 8461.000
879.9600, 8482.000
881.0910, 8522.000
882.2210, 8570.000
883.3510, 8478.000
884.4810, 8544.000
885.6110, 8581.340
886.7410, 8600.000
887.8700, 8679.000
888.9990, 8752.000
890.1290, 8730.000
891.2580, 8813.000
892.3860, 8858.000
893.5150, 8989.000
894.6440, 9170.000
895.7720, 9113.000
896.9000, 9069.000
898.0280, 9315.000
899.1560, 9374.000
900.2840, 9637.000
901.4110, 9732.000
902.5390, 9798.000
903.6660, 9907.000
904.7930, 10140.00
905.9200, 10399.00
907.0470, 10671.00
908.1730, 10824.00
909.3000, 11285.00
910.4260, 11673.00
911.5520, 12032.00
912.6780, 12638.00
913.8030, 13045.00
914.9290, 13768.00
916.0540, 14709.00
917.1800, 15869.00
918.3050, 16829.00
919.4300, 18532.00
920.5550, 20349.00
921.6790, 22557.00
922.8040, 25622.00
923.9280, 28646.00
925.0520, 32593.00
926.1760, 36717.00
927.3000, 41666.00
928.4230, 46418.00
929.5470, 51129.00
930.6700, 55103.00
931.7930, 58053.00
932.9160, 59478.00
934.0390, 58929.00
935.1620, 56704.00
936.2840, 52669.00
937.4070, 47653.00
938.5290, 42191.00
939.6510, 36369.00
940.7730, 31777.00
941.8940, 27735.00
943.0160, 24579.00
944.1370, 22168.00
945.2580, 20188.00
946.3800, 19076.00
947.5000, 17942.00
948.6210, 16783.00
949.7420, 15984.00
950.8620, 15112.00
951.9820, 14117.00
953.1020, 13362.00
954.2220, 12677.00
955.3420, 11984.00
956.4620, 11593.00
957.5810, 11122.00
958.7000, 10739.00
959.8190, 10586.00
960.9380, 10294.00
962.0570, 10065.00
963.1760, 10029.00
964.2940, 9987.000
965.4120, 9841.000
966.5300, 9687.000
967.6480, 9734.000
968.7660, 9590.000
969.8840, 9547.000
971.0010, 9527.000
972.1190, 9536.000
973.2360, 9539.849
974.3530, 9524.000
975.4690, 9581.000
976.5860, 9577.000
977.7030, 9575.000
978.8190, 9578.000
979.9350, 9815.000
981.0510, 9835.000
982.1670, 9955.000
983.2830, 10011.00
984.3980, 10239.00
985.5130, 10231.00
986.6290, 10799.00
987.7440, 11082.00
988.8590, 11183.00
989.9730, 11817.00
991.0880, 12268.00
992.2020, 12964.00
993.3160, 13715.00
994.4300, 14522.00
995.5440, 15249.00
996.6580, 16258.00
997.7720, 17148.00
998.8850, 18127.00
999.9980, 18883.00
1001.111, 19559.00
1002.224, 20213.00
1003.337, 20697.00
1004.450, 20810.00
1005.562, 20754.00
1006.674, 20296.00
1007.786, 20153.00
1008.898, 19903.00
1010.010, 19346.00
1011.122, 19086.00
1012.233, 18159.00
1013.344, 17432.00
1014.455, 16930.00
1015.566, 16235.00
1016.677, 15419.00
1017.788, 14798.00
1018.898, 14040.00
1020.009, 13305.00
1021.119, 12886.00
1022.229, 12265.00
1023.339, 11837.00
1024.448, 11426.00
1025.558, 11085.00
1026.667, 10813.00
1027.776, 10669.00
1028.885, 10428.00
1029.994, 10384.00
1031.103, 10243.00
1032.211, 10295.00
1033.320, 10148.00
1034.428, 9980.000
1035.536, 10005.00
1036.644, 10036.00
1037.751, 10099.00
1038.859, 10054.82
1039.966, 10060.34
1041.074, 9995.000
1042.181, 9959.000
1043.288, 9972.000
1044.394, 9839.670
1045.501, 9697.000
1046.607, 9524.000
1047.713, 9551.000
1048.820, 9433.000
1049.925, 9436.000
1051.031, 9487.000
1052.137, 9365.000
1053.242, 9399.000
1054.348, 9353.000
1055.453, 9153.000
1056.558, 9282.000
1057.662, 9318.000
1058.767, 9173.000
1059.871, 9321.000
1060.976, 9355.000
1062.080, 9291.000
1063.184, 9204.000
1064.288, 9253.751
1065.391, 9300.000
1066.495, 9331.000
1067.598, 9370.000
1068.701, 9477.000
1069.804, 9439.000
1070.907, 9562.000
1072.010, 9595.000
1073.112, 9697.000
1074.214, 9719.000
1075.317, 9748.000
1076.419, 9903.000
1077.521, 9853.000
1078.622, 10059.00
1079.724, 10253.00
1080.825, 10392.00
1081.926, 10735.00
1083.027, 10894.00
1084.128, 11164.00
1085.229, 11499.00
1086.329, 11487.00
1087.430, 11988.00
1088.530, 11993.00
1089.630, 12058.00
1090.730, 11958.00
1091.830, 11726.00
1092.929, 11671.00
1094.029, 11344.00
1095.128, 11018.00
1096.227, 10701.00
1097.326, 10537.00
1098.425, 10303.03
1099.523, 10134.40
1100.622, 10020.00
1101.720, 9879.000
1102.818, 9835.000
1103.916, 9786.000
1105.014, 9734.000
1106.111, 9613.000
1107.209, 9438.000
1108.306, 9433.000
1109.403, 9421.000
1110.500, 9462.000
1111.597, 9440.000
1112.694, 9366.000
1113.790, 9407.000
1114.887, 9323.000
1115.983, 9373.000
1117.079, 9367.101
1118.174, 9270.000
1119.270, 9401.000
1120.366, 9371.000
1121.461, 9406.000
1122.556, 9412.000
1123.651, 9405.000
1124.746, 9391.000
1125.841, 9335.000
1126.935, 9482.000
1128.030, 9428.000
1129.124, 9519.000
1130.218, 9384.000
1131.312, 9458.000
1132.405, 9529.000
1133.499, 9523.000
1134.592, 9497.000
1135.686, 9485.000
1136.779, 9597.000
1137.871, 9480.000
1138.964, 9410.000
1140.057, 9592.000
1141.149, 9670.000
1142.241, 9662.000
1143.334, 9682.000
1144.425, 9652.000
1145.517, 9665.150
1146.609, 9659.732
1147.700, 9676.000
1148.791, 9640.000
1149.883, 9652.000
1150.974, 9614.000
1152.064, 9557.000
1153.155, 9633.000
1154.245, 9600.000
1155.336, 9573.000
1156.426, 9535.000
1157.516, 9604.000
1158.606, 9663.000
1159.695, 9619.000
1160.785, 9528.000
1161.874, 9548.000
1162.963, 9589.000
1164.052, 9670.000
1165.141, 9561.000
1166.230, 9628.352
1167.318, 9587.000
1168.406, 9616.000
1169.495, 9609.000
1170.583, 9538.000
1171.670, 9672.000
1172.758, 9506.000
1173.846, 9603.000
1174.933, 9743.000
1176.020, 9535.000
1177.107, 9712.000
1178.194, 9632.000
1179.281, 9574.000
1180.367, 9617.000
1181.454, 9591.000
1182.540, 9762.000
1183.626, 9739.000
1184.712, 9678.000
1185.798, 9595.000
1186.883, 9732.000
1187.969, 9809.000
1189.054, 9657.000
1190.139, 9671.000
1191.224, 9649.000
1192.309, 9631.000
1193.393, 9592.000
1194.478, 9615.282
1195.562, 9599.132
1196.646, 9677.000
1197.730, 9646.000
1198.814, 9710.000
1199.897, 9827.000
1200.981, 9655.000
1202.064, 9767.000
1203.147, 9733.000
1204.230, 9766.000
1205.313, 9675.000
1206.396, 9776.000
1207.478, 9592.000
1208.560, 9760.000
1209.642, 9789.000
1210.724, 9776.000
1211.806, 9735.000
1212.888, 9805.000
1213.969, 9677.000
1215.051, 9803.000
1216.132, 9736.000
1217.213, 9597.000
1218.294, 9783.000
1219.374, 9663.000
1220.455, 9694.000
1221.535, 9837.000
1222.616, 9723.000
1223.696, 9817.000
1224.775, 9747.000
1225.855, 9722.000
1226.935, 9734.000
1228.014, 9677.000
1229.093, 9839.000
1230.172, 9750.000
1231.251, 9653.000
1232.330, 9862.000
1233.408, 9858.000
1234.487, 9806.000
1235.565, 9879.000
1236.643, 9850.000
1237.721, 9875.480
1238.799, 9851.000
1239.876, 9923.000
1240.954, 9895.000
1242.031, 9916.000
1243.108, 9942.189
1244.185, 9930.000
1245.262, 9931.000
1246.338, 9949.000
1247.415, 9843.000
1248.491, 9859.000
1249.567, 9823.000
1250.643, 9950.000
1251.719, 9871.000
1252.795, 9959.000
1253.870, 9962.000
1254.945, 10047.00
1256.021, 9921.000
1257.096, 9890.000
1258.170, 9957.000
1259.245, 9955.000
1260.320, 9951.000
1261.394, 9905.000
1262.468, 9984.000
1263.542, 9921.000
1264.616, 10036.00
1265.690, 9882.000
1266.763, 10067.00
1267.836, 10040.00
1268.910, 10057.00
1269.983, 9951.000
1271.055, 9916.000
1272.128, 10006.00
1273.201, 10067.00
1274.273, 10032.00
1275.345, 10109.00
1276.417, 10089.56
1277.489, 9914.000
1278.561, 10043.00
1279.632, 9995.000
1280.704, 9903.000
1281.775, 9989.000
1282.846, 9999.000
1283.917, 9962.000
1284.988, 10039.00
1286.058, 10117.00
1287.129, 10097.00
1288.199, 10062.00
1289.269, 10093.00
1290.339, 10083.00
1291.409, 10045.00
1292.478, 10233.00
1293.548, 10062.00
1294.617, 10105.00
1295.686, 10218.00
1296.755, 10064.00
1297.824, 10163.00
1298.893, 10218.00
1299.961, 9992.000
1301.029, 10221.00
1302.097, 10168.00
1303.165, 10294.00
1304.233, 10171.00
1305.301, 10275.00
1306.368, 10154.00
1307.436, 10216.00
1308.503, 10264.00
1309.570, 10207.00
1310.637, 10305.00
1311.703, 10377.00
1312.770, 10178.00
1313.836, 10272.00
1314.902, 10247.00
1315.968, 10248.00
1317.034, 10222.00
1318.100, 10273.00
1319.165, 10321.00
1320.231, 10266.00
1321.296, 10349.00
1322.361, 10042.00
1323.426, 10411.00
1324.491, 10371.00
1325.555, 10203.00
1326.620, 10345.00
1327.684, 10374.00
1328.748, 10137.00
1329.812, 10205.00
1330.875, 10416.00
1331.939, 10420.00
1333.002, 10325.00
1334.066, 10362.00
1335.129, 10419.00
1336.192, 10335.00
1337.254, 10374.00
1338.317, 10381.00
1339.379, 10343.00
1340.442, 10370.00
1341.504, 10343.00
1342.566, 10408.00
1343.628, 10538.00
1344.689, 10456.00
1345.751, 10450.00
1346.812, 10479.00
1347.873, 10337.00
1348.934, 10386.00
1349.995, 10504.00
1351.055, 10607.00
1352.116, 10422.00
1353.176, 10445.00
1354.236, 10492.00
1355.296, 10504.00
1356.356, 10432.00
1357.416, 10486.00
1358.475, 10458.00
1359.535, 10530.00
1360.594, 10558.00
1361.653, 10448.00
1362.712, 10458.00
1363.770, 10586.00
1364.829, 10486.00
1365.887, 10562.00
1366.945, 10599.00
1368.003, 10541.00
1369.061, 10621.00
1370.119, 10596.00
1371.177, 10652.00
1372.234, 10653.00
1373.291, 10634.00
1374.348, 10666.00
1375.405, 10663.00
1376.462, 10561.00
1377.518, 10581.00
1378.575, 10609.00
1379.631, 10645.00
1380.687, 10765.00
1381.743, 10624.00
1382.799, 10695.00
1383.854, 10871.00
1384.910, 10503.00
1385.965, 10710.00
1387.020, 10679.00
1388.075, 10550.00
1389.130, 10722.00
1390.184, 10683.00
1391.239, 10670.00
1392.293, 10605.00
1393.347, 10728.00
1394.401, 10655.00
1395.455, 10760.00
1396.509, 10779.00
1397.562, 10776.00
1398.615, 10704.00
1399.669, 10699.00
1400.722, 10871.00
1401.774, 10771.00
1402.827, 10896.00
1403.879, 10808.00
1404.932, 10829.00
1405.984, 10784.00
1407.036, 10777.00
1408.088, 10793.00
1409.139, 10821.00
1410.191, 10857.00
1411.242, 10849.00
1412.294, 10846.00
1413.345, 10907.00
1414.395, 10826.00
1415.446, 10885.32
1416.497, 10871.00
1417.547, 10911.00
1418.597, 10923.00
1419.647, 10870.00
1420.697, 10784.00
1421.747, 10794.00
1422.796, 10825.00
1423.846, 10932.00
1424.895, 10959.00
1425.944, 11014.33
1426.993, 11044.00
1428.042, 11069.00
1429.090, 11081.00
1430.139, 11032.00
1431.187, 10994.00
1432.235, 11026.00
1433.283, 10993.20
1434.331, 10998.00
1435.378, 10979.00
1436.426, 11077.00
1437.473, 11059.00
1438.520, 11140.00
1439.567, 11224.00
1440.614, 11050.00
1441.661, 11095.00
1442.707, 11134.00
1443.753, 11137.00
1444.799, 11264.00
1445.845, 11196.00
1446.891, 11258.00
1447.937, 11197.00
1448.982, 11309.00
1450.028, 11300.00
1451.073, 11406.00
1452.118, 11187.00
1453.163, 11355.00
1454.207, 11237.00
1455.252, 11341.00
1456.296, 11231.00
1457.340, 11202.00
1458.384, 11281.00
1459.428, 11318.00
1460.472, 11233.00
1461.515, 11401.00
1462.559, 11289.00
1463.602, 11259.00
1464.645, 11317.00
1465.688, 11219.00
1466.731, 11315.00
1467.773, 11290.00
1468.816, 11453.00
1469.858, 11342.00
1470.900, 11414.00
1471.942, 11395.00
1472.983, 11339.00
1474.025, 11306.00
1475.066, 11325.00
1476.108, 11304.11
1477.149, 11344.67
1478.190, 11338.00
1479.230, 11403.00
1480.271, 11465.00
1481.311, 11424.00
1482.352, 11359.00
1483.392, 11426.00
1484.432, 11392.00
1485.472, 11464.00
1486.511, 11417.00
1487.551, 11484.00
1488.590, 11422.00
1489.629, 11408.00
1490.668, 11298.00
1491.707, 11483.00
1492.745, 11548.00
1493.784, 11266.00
1494.822, 11504.00
1495.860, 11498.00
1496.898, 11409.00
1497.936, 11384.00
1498.974, 11525.00
1500.011, 11548.00
1501.049, 11179.00
1502.086, 11365.00
1503.123, 11368.00
1504.160, 11274.00
1505.196, 11637.00
1506.233, 11454.00
1507.269, 11387.00
1508.305, 11350.00
1509.341, 11474.00
1510.377, 11361.00
1511.413, 11520.00
1512.449, 11485.00
1513.484, 11531.00
1514.519, 11458.00
1515.554, 11625.00
1516.589, 11479.00
1517.624, 11478.00
1518.658, 11458.00
1519.693, 11622.00
1520.727, 11515.00
1521.761, 11696.00
1522.795, 11616.00
1523.829, 11445.00
1524.862, 11528.00
1525.896, 11588.00
1526.929, 11581.00
1527.962, 11499.00
1528.995, 11526.00
1530.028, 11547.00
1531.060, 11495.00
1532.093, 11682.00
1533.125, 11729.00
1534.157, 11716.00
1535.189, 11600.00
1536.221, 11669.00
1537.253, 11611.00
1538.284, 11652.00
1539.316, 11727.00
1540.347, 11669.00
1541.378, 11726.00
1542.408, 11761.00
1543.439, 11669.00
1544.470, 11710.00
1545.500, 11677.00
1546.530, 11680.86
1547.560, 11598.00
1548.590, 11731.00
1549.620, 11671.00
1550.649, 11728.00
1551.679, 11829.00
1552.708, 11721.00
1553.737, 11820.00
1554.766, 11763.00
1555.794, 11732.00
1556.823, 11688.00
1557.851, 11763.00
1558.879, 11743.00
1559.907, 11799.00
1560.935, 11796.00
1561.963, 11857.00
##END=



