##NAMES=Catapleiite
##RRUFFID=R060198
##IDEAL CHEMISTRY=Na_2_Zr^4+^Si_3_O_9_&#183;2H_2_O
##LOCALITY=Mont Saint-Hilaire, Rouville County, Quebec, Canada
##OWNER=RRUFF
##SOURCE=Royal Ontario Museum
##DESCRIPTION=Tan colored pseudohexagonal tabular crystals
##STATUS=The identification of this mineral has been confirmed by X-ray diffraction and chemical analysis
##URL=rruff.info/R060198
##MEASURED CHEMISTRY=(Na_1.92_Ca_0.04_[box]_0.04_)_Σ=2_Zr_1.00_Si_3.00_O_9_·2H_2_O
##PIN_ID=L00848
##ORIENTATION=Laser parallel to (1 0 1). Fiducial mark perpendicular to laser is parallel to b [0 1 0]
95.94800, 9288.000
97.18200, 9240.000
98.41600, 9361.000
99.64900, 9222.000
100.8830, 9182.000
102.1160, 9191.000
103.3490, 9335.198
104.5820, 9609.000
105.8150, 9887.000
107.0470, 10306.00
108.2800, 10844.00
109.5120, 10810.00
110.7440, 10010.00
111.9760, 10006.00
113.2080, 10050.00
114.4400, 10193.00
115.6710, 10394.00
116.9030, 10319.00
118.1340, 10150.00
119.3650, 10016.00
120.5960, 10163.00
121.8270, 10095.00
123.0580, 10258.00
124.2880, 10250.00
125.5190, 10060.00
126.7490, 10307.00
127.9790, 10258.00
129.2090, 10471.00
130.4390, 10439.00
131.6680, 10490.00
132.8980, 10503.00
134.1270, 10628.00
135.3560, 10847.00
136.5850, 10855.00
137.8140, 11041.00
139.0430, 11134.00
140.2710, 11196.00
141.5000, 11277.00
142.7280, 11410.00
143.9560, 11488.00
145.1840, 11637.61
146.4120, 11773.36
147.6390, 11932.00
148.8670, 12084.00
150.0940, 12225.00
151.3210, 12397.00
152.5490, 12391.00
153.7750, 12385.00
155.0020, 12461.00
156.2290, 12407.00
157.4550, 12444.00
158.6810, 12230.00
159.9080, 12267.00
161.1340, 12097.00
162.3590, 11976.00
163.5850, 11771.00
164.8110, 11623.00
166.0360, 11553.00
167.2610, 11158.00
168.4860, 11045.00
169.7110, 10757.00
170.9360, 10624.00
172.1610, 10504.00
173.3850, 10262.00
174.6100, 10226.00
175.8340, 10090.00
177.0580, 10105.00
178.2820, 9958.000
179.5050, 9950.000
180.7290, 9738.000
181.9520, 9876.000
183.1760, 9859.000
184.3990, 9944.000
185.6220, 9992.000
186.8450, 10176.00
188.0670, 10180.00
189.2900, 10246.00
190.5120, 10533.00
191.7340, 10580.00
192.9560, 10694.00
194.1780, 11049.00
195.4000, 11168.00
196.6220, 11378.00
197.8430, 11541.00
199.0640, 11723.00
200.2860, 11960.00
201.5070, 12218.00
202.7270, 12285.00
203.9480, 12339.00
205.1690, 12058.00
206.3890, 11862.00
207.6090, 11922.00
208.8290, 11689.00
210.0490, 11594.00
211.2690, 11529.00
212.4890, 11136.00
213.7080, 10905.00
214.9280, 10621.00
216.1470, 10307.22
217.3660, 9996.985
218.5850, 9794.000
219.8030, 9364.000
221.0220, 9238.000
222.2400, 9050.000
223.4590, 8657.000
224.6770, 8604.000
225.8950, 8502.000
227.1120, 8373.000
228.3300, 8270.000
229.5480, 8154.038
230.7650, 7987.000
231.9820, 7940.000
233.1990, 7891.000
234.4160, 7818.000
235.6330, 7879.000
236.8490, 7780.000
238.0660, 7789.000
239.2820, 7736.000
240.4980, 7657.000
241.7140, 7672.000
242.9300, 7650.000
244.1460, 7530.000
245.3610, 7570.000
246.5770, 7435.000
247.7920, 7514.000
249.0070, 7470.000
250.2220, 7603.000
251.4370, 7489.000
252.6510, 7458.000
253.8660, 7434.000
255.0800, 7571.000
256.2940, 7521.000
257.5080, 7678.000
258.7220, 7675.130
259.9360, 7639.134
261.1490, 7640.000
262.3630, 7600.000
263.5760, 7586.125
264.7890, 7531.000
266.0020, 7548.000
267.2150, 7472.000
268.4270, 7446.000
269.6400, 7495.000
270.8520, 7483.000
272.0640, 7462.000
273.2760, 7538.000
274.4880, 7630.000
275.7000, 7625.000
276.9120, 7613.000
278.1230, 7731.000
279.3340, 7792.000
280.5450, 7780.000
281.7560, 8030.000
282.9670, 7979.000
284.1780, 8158.000
285.3880, 8320.000
286.5980, 8350.000
287.8090, 8577.000
289.0190, 8570.000
290.2290, 8823.000
291.4380, 8872.000
292.6480, 8793.000
293.8570, 8931.000
295.0670, 8939.000
296.2760, 8854.000
297.4850, 8931.000
298.6930, 8871.000
299.9020, 8794.000
301.1110, 8689.000
302.3190, 8569.000
303.5270, 8627.000
304.7350, 8525.000
305.9430, 8511.000
307.1510, 8523.000
308.3580, 8462.000
309.5660, 8475.000
310.7730, 8504.000
311.9800, 8384.000
313.1870, 8330.000
314.3940, 8306.000
315.6010, 8282.000
316.8070, 8274.000
318.0130, 8267.000
319.2200, 8205.000
320.4260, 8200.850
321.6310, 8252.000
322.8370, 8203.000
324.0430, 8231.000
325.2480, 8343.000
326.4540, 8335.000
327.6590, 8341.000
328.8640, 8179.000
330.0680, 8222.000
331.2730, 8214.000
332.4780, 8243.000
333.6820, 8027.000
334.8860, 8095.000
336.0900, 7993.000
337.2940, 8109.000
338.4980, 7980.000
339.7010, 7970.000
340.9050, 8059.000
342.1080, 7920.000
343.3110, 7900.000
344.5140, 8061.000
345.7170, 8058.000
346.9200, 8076.000
348.1220, 8043.000
349.3240, 8075.000
350.5270, 8089.000
351.7290, 8261.000
352.9310, 8304.000
354.1320, 8361.000
355.3340, 8406.000
356.5350, 8582.000
357.7370, 8653.000
358.9380, 8801.000
360.1390, 8882.000
361.3400, 8884.000
362.5400, 8869.000
363.7410, 8859.000
364.9410, 8927.000
366.1410, 8939.000
367.3410, 8984.000
368.5410, 8890.000
369.7410, 8848.000
370.9400, 8789.000
372.1400, 8799.000
373.3390, 8764.790
374.5380, 8768.000
375.7370, 8751.000
376.9360, 8727.492
378.1350, 8738.000
379.3330, 8699.000
380.5310, 8678.000
381.7300, 8644.000
382.9280, 8623.000
384.1260, 8545.000
385.3230, 8568.761
386.5210, 8678.000
387.7180, 8582.000
388.9160, 8610.000
390.1130, 8592.000
391.3100, 8780.000
392.5060, 8716.000
393.7030, 8736.000
394.9000, 8919.000
396.0960, 8830.000
397.2920, 8825.000
398.4880, 8886.000
399.6840, 8949.000
400.8800, 9014.109
402.0750, 9151.000
403.2710, 9257.000
404.4660, 9380.000
405.6610, 9646.000
406.8560, 9876.000
408.0510, 10208.00
409.2450, 10600.00
410.4400, 10944.00
411.6340, 11316.00
412.8280, 11912.00
414.0220, 12552.00
415.2160, 13376.00
416.4100, 14199.00
417.6030, 15341.00
418.7970, 16230.00
419.9900, 17572.00
421.1830, 18870.00
422.3760, 20064.00
423.5690, 21253.00
424.7610, 21937.00
425.9540, 22293.00
427.1460, 22480.00
428.3380, 22010.00
429.5300, 21341.00
430.7220, 20283.00
431.9140, 19114.00
433.1050, 17982.00
434.2970, 16864.00
435.4880, 15807.00
436.6790, 14929.00
437.8700, 14121.00
439.0610, 13363.00
440.2510, 12902.00
441.4420, 12349.00
442.6320, 11942.00
443.8220, 11515.00
445.0120, 11093.00
446.2020, 11040.00
447.3910, 10705.00
448.5810, 10431.00
449.7700, 10351.00
450.9600, 10161.00
452.1490, 10002.00
453.3370, 9975.000
454.5260, 9802.000
455.7150, 9714.433
456.9030, 9674.420
458.0910, 9506.000
459.2800, 9552.000
460.4670, 9465.000
461.6550, 9310.000
462.8430, 9374.000
464.0300, 9243.000
465.2180, 9194.000
466.4050, 9190.000
467.5920, 9184.000
468.7790, 9148.000
469.9650, 9112.000
471.1520, 9271.000
472.3380, 9278.000
473.5250, 9022.000
474.7110, 8955.000
475.8970, 9101.000
477.0820, 9112.000
478.2680, 9093.000
479.4540, 9117.000
480.6390, 9061.000
481.8240, 9014.000
483.0090, 9055.000
484.1940, 9092.000
485.3780, 9093.000
486.5630, 9113.000
487.7470, 9187.000
488.9320, 9173.595
490.1160, 9112.000
491.3000, 9186.000
492.4830, 9188.000
493.6670, 9183.000
494.8500, 9268.000
496.0340, 9170.000
497.2170, 9368.000
498.4000, 9342.000
499.5820, 9327.000
500.7650, 9427.000
501.9480, 9411.000
503.1300, 9526.000
504.3120, 9620.000
505.4940, 9690.367
506.6760, 9762.000
507.8580, 9921.000
509.0390, 10054.00
510.2210, 10235.00
511.4020, 10369.00
512.5830, 10532.78
513.7640, 10647.00
514.9450, 10822.00
516.1250, 11020.00
517.3060, 11101.00
518.4860, 11252.00
519.6660, 11331.00
520.8460, 11356.00
522.0260, 11385.00
523.2060, 11489.00
524.3850, 11451.00
525.5650, 11452.00
526.7440, 11483.00
527.9230, 11332.00
529.1020, 11491.00
530.2810, 11421.00
531.4590, 11290.00
532.6380, 11244.00
533.8160, 11202.00
534.9940, 11046.00
536.1720, 11183.00
537.3500, 11088.00
538.5270, 11212.00
539.7050, 11010.00
540.8820, 11144.00
542.0590, 11081.00
543.2360, 11303.00
544.4130, 11315.00
545.5900, 11444.00
546.7660, 11450.00
547.9430, 11700.00
549.1190, 11892.00
550.2950, 12017.00
551.4710, 12315.00
552.6470, 12605.00
553.8220, 13126.84
554.9980, 13816.00
556.1730, 14441.00
557.3480, 15299.00
558.5230, 16201.00
559.6980, 17074.00
560.8730, 18185.00
562.0470, 19301.00
563.2220, 20402.00
564.3960, 21700.00
565.5700, 22707.00
566.7440, 23512.00
567.9170, 24190.00
569.0910, 24469.00
570.2640, 24443.12
571.4380, 24124.00
572.6110, 23488.00
573.7840, 22482.00
574.9570, 21206.00
576.1290, 19505.00
577.3020, 18268.00
578.4740, 17096.00
579.6460, 15732.00
580.8180, 14682.00
581.9900, 13892.00
583.1620, 12996.00
584.3330, 12470.00
585.5040, 11947.00
586.6760, 11496.00
587.8470, 11281.00
589.0180, 10841.00
590.1880, 10778.00
591.3590, 10551.00
592.5290, 10406.00
593.7000, 10373.00
594.8700, 10300.00
596.0400, 10132.00
597.2090, 9998.000
598.3790, 10048.00
599.5490, 9962.000
600.7180, 10082.00
601.8870, 10076.00
603.0560, 10225.00
604.2250, 10216.00
605.3940, 10272.00
606.5620, 10367.00
607.7300, 10423.00
608.8990, 10636.00
610.0670, 10875.84
611.2350, 11145.00
612.4020, 11541.00
613.5700, 12004.00
614.7370, 12454.00
615.9050, 13239.00
617.0720, 14034.00
618.2390, 15147.00
619.4060, 16434.00
620.5720, 17787.00
621.7390, 19352.00
622.9050, 21322.00
624.0710, 22856.00
625.2370, 24150.00
626.4030, 24755.00
627.5690, 24863.00
628.7340, 24065.00
629.9000, 22804.00
631.0650, 21165.00
632.2300, 19523.00
633.3950, 17926.00
634.5600, 16350.00
635.7240, 14875.00
636.8890, 13985.00
638.0530, 12978.00
639.2170, 12401.00
640.3810, 11834.00
641.5450, 11476.00
642.7080, 11011.00
643.8720, 10601.00
645.0350, 10500.00
646.1980, 10307.00
647.3610, 10082.00
648.5240, 10003.00
649.6870, 9696.000
650.8490, 9772.000
652.0120, 9645.000
653.1740, 9754.000
654.3360, 9523.000
655.4980, 9586.000
656.6600, 9614.000
657.8210, 9458.000
658.9830, 9453.000
660.1440, 9353.000
661.3050, 9394.000
662.4660, 9404.000
663.6270, 9339.000
664.7870, 9475.000
665.9480, 9452.000
667.1080, 9400.000
668.2680, 9304.000
669.4280, 9412.000
670.5880, 9343.000
671.7480, 9383.000
672.9070, 9300.000
674.0670, 9398.000
675.2260, 9364.000
676.3850, 9349.000
677.5440, 9279.000
678.7030, 9318.000
679.8610, 9337.000
681.0200, 9359.000
682.1780, 9495.000
683.3360, 9428.000
684.4940, 9473.000
685.6520, 9351.000
686.8090, 9334.000
687.9670, 9308.000
689.1240, 9393.000
690.2810, 9489.000
691.4380, 9456.000
692.5950, 9392.000
693.7520, 9493.000
694.9080, 9368.000
696.0650, 9413.000
697.2210, 9457.000
698.3770, 9542.000
699.5330, 9373.000
700.6880, 9387.000
701.8440, 9419.000
702.9990, 9496.000
704.1550, 9461.000
705.3100, 9558.000
706.4650, 9494.000
707.6190, 9525.000
708.7740, 9453.000
709.9290, 9605.000
711.0830, 9620.000
712.2370, 9647.000
713.3910, 9632.000
714.5450, 9795.000
715.6980, 9872.000
716.8520, 9869.000
718.0050, 9906.000
719.1580, 10048.00
720.3110, 10057.00
721.4640, 10175.00
722.6170, 10247.00
723.7700, 10153.00
724.9220, 10387.00
726.0740, 10374.00
727.2260, 10400.00
728.3780, 10608.00
729.5300, 10593.00
730.6810, 10818.00
731.8330, 10752.00
732.9840, 10901.00
734.1350, 10882.00
735.2860, 10889.00
736.4370, 10868.00
737.5880, 10730.00
738.7380, 10663.00
739.8880, 10644.00
741.0390, 10495.04
742.1890, 10478.00
743.3380, 10261.00
744.4880, 10217.00
745.6380, 10110.00
746.7870, 10158.00
747.9360, 10042.00
749.0850, 10040.00
750.2340, 9889.000
751.3830, 10042.00
752.5310, 9859.000
753.6800, 9854.000
754.8280, 9709.000
755.9760, 9798.000
757.1240, 9785.000
758.2720, 9740.000
759.4190, 9788.000
760.5670, 9728.000
761.7140, 9786.000
762.8610, 9770.000
764.0080, 9669.000
765.1550, 9718.000
766.3020, 9733.000
767.4480, 9651.000
768.5950, 9712.000
769.7410, 9807.000
770.8870, 9685.000
772.0330, 9690.000
773.1780, 9801.000
774.3240, 9690.000
775.4690, 9714.000
776.6140, 9759.000
777.7590, 9721.000
778.9040, 9734.000
780.0490, 9794.000
781.1940, 9681.000
782.3380, 9706.000
783.4820, 9617.000
784.6260, 9776.000
785.7700, 9731.000
786.9140, 9736.000
788.0580, 9814.000
789.2010, 9843.000
790.3450, 9840.020
791.4880, 9821.000
792.6310, 9842.000
793.7730, 9772.000
794.9160, 9802.000
796.0590, 9895.000
797.2010, 9808.000
798.3430, 9866.000
799.4850, 9943.000
800.6270, 9843.000
801.7690, 9750.000
802.9100, 9954.000
804.0520, 9939.000
805.1930, 9995.000
806.3340, 10043.00
807.4750, 10062.00
808.6160, 10083.91
809.7560, 10092.00
810.8970, 10090.00
812.0370, 10074.00
813.1770, 10066.00
814.3170, 10128.00
815.4570, 10126.00
816.5960, 10170.00
817.7360, 10235.00
818.8750, 10133.00
820.0140, 10188.00
821.1530, 10160.00
822.2920, 10116.00
823.4310, 10286.00
824.5690, 10279.00
825.7070, 10333.00
826.8460, 10444.00
827.9840, 10521.00
829.1220, 10568.00
830.2590, 10634.00
831.3970, 10803.00
832.5340, 10799.00
833.6710, 10858.00
834.8080, 10917.00
835.9450, 10899.06
837.0820, 10847.00
838.2190, 10857.00
839.3550, 10809.00
840.4910, 10723.00
841.6270, 10722.00
842.7630, 10737.00
843.8990, 10805.00
845.0350, 10650.00
846.1700, 10825.00
847.3060, 10727.00
848.4410, 10883.00
849.5760, 10772.00
850.7100, 10823.00
851.8450, 10803.00
852.9800, 10751.00
854.1140, 10885.00
855.2480, 10930.00
856.3820, 10878.00
857.5160, 10895.00
858.6500, 10772.00
859.7830, 10935.00
860.9170, 10799.00
862.0500, 10758.00
863.1830, 10799.00
864.3160, 10937.00
865.4480, 10937.00
866.5810, 11012.00
867.7130, 10860.00
868.8460, 10919.00
869.9780, 10907.00
871.1100, 11018.00
872.2410, 11090.00
873.3730, 11095.00
874.5050, 11006.00
875.6360, 11008.00
876.7670, 11082.00
877.8980, 11115.00
879.0290, 10979.00
880.1590, 11103.00
881.2900, 11128.00
882.4200, 11273.00
883.5500, 11309.09
884.6800, 11367.28
885.8100, 11414.00
886.9400, 11408.00
888.0690, 11471.00
889.1990, 11379.00
890.3280, 11539.00
891.4570, 11764.00
892.5860, 11549.00
893.7140, 11699.00
894.8430, 11707.00
895.9710, 11968.00
897.1000, 11911.00
898.2280, 12207.00
899.3560, 12322.00
900.4830, 12545.00
901.6110, 12797.00
902.7380, 13048.00
903.8660, 13330.00
904.9930, 13878.00
906.1200, 14365.00
907.2460, 14828.00
908.3730, 15537.00
909.5000, 16091.00
910.6260, 16705.00
911.7520, 17199.00
912.8780, 17756.00
914.0040, 18290.00
915.1290, 19070.00
916.2550, 20230.00
917.3800, 21766.00
918.5050, 23291.00
919.6300, 25430.00
920.7550, 27744.00
921.8800, 30674.00
923.0040, 33993.00
924.1290, 37487.00
925.2530, 41286.00
926.3770, 45676.00
927.5010, 49018.00
928.6250, 52452.00
929.7480, 54451.00
930.8720, 55587.00
931.9950, 55341.00
933.1180, 53611.00
934.2410, 50999.00
935.3640, 47928.00
936.4860, 44180.00
937.6090, 40243.00
938.7310, 36988.00
939.8530, 33575.00
940.9750, 31081.00
942.0970, 28695.00
943.2180, 27007.00
944.3400, 25526.00
945.4610, 24485.00
946.5820, 23415.00
947.7030, 22108.00
948.8240, 20825.00
949.9450, 19668.00
951.0650, 18551.00
952.1860, 17232.00
953.3060, 16498.00
954.4260, 15743.00
955.5460, 15308.00
956.6650, 14867.00
957.7850, 14475.00
958.9040, 14284.00
960.0230, 14091.00
961.1420, 13987.00
962.2610, 13639.00
963.3800, 13638.00
964.4990, 13532.00
965.6170, 13650.00
966.7350, 13512.00
967.8530, 13399.00
968.9710, 13455.00
970.0890, 13365.00
971.2070, 13371.00
972.3240, 13586.00
973.4410, 13605.00
974.5580, 13826.00
975.6750, 13950.00
976.7920, 14193.00
977.9090, 14455.00
979.0250, 14727.00
980.1410, 14923.00
981.2580, 15254.00
982.3740, 15579.00
983.4890, 16165.00
984.6050, 16617.00
985.7200, 17307.00
986.8360, 18185.14
987.9510, 19260.00
989.0660, 20442.00
990.1810, 21934.00
991.2950, 23761.00
992.4100, 25694.00
993.5240, 27928.00
994.6390, 30458.00
995.7530, 32785.00
996.8660, 35195.00
997.9800, 37853.00
999.0940, 40110.00
1000.207, 41947.00
1001.320, 43527.00
1002.433, 44431.00
1003.546, 44551.00
1004.659, 44918.00
1005.772, 44209.00
1006.884, 43066.00
1007.996, 41999.00
1009.108, 40251.00
1010.220, 38761.00
1011.332, 36844.00
1012.444, 35055.00
1013.555, 33168.00
1014.666, 31506.00
1015.777, 29671.64
1016.888, 27715.00
1017.999, 26233.00
1019.110, 24585.00
1020.220, 23124.00
1021.331, 21946.00
1022.441, 20858.00
1023.551, 19951.00
1024.661, 19162.00
1025.770, 18376.00
1026.880, 17953.00
1027.989, 17309.00
1029.098, 16899.00
1030.207, 16683.00
1031.316, 16392.00
1032.425, 16172.00
1033.533, 16030.00
1034.642, 16042.00
1035.750, 15644.00
1036.858, 15769.00
1037.966, 15799.00
1039.073, 15604.00
1040.181, 15412.00
1041.288, 15330.00
1042.396, 15086.00
1043.503, 14978.91
1044.610, 14761.00
1045.716, 14702.00
1046.823, 14598.00
1047.929, 14441.00
1049.036, 14247.00
1050.142, 14084.00
1051.248, 13981.74
1052.353, 14045.00
1053.459, 13804.00
1054.564, 13933.00
1055.670, 13874.00
1056.775, 13874.00
1057.880, 13743.00
1058.985, 13660.00
1060.089, 13705.00
1061.194, 13661.00
1062.298, 13666.84
1063.402, 13792.00
1064.506, 13693.00
1065.610, 13708.00
1066.713, 13732.00
1067.817, 13667.00
1068.920, 13792.00
1070.023, 13863.00
1071.126, 13910.00
1072.229, 13877.00
1073.332, 13881.00
1074.435, 14085.00
1075.537, 14234.00
1076.639, 14466.00
1077.741, 14684.14
1078.843, 14909.00
1079.945, 15184.00
1081.046, 15559.00
1082.148, 15866.00
1083.249, 16287.00
1084.350, 16398.00
1085.451, 16712.00
1086.551, 16753.00
1087.652, 17113.00
1088.752, 16981.00
1089.853, 16826.00
1090.953, 16418.00
1092.053, 16182.00
1093.152, 15887.00
1094.252, 15589.00
1095.351, 15399.00
1096.451, 15081.00
1097.550, 14723.00
1098.649, 14522.00
1099.748, 14382.00
1100.846, 14055.00
1101.945, 14005.00
1103.043, 13865.00
1104.141, 13787.00
1105.239, 13760.00
1106.337, 13608.00
1107.434, 13385.00
1108.532, 13653.00
1109.629, 13369.00
1110.726, 13313.00
1111.823, 13421.00
1112.920, 13354.00
1114.017, 13395.00
1115.113, 13495.00
1116.210, 13514.00
1117.306, 13757.00
1118.402, 14018.00
1119.498, 14291.00
1120.593, 14424.00
1121.689, 14511.08
1122.784, 14587.00
1123.879, 14463.00
1124.974, 14306.00
1126.069, 14097.00
1127.164, 13867.00
1128.259, 13615.00
1129.353, 13584.00
1130.447, 13564.00
1131.541, 13596.00
1132.635, 13444.00
1133.729, 13365.00
1134.822, 13483.00
1135.916, 13472.00
1137.009, 13550.00
1138.102, 13532.00
1139.195, 13461.00
1140.288, 13510.00
1141.380, 13564.00
1142.473, 13529.00
1143.565, 13576.00
1144.657, 13514.00
1145.749, 13548.78
1146.841, 13651.00
1147.932, 13565.00
1149.024, 13536.00
1150.115, 13488.00
1151.206, 13561.00
1152.297, 13533.00
1153.388, 13533.67
1154.479, 13494.00
1155.569, 13489.00
1156.659, 13571.00
1157.750, 13484.00
1158.839, 13539.00
1159.929, 13641.00
1161.019, 13468.00
1162.108, 13523.00
1163.198, 13603.00
1164.287, 13596.00
1165.376, 13610.00
1166.465, 13666.00
1167.553, 13498.00
1168.642, 13463.00
1169.730, 13354.00
1170.818, 13624.00
1171.906, 13494.00
1172.994, 13655.00
1174.082, 13549.00
1175.170, 13597.00
1176.257, 13437.00
1177.344, 13551.00
1178.431, 13542.00
1179.518, 13529.00
1180.605, 13449.00
1181.691, 13540.00
1182.778, 13464.00
1183.864, 13631.00
1184.950, 13655.00
1186.036, 13507.00
1187.122, 13488.00
1188.207, 13499.00
1189.292, 13507.00
1190.378, 13495.30
1191.463, 13607.00
1192.548, 13477.00
1193.632, 13578.00
1194.717, 13563.00
1195.801, 13497.00
1196.886, 13517.00
1197.970, 13350.00
1199.054, 13450.00
1200.137, 13655.00
1201.221, 13386.00
1202.305, 13577.00
1203.388, 13558.00
1204.471, 13621.00
1205.554, 13526.00
1206.637, 13598.00
1207.719, 13608.61
1208.802, 13469.00
1209.884, 13656.00
1210.966, 13543.00
1212.048, 13514.00
1213.130, 13625.00
1214.212, 13526.00
1215.293, 13582.49
1216.374, 13683.00
1217.456, 13646.00
1218.536, 13661.00
1219.617, 13749.00
1220.698, 13558.00
1221.778, 13746.00
1222.859, 13733.00
1223.939, 13626.00
1225.019, 13564.00
1226.099, 13708.00
1227.178, 13669.00
1228.258, 13638.00
1229.337, 13664.00
1230.417, 13603.00
1231.496, 13680.00
1232.574, 13704.00
1233.653, 13788.00
1234.732, 13833.00
1235.810, 13890.00
1236.888, 13942.00
1237.966, 13802.00
1239.044, 13812.00
1240.122, 13843.57
1241.199, 13808.00
1242.277, 13936.00
1243.354, 13930.00
1244.431, 13978.00
1245.508, 13829.00
1246.585, 13861.00
1247.661, 13838.00
1248.738, 13857.00
1249.814, 13883.00
1250.890, 13867.32
1251.966, 13972.00
1253.042, 13914.00
1254.117, 13897.00
1255.193, 14034.00
1256.268, 13918.00
1257.343, 13889.00
1258.418, 13881.00
1259.493, 13927.00
1260.567, 14006.00
1261.642, 13983.00
1262.716, 14096.00
1263.790, 14032.00
1264.864, 14118.00
1265.938, 14094.00
1267.011, 13955.00
1268.085, 13990.00
1269.158, 14035.00
1270.231, 14089.00
1271.304, 13997.00
1272.377, 14080.00
1273.450, 14100.00
1274.522, 14053.00
1275.594, 14102.00
1276.666, 14136.00
1277.738, 14109.00
1278.810, 14190.00
1279.882, 14025.00
1280.953, 14196.00
1282.025, 14236.00
1283.096, 14157.00
1284.167, 14254.00
1285.238, 14332.00
1286.308, 14115.00
1287.379, 14215.00
1288.449, 14173.00
1289.519, 14126.00
1290.589, 14174.00
1291.659, 14206.00
1292.729, 14308.00
1293.798, 14411.00
1294.868, 14411.00
1295.937, 14390.00
1297.006, 14420.00
1298.075, 14323.00
1299.143, 14314.00
1300.212, 14342.00
1301.280, 14379.00
1302.348, 14342.00
1303.416, 14308.00
1304.484, 14249.00
1305.552, 14418.00
1306.620, 14351.00
1307.687, 14383.00
1308.754, 14330.00
1309.821, 14442.00
1310.888, 14224.00
1311.955, 14510.00
1313.021, 14314.00
1314.088, 14371.00
1315.154, 14531.00
1316.220, 14356.00
1317.286, 14411.00
1318.352, 14509.00
1319.417, 14445.00
1320.483, 14555.00
1321.548, 14581.00
1322.613, 14525.00
1323.678, 14557.08
1324.743, 14508.00
1325.807, 14529.00
1326.872, 14551.00
1327.936, 14590.00
1329.000, 14567.00
1330.064, 14583.81
1331.128, 14562.00
1332.191, 14586.00
1333.255, 14656.00
1334.318, 14682.00
1335.381, 14752.00
1336.444, 14633.00
1337.507, 14742.00
1338.569, 14709.00
1339.632, 14903.00
1340.694, 14742.00
1341.756, 14917.00
1342.818, 14846.00
1343.880, 14909.00
1344.941, 14964.00
1346.003, 14902.00
1347.064, 14949.00
1348.125, 15029.00
1349.186, 15201.00
1350.247, 15143.00
1351.308, 15201.00
1352.368, 15153.00
1353.428, 15291.00
1354.489, 15288.00
1355.549, 15491.00
1356.608, 15529.00
1357.668, 15601.00
1358.727, 15649.00
1359.787, 15972.00
1360.846, 16041.00
1361.905, 15942.00
1362.964, 15717.00
1364.022, 15869.00
1365.081, 15586.00
1366.139, 15499.00
1367.197, 15372.00
1368.255, 15393.00
1369.313, 15299.00
1370.371, 15183.00
1371.428, 15088.00
1372.486, 15114.00
1373.543, 15009.00
1374.600, 15039.00
1375.657, 15166.00
1376.713, 15181.00
1377.770, 15135.00
1378.826, 15088.00
1379.882, 15213.00
1380.938, 15141.00
1381.994, 15142.00
1383.050, 15239.00
1384.106, 15212.00
1385.161, 15092.00
1386.216, 15224.00
1387.271, 15097.00
1388.326, 15309.00
1389.381, 15344.00
1390.435, 15293.00
1391.490, 15576.00
1392.544, 15698.00
1393.598, 15863.00
1394.652, 15850.00
1395.705, 15879.00
1396.759, 15934.00
1397.812, 15728.00
1398.866, 15674.00
1399.919, 15490.00
1400.972, 15412.00
1402.024, 15420.00
1403.077, 15527.00
1404.129, 15339.00
1405.181, 15208.00
1406.233, 15215.00
1407.285, 15544.00
1408.337, 15138.00
1409.389, 15270.00
1410.440, 15082.00
1411.491, 15024.00
1412.542, 15165.00
1413.593, 15065.00
1414.644, 15188.00
1415.695, 15299.00
1416.745, 15125.00
1417.795, 15096.00
1418.845, 15176.00
1419.895, 15285.00
1420.945, 15289.00
1421.995, 15411.00
1423.044, 15189.00
1424.093, 15544.00
1425.142, 15348.00
1426.191, 15472.00
1427.240, 15408.00
1428.289, 15492.00
1429.337, 15578.89
1430.385, 15495.60
1431.433, 15703.00
1432.481, 15485.00
1433.529, 15366.00
1434.577, 15564.00
1435.624, 15607.00
1436.672, 15315.00
1437.719, 15541.00
1438.766, 15604.00
1439.812, 15592.00
1440.859, 15664.00
1441.905, 15745.00
1442.952, 15790.00
1443.998, 15871.00
1445.044, 15827.00
1446.090, 15854.00
1447.135, 15771.00
1448.181, 15797.00
1449.226, 15816.00
1450.271, 15714.00
1451.316, 15731.00
1452.361, 15778.00
1453.405, 15729.00
1454.450, 15817.00
1455.494, 15810.00
1456.538, 15923.00
1457.582, 16023.00
1458.626, 15902.00
1459.670, 15911.00
1460.713, 15990.00
1461.757, 15943.00
1462.800, 16027.00
1463.843, 15937.00
1464.886, 15904.00
1465.928, 15981.00
1466.971, 15937.00
1468.013, 15950.00
1469.055, 16009.00
1470.097, 16149.00
1471.139, 16075.00
1472.181, 16112.00
1473.222, 15998.00
1474.263, 16045.00
1475.305, 16157.00
1476.346, 16060.00
1477.386, 16077.00
1478.427, 15981.00
1479.468, 16160.00
1480.508, 15916.00
1481.548, 15789.00
1482.588, 16200.00
1483.628, 15946.00
1484.668, 15954.00
1485.707, 16162.00
1486.747, 16041.00
1487.786, 16175.00
1488.825, 16180.00
1489.864, 16018.00
1490.902, 16119.00
1491.941, 16204.00
1492.979, 16187.00
1494.017, 16251.00
1495.055, 16071.00
1496.093, 16044.00
1497.131, 16062.00
1498.168, 16015.06
1499.206, 16092.42
1500.243, 16097.00
1501.280, 16192.00
1502.317, 16337.00
1503.354, 16281.00
1504.390, 16295.00
1505.426, 16316.00
1506.463, 16140.00
1507.499, 16240.00
1508.535, 16078.00
1509.570, 16337.00
1510.606, 16242.00
1511.641, 16074.00
1512.676, 16347.00
1513.711, 16215.00
1514.746, 16266.00
1515.781, 16387.00
1516.816, 16394.00
1517.850, 16333.00
1518.884, 16203.00
1519.918, 16178.00
1520.952, 16298.00
1521.986, 16424.00
1523.019, 16415.00
1524.053, 16344.00
1525.086, 16381.00
1526.119, 16381.00
1527.152, 16532.00
1528.185, 16323.00
1529.217, 16439.00
1530.250, 16331.00
1531.282, 16448.00
1532.314, 16538.00
1533.346, 16539.00
1534.377, 16442.00
1535.409, 16498.00
1536.440, 16437.00
1537.472, 16614.00
1538.503, 16732.00
1539.534, 16704.00
1540.564, 16743.00
1541.595, 16912.00
1542.625, 17092.00
1543.656, 17348.00
1544.686, 17351.00
1545.716, 17148.00
1546.745, 16935.00
1547.775, 16939.00
1548.804, 16867.00
1549.834, 16838.00
1550.863, 17000.00
1551.892, 17001.00
1552.920, 17008.00
1553.949, 16944.00
1554.977, 16942.90
1556.006, 16897.00
1557.034, 16902.00
1558.062, 16769.00
1559.089, 16765.00
1560.117, 16737.00
1561.144, 16876.00
1562.172, 16930.00
1563.199, 16889.00
1564.226, 16992.00
1565.252, 17063.00
1566.279, 16887.00
1567.305, 17125.00
1568.332, 16842.00
1569.358, 17155.00
1570.384, 17135.00
##END=



