##NAMES=Catapleiite
##RRUFFID=R060208
##IDEAL CHEMISTRY=Na_2_Zr^4+^Si_3_O_9_&#183;2H_2_O
##LOCALITY=Mont Saint-Hilaire, Rouville County, Quebec, Canada
##OWNER=RRUFF
##SOURCE=Royal Ontario Museum
##DESCRIPTION=Colorless transparent thin tabular pseudohexagonal crystal
##STATUS=The identification of this mineral is confirmed by single-crystal X-ray diffraction and chemical analysis.
##URL=rruff.info/R060208
##MEASURED CHEMISTRY=Na_2.00_Zr_1.00_Si_3.00_O_9_Â·2H_2_O
##PIN_ID=M01569
##ORIENTATION=Laser parallel to -c* (0 0 -1). Fiducial mark perpendicular to laser is parallel to a [1 0 0]
120.9140, 6864.000
122.1480, 7075.000
123.3810, 6994.000
124.6150, 7121.000
125.8480, 7120.000
127.0810, 7254.000
128.3130, 7415.000
129.5460, 7457.000
130.7790, 7612.000
132.0110, 7568.000
133.2430, 7642.000
134.4750, 7720.000
135.7070, 7871.000
136.9380, 7896.000
138.1700, 7904.000
139.4010, 8000.000
140.6330, 8039.000
141.8640, 8158.000
143.0950, 8247.000
144.3250, 8364.000
145.5560, 8464.000
146.7860, 8435.000
148.0160, 8608.000
149.2470, 8871.000
150.4760, 8787.000
151.7060, 8944.000
152.9360, 9035.000
154.1650, 9043.000
155.3950, 9215.000
156.6240, 9164.000
157.8530, 9145.000
159.0820, 9120.000
160.3100, 9210.000
161.5390, 8997.000
162.7670, 9133.000
163.9950, 9051.000
165.2230, 8802.000
166.4510, 8642.000
167.6790, 8331.000
168.9060, 8187.000
170.1340, 8085.000
171.3610, 7810.000
172.5880, 7609.000
173.8150, 7532.000
175.0420, 7260.000
176.2690, 7197.000
177.4950, 7091.000
178.7210, 6967.000
179.9470, 6857.000
181.1730, 6718.000
182.3990, 6719.000
183.6250, 6546.000
184.8500, 6590.000
186.0760, 6547.000
187.3010, 6511.000
188.5260, 6528.000
189.7510, 6546.000
190.9750, 6494.000
192.2000, 6577.000
193.4240, 6660.000
194.6490, 6608.000
195.8730, 6756.000
197.0970, 6770.000
198.3200, 6755.000
199.5440, 6924.000
200.7670, 6988.000
201.9910, 6889.000
203.2140, 7050.000
204.4370, 7122.000
205.6590, 6996.000
206.8820, 7173.000
208.1050, 7154.000
209.3270, 7229.000
210.5490, 7178.000
211.7710, 7134.000
212.9930, 7125.000
214.2150, 7068.000
215.4360, 6947.000
216.6570, 6722.000
217.8790, 6708.000
219.1000, 6532.000
220.3210, 6412.000
221.5410, 6267.000
222.7620, 6135.000
223.9820, 6011.000
225.2030, 6007.000
226.4230, 5771.000
227.6430, 5787.000
228.8620, 5698.000
230.0820, 5536.000
231.3010, 5611.000
232.5210, 5561.000
233.7400, 5459.000
234.9590, 5510.000
236.1780, 5469.000
237.3960, 5471.000
238.6150, 5398.000
239.8330, 5347.000
241.0510, 5411.000
242.2690, 5478.000
243.4870, 5436.000
244.7050, 5338.000
245.9230, 5351.000
247.1400, 5366.000
248.3570, 5396.000
249.5740, 5337.000
250.7910, 5339.000
252.0080, 5351.000
253.2240, 5316.000
254.4410, 5361.894
255.6570, 5417.000
256.8730, 5438.000
258.0890, 5518.000
259.3050, 5568.000
260.5210, 5603.000
261.7360, 5455.000
262.9510, 5459.000
264.1670, 5488.000
265.3820, 5532.000
266.5960, 5562.000
267.8110, 5419.000
269.0260, 5388.000
270.2400, 5419.000
271.4540, 5450.000
272.6680, 5460.000
273.8820, 5454.000
275.0960, 5427.000
276.3090, 5474.000
277.5230, 5508.000
278.7360, 5569.000
279.9490, 5596.000
281.1620, 5660.880
282.3750, 5763.000
283.5880, 5829.000
284.8000, 5945.000
286.0120, 6129.000
287.2240, 6135.000
288.4360, 6259.000
289.6480, 6538.000
290.8600, 6592.000
292.0710, 6895.000
293.2830, 6852.000
294.4940, 6944.000
295.7050, 7024.000
296.9160, 7124.000
298.1260, 7146.000
299.3370, 7087.000
300.5470, 7012.000
301.7580, 6899.000
302.9680, 6833.000
304.1770, 6754.000
305.3870, 6625.000
306.5970, 6613.000
307.8060, 6600.000
309.0150, 6681.000
310.2250, 6530.000
311.4340, 6551.000
312.6420, 6602.000
313.8510, 6488.000
315.0590, 6464.000
316.2680, 6426.000
317.4760, 6442.000
318.6840, 6328.000
319.8920, 6394.000
321.0990, 6381.000
322.3070, 6432.000
323.5140, 6312.000
324.7210, 6279.000
325.9280, 6322.000
327.1350, 6314.000
328.3420, 6311.000
329.5490, 6198.000
330.7550, 6199.000
331.9610, 6124.000
333.1670, 6133.000
334.3730, 6066.000
335.5790, 5928.000
336.7840, 5843.000
337.9900, 5884.000
339.1950, 5732.000
340.4000, 5876.000
341.6050, 5786.000
342.8100, 5759.000
344.0150, 5747.000
345.2190, 5664.000
346.4230, 5689.000
347.6280, 5719.000
348.8320, 5758.000
350.0350, 5776.000
351.2390, 5784.365
352.4430, 5784.018
353.6460, 5815.000
354.8490, 5754.000
356.0520, 5831.000
357.2550, 5816.000
358.4580, 5973.000
359.6600, 6166.000
360.8630, 6076.000
362.0650, 6216.000
363.2670, 6229.000
364.4690, 6183.000
365.6710, 6266.000
366.8720, 6346.000
368.0740, 6355.000
369.2750, 6396.715
370.4760, 6306.000
371.6770, 6394.000
372.8780, 6324.000
374.0780, 6269.000
375.2790, 6373.000
376.4790, 6398.000
377.6790, 6324.000
378.8790, 6433.000
380.0790, 6305.000
381.2790, 6246.000
382.4780, 6324.000
383.6780, 6310.000
384.8770, 6361.000
386.0760, 6325.000
387.2750, 6212.000
388.4730, 6344.000
389.6720, 6181.000
390.8700, 6288.000
392.0690, 6235.000
393.2670, 6218.000
394.4650, 6282.000
395.6620, 6279.000
396.8600, 6303.000
398.0570, 6319.000
399.2550, 6343.000
400.4520, 6303.000
401.6490, 6486.000
402.8450, 6455.000
404.0420, 6610.000
405.2390, 6653.000
406.4350, 6846.000
407.6310, 6948.000
408.8270, 6965.000
410.0230, 7138.000
411.2190, 7383.000
412.4140, 7695.000
413.6090, 8062.000
414.8050, 8548.000
416.0000, 8937.000
417.1940, 9386.000
418.3890, 10188.00
419.5840, 10709.00
420.7780, 11634.00
421.9720, 12542.00
423.1660, 13523.00
424.3600, 14765.00
425.5540, 15807.00
426.7480, 16935.00
427.9410, 17692.00
429.1340, 18396.00
430.3270, 18473.00
431.5200, 18121.00
432.7130, 17137.00
433.9060, 15990.00
435.0980, 15091.00
436.2900, 13815.00
437.4830, 12703.00
438.6750, 11887.00
439.8660, 11090.00
441.0580, 10307.00
442.2500, 9761.000
443.4410, 9320.000
444.6320, 8963.000
445.8230, 8632.000
447.0140, 8229.000
448.2050, 8093.000
449.3950, 7977.000
450.5860, 7693.000
451.7760, 7659.000
452.9660, 7503.000
454.1560, 7308.000
455.3450, 7251.000
456.5350, 7189.000
457.7240, 7043.000
458.9140, 7047.000
460.1030, 6935.000
461.2920, 6946.000
462.4810, 6903.000
463.6690, 6750.000
464.8580, 6867.000
466.0460, 6627.000
467.2340, 6656.000
468.4220, 6628.000
469.6100, 6693.000
470.7970, 6581.000
471.9850, 6614.000
473.1720, 6627.000
474.3590, 6693.000
475.5460, 6585.000
476.7330, 6537.000
477.9200, 6535.000
479.1060, 6561.000
480.2930, 6603.000
481.4790, 6451.000
482.6650, 6598.000
483.8510, 6462.000
485.0370, 6482.000
486.2220, 6443.000
487.4080, 6491.000
488.5930, 6452.000
489.7780, 6518.000
490.9630, 6574.000
492.1480, 6512.000
493.3320, 6528.000
494.5170, 6578.000
495.7010, 6571.000
496.8850, 6581.000
498.0690, 6605.000
499.2530, 6576.000
500.4360, 6568.000
501.6200, 6585.000
502.8030, 6604.314
503.9860, 6648.000
505.1690, 6668.000
506.3520, 6789.000
507.5350, 6797.000
508.7170, 6949.000
509.9000, 7139.000
511.0820, 7109.000
512.2640, 7185.000
513.4460, 7175.000
514.6270, 7341.000
515.8090, 7424.000
516.9900, 7676.000
518.1710, 7767.000
519.3530, 7884.000
520.5330, 7942.000
521.7140, 7959.000
522.8950, 8032.947
524.0750, 8009.000
525.2550, 8069.000
526.4350, 8121.000
527.6150, 8041.000
528.7950, 8068.000
529.9750, 8057.000
531.1540, 8051.000
532.3340, 8140.000
533.5130, 8127.000
534.6920, 8130.661
535.8700, 8026.000
537.0490, 8106.000
538.2280, 8194.000
539.4060, 8194.000
540.5840, 8061.000
541.7620, 8101.000
542.9400, 8075.000
544.1180, 8099.000
545.2950, 8136.000
546.4720, 8177.000
547.6500, 8089.000
548.8270, 8255.000
550.0040, 8285.000
551.1800, 8434.000
552.3570, 8407.000
553.5330, 8707.000
554.7090, 8972.000
555.8850, 9152.000
557.0610, 9539.000
558.2370, 9834.000
559.4130, 10102.00
560.5880, 10657.00
561.7630, 11253.00
562.9380, 11878.00
564.1130, 12632.00
565.2880, 13543.00
566.4630, 14527.00
567.6370, 15559.00
568.8120, 16778.00
569.9860, 17766.00
571.1600, 18551.00
572.3330, 19458.00
573.5070, 19760.00
574.6810, 19447.00
575.8540, 19010.00
577.0270, 18043.00
578.2000, 16745.00
579.3730, 15350.00
580.5460, 14037.00
581.7180, 12850.00
582.8910, 11722.00
584.0630, 10879.00
585.2350, 10273.00
586.4070, 9626.000
587.5780, 9074.000
588.7500, 8684.000
589.9210, 8361.000
591.0930, 8009.000
592.2640, 7923.000
593.4350, 7655.000
594.6050, 7605.000
595.7760, 7489.000
596.9460, 7405.000
598.1170, 7301.000
599.2870, 7184.000
600.4570, 7179.000
601.6260, 7195.000
602.7960, 7228.000
603.9650, 7166.000
605.1350, 7354.000
606.3040, 7393.000
607.4730, 7301.000
608.6420, 7378.000
609.8100, 7545.000
610.9790, 7681.000
612.1470, 7774.000
613.3150, 8053.000
614.4830, 8301.000
615.6510, 8613.000
616.8190, 9234.000
617.9860, 9629.000
619.1540, 10294.00
620.3210, 10984.00
621.4880, 11894.00
622.6550, 12938.00
623.8220, 14418.00
624.9880, 15594.00
626.1550, 17175.00
627.3210, 18520.00
628.4870, 19584.00
629.6530, 20095.00
630.8190, 20038.00
631.9840, 18752.00
633.1500, 17351.00
634.3150, 15512.00
635.4800, 13832.00
636.6450, 12327.00
637.8100, 11110.00
638.9740, 10224.00
640.1390, 9621.000
641.3030, 8997.000
642.4670, 8637.000
643.6310, 8324.000
644.7950, 7940.000
645.9590, 7854.000
647.1220, 7527.000
648.2850, 7425.000
649.4490, 7281.000
650.6120, 7078.000
651.7740, 7143.000
652.9370, 6927.000
654.1000, 6785.000
655.2620, 6860.000
656.4240, 6779.000
657.5860, 6809.000
658.7480, 6664.000
659.9100, 6747.000
661.0710, 6681.000
662.2330, 6593.000
663.3940, 6588.000
664.5550, 6595.000
665.7160, 6554.000
666.8770, 6586.000
668.0370, 6581.000
669.1980, 6581.000
670.3580, 6604.000
671.5180, 6480.000
672.6780, 6545.000
673.8380, 6479.000
674.9970, 6508.000
676.1570, 6511.000
677.3160, 6499.000
678.4750, 6492.000
679.6340, 6549.000
680.7930, 6452.000
681.9520, 6597.000
683.1100, 6378.000
684.2680, 6397.000
685.4270, 6534.000
686.5850, 6501.000
687.7420, 6408.000
688.9000, 6485.000
690.0580, 6472.000
691.2150, 6367.000
692.3720, 6501.000
693.5290, 6495.000
694.6860, 6478.000
695.8430, 6512.000
696.9990, 6430.000
698.1560, 6507.000
699.3120, 6457.000
700.4680, 6508.000
701.6240, 6482.000
702.7800, 6517.000
703.9350, 6539.000
705.0900, 6568.000
706.2460, 6588.532
707.4010, 6545.000
708.5560, 6640.000
709.7110, 6537.000
710.8650, 6583.000
712.0200, 6637.000
713.1740, 6651.000
714.3280, 6746.000
715.4820, 6648.000
716.6360, 6737.000
717.7890, 6721.000
718.9430, 6822.000
720.0960, 6999.000
721.2490, 6960.000
722.4020, 7032.000
723.5550, 6966.000
724.7080, 7118.000
725.8600, 7120.000
727.0130, 7138.000
728.1650, 7186.000
729.3170, 7364.000
730.4690, 7372.000
731.6200, 7544.000
732.7720, 7594.000
733.9230, 7744.000
735.0740, 7727.000
736.2250, 7789.000
737.3760, 7818.000
738.5270, 7734.000
739.6780, 7689.000
740.8280, 7572.000
741.9780, 7616.000
743.1280, 7467.000
744.2780, 7500.000
745.4280, 7427.000
746.5770, 7361.000
747.7270, 7154.000
748.8760, 7025.000
750.0250, 7091.000
751.1740, 7058.000
752.3230, 7002.000
753.4720, 6955.000
754.6200, 6920.000
755.7680, 6838.000
756.9160, 6791.000
758.0640, 6877.000
759.2120, 6768.000
760.3600, 6777.000
761.5070, 6670.000
762.6550, 6753.000
763.8020, 6756.000
764.9490, 6737.000
766.0960, 6696.000
767.2420, 6771.000
768.3890, 6752.000
769.5350, 6766.000
770.6810, 6709.000
771.8270, 6811.000
772.9730, 6724.000
774.1190, 6737.000
775.2640, 6704.000
776.4100, 6679.000
777.5550, 6762.000
778.7000, 6736.000
779.8450, 6764.000
780.9900, 6669.000
782.1340, 6677.000
783.2790, 6774.000
784.4230, 6719.000
785.5670, 6617.000
786.7110, 6702.000
787.8550, 6628.000
788.9980, 6626.000
790.1420, 6819.000
791.2850, 6635.000
792.4280, 6717.000
793.5710, 6683.000
794.7140, 6702.000
795.8560, 6769.000
796.9990, 6748.000
798.1410, 6793.000
799.2830, 6726.000
800.4250, 6809.000
801.5670, 6805.000
802.7090, 6723.000
803.8500, 6766.000
804.9920, 6900.000
806.1330, 6813.000
807.2740, 6921.000
808.4150, 6753.000
809.5550, 6895.000
810.6960, 6825.000
811.8360, 6827.000
812.9760, 6888.000
814.1160, 6731.000
815.2560, 6800.000
816.3960, 6896.000
817.5350, 6957.000
818.6750, 6900.000
819.8140, 6933.000
820.9530, 6924.000
822.0920, 6898.000
823.2310, 6990.000
824.3690, 6929.000
825.5080, 7124.000
826.6460, 7030.000
827.7840, 6992.000
828.9220, 7198.000
830.0600, 7077.000
831.1970, 7116.000
832.3350, 7111.000
833.4720, 7111.000
834.6090, 7133.000
835.7460, 7063.000
836.8830, 7188.000
838.0190, 7162.000
839.1560, 7225.000
840.2920, 7173.000
841.4280, 7125.000
842.5640, 7165.000
843.7000, 7239.000
844.8360, 7247.000
845.9710, 7238.000
847.1070, 7155.000
848.2420, 7238.000
849.3770, 7325.000
850.5120, 7318.000
851.6460, 7207.000
852.7810, 7402.000
853.9150, 7435.000
855.0490, 7365.000
856.1830, 7480.000
857.3170, 7425.000
858.4510, 7502.000
859.5840, 7590.000
860.7180, 7522.000
861.8510, 7555.000
862.9840, 7463.000
864.1170, 7524.000
865.2500, 7530.000
866.3820, 7445.000
867.5150, 7532.000
868.6470, 7486.000
869.7790, 7578.000
870.9110, 7437.000
872.0430, 7585.000
873.1740, 7496.000
874.3060, 7587.000
875.4370, 7553.000
876.5680, 7632.000
877.6990, 7645.027
878.8300, 7705.000
879.9600, 7679.000
881.0910, 7665.000
882.2210, 7670.000
883.3510, 7661.000
884.4810, 7667.000
885.6110, 7695.250
886.7410, 7721.552
887.8700, 7794.000
888.9990, 7794.000
890.1290, 7907.000
891.2580, 7924.000
892.3860, 8029.000
893.5150, 8070.000
894.6440, 8223.000
895.7720, 8227.000
896.9000, 8260.000
898.0280, 8417.000
899.1560, 8496.000
900.2840, 8550.000
901.4110, 8598.000
902.5390, 8855.000
903.6660, 8932.000
904.7930, 9103.992
905.9200, 9184.000
907.0470, 9446.000
908.1730, 9649.000
909.3000, 9852.000
910.4260, 10317.00
911.5520, 10689.00
912.6780, 10939.00
913.8030, 11457.00
914.9290, 12108.00
916.0540, 12809.00
917.1800, 13669.00
918.3050, 14546.00
919.4300, 16026.00
920.5550, 17441.00
921.6790, 19274.00
922.8040, 21557.00
923.9280, 24246.00
925.0520, 27083.00
926.1760, 30749.00
927.3000, 34661.00
928.4230, 38495.00
929.5470, 42471.00
930.6700, 46261.00
931.7930, 48885.00
932.9160, 49994.00
934.0390, 49920.00
935.1620, 47472.00
936.2840, 44121.00
937.4070, 39797.00
938.5290, 35391.00
939.6510, 30966.00
940.7730, 27170.00
941.8940, 23582.00
943.0160, 20922.00
944.1370, 18895.00
945.2580, 17309.00
946.3800, 16362.00
947.5000, 15455.00
948.6210, 14688.00
949.7420, 14006.00
950.8620, 13187.00
951.9820, 12343.00
953.1020, 11750.00
954.2220, 11246.00
955.3420, 10659.00
956.4620, 10331.00
957.5810, 9952.000
958.7000, 9707.000
959.8190, 9513.000
960.9380, 9287.000
962.0570, 9047.000
963.1760, 9068.000
964.2940, 8797.000
965.4120, 8827.000
966.5300, 8770.000
967.6480, 8839.000
968.7660, 8756.000
969.8840, 8678.000
971.0010, 8762.000
972.1190, 8724.000
973.2360, 8658.000
974.3530, 8677.000
975.4690, 8718.000
976.5860, 8736.000
977.7030, 8800.514
978.8190, 8897.000
979.9350, 8941.000
981.0510, 9054.000
982.1670, 9145.000
983.2830, 9262.000
984.3980, 9399.000
985.5130, 9644.000
986.6290, 9783.000
987.7440, 10042.00
988.8590, 10523.00
989.9730, 10968.00
991.0880, 11523.00
992.2020, 12249.00
993.3160, 12858.00
994.4300, 13663.00
995.5440, 14401.00
996.6580, 15719.00
997.7720, 16375.00
998.8850, 17610.00
999.9980, 18331.00
1001.111, 19122.00
1002.224, 19746.00
1003.337, 20254.00
1004.450, 20024.00
1005.562, 20147.00
1006.674, 20009.00
1007.786, 19755.00
1008.898, 19336.00
1010.010, 18800.00
1011.122, 18199.00
1012.233, 17634.00
1013.344, 16993.10
1014.455, 16293.00
1015.566, 15646.00
1016.677, 14897.00
1017.788, 14133.00
1018.898, 13526.00
1020.009, 12840.00
1021.119, 12126.00
1022.229, 11685.00
1023.339, 11116.00
1024.448, 10900.00
1025.558, 10586.00
1026.667, 10238.00
1027.776, 9921.000
1028.885, 9746.000
1029.994, 9614.000
1031.103, 9596.000
1032.211, 9404.000
1033.320, 9367.000
1034.428, 9349.000
1035.536, 9228.000
1036.644, 9241.000
1037.751, 9203.000
1038.859, 9261.000
1039.966, 9218.451
1041.074, 9232.000
1042.181, 9190.000
1043.288, 9138.291
1044.394, 9039.000
1045.501, 9005.000
1046.607, 8923.000
1047.713, 8834.000
1048.820, 8751.000
1049.925, 8611.000
1051.031, 8674.000
1052.137, 8639.000
1053.242, 8612.000
1054.348, 8492.000
1055.453, 8577.000
1056.558, 8492.000
1057.662, 8463.000
1058.767, 8615.000
1059.871, 8479.000
1060.976, 8593.000
1062.080, 8498.000
1063.184, 8525.000
1064.288, 8548.000
1065.391, 8531.000
1066.495, 8635.000
1067.598, 8585.000
1068.701, 8745.000
1069.804, 8651.000
1070.907, 8683.000
1072.010, 8746.000
1073.112, 8783.000
1074.214, 8972.000
1075.317, 8926.000
1076.419, 8985.000
1077.521, 9222.000
1078.622, 9187.000
1079.724, 9345.000
1080.825, 9579.000
1081.926, 9743.000
1083.027, 9942.362
1084.128, 10252.00
1085.229, 10336.00
1086.329, 10683.00
1087.430, 10903.00
1088.530, 10972.00
1089.630, 11055.00
1090.730, 10979.60
1091.830, 10850.00
1092.929, 10624.00
1094.029, 10458.00
1095.128, 10111.00
1096.227, 9881.000
1097.326, 9681.000
1098.425, 9445.000
1099.523, 9305.000
1100.622, 9233.000
1101.720, 9098.000
1102.818, 8974.000
1103.916, 8872.000
1105.014, 8801.000
1106.111, 8738.434
1107.209, 8663.000
1108.306, 8666.000
1109.403, 8690.000
1110.500, 8670.000
1111.597, 8559.000
1112.694, 8645.000
1113.790, 8585.000
1114.887, 8585.000
1115.983, 8687.000
1117.079, 8610.000
1118.174, 8453.000
1119.270, 8596.000
1120.366, 8586.000
1121.461, 8541.000
1122.556, 8642.000
1123.651, 8772.000
1124.746, 8689.000
1125.841, 8567.000
1126.935, 8616.000
1128.030, 8716.000
1129.124, 8616.000
1130.218, 8613.000
1131.312, 8624.000
1132.405, 8799.000
1133.499, 8708.000
1134.592, 8619.000
1135.686, 8736.000
1136.779, 8597.000
1137.871, 8665.000
1138.964, 8831.000
1140.057, 8737.000
1141.149, 8694.000
1142.241, 8731.000
1143.334, 8663.000
1144.425, 8855.000
1145.517, 8902.000
1146.609, 8822.000
1147.700, 8920.000
1148.791, 8766.000
1149.883, 8659.000
1150.974, 8705.000
1152.064, 8754.000
1153.155, 8765.000
1154.245, 8649.000
1155.336, 8654.000
1156.426, 8731.000
1157.516, 8651.000
1158.606, 8884.000
1159.695, 8758.000
1160.785, 8757.000
1161.874, 8757.000
1162.963, 8654.000
1164.052, 8793.000
1165.141, 8806.000
1166.230, 8695.000
1167.318, 8730.000
1168.406, 8731.000
1169.495, 8765.000
1170.583, 8771.862
1171.670, 8760.000
1172.758, 8802.000
1173.846, 8843.000
1174.933, 8889.000
1176.020, 8878.000
1177.107, 8863.000
1178.194, 8785.000
1179.281, 8874.000
1180.367, 8861.000
1181.454, 8741.000
1182.540, 8936.000
1183.626, 8932.000
1184.712, 8850.000
1185.798, 8902.000
1186.883, 8839.000
1187.969, 8862.000
1189.054, 8808.000
1190.139, 8759.000
1191.224, 8721.000
1192.309, 8964.000
1193.393, 8863.000
1194.478, 8902.000
1195.562, 8807.000
1196.646, 8773.000
1197.730, 8856.000
1198.814, 8831.000
1199.897, 8799.000
1200.981, 8766.000
1202.064, 8788.294
1203.147, 8817.000
1204.230, 8821.000
1205.313, 8847.000
1206.396, 8820.000
1207.478, 8905.000
1208.560, 8956.000
1209.642, 8755.000
1210.724, 8932.000
1211.806, 8845.000
1212.888, 8944.000
1213.969, 9082.000
1215.051, 8859.000
1216.132, 8826.000
1217.213, 8945.000
1218.294, 8876.000
1219.374, 8987.000
1220.455, 8939.000
1221.535, 8853.000
1222.616, 8781.000
1223.696, 8901.000
1224.775, 8899.000
1225.855, 9048.000
1226.935, 8889.000
1228.014, 8959.000
1229.093, 8844.000
1230.172, 8977.000
1231.251, 8931.000
1232.330, 8851.000
1233.408, 9017.000
1234.487, 9122.000
1235.565, 8995.000
1236.643, 9062.000
1237.721, 9022.000
1238.799, 8928.000
1239.876, 9108.000
1240.954, 9025.000
1242.031, 9046.000
1243.108, 9028.000
1244.185, 9111.000
1245.262, 9075.000
1246.338, 9236.000
1247.415, 9173.604
1248.491, 9011.000
1249.567, 9130.000
1250.643, 9050.000
1251.719, 9070.000
1252.795, 9135.000
1253.870, 9038.000
1254.945, 9231.000
1256.021, 9033.000
1257.096, 9049.000
1258.170, 9158.000
1259.245, 9144.000
1260.320, 9156.000
1261.394, 9100.000
1262.468, 9104.887
1263.542, 9202.000
1264.616, 9065.000
1265.690, 9133.000
1266.763, 9088.000
1267.836, 9175.000
1268.910, 9083.000
1269.983, 9121.000
1271.055, 9240.000
1272.128, 9175.000
1273.201, 9226.000
1274.273, 9201.000
1275.345, 9269.000
1276.417, 9202.000
1277.489, 9220.000
1278.561, 9226.000
1279.632, 9264.000
1280.704, 9244.000
1281.775, 9282.000
1282.846, 9127.000
1283.917, 9260.000
1284.988, 9073.000
1286.058, 9254.000
1287.129, 9171.000
1288.199, 9142.000
1289.269, 9217.000
1290.339, 9277.000
1291.409, 9217.000
1292.478, 9224.000
1293.548, 9232.000
1294.617, 9202.000
1295.686, 9240.465
1296.755, 9155.000
1297.824, 9275.000
1298.893, 9271.000
1299.961, 9237.000
1301.029, 9298.000
1302.097, 9388.000
1303.165, 9244.000
1304.233, 9301.000
1305.301, 9408.000
1306.368, 9271.000
1307.436, 9331.000
1308.503, 9481.000
1309.570, 9268.000
1310.637, 9384.000
1311.703, 9414.000
1312.770, 9369.000
1313.836, 9347.000
1314.902, 9459.000
1315.968, 9372.000
1317.034, 9309.000
1318.100, 9434.000
1319.165, 9341.000
1320.231, 9477.000
1321.296, 9386.000
1322.361, 9509.000
1323.426, 9464.000
1324.491, 9381.000
1325.555, 9533.000
1326.620, 9522.000
1327.684, 9424.000
1328.748, 9380.000
1329.812, 9531.000
1330.875, 9470.000
1331.939, 9486.000
1333.002, 9400.000
1334.066, 9516.000
1335.129, 9533.000
1336.192, 9419.000
1337.254, 9433.000
1338.317, 9595.000
1339.379, 9505.000
1340.442, 9551.000
1341.504, 9511.000
1342.566, 9515.000
1343.628, 9534.224
1344.689, 9621.000
1345.751, 9563.000
1346.812, 9594.000
1347.873, 9610.000
1348.934, 9587.000
1349.995, 9592.000
1351.055, 9555.000
1352.116, 9686.000
1353.176, 9591.000
1354.236, 9482.000
1355.296, 9644.000
1356.356, 9570.000
1357.416, 9530.000
1358.475, 9595.000
1359.535, 9782.000
1360.594, 9660.000
1361.653, 9707.000
1362.712, 9651.000
1363.770, 9673.000
1364.829, 9675.473
1365.887, 9615.000
1366.945, 9668.000
1368.003, 9664.000
1369.061, 9624.674
1370.119, 9683.000
1371.177, 9648.000
1372.234, 9681.000
1373.291, 9724.000
1374.348, 9662.000
1375.405, 9717.000
1376.462, 9654.000
1377.518, 9717.000
1378.575, 9615.000
1379.631, 9697.000
1380.687, 9618.000
1381.743, 9665.000
1382.799, 9750.000
1383.854, 9810.000
1384.910, 9705.000
1385.965, 9745.000
1387.020, 9858.000
1388.075, 9682.000
1389.130, 9686.000
1390.184, 9757.000
1391.239, 9859.000
1392.293, 9836.000
1393.347, 9870.938
1394.401, 9857.000
1395.455, 9825.000
1396.509, 9813.000
1397.562, 9732.000
1398.615, 9848.000
1399.669, 9812.000
1400.722, 9750.000
1401.774, 9878.000
1402.827, 9887.000
1403.879, 9938.000
1404.932, 9910.000
1405.984, 9892.000
1407.036, 9904.000
1408.088, 9894.000
1409.139, 9859.000
1410.191, 9979.000
1411.242, 9901.000
1412.294, 10047.00
1413.345, 9866.000
1414.395, 9878.000
1415.446, 9868.000
1416.497, 9913.000
1417.547, 9910.082
1418.597, 9965.000
1419.647, 9982.675
1420.697, 10034.00
1421.747, 10032.00
1422.796, 10056.00
1423.846, 10076.00
1424.895, 10056.93
1425.944, 9963.000
1426.993, 10037.00
1428.042, 10013.00
1429.090, 10034.00
1430.139, 10070.00
1431.187, 10015.00
1432.235, 10113.00
1433.283, 10017.00
1434.331, 10078.00
1435.378, 10001.00
1436.426, 10106.00
1437.473, 10119.00
1438.520, 10099.00
1439.567, 10169.00
1440.614, 10226.00
1441.661, 10272.00
1442.707, 10212.00
1443.753, 10276.00
1444.799, 10167.00
1445.845, 10300.00
1446.891, 10341.00
1447.937, 10228.00
1448.982, 10387.00
1450.028, 10304.00
1451.073, 10282.00
1452.118, 10315.00
1453.163, 10294.00
1454.207, 10350.00
1455.252, 10313.00
1456.296, 10334.12
1457.340, 10384.00
1458.384, 10343.00
1459.428, 10354.00
1460.472, 10343.63
1461.515, 10382.00
1462.559, 10353.00
1463.602, 10374.00
1464.645, 10355.00
1465.688, 10408.00
1466.731, 10399.00
1467.773, 10295.00
1468.816, 10360.00
1469.858, 10450.00
1470.900, 10260.00
1471.942, 10335.00
1472.983, 10320.00
1474.025, 10420.00
1475.066, 10395.00
1476.108, 10356.00
1477.149, 10463.00
1478.190, 10441.00
1479.230, 10459.00
1480.271, 10458.00
1481.311, 10507.00
1482.352, 10450.00
1483.392, 10492.00
1484.432, 10473.00
1485.472, 10427.00
1486.511, 10449.00
1487.551, 10486.00
1488.590, 10357.00
1489.629, 10450.00
1490.668, 10331.00
1491.707, 10343.00
1492.745, 10457.00
1493.784, 10440.00
1494.822, 10458.00
1495.860, 10491.00
1496.898, 10497.00
1497.936, 10494.48
1498.974, 10428.00
1500.011, 10480.00
1501.049, 10383.00
1502.086, 10389.00
1503.123, 10500.00
1504.160, 10389.00
1505.196, 10434.00
1506.233, 10423.00
1507.269, 10392.00
1508.305, 10394.00
1509.341, 10392.02
1510.377, 10409.94
1511.413, 10442.00
1512.449, 10449.00
1513.484, 10550.00
1514.519, 10533.00
1515.554, 10484.00
1516.589, 10379.00
1517.624, 10618.00
1518.658, 10511.00
1519.693, 10545.00
1520.727, 10523.00
1521.761, 10672.00
1522.795, 10456.00
1523.829, 10571.00
1524.862, 10682.00
1525.896, 10591.00
1526.929, 10530.00
1527.962, 10620.00
1528.995, 10686.00
1530.028, 10498.00
1531.060, 10645.00
1532.093, 10690.00
1533.125, 10672.00
1534.157, 10751.00
1535.189, 10685.00
1536.221, 10754.00
1537.253, 10736.68
1538.284, 10740.00
1539.316, 10694.00
1540.347, 10707.00
1541.378, 10637.00
1542.408, 10725.00
1543.439, 10827.00
1544.470, 10705.00
1545.500, 10907.00
1546.530, 10716.00
1547.560, 10711.00
1548.590, 10677.00
1549.620, 10724.00
1550.649, 10691.00
1551.679, 10706.00
1552.708, 10740.00
1553.737, 10779.00
1554.766, 10866.00
1555.794, 10845.44
1556.823, 10654.00
1557.851, 10820.00
1558.879, 10753.00
1559.907, 10718.00
1560.935, 10761.00
1561.963, 10827.00
##END=



