##NAMES=Catapleiite
##RRUFFID=R060198
##IDEAL CHEMISTRY=Na_2_Zr^4+^Si_3_O_9_&#183;2H_2_O
##LOCALITY=Mont Saint-Hilaire, Rouville County, Quebec, Canada
##OWNER=RRUFF
##SOURCE=Royal Ontario Museum
##DESCRIPTION=Tan colored pseudohexagonal tabular crystals
##STATUS=The identification of this mineral has been confirmed by X-ray diffraction and chemical analysis
##URL=rruff.info/R060198
##MEASURED CHEMISTRY=(Na_1.92_Ca_0.04_[box]_0.04_)_Σ=2_Zr_1.00_Si_3.00_O_9_·2H_2_O
##PIN_ID=L00755
##ORIENTATION=Laser parallel to -a* (-1 0 0). Fiducial mark perpendicular to laser is parallel to -b [0 -1 0]
95.94800, 9986.000
97.18200, 10190.00
98.41600, 10165.00
99.64900, 10272.00
100.8830, 10506.00
102.1160, 10679.00
103.3490, 10628.00
104.5820, 10963.00
105.8150, 11436.00
107.0470, 12150.00
108.2800, 12185.15
109.5120, 13243.00
110.7440, 12438.00
111.9760, 12213.00
113.2080, 12360.00
114.4400, 12751.00
115.6710, 12872.00
116.9030, 12891.00
118.1340, 12630.00
119.3650, 12336.00
120.5960, 12109.00
121.8270, 12048.00
123.0580, 11931.00
124.2880, 11857.31
125.5190, 11781.00
126.7490, 11804.00
127.9790, 11853.00
129.2090, 11894.00
130.4390, 11962.00
131.6680, 11812.00
132.8980, 11942.00
134.1270, 11660.00
135.3560, 11766.00
136.5850, 12067.00
137.8140, 11918.00
139.0430, 12065.00
140.2710, 12213.00
141.5000, 11928.00
142.7280, 11770.00
143.9560, 11714.00
145.1840, 11742.00
146.4120, 11497.00
147.6390, 11543.00
148.8670, 11398.00
150.0940, 11406.00
151.3210, 11284.00
152.5490, 11329.00
153.7750, 11252.00
155.0020, 11193.00
156.2290, 11056.00
157.4550, 11065.00
158.6810, 10978.00
159.9080, 10933.00
161.1340, 10883.00
162.3590, 10875.74
163.5850, 10932.00
164.8110, 10925.00
166.0360, 10915.00
167.2610, 11002.00
168.4860, 10963.00
169.7110, 10909.00
170.9360, 11123.00
172.1610, 11059.00
173.3850, 11041.00
174.6100, 11052.00
175.8340, 11255.00
177.0580, 11397.00
178.2820, 11424.00
179.5050, 11375.00
180.7290, 11596.00
181.9520, 11626.00
183.1760, 11713.00
184.3990, 11950.00
185.6220, 12082.00
186.8450, 12256.00
188.0670, 12561.00
189.2900, 12822.00
190.5120, 12983.00
191.7340, 13375.00
192.9560, 13558.00
194.1780, 14007.00
195.4000, 14081.00
196.6220, 14641.00
197.8430, 14785.00
199.0640, 14909.00
200.2860, 15270.00
201.5070, 15711.00
202.7270, 15819.00
203.9480, 15909.00
205.1690, 15684.00
206.3890, 15478.00
207.6090, 15433.00
208.8290, 15377.00
210.0490, 15041.00
211.2690, 14861.00
212.4890, 14494.00
213.7080, 14307.00
214.9280, 13503.00
216.1470, 13176.00
217.3660, 12557.00
218.5850, 11870.00
219.8030, 11499.00
221.0220, 10960.00
222.2400, 10615.00
223.4590, 10520.11
224.6770, 10017.31
225.8950, 9751.295
227.1120, 9330.000
228.3300, 9117.000
229.5480, 8880.000
230.7650, 8736.000
231.9820, 8674.000
233.1990, 8396.000
234.4160, 8213.000
235.6330, 8401.000
236.8490, 8133.000
238.0660, 7944.000
239.2820, 7993.000
240.4980, 7825.000
241.7140, 7856.000
242.9300, 7664.000
244.1460, 7613.000
245.3610, 7614.000
246.5770, 7557.000
247.7920, 7526.000
249.0070, 7558.000
250.2220, 7529.639
251.4370, 7532.000
252.6510, 7539.000
253.8660, 7510.000
255.0800, 7515.000
256.2940, 7540.000
257.5080, 7654.000
258.7220, 7666.615
259.9360, 7635.752
261.1490, 7727.000
262.3630, 7522.000
263.5760, 7443.000
264.7890, 7385.000
266.0020, 7376.000
267.2150, 7405.000
268.4270, 7186.000
269.6400, 7216.000
270.8520, 7064.000
272.0640, 7062.000
273.2760, 7059.000
274.4880, 7104.000
275.7000, 7123.000
276.9120, 7027.000
278.1230, 7073.000
279.3340, 7072.000
280.5450, 7102.000
281.7560, 7096.000
282.9670, 7105.000
284.1780, 7133.000
285.3880, 7180.000
286.5980, 7073.000
287.8090, 7211.000
289.0190, 7232.000
290.2290, 7195.000
291.4380, 7294.000
292.6480, 7307.000
293.8570, 7374.000
295.0670, 7259.000
296.2760, 7268.000
297.4850, 7392.000
298.6930, 7278.000
299.9020, 7361.000
301.1110, 7308.000
302.3190, 7286.000
303.5270, 7214.000
304.7350, 7220.000
305.9430, 7255.000
307.1510, 7265.049
308.3580, 7302.675
309.5660, 7364.000
310.7730, 7378.000
311.9800, 7434.000
313.1870, 7470.000
314.3940, 7367.000
315.6010, 7499.000
316.8070, 7446.000
318.0130, 7554.000
319.2200, 7507.000
320.4260, 7669.000
321.6310, 7811.000
322.8370, 7765.000
324.0430, 7925.000
325.2480, 7839.000
326.4540, 7769.000
327.6590, 7872.000
328.8640, 7925.000
330.0680, 7817.000
331.2730, 7847.000
332.4780, 7763.000
333.6820, 7639.000
334.8860, 7664.000
336.0900, 7712.000
337.2940, 7643.000
338.4980, 7636.000
339.7010, 7545.000
340.9050, 7676.000
342.1080, 7503.000
343.3110, 7575.000
344.5140, 7573.539
345.7170, 7554.242
346.9200, 7649.000
348.1220, 7596.000
349.3240, 7749.000
350.5270, 7769.000
351.7290, 7950.000
352.9310, 8032.000
354.1320, 8103.000
355.3340, 8302.000
356.5350, 8305.000
357.7370, 8367.000
358.9380, 8555.000
360.1390, 8718.000
361.3400, 8749.000
362.5400, 8785.293
363.7410, 8785.394
364.9410, 8681.000
366.1410, 8672.000
367.3410, 8557.000
368.5410, 8448.000
369.7410, 8309.000
370.9400, 8159.000
372.1400, 8182.000
373.3390, 8232.000
374.5380, 8065.000
375.7370, 8132.000
376.9360, 7955.000
378.1350, 7974.000
379.3330, 7963.000
380.5310, 7844.000
381.7300, 7993.000
382.9280, 7918.000
384.1260, 7842.000
385.3230, 7927.000
386.5210, 7868.000
387.7180, 7957.000
388.9160, 8029.000
390.1130, 8121.000
391.3100, 8140.588
392.5060, 8118.000
393.7030, 8135.000
394.9000, 8217.000
396.0960, 8145.000
397.2920, 8278.000
398.4880, 8225.000
399.6840, 8409.000
400.8800, 8410.000
402.0750, 8525.000
403.2710, 8692.000
404.4660, 8868.000
405.6610, 9035.042
406.8560, 9298.000
408.0510, 9454.000
409.2450, 9681.000
410.4400, 9987.000
411.6340, 10425.00
412.8280, 10838.00
414.0220, 11357.00
415.2160, 11837.00
416.4100, 12625.00
417.6030, 13321.00
418.7970, 14499.00
419.9900, 15547.00
421.1830, 16820.00
422.3760, 18377.00
423.5690, 19503.00
424.7610, 21009.00
425.9540, 22317.00
427.1460, 22938.00
428.3380, 22916.00
429.5300, 22677.00
430.7220, 21841.00
431.9140, 20339.00
433.1050, 18853.00
434.2970, 17451.00
435.4880, 16071.00
436.6790, 14946.00
437.8700, 13826.00
439.0610, 13014.00
440.2510, 12380.00
441.4420, 11709.00
442.6320, 11140.00
443.8220, 10727.00
445.0120, 10389.00
446.2020, 9864.000
447.3910, 9824.000
448.5810, 9446.000
449.7700, 9287.000
450.9600, 9189.000
452.1490, 8857.000
453.3370, 8692.000
454.5260, 8729.000
455.7150, 8551.000
456.9030, 8458.000
458.0910, 8468.000
459.2800, 8335.000
460.4670, 8286.000
461.6550, 8204.000
462.8430, 8263.000
464.0300, 8184.000
465.2180, 8115.000
466.4050, 8112.530
467.5920, 8053.226
468.7790, 8048.000
469.9650, 7998.000
471.1520, 7976.538
472.3380, 7960.397
473.5250, 8011.000
474.7110, 8002.000
475.8970, 8032.000
477.0820, 8070.000
478.2680, 7989.000
479.4540, 7947.000
480.6390, 7835.000
481.8240, 7974.000
483.0090, 8071.000
484.1940, 7979.000
485.3780, 7953.000
486.5630, 8019.000
487.7470, 8120.000
488.9320, 8103.000
490.1160, 8062.000
491.3000, 8013.000
492.4830, 8100.000
493.6670, 8109.000
494.8500, 8072.000
496.0340, 8144.000
497.2170, 8063.000
498.4000, 8307.000
499.5820, 8294.000
500.7650, 8297.000
501.9480, 8467.000
503.1300, 8445.000
504.3120, 8591.000
505.4940, 8630.000
506.6760, 8576.000
507.8580, 8776.000
509.0390, 8989.000
510.2210, 8926.000
511.4020, 9218.000
512.5830, 9319.000
513.7640, 9452.000
514.9450, 9560.000
516.1250, 9810.000
517.3060, 9798.000
518.4860, 10017.00
519.6660, 10055.00
520.8460, 10143.00
522.0260, 10163.00
523.2060, 10138.00
524.3850, 10021.00
525.5650, 9855.000
526.7440, 9694.000
527.9230, 9604.000
529.1020, 9524.000
530.2810, 9321.000
531.4590, 9201.000
532.6380, 9156.000
533.8160, 9030.000
534.9940, 8877.000
536.1720, 8775.000
537.3500, 8776.000
538.5270, 8563.000
539.7050, 8539.000
540.8820, 8628.000
542.0590, 8504.000
543.2360, 8437.000
544.4130, 8438.000
545.5900, 8514.000
546.7660, 8300.000
547.9430, 8386.000
549.1190, 8405.000
550.2950, 8339.000
551.4710, 8354.000
552.6470, 8496.000
553.8220, 8454.000
554.9980, 8550.000
556.1730, 8623.000
557.3480, 8762.000
558.5230, 8894.926
559.6980, 8927.000
560.8730, 9209.000
562.0470, 9437.000
563.2220, 9599.000
564.3960, 9929.000
565.5700, 10011.00
566.7440, 10325.00
567.9170, 10531.00
569.0910, 10677.00
570.2640, 10713.00
571.4380, 10892.00
572.6110, 10793.00
573.7840, 10572.00
574.9570, 10451.00
576.1290, 10096.00
577.3020, 9861.000
578.4740, 9432.000
579.6460, 9183.000
580.8180, 8885.000
581.9900, 8663.232
583.1620, 8575.000
584.3330, 8392.000
585.5040, 8331.000
586.6760, 8235.504
587.8470, 8207.000
589.0180, 8120.000
590.1880, 8094.680
591.3590, 8056.961
592.5290, 8064.000
593.7000, 8043.000
594.8700, 8066.000
596.0400, 8154.000
597.2090, 8153.000
598.3790, 8209.167
599.5490, 8298.000
600.7180, 8290.000
601.8870, 8361.000
603.0560, 8402.000
604.2250, 8531.000
605.3940, 8565.000
606.5620, 8618.000
607.7300, 8854.000
608.8990, 8846.000
610.0670, 9142.000
611.2350, 9311.000
612.4020, 9685.000
613.5700, 9905.000
614.7370, 10285.00
615.9050, 10647.00
617.0720, 11259.00
618.2390, 11785.00
619.4060, 12608.00
620.5720, 13737.00
621.7390, 14753.00
622.9050, 16180.00
624.0710, 17548.00
625.2370, 19180.00
626.4030, 20687.00
627.5690, 21551.00
628.7340, 22000.00
629.9000, 21359.00
631.0650, 19847.00
632.2300, 18240.00
633.3950, 16288.00
634.5600, 14649.00
635.7240, 13423.00
636.8890, 12211.00
638.0530, 11281.00
639.2170, 10610.00
640.3810, 10019.00
641.5450, 9773.000
642.7080, 9303.000
643.8720, 9139.000
645.0350, 8891.000
646.1980, 8678.000
647.3610, 8595.000
648.5240, 8428.000
649.6870, 8343.664
650.8490, 8358.000
652.0120, 8229.000
653.1740, 8233.000
654.3360, 8246.000
655.4980, 8088.000
656.6600, 8097.000
657.8210, 7965.000
658.9830, 8090.000
660.1440, 7992.000
661.3050, 8032.000
662.4660, 8016.000
663.6270, 8030.000
664.7870, 7978.000
665.9480, 7966.000
667.1080, 8024.000
668.2680, 8047.000
669.4280, 8023.000
670.5880, 8031.000
671.7480, 8048.000
672.9070, 8057.000
674.0670, 8073.342
675.2260, 8067.000
676.3850, 8060.000
677.5440, 8077.000
678.7030, 8086.395
679.8610, 8107.000
681.0200, 8127.000
682.1780, 8052.000
683.3360, 8065.000
684.4940, 8090.000
685.6520, 8023.000
686.8090, 8095.000
687.9670, 8064.000
689.1240, 8025.000
690.2810, 8143.000
691.4380, 8130.000
692.5950, 8071.000
693.7520, 8054.000
694.9080, 8165.000
696.0650, 8005.000
697.2210, 8031.000
698.3770, 8133.000
699.5330, 7884.000
700.6880, 8066.000
701.8440, 8124.000
702.9990, 8109.000
704.1550, 8068.000
705.3100, 8056.000
706.4650, 8065.000
707.6190, 8116.000
708.7740, 8134.289
709.9290, 8172.000
711.0830, 8204.000
712.2370, 8279.000
713.3910, 8286.000
714.5450, 8300.927
715.6980, 8290.000
716.8520, 8307.000
718.0050, 8309.842
719.1580, 8244.000
720.3110, 8304.000
721.4640, 8351.000
722.6170, 8312.000
723.7700, 8376.000
724.9220, 8385.495
726.0740, 8359.000
727.2260, 8402.000
728.3780, 8437.000
729.5300, 8374.000
730.6810, 8485.000
731.8330, 8425.000
732.9840, 8538.000
734.1350, 8498.000
735.2860, 8505.000
736.4370, 8415.000
737.5880, 8581.000
738.7380, 8383.000
739.8880, 8440.000
741.0390, 8559.000
742.1890, 8442.000
743.3380, 8422.000
744.4880, 8504.000
745.6380, 8383.000
746.7870, 8436.000
747.9360, 8342.000
749.0850, 8213.000
750.2340, 8310.000
751.3830, 8339.000
752.5310, 8400.000
753.6800, 8358.000
754.8280, 8356.000
755.9760, 8302.000
757.1240, 8287.728
758.2720, 8270.063
759.4190, 8269.000
760.5670, 8252.000
761.7140, 8296.000
762.8610, 8320.534
764.0080, 8354.000
765.1550, 8307.000
766.3020, 8298.000
767.4480, 8174.000
768.5950, 8359.000
769.7410, 8218.000
770.8870, 8404.000
772.0330, 8242.000
773.1780, 8359.000
774.3240, 8323.000
775.4690, 8214.000
776.6140, 8329.000
777.7590, 8253.000
778.9040, 8259.000
780.0490, 8371.000
781.1940, 8180.000
782.3380, 8299.000
783.4820, 8393.000
784.6260, 8255.000
785.7700, 8445.000
786.9140, 8511.000
788.0580, 8537.000
789.2010, 8473.000
790.3450, 8491.000
791.4880, 8503.000
792.6310, 8475.044
793.7730, 8520.292
794.9160, 8469.000
796.0590, 8542.000
797.2010, 8570.000
798.3430, 8487.000
799.4850, 8563.000
800.6270, 8625.000
801.7690, 8553.000
802.9100, 8633.087
804.0520, 8633.396
805.1930, 8653.000
806.3340, 8715.000
807.4750, 8650.000
808.6160, 8768.000
809.7560, 8631.000
810.8970, 8707.000
812.0370, 8715.000
813.1770, 8680.000
814.3170, 8789.000
815.4570, 8874.000
816.5960, 8814.000
817.7360, 8855.000
818.8750, 8834.000
820.0140, 8991.000
821.1530, 8937.000
822.2920, 9036.894
823.4310, 9286.000
824.5690, 9118.000
825.7070, 9291.000
826.8460, 9197.000
827.9840, 9276.000
829.1220, 9382.000
830.2590, 9573.000
831.3970, 9557.000
832.5340, 9628.000
833.6710, 9817.000
834.8080, 9873.000
835.9450, 9945.000
837.0820, 9710.000
838.2190, 9810.213
839.3550, 9763.706
840.4910, 9824.000
841.6270, 9753.000
842.7630, 9803.000
843.8990, 9783.000
845.0350, 9721.000
846.1700, 9772.000
847.3060, 9609.000
848.4410, 9682.000
849.5760, 9646.000
850.7100, 9659.000
851.8450, 9759.000
852.9800, 9604.000
854.1140, 9467.000
855.2480, 9489.000
856.3820, 9537.000
857.5160, 9403.000
858.6500, 9450.000
859.7830, 9383.000
860.9170, 9400.000
862.0500, 9409.000
863.1830, 9450.000
864.3160, 9318.000
865.4480, 9503.000
866.5810, 9355.000
867.7130, 9387.000
868.8460, 9423.000
869.9780, 9485.000
871.1100, 9499.000
872.2410, 9568.000
873.3730, 9396.000
874.5050, 9446.000
875.6360, 9441.000
876.7670, 9502.000
877.8980, 9412.000
879.0290, 9429.000
880.1590, 9388.000
881.2900, 9441.000
882.4200, 9487.000
883.5500, 9589.000
884.6800, 9466.000
885.8100, 9506.000
886.9400, 9434.000
888.0690, 9554.000
889.1990, 9545.000
890.3280, 9623.000
891.4570, 9580.000
892.5860, 9611.000
893.7140, 9749.000
894.8430, 9750.000
895.9710, 9710.000
897.1000, 9696.000
898.2280, 9882.000
899.3560, 9932.000
900.4830, 10131.00
901.6110, 10304.57
902.7380, 10390.00
903.8660, 10710.00
904.9930, 10926.00
906.1200, 11146.00
907.2460, 11682.00
908.3730, 11882.00
909.5000, 12059.00
910.6260, 12511.00
911.7520, 12458.00
912.8780, 12696.00
914.0040, 12643.00
915.1290, 12642.00
916.2550, 12753.00
917.3800, 13042.00
918.5050, 13408.00
919.6300, 13847.00
920.7550, 14574.00
921.8800, 15350.00
923.0040, 16077.00
924.1290, 16854.00
925.2530, 17927.00
926.3770, 18758.00
927.5010, 19984.00
928.6250, 20787.00
929.7480, 21360.00
930.8720, 21799.41
931.9950, 21963.00
933.1180, 21854.00
934.2410, 21562.00
935.3640, 20951.00
936.4860, 20145.00
937.6090, 19321.00
938.7310, 18490.00
939.8530, 17958.00
940.9750, 17403.04
942.0970, 17038.00
943.2180, 16722.00
944.3400, 16603.00
945.4610, 16592.00
946.5820, 16426.00
947.7030, 15741.00
948.8240, 15431.00
949.9450, 14785.00
951.0650, 14136.00
952.1860, 13516.00
953.3060, 13070.00
954.4260, 12618.00
955.5460, 12320.76
956.6650, 12096.00
957.7850, 11970.00
958.9040, 11961.00
960.0230, 12006.00
961.1420, 11939.00
962.2610, 11879.00
963.3800, 11878.00
964.4990, 11804.00
965.6170, 12041.00
966.7350, 12127.00
967.8530, 12115.00
968.9710, 12214.00
970.0890, 12244.00
971.2070, 12530.00
972.3240, 12676.00
973.4410, 12927.00
974.5580, 13060.00
975.6750, 13303.00
976.7920, 13622.83
977.9090, 14000.16
979.0250, 14425.00
980.1410, 14984.00
981.2580, 15644.00
982.3740, 16292.00
983.4890, 16912.00
984.6050, 17884.00
985.7200, 18931.00
986.8360, 20329.00
987.9510, 21897.00
989.0660, 23909.00
990.1810, 26491.00
991.2950, 29215.00
992.4100, 32510.00
993.5240, 35959.00
994.6390, 40578.00
995.7530, 44912.00
996.8660, 49315.00
997.9800, 53401.00
999.0940, 57279.00
1000.207, 60766.00
1001.320, 62926.00
1002.433, 64584.00
1003.546, 65059.00
1004.659, 65535.00
1005.772, 64643.00
1006.884, 63724.00
1007.996, 62202.00
1009.108, 60122.00
1010.220, 57107.00
1011.332, 54670.00
1012.444, 51626.00
1013.555, 48439.00
1014.666, 44790.00
1015.777, 41516.00
1016.888, 38548.00
1017.999, 35407.00
1019.110, 32305.00
1020.220, 29890.00
1021.331, 27431.00
1022.441, 25288.00
1023.551, 23764.00
1024.661, 22263.00
1025.770, 20827.00
1026.880, 19887.00
1027.989, 19054.00
1029.098, 18419.00
1030.207, 17903.00
1031.316, 17396.00
1032.425, 17175.00
1033.533, 16966.00
1034.642, 16740.00
1035.750, 16539.00
1036.858, 16480.00
1037.966, 16514.00
1039.073, 16390.00
1040.181, 16127.00
1041.288, 15927.00
1042.396, 15661.00
1043.503, 15209.00
1044.610, 14957.00
1045.716, 14650.00
1046.823, 14319.00
1047.929, 14231.00
1049.036, 13990.00
1050.142, 13897.00
1051.248, 13719.00
1052.353, 13527.00
1053.459, 13341.00
1054.564, 13351.00
1055.670, 13195.00
1056.775, 13166.00
1057.880, 13285.00
1058.985, 13093.00
1060.089, 13224.00
1061.194, 13107.00
1062.298, 13341.00
1063.402, 13443.00
1064.506, 13480.00
1065.610, 13726.00
1066.713, 13792.00
1067.817, 13998.00
1068.920, 14118.00
1070.023, 14478.00
1071.126, 14642.00
1072.229, 15068.00
1073.332, 15344.00
1074.435, 15988.00
1075.537, 16664.00
1076.639, 17490.00
1077.741, 18218.00
1078.843, 19134.00
1079.945, 20427.00
1081.046, 21952.00
1082.148, 24196.00
1083.249, 25606.58
1084.350, 28054.00
1085.451, 28906.00
1086.551, 30383.00
1087.652, 31626.00
1088.752, 31853.00
1089.853, 31789.00
1090.953, 30995.00
1092.053, 29726.00
1093.152, 27789.00
1094.252, 26201.00
1095.351, 24428.00
1096.451, 22562.00
1097.550, 21063.00
1098.649, 19717.00
1099.748, 18651.00
1100.846, 17525.00
1101.945, 16721.00
1103.043, 16029.00
1104.141, 15526.00
1105.239, 15055.00
1106.337, 14375.00
1107.434, 14174.00
1108.532, 13811.00
1109.629, 13387.00
1110.726, 13205.00
1111.823, 13020.00
1112.920, 12937.00
1114.017, 12628.00
1115.113, 12545.00
1116.210, 12476.00
1117.306, 12458.00
1118.402, 12524.00
1119.498, 12487.00
1120.593, 12404.00
1121.689, 12473.00
1122.784, 12433.00
1123.879, 12303.00
1124.974, 12248.00
1126.069, 12103.00
1127.164, 11865.00
1128.259, 11803.00
1129.353, 11792.00
1130.447, 11805.00
1131.541, 11711.00
1132.635, 11598.00
1133.729, 11652.00
1134.822, 11611.00
1135.916, 11651.00
1137.009, 11540.00
1138.102, 11671.00
1139.195, 11518.00
1140.288, 11519.00
1141.380, 11508.00
1142.473, 11496.00
1143.565, 11386.00
1144.657, 11522.00
1145.749, 11423.00
1146.841, 11329.00
1147.932, 11499.00
1149.024, 11408.00
1150.115, 11353.00
1151.206, 11340.00
1152.297, 11307.40
1153.388, 11390.00
1154.479, 11314.00
1155.569, 11348.00
1156.659, 11378.00
1157.750, 11325.00
1158.839, 11175.00
1159.929, 11259.00
1161.019, 11250.00
1162.108, 11370.00
1163.198, 11253.00
1164.287, 11229.00
1165.376, 11228.00
1166.465, 11305.00
1167.553, 11367.00
1168.642, 11300.00
1169.730, 11167.00
1170.818, 11278.00
1171.906, 11208.00
1172.994, 11282.00
1174.082, 11317.00
1175.170, 11144.00
1176.257, 11258.00
1177.344, 11181.00
1178.431, 11296.00
1179.518, 11143.00
1180.605, 11238.00
1181.691, 11280.00
1182.778, 11190.00
1183.864, 11144.00
1184.950, 11238.00
1186.036, 11175.00
1187.122, 11142.00
1188.207, 11033.00
1189.292, 11094.00
1190.378, 11158.00
1191.463, 11116.00
1192.548, 11088.00
1193.632, 11056.00
1194.717, 11135.00
1195.801, 11042.00
1196.886, 11188.00
1197.970, 11086.00
1199.054, 10919.00
1200.137, 11168.00
1201.221, 11021.00
1202.305, 10974.00
1203.388, 10919.00
1204.471, 11038.00
1205.554, 11035.00
1206.637, 11013.00
1207.719, 10904.00
1208.802, 11026.00
1209.884, 11070.00
1210.966, 10915.00
1212.048, 10930.00
1213.130, 11030.00
1214.212, 10965.00
1215.293, 10999.00
1216.374, 11074.00
1217.456, 10923.00
1218.536, 10980.00
1219.617, 11044.00
1220.698, 11172.00
1221.778, 11111.00
1222.859, 11100.00
1223.939, 11133.00
1225.019, 10920.00
1226.099, 11088.00
1227.178, 11064.00
1228.258, 11249.00
1229.337, 11247.00
1230.417, 11192.00
1231.496, 11145.00
1232.574, 11175.00
1233.653, 11128.88
1234.732, 11131.00
1235.810, 11117.00
1236.888, 11183.00
1237.966, 11222.00
1239.044, 11110.00
1240.122, 11079.00
1241.199, 11016.00
1242.277, 11223.00
1243.354, 11250.00
1244.431, 11234.00
1245.508, 11113.00
1246.585, 11282.00
1247.661, 11188.00
1248.738, 11366.00
1249.814, 11209.00
1250.890, 11188.00
1251.966, 11163.00
1253.042, 11207.00
1254.117, 11215.00
1255.193, 11201.30
1256.268, 11200.00
1257.343, 11200.00
1258.418, 11295.00
1259.493, 11349.00
1260.567, 11249.00
1261.642, 11294.00
1262.716, 11240.00
1263.790, 11293.00
1264.864, 11369.00
1265.938, 11225.00
1267.011, 11296.00
1268.085, 11312.00
1269.158, 11298.00
1270.231, 11339.00
1271.304, 11230.00
1272.377, 11389.00
1273.450, 11341.00
1274.522, 11238.00
1275.594, 11201.00
1276.666, 11335.00
1277.738, 11419.00
1278.810, 11282.00
1279.882, 11262.00
1280.953, 11340.00
1282.025, 11402.00
1283.096, 11385.00
1284.167, 11436.00
1285.238, 11189.00
1286.308, 11415.00
1287.379, 11323.00
1288.449, 11371.00
1289.519, 11431.00
1290.589, 11389.00
1291.659, 11450.00
1292.729, 11377.00
1293.798, 11446.92
1294.868, 11590.00
1295.937, 11569.00
1297.006, 11524.00
1298.075, 11599.00
1299.143, 11526.00
1300.212, 11482.00
1301.280, 11552.00
1302.348, 11424.00
1303.416, 11452.00
1304.484, 11436.00
1305.552, 11389.00
1306.620, 11458.00
1307.687, 11315.00
1308.754, 11441.00
1309.821, 11426.00
1310.888, 11450.00
1311.955, 11328.00
1313.021, 11415.00
1314.088, 11322.00
1315.154, 11419.00
1316.220, 11430.00
1317.286, 11481.00
1318.352, 11457.00
1319.417, 11474.00
1320.483, 11484.00
1321.548, 11368.00
1322.613, 11428.00
1323.678, 11476.00
1324.743, 11450.00
1325.807, 11566.00
1326.872, 11385.00
1327.936, 11422.00
1329.000, 11444.00
1330.064, 11552.00
1331.128, 11567.00
1332.191, 11582.00
1333.255, 11546.00
1334.318, 11572.00
1335.381, 11611.00
1336.444, 11601.00
1337.507, 11655.21
1338.569, 11763.00
1339.632, 11755.00
1340.694, 11735.00
1341.756, 11812.00
1342.818, 11727.00
1343.880, 11880.00
1344.941, 11794.00
1346.003, 11855.00
1347.064, 11714.00
1348.125, 11775.00
1349.186, 11905.00
1350.247, 11865.00
1351.308, 11952.00
1352.368, 11926.00
1353.428, 11971.00
1354.489, 12050.81
1355.549, 12099.00
1356.608, 12257.00
1357.668, 12336.00
1358.727, 12383.61
1359.787, 12426.02
1360.846, 12480.00
1361.905, 12462.00
1362.964, 12536.00
1364.022, 12638.00
1365.081, 12290.00
1366.139, 12480.00
1367.197, 12280.00
1368.255, 12246.00
1369.313, 12082.00
1370.371, 11830.00
1371.428, 11931.00
1372.486, 11793.00
1373.543, 11783.00
1374.600, 11783.00
1375.657, 11820.58
1376.713, 11954.00
1377.770, 11905.00
1378.826, 12047.00
1379.882, 11889.00
1380.938, 11816.00
1381.994, 11878.00
1383.050, 11965.00
1384.106, 11899.00
1385.161, 11969.00
1386.216, 11901.00
1387.271, 11894.00
1388.326, 12080.00
1389.381, 12139.00
1390.435, 12282.00
1391.490, 12277.00
1392.544, 12472.00
1393.598, 12547.00
1394.652, 12653.00
1395.705, 12553.00
1396.759, 12572.00
1397.812, 12465.00
1398.866, 12197.00
1399.919, 12098.00
1400.972, 12054.00
1402.024, 11947.00
1403.077, 11897.00
1404.129, 11957.00
1405.181, 11890.00
1406.233, 11714.00
1407.285, 11592.00
1408.337, 11668.00
1409.389, 11693.00
1410.440, 11760.00
1411.491, 11474.00
1412.542, 11684.00
1413.593, 11551.00
1414.644, 11654.00
1415.695, 11617.00
1416.745, 11765.00
1417.795, 11615.00
1418.845, 11744.00
1419.895, 11748.00
1420.945, 11595.00
1421.995, 11840.00
1423.044, 11603.00
1424.093, 11698.00
1425.142, 11946.00
1426.191, 11844.00
1427.240, 12033.00
1428.289, 11950.00
1429.337, 11996.00
1430.385, 11969.00
1431.433, 12119.00
1432.481, 12011.00
1433.529, 12061.00
1434.577, 12016.00
1435.624, 12219.00
1436.672, 11971.00
1437.719, 12248.00
1438.766, 12139.00
1439.812, 12164.00
1440.859, 12376.00
1441.905, 12177.00
1442.952, 12234.00
1443.998, 12277.00
1445.044, 12383.00
1446.090, 12293.00
1447.135, 12334.00
1448.181, 12395.00
1449.226, 12417.00
1450.271, 12326.00
1451.316, 12216.00
1452.361, 12308.00
1453.405, 12430.00
1454.450, 12258.00
1455.494, 12292.00
1456.538, 12335.00
1457.582, 12275.00
1458.626, 12197.00
1459.670, 12313.00
1460.713, 12377.00
1461.757, 12336.00
1462.800, 12381.00
1463.843, 12353.00
1464.886, 12381.00
1465.928, 12320.00
1466.971, 12416.00
1468.013, 12516.00
1469.055, 12577.00
1470.097, 12391.00
1471.139, 12475.00
1472.181, 12218.00
1473.222, 12490.00
1474.263, 12363.00
1475.305, 12447.00
1476.346, 12272.00
1477.386, 12477.00
1478.427, 12470.00
1479.468, 12471.00
1480.508, 12595.00
1481.548, 12449.00
1482.588, 12364.00
1483.628, 12430.00
1484.668, 12416.00
1485.707, 12539.00
1486.747, 12402.00
1487.786, 12432.00
1488.825, 12535.00
1489.864, 12463.00
1490.902, 12331.00
1491.941, 12460.00
1492.979, 12364.00
1494.017, 12394.00
1495.055, 12286.00
1496.093, 12453.00
1497.131, 12385.00
1498.168, 12501.00
1499.206, 12450.00
1500.243, 12331.00
1501.280, 12363.00
1502.317, 12551.00
1503.354, 12502.00
1504.390, 12449.00
1505.426, 12549.00
1506.463, 12517.00
1507.499, 12505.00
1508.535, 12521.00
1509.570, 12509.00
1510.606, 12455.00
1511.641, 12512.00
1512.676, 12430.00
1513.711, 12527.00
1514.746, 12627.00
1515.781, 12520.00
1516.816, 12554.00
1517.850, 12523.00
1518.884, 12437.00
1519.918, 12468.25
1520.952, 12579.00
1521.986, 12507.00
1523.019, 12519.00
1524.053, 12635.00
1525.086, 12633.00
1526.119, 12617.00
1527.152, 12640.00
1528.185, 12718.00
1529.217, 12638.00
1530.250, 12699.00
1531.282, 12540.00
1532.314, 12764.00
1533.346, 12621.00
1534.377, 12685.00
1535.409, 12661.00
1536.440, 12729.00
1537.472, 12694.00
1538.503, 12690.00
1539.534, 12810.00
1540.564, 12736.00
1541.595, 12966.00
1542.625, 13117.00
1543.656, 13180.00
1544.686, 13246.01
1545.716, 13208.13
1546.745, 13233.00
1547.775, 13061.00
1548.804, 13028.00
1549.834, 12981.00
1550.863, 13044.00
1551.892, 13077.00
1552.920, 13074.00
1553.949, 13123.00
1554.977, 13189.00
1556.006, 13150.00
1557.034, 12888.00
1558.062, 12928.00
1559.089, 13011.00
1560.117, 12951.00
1561.144, 13090.00
1562.172, 13110.00
1563.199, 12937.00
1564.226, 12894.00
1565.252, 13136.00
1566.279, 12893.00
1567.305, 13562.00
1568.332, 13126.00
1569.358, 12994.00
1570.384, 13221.00
##END=



