##NAMES=Catapleiite
##RRUFFID=R060198
##IDEAL CHEMISTRY=Na_2_Zr^4+^Si_3_O_9_&#183;2H_2_O
##LOCALITY=Mont Saint-Hilaire, Rouville County, Quebec, Canada
##OWNER=RRUFF
##SOURCE=Royal Ontario Museum
##DESCRIPTION=Tan colored pseudohexagonal tabular crystals
##STATUS=The identification of this mineral has been confirmed by X-ray diffraction and chemical analysis
##URL=rruff.info/R060198
##MEASURED CHEMISTRY=(Na_1.92_Ca_0.04_[box]_0.04_)_Σ=2_Zr_1.00_Si_3.00_O_9_·2H_2_O
##PIN_ID=L00755
##ORIENTATION=Laser parallel to -a* (-1 0 0). Fiducial mark perpendicular to laser is parallel to -b [0 -1 0]
95.94800, 8961.000
97.18200, 9018.000
98.41600, 9113.000
99.64900, 9118.000
100.8830, 9100.000
102.1160, 9133.000
103.3490, 9173.000
104.5820, 9335.000
105.8150, 9673.000
107.0470, 10146.00
108.2800, 10143.02
109.5120, 10852.00
110.7440, 10228.00
111.9760, 10150.00
113.2080, 10095.00
114.4400, 10405.00
115.6710, 10531.00
116.9030, 10332.00
118.1340, 10229.00
119.3650, 10026.00
120.5960, 9797.000
121.8270, 9732.000
123.0580, 9676.000
124.2880, 9733.000
125.5190, 9677.933
126.7490, 9618.000
127.9790, 9697.000
129.2090, 9761.000
130.4390, 9861.000
131.6680, 9864.362
132.8980, 9911.000
134.1270, 9916.000
135.3560, 9965.000
136.5850, 10088.00
137.8140, 10490.00
139.0430, 10657.00
140.2710, 10658.00
141.5000, 10713.00
142.7280, 10747.00
143.9560, 10679.00
145.1840, 10695.00
146.4120, 10816.00
147.6390, 10744.00
148.8670, 10691.00
150.0940, 10856.00
151.3210, 10883.00
152.5490, 10898.00
153.7750, 10785.00
155.0020, 10855.00
156.2290, 10760.00
157.4550, 10676.00
158.6810, 10582.00
159.9080, 10532.75
161.1340, 10539.00
162.3590, 10455.00
163.5850, 10471.00
164.8110, 10463.00
166.0360, 10416.00
167.2610, 10384.08
168.4860, 10337.00
169.7110, 10294.00
170.9360, 10215.00
172.1610, 10221.00
173.3850, 10190.11
174.6100, 10114.00
175.8340, 10214.00
177.0580, 10185.00
178.2820, 10269.00
179.5050, 10296.00
180.7290, 10518.00
181.9520, 10575.00
183.1760, 10632.00
184.3990, 10770.00
185.6220, 10925.19
186.8450, 11134.00
188.0670, 11350.00
189.2900, 11651.00
190.5120, 11935.54
191.7340, 12237.10
192.9560, 12554.00
194.1780, 12888.00
195.4000, 13209.00
196.6220, 13541.00
197.8430, 13727.00
199.0640, 14024.00
200.2860, 14315.00
201.5070, 14461.00
202.7270, 14662.00
203.9480, 14584.00
205.1690, 14304.00
206.3890, 14249.00
207.6090, 14105.00
208.8290, 14154.00
210.0490, 13889.00
211.2690, 13502.00
212.4890, 13063.00
213.7080, 12788.00
214.9280, 12265.00
216.1470, 11752.00
217.3660, 11362.00
218.5850, 10643.00
219.8030, 10345.00
221.0220, 9987.000
222.2400, 9513.000
223.4590, 9257.000
224.6770, 9041.000
225.8950, 8785.000
227.1120, 8646.000
228.3300, 8326.000
229.5480, 8089.000
230.7650, 7920.000
231.9820, 7833.000
233.1990, 7711.000
234.4160, 7612.000
235.6330, 7540.843
236.8490, 7273.000
238.0660, 7396.000
239.2820, 7244.000
240.4980, 7145.000
241.7140, 7185.000
242.9300, 7050.000
244.1460, 7065.000
245.3610, 6947.000
246.5770, 6921.000
247.7920, 7081.000
249.0070, 6925.000
250.2220, 6905.000
251.4370, 7077.000
252.6510, 6950.000
253.8660, 6967.000
255.0800, 7001.000
256.2940, 6949.000
257.5080, 6980.000
258.7220, 6996.973
259.9360, 6957.022
261.1490, 6946.162
262.3630, 6894.000
263.5760, 6846.000
264.7890, 6791.000
266.0020, 6762.575
267.2150, 6773.000
268.4270, 6703.000
269.6400, 6665.000
270.8520, 6623.000
272.0640, 6691.000
273.2760, 6631.000
274.4880, 6582.000
275.7000, 6736.000
276.9120, 6782.000
278.1230, 6800.000
279.3340, 6752.000
280.5450, 6811.000
281.7560, 6825.000
282.9670, 6780.000
284.1780, 6810.000
285.3880, 6908.000
286.5980, 6940.000
287.8090, 6928.000
289.0190, 7060.000
290.2290, 7048.000
291.4380, 7096.000
292.6480, 7213.000
293.8570, 7166.000
295.0670, 7147.000
296.2760, 7142.000
297.4850, 7132.000
298.6930, 7202.000
299.9020, 7109.000
301.1110, 7034.000
302.3190, 7174.000
303.5270, 7070.000
304.7350, 6952.000
305.9430, 6987.000
307.1510, 6940.000
308.3580, 7062.000
309.5660, 7000.000
310.7730, 7094.000
311.9800, 7023.000
313.1870, 6995.000
314.3940, 6982.000
315.6010, 7067.000
316.8070, 6998.000
318.0130, 7121.000
319.2200, 7058.000
320.4260, 7127.000
321.6310, 7162.000
322.8370, 7217.000
324.0430, 7180.000
325.2480, 7149.000
326.4540, 7199.000
327.6590, 7331.000
328.8640, 7175.000
330.0680, 7026.000
331.2730, 7131.000
332.4780, 7149.000
333.6820, 7131.000
334.8860, 7050.000
336.0900, 7120.000
337.2940, 7018.000
338.4980, 7118.000
339.7010, 7052.000
340.9050, 7115.000
342.1080, 7120.000
343.3110, 7017.000
344.5140, 7155.000
345.7170, 7055.000
346.9200, 7187.000
348.1220, 7228.000
349.3240, 7313.000
350.5270, 7458.000
351.7290, 7549.000
352.9310, 7605.000
354.1320, 7731.000
355.3340, 7800.000
356.5350, 7884.000
357.7370, 7960.869
358.9380, 8013.000
360.1390, 8077.000
361.3400, 8072.000
362.5400, 8097.000
363.7410, 8107.230
364.9410, 8098.000
366.1410, 8103.000
367.3410, 8062.000
368.5410, 8046.229
369.7410, 7913.000
370.9400, 7896.000
372.1400, 7778.000
373.3390, 7638.000
374.5380, 7628.000
375.7370, 7631.000
376.9360, 7587.000
378.1350, 7526.000
379.3330, 7528.458
380.5310, 7511.000
381.7300, 7516.000
382.9280, 7545.000
384.1260, 7574.000
385.3230, 7451.000
386.5210, 7594.000
387.7180, 7464.000
388.9160, 7555.000
390.1130, 7533.000
391.3100, 7576.000
392.5060, 7588.000
393.7030, 7570.000
394.9000, 7699.000
396.0960, 7615.000
397.2920, 7731.000
398.4880, 7812.000
399.6840, 7838.000
400.8800, 7940.000
402.0750, 8044.000
403.2710, 8141.000
404.4660, 8344.000
405.6610, 8435.000
406.8560, 8650.000
408.0510, 8836.000
409.2450, 9075.000
410.4400, 9397.000
411.6340, 9833.000
412.8280, 10214.00
414.0220, 10620.00
415.2160, 11230.00
416.4100, 11853.00
417.6030, 12650.00
418.7970, 13632.00
419.9900, 14629.00
421.1830, 15689.00
422.3760, 16752.00
423.5690, 17954.00
424.7610, 18704.00
425.9540, 19352.00
427.1460, 19519.00
428.3380, 19453.00
429.5300, 18773.00
430.7220, 17944.00
431.9140, 17132.00
433.1050, 15912.00
434.2970, 14862.00
435.4880, 13698.00
436.6790, 12817.00
437.8700, 12205.00
439.0610, 11608.00
440.2510, 11082.00
441.4420, 10522.00
442.6320, 10172.00
443.8220, 9741.000
445.0120, 9617.000
446.2020, 9298.000
447.3910, 9111.000
448.5810, 8779.000
449.7700, 8681.000
450.9600, 8413.000
452.1490, 8539.000
453.3370, 8287.000
454.5260, 8329.000
455.7150, 8173.000
456.9030, 8145.000
458.0910, 8138.000
459.2800, 8144.000
460.4670, 8048.640
461.6550, 8007.893
462.8430, 7901.000
464.0300, 7845.000
465.2180, 7864.000
466.4050, 7784.000
467.5920, 7665.000
468.7790, 7752.000
469.9650, 7749.000
471.1520, 7758.000
472.3380, 7665.000
473.5250, 7769.000
474.7110, 7565.000
475.8970, 7813.000
477.0820, 7719.000
478.2680, 7637.000
479.4540, 7613.000
480.6390, 7697.000
481.8240, 7739.000
483.0090, 7676.000
484.1940, 7701.000
485.3780, 7570.000
486.5630, 7706.000
487.7470, 7749.000
488.9320, 7818.000
490.1160, 7696.000
491.3000, 7830.000
492.4830, 7801.000
493.6670, 7861.000
494.8500, 7826.000
496.0340, 7921.000
497.2170, 7962.009
498.4000, 8040.000
499.5820, 8105.000
500.7650, 8146.128
501.9480, 8077.000
503.1300, 8239.000
504.3120, 8189.000
505.4940, 8238.000
506.6760, 8433.000
507.8580, 8598.000
509.0390, 8741.000
510.2210, 8769.000
511.4020, 8909.000
512.5830, 9074.000
513.7640, 9168.000
514.9450, 9445.000
516.1250, 9645.000
517.3060, 9670.000
518.4860, 9938.000
519.6660, 10057.00
520.8460, 9916.000
522.0260, 10039.00
523.2060, 9955.000
524.3850, 9993.000
525.5650, 9973.000
526.7440, 9795.000
527.9230, 9761.000
529.1020, 9522.000
530.2810, 9484.000
531.4590, 9203.000
532.6380, 9182.000
533.8160, 9182.000
534.9940, 8985.000
536.1720, 8850.000
537.3500, 8946.000
538.5270, 8816.000
539.7050, 8834.000
540.8820, 8782.000
542.0590, 8738.000
543.2360, 8701.000
544.4130, 8766.000
545.5900, 8797.000
546.7660, 8931.000
547.9430, 8886.000
549.1190, 8922.000
550.2950, 9079.000
551.4710, 9160.000
552.6470, 9333.000
553.8220, 9763.000
554.9980, 10050.00
556.1730, 10390.00
557.3480, 10922.00
558.5230, 11461.00
559.6980, 12134.00
560.8730, 12652.00
562.0470, 13318.00
563.2220, 13932.00
564.3960, 14568.00
565.5700, 14870.00
566.7440, 15500.00
567.9170, 15762.00
569.0910, 15767.00
570.2640, 15813.00
571.4380, 15483.00
572.6110, 14988.00
573.7840, 14475.00
574.9570, 13803.00
576.1290, 12906.00
577.3020, 12210.00
578.4740, 11497.00
579.6460, 10814.00
580.8180, 10265.00
581.9900, 9849.000
583.1620, 9430.000
584.3330, 9076.000
585.5040, 8876.000
586.6760, 8589.000
587.8470, 8564.000
589.0180, 8261.000
590.1880, 8212.000
591.3590, 8112.000
592.5290, 8073.000
593.7000, 8025.272
594.8700, 7879.000
596.0400, 7975.000
597.2090, 7911.000
598.3790, 7928.000
599.5490, 8010.000
600.7180, 7901.000
601.8870, 8063.000
603.0560, 7976.000
604.2250, 8084.000
605.3940, 8198.000
606.5620, 8244.000
607.7300, 8190.000
608.8990, 8491.000
610.0670, 8575.000
611.2350, 8824.000
612.4020, 9081.000
613.5700, 9437.000
614.7370, 9758.000
615.9050, 10166.00
617.0720, 10773.00
618.2390, 11378.00
619.4060, 12201.00
620.5720, 13115.00
621.7390, 14524.00
622.9050, 15816.00
624.0710, 17005.00
625.2370, 18157.00
626.4030, 19419.00
627.5690, 19822.00
628.7340, 19444.00
629.9000, 18917.00
631.0650, 17596.00
632.2300, 15965.00
633.3950, 14568.00
634.5600, 13124.00
635.7240, 12165.00
636.8890, 11112.00
638.0530, 10421.00
639.2170, 9756.000
640.3810, 9389.000
641.5450, 8940.000
642.7080, 8825.000
643.8720, 8561.000
645.0350, 8359.000
646.1980, 8317.000
647.3610, 8015.000
648.5240, 8092.000
649.6870, 7875.000
650.8490, 7860.000
652.0120, 7898.000
653.1740, 7758.000
654.3360, 7681.000
655.4980, 7745.000
656.6600, 7652.000
657.8210, 7761.000
658.9830, 7670.000
660.1440, 7629.000
661.3050, 7675.110
662.4660, 7921.000
663.6270, 7728.000
664.7870, 7694.000
665.9480, 7764.000
667.1080, 7591.000
668.2680, 7676.000
669.4280, 7671.000
670.5880, 7591.000
671.7480, 7713.000
672.9070, 7779.000
674.0670, 7792.000
675.2260, 7688.000
676.3850, 7800.000
677.5440, 7747.000
678.7030, 7713.000
679.8610, 7699.000
681.0200, 7696.000
682.1780, 7795.000
683.3360, 7760.000
684.4940, 7839.000
685.6520, 7818.000
686.8090, 7784.000
687.9670, 7855.000
689.1240, 7799.000
690.2810, 7822.000
691.4380, 7847.000
692.5950, 7757.000
693.7520, 7711.000
694.9080, 7781.000
696.0650, 7686.000
697.2210, 7785.000
698.3770, 7820.000
699.5330, 7683.000
700.6880, 7724.000
701.8440, 7760.000
702.9990, 7750.000
704.1550, 7772.000
705.3100, 7770.000
706.4650, 7788.000
707.6190, 7863.000
708.7740, 7901.000
709.9290, 8001.000
711.0830, 8046.000
712.2370, 8106.000
713.3910, 7993.000
714.5450, 7941.000
715.6980, 7923.000
716.8520, 8023.000
718.0050, 8033.000
719.1580, 8052.000
720.3110, 8099.000
721.4640, 8118.176
722.6170, 8156.614
723.7700, 8180.000
724.9220, 8250.000
726.0740, 8277.000
727.2260, 8316.421
728.3780, 8278.000
729.5300, 8380.000
730.6810, 8412.000
731.8330, 8429.000
732.9840, 8513.000
734.1350, 8512.000
735.2860, 8542.000
736.4370, 8548.000
737.5880, 8390.000
738.7380, 8383.000
739.8880, 8456.000
741.0390, 8290.000
742.1890, 8300.000
743.3380, 8276.000
744.4880, 8217.000
745.6380, 8141.000
746.7870, 8081.000
747.9360, 8124.000
749.0850, 8134.000
750.2340, 8089.000
751.3830, 8095.000
752.5310, 8008.000
753.6800, 7890.000
754.8280, 7906.000
755.9760, 7865.000
757.1240, 7951.000
758.2720, 8101.000
759.4190, 7926.000
760.5670, 7828.000
761.7140, 7971.000
762.8610, 7880.000
764.0080, 7854.000
765.1550, 8014.000
766.3020, 7955.000
767.4480, 7951.000
768.5950, 7857.000
769.7410, 7817.000
770.8870, 7976.000
772.0330, 7908.000
773.1780, 7891.000
774.3240, 7959.000
775.4690, 7852.000
776.6140, 8029.000
777.7590, 7967.000
778.9040, 8077.000
780.0490, 8020.000
781.1940, 8019.000
782.3380, 8090.000
783.4820, 8042.000
784.6260, 8024.000
785.7700, 8059.000
786.9140, 8032.000
788.0580, 8002.000
789.2010, 8125.000
790.3450, 8139.000
791.4880, 8016.000
792.6310, 8148.000
793.7730, 8260.000
794.9160, 8154.000
796.0590, 8239.000
797.2010, 8183.000
798.3430, 8166.000
799.4850, 8244.000
800.6270, 8289.000
801.7690, 8250.000
802.9100, 8219.000
804.0520, 8228.000
805.1930, 8241.637
806.3340, 8381.000
807.4750, 8262.000
808.6160, 8413.000
809.7560, 8319.000
810.8970, 8519.000
812.0370, 8465.000
813.1770, 8565.000
814.3170, 8403.000
815.4570, 8641.000
816.5960, 8562.000
817.7360, 8623.000
818.8750, 8784.000
820.0140, 8642.000
821.1530, 8823.000
822.2920, 8755.000
823.4310, 8776.000
824.5690, 8891.000
825.7070, 8934.624
826.8460, 9066.231
827.9840, 9088.000
829.1220, 9365.000
830.2590, 9309.000
831.3970, 9488.000
832.5340, 9526.000
833.6710, 9629.000
834.8080, 9696.000
835.9450, 9666.000
837.0820, 9662.000
838.2190, 9631.000
839.3550, 9507.000
840.4910, 9500.000
841.6270, 9474.000
842.7630, 9458.000
843.8990, 9492.000
845.0350, 9402.000
846.1700, 9505.000
847.3060, 9441.000
848.4410, 9450.000
849.5760, 9538.000
850.7100, 9494.000
851.8450, 9334.000
852.9800, 9398.000
854.1140, 9282.000
855.2480, 9300.000
856.3820, 9185.000
857.5160, 9300.000
858.6500, 9175.000
859.7830, 9240.000
860.9170, 9222.000
862.0500, 9186.000
863.1830, 9196.000
864.3160, 9255.000
865.4480, 9151.000
866.5810, 9180.000
867.7130, 9101.000
868.8460, 9155.000
869.9780, 9098.000
871.1100, 9265.000
872.2410, 9206.000
873.3730, 9242.000
874.5050, 9252.000
875.6360, 9159.000
876.7670, 9117.000
877.8980, 9288.000
879.0290, 9302.000
880.1590, 9285.000
881.2900, 9185.000
882.4200, 9431.000
883.5500, 9372.000
884.6800, 9358.000
885.8100, 9258.000
886.9400, 9525.000
888.0690, 9398.000
889.1990, 9506.000
890.3280, 9515.000
891.4570, 9526.000
892.5860, 9704.000
893.7140, 9632.000
894.8430, 9724.000
895.9710, 9545.000
897.1000, 9894.000
898.2280, 9886.000
899.3560, 10082.00
900.4830, 10200.00
901.6110, 10352.00
902.7380, 10721.00
903.8660, 11087.00
904.9930, 11444.00
906.1200, 11944.00
907.2460, 12258.00
908.3730, 12736.00
909.5000, 13288.00
910.6260, 13555.00
911.7520, 13766.00
912.8780, 13789.00
914.0040, 13901.00
915.1290, 14072.00
916.2550, 14522.00
917.3800, 14995.00
918.5050, 15712.00
919.6300, 16851.00
920.7550, 17914.00
921.8800, 19012.00
923.0040, 20531.00
924.1290, 21860.00
925.2530, 23786.00
926.3770, 25575.00
927.5010, 26823.00
928.6250, 28222.00
929.7480, 29268.00
930.8720, 30112.00
931.9950, 30368.00
933.1180, 30276.00
934.2410, 29310.00
935.3640, 28451.00
936.4860, 27214.00
937.6090, 25649.00
938.7310, 24018.00
939.8530, 22925.00
940.9750, 21925.00
942.0970, 21052.00
943.2180, 20380.00
944.3400, 19953.00
945.4610, 19498.00
946.5820, 18843.00
947.7030, 18026.00
948.8240, 17104.00
949.9450, 15869.00
951.0650, 15139.00
952.1860, 14229.00
953.3060, 13678.00
954.4260, 13153.00
955.5460, 12949.00
956.6650, 12651.00
957.7850, 12237.00
958.9040, 12163.00
960.0230, 12046.00
961.1420, 11891.00
962.2610, 12042.00
963.3800, 11830.00
964.4990, 11928.00
965.6170, 12028.00
966.7350, 11845.00
967.8530, 12034.00
968.9710, 12146.00
970.0890, 12189.00
971.2070, 12416.00
972.3240, 12435.00
973.4410, 12568.00
974.5580, 12860.00
975.6750, 13215.00
976.7920, 13535.00
977.9090, 13933.00
979.0250, 14195.00
980.1410, 14565.00
981.2580, 15253.00
982.3740, 15816.00
983.4890, 16464.00
984.6050, 17458.00
985.7200, 18492.00
986.8360, 19857.00
987.9510, 21552.00
989.0660, 23439.00
990.1810, 25710.00
991.2950, 28846.00
992.4100, 31666.00
993.5240, 35095.00
994.6390, 39264.00
995.7530, 43422.00
996.8660, 47340.00
997.9800, 51575.00
999.0940, 54682.00
1000.207, 57679.00
1001.320, 59984.00
1002.433, 61466.00
1003.546, 61969.00
1004.659, 61758.00
1005.772, 60958.00
1006.884, 59531.00
1007.996, 57578.00
1009.108, 55069.00
1010.220, 52209.00
1011.332, 49634.00
1012.444, 46352.00
1013.555, 43997.00
1014.666, 40744.00
1015.777, 37986.00
1016.888, 35208.00
1017.999, 32539.00
1019.110, 29941.00
1020.220, 28038.00
1021.331, 25672.00
1022.441, 23866.00
1023.551, 22476.00
1024.661, 21523.00
1025.770, 20240.00
1026.880, 19265.00
1027.989, 18396.00
1029.098, 17821.00
1030.207, 17348.00
1031.316, 16834.00
1032.425, 16601.00
1033.533, 16189.00
1034.642, 16167.00
1035.750, 15950.00
1036.858, 15992.00
1037.966, 15882.00
1039.073, 15815.00
1040.181, 15496.00
1041.288, 15179.00
1042.396, 14893.00
1043.503, 14586.76
1044.610, 14353.51
1045.716, 13979.00
1046.823, 13954.00
1047.929, 13625.00
1049.036, 13519.00
1050.142, 13427.00
1051.248, 13242.00
1052.353, 13080.00
1053.459, 12951.00
1054.564, 12806.00
1055.670, 12769.00
1056.775, 12736.00
1057.880, 12602.00
1058.985, 12593.00
1060.089, 12438.00
1061.194, 12580.00
1062.298, 12473.00
1063.402, 12553.00
1064.506, 12529.00
1065.610, 12570.00
1066.713, 12702.00
1067.817, 12699.00
1068.920, 12841.00
1070.023, 12930.00
1071.126, 13141.00
1072.229, 13324.00
1073.332, 13462.00
1074.435, 13795.00
1075.537, 14256.00
1076.639, 14571.00
1077.741, 15103.13
1078.843, 15444.00
1079.945, 16262.00
1081.046, 17028.00
1082.148, 17840.00
1083.249, 19011.00
1084.350, 20821.00
1085.451, 21923.00
1086.551, 21935.00
1087.652, 21654.00
1088.752, 21507.00
1089.853, 21105.85
1090.953, 20634.73
1092.053, 20001.00
1093.152, 19350.00
1094.252, 18405.00
1095.351, 17384.00
1096.451, 16883.00
1097.550, 15872.00
1098.649, 15128.00
1099.748, 14626.00
1100.846, 14020.00
1101.945, 13719.00
1103.043, 13408.00
1104.141, 13214.00
1105.239, 12942.00
1106.337, 12584.00
1107.434, 12542.00
1108.532, 12235.00
1109.629, 12211.00
1110.726, 12108.00
1111.823, 12053.00
1112.920, 11988.51
1114.017, 11979.00
1115.113, 11902.00
1116.210, 11816.00
1117.306, 11878.00
1118.402, 12043.00
1119.498, 11891.00
1120.593, 12035.00
1121.689, 11979.00
1122.784, 12014.00
1123.879, 12151.00
1124.974, 11853.00
1126.069, 11772.00
1127.164, 11666.00
1128.259, 11793.00
1129.353, 11505.00
1130.447, 11577.00
1131.541, 11504.00
1132.635, 11514.00
1133.729, 11487.00
1134.822, 11622.00
1135.916, 11448.00
1137.009, 11523.00
1138.102, 11598.00
1139.195, 11464.00
1140.288, 11515.00
1141.380, 11519.00
1142.473, 11555.00
1143.565, 11429.00
1144.657, 11540.00
1145.749, 11415.00
1146.841, 11487.00
1147.932, 11493.00
1149.024, 11451.00
1150.115, 11530.00
1151.206, 11455.00
1152.297, 11381.00
1153.388, 11363.00
1154.479, 11478.00
1155.569, 11473.00
1156.659, 11475.00
1157.750, 11470.00
1158.839, 11426.00
1159.929, 11434.00
1161.019, 11395.00
1162.108, 11388.00
1163.198, 11390.00
1164.287, 11385.00
1165.376, 11509.00
1166.465, 11555.00
1167.553, 11442.00
1168.642, 11341.00
1169.730, 11399.00
1170.818, 11264.00
1171.906, 11463.00
1172.994, 11247.00
1174.082, 11379.00
1175.170, 11361.00
1176.257, 11384.00
1177.344, 11391.00
1178.431, 11333.00
1179.518, 11350.00
1180.605, 11335.00
1181.691, 11346.00
1182.778, 11317.00
1183.864, 11280.00
1184.950, 11220.00
1186.036, 11226.00
1187.122, 11305.00
1188.207, 11363.00
1189.292, 11237.00
1190.378, 11265.00
1191.463, 11195.00
1192.548, 11243.00
1193.632, 11204.11
1194.717, 11278.00
1195.801, 11171.00
1196.886, 11217.00
1197.970, 11238.00
1199.054, 11204.00
1200.137, 11189.00
1201.221, 11233.00
1202.305, 11284.00
1203.388, 11174.00
1204.471, 11198.00
1205.554, 11286.00
1206.637, 11360.00
1207.719, 11107.00
1208.802, 11308.00
1209.884, 11182.00
1210.966, 11291.00
1212.048, 11304.00
1213.130, 11178.00
1214.212, 11179.00
1215.293, 11243.00
1216.374, 11212.00
1217.456, 11225.00
1218.536, 11249.00
1219.617, 11239.00
1220.698, 11262.00
1221.778, 11241.00
1222.859, 11294.00
1223.939, 11387.00
1225.019, 11319.00
1226.099, 11326.00
1227.178, 11306.00
1228.258, 11276.00
1229.337, 11481.00
1230.417, 11483.00
1231.496, 11463.00
1232.574, 11481.00
1233.653, 11374.00
1234.732, 11492.00
1235.810, 11435.00
1236.888, 11443.00
1237.966, 11544.00
1239.044, 11476.00
1240.122, 11425.00
1241.199, 11412.00
1242.277, 11515.00
1243.354, 11460.00
1244.431, 11516.00
1245.508, 11573.00
1246.585, 11500.00
1247.661, 11603.00
1248.738, 11652.00
1249.814, 11685.00
1250.890, 11698.09
1251.966, 11659.00
1253.042, 11699.00
1254.117, 11551.00
1255.193, 11608.00
1256.268, 11614.00
1257.343, 11658.00
1258.418, 11777.00
1259.493, 11744.00
1260.567, 11722.00
1261.642, 11749.00
1262.716, 11678.00
1263.790, 11695.00
1264.864, 11705.00
1265.938, 11806.00
1267.011, 11787.84
1268.085, 11811.76
1269.158, 11807.00
1270.231, 11788.00
1271.304, 11795.00
1272.377, 11781.14
1273.450, 11712.00
1274.522, 11764.00
1275.594, 11771.00
1276.666, 11762.70
1277.738, 11823.00
1278.810, 11760.00
1279.882, 11786.00
1280.953, 11820.00
1282.025, 11905.00
1283.096, 11919.00
1284.167, 11936.00
1285.238, 11949.00
1286.308, 11956.00
1287.379, 11922.00
1288.449, 11949.80
1289.519, 11951.64
1290.589, 11982.00
1291.659, 11969.00
1292.729, 11995.00
1293.798, 11975.00
1294.868, 11986.00
1295.937, 12042.00
1297.006, 12003.20
1298.075, 12023.00
1299.143, 11978.00
1300.212, 12090.00
1301.280, 12112.00
1302.348, 12015.00
1303.416, 12101.00
1304.484, 11887.00
1305.552, 11920.00
1306.620, 12015.00
1307.687, 11957.00
1308.754, 12031.00
1309.821, 11942.00
1310.888, 12009.00
1311.955, 11893.00
1313.021, 11968.00
1314.088, 11996.00
1315.154, 12012.00
1316.220, 12044.82
1317.286, 11967.00
1318.352, 12039.00
1319.417, 12034.00
1320.483, 11960.00
1321.548, 12094.00
1322.613, 12147.00
1323.678, 12050.00
1324.743, 12101.00
1325.807, 12104.00
1326.872, 12132.00
1327.936, 12029.00
1329.000, 12159.00
1330.064, 12034.00
1331.128, 12095.00
1332.191, 12182.00
1333.255, 12251.00
1334.318, 12423.00
1335.381, 12227.00
1336.444, 12256.00
1337.507, 12430.00
1338.569, 12411.00
1339.632, 12463.00
1340.694, 12428.00
1341.756, 12543.00
1342.818, 12528.00
1343.880, 12372.00
1344.941, 12572.00
1346.003, 12590.00
1347.064, 12606.00
1348.125, 12441.00
1349.186, 12441.00
1350.247, 12652.00
1351.308, 12723.00
1352.368, 12821.00
1353.428, 12860.00
1354.489, 12886.00
1355.549, 12863.00
1356.608, 13279.00
1357.668, 13331.00
1358.727, 13415.00
1359.787, 13649.00
1360.846, 13538.00
1361.905, 13467.00
1362.964, 13498.00
1364.022, 13468.00
1365.081, 13292.00
1366.139, 13192.00
1367.197, 13028.00
1368.255, 12872.00
1369.313, 12804.00
1370.371, 12717.00
1371.428, 12703.00
1372.486, 12752.00
1373.543, 12669.64
1374.600, 12516.00
1375.657, 12573.00
1376.713, 12572.00
1377.770, 12506.00
1378.826, 12652.00
1379.882, 12598.00
1380.938, 12639.00
1381.994, 12718.00
1383.050, 12605.00
1384.106, 12653.00
1385.161, 12673.00
1386.216, 12758.00
1387.271, 12900.00
1388.326, 13044.00
1389.381, 13042.00
1390.435, 13225.00
1391.490, 13240.00
1392.544, 13298.00
1393.598, 13486.00
1394.652, 13632.00
1395.705, 13728.00
1396.759, 13492.00
1397.812, 13455.00
1398.866, 13334.00
1399.919, 13067.00
1400.972, 12983.00
1402.024, 12754.00
1403.077, 12705.00
1404.129, 12604.00
1405.181, 12393.00
1406.233, 12429.00
1407.285, 12434.00
1408.337, 12402.00
1409.389, 12392.00
1410.440, 12500.00
1411.491, 12467.00
1412.542, 12425.00
1413.593, 12260.00
1414.644, 12378.00
1415.695, 12260.00
1416.745, 12318.00
1417.795, 12494.00
1418.845, 12450.00
1419.895, 12445.00
1420.945, 12435.00
1421.995, 12497.00
1423.044, 12652.00
1424.093, 12729.00
1425.142, 12730.00
1426.191, 12653.00
1427.240, 12818.00
1428.289, 12702.00
1429.337, 12579.00
1430.385, 12793.00
1431.433, 12813.00
1432.481, 12647.00
1433.529, 12755.00
1434.577, 12794.00
1435.624, 12828.00
1436.672, 12885.00
1437.719, 12917.00
1438.766, 13028.00
1439.812, 13000.00
1440.859, 13032.00
1441.905, 12982.00
1442.952, 13077.00
1443.998, 13081.00
1445.044, 13183.00
1446.090, 13181.00
1447.135, 13115.00
1448.181, 13265.00
1449.226, 13075.00
1450.271, 13185.00
1451.316, 13090.00
1452.361, 13122.00
1453.405, 13112.00
1454.450, 13143.00
1455.494, 13125.00
1456.538, 13140.74
1457.582, 13116.00
1458.626, 13174.00
1459.670, 13233.00
1460.713, 13285.00
1461.757, 13475.00
1462.800, 13346.00
1463.843, 13222.00
1464.886, 13233.00
1465.928, 13347.00
1466.971, 13284.00
1468.013, 13327.00
1469.055, 13334.00
1470.097, 13433.00
1471.139, 13309.00
1472.181, 13199.00
1473.222, 13360.00
1474.263, 13328.00
1475.305, 13362.00
1476.346, 13342.00
1477.386, 13423.00
1478.427, 13318.00
1479.468, 13451.00
1480.508, 13259.00
1481.548, 13317.00
1482.588, 13366.00
1483.628, 13432.00
1484.668, 13459.76
1485.707, 13461.09
1486.747, 13503.00
1487.786, 13440.00
1488.825, 13425.00
1489.864, 13435.00
1490.902, 13406.00
1491.941, 13403.00
1492.979, 13450.00
1494.017, 13343.00
1495.055, 13479.00
1496.093, 13364.00
1497.131, 13327.00
1498.168, 13418.00
1499.206, 13423.00
1500.243, 13538.00
1501.280, 13566.00
1502.317, 13519.00
1503.354, 13550.00
1504.390, 13574.00
1505.426, 13510.00
1506.463, 13559.33
1507.499, 13464.00
1508.535, 13590.00
1509.570, 13531.00
1510.606, 13530.00
1511.641, 13549.00
1512.676, 13508.00
1513.711, 13436.00
1514.746, 13465.89
1515.781, 13438.44
1516.816, 13478.00
1517.850, 13470.00
1518.884, 13469.00
1519.918, 13528.00
1520.952, 13532.00
1521.986, 13627.00
1523.019, 13653.65
1524.053, 13735.00
1525.086, 13736.51
1526.119, 13786.81
1527.152, 13814.00
1528.185, 13787.00
1529.217, 13792.00
1530.250, 13571.00
1531.282, 13758.00
1532.314, 13845.00
1533.346, 13921.00
1534.377, 13705.00
1535.409, 13737.00
1536.440, 13679.00
1537.472, 13665.47
1538.503, 13930.00
1539.534, 13754.00
1540.564, 14044.00
1541.595, 14171.00
1542.625, 14353.00
1543.656, 14265.00
1544.686, 14251.00
1545.716, 14391.00
1546.745, 14143.00
1547.775, 14115.00
1548.804, 14080.00
1549.834, 14004.00
1550.863, 14191.00
1551.892, 14257.00
1552.920, 14207.00
1553.949, 14261.00
1554.977, 14250.00
1556.006, 14211.00
1557.034, 14191.00
1558.062, 14172.00
1559.089, 14207.00
1560.117, 14277.00
1561.144, 14212.00
1562.172, 14408.00
1563.199, 14258.00
1564.226, 14270.00
1565.252, 14446.00
1566.279, 14373.00
1567.305, 14356.00
1568.332, 14457.00
1569.358, 14397.00
1570.384, 14473.00
##END=



