##NAMES=Catapleiite
##RRUFFID=R060198
##IDEAL CHEMISTRY=Na_2_Zr^4+^Si_3_O_9_&#183;2H_2_O
##LOCALITY=Mont Saint-Hilaire, Rouville County, Quebec, Canada
##OWNER=RRUFF
##SOURCE=Royal Ontario Museum
##DESCRIPTION=Tan colored pseudohexagonal tabular crystals
##STATUS=The identification of this mineral has been confirmed by X-ray diffraction and chemical analysis
##URL=rruff.info/R060198
##MEASURED CHEMISTRY=(Na_1.92_Ca_0.04_[box]_0.04_)_Σ=2_Zr_1.00_Si_3.00_O_9_·2H_2_O
##PIN_ID=L00755
##ORIENTATION=Laser parallel to -a* (-1 0 0). Fiducial mark perpendicular to laser is parallel to -b [0 -1 0]
95.94800, 11741.00
97.18200, 11779.00
98.41600, 11759.00
99.64900, 11808.00
100.8830, 11952.00
102.1160, 11826.00
103.3490, 11981.00
104.5820, 12099.00
105.8150, 12354.00
107.0470, 12898.00
108.2800, 12853.95
109.5120, 13003.21
110.7440, 13052.00
111.9760, 12989.00
113.2080, 13198.00
114.4400, 13274.00
115.6710, 13300.00
116.9030, 13257.00
118.1340, 13282.00
119.3650, 13048.00
120.5960, 12911.00
121.8270, 12942.00
123.0580, 13015.00
124.2880, 13129.00
125.5190, 13016.00
126.7490, 12982.00
127.9790, 12937.00
129.2090, 13182.00
130.4390, 13265.00
131.6680, 13346.00
132.8980, 13370.00
134.1270, 13482.78
135.3560, 13637.00
136.5850, 13709.00
137.8140, 13929.00
139.0430, 14130.00
140.2710, 14182.00
141.5000, 14326.00
142.7280, 14425.00
143.9560, 14540.00
145.1840, 14675.00
146.4120, 14820.94
147.6390, 15126.00
148.8670, 15146.00
150.0940, 15377.00
151.3210, 15545.00
152.5490, 15611.00
153.7750, 15768.00
155.0020, 15805.00
156.2290, 15834.00
157.4550, 16067.00
158.6810, 15789.00
159.9080, 15585.00
161.1340, 15631.00
162.3590, 15367.00
163.5850, 15201.00
164.8110, 14990.00
166.0360, 14559.00
167.2610, 14362.00
168.4860, 13965.00
169.7110, 13823.00
170.9360, 13521.00
172.1610, 13245.00
173.3850, 12815.00
174.6100, 12772.00
175.8340, 12633.00
177.0580, 12315.00
178.2820, 12466.00
179.5050, 12202.00
180.7290, 12021.00
181.9520, 11920.00
183.1760, 12021.00
184.3990, 11961.00
185.6220, 11948.00
186.8450, 12146.00
188.0670, 12056.00
189.2900, 12111.00
190.5120, 12272.00
191.7340, 12379.00
192.9560, 12711.00
194.1780, 12735.00
195.4000, 12915.00
196.6220, 13078.00
197.8430, 13097.00
199.0640, 13452.00
200.2860, 13598.00
201.5070, 13648.00
202.7270, 13766.00
203.9480, 13742.00
205.1690, 13433.00
206.3890, 13388.00
207.6090, 13393.00
208.8290, 13236.00
210.0490, 13141.00
211.2690, 13024.00
212.4890, 12762.00
213.7080, 12569.00
214.9280, 12347.00
216.1470, 12128.00
217.3660, 11848.72
218.5850, 11611.78
219.8030, 11299.00
221.0220, 11102.00
222.2400, 10922.00
223.4590, 10698.00
224.6770, 10535.00
225.8950, 10384.00
227.1120, 10254.28
228.3300, 10161.00
229.5480, 10082.00
230.7650, 10060.00
231.9820, 10043.00
233.1990, 9914.000
234.4160, 9936.000
235.6330, 9900.000
236.8490, 9887.000
238.0660, 9897.000
239.2820, 9727.000
240.4980, 9884.000
241.7140, 9849.000
242.9300, 9686.000
244.1460, 9705.000
245.3610, 9749.000
246.5770, 9736.000
247.7920, 9600.000
249.0070, 9537.000
250.2220, 9596.000
251.4370, 9512.000
252.6510, 9700.000
253.8660, 9594.000
255.0800, 9638.000
256.2940, 9600.000
257.5080, 9724.000
258.7220, 10098.00
259.9360, 10148.00
261.1490, 9890.000
262.3630, 9666.000
263.5760, 9657.000
264.7890, 9494.000
266.0020, 9595.000
267.2150, 9639.000
268.4270, 9477.000
269.6400, 9502.000
270.8520, 9540.000
272.0640, 9512.000
273.2760, 9549.741
274.4880, 9644.000
275.7000, 9588.000
276.9120, 9658.000
278.1230, 9688.000
279.3340, 9782.000
280.5450, 9761.000
281.7560, 9920.000
282.9670, 10023.00
284.1780, 10106.00
285.3880, 10314.00
286.5980, 10358.00
287.8090, 10458.00
289.0190, 10607.00
290.2290, 10746.00
291.4380, 11030.00
292.6480, 11021.00
293.8570, 11282.00
295.0670, 11362.00
296.2760, 11229.00
297.4850, 11330.00
298.6930, 11318.00
299.9020, 11160.00
301.1110, 11188.00
302.3190, 10911.00
303.5270, 10979.00
304.7350, 10838.00
305.9430, 10893.00
307.1510, 10880.00
308.3580, 10672.00
309.5660, 10590.00
310.7730, 10761.00
311.9800, 10668.00
313.1870, 10685.00
314.3940, 10680.00
315.6010, 10519.00
316.8070, 10538.00
318.0130, 10588.00
319.2200, 10547.00
320.4260, 10411.00
321.6310, 10551.00
322.8370, 10482.00
324.0430, 10411.00
325.2480, 10435.00
326.4540, 10395.00
327.6590, 10538.00
328.8640, 10467.00
330.0680, 10410.00
331.2730, 10298.00
332.4780, 10325.00
333.6820, 10320.00
334.8860, 10205.00
336.0900, 10210.00
337.2940, 10138.60
338.4980, 10120.00
339.7010, 10036.00
340.9050, 10096.94
342.1080, 10085.00
343.3110, 10160.00
344.5140, 10139.00
345.7170, 10204.00
346.9200, 10166.00
348.1220, 10106.00
349.3240, 10282.00
350.5270, 10205.00
351.7290, 10299.00
352.9310, 10482.00
354.1320, 10478.00
355.3340, 10575.00
356.5350, 10756.00
357.7370, 10807.00
358.9380, 10789.00
360.1390, 10910.00
361.3400, 10906.00
362.5400, 11022.00
363.7410, 10935.00
364.9410, 11087.00
366.1410, 11151.00
367.3410, 11097.00
368.5410, 11170.00
369.7410, 11048.00
370.9400, 11114.21
372.1400, 11133.00
373.3390, 11146.00
374.5380, 11101.00
375.7370, 11026.00
376.9360, 10969.00
378.1350, 11053.00
379.3330, 11118.00
380.5310, 10913.00
381.7300, 11003.00
382.9280, 10982.00
384.1260, 11119.00
385.3230, 11014.00
386.5210, 11106.00
387.7180, 11151.00
388.9160, 11084.00
390.1130, 11065.00
391.3100, 11255.00
392.5060, 11365.00
393.7030, 11298.00
394.9000, 11410.00
396.0960, 11341.00
397.2920, 11372.00
398.4880, 11727.00
399.6840, 11781.00
400.8800, 11886.00
402.0750, 11938.00
403.2710, 12288.00
404.4660, 12545.00
405.6610, 12807.00
406.8560, 13052.00
408.0510, 13543.00
409.2450, 13891.00
410.4400, 14585.00
411.6340, 14987.00
412.8280, 15909.00
414.0220, 16793.00
415.2160, 17847.00
416.4100, 19174.00
417.6030, 20574.00
418.7970, 22113.00
419.9900, 23968.00
421.1830, 26075.00
422.3760, 28411.00
423.5690, 30702.00
424.7610, 32823.00
425.9540, 34356.00
427.1460, 35322.00
428.3380, 34971.00
429.5300, 34140.00
430.7220, 32474.00
431.9140, 30447.00
433.1050, 28345.00
434.2970, 26338.00
435.4880, 24339.00
436.6790, 22411.00
437.8700, 20833.00
439.0610, 19598.00
440.2510, 18416.00
441.4420, 17511.00
442.6320, 16740.00
443.8220, 16225.00
445.0120, 15350.00
446.2020, 15024.00
447.3910, 14810.00
448.5810, 14426.00
449.7700, 13973.00
450.9600, 13844.00
452.1490, 13495.00
453.3370, 13345.00
454.5260, 13152.00
455.7150, 12947.00
456.9030, 12824.00
458.0910, 12669.35
459.2800, 12605.00
460.4670, 12439.00
461.6550, 12326.00
462.8430, 12240.47
464.0300, 12238.00
465.2180, 12133.00
466.4050, 12157.00
467.5920, 12021.00
468.7790, 11994.00
469.9650, 12028.00
471.1520, 11895.00
472.3380, 11882.00
473.5250, 11899.00
474.7110, 11890.00
475.8970, 11696.00
477.0820, 11801.00
478.2680, 11706.00
479.4540, 11876.00
480.6390, 11801.00
481.8240, 11631.00
483.0090, 11688.00
484.1940, 11695.00
485.3780, 11609.00
486.5630, 11773.00
487.7470, 11731.00
488.9320, 11781.00
490.1160, 11788.00
491.3000, 11714.00
492.4830, 11720.00
493.6670, 11695.00
494.8500, 11842.00
496.0340, 11731.00
497.2170, 11794.00
498.4000, 11886.00
499.5820, 11880.00
500.7650, 12007.00
501.9480, 12007.00
503.1300, 12092.00
504.3120, 12028.00
505.4940, 12193.00
506.6760, 12261.00
507.8580, 12462.00
509.0390, 12508.00
510.2210, 12586.00
511.4020, 12793.00
512.5830, 12999.00
513.7640, 13152.00
514.9450, 13364.00
516.1250, 13515.00
517.3060, 13703.47
518.4860, 13868.00
519.6660, 14041.00
520.8460, 14205.00
522.0260, 14313.00
523.2060, 14389.00
524.3850, 14376.00
525.5650, 14526.00
526.7440, 14457.00
527.9230, 14528.00
529.1020, 14636.00
530.2810, 14609.59
531.4590, 14571.00
532.6380, 14662.00
533.8160, 14591.00
534.9940, 14629.00
536.1720, 14524.00
537.3500, 14577.00
538.5270, 14605.00
539.7050, 14542.00
540.8820, 14687.00
542.0590, 14722.00
543.2360, 14901.00
544.4130, 15039.00
545.5900, 15149.00
546.7660, 15458.00
547.9430, 15594.00
549.1190, 15819.00
550.2950, 16329.00
551.4710, 16854.00
552.6470, 17305.00
553.8220, 18227.00
554.9980, 18957.00
556.1730, 20103.00
557.3480, 21640.00
558.5230, 23019.00
559.6980, 25043.00
560.8730, 27386.00
562.0470, 29738.00
563.2220, 32094.00
564.3960, 34580.00
565.5700, 36553.00
566.7440, 38482.00
567.9170, 39839.00
569.0910, 40301.00
570.2640, 40397.00
571.4380, 39638.00
572.6110, 37947.00
573.7840, 36139.00
574.9570, 33821.00
576.1290, 30819.00
577.3020, 28267.00
578.4740, 25950.00
579.6460, 23719.00
580.8180, 21581.00
581.9900, 20007.00
583.1620, 18619.00
584.3330, 17420.00
585.5040, 16662.00
586.6760, 15788.00
587.8470, 15137.00
589.0180, 14720.00
590.1880, 14208.00
591.3590, 14080.00
592.5290, 13725.00
593.7000, 13680.00
594.8700, 13530.00
596.0400, 13444.00
597.2090, 13133.00
598.3790, 13255.00
599.5490, 13085.00
600.7180, 13059.00
601.8870, 13046.00
603.0560, 13016.00
604.2250, 13309.00
605.3940, 13384.00
606.5620, 13453.00
607.7300, 13520.00
608.8990, 13756.00
610.0670, 13950.00
611.2350, 14393.00
612.4020, 14795.00
613.5700, 15454.00
614.7370, 16013.00
615.9050, 16894.00
617.0720, 17845.00
618.2390, 19136.00
619.4060, 20614.00
620.5720, 22322.00
621.7390, 24825.00
622.9050, 27397.00
624.0710, 30604.00
625.2370, 33767.00
626.4030, 36644.00
627.5690, 38553.00
628.7340, 38799.00
629.9000, 37601.00
631.0650, 34844.00
632.2300, 31524.00
633.3950, 28034.00
634.5600, 24890.00
635.7240, 21971.00
636.8890, 20124.00
638.0530, 18270.00
639.2170, 17137.00
640.3810, 16084.00
641.5450, 15253.00
642.7080, 14450.00
643.8720, 14018.00
645.0350, 13564.00
646.1980, 13463.00
647.3610, 13213.00
648.5240, 12817.00
649.6870, 12657.00
650.8490, 12516.00
652.0120, 12421.00
653.1740, 12299.00
654.3360, 12231.00
655.4980, 12133.00
656.6600, 12078.00
657.8210, 12064.00
658.9830, 11906.00
660.1440, 12030.00
661.3050, 12003.00
662.4660, 11892.00
663.6270, 11858.00
664.7870, 11786.00
665.9480, 11906.00
667.1080, 11704.00
668.2680, 11824.00
669.4280, 11796.65
670.5880, 11760.00
671.7480, 11847.00
672.9070, 11726.00
674.0670, 11820.00
675.2260, 11816.00
676.3850, 11733.00
677.5440, 11627.00
678.7030, 11741.00
679.8610, 11733.00
681.0200, 11748.00
682.1780, 11786.28
683.3360, 11755.00
684.4940, 11801.00
685.6520, 11830.00
686.8090, 11819.00
687.9670, 11876.00
689.1240, 11827.00
690.2810, 11837.29
691.4380, 11841.00
692.5950, 11797.00
693.7520, 11812.00
694.9080, 11760.00
696.0650, 11718.00
697.2210, 11697.00
698.3770, 11738.00
699.5330, 11749.00
700.6880, 11832.00
701.8440, 11832.00
702.9990, 11767.00
704.1550, 11704.00
705.3100, 11731.00
706.4650, 11789.00
707.6190, 11909.00
708.7740, 11914.00
709.9290, 12000.00
711.0830, 11975.00
712.2370, 11939.00
713.3910, 12027.00
714.5450, 12038.00
715.6980, 12009.00
716.8520, 12227.00
718.0050, 12184.00
719.1580, 12299.00
720.3110, 12382.00
721.4640, 12356.00
722.6170, 12508.00
723.7700, 12697.00
724.9220, 12778.00
726.0740, 12794.00
727.2260, 12940.00
728.3780, 12954.00
729.5300, 13105.00
730.6810, 13332.00
731.8330, 13343.00
732.9840, 13374.00
734.1350, 13368.00
735.2860, 13336.73
736.4370, 13309.94
737.5880, 13255.00
738.7380, 13175.00
739.8880, 13154.00
741.0390, 13019.00
742.1890, 12903.00
743.3380, 12781.00
744.4880, 12824.00
745.6380, 12741.00
746.7870, 12587.00
747.9360, 12360.00
749.0850, 12374.00
750.2340, 12421.00
751.3830, 12259.00
752.5310, 12342.00
753.6800, 12226.00
754.8280, 12079.00
755.9760, 12196.00
757.1240, 12045.00
758.2720, 12007.00
759.4190, 12161.00
760.5670, 12017.00
761.7140, 12141.00
762.8610, 12159.99
764.0080, 12024.00
765.1550, 12215.00
766.3020, 12168.00
767.4480, 12137.00
768.5950, 11933.00
769.7410, 12015.00
770.8870, 11946.00
772.0330, 12049.00
773.1780, 12050.00
774.3240, 12137.00
775.4690, 11995.00
776.6140, 12015.00
777.7590, 11973.00
778.9040, 11975.37
780.0490, 12007.00
781.1940, 12028.00
782.3380, 12149.00
783.4820, 12162.00
784.6260, 12158.00
785.7700, 12093.00
786.9140, 12105.00
788.0580, 12332.00
789.2010, 12257.00
790.3450, 12327.00
791.4880, 12372.00
792.6310, 12225.00
793.7730, 12260.00
794.9160, 12226.00
796.0590, 12275.00
797.2010, 12311.00
798.3430, 12302.30
799.4850, 12341.16
800.6270, 12349.00
801.7690, 12356.00
802.9100, 12398.97
804.0520, 12417.00
805.1930, 12469.00
806.3340, 12507.00
807.4750, 12534.59
808.6160, 12586.30
809.7560, 12626.00
810.8970, 12670.00
812.0370, 12707.00
813.1770, 12735.00
814.3170, 12987.00
815.4570, 12817.00
816.5960, 12979.00
817.7360, 12882.00
818.8750, 13090.00
820.0140, 13005.00
821.1530, 13209.00
822.2920, 13056.00
823.4310, 13239.00
824.5690, 13355.00
825.7070, 13500.00
826.8460, 13500.00
827.9840, 13619.00
829.1220, 13565.00
830.2590, 13608.00
831.3970, 13956.00
832.5340, 13965.00
833.6710, 14018.00
834.8080, 14358.00
835.9450, 14158.00
837.0820, 14195.00
838.2190, 14155.00
839.3550, 14276.00
840.4910, 14062.00
841.6270, 14179.00
842.7630, 14142.00
843.8990, 14018.00
845.0350, 14117.00
846.1700, 14151.00
847.3060, 14080.00
848.4410, 14033.00
849.5760, 14153.00
850.7100, 14171.00
851.8450, 13984.00
852.9800, 14142.00
854.1140, 14129.00
855.2480, 14031.00
856.3820, 13879.00
857.5160, 13871.00
858.6500, 13866.00
859.7830, 13880.00
860.9170, 13807.00
862.0500, 13852.00
863.1830, 13875.00
864.3160, 13972.00
865.4480, 13959.00
866.5810, 13945.00
867.7130, 13896.00
868.8460, 13891.68
869.9780, 13830.00
871.1100, 13906.00
872.2410, 13890.00
873.3730, 13998.00
874.5050, 13955.00
875.6360, 14073.00
876.7670, 13963.00
877.8980, 14165.00
879.0290, 14084.00
880.1590, 14153.00
881.2900, 14327.81
882.4200, 14245.35
883.5500, 14637.00
884.6800, 14312.00
885.8100, 14366.00
886.9400, 14601.00
888.0690, 14597.00
889.1990, 14535.00
890.3280, 14579.00
891.4570, 14670.00
892.5860, 14821.00
893.7140, 14842.86
894.8430, 14858.49
895.9710, 14982.00
897.1000, 15185.00
898.2280, 15347.00
899.3560, 15526.04
900.4830, 15759.45
901.6110, 15981.00
902.7380, 16342.00
903.8660, 16756.00
904.9930, 17303.00
906.1200, 17968.00
907.2460, 18411.00
908.3730, 18948.00
909.5000, 19692.00
910.6260, 20242.00
911.7520, 20869.00
912.8780, 21611.00
914.0040, 22177.00
915.1290, 22729.00
916.2550, 23718.00
917.3800, 24947.00
918.5050, 26338.00
919.6300, 28244.00
920.7550, 30554.00
921.8800, 33270.00
923.0040, 36250.00
924.1290, 39326.00
925.2530, 43518.00
926.3770, 47400.00
927.5010, 51433.00
928.6250, 55013.00
929.7480, 58436.00
930.8720, 60145.00
931.9950, 61457.00
933.1180, 61063.00
934.2410, 59267.00
935.3640, 57000.00
936.4860, 53686.00
937.6090, 49727.00
938.7310, 45607.00
939.8530, 42459.00
940.9750, 39307.00
942.0970, 36498.00
943.2180, 34419.00
944.3400, 32415.00
945.4610, 31002.00
946.5820, 29320.00
947.7030, 28082.00
948.8240, 26481.00
949.9450, 24848.00
951.0650, 23222.00
952.1860, 22056.00
953.3060, 20937.00
954.4260, 19966.00
955.5460, 19244.00
956.6650, 18668.00
957.7850, 18483.00
958.9040, 17937.00
960.0230, 17814.00
961.1420, 17521.00
962.2610, 17445.00
963.3800, 17194.00
964.4990, 16853.00
965.6170, 17001.00
966.7350, 16819.00
967.8530, 16925.00
968.9710, 17017.00
970.0890, 17048.00
971.2070, 17047.00
972.3240, 17188.00
973.4410, 17205.00
974.5580, 17243.00
975.6750, 17505.29
976.7920, 17644.00
977.9090, 18038.00
979.0250, 18410.00
980.1410, 18714.00
981.2580, 19196.00
982.3740, 19538.00
983.4890, 20100.00
984.6050, 20798.00
985.7200, 21694.00
986.8360, 22529.00
987.9510, 23748.00
989.0660, 25292.00
990.1810, 26799.00
991.2950, 28878.00
992.4100, 31348.00
993.5240, 34290.00
994.6390, 37138.00
995.7530, 40765.00
996.8660, 43827.00
997.9800, 47593.00
999.0940, 50140.00
1000.207, 53150.00
1001.320, 55168.00
1002.433, 57105.00
1003.546, 57936.00
1004.659, 57912.00
1005.772, 57871.00
1006.884, 57054.00
1007.996, 55609.00
1009.108, 53467.00
1010.220, 51163.00
1011.332, 49055.00
1012.444, 46408.00
1013.555, 44201.00
1014.666, 41749.00
1015.777, 39273.00
1016.888, 36870.00
1017.999, 34907.00
1019.110, 32758.00
1020.220, 30660.00
1021.331, 29050.00
1022.441, 27625.00
1023.551, 26324.00
1024.661, 25114.00
1025.770, 24141.00
1026.880, 23424.00
1027.989, 22643.00
1029.098, 22076.00
1030.207, 21501.00
1031.316, 21036.11
1032.425, 20871.00
1033.533, 20375.00
1034.642, 20376.00
1035.750, 20305.00
1036.858, 19931.00
1037.966, 20020.00
1039.073, 19806.00
1040.181, 19619.00
1041.288, 19450.00
1042.396, 19219.00
1043.503, 19195.00
1044.610, 19141.00
1045.716, 18999.00
1046.823, 18494.00
1047.929, 18461.00
1049.036, 18268.00
1050.142, 17794.00
1051.248, 18020.00
1052.353, 17668.00
1053.459, 17681.00
1054.564, 17592.00
1055.670, 17571.00
1056.775, 17444.00
1057.880, 17360.00
1058.985, 17274.00
1060.089, 17307.00
1061.194, 17278.00
1062.298, 17269.00
1063.402, 17231.15
1064.506, 17354.00
1065.610, 17161.00
1066.713, 17069.00
1067.817, 17104.00
1068.920, 17249.00
1070.023, 17376.00
1071.126, 17229.00
1072.229, 17274.00
1073.332, 17405.00
1074.435, 17553.00
1075.537, 17645.00
1076.639, 17760.00
1077.741, 17989.00
1078.843, 18259.00
1079.945, 18603.00
1081.046, 18767.00
1082.148, 19227.00
1083.249, 19752.00
1084.350, 20053.00
1085.451, 20384.00
1086.551, 20715.15
1087.652, 21054.00
1088.752, 21004.00
1089.853, 21126.00
1090.953, 20714.00
1092.053, 20308.00
1093.152, 20290.00
1094.252, 19602.00
1095.351, 19361.00
1096.451, 18984.00
1097.550, 18677.00
1098.649, 18486.00
1099.748, 17924.00
1100.846, 17780.00
1101.945, 17415.00
1103.043, 17523.00
1104.141, 17227.00
1105.239, 17167.00
1106.337, 17076.00
1107.434, 16780.00
1108.532, 16783.00
1109.629, 16773.00
1110.726, 16593.00
1111.823, 16676.00
1112.920, 16704.00
1114.017, 16627.00
1115.113, 16768.00
1116.210, 16724.00
1117.306, 16750.00
1118.402, 17023.00
1119.498, 16982.00
1120.593, 17185.00
1121.689, 17288.00
1122.784, 17325.00
1123.879, 17222.00
1124.974, 17229.00
1126.069, 17069.00
1127.164, 16896.00
1128.259, 16918.00
1129.353, 16923.00
1130.447, 16781.00
1131.541, 16885.00
1132.635, 16815.00
1133.729, 16923.00
1134.822, 16934.00
1135.916, 17033.00
1137.009, 16709.00
1138.102, 16862.00
1139.195, 16825.00
1140.288, 16750.00
1141.380, 16829.00
1142.473, 16873.00
1143.565, 16993.00
1144.657, 16784.00
1145.749, 17014.00
1146.841, 16755.00
1147.932, 17020.00
1149.024, 17050.00
1150.115, 16985.00
1151.206, 16953.00
1152.297, 16915.51
1153.388, 16770.00
1154.479, 16858.00
1155.569, 16840.00
1156.659, 16920.00
1157.750, 17004.00
1158.839, 16801.00
1159.929, 16903.00
1161.019, 16773.00
1162.108, 16944.00
1163.198, 16759.00
1164.287, 16730.00
1165.376, 16890.00
1166.465, 16937.00
1167.553, 16976.00
1168.642, 17007.32
1169.730, 17001.54
1170.818, 16960.00
1171.906, 16957.00
1172.994, 16881.00
1174.082, 16831.00
1175.170, 16823.51
1176.257, 16912.00
1177.344, 16778.00
1178.431, 16875.00
1179.518, 16822.00
1180.605, 16704.00
1181.691, 16771.00
1182.778, 16779.00
1183.864, 16846.00
1184.950, 16921.00
1186.036, 16799.00
1187.122, 16745.00
1188.207, 16931.00
1189.292, 16874.00
1190.378, 16775.00
1191.463, 16806.00
1192.548, 16711.00
1193.632, 16702.00
1194.717, 16610.00
1195.801, 16666.00
1196.886, 16679.00
1197.970, 16588.00
1199.054, 16846.00
1200.137, 16791.00
1201.221, 16842.00
1202.305, 16753.00
1203.388, 16733.00
1204.471, 16894.00
1205.554, 16850.00
1206.637, 16847.00
1207.719, 16872.00
1208.802, 16782.00
1209.884, 16825.00
1210.966, 16922.00
1212.048, 16753.00
1213.130, 16872.00
1214.212, 16825.00
1215.293, 16826.00
1216.374, 16880.00
1217.456, 16761.00
1218.536, 16963.00
1219.617, 17136.00
1220.698, 16828.00
1221.778, 17019.00
1222.859, 16932.00
1223.939, 16946.00
1225.019, 17078.00
1226.099, 17040.00
1227.178, 17070.00
1228.258, 16979.00
1229.337, 17066.00
1230.417, 17128.00
1231.496, 17103.00
1232.574, 17092.00
1233.653, 17135.00
1234.732, 17193.00
1235.810, 17265.00
1236.888, 17241.00
1237.966, 16950.00
1239.044, 17197.00
1240.122, 17131.00
1241.199, 17301.00
1242.277, 17406.00
1243.354, 17141.00
1244.431, 17370.00
1245.508, 17341.00
1246.585, 17291.00
1247.661, 17276.00
1248.738, 17399.00
1249.814, 17473.00
1250.890, 17439.00
1251.966, 17311.00
1253.042, 17478.00
1254.117, 17371.00
1255.193, 17451.00
1256.268, 17418.00
1257.343, 17454.00
1258.418, 17499.00
1259.493, 17468.00
1260.567, 17502.00
1261.642, 17595.00
1262.716, 17556.00
1263.790, 17623.00
1264.864, 17614.93
1265.938, 17639.00
1267.011, 17601.00
1268.085, 17516.00
1269.158, 17511.00
1270.231, 17839.00
1271.304, 17568.00
1272.377, 17740.00
1273.450, 17573.00
1274.522, 17520.00
1275.594, 17693.00
1276.666, 17690.00
1277.738, 17703.00
1278.810, 17485.00
1279.882, 18216.00
1280.953, 17715.00
1282.025, 17916.00
1283.096, 17700.00
1284.167, 17727.00
1285.238, 17582.00
1286.308, 17646.00
1287.379, 17872.00
1288.449, 17859.00
1289.519, 17698.00
1290.589, 17901.00
1291.659, 17945.00
1292.729, 17965.00
1293.798, 18102.00
1294.868, 18110.06
1295.937, 18013.00
1297.006, 18167.00
1298.075, 18124.00
1299.143, 18088.00
1300.212, 17833.00
1301.280, 17841.00
1302.348, 17962.00
1303.416, 18099.00
1304.484, 18011.00
1305.552, 17976.00
1306.620, 17886.00
1307.687, 17924.00
1308.754, 17904.00
1309.821, 17800.00
1310.888, 17856.00
1311.955, 17965.00
1313.021, 17853.00
1314.088, 17946.00
1315.154, 17985.00
1316.220, 17979.00
1317.286, 18019.00
1318.352, 18023.78
1319.417, 18055.90
1320.483, 18032.00
1321.548, 18091.00
1322.613, 18082.00
1323.678, 18028.00
1324.743, 18042.00
1325.807, 18121.00
1326.872, 18070.00
1327.936, 18242.00
1329.000, 18247.00
1330.064, 18250.00
1331.128, 18309.00
1332.191, 18369.00
1333.255, 18221.00
1334.318, 18321.00
1335.381, 18259.00
1336.444, 18502.00
1337.507, 18497.00
1338.569, 18514.00
1339.632, 18610.00
1340.694, 18509.00
1341.756, 18549.00
1342.818, 18483.00
1343.880, 18590.00
1344.941, 18653.00
1346.003, 18684.00
1347.064, 18644.00
1348.125, 18727.00
1349.186, 18553.00
1350.247, 18699.00
1351.308, 18732.00
1352.368, 18907.00
1353.428, 18859.00
1354.489, 19061.00
1355.549, 19232.00
1356.608, 19276.00
1357.668, 19286.00
1358.727, 19465.00
1359.787, 19460.00
1360.846, 19535.00
1361.905, 19598.00
1362.964, 19726.00
1364.022, 19478.00
1365.081, 19413.00
1366.139, 19509.00
1367.197, 19352.00
1368.255, 19250.00
1369.313, 18835.00
1370.371, 18858.00
1371.428, 18870.00
1372.486, 18735.00
1373.543, 18860.00
1374.600, 18653.00
1375.657, 18943.00
1376.713, 18952.00
1377.770, 18813.00
1378.826, 18740.00
1379.882, 18950.00
1380.938, 18688.00
1381.994, 18963.00
1383.050, 18902.00
1384.106, 18846.00
1385.161, 18861.00
1386.216, 19048.00
1387.271, 19137.00
1388.326, 19214.00
1389.381, 19062.00
1390.435, 19270.00
1391.490, 19398.00
1392.544, 19468.00
1393.598, 19647.00
1394.652, 19645.00
1395.705, 19787.00
1396.759, 19825.00
1397.812, 19646.00
1398.866, 19360.00
1399.919, 19462.00
1400.972, 19175.01
1402.024, 18882.00
1403.077, 18892.00
1404.129, 18856.00
1405.181, 18888.00
1406.233, 18819.46
1407.285, 18697.00
1408.337, 18752.00
1409.389, 18644.00
1410.440, 18731.00
1411.491, 18845.00
1412.542, 18622.00
1413.593, 18626.00
1414.644, 18578.00
1415.695, 18627.00
1416.745, 18627.00
1417.795, 18737.00
1418.845, 18774.00
1419.895, 18569.00
1420.945, 18632.00
1421.995, 18734.00
1423.044, 18912.00
1424.093, 18936.00
1425.142, 19101.00
1426.191, 18961.00
1427.240, 19206.00
1428.289, 18834.00
1429.337, 19172.00
1430.385, 19134.00
1431.433, 19192.00
1432.481, 18969.00
1433.529, 19145.00
1434.577, 19093.00
1435.624, 19051.00
1436.672, 19073.00
1437.719, 19061.00
1438.766, 19234.00
1439.812, 19425.00
1440.859, 19447.00
1441.905, 19298.00
1442.952, 19566.00
1443.998, 19499.00
1445.044, 19507.00
1446.090, 19719.00
1447.135, 19633.00
1448.181, 19576.00
1449.226, 19514.00
1450.271, 19435.00
1451.316, 19427.00
1452.361, 19562.00
1453.405, 19402.00
1454.450, 19571.00
1455.494, 19579.00
1456.538, 19411.00
1457.582, 19557.00
1458.626, 19815.00
1459.670, 19802.00
1460.713, 19726.00
1461.757, 19772.00
1462.800, 19720.00
1463.843, 19775.00
1464.886, 19838.00
1465.928, 19676.00
1466.971, 19776.00
1468.013, 19874.00
1469.055, 19767.00
1470.097, 19587.00
1471.139, 19832.00
1472.181, 19822.00
1473.222, 20009.00
1474.263, 19913.00
1475.305, 19823.00
1476.346, 19866.00
1477.386, 19924.00
1478.427, 19885.00
1479.468, 19848.00
1480.508, 19962.00
1481.548, 19866.00
1482.588, 19903.00
1483.628, 20102.00
1484.668, 19954.00
1485.707, 19855.00
1486.747, 20027.00
1487.786, 20017.00
1488.825, 19878.00
1489.864, 19929.00
1490.902, 19950.00
1491.941, 19929.00
1492.979, 20086.00
1494.017, 19925.00
1495.055, 20042.00
1496.093, 20181.00
1497.131, 19890.00
1498.168, 19994.00
1499.206, 20059.00
1500.243, 20029.00
1501.280, 19977.00
1502.317, 20024.00
1503.354, 20092.00
1504.390, 20052.00
1505.426, 20069.00
1506.463, 20163.00
1507.499, 20018.00
1508.535, 20124.00
1509.570, 20053.00
1510.606, 20208.00
1511.641, 20273.00
1512.676, 19995.00
1513.711, 20296.00
1514.746, 20187.00
1515.781, 20299.00
1516.816, 20165.00
1517.850, 20115.00
1518.884, 20362.00
1519.918, 20320.00
1520.952, 20247.00
1521.986, 20178.00
1523.019, 20071.00
1524.053, 20185.00
1525.086, 20197.00
1526.119, 20231.62
1527.152, 20133.00
1528.185, 20334.00
1529.217, 20355.00
1530.250, 20363.00
1531.282, 20628.00
1532.314, 20703.00
1533.346, 20405.00
1534.377, 20606.00
1535.409, 20590.00
1536.440, 20646.00
1537.472, 20697.00
1538.503, 20686.00
1539.534, 20598.00
1540.564, 20787.00
1541.595, 20951.00
1542.625, 21239.00
1543.656, 21675.00
1544.686, 21758.00
1545.716, 21581.00
1546.745, 21177.00
1547.775, 21007.00
1548.804, 21123.00
1549.834, 20977.00
1550.863, 20974.00
1551.892, 21155.00
1552.920, 21073.00
1553.949, 20982.00
1554.977, 21065.00
1556.006, 20804.00
1557.034, 21072.00
1558.062, 20950.00
1559.089, 20957.00
1560.117, 21038.00
1561.144, 20834.00
1562.172, 20943.00
1563.199, 21155.00
1564.226, 21190.00
1565.252, 21175.00
1566.279, 21271.00
1567.305, 21221.00
1568.332, 21106.00
1569.358, 21154.00
1570.384, 21282.00
##END=



