##NAMES=Catapleiite
##RRUFFID=R040005
##IDEAL CHEMISTRY=Na_2_Zr^4+^Si_3_O_9_&#183;2H_2_O
##LOCALITY=Langesundsfjord Eikaholmen Vestfold, Norway
##OWNER=RRUFF
##SOURCE=University of Arizona Mineral Museum
##DESCRIPTION=Brown thin tabular crystal
##STATUS=The identification of this mineral has been confirmed by X-ray diffraction and chemical analysis
##URL=rruff.info/R040005
##MEASURED CHEMISTRY=(Na_1.28_Ca_0.36_[box]_0.36_)_Σ=2_Zr_1.00_Si_3.00_O_9_·2H_2_O
##PIN_ID=L00558
##ORIENTATION=Laser parallel to a* (1 0 0). Fiducial mark perpendicular to laser is parallel to -b [0 -1 0]
120.5960, 31722.00
121.8270, 32006.00
123.0580, 31985.00
124.2880, 32037.00
125.5190, 31975.00
126.7490, 32181.00
127.9790, 32427.00
129.2090, 32301.00
130.4390, 32404.00
131.6680, 32853.00
132.8980, 32558.00
134.1270, 32473.00
135.3560, 32898.00
136.5850, 33087.00
137.8140, 33265.00
139.0430, 33405.00
140.2710, 33574.45
141.5000, 33522.00
142.7280, 33871.00
143.9560, 33997.00
145.1840, 34133.00
146.4120, 34012.00
147.6390, 34091.00
148.8670, 34150.00
150.0940, 34017.00
151.3210, 34607.00
152.5490, 34622.00
153.7750, 34414.00
155.0020, 34345.00
156.2290, 34273.00
157.4550, 34247.00
158.6810, 34276.00
159.9080, 34264.00
161.1340, 34328.00
162.3590, 34054.00
163.5850, 34250.00
164.8110, 34267.00
166.0360, 34028.00
167.2610, 34037.00
168.4860, 33901.00
169.7110, 33930.00
170.9360, 34089.00
172.1610, 33809.00
173.3850, 33866.00
174.6100, 34221.00
175.8340, 33823.00
177.0580, 33987.00
178.2820, 33819.00
179.5050, 33920.00
180.7290, 33824.00
181.9520, 34025.00
183.1760, 33666.00
184.3990, 33969.00
185.6220, 33934.00
186.8450, 33959.00
188.0670, 34103.00
189.2900, 33880.00
190.5120, 34174.00
191.7340, 34161.00
192.9560, 33910.00
194.1780, 34311.00
195.4000, 34511.00
196.6220, 34236.00
197.8430, 34161.00
199.0640, 34475.00
200.2860, 34595.00
201.5070, 34505.00
202.7270, 34689.00
203.9480, 34679.00
205.1690, 34707.00
206.3890, 34581.00
207.6090, 34695.00
208.8290, 34461.00
210.0490, 34668.00
211.2690, 34560.00
212.4890, 34718.00
213.7080, 34652.00
214.9280, 34530.00
216.1470, 34560.00
217.3660, 34524.00
218.5850, 34286.00
219.8030, 34275.00
221.0220, 33909.00
222.2400, 33919.62
223.4590, 33888.00
224.6770, 33869.00
225.8950, 33784.00
227.1120, 33828.00
228.3300, 33842.00
229.5480, 33702.00
230.7650, 33693.00
231.9820, 33613.00
233.1990, 33731.00
234.4160, 33904.00
235.6330, 33834.00
236.8490, 33878.00
238.0660, 33742.00
239.2820, 33805.00
240.4980, 33779.00
241.7140, 33934.00
242.9300, 33958.00
244.1460, 33850.68
245.3610, 33622.00
246.5770, 33700.00
247.7920, 33572.00
249.0070, 33725.00
250.2220, 33278.00
251.4370, 33396.00
252.6510, 33824.00
253.8660, 33392.00
255.0800, 33552.00
256.2940, 33557.00
257.5080, 33424.00
258.7220, 33712.00
259.9360, 33932.00
261.1490, 33852.00
262.3630, 33571.00
263.5760, 33560.00
264.7890, 33668.00
266.0020, 33560.00
267.2150, 33441.00
268.4270, 33386.00
269.6400, 33318.80
270.8520, 33305.67
272.0640, 33333.00
273.2760, 33370.00
274.4880, 33588.00
275.7000, 33737.00
276.9120, 33739.00
278.1230, 34010.00
279.3340, 33607.00
280.5450, 33899.00
281.7560, 33684.00
282.9670, 33767.00
284.1780, 33983.00
285.3880, 33934.00
286.5980, 34310.00
287.8090, 33859.00
289.0190, 33958.00
290.2290, 34367.00
291.4380, 34401.00
292.6480, 34528.00
293.8570, 34464.00
295.0670, 34715.00
296.2760, 34750.00
297.4850, 34712.00
298.6930, 34948.00
299.9020, 34886.00
301.1110, 34932.00
302.3190, 35065.00
303.5270, 35150.00
304.7350, 35251.00
305.9430, 35343.00
307.1510, 35480.00
308.3580, 35497.00
309.5660, 35389.00
310.7730, 35195.00
311.9800, 35330.00
313.1870, 35519.00
314.3940, 35482.00
315.6010, 35627.00
316.8070, 35430.00
318.0130, 35614.00
319.2200, 35605.00
320.4260, 35694.00
321.6310, 35595.00
322.8370, 35671.00
324.0430, 35638.00
325.2480, 35858.00
326.4540, 35613.00
327.6590, 36037.00
328.8640, 35922.00
330.0680, 35840.00
331.2730, 35847.00
332.4780, 35880.00
333.6820, 36080.00
334.8860, 36018.00
336.0900, 36126.00
337.2940, 36100.00
338.4980, 36092.00
339.7010, 36221.00
340.9050, 36060.00
342.1080, 36108.00
343.3110, 35969.00
344.5140, 36157.00
345.7170, 36084.35
346.9200, 36228.00
348.1220, 36076.00
349.3240, 36109.00
350.5270, 36114.00
351.7290, 36092.00
352.9310, 36149.28
354.1320, 36364.00
355.3340, 36248.00
356.5350, 36354.00
357.7370, 36429.00
358.9380, 36393.00
360.1390, 36300.00
361.3400, 36475.00
362.5400, 36634.00
363.7410, 36592.00
364.9410, 36731.00
366.1410, 36810.00
367.3410, 36728.00
368.5410, 36807.00
369.7410, 36629.00
370.9400, 37002.00
372.1400, 36974.00
373.3390, 37065.00
374.5380, 36871.00
375.7370, 37111.00
376.9360, 36701.00
378.1350, 37029.00
379.3330, 37140.00
380.5310, 37253.00
381.7300, 36945.00
382.9280, 37125.00
384.1260, 37069.00
385.3230, 37208.00
386.5210, 37150.00
387.7180, 37060.00
388.9160, 37212.00
390.1130, 37217.00
391.3100, 37214.00
392.5060, 37260.00
393.7030, 37587.00
394.9000, 37286.00
396.0960, 37286.00
397.2920, 37545.00
398.4880, 37232.00
399.6840, 37352.00
400.8800, 37592.00
402.0750, 37570.00
403.2710, 37171.00
404.4660, 37438.00
405.6610, 37406.00
406.8560, 37782.00
408.0510, 37575.00
409.2450, 37709.00
410.4400, 37774.00
411.6340, 38056.00
412.8280, 37976.00
414.0220, 38170.00
415.2160, 38289.00
416.4100, 38230.00
417.6030, 38809.00
418.7970, 38819.00
419.9900, 38938.00
421.1830, 39398.00
422.3760, 39143.00
423.5690, 39439.00
424.7610, 39997.00
425.9540, 39859.00
427.1460, 40437.00
428.3380, 40557.00
429.5300, 40959.00
430.7220, 41122.00
431.9140, 41748.00
433.1050, 41993.00
434.2970, 42433.00
435.4880, 42947.00
436.6790, 43176.00
437.8700, 43423.24
439.0610, 43716.00
440.2510, 43645.00
441.4420, 43583.00
442.6320, 43584.00
443.8220, 43527.00
445.0120, 43390.00
446.2020, 43053.00
447.3910, 42349.00
448.5810, 42342.00
449.7700, 41761.00
450.9600, 41403.00
452.1490, 41124.00
453.3370, 40998.00
454.5260, 40491.00
455.7150, 40197.00
456.9030, 39883.00
458.0910, 39952.00
459.2800, 39490.00
460.4670, 39297.00
461.6550, 39376.00
462.8430, 39000.00
464.0300, 39323.00
465.2180, 39093.00
466.4050, 39071.00
467.5920, 39005.00
468.7790, 38925.97
469.9650, 38928.00
471.1520, 38859.00
472.3380, 38917.18
473.5250, 38890.05
474.7110, 39158.00
475.8970, 38699.00
477.0820, 38858.00
478.2680, 38654.00
479.4540, 38890.00
480.6390, 38731.00
481.8240, 38653.00
483.0090, 38968.00
484.1940, 38489.00
485.3780, 38718.00
486.5630, 38679.00
487.7470, 38477.00
488.9320, 38704.00
490.1160, 38783.00
491.3000, 38659.64
492.4830, 38754.00
493.6670, 38543.00
494.8500, 38841.00
496.0340, 38905.00
497.2170, 38920.00
498.4000, 38843.00
499.5820, 38962.06
500.7650, 38991.00
501.9480, 39149.00
503.1300, 39179.00
504.3120, 39317.80
505.4940, 39261.00
506.6760, 39384.00
507.8580, 39362.00
509.0390, 39334.00
510.2210, 39412.00
511.4020, 39645.00
512.5830, 39606.00
513.7640, 39573.00
514.9450, 39938.00
516.1250, 39887.00
517.3060, 40031.00
518.4860, 40028.00
519.6660, 40100.00
520.8460, 40012.00
522.0260, 40226.00
523.2060, 40143.00
524.3850, 40444.00
525.5650, 40321.00
526.7440, 40216.00
527.9230, 40461.00
529.1020, 40491.00
530.2810, 40674.00
531.4590, 40673.52
532.6380, 40568.00
533.8160, 40598.00
534.9940, 40585.00
536.1720, 40469.00
537.3500, 40538.78
538.5270, 40596.00
539.7050, 40593.00
540.8820, 40656.00
542.0590, 40683.00
543.2360, 40636.00
544.4130, 40929.00
545.5900, 40874.00
546.7660, 40940.00
547.9430, 40803.00
549.1190, 41001.00
550.2950, 41039.00
551.4710, 41312.00
552.6470, 41235.00
553.8220, 41281.00
554.9980, 41765.00
556.1730, 41965.00
557.3480, 42207.00
558.5230, 42759.00
559.6980, 42928.00
560.8730, 43290.00
562.0470, 43343.00
563.2220, 44447.00
564.3960, 44657.00
565.5700, 45303.00
566.7440, 46434.00
567.9170, 46770.00
569.0910, 47643.00
570.2640, 48194.00
571.4380, 49002.00
572.6110, 49361.00
573.7840, 49787.00
574.9570, 50454.00
576.1290, 50548.00
577.3020, 50363.00
578.4740, 49897.00
579.6460, 49325.00
580.8180, 48772.66
581.9900, 47893.00
583.1620, 47258.00
584.3330, 46270.00
585.5040, 45624.96
586.6760, 45021.00
587.8470, 44320.00
589.0180, 43777.00
590.1880, 43321.00
591.3590, 43008.00
592.5290, 42567.00
593.7000, 42294.08
594.8700, 42376.00
596.0400, 41855.00
597.2090, 42062.00
598.3790, 42088.00
599.5490, 42119.00
600.7180, 42122.92
601.8870, 42108.24
603.0560, 41936.00
604.2250, 42082.00
605.3940, 41851.00
606.5620, 41888.00
607.7300, 41669.00
608.8990, 41876.00
610.0670, 42157.00
611.2350, 42012.00
612.4020, 41884.00
613.5700, 42359.00
614.7370, 42573.00
615.9050, 42817.00
617.0720, 43283.00
618.2390, 43295.00
619.4060, 43556.00
620.5720, 43918.00
621.7390, 44335.93
622.9050, 45366.00
624.0710, 45640.00
625.2370, 46519.00
626.4030, 47600.00
627.5690, 48101.00
628.7340, 48993.00
629.9000, 50353.00
631.0650, 51098.00
632.2300, 51445.00
633.3950, 51969.00
634.5600, 51382.00
635.7240, 51003.00
636.8890, 50037.00
638.0530, 49083.00
639.2170, 47871.00
640.3810, 47130.00
641.5450, 46330.00
642.7080, 45159.00
643.8720, 44812.00
645.0350, 44039.00
646.1980, 43547.00
647.3610, 43104.00
648.5240, 42717.00
649.6870, 42552.00
650.8490, 42417.00
652.0120, 42226.00
653.1740, 42147.32
654.3360, 42037.20
655.4980, 41943.00
656.6600, 41889.00
657.8210, 41704.00
658.9830, 41633.00
660.1440, 41568.00
661.3050, 41658.00
662.4660, 41774.00
663.6270, 41672.00
664.7870, 41688.00
665.9480, 41653.67
667.1080, 41481.00
668.2680, 41582.00
669.4280, 41419.00
670.5880, 41455.00
671.7480, 41304.00
672.9070, 41662.00
674.0670, 41589.00
675.2260, 41776.00
676.3850, 41716.00
677.5440, 41625.00
678.7030, 41805.00
679.8610, 41465.00
681.0200, 41553.00
682.1780, 41633.00
683.3360, 41600.00
684.4940, 41574.00
685.6520, 41697.00
686.8090, 41615.59
687.9670, 41826.00
689.1240, 41645.00
690.2810, 41660.00
691.4380, 41874.00
692.5950, 41751.00
693.7520, 41732.00
694.9080, 41876.00
696.0650, 41866.00
697.2210, 42025.00
698.3770, 41999.00
699.5330, 41975.00
700.6880, 42050.00
701.8440, 42034.00
702.9990, 42116.19
704.1550, 42145.00
705.3100, 42273.00
706.4650, 42224.00
707.6190, 42274.00
708.7740, 42310.00
709.9290, 42164.00
711.0830, 42391.00
712.2370, 42560.00
713.3910, 42443.00
714.5450, 42304.00
715.6980, 42493.00
716.8520, 42322.00
718.0050, 42738.00
719.1580, 42479.00
720.3110, 42619.00
721.4640, 43015.00
722.6170, 42429.00
723.7700, 42896.00
724.9220, 42983.00
726.0740, 43268.00
727.2260, 43151.00
728.3780, 43162.00
729.5300, 43162.00
730.6810, 43358.00
731.8330, 43269.00
732.9840, 43334.00
734.1350, 43577.00
735.2860, 43485.00
736.4370, 43436.00
737.5880, 43542.00
738.7380, 43515.00
739.8880, 43460.00
741.0390, 43776.00
742.1890, 43532.00
743.3380, 43735.00
744.4880, 43573.00
745.6380, 43687.00
746.7870, 43871.00
747.9360, 43653.00
749.0850, 43481.00
750.2340, 43754.00
751.3830, 43420.00
752.5310, 43813.00
753.6800, 43460.00
754.8280, 43558.00
755.9760, 43798.00
757.1240, 43853.00
758.2720, 43965.32
759.4190, 43952.38
760.5670, 44043.00
761.7140, 43766.00
762.8610, 43620.00
764.0080, 43386.00
765.1550, 43721.00
766.3020, 43822.00
767.4480, 43881.00
768.5950, 43729.00
769.7410, 43952.00
770.8870, 43953.00
772.0330, 43812.00
773.1780, 43840.00
774.3240, 43810.00
775.4690, 43992.00
776.6140, 44241.00
777.7590, 43834.00
778.9040, 44116.00
780.0490, 43853.00
781.1940, 44045.00
782.3380, 44071.00
783.4820, 43927.00
784.6260, 44139.00
785.7700, 44041.00
786.9140, 43928.00
788.0580, 44232.00
789.2010, 44353.00
790.3450, 44257.00
791.4880, 44129.00
792.6310, 44253.00
793.7730, 44106.00
794.9160, 43896.00
796.0590, 44467.00
797.2010, 44217.00
798.3430, 44433.00
799.4850, 44239.00
800.6270, 44223.00
801.7690, 44499.00
802.9100, 44599.00
804.0520, 44612.96
805.1930, 44301.00
806.3340, 44590.00
807.4750, 44596.00
808.6160, 44479.00
809.7560, 44635.00
810.8970, 44624.00
812.0370, 44605.00
813.1770, 44754.00
814.3170, 44540.00
815.4570, 44660.00
816.5960, 44780.00
817.7360, 44630.00
818.8750, 44952.00
820.0140, 45119.00
821.1530, 45006.00
822.2920, 44739.00
823.4310, 45058.00
824.5690, 45122.00
825.7070, 44794.00
826.8460, 44849.00
827.9840, 44971.00
829.1220, 45005.00
830.2590, 44910.00
831.3970, 44940.00
832.5340, 45117.00
833.6710, 45041.00
834.8080, 45317.00
835.9450, 45126.00
837.0820, 45161.00
838.2190, 45200.00
839.3550, 45166.00
840.4910, 45482.00
841.6270, 45325.00
842.7630, 45555.00
843.8990, 45571.00
845.0350, 45404.00
846.1700, 45297.00
847.3060, 45405.00
848.4410, 45446.00
849.5760, 45715.00
850.7100, 45561.00
851.8450, 45579.00
852.9800, 45385.00
854.1140, 45487.00
855.2480, 45686.00
856.3820, 45959.00
857.5160, 45802.00
858.6500, 45899.00
859.7830, 45858.00
860.9170, 45975.00
862.0500, 45954.00
863.1830, 45991.00
864.3160, 45997.00
865.4480, 45961.00
866.5810, 46189.00
867.7130, 45955.00
868.8460, 46043.00
869.9780, 45969.00
871.1100, 46129.00
872.2410, 45988.00
873.3730, 46365.00
874.5050, 46154.00
875.6360, 46157.00
876.7670, 46503.00
877.8980, 46375.00
879.0290, 46388.00
880.1590, 46469.00
881.2900, 46366.00
882.4200, 46453.00
883.5500, 46571.00
884.6800, 46682.00
885.8100, 46244.00
886.9400, 46434.00
888.0690, 46664.00
889.1990, 46670.00
890.3280, 46967.00
891.4570, 46856.00
892.5860, 47108.00
893.7140, 47083.00
894.8430, 47079.00
895.9710, 46995.00
897.1000, 47477.00
898.2280, 47112.00
899.3560, 47666.00
900.4830, 47804.00
901.6110, 48145.00
902.7380, 48373.00
903.8660, 48652.00
904.9930, 48997.00
906.1200, 49209.00
907.2460, 49304.00
908.3730, 49826.00
909.5000, 50282.00
910.6260, 50199.00
911.7520, 50542.00
912.8780, 50776.00
914.0040, 50764.00
915.1290, 51040.00
916.2550, 51200.00
917.3800, 51382.00
918.5050, 51569.00
919.6300, 51777.00
920.7550, 52383.00
921.8800, 52409.00
923.0040, 53074.00
924.1290, 53395.00
925.2530, 54057.00
926.3770, 54659.00
927.5010, 55500.00
928.6250, 55830.00
929.7480, 56545.00
930.8720, 56721.00
931.9950, 57528.00
933.1180, 57645.00
934.2410, 57851.00
935.3640, 58266.00
936.4860, 58126.00
937.6090, 58201.00
938.7310, 57923.00
939.8530, 57803.00
940.9750, 57403.00
942.0970, 56935.94
943.2180, 56235.00
944.3400, 55722.00
945.4610, 54674.00
946.5820, 53833.00
947.7030, 53354.00
948.8240, 52996.00
949.9450, 52171.00
951.0650, 51758.00
952.1860, 51368.00
953.3060, 50852.00
954.4260, 50516.00
955.5460, 50269.00
956.6650, 50297.00
957.7850, 50048.00
958.9040, 49999.00
960.0230, 49909.00
961.1420, 49719.00
962.2610, 49524.00
963.3800, 49974.00
964.4990, 49609.00
965.6170, 49759.00
966.7350, 49707.00
967.8530, 49692.00
968.9710, 49915.00
970.0890, 50206.00
971.2070, 49941.00
972.3240, 50258.00
973.4410, 50660.00
974.5580, 50225.00
975.6750, 51195.00
976.7920, 51172.00
977.9090, 51456.00
979.0250, 51710.00
980.1410, 52185.00
981.2580, 52586.00
982.3740, 53190.00
983.4890, 53640.00
984.6050, 54478.00
985.7200, 55026.00
986.8360, 55735.00
987.9510, 56588.00
989.0660, 57425.00
990.1810, 57779.00
991.2950, 58882.00
992.4100, 59602.00
993.5240, 60276.00
994.6390, 61241.00
995.7530, 61916.00
996.8660, 62324.00
997.9800, 62841.00
999.0940, 63181.00
1000.207, 63349.00
1001.320, 63363.00
1002.433, 63296.00
1003.546, 63061.00
1004.659, 62523.00
1005.772, 62126.00
1006.884, 61436.00
1007.996, 61104.00
1009.108, 60160.00
1010.220, 59728.00
1011.332, 58894.00
1012.444, 58324.00
1013.555, 57771.34
1014.666, 56863.00
1015.777, 56549.00
1016.888, 56053.00
1017.999, 55199.00
1019.110, 55002.00
1020.220, 54216.00
1021.331, 54206.00
1022.441, 53246.00
1023.551, 53112.00
1024.661, 53227.00
1025.770, 52578.00
1026.880, 52112.00
1027.989, 51690.00
1029.098, 51727.00
1030.207, 51531.00
1031.316, 51332.00
1032.425, 51233.00
1033.533, 51144.00
1034.642, 50942.00
1035.750, 50871.00
1036.858, 50479.00
1037.966, 50739.00
1039.073, 50692.00
1040.181, 50517.00
1041.288, 50819.00
1042.396, 50655.00
1043.503, 50509.00
1044.610, 50694.00
1045.716, 50531.00
1046.823, 50188.00
1047.929, 50532.00
1049.036, 50361.00
1050.142, 50604.00
1051.248, 50534.00
1052.353, 50390.00
1053.459, 50386.00
1054.564, 49951.00
1055.670, 50402.00
1056.775, 50102.00
1057.880, 49884.00
1058.985, 50002.00
1060.089, 49730.00
1061.194, 49766.00
1062.298, 49816.00
1063.402, 49718.79
1064.506, 49504.00
1065.610, 49744.00
1066.713, 49546.00
1067.817, 49623.00
1068.920, 49388.00
1070.023, 49478.00
1071.126, 49699.00
1072.229, 49720.00
1073.332, 49600.00
1074.435, 49427.00
1075.537, 49598.00
1076.639, 50074.00
1077.741, 49800.00
1078.843, 49818.00
1079.945, 49998.00
1081.046, 49777.00
1082.148, 50120.00
1083.249, 49992.00
1084.350, 50205.00
1085.451, 50387.00
1086.551, 50733.00
1087.652, 50694.00
1088.752, 50634.00
1089.853, 51037.00
1090.953, 50780.00
1092.053, 50604.00
1093.152, 50488.00
1094.252, 50689.00
1095.351, 50350.00
1096.451, 50303.00
1097.550, 50316.00
1098.649, 50106.00
1099.748, 50247.00
1100.846, 49910.00
1101.945, 49936.00
1103.043, 50002.00
1104.141, 49994.00
1105.239, 49662.00
1106.337, 49855.00
1107.434, 49716.00
1108.532, 49864.00
1109.629, 49808.98
1110.726, 49915.00
1111.823, 49680.00
1112.920, 49733.00
1114.017, 49610.00
1115.113, 49550.00
1116.210, 49853.00
1117.306, 50193.00
1118.402, 49726.00
1119.498, 49881.00
1120.593, 49586.00
1121.689, 49610.00
1122.784, 49834.00
1123.879, 49872.00
1124.974, 49726.00
1126.069, 49882.00
1127.164, 49847.00
1128.259, 49468.00
1129.353, 49789.00
1130.447, 50038.00
1131.541, 49499.00
1132.635, 49667.00
1133.729, 49638.00
1134.822, 49747.00
1135.916, 49814.00
1137.009, 49706.00
1138.102, 49893.00
1139.195, 49851.00
1140.288, 50001.00
1141.380, 49864.00
1142.473, 49805.00
1143.565, 49653.00
1144.657, 49995.00
1145.749, 49979.00
1146.841, 50106.00
1147.932, 49720.00
1149.024, 49809.00
1150.115, 49940.00
1151.206, 50185.00
1152.297, 49802.00
1153.388, 50048.00
1154.479, 49983.00
1155.569, 50058.00
1156.659, 49974.00
1157.750, 50039.00
1158.839, 50009.00
1159.929, 49660.00
1161.019, 50075.00
1162.108, 49851.00
1163.198, 50090.00
1164.287, 49973.00
1165.376, 49849.00
1166.465, 49836.00
1167.553, 50123.00
1168.642, 49980.00
1169.730, 50073.00
1170.818, 50018.00
1171.906, 49957.00
1172.994, 49828.00
1174.082, 49957.00
1175.170, 49871.00
1176.257, 49663.00
1177.344, 50103.00
1178.431, 50195.00
1179.518, 49924.00
1180.605, 50055.00
1181.691, 49869.00
1182.778, 49880.00
1183.864, 50042.00
1184.950, 50060.00
1186.036, 50086.00
1187.122, 50091.00
1188.207, 50090.00
1189.292, 49976.00
1190.378, 49975.00
1191.463, 49992.19
1192.548, 50176.00
1193.632, 50063.00
1194.717, 50179.00
1195.801, 50210.00
1196.886, 50238.00
1197.970, 50096.00
1199.054, 50184.00
1200.137, 50220.00
1201.221, 49940.00
1202.305, 49864.00
1203.388, 50128.00
1204.471, 49939.00
1205.554, 50108.00
1206.637, 50341.00
1207.719, 50131.00
1208.802, 50108.00
1209.884, 49888.00
1210.966, 49955.00
1212.048, 49939.00
1213.130, 50218.00
1214.212, 49956.00
1215.293, 50112.00
1216.374, 50042.00
1217.456, 50241.00
1218.536, 50345.00
1219.617, 50003.00
1220.698, 50048.00
1221.778, 49879.00
1222.859, 49932.00
1223.939, 50177.00
1225.019, 50147.00
1226.099, 50382.00
1227.178, 49973.00
1228.258, 50114.00
1229.337, 50258.00
1230.417, 50240.00
1231.496, 50316.00
1232.574, 49867.00
1233.653, 50181.00
1234.732, 49968.00
1235.810, 50177.00
1236.888, 50317.00
1237.966, 50343.00
1239.044, 49975.00
1240.122, 50166.00
1241.199, 50095.00
1242.277, 50186.00
1243.354, 50319.00
1244.431, 50193.00
1245.508, 50384.00
1246.585, 50289.00
1247.661, 50287.09
1248.738, 49966.00
1249.814, 50226.00
1250.890, 50247.00
1251.966, 50203.00
1253.042, 50603.00
1254.117, 50091.00
1255.193, 50250.00
1256.268, 50107.00
1257.343, 50292.00
1258.418, 50094.00
1259.493, 50274.93
1260.567, 50394.00
1261.642, 50581.00
1262.716, 50226.00
1263.790, 50358.00
1264.864, 50335.00
1265.938, 50325.00
1267.011, 50273.00
1268.085, 50228.01
1269.158, 50270.03
1270.231, 50111.00
1271.304, 50317.00
1272.377, 50290.00
1273.450, 50226.00
1274.522, 50311.00
1275.594, 50334.00
1276.666, 50172.00
1277.738, 50180.00
1278.810, 50146.76
1279.882, 50459.00
1280.953, 50195.00
1282.025, 50315.00
1283.096, 50521.00
1284.167, 50452.00
1285.238, 50443.00
1286.308, 50168.00
1287.379, 50283.00
1288.449, 50338.00
1289.519, 50507.00
1290.589, 50534.00
1291.659, 50547.00
1292.729, 50526.00
1293.798, 50468.00
1294.868, 50629.00
1295.937, 50783.00
1297.006, 50546.00
1298.075, 50631.00
1299.143, 50626.00
1300.212, 50464.00
1301.280, 50798.00
1302.348, 50524.00
1303.416, 50749.00
1304.484, 50567.00
1305.552, 50528.00
1306.620, 50797.00
1307.687, 50466.00
1308.754, 50613.00
1309.821, 50638.00
1310.888, 50570.00
1311.955, 50588.00
1313.021, 50787.00
1314.088, 50738.69
1315.154, 50922.00
1316.220, 50863.00
1317.286, 51015.00
1318.352, 51186.00
1319.417, 50973.00
1320.483, 50927.00
1321.548, 50994.00
1322.613, 51059.00
1323.678, 51130.00
1324.743, 50970.00
1325.807, 51049.00
1326.872, 51085.00
1327.936, 51151.00
1329.000, 50977.00
1330.064, 51168.00
1331.128, 51013.00
1332.191, 51324.00
1333.255, 51087.00
1334.318, 51137.00
1335.381, 51276.00
1336.444, 51385.00
1337.507, 51094.00
1338.569, 51317.00
1339.632, 51187.00
1340.694, 51367.00
1341.756, 51274.00
1342.818, 51389.00
1343.880, 51226.00
1344.941, 51341.00
1346.003, 51306.00
1347.064, 51219.00
1348.125, 51227.00
1349.186, 51310.00
1350.247, 51273.00
1351.308, 51492.00
1352.368, 51416.00
1353.428, 51405.00
1354.489, 51318.00
1355.549, 51350.41
1356.608, 51273.00
1357.668, 51385.00
1358.727, 51398.00
1359.787, 51353.00
1360.846, 51476.00
1361.905, 51528.00
1362.964, 51645.00
1364.022, 51369.00
1365.081, 51625.00
1366.139, 51636.00
1367.197, 51720.00
1368.255, 51922.00
1369.313, 51501.00
1370.371, 51735.00
1371.428, 51683.00
1372.486, 51682.00
1373.543, 51947.00
1374.600, 51638.00
1375.657, 51666.00
1376.713, 51839.00
1377.770, 51789.00
1378.826, 51826.61
1379.882, 51675.00
1380.938, 51785.00
1381.994, 51869.00
1383.050, 51826.00
1384.106, 51906.00
1385.161, 51768.00
1386.216, 52093.00
1387.271, 52048.00
1388.326, 51664.00
1389.381, 51906.00
1390.435, 51838.00
1391.490, 51885.00
1392.544, 52064.00
1393.598, 51859.00
1394.652, 51977.00
1395.705, 51837.00
1396.759, 51875.00
1397.812, 51748.00
1398.866, 51826.05
1399.919, 52051.00
1400.972, 51993.00
1402.024, 52059.00
1403.077, 52150.00
1404.129, 52263.00
1405.181, 52295.00
1406.233, 52270.00
1407.285, 52099.00
1408.337, 52129.00
1409.389, 52227.00
1410.440, 52593.00
1411.491, 52365.00
1412.542, 52541.00
1413.593, 52494.00
1414.644, 52190.00
1415.695, 52478.00
1416.745, 52047.00
1417.795, 52253.00
1418.845, 52570.00
1419.895, 52642.00
1420.945, 52607.00
1421.995, 52361.00
1423.044, 52448.00
1424.093, 52480.00
1425.142, 52359.00
1426.191, 52524.00
1427.240, 52710.00
1428.289, 52779.00
1429.337, 52648.00
1430.385, 52452.00
1431.433, 52679.00
1432.481, 52503.00
1433.529, 52455.00
1434.577, 52546.00
1435.624, 52491.36
1436.672, 52601.00
1437.719, 52599.00
1438.766, 52758.00
1439.812, 52887.00
1440.859, 52988.00
1441.905, 53018.29
1442.952, 52906.00
1443.998, 52998.00
1445.044, 52921.00
1446.090, 52872.00
1447.135, 53046.00
1448.181, 52883.00
1449.226, 52970.00
1450.271, 52877.00
1451.316, 53127.00
1452.361, 52899.00
1453.405, 53130.00
1454.450, 52721.00
1455.494, 53169.00
1456.538, 53291.00
1457.582, 53165.00
1458.626, 53140.00
1459.670, 53346.00
1460.713, 53158.00
1461.757, 53234.00
1462.800, 53326.00
1463.843, 53263.00
1464.886, 53303.00
1465.928, 53283.00
1466.971, 53279.39
1468.013, 53355.00
1469.055, 53354.00
1470.097, 53368.00
1471.139, 53553.00
1472.181, 53467.00
1473.222, 53680.00
1474.263, 53508.00
1475.305, 53518.00
1476.346, 53855.00
1477.386, 53744.00
1478.427, 53213.00
1479.468, 53607.00
1480.508, 53721.00
1481.548, 53347.00
1482.588, 53666.00
1483.628, 54016.00
1484.668, 53604.00
1485.707, 53774.00
1486.747, 53735.00
1487.786, 53918.00
1488.825, 53952.00
1489.864, 53939.00
1490.902, 53915.00
1491.941, 53776.00
1492.979, 53645.00
1494.017, 53762.00
1495.055, 53941.00
1496.093, 53969.00
1497.131, 54150.00
1498.168, 54118.00
1499.206, 53798.00
1500.243, 53897.00
1501.280, 54059.00
1502.317, 54414.00
1503.354, 54098.00
1504.390, 54057.00
1505.426, 54201.00
1506.463, 53980.00
1507.499, 54112.00
1508.535, 54370.00
1509.570, 54473.00
1510.606, 54145.00
1511.641, 53933.00
1512.676, 54513.00
1513.711, 54188.00
1514.746, 54610.00
1515.781, 54586.00
1516.816, 54343.00
1517.850, 54517.00
1518.884, 54136.00
1519.918, 54292.00
1520.952, 54491.00
1521.986, 54679.00
1523.019, 54460.00
1524.053, 54304.00
1525.086, 54526.00
1526.119, 54463.00
1527.152, 54476.00
1528.185, 54387.00
1529.217, 54677.00
1530.250, 54481.00
1531.282, 54776.00
1532.314, 54686.00
1533.346, 54982.00
1534.377, 54469.00
1535.409, 54661.00
1536.440, 54816.00
1537.472, 54684.00
1538.503, 54741.00
1539.534, 55098.00
1540.564, 54879.00
1541.595, 54939.00
1542.625, 54923.00
1543.656, 54775.00
1544.686, 55018.00
1545.716, 55101.00
1546.745, 54900.00
1547.775, 55041.00
1548.804, 55009.00
1549.834, 55347.00
1550.863, 55145.00
1551.892, 55121.00
1552.920, 54850.00
1553.949, 55075.00
1554.977, 54918.00
1556.006, 54891.00
1557.034, 55203.00
1558.062, 55374.00
1559.089, 55414.00
1560.117, 55070.00
1561.144, 55001.00
1562.172, 55134.00
1563.199, 55066.00
1564.226, 55177.00
1565.252, 55339.00
1566.279, 55055.00
1567.305, 55120.00
1568.332, 55296.00
1569.358, 55151.00
1570.384, 55368.00
1571.409, 55861.00
##END=



