##NAMES=Catapleiite
##RRUFFID=R060198
##IDEAL CHEMISTRY=Na_2_Zr^4+^Si_3_O_9_&#183;2H_2_O
##LOCALITY=Mont Saint-Hilaire, Rouville County, Quebec, Canada
##OWNER=RRUFF
##SOURCE=Royal Ontario Museum
##DESCRIPTION=Tan colored pseudohexagonal tabular crystals
##STATUS=The identification of this mineral has been confirmed by X-ray diffraction and chemical analysis
##URL=rruff.info/R060198
##MEASURED CHEMISTRY=(Na_1.92_Ca_0.04_[box]_0.04_)_Σ=2_Zr_1.00_Si_3.00_O_9_·2H_2_O
##PIN_ID=L01561
##ORIENTATION=Laser parallel to b* (0 1 0). Fiducial mark perpendicular to laser is parallel to c [0 0 1]
95.94800, 8625.000
97.18200, 8504.000
98.41600, 8560.000
99.64900, 8587.000
100.8830, 8650.000
102.1160, 8521.000
103.3490, 8740.000
104.5820, 8846.000
105.8150, 9098.000
107.0470, 9407.000
108.2800, 10095.00
109.5120, 10470.00
110.7440, 9868.000
111.9760, 9519.000
113.2080, 9764.000
114.4400, 9706.000
115.6710, 10005.00
116.9030, 10094.00
118.1340, 9975.000
119.3650, 9934.000
120.5960, 9924.447
121.8270, 9849.000
123.0580, 9886.000
124.2880, 10000.00
125.5190, 10066.00
126.7490, 9900.000
127.9790, 10113.00
129.2090, 10067.00
130.4390, 10260.00
131.6680, 10237.00
132.8980, 10389.00
134.1270, 10404.00
135.3560, 10313.00
136.5850, 10520.00
137.8140, 10877.00
139.0430, 10967.00
140.2710, 10979.00
141.5000, 11103.00
142.7280, 11194.91
143.9560, 11239.00
145.1840, 11435.00
146.4120, 11647.00
147.6390, 11786.00
148.8670, 11815.00
150.0940, 11946.00
151.3210, 12186.00
152.5490, 12210.00
153.7750, 12362.00
155.0020, 12397.00
156.2290, 12399.00
157.4550, 12359.00
158.6810, 12188.00
159.9080, 12002.00
161.1340, 11956.00
162.3590, 11529.00
163.5850, 11381.00
164.8110, 11210.00
166.0360, 10831.00
167.2610, 10565.00
168.4860, 10280.00
169.7110, 10025.00
170.9360, 9677.000
172.1610, 9525.000
173.3850, 9234.000
174.6100, 9125.000
175.8340, 8845.000
177.0580, 8715.000
178.2820, 8504.000
179.5050, 8417.000
180.7290, 8266.000
181.9520, 8206.000
183.1760, 8177.000
184.3990, 8091.000
185.6220, 8126.000
186.8450, 8254.000
188.0670, 8154.000
189.2900, 8105.000
190.5120, 8310.000
191.7340, 8264.000
192.9560, 8401.000
194.1780, 8433.000
195.4000, 8652.000
196.6220, 8671.000
197.8430, 8914.000
199.0640, 8910.000
200.2860, 9059.000
201.5070, 9183.000
202.7270, 9411.000
203.9480, 9456.000
205.1690, 9366.000
206.3890, 9173.000
207.6090, 9104.000
208.8290, 9113.000
210.0490, 9031.000
211.2690, 8951.000
212.4890, 8834.775
213.7080, 8696.000
214.9280, 8535.000
216.1470, 8323.000
217.3660, 8169.000
218.5850, 8008.000
219.8030, 7902.000
221.0220, 7744.000
222.2400, 7610.533
223.4590, 7483.619
224.6770, 7330.000
225.8950, 7235.000
227.1120, 7088.000
228.3300, 6992.000
229.5480, 6975.000
230.7650, 7031.000
231.9820, 6910.485
233.1990, 6851.000
234.4160, 6734.000
235.6330, 6777.000
236.8490, 6665.000
238.0660, 6607.000
239.2820, 6686.000
240.4980, 6510.000
241.7140, 6458.000
242.9300, 6543.000
244.1460, 6452.000
245.3610, 6466.000
246.5770, 6442.000
247.7920, 6340.000
249.0070, 6341.000
250.2220, 6244.000
251.4370, 6297.470
252.6510, 6423.000
253.8660, 6423.000
255.0800, 6441.000
256.2940, 6520.000
257.5080, 6481.000
258.7220, 6726.000
259.9360, 6970.000
261.1490, 7134.000
262.3630, 6752.000
263.5760, 6510.000
264.7890, 6392.000
266.0020, 6414.000
267.2150, 6314.000
268.4270, 6307.846
269.6400, 6441.000
270.8520, 6287.000
272.0640, 6314.000
273.2760, 6297.000
274.4880, 6481.000
275.7000, 6545.000
276.9120, 6508.000
278.1230, 6464.000
279.3340, 6741.000
280.5450, 6774.000
281.7560, 6819.000
282.9670, 6929.000
284.1780, 7048.878
285.3880, 7256.000
286.5980, 7382.000
287.8090, 7578.000
289.0190, 7787.000
290.2290, 7793.000
291.4380, 7978.000
292.6480, 7983.000
293.8570, 8172.000
295.0670, 8103.000
296.2760, 8132.010
297.4850, 8153.000
298.6930, 8018.000
299.9020, 7927.000
301.1110, 7729.000
302.3190, 7702.000
303.5270, 7652.000
304.7350, 7605.000
305.9430, 7571.000
307.1510, 7452.000
308.3580, 7414.000
309.5660, 7350.000
310.7730, 7318.594
311.9800, 7255.000
313.1870, 7274.000
314.3940, 7217.000
315.6010, 7152.000
316.8070, 7224.000
318.0130, 7153.000
319.2200, 7186.000
320.4260, 7065.000
321.6310, 7139.000
322.8370, 7191.000
324.0430, 7075.000
325.2480, 7056.000
326.4540, 7109.000
327.6590, 7075.000
328.8640, 7000.000
330.0680, 6939.000
331.2730, 6857.000
332.4780, 6852.000
333.6820, 6822.000
334.8860, 6864.000
336.0900, 6751.000
337.2940, 6739.000
338.4980, 6719.000
339.7010, 6767.000
340.9050, 6699.000
342.1080, 6646.000
343.3110, 6566.000
344.5140, 6541.000
345.7170, 6488.000
346.9200, 6534.000
348.1220, 6588.000
349.3240, 6591.000
350.5270, 6674.000
351.7290, 6618.000
352.9310, 6732.000
354.1320, 6749.000
355.3340, 6806.000
356.5350, 6897.000
357.7370, 7001.000
358.9380, 7121.000
360.1390, 7103.000
361.3400, 7095.000
362.5400, 7196.000
363.7410, 7282.000
364.9410, 7414.000
366.1410, 7307.000
367.3410, 7361.000
368.5410, 7390.000
369.7410, 7476.000
370.9400, 7315.000
372.1400, 7314.000
373.3390, 7322.000
374.5380, 7360.000
375.7370, 7356.000
376.9360, 7328.000
378.1350, 7280.000
379.3330, 7206.000
380.5310, 7211.000
381.7300, 7186.648
382.9280, 7273.000
384.1260, 7190.000
385.3230, 7262.000
386.5210, 7266.000
387.7180, 7126.000
388.9160, 7130.000
390.1130, 7168.000
391.3100, 7164.000
392.5060, 7178.000
393.7030, 7189.000
394.9000, 7181.000
396.0960, 7205.000
397.2920, 7185.000
398.4880, 7248.866
399.6840, 7379.000
400.8800, 7389.000
402.0750, 7511.000
403.2710, 7615.000
404.4660, 7809.000
405.6610, 7891.000
406.8560, 8140.000
408.0510, 8431.000
409.2450, 8880.000
410.4400, 9286.000
411.6340, 9751.000
412.8280, 10202.00
414.0220, 10840.00
415.2160, 11631.98
416.4100, 12543.24
417.6030, 13625.00
418.7970, 14795.00
419.9900, 16229.00
421.1830, 17646.00
422.3760, 18860.00
423.5690, 20030.00
424.7610, 21122.00
425.9540, 21638.00
427.1460, 21900.00
428.3380, 21647.00
429.5300, 21175.00
430.7220, 20478.00
431.9140, 19527.00
433.1050, 18216.00
434.2970, 17072.00
435.4880, 15908.00
436.6790, 14717.00
437.8700, 13688.00
439.0610, 12974.00
440.2510, 11943.00
441.4420, 11489.00
442.6320, 10813.00
443.8220, 10394.00
445.0120, 10082.00
446.2020, 9699.000
447.3910, 9282.000
448.5810, 9121.000
449.7700, 8986.000
450.9600, 8633.000
452.1490, 8497.000
453.3370, 8413.000
454.5260, 8181.000
455.7150, 8036.000
456.9030, 7985.000
458.0910, 7916.000
459.2800, 7811.000
460.4670, 7747.000
461.6550, 7723.889
462.8430, 7672.130
464.0300, 7648.000
465.2180, 7632.000
466.4050, 7584.114
467.5920, 7540.775
468.7790, 7505.000
469.9650, 7423.000
471.1520, 7376.000
472.3380, 7305.000
473.5250, 7253.000
474.7110, 7271.000
475.8970, 7286.000
477.0820, 7256.000
478.2680, 7255.000
479.4540, 7234.107
480.6390, 7212.000
481.8240, 7195.000
483.0090, 7236.000
484.1940, 7241.000
485.3780, 7247.000
486.5630, 7279.000
487.7470, 7245.000
488.9320, 7250.000
490.1160, 7271.000
491.3000, 7296.000
492.4830, 7300.229
493.6670, 7227.000
494.8500, 7318.000
496.0340, 7271.000
497.2170, 7275.000
498.4000, 7292.000
499.5820, 7170.000
500.7650, 7454.000
501.9480, 7322.000
503.1300, 7531.000
504.3120, 7525.000
505.4940, 7603.000
506.6760, 7677.000
507.8580, 7767.000
509.0390, 7700.000
510.2210, 7898.000
511.4020, 8026.000
512.5830, 8230.000
513.7640, 8224.000
514.9450, 8452.000
516.1250, 8544.000
517.3060, 8768.000
518.4860, 8895.000
519.6660, 8850.000
520.8460, 9033.000
522.0260, 9121.000
523.2060, 9319.000
524.3850, 9278.000
525.5650, 9255.000
526.7440, 9297.000
527.9230, 9437.000
529.1020, 9347.000
530.2810, 9467.000
531.4590, 9440.000
532.6380, 9350.000
533.8160, 9403.000
534.9940, 9463.000
536.1720, 9430.000
537.3500, 9401.000
538.5270, 9436.000
539.7050, 9379.000
540.8820, 9369.000
542.0590, 9486.000
543.2360, 9515.000
544.4130, 9498.000
545.5900, 9672.000
546.7660, 9724.000
547.9430, 9831.000
549.1190, 10074.00
550.2950, 10270.00
551.4710, 10637.00
552.6470, 10992.63
553.8220, 11425.84
554.9980, 11937.00
556.1730, 12516.00
557.3480, 13210.00
558.5230, 13989.00
559.6980, 15028.00
560.8730, 16070.00
562.0470, 17393.00
563.2220, 18739.00
564.3960, 20301.00
565.5700, 21647.00
566.7440, 23077.00
567.9170, 24140.00
569.0910, 24853.00
570.2640, 25269.00
571.4380, 25026.00
572.6110, 24585.00
573.7840, 23624.00
574.9570, 22642.00
576.1290, 20626.00
577.3020, 19309.00
578.4740, 17662.00
579.6460, 15955.00
580.8180, 14769.00
581.9900, 13466.00
583.1620, 12437.00
584.3330, 11502.00
585.5040, 10685.00
586.6760, 10204.00
587.8470, 9543.000
589.0180, 9307.000
590.1880, 8802.000
591.3590, 8714.000
592.5290, 8376.000
593.7000, 8264.000
594.8700, 8096.000
596.0400, 8071.000
597.2090, 7942.000
598.3790, 7951.000
599.5490, 7931.000
600.7180, 7847.000
601.8870, 7853.000
603.0560, 7787.000
604.2250, 7930.000
605.3940, 8043.000
606.5620, 7974.000
607.7300, 8218.000
608.8990, 8356.000
610.0670, 8526.000
611.2350, 8720.000
612.4020, 9259.000
613.5700, 9444.000
614.7370, 9985.000
615.9050, 10920.00
617.0720, 11541.00
618.2390, 12682.00
619.4060, 13883.00
620.5720, 15547.00
621.7390, 17295.00
622.9050, 19353.00
624.0710, 21037.00
625.2370, 22412.00
626.4030, 23500.00
627.5690, 23666.00
628.7340, 23444.00
629.9000, 22645.00
631.0650, 21130.00
632.2300, 19598.00
633.3950, 17767.00
634.5600, 15973.00
635.7240, 14276.00
636.8890, 13123.00
638.0530, 11747.00
639.2170, 10746.00
640.3810, 10145.00
641.5450, 9430.000
642.7080, 9033.000
643.8720, 8751.000
645.0350, 8205.000
646.1980, 8048.000
647.3610, 7837.000
648.5240, 7647.000
649.6870, 7520.000
650.8490, 7473.000
652.0120, 7328.000
653.1740, 7323.000
654.3360, 7124.000
655.4980, 7081.000
656.6600, 7040.000
657.8210, 6912.000
658.9830, 6985.000
660.1440, 6899.000
661.3050, 7031.000
662.4660, 6937.000
663.6270, 6838.000
664.7870, 6826.000
665.9480, 6845.000
667.1080, 6806.000
668.2680, 6806.000
669.4280, 6790.000
670.5880, 6728.000
671.7480, 6744.000
672.9070, 6698.000
674.0670, 6657.893
675.2260, 6730.000
676.3850, 6565.000
677.5440, 6702.000
678.7030, 6661.000
679.8610, 6779.000
681.0200, 6633.000
682.1780, 6647.000
683.3360, 6667.000
684.4940, 6786.000
685.6520, 6703.000
686.8090, 6728.000
687.9670, 6762.000
689.1240, 6758.000
690.2810, 6748.000
691.4380, 6697.000
692.5950, 6678.000
693.7520, 6649.000
694.9080, 6744.000
696.0650, 6615.000
697.2210, 6711.000
698.3770, 6622.000
699.5330, 6693.000
700.6880, 6668.000
701.8440, 6696.000
702.9990, 6598.000
704.1550, 6662.000
705.3100, 6597.000
706.4650, 6799.000
707.6190, 6847.000
708.7740, 6799.000
709.9290, 6806.000
711.0830, 6837.000
712.2370, 6878.000
713.3910, 6844.000
714.5450, 6913.000
715.6980, 6957.000
716.8520, 7007.059
718.0050, 7131.000
719.1580, 7149.000
720.3110, 7253.000
721.4640, 7319.000
722.6170, 7300.000
723.7700, 7462.000
724.9220, 7569.000
726.0740, 7517.000
727.2260, 7819.000
728.3780, 7901.000
729.5300, 7925.000
730.6810, 8047.000
731.8330, 8140.000
732.9840, 8189.000
734.1350, 8225.079
735.2860, 8238.000
736.4370, 8196.170
737.5880, 8115.000
738.7380, 8019.000
739.8880, 7952.000
741.0390, 7844.000
742.1890, 7733.000
743.3380, 7604.000
744.4880, 7559.000
745.6380, 7406.000
746.7870, 7436.000
747.9360, 7199.000
749.0850, 7243.000
750.2340, 7083.000
751.3830, 7093.000
752.5310, 6947.000
753.6800, 6958.000
754.8280, 6869.000
755.9760, 6787.000
757.1240, 6796.000
758.2720, 6827.000
759.4190, 6818.000
760.5670, 6764.000
761.7140, 6741.000
762.8610, 6732.000
764.0080, 6657.000
765.1550, 6659.000
766.3020, 6612.000
767.4480, 6555.000
768.5950, 6656.000
769.7410, 6731.000
770.8870, 6442.000
772.0330, 6640.000
773.1780, 6590.000
774.3240, 6577.000
775.4690, 6572.000
776.6140, 6566.000
777.7590, 6690.000
778.9040, 6530.000
780.0490, 6463.000
781.1940, 6627.000
782.3380, 6553.000
783.4820, 6667.000
784.6260, 6735.000
785.7700, 6678.000
786.9140, 6593.000
788.0580, 6677.000
789.2010, 6645.000
790.3450, 6666.000
791.4880, 6641.000
792.6310, 6668.000
793.7730, 6655.381
794.9160, 6694.000
796.0590, 6653.000
797.2010, 6678.000
798.3430, 6705.000
799.4850, 6721.000
800.6270, 6819.000
801.7690, 6863.000
802.9100, 6838.000
804.0520, 6827.000
805.1930, 6787.000
806.3340, 6709.000
807.4750, 6752.000
808.6160, 6911.000
809.7560, 6816.000
810.8970, 6910.000
812.0370, 6876.000
813.1770, 6877.000
814.3170, 6947.000
815.4570, 6934.000
816.5960, 7006.000
817.7360, 7022.000
818.8750, 7086.000
820.0140, 6987.000
821.1530, 7146.000
822.2920, 7143.000
823.4310, 7207.000
824.5690, 7287.000
825.7070, 7283.000
826.8460, 7364.000
827.9840, 7506.000
829.1220, 7421.000
830.2590, 7576.000
831.3970, 7675.000
832.5340, 7676.000
833.6710, 7767.000
834.8080, 7738.000
835.9450, 7752.000
837.0820, 7794.000
838.2190, 7801.000
839.3550, 7770.000
840.4910, 7687.000
841.6270, 7652.000
842.7630, 7639.000
843.8990, 7645.000
845.0350, 7536.000
846.1700, 7623.000
847.3060, 7703.000
848.4410, 7772.000
849.5760, 7596.000
850.7100, 7601.000
851.8450, 7664.000
852.9800, 7745.000
854.1140, 7594.000
855.2480, 7747.000
856.3820, 7498.000
857.5160, 7596.000
858.6500, 7666.000
859.7830, 7682.000
860.9170, 7597.000
862.0500, 7713.000
863.1830, 7569.000
864.3160, 7753.000
865.4480, 7698.000
866.5810, 7634.000
867.7130, 7750.000
868.8460, 7617.000
869.9780, 7812.000
871.1100, 7774.000
872.2410, 7736.000
873.3730, 7892.000
874.5050, 7821.000
875.6360, 7830.000
876.7670, 7805.000
877.8980, 7859.000
879.0290, 7914.000
880.1590, 7927.000
881.2900, 8021.000
882.4200, 8028.000
883.5500, 8078.000
884.6800, 8045.000
885.8100, 8179.000
886.9400, 8162.000
888.0690, 8140.000
889.1990, 8310.000
890.3280, 8302.000
891.4570, 8378.000
892.5860, 8529.000
893.7140, 8390.000
894.8430, 8655.000
895.9710, 8836.000
897.1000, 8841.000
898.2280, 9088.000
899.3560, 9217.000
900.4830, 9439.000
901.6110, 9747.000
902.7380, 10049.00
903.8660, 10413.00
904.9930, 10887.21
906.1200, 11440.00
907.2460, 11974.00
908.3730, 12614.00
909.5000, 13281.00
910.6260, 13895.00
911.7520, 14535.00
912.8780, 15167.00
914.0040, 15863.00
915.1290, 16840.00
916.2550, 17937.00
917.3800, 19308.00
918.5050, 21036.00
919.6300, 23195.00
920.7550, 26026.00
921.8800, 29176.00
923.0040, 32943.00
924.1290, 36869.00
925.2530, 41604.00
926.3770, 46498.00
927.5010, 51222.00
928.6250, 55511.00
929.7480, 58360.00
930.8720, 60489.00
931.9950, 60909.00
933.1180, 60483.00
934.2410, 58214.00
935.3640, 54973.00
936.4860, 50880.00
937.6090, 46343.00
938.7310, 41974.00
939.8530, 37579.00
940.9750, 33828.00
942.0970, 30598.00
943.2180, 28423.00
944.3400, 26315.00
945.4610, 24535.00
946.5820, 23100.00
947.7030, 21405.00
948.8240, 20065.00
949.9450, 18536.00
951.0650, 17082.00
952.1860, 15752.00
953.3060, 14620.00
954.4260, 13555.00
955.5460, 12834.00
956.6650, 11931.00
957.7850, 11508.00
958.9040, 11044.00
960.0230, 10731.00
961.1420, 10436.00
962.2610, 10285.00
963.3800, 10052.00
964.4990, 9859.000
965.6170, 9785.000
966.7350, 9676.000
967.8530, 9565.000
968.9710, 9536.000
970.0890, 9428.000
971.2070, 9397.000
972.3240, 9375.000
973.4410, 9498.000
974.5580, 9421.000
975.6750, 9543.000
976.7920, 9725.000
977.9090, 9759.000
979.0250, 9942.000
980.1410, 9835.000
981.2580, 10062.00
982.3740, 10149.00
983.4890, 10306.00
984.6050, 10687.00
985.7200, 10847.00
986.8360, 11331.00
987.9510, 11703.00
989.0660, 12288.00
990.1810, 13057.00
991.2950, 14009.00
992.4100, 15016.00
993.5240, 16027.00
994.6390, 17328.00
995.7530, 18833.00
996.8660, 20171.00
997.9800, 21605.00
999.0940, 22872.00
1000.207, 23968.00
1001.320, 25115.00
1002.433, 25892.00
1003.546, 26304.00
1004.659, 26589.22
1005.772, 26636.00
1006.884, 26212.00
1007.996, 25628.00
1009.108, 24737.00
1010.220, 23980.00
1011.332, 23165.00
1012.444, 22251.00
1013.555, 21082.00
1014.666, 20065.00
1015.777, 18956.00
1016.888, 18157.00
1017.999, 17210.00
1019.110, 16244.00
1020.220, 15308.00
1021.331, 14470.00
1022.441, 13846.00
1023.551, 13119.00
1024.661, 12705.00
1025.770, 12100.00
1026.880, 11618.00
1027.989, 11473.00
1029.098, 11153.00
1030.207, 10786.00
1031.316, 10674.00
1032.425, 10689.00
1033.533, 10522.00
1034.642, 10226.00
1035.750, 10363.00
1036.858, 10152.00
1037.966, 10191.00
1039.073, 10134.00
1040.181, 10030.00
1041.288, 9894.000
1042.396, 9861.000
1043.503, 9826.000
1044.610, 9756.000
1045.716, 9592.000
1046.823, 9553.000
1047.929, 9340.000
1049.036, 9384.000
1050.142, 9251.000
1051.248, 9238.000
1052.353, 9121.000
1053.459, 9103.000
1054.564, 9027.000
1055.670, 8925.000
1056.775, 9132.000
1057.880, 9005.000
1058.985, 8968.000
1060.089, 8987.000
1061.194, 8877.000
1062.298, 8832.000
1063.402, 8810.000
1064.506, 8806.315
1065.610, 8914.000
1066.713, 8899.000
1067.817, 8967.000
1068.920, 9079.000
1070.023, 8957.000
1071.126, 8966.000
1072.229, 9051.000
1073.332, 9206.000
1074.435, 9319.000
1075.537, 9411.000
1076.639, 9511.000
1077.741, 9582.000
1078.843, 9802.000
1079.945, 9866.000
1081.046, 10222.00
1082.148, 10342.00
1083.249, 10650.00
1084.350, 10928.00
1085.451, 11131.00
1086.551, 11394.00
1087.652, 11570.00
1088.752, 11470.00
1089.853, 11409.00
1090.953, 11293.00
1092.053, 11078.00
1093.152, 10839.00
1094.252, 10451.00
1095.351, 10252.00
1096.451, 9942.000
1097.550, 9793.000
1098.649, 9547.000
1099.748, 9505.000
1100.846, 9192.000
1101.945, 9101.000
1103.043, 9045.000
1104.141, 8791.000
1105.239, 8868.000
1106.337, 8812.000
1107.434, 8703.000
1108.532, 8735.000
1109.629, 8669.000
1110.726, 8732.000
1111.823, 8656.000
1112.920, 8655.000
1114.017, 8666.000
1115.113, 8591.000
1116.210, 8739.000
1117.306, 8755.000
1118.402, 8653.000
1119.498, 8757.000
1120.593, 8715.000
1121.689, 8932.000
1122.784, 8918.000
1123.879, 8926.000
1124.974, 8966.000
1126.069, 8907.000
1127.164, 8900.000
1128.259, 8847.000
1129.353, 8741.000
1130.447, 8761.000
1131.541, 8612.000
1132.635, 8636.000
1133.729, 8710.000
1134.822, 8709.000
1135.916, 8822.000
1137.009, 8716.000
1138.102, 8809.000
1139.195, 8768.667
1140.288, 8707.000
1141.380, 8705.000
1142.473, 8754.000
1143.565, 8727.000
1144.657, 8668.000
1145.749, 8647.000
1146.841, 8807.000
1147.932, 8700.000
1149.024, 8753.000
1150.115, 8630.000
1151.206, 8580.000
1152.297, 8660.000
1153.388, 8631.000
1154.479, 8613.000
1155.569, 8503.000
1156.659, 8654.000
1157.750, 8571.000
1158.839, 8609.000
1159.929, 8628.000
1161.019, 8588.000
1162.108, 8502.000
1163.198, 8539.246
1164.287, 8540.000
1165.376, 8552.000
1166.465, 8593.000
1167.553, 8585.000
1168.642, 8489.000
1169.730, 8576.000
1170.818, 8664.000
1171.906, 8472.000
1172.994, 8407.000
1174.082, 8521.000
1175.170, 8434.000
1176.257, 8532.000
1177.344, 8469.000
1178.431, 8430.000
1179.518, 8414.000
1180.605, 8482.000
1181.691, 8463.000
1182.778, 8391.000
1183.864, 8503.000
1184.950, 8387.000
1186.036, 8372.000
1187.122, 8356.000
1188.207, 8274.000
1189.292, 8391.000
1190.378, 8309.000
1191.463, 8272.000
1192.548, 8267.000
1193.632, 8429.000
1194.717, 8505.000
1195.801, 8453.000
1196.886, 8302.000
1197.970, 8265.000
1199.054, 8385.000
1200.137, 8285.000
1201.221, 8309.000
1202.305, 8389.000
1203.388, 8339.000
1204.471, 8361.000
1205.554, 8290.000
1206.637, 8353.000
1207.719, 8388.000
1208.802, 8264.000
1209.884, 8317.000
1210.966, 8322.000
1212.048, 8342.000
1213.130, 8281.000
1214.212, 8244.000
1215.293, 8177.000
1216.374, 8225.000
1217.456, 8305.000
1218.536, 8371.000
1219.617, 8259.000
1220.698, 8335.000
1221.778, 8251.000
1222.859, 8249.000
1223.939, 8321.000
1225.019, 8327.000
1226.099, 8322.000
1227.178, 8376.000
1228.258, 8280.000
1229.337, 8288.000
1230.417, 8393.000
1231.496, 8245.000
1232.574, 8264.000
1233.653, 8270.000
1234.732, 8353.000
1235.810, 8330.000
1236.888, 8283.000
1237.966, 8392.000
1239.044, 8235.000
1240.122, 8510.000
1241.199, 8358.000
1242.277, 8306.000
1243.354, 8479.000
1244.431, 8305.000
1245.508, 8524.000
1246.585, 8511.000
1247.661, 8510.000
1248.738, 8498.000
1249.814, 8459.000
1250.890, 8463.466
1251.966, 8509.000
1253.042, 8446.000
1254.117, 8471.000
1255.193, 8458.000
1256.268, 8457.000
1257.343, 8420.000
1258.418, 8397.000
1259.493, 8424.000
1260.567, 8463.000
1261.642, 8508.000
1262.716, 8510.000
1263.790, 8508.000
1264.864, 8539.670
1265.938, 8564.000
1267.011, 8569.000
1268.085, 8595.000
1269.158, 8589.000
1270.231, 8614.000
1271.304, 8600.492
1272.377, 8609.214
1273.450, 8549.000
1274.522, 8613.000
1275.594, 8542.000
1276.666, 8534.000
1277.738, 8613.000
1278.810, 8601.000
1279.882, 8653.000
1280.953, 8511.000
1282.025, 8552.000
1283.096, 8514.000
1284.167, 8582.000
1285.238, 8582.000
1286.308, 8437.000
1287.379, 8610.000
1288.449, 8542.000
1289.519, 8543.000
1290.589, 8722.000
1291.659, 8665.000
1292.729, 8548.000
1293.798, 8592.000
1294.868, 8504.000
1295.937, 8576.000
1297.006, 8674.000
1298.075, 8674.000
1299.143, 8548.000
1300.212, 8615.000
1301.280, 8595.000
1302.348, 8602.000
1303.416, 8603.000
1304.484, 8540.000
1305.552, 8589.000
1306.620, 8536.000
1307.687, 8673.000
1308.754, 8594.000
1309.821, 8699.000
1310.888, 8508.000
1311.955, 8545.000
1313.021, 8664.000
1314.088, 8763.000
1315.154, 8535.000
1316.220, 8589.000
1317.286, 8532.000
1318.352, 8643.000
1319.417, 8602.000
1320.483, 8594.000
1321.548, 8657.000
1322.613, 8589.000
1323.678, 8667.000
1324.743, 8626.000
1325.807, 8629.000
1326.872, 8844.000
1327.936, 8771.000
1329.000, 8735.000
1330.064, 8691.000
1331.128, 8605.000
1332.191, 8699.000
1333.255, 8751.000
1334.318, 8775.000
1335.381, 8990.000
1336.444, 8910.000
1337.507, 8822.000
1338.569, 8983.000
1339.632, 9040.000
1340.694, 9031.000
1341.756, 9021.000
1342.818, 9077.274
1343.880, 9127.000
1344.941, 9128.000
1346.003, 9059.000
1347.064, 9003.000
1348.125, 8998.000
1349.186, 9064.000
1350.247, 9066.000
1351.308, 9103.000
1352.368, 9104.000
1353.428, 9118.000
1354.489, 9310.000
1355.549, 9294.000
1356.608, 9427.000
1357.668, 9574.000
1358.727, 9570.000
1359.787, 9621.000
1360.846, 9700.000
1361.905, 9689.000
1362.964, 9700.000
1364.022, 9677.000
1365.081, 9588.000
1366.139, 9550.000
1367.197, 9349.000
1368.255, 9443.000
1369.313, 9292.000
1370.371, 9154.000
1371.428, 9167.000
1372.486, 9069.000
1373.543, 9028.000
1374.600, 8970.000
1375.657, 8924.000
1376.713, 9093.000
1377.770, 9063.000
1378.826, 9019.000
1379.882, 9044.000
1380.938, 8974.000
1381.994, 9051.000
1383.050, 9067.000
1384.106, 8925.000
1385.161, 9101.000
1386.216, 9094.000
1387.271, 9204.000
1388.326, 9250.000
1389.381, 9284.000
1390.435, 9267.000
1391.490, 9365.000
1392.544, 9625.000
1393.598, 9676.000
1394.652, 9700.000
1395.705, 9756.000
1396.759, 9754.000
1397.812, 9725.301
1398.866, 9657.384
1399.919, 9585.000
1400.972, 9399.000
1402.024, 9232.000
1403.077, 8996.000
1404.129, 8963.000
1405.181, 8859.195
1406.233, 8878.000
1407.285, 8822.000
1408.337, 8782.000
1409.389, 8833.000
1410.440, 8754.000
1411.491, 8767.000
1412.542, 8843.000
1413.593, 8718.000
1414.644, 8773.000
1415.695, 8713.000
1416.745, 8721.000
1417.795, 8728.000
1418.845, 8752.000
1419.895, 8689.000
1420.945, 8813.000
1421.995, 8883.000
1423.044, 8847.000
1424.093, 8887.000
1425.142, 8967.000
1426.191, 8894.000
1427.240, 8905.000
1428.289, 8881.000
1429.337, 8896.483
1430.385, 9089.000
1431.433, 8974.000
1432.481, 8975.000
1433.529, 9044.000
1434.577, 8931.000
1435.624, 9016.000
1436.672, 8978.000
1437.719, 9057.000
1438.766, 9154.000
1439.812, 9236.000
1440.859, 9196.000
1441.905, 9182.000
1442.952, 9191.000
1443.998, 9175.324
1445.044, 9283.000
1446.090, 9206.000
1447.135, 9249.000
1448.181, 9328.000
1449.226, 9189.000
1450.271, 9272.000
1451.316, 9357.000
1452.361, 9252.000
1453.405, 9222.000
1454.450, 9201.000
1455.494, 9333.000
1456.538, 9135.000
1457.582, 9278.000
1458.626, 9328.000
1459.670, 9290.000
1460.713, 9322.000
1461.757, 9286.000
1462.800, 9298.000
1463.843, 9367.000
1464.886, 9434.000
1465.928, 9432.000
1466.971, 9389.000
1468.013, 9432.000
1469.055, 9370.000
1470.097, 9395.000
1471.139, 9441.000
1472.181, 9448.000
1473.222, 9547.000
1474.263, 9409.000
1475.305, 9360.000
1476.346, 9480.000
1477.386, 9316.000
1478.427, 9324.000
1479.468, 9531.000
1480.508, 9384.000
1481.548, 9289.000
1482.588, 9378.000
1483.628, 9464.000
1484.668, 9300.000
1485.707, 9338.000
1486.747, 9511.000
1487.786, 9458.000
1488.825, 9407.000
1489.864, 9330.000
1490.902, 9337.458
1491.941, 9420.000
1492.979, 9400.000
1494.017, 9336.000
1495.055, 9470.000
1496.093, 9368.000
1497.131, 9269.000
1498.168, 9269.000
1499.206, 9304.000
1500.243, 9348.000
1501.280, 9375.000
1502.317, 9277.000
1503.354, 9290.000
1504.390, 9332.000
1505.426, 9377.000
1506.463, 9420.300
1507.499, 9481.000
1508.535, 9486.000
1509.570, 9431.000
1510.606, 9363.000
1511.641, 9462.000
1512.676, 9327.000
1513.711, 9468.000
1514.746, 9324.000
1515.781, 9443.000
1516.816, 9438.000
1517.850, 9375.000
1518.884, 9421.000
1519.918, 9539.000
1520.952, 9424.000
1521.986, 9524.000
1523.019, 9416.000
1524.053, 9357.000
1525.086, 9524.000
1526.119, 9521.000
1527.152, 9448.000
1528.185, 9545.000
1529.217, 9409.000
1530.250, 9347.000
1531.282, 9641.000
1532.314, 9656.000
1533.346, 9491.000
1534.377, 9560.000
1535.409, 9632.000
1536.440, 9531.000
1537.472, 9511.000
1538.503, 9566.000
1539.534, 9620.000
1540.564, 9717.000
1541.595, 9709.000
1542.625, 9738.000
1543.656, 9831.000
1544.686, 9979.000
1545.716, 9983.000
1546.745, 10031.92
1547.775, 10038.90
1548.804, 9991.967
1549.834, 9985.370
1550.863, 9873.000
1551.892, 9827.000
1552.920, 9951.000
1553.949, 10023.00
1554.977, 9793.000
1556.006, 9840.000
1557.034, 9790.000
1558.062, 9751.000
1559.089, 9785.000
1560.117, 9761.000
1561.144, 9737.000
1562.172, 9725.000
1563.199, 9855.000
1564.226, 9760.000
1565.252, 9751.000
1566.279, 10029.00
1567.305, 9834.000
1568.332, 9781.000
1569.358, 9902.000
1570.384, 9919.000
##END=



