##NAMES=Celestine
##RRUFFID=R050008
##IDEAL CHEMISTRY=SrS^6+^O_4_
##LOCALITY=Scofield Quarry, Maybee, Monroe County, Michigan, USA
##OWNER=RRUFF
##SOURCE=Eugene Schlepp
##DESCRIPTION=Pale blue tabular crystals
##STATUS=The identification of this mineral has been confirmed by X-ray diffraction and chemical analysis
##URL=rruff.info/R050008
##MEASURED CHEMISTRY=Sr_1.00_S_1.00_O_4_
##PIN_ID=M00186
##ORIENTATION=Laser parallel to c* (0 0 1). Fiducial mark perpendicular to laser is parallel to -a [-1 0 0]
54.807, 366.000
56.212, 384.000
57.617, 390.000
59.021, 410.000
60.426, 418.000
61.830, 415.000
63.234, 405.000
64.637, 403.000
66.041, 392.000
67.444, 403.000
68.847, 406.000
70.250, 390.000
71.652, 402.000
73.054, 392.000
74.456, 386.000
75.858, 376.000
77.260, 384.000
78.661, 379.000
80.062, 390.000
81.463, 400.000
82.863, 426.000
84.264, 492.000
85.664, 583.000
87.064, 723.000
88.463, 800.000
89.863, 790.000
91.262, 737.000
92.661, 738.000
94.059, 743.000
95.458, 707.000
96.856, 726.000
98.254, 706.000
99.652, 627.000
101.049, 584.000
102.446, 559.000
103.843, 522.000
105.240, 512.000
106.637, 502.000
108.033, 509.000
109.429, 640.000
110.825, 580.473
112.220, 574.308
113.616, 542.000
115.011, 483.000
116.406, 448.000
117.800, 434.000
119.195, 424.000
120.589, 412.000
121.983, 431.000
123.377, 435.000
124.770, 431.000
126.163, 439.000
127.556, 427.000
128.949, 432.000
130.342, 421.000
131.734, 436.000
133.126, 425.000
134.518, 418.000
135.909, 416.000
137.301, 404.000
138.692, 394.000
140.083, 397.000
141.473, 397.000
142.864, 398.000
144.254, 401.000
145.644, 388.000
147.034, 398.000
148.423, 380.000
149.812, 400.000
151.201, 400.000
152.590, 399.000
153.979, 392.000
155.367, 412.000
156.755, 402.000
158.143, 413.000
159.530, 440.000
160.918, 441.000
162.305, 454.000
163.692, 490.000
165.078, 540.000
166.465, 605.000
167.851, 662.000
169.237, 711.000
170.623, 711.000
172.008, 677.000
173.393, 601.000
174.778, 550.000
176.163, 497.000
177.548, 463.000
178.932, 449.000
180.316, 444.000
181.700, 417.000
183.083, 410.000
184.467, 408.000
185.850, 402.000
187.233, 411.000
188.616, 399.000
189.998, 400.000
191.380, 390.000
192.762, 397.000
194.144, 407.000
195.525, 403.000
196.907, 418.000
198.288, 431.000
199.669, 427.000
201.049, 417.000
202.429, 420.000
203.810, 406.000
205.189, 396.000
206.569, 381.000
207.949, 362.000
209.328, 368.000
210.707, 382.000
212.085, 369.000
213.464, 366.000
214.842, 377.000
216.220, 372.000
217.598, 358.000
218.976, 356.000
220.353, 362.000
221.730, 365.000
223.107, 362.000
224.483, 359.000
225.860, 367.000
227.236, 364.000
228.612, 367.000
229.988, 370.000
231.363, 355.000
232.738, 365.000
234.113, 359.000
235.488, 374.000
236.863, 372.000
238.237, 359.000
239.611, 361.000
240.985, 366.000
242.359, 368.000
243.732, 356.000
245.105, 361.500
246.478, 350.000
247.851, 363.000
249.223, 363.000
250.595, 368.000
251.967, 371.651
253.339, 371.670
254.711, 374.000
256.082, 373.000
257.453, 372.000
258.824, 373.000
260.195, 367.000
261.565, 368.000
262.935, 369.000
264.305, 369.000
265.675, 379.000
267.044, 371.000
268.414, 379.000
269.783, 375.026
271.151, 360.000
272.520, 368.000
273.888, 369.000
275.256, 366.000
276.624, 369.000
277.992, 362.000
279.359, 377.000
280.726, 370.000
282.093, 373.000
283.460, 367.000
284.827, 364.000
286.193, 366.000
287.559, 379.000
288.925, 367.000
290.290, 374.000
291.656, 372.000
293.021, 354.000
294.386, 377.000
295.750, 360.000
297.115, 362.000
298.479, 374.000
299.843, 370.000
301.207, 375.000
302.570, 372.000
303.933, 366.000
305.296, 374.000
306.659, 375.000
308.022, 364.000
309.384, 364.000
310.746, 378.000
312.108, 367.000
313.470, 368.000
314.831, 376.000
316.193, 377.000
317.554, 378.744
318.914, 373.000
320.275, 378.000
321.635, 378.000
322.995, 373.000
324.355, 379.000
325.715, 386.000
327.074, 380.000
328.434, 377.000
329.792, 391.000
331.151, 382.000
332.510, 372.000
333.868, 379.000
335.226, 374.000
336.584, 374.000
337.941, 369.000
339.299, 375.000
340.656, 369.000
342.013, 361.000
343.370, 379.000
344.726, 375.000
346.082, 385.000
347.438, 374.000
348.794, 382.000
350.150, 367.000
351.505, 374.000
352.860, 375.000
354.215, 374.000
355.570, 378.000
356.924, 385.000
358.278, 378.000
359.632, 378.000
360.986, 372.000
362.339, 380.000
363.693, 366.000
365.046, 385.000
366.399, 386.000
367.751, 374.000
369.104, 380.000
370.456, 374.000
371.808, 380.000
373.159, 389.000
374.511, 371.000
375.862, 375.000
377.213, 388.000
378.564, 386.000
379.914, 380.000
381.265, 388.000
382.615, 371.000
383.965, 379.000
385.315, 385.000
386.664, 380.000
388.013, 385.444
389.362, 390.000
390.711, 384.000
392.060, 391.000
393.408, 385.000
394.756, 391.000
396.104, 387.000
397.451, 382.000
398.799, 390.000
400.146, 387.000
401.493, 385.000
402.840, 390.000
404.186, 395.000
405.533, 394.000
406.879, 393.000
408.225, 385.000
409.570, 385.000
410.916, 396.000
412.261, 401.000
413.606, 384.000
414.951, 401.000
416.295, 401.000
417.639, 407.000
418.983, 415.000
420.327, 410.000
421.671, 413.000
423.014, 414.000
424.357, 415.000
425.700, 419.000
427.043, 422.000
428.386, 429.134
429.728, 431.000
431.070, 443.000
432.412, 455.000
433.753, 457.000
435.095, 477.000
436.436, 487.000
437.777, 532.000
439.118, 531.000
440.458, 572.000
441.798, 627.000
443.138, 697.000
444.478, 837.000
445.818, 982.000
447.157, 1278.000
448.496, 1710.000
449.835, 2388.000
451.174, 3330.000
452.513, 4044.000
453.851, 4428.000
455.189, 4010.000
456.527, 3184.000
457.864, 2647.000
459.202, 2231.000
460.539, 2012.000
461.876, 1766.000
463.212, 1445.000
464.549, 1214.000
465.885, 984.000
467.221, 856.000
468.557, 711.000
469.893, 642.000
471.228, 602.000
472.563, 583.000
473.898, 540.000
475.233, 515.000
476.567, 494.000
477.902, 481.000
479.236, 469.000
480.570, 467.000
481.903, 450.000
483.237, 456.000
484.570, 447.000
485.903, 439.000
487.235, 441.000
488.568, 443.000
489.900, 436.000
491.232, 434.000
492.564, 426.000
493.896, 434.000
495.227, 434.000
496.558, 427.000
497.889, 436.000
499.220, 430.000
500.551, 422.000
501.881, 435.000
503.211, 420.000
504.541, 434.000
505.870, 435.000
507.200, 433.000
508.529, 427.000
509.858, 427.000
511.187, 434.000
512.515, 430.000
513.844, 431.000
515.172, 429.000
516.500, 433.000
517.827, 440.000
519.155, 443.000
520.482, 445.079
521.809, 446.131
523.136, 446.000
524.462, 444.000
525.789, 442.000
527.115, 440.000
528.441, 422.000
529.766, 436.000
531.092, 421.000
532.417, 437.000
533.742, 437.000
535.067, 423.000
536.391, 431.000
537.716, 427.000
539.040, 425.000
540.364, 434.000
541.688, 430.000
543.011, 429.603
544.334, 436.000
545.657, 426.000
546.980, 433.000
548.303, 436.000
549.625, 432.000
550.947, 424.000
552.269, 430.000
553.591, 424.000
554.913, 426.000
556.234, 426.975
557.555, 439.000
558.876, 427.000
560.197, 433.000
561.517, 430.000
562.837, 442.000
564.157, 434.000
565.477, 435.000
566.797, 428.000
568.116, 425.000
569.435, 427.000
570.754, 427.000
572.073, 442.000
573.391, 442.000
574.709, 448.000
576.027, 448.000
577.345, 448.000
578.663, 469.000
579.980, 454.000
581.297, 474.000
582.614, 462.000
583.931, 451.000
585.248, 466.000
586.564, 470.000
587.880, 485.000
589.196, 468.000
590.511, 478.000
591.827, 484.000
593.142, 496.000
594.457, 495.000
595.772, 509.000
597.086, 508.000
598.401, 524.000
599.715, 534.000
601.029, 550.000
602.343, 575.000
603.656, 591.000
604.969, 610.000
606.282, 636.000
607.595, 711.000
608.908, 748.000
610.220, 863.000
611.532, 1026.000
612.844, 1302.000
614.156, 1713.000
615.468, 2320.000
616.779, 3148.000
618.090, 3614.000
619.401, 3627.000
620.712, 3151.000
622.022, 2526.000
623.332, 2014.000
624.642, 1600.000
625.952, 1337.000
627.262, 1136.000
628.571, 1013.000
629.880, 1008.000
631.189, 993.000
632.498, 1084.000
633.807, 1247.000
635.115, 1547.000
636.423, 1889.000
637.731, 2130.000
639.039, 2075.000
640.346, 1723.000
641.653, 1197.000
642.960, 948.000
644.267, 756.000
645.574, 618.000
646.880, 581.000
648.186, 519.000
649.492, 526.000
650.798, 495.000
652.103, 487.000
653.409, 474.000
654.714, 479.000
656.019, 456.000
657.323, 458.000
658.628, 461.000
659.932, 464.000
661.236, 444.000
662.540, 450.000
663.843, 451.000
665.147, 462.000
666.450, 449.000
667.753, 432.000
669.056, 457.000
670.358, 441.000
671.660, 459.000
672.963, 448.000
674.264, 440.000
675.566, 446.000
676.868, 457.000
678.169, 438.000
679.470, 452.000
680.771, 452.000
682.071, 459.000
683.372, 458.000
684.672, 450.000
685.972, 456.000
687.271, 438.000
688.571, 452.000
689.870, 458.000
691.169, 477.000
692.468, 462.000
693.767, 465.555
695.065, 446.000
696.364, 457.000
697.662, 440.000
698.960, 445.000
700.257, 442.000
701.555, 448.000
702.852, 439.000
704.149, 446.000
705.446, 432.000
706.742, 437.000
708.038, 444.000
709.335, 441.000
710.631, 449.000
711.926, 449.000
713.222, 450.000
714.517, 438.000
715.812, 443.000
717.107, 437.000
718.402, 443.000
719.696, 430.000
720.990, 436.000
722.284, 437.000
723.578, 453.000
724.872, 434.000
726.165, 442.000
727.458, 453.000
728.751, 444.000
730.044, 440.000
731.336, 446.000
732.629, 440.000
733.921, 446.000
735.213, 449.000
736.504, 453.000
737.796, 452.997
739.087, 452.000
740.378, 450.000
741.669, 444.000
742.960, 440.000
744.250, 443.000
745.540, 440.049
746.830, 446.000
748.120, 442.000
749.410, 451.000
750.699, 455.000
751.988, 441.000
753.277, 444.000
754.566, 448.000
755.854, 432.000
757.143, 444.000
758.431, 454.000
759.719, 447.000
761.006, 454.000
762.294, 451.000
763.581, 451.000
764.868, 448.000
766.155, 448.495
767.442, 451.000
768.728, 451.000
770.014, 455.000
771.300, 460.000
772.586, 448.000
773.872, 467.000
775.157, 452.000
776.442, 463.000
777.727, 457.000
779.012, 463.000
780.297, 463.008
781.581, 459.000
782.865, 462.000
784.149, 458.000
785.433, 457.000
786.716, 466.000
787.999, 453.000
789.282, 454.000
790.565, 446.000
791.848, 454.000
793.130, 452.000
794.413, 460.000
795.695, 457.000
796.977, 460.868
798.258, 462.000
799.540, 466.000
800.821, 464.000
802.102, 466.000
803.382, 462.000
804.663, 468.000
805.943, 464.928
807.224, 468.000
808.504, 462.000
809.783, 465.000
811.063, 463.000
812.342, 460.000
813.621, 454.000
814.900, 471.000
816.179, 463.000
817.457, 475.000
818.736, 471.000
820.014, 474.000
821.292, 476.000
822.569, 474.000
823.847, 477.777
825.124, 473.000
826.401, 479.000
827.678, 471.000
828.954, 464.000
830.231, 470.000
831.507, 472.000
832.783, 463.000
834.059, 461.000
835.334, 480.000
836.610, 445.000
837.885, 478.000
839.160, 452.000
840.435, 465.000
841.709, 480.000
842.983, 472.000
844.258, 469.000
845.532, 458.000
846.805, 462.000
848.079, 461.692
849.352, 461.000
850.625, 465.000
851.898, 470.000
853.171, 462.000
854.443, 476.000
855.715, 469.000
856.988, 485.000
858.259, 483.000
859.531, 489.000
860.803, 473.000
862.074, 471.000
863.345, 476.000
864.616, 478.000
865.886, 478.000
867.157, 490.000
868.427, 495.000
869.697, 481.000
870.967, 472.000
872.236, 487.000
873.506, 499.000
874.775, 478.000
876.044, 490.000
877.313, 492.000
878.581, 483.000
879.849, 491.144
881.118, 481.000
882.386, 494.000
883.653, 495.000
884.921, 496.000
886.188, 490.000
887.455, 483.000
888.722, 503.000
889.989, 514.000
891.255, 513.000
892.522, 522.000
893.788, 524.368
895.054, 522.000
896.319, 529.000
897.585, 525.000
898.850, 526.000
900.115, 530.000
901.380, 529.000
902.645, 529.718
903.909, 538.000
905.174, 532.000
906.438, 527.000
907.701, 535.000
908.965, 539.000
910.229, 547.000
911.492, 536.000
912.755, 540.000
914.018, 554.000
915.280, 543.000
916.543, 553.000
917.805, 550.000
919.067, 540.000
920.329, 579.000
921.590, 561.000
922.852, 556.000
924.113, 551.000
925.374, 579.000
926.635, 572.000
927.895, 571.000
929.156, 586.000
930.416, 576.000
931.676, 581.000
932.936, 571.000
934.195, 592.000
935.454, 582.000
936.714, 589.000
937.973, 559.000
939.231, 586.000
940.490, 595.000
941.748, 618.000
943.006, 594.000
944.264, 612.000
945.522, 594.000
946.780, 617.000
948.037, 607.000
949.294, 629.000
950.551, 638.000
951.808, 630.000
953.064, 637.000
954.320, 646.000
955.577, 655.000
956.832, 652.000
958.088, 658.000
959.344, 665.000
960.599, 704.000
961.854, 700.000
963.109, 705.000
964.364, 719.000
965.618, 702.000
966.872, 735.000
968.127, 737.000
969.380, 796.000
970.634, 815.000
971.888, 868.000
973.141, 941.000
974.394, 1000.000
975.647, 986.000
976.900, 994.000
978.152, 1007.000
979.404, 1090.000
980.656, 1122.000
981.908, 1179.000
983.160, 1321.000
984.411, 1431.000
985.663, 1464.000
986.914, 1662.000
988.165, 1896.000
989.415, 2215.000
990.666, 2740.000
991.916, 3516.000
993.166, 4893.000
994.416, 7548.000
995.665, 13040.000
996.915, 27340.000
998.164, 53400.000
999.413, 65540.000
1000.662, 60090.000
1001.911, 33160.000
1003.159, 17830.000
1004.407, 10230.000
1005.655, 6397.000
1006.903, 4502.000
1008.151, 3288.000
1009.398, 2624.000
1010.646, 2208.000
1011.893, 1878.000
1013.139, 1701.000
1014.386, 1508.000
1015.633, 1391.000
1016.879, 1301.000
1018.125, 1244.000
1019.371, 1159.000
1020.616, 1097.000
1021.862, 1047.000
1023.107, 1009.000
1024.352, 986.000
1025.597, 956.000
1026.842, 908.000
1028.086, 889.000
1029.330, 850.000
1030.574, 851.000
1031.818, 832.000
1033.062, 810.000
1034.305, 773.000
1035.548, 758.000
1036.791, 742.567
1038.034, 740.000
1039.277, 726.000
1040.519, 726.000
1041.762, 724.000
1043.004, 715.000
1044.246, 721.000
1045.487, 689.000
1046.729, 700.000
1047.970, 687.000
1049.211, 694.000
1050.452, 693.000
1051.692, 682.000
1052.933, 685.000
1054.173, 670.000
1055.413, 679.000
1056.653, 654.000
1057.893, 665.000
1059.132, 685.000
1060.371, 647.000
1061.610, 644.000
1062.849, 654.000
1064.088, 658.000
1065.326, 652.200
1066.565, 658.000
1067.803, 641.000
1069.041, 638.000
1070.278, 633.000
1071.516, 633.000
1072.753, 627.000
1073.990, 628.000
1075.227, 627.000
1076.464, 626.000
1077.700, 629.694
1078.936, 621.000
1080.173, 636.000
1081.408, 626.000
1082.644, 626.000
1083.880, 605.000
1085.115, 612.000
1086.350, 611.000
1087.585, 633.000
1088.820, 631.000
1090.054, 635.000
1091.288, 669.000
1092.522, 679.000
1093.756, 690.000
1094.990, 682.000
1096.224, 651.000
1097.457, 655.000
1098.690, 637.000
1099.923, 661.000
1101.156, 670.000
1102.388, 663.000
1103.621, 719.000
1104.853, 762.000
1106.085, 804.000
1107.316, 896.000
1108.548, 964.000
1109.779, 937.000
1111.010, 960.000
1112.241, 927.000
1113.472, 818.000
1114.703, 764.000
1115.933, 679.000
1117.163, 665.000
1118.393, 650.000
1119.623, 609.000
1120.853, 601.000
1122.082, 591.000
1123.311, 583.000
1124.540, 580.303
1125.769, 575.216
1126.997, 578.000
1128.226, 574.000
1129.454, 575.000
1130.682, 581.000
1131.910, 572.000
1133.138, 580.000
1134.365, 578.000
1135.592, 571.000
1136.819, 583.000
1138.046, 598.000
1139.273, 567.000
1140.499, 590.000
1141.725, 591.000
1142.951, 611.000
1144.177, 588.000
1145.403, 599.000
1146.628, 609.000
1147.854, 622.000
1149.079, 636.000
1150.304, 658.000
1151.528, 686.000
1152.753, 707.000
1153.977, 751.000
1155.201, 828.000
1156.425, 847.000
1157.649, 931.000
1158.872, 967.000
1160.096, 941.000
1161.319, 897.000
1162.542, 881.000
1163.764, 834.000
1164.987, 766.000
1166.209, 732.000
1167.431, 693.000
1168.653, 686.000
1169.875, 651.000
1171.097, 625.000
1172.318, 620.000
1173.539, 607.000
1174.760, 596.000
1175.981, 598.000
1177.202, 588.000
1178.422, 591.000
1179.642, 593.000
1180.862, 585.000
1182.082, 587.000
1183.302, 562.000
1184.521, 575.000
1185.740, 562.000
1186.959, 578.000
1188.178, 561.000
1189.397, 574.000
1190.615, 553.000
1191.834, 567.000
1193.052, 555.000
1194.269, 560.000
1195.487, 565.000
1196.705, 550.000
1197.922, 565.000
1199.139, 578.000
1200.356, 555.000
1201.573, 566.000
1202.789, 568.000
1204.006, 551.000
1205.222, 565.000
1206.438, 563.000
1207.653, 551.000
1208.869, 567.000
1210.084, 562.000
1211.299, 580.000
1212.514, 580.000
1213.729, 592.000
1214.944, 586.000
1216.158, 581.000
1217.372, 583.000
1218.586, 574.000
1219.800, 590.000
1221.014, 612.000
1222.227, 585.000
1223.440, 587.000
1224.654, 603.000
1225.866, 593.000
1227.079, 578.000
1228.292, 583.000
1229.504, 578.000
1230.716, 579.000
1231.928, 578.652
1233.139, 569.000
1234.351, 578.000
1235.562, 577.000
1236.773, 579.000
1237.984, 565.000
1239.195, 571.000
1240.406, 566.000
1241.616, 566.924
1242.826, 564.000
1244.036, 576.000
1245.246, 583.000
1246.456, 595.000
1247.665, 599.000
1248.874, 609.000
1250.083, 590.000
1251.292, 597.000
1252.501, 569.000
1253.709, 601.000
1254.917, 591.000
1256.125, 593.000
1257.333, 590.000
1258.541, 579.000
1259.748, 578.000
1260.956, 564.000
1262.163, 550.000
1263.370, 562.000
1264.576, 563.000
1265.783, 564.000
1266.989, 574.000
1268.195, 568.779
1269.401, 566.000
1270.607, 567.000
1271.813, 567.000
1273.018, 574.000
1274.223, 571.663
1275.428, 562.000
1276.633, 567.000
1277.838, 575.000
1279.042, 565.000
1280.246, 561.000
1281.450, 551.000
1282.654, 561.000
1283.858, 564.000
1285.061, 561.000
1286.265, 556.000
1287.468, 554.000
1288.671, 564.000
1289.873, 559.159
1291.076, 564.000
1292.278, 554.000
1293.480, 562.000
1294.682, 548.000
1295.884, 565.000
1297.086, 589.000
1298.287, 555.000
1299.488, 564.000
1300.689, 570.000
1301.890, 545.000
1303.091, 567.000
1304.291, 571.000
1305.491, 549.000
1306.691, 583.000
1307.891, 576.000
1309.091, 557.000
1310.290, 559.000
1311.490, 567.000
1312.689, 555.000
1313.888, 541.000
1315.086, 553.000
1316.285, 564.000
1317.483, 548.000
1318.681, 548.000
1319.879, 555.000
1321.077, 545.000
1322.275, 548.000
1323.472, 538.000
1324.669, 545.000
1325.866, 553.000
1327.063, 548.000
1328.260, 551.000
1329.456, 538.000
1330.653, 532.000
1331.849, 543.000
1333.045, 539.000
1334.240, 556.000
1335.436, 564.000
1336.631, 564.482
1337.826, 568.056
1339.021, 563.000
1340.216, 562.000
1341.411, 549.000
1342.605, 544.000
1343.799, 559.000
1344.993, 545.000
1346.187, 553.000
1347.381, 546.000
1348.574, 548.000
1349.767, 556.000
1350.961, 548.000
1352.153, 555.919
1353.346, 551.000
1354.539, 558.000
1355.731, 557.000
1356.923, 545.000
1358.115, 535.000
1359.307, 543.000
1360.498, 556.000
1361.690, 557.000
1362.881, 563.000
1364.072, 576.000
1365.263, 569.000
1366.453, 551.000
1367.644, 551.000
1368.834, 547.000
1370.024, 555.000
1371.214, 553.000
1372.404, 540.000
1373.593, 564.000
1374.783, 537.000
1375.972, 554.000
1377.161, 537.000
1378.349, 547.000
1379.538, 572.000
1380.726, 576.000
1381.915, 557.000
1383.103, 579.000
1384.290, 553.000
1385.478, 564.000
1386.665, 544.000
1387.853, 554.000
1389.040, 569.000
1390.227, 563.000
1391.413, 572.852
1392.600, 566.000
1393.786, 577.000
1394.972, 560.000
1396.158, 556.000
1397.344, 578.000
1398.530, 550.000
1399.715, 558.000
1400.900, 567.000
1402.085, 568.000
1403.270, 566.000
1404.455, 565.000
1405.639, 562.000
1406.824, 564.115
1408.008, 561.000
1409.192, 568.000
1410.375, 567.000
1411.559, 568.000
1412.742, 571.000
1413.925, 563.000
1415.108, 553.000
1416.291, 574.000
1417.474, 558.000
1418.656, 580.000
1419.839, 578.000
1421.021, 549.000
1422.202, 576.000
1423.384, 567.000
1424.566, 564.000
1425.747, 574.000
1426.928, 572.000
1428.109, 559.000
1429.290, 573.000
1430.470, 571.000
1431.651, 583.000
1432.831, 585.029
1434.011, 574.000
1435.191, 591.000
1436.370, 575.000
1437.550, 579.000
1438.729, 571.000
1439.908, 582.000
1441.087, 569.000
1442.266, 586.000
1443.444, 581.000
1444.623, 591.000
1445.801, 591.000
1446.979, 578.000
1448.157, 586.000
1449.334, 583.000
1450.512, 591.000
1451.689, 588.000
1452.866, 586.000
1454.043, 591.000
1455.220, 585.000
1456.396, 576.000
1457.573, 574.000
1458.749, 597.000
1459.925, 583.000
1461.100, 594.000
1462.276, 580.000
1463.451, 593.000
1464.627, 581.000
1465.802, 595.000
1466.977, 588.000
1468.151, 591.000
1469.326, 586.000
1470.500, 578.000
1471.674, 601.000
1472.848, 591.000
1474.022, 612.000
1475.195, 583.000
1476.369, 599.000
1477.542, 599.000
1478.715, 599.000
1479.888, 585.000
1481.061, 604.000
1482.233, 590.000
1483.405, 578.000
1484.577, 594.000
1485.749, 580.000
1486.921, 591.000
1488.093, 591.000
1489.264, 594.000
1490.435, 599.000
1491.606, 594.000
1492.777, 587.000
1493.948, 599.000
1495.118, 577.000
1496.288, 591.000
1497.459, 580.000
1498.628, 579.000
1499.798, 595.000
1500.968, 596.000
1502.137, 596.000
1503.306, 592.000
1504.475, 599.000
1505.644, 594.000
1506.813, 596.000
1507.981, 583.000
1509.149, 588.000
1510.318, 599.000
1511.485, 596.000
1512.653, 580.000
1513.821, 576.000
1514.988, 590.000
1516.155, 598.000
##END=



