##NAMES=Celestine
##RRUFFID=R050008
##IDEAL CHEMISTRY=SrS^6+^O_4_
##LOCALITY=Scofield Quarry, Maybee, Monroe County, Michigan, USA
##OWNER=RRUFF
##SOURCE=Eugene Schlepp
##DESCRIPTION=Pale blue tabular crystals
##STATUS=The identification of this mineral has been confirmed by X-ray diffraction and chemical analysis
##URL=rruff.info/R050008
##MEASURED CHEMISTRY=Sr_1.00_S_1.00_O_4_
##PIN_ID=M00310
##ORIENTATION=Laser parallel to -a* (-1 0 0). Fiducial mark perpendicular to laser is parallel to b [0 1 0]
50.167, 1052.000
51.575, 1072.000
52.984, 1088.000
54.392, 1110.000
55.799, 1137.000
57.207, 1170.000
58.614, 1148.000
60.021, 1126.000
61.428, 1127.000
62.834, 1131.000
64.240, 1120.000
65.646, 1114.000
67.052, 1104.000
68.458, 1049.000
69.863, 950.000
71.268, 947.000
72.673, 945.000
74.077, 914.000
75.481, 913.000
76.885, 914.000
78.289, 882.000
79.693, 862.000
81.096, 856.000
82.499, 792.000
83.902, 823.000
85.304, 839.000
86.706, 908.000
88.108, 1010.000
89.510, 1111.000
90.912, 1062.000
92.313, 1043.000
93.714, 1016.000
95.115, 1059.000
96.515, 1046.000
97.916, 1021.000
99.316, 1030.000
100.715, 957.000
102.115, 938.000
103.514, 876.000
104.913, 847.000
106.312, 846.000
107.711, 827.000
109.109, 810.000
110.507, 778.000
111.905, 779.000
113.303, 754.000
114.700, 762.000
116.097, 752.000
117.494, 745.000
118.891, 760.000
120.287, 714.000
121.683, 725.000
123.079, 722.000
124.475, 718.000
125.870, 715.000
127.265, 723.000
128.660, 723.000
130.055, 734.000
131.449, 710.000
132.843, 679.000
134.237, 695.000
135.631, 667.000
137.024, 671.000
138.417, 681.000
139.810, 684.000
141.203, 675.000
142.596, 667.000
143.988, 666.000
145.380, 647.000
146.771, 623.000
148.163, 642.000
149.554, 614.000
150.945, 623.000
152.336, 621.000
153.726, 615.000
155.117, 618.390
156.507, 618.417
157.896, 618.000
159.286, 622.000
160.675, 626.000
162.064, 623.000
163.453, 613.000
164.842, 618.000
166.230, 648.000
167.618, 686.000
169.006, 701.000
170.393, 794.000
171.781, 815.000
173.168, 812.000
174.555, 774.000
175.941, 733.000
177.328, 663.000
178.714, 625.000
180.100, 638.000
181.485, 630.000
182.871, 597.000
184.256, 596.000
185.641, 581.000
187.025, 597.000
188.410, 586.000
189.794, 593.000
191.178, 574.000
192.562, 585.000
193.945, 572.000
195.328, 571.000
196.711, 578.000
198.094, 595.000
199.476, 595.000
200.859, 590.000
202.241, 596.000
203.623, 593.000
205.004, 583.000
206.385, 577.000
207.766, 557.000
209.147, 565.000
210.528, 561.000
211.908, 569.000
213.288, 542.000
214.668, 570.000
216.048, 572.000
217.427, 554.000
218.806, 568.000
220.185, 554.000
221.564, 559.000
222.942, 550.000
224.320, 536.000
225.698, 540.000
227.076, 537.000
228.453, 554.000
229.830, 551.000
231.207, 554.000
232.584, 550.000
233.960, 545.574
235.337, 541.000
236.713, 535.000
238.088, 534.000
239.464, 532.000
240.839, 551.000
242.214, 551.000
243.589, 550.000
244.964, 542.000
246.338, 540.000
247.712, 537.000
249.086, 532.000
250.459, 542.000
251.833, 558.000
253.206, 529.000
254.579, 534.000
255.951, 551.000
257.324, 540.000
258.696, 547.000
260.068, 557.000
261.439, 545.000
262.811, 534.000
264.182, 531.000
265.553, 557.000
266.924, 529.000
268.294, 534.000
269.665, 513.000
271.035, 540.000
272.404, 537.000
273.774, 533.000
275.143, 540.000
276.512, 537.000
277.881, 549.000
279.250, 546.897
280.618, 529.000
281.986, 542.000
283.354, 553.000
284.721, 540.000
286.089, 526.000
287.456, 550.000
288.823, 551.000
290.190, 540.000
291.556, 532.000
292.922, 548.000
294.288, 559.000
295.654, 557.469
297.019, 551.000
298.385, 561.000
299.750, 551.000
301.114, 549.000
302.479, 527.000
303.843, 532.000
305.207, 543.000
306.571, 530.000
307.935, 537.000
309.298, 541.000
310.661, 546.000
312.024, 543.000
313.387, 546.000
314.749, 530.000
316.111, 543.000
317.473, 537.000
318.835, 532.000
320.196, 539.000
321.558, 535.000
322.919, 534.000
324.279, 554.000
325.640, 538.000
327.000, 550.000
328.360, 537.000
329.720, 542.000
331.080, 537.000
332.439, 538.000
333.798, 543.000
335.157, 545.000
336.516, 558.000
337.874, 556.378
339.232, 543.000
340.590, 556.000
341.948, 548.000
343.305, 542.000
344.662, 554.000
346.019, 538.000
347.376, 546.000
348.733, 556.000
350.089, 532.000
351.445, 537.000
352.801, 529.000
354.156, 529.000
355.512, 529.000
356.867, 551.000
358.222, 538.000
359.576, 561.000
360.931, 540.000
362.285, 530.000
363.639, 537.000
364.992, 543.000
366.346, 538.000
367.699, 545.000
369.052, 553.000
370.405, 548.156
371.757, 539.000
373.110, 543.000
374.462, 543.000
375.814, 538.000
377.165, 548.000
378.516, 546.000
379.868, 559.000
381.218, 535.000
382.569, 537.000
383.920, 548.000
385.270, 540.000
386.620, 542.000
387.969, 538.000
389.319, 551.000
390.668, 535.000
392.017, 548.000
393.366, 531.000
394.714, 561.000
396.063, 523.000
397.411, 554.000
398.759, 582.000
400.106, 557.680
401.454, 551.000
402.801, 546.000
404.148, 542.000
405.495, 552.000
406.841, 538.000
408.187, 565.000
409.533, 571.000
410.879, 565.000
412.224, 565.000
413.570, 566.000
414.915, 558.000
416.260, 555.000
417.604, 556.000
418.949, 556.000
420.293, 563.000
421.637, 552.000
422.980, 571.000
424.324, 560.000
425.667, 567.000
427.010, 559.000
428.353, 593.000
429.695, 593.000
431.037, 576.000
432.379, 559.000
433.721, 571.000
435.063, 591.000
436.404, 603.000
437.745, 609.000
439.086, 609.000
440.427, 630.000
441.767, 661.000
443.108, 670.000
444.448, 695.000
445.787, 727.000
447.127, 806.000
448.466, 874.000
449.805, 1064.000
451.144, 1281.000
452.482, 1775.000
453.821, 2406.000
455.159, 3099.000
456.497, 3513.000
457.834, 2750.000
459.172, 2169.000
460.509, 1711.000
461.846, 1352.000
463.183, 1255.000
464.519, 1053.000
465.856, 957.000
467.192, 845.000
468.527, 773.000
469.863, 735.000
471.198, 687.000
472.534, 671.000
473.868, 654.000
475.203, 617.000
476.538, 631.000
477.872, 629.000
479.206, 604.000
480.540, 602.000
481.873, 600.000
483.206, 604.000
484.539, 579.000
485.872, 585.000
487.205, 609.000
488.537, 586.000
489.869, 598.000
491.201, 579.000
492.533, 576.000
493.864, 570.000
495.196, 591.000
496.527, 591.000
497.857, 593.000
499.188, 604.000
500.518, 574.000
501.848, 583.000
503.178, 591.000
504.508, 570.000
505.837, 596.000
507.166, 583.000
508.495, 586.000
509.824, 572.000
511.153, 598.000
512.481, 582.000
513.809, 591.000
515.137, 605.000
516.464, 598.000
517.792, 591.000
519.119, 593.000
520.446, 591.000
521.772, 588.305
523.099, 585.360
524.425, 591.000
525.751, 581.000
527.077, 595.000
528.402, 605.000
529.728, 609.000
531.053, 597.000
532.377, 603.000
533.702, 594.000
535.027, 592.000
536.351, 585.000
537.675, 602.000
538.998, 613.000
540.322, 575.000
541.645, 612.000
542.968, 591.000
544.291, 594.000
545.613, 605.000
546.936, 597.000
548.258, 587.000
549.580, 597.000
550.902, 599.000
552.223, 590.000
553.544, 589.000
554.865, 608.000
556.186, 586.000
557.507, 598.000
558.827, 597.000
560.147, 590.000
561.467, 612.000
562.786, 609.000
564.106, 608.000
565.425, 589.000
566.744, 607.000
568.063, 613.000
569.381, 593.000
570.700, 612.000
572.018, 600.000
573.335, 626.000
574.653, 614.000
575.970, 621.000
577.288, 598.000
578.604, 583.000
579.921, 623.000
581.238, 590.000
582.554, 630.000
583.870, 631.000
585.186, 623.000
586.501, 636.000
587.817, 631.000
589.132, 634.000
590.447, 646.000
591.761, 673.000
593.076, 660.975
594.390, 637.000
595.704, 643.000
597.018, 667.000
598.331, 650.000
599.645, 671.000
600.958, 663.000
602.271, 675.000
603.583, 695.000
604.896, 689.000
606.208, 713.000
607.520, 723.000
608.832, 743.000
610.143, 797.000
611.455, 822.000
612.766, 889.000
614.077, 950.000
615.387, 1163.000
616.698, 1401.000
618.008, 1836.000
619.318, 2516.000
620.628, 2763.000
621.937, 2912.000
623.247, 2407.000
624.556, 2009.000
625.865, 1763.000
627.173, 1507.000
628.482, 1362.000
629.790, 1143.000
631.098, 1051.000
632.405, 999.000
633.713, 961.000
635.020, 1048.000
636.327, 1100.000
637.634, 1295.000
638.941, 1598.000
640.247, 1703.000
641.553, 1714.000
642.859, 1291.000
644.165, 1019.000
645.471, 881.000
646.776, 757.000
648.081, 741.000
649.386, 687.000
650.691, 666.000
651.995, 655.000
653.299, 659.000
654.603, 668.000
655.907, 670.000
657.210, 630.000
658.514, 635.000
659.817, 630.000
661.120, 628.000
662.422, 646.000
663.725, 626.000
665.027, 644.000
666.329, 625.000
667.630, 640.000
668.932, 635.000
670.233, 636.000
671.534, 631.000
672.835, 626.000
674.136, 628.000
675.436, 646.000
676.737, 617.000
678.036, 628.000
679.336, 617.000
680.636, 640.000
681.935, 631.000
683.234, 629.000
684.533, 650.000
685.832, 626.000
687.130, 621.000
688.428, 630.000
689.726, 634.000
691.024, 631.000
692.322, 628.000
693.619, 628.000
694.916, 628.000
696.213, 625.618
697.510, 637.000
698.806, 627.000
700.102, 627.000
701.398, 638.000
702.694, 619.000
703.990, 626.000
705.285, 640.000
706.580, 617.000
707.875, 630.000
709.170, 639.000
710.464, 645.000
711.758, 623.000
713.052, 639.000
714.346, 642.000
715.640, 622.000
716.933, 631.000
718.226, 622.000
719.519, 621.902
720.812, 620.000
722.105, 626.000
723.397, 636.000
724.689, 640.000
725.981, 644.000
727.272, 634.000
728.564, 652.000
729.855, 639.000
731.146, 631.000
732.437, 642.000
733.727, 633.000
735.017, 642.000
736.308, 647.000
737.597, 627.000
738.887, 651.000
740.176, 626.000
741.466, 627.000
742.755, 633.877
744.043, 634.000
745.332, 640.000
746.620, 642.000
747.908, 640.000
749.196, 645.000
750.484, 651.000
751.771, 637.000
753.059, 641.000
754.346, 637.000
755.633, 653.000
756.919, 647.000
758.206, 658.000
759.492, 650.000
760.778, 642.000
762.063, 651.000
763.349, 640.000
764.634, 630.000
765.919, 643.000
767.204, 652.000
768.489, 662.000
769.773, 646.000
771.057, 684.000
772.341, 655.000
773.625, 645.000
774.909, 681.000
776.192, 655.000
777.475, 667.000
778.758, 678.000
780.041, 663.000
781.323, 655.000
782.605, 656.000
783.887, 647.000
785.169, 669.000
786.451, 667.000
787.732, 674.000
789.013, 674.376
790.294, 674.000
791.575, 671.000
792.856, 653.000
794.136, 660.000
795.416, 661.000
796.696, 663.000
797.976, 673.000
799.255, 647.000
800.534, 662.000
801.813, 667.000
803.092, 657.000
804.371, 686.000
805.649, 662.000
806.927, 666.000
808.205, 657.000
809.483, 671.000
810.760, 655.000
812.037, 674.000
813.315, 670.000
814.591, 684.000
815.868, 662.000
817.144, 697.000
818.421, 677.000
819.697, 669.000
820.972, 695.000
822.248, 677.000
823.523, 690.000
824.798, 679.000
826.073, 665.000
827.348, 667.000
828.623, 669.000
829.897, 676.000
831.171, 661.000
832.445, 687.000
833.718, 661.000
834.992, 663.000
836.265, 655.000
837.538, 663.000
838.811, 674.000
840.083, 681.000
841.356, 671.000
842.628, 667.000
843.900, 671.000
845.171, 665.000
846.443, 671.346
847.714, 650.000
848.985, 675.000
850.256, 685.000
851.527, 671.000
852.797, 693.000
854.067, 678.000
855.337, 676.000
856.607, 670.000
857.876, 687.000
859.146, 694.000
860.415, 670.000
861.684, 683.000
862.953, 675.000
864.221, 663.000
865.489, 679.000
866.757, 695.000
868.025, 682.000
869.293, 701.000
870.560, 702.000
871.828, 694.000
873.095, 695.000
874.361, 700.000
875.628, 711.000
876.894, 698.000
878.160, 707.385
879.426, 695.000
880.692, 711.000
881.958, 705.000
883.223, 704.000
884.488, 701.000
885.753, 698.000
887.018, 699.000
888.282, 710.000
889.546, 713.000
890.810, 717.147
892.074, 730.000
893.338, 723.000
894.601, 717.000
895.864, 716.000
897.127, 730.000
898.390, 716.000
899.652, 729.000
900.915, 730.000
902.177, 735.000
903.439, 738.000
904.700, 742.000
905.962, 735.000
907.223, 721.000
908.484, 734.000
909.745, 731.000
911.006, 742.000
912.266, 741.158
913.526, 729.000
914.786, 737.000
916.046, 735.000
917.306, 727.000
918.565, 719.000
919.824, 738.000
921.083, 753.000
922.342, 750.000
923.600, 768.000
924.859, 758.000
926.117, 733.000
927.375, 749.000
928.632, 743.000
929.890, 755.000
931.147, 776.000
932.404, 760.000
933.661, 777.000
934.918, 753.000
936.174, 751.000
937.430, 770.000
938.686, 756.000
939.942, 776.000
941.198, 779.000
942.453, 774.000
943.708, 758.000
944.963, 759.000
946.218, 779.000
947.472, 790.000
948.727, 756.000
949.981, 805.000
951.235, 777.000
952.488, 792.000
953.742, 795.000
954.995, 790.000
956.248, 798.000
957.501, 801.000
958.754, 812.000
960.006, 824.000
961.258, 815.000
962.510, 828.000
963.762, 819.000
965.014, 843.000
966.265, 832.000
967.516, 835.000
968.767, 872.000
970.018, 863.000
971.269, 844.000
972.519, 913.000
973.769, 929.000
975.019, 1014.000
976.269, 1041.000
977.518, 1000.000
978.767, 1024.000
980.017, 1027.000
981.265, 1058.000
982.514, 1134.000
983.762, 1135.000
985.011, 1254.000
986.259, 1272.000
987.507, 1324.000
988.754, 1491.000
990.002, 1589.000
991.249, 1864.000
992.496, 2203.000
993.743, 2671.000
994.989, 3780.000
996.236, 5195.000
997.482, 9585.000
998.728, 20570.000
999.974, 38340.000
1001.219, 50800.000
1002.464, 32850.000
1003.710, 15210.000
1004.954, 8670.000
1006.199, 4892.000
1007.444, 3553.000
1008.688, 2753.000
1009.932, 2181.000
1011.176, 1950.000
1012.420, 1642.000
1013.663, 1524.000
1014.906, 1419.000
1016.149, 1302.000
1017.392, 1265.000
1018.635, 1203.000
1019.877, 1138.000
1021.120, 1131.000
1022.362, 1084.000
1023.603, 1048.000
1024.845, 1051.000
1026.086, 1003.000
1027.328, 991.000
1028.569, 980.000
1029.809, 952.000
1031.050, 954.000
1032.290, 925.000
1033.530, 940.000
1034.770, 940.000
1036.010, 916.000
1037.250, 904.000
1038.489, 910.000
1039.728, 906.000
1040.967, 896.000
1042.206, 898.000
1043.444, 905.000
1044.683, 900.000
1045.921, 903.000
1047.159, 925.000
1048.396, 874.000
1049.634, 888.000
1050.871, 852.000
1052.108, 868.000
1053.345, 877.000
1054.582, 880.000
1055.818, 863.000
1057.054, 857.000
1058.290, 832.000
1059.526, 853.000
1060.762, 856.000
1061.997, 832.000
1063.232, 847.000
1064.467, 841.000
1065.702, 843.000
1066.937, 842.000
1068.171, 827.000
1069.405, 841.000
1070.639, 828.000
1071.873, 821.000
1073.107, 823.000
1074.340, 811.000
1075.573, 830.000
1076.806, 820.000
1078.039, 832.000
1079.272, 835.000
1080.504, 820.000
1081.736, 843.000
1082.968, 864.000
1084.200, 842.000
1085.431, 862.000
1086.663, 884.000
1087.894, 906.000
1089.125, 964.000
1090.355, 982.000
1091.586, 1066.000
1092.816, 1211.000
1094.046, 1277.000
1095.276, 1262.000
1096.506, 1145.000
1097.735, 1034.000
1098.965, 1005.000
1100.194, 942.000
1101.423, 941.000
1102.651, 896.000
1103.880, 918.000
1105.108, 935.000
1106.336, 961.000
1107.564, 998.000
1108.792, 1040.000
1110.019, 1036.000
1111.246, 1036.719
1112.473, 1006.000
1113.700, 982.000
1114.927, 944.000
1116.153, 883.000
1117.380, 860.000
1118.606, 866.000
1119.831, 842.000
1121.057, 879.000
1122.283, 858.000
1123.508, 846.000
1124.733, 818.000
1125.958, 814.000
1127.182, 800.000
1128.407, 827.000
1129.631, 791.000
1130.855, 820.000
1132.079, 817.000
1133.302, 803.000
1134.526, 818.000
1135.749, 793.000
1136.972, 817.000
1138.195, 819.000
1139.417, 806.000
1140.640, 821.000
1141.862, 813.000
1143.084, 794.000
1144.305, 813.000
1145.527, 813.000
1146.748, 832.000
1147.970, 843.000
1149.191, 853.174
1150.411, 871.000
1151.632, 877.000
1152.852, 893.000
1154.072, 903.000
1155.292, 932.149
1156.512, 991.000
1157.732, 1003.000
1158.951, 1030.000
1160.170, 1080.000
1161.389, 1032.000
1162.608, 1024.000
1163.826, 1008.000
1165.045, 925.000
1166.263, 938.000
1167.481, 915.000
1168.699, 874.000
1169.916, 891.000
1171.134, 840.000
1172.351, 828.000
1173.568, 864.000
1174.784, 798.000
1176.001, 839.000
1177.217, 829.000
1178.433, 788.000
1179.649, 819.000
1180.865, 826.000
1182.081, 815.000
1183.296, 832.000
1184.511, 810.000
1185.726, 807.000
1186.941, 814.000
1188.155, 809.000
1189.370, 804.000
1190.584, 802.000
1191.798, 798.903
1193.011, 796.000
1194.225, 798.000
1195.438, 807.000
1196.651, 813.000
1197.864, 790.000
1199.077, 817.000
1200.290, 809.000
1201.502, 804.000
1202.714, 825.000
1203.926, 799.000
1205.138, 815.000
1206.349, 799.000
1207.561, 789.000
1208.772, 832.000
1209.983, 802.000
1211.194, 813.000
1212.404, 825.000
1213.614, 808.000
1214.825, 837.000
1216.034, 849.000
1217.244, 802.000
1218.454, 824.000
1219.663, 821.000
1220.872, 819.000
1222.081, 824.413
1223.290, 834.000
1224.498, 814.000
1225.707, 826.000
1226.915, 806.000
1228.123, 843.000
1229.331, 816.000
1230.538, 811.000
1231.746, 849.000
1232.953, 816.000
1234.160, 829.000
1235.366, 820.000
1236.573, 790.000
1237.779, 811.000
1238.986, 826.000
1240.192, 821.000
1241.397, 832.000
1242.603, 816.000
1243.808, 832.000
1245.013, 809.000
1246.218, 812.000
1247.423, 832.000
1248.628, 838.000
1249.832, 850.000
1251.036, 826.000
1252.240, 821.000
1253.444, 814.000
1254.648, 849.000
1255.851, 821.000
1257.054, 826.000
1258.257, 810.000
1259.460, 802.000
1260.663, 820.000
1261.865, 806.000
1263.067, 816.000
1264.269, 824.000
1265.471, 817.000
1266.673, 822.000
1267.874, 818.000
1269.075, 808.000
1270.276, 814.000
1271.477, 817.000
1272.678, 798.000
1273.878, 847.000
1275.078, 816.000
1276.278, 828.000
1277.478, 808.000
1278.678, 813.000
1279.877, 828.000
1281.077, 828.000
1282.276, 830.000
1283.475, 849.000
1284.673, 818.000
1285.872, 838.000
1287.070, 849.000
1288.268, 806.000
1289.466, 810.000
1290.664, 812.000
1291.861, 802.000
1293.058, 811.554
1294.255, 815.000
1295.452, 819.000
1296.649, 830.000
1297.846, 827.000
1299.042, 803.000
1300.238, 857.000
1301.434, 822.000
1302.630, 843.000
1303.825, 824.000
1305.020, 810.000
1306.216, 848.000
1307.411, 818.000
1308.605, 826.000
1309.800, 837.000
1310.994, 822.000
1312.188, 846.000
1313.382, 814.000
1314.576, 796.000
1315.770, 839.000
1316.963, 825.000
1318.156, 806.000
1319.349, 839.000
1320.542, 809.000
1321.735, 806.000
1322.927, 832.000
1324.119, 796.000
1325.311, 842.000
1326.503, 812.000
1327.695, 821.000
1328.886, 829.000
1330.077, 813.000
1331.268, 811.000
1332.459, 838.000
1333.650, 799.000
1334.840, 823.000
1336.030, 843.000
1337.220, 807.000
1338.410, 834.000
1339.600, 806.000
1340.789, 826.000
1341.979, 832.000
1343.168, 806.000
1344.357, 848.000
1345.545, 845.000
1346.734, 805.000
1347.922, 860.000
1349.110, 823.000
1350.298, 828.000
1351.486, 851.000
1352.674, 825.000
1353.861, 828.000
1355.048, 858.000
1356.235, 837.000
1357.422, 859.000
1358.608, 828.000
1359.795, 819.000
1360.981, 845.000
1362.167, 813.000
1363.353, 823.000
1364.538, 846.000
1365.724, 832.000
1366.909, 852.000
1368.094, 857.000
1369.279, 828.000
1370.463, 845.000
1371.648, 822.000
1372.832, 847.000
1374.016, 840.000
1375.200, 833.000
1376.384, 836.000
1377.567, 854.000
1378.750, 844.000
1379.933, 852.000
1381.116, 849.000
1382.299, 847.000
1383.481, 855.000
1384.664, 859.000
1385.846, 834.000
1387.028, 871.000
1388.210, 818.000
1389.391, 844.000
1390.572, 837.000
1391.754, 822.000
1392.935, 854.000
1394.115, 862.000
1395.296, 828.000
1396.476, 865.000
1397.656, 857.000
1398.837, 815.000
1400.016, 856.000
1401.196, 840.000
1402.375, 867.000
1403.555, 863.000
1404.734, 823.000
1405.912, 889.000
1407.091, 870.000
1408.270, 841.000
1409.448, 869.000
1410.626, 843.000
1411.804, 840.000
1412.982, 873.000
1414.159, 849.000
1415.336, 842.000
1416.514, 872.000
1417.690, 847.000
1418.867, 846.000
1420.044, 847.000
1421.220, 836.000
1422.396, 845.093
1423.572, 852.000
1424.748, 857.000
1425.924, 860.000
1427.099, 864.000
1428.274, 869.000
1429.449, 846.000
1430.624, 857.000
1431.799, 848.000
1432.973, 851.000
1434.147, 866.000
1435.322, 883.000
1436.495, 883.000
1437.669, 840.000
1438.843, 875.000
1440.016, 855.000
1441.189, 881.000
1442.362, 896.000
1443.535, 884.000
1444.707, 879.000
1445.880, 881.000
1447.052, 846.000
1448.224, 896.000
1449.396, 881.000
1450.567, 860.000
1451.739, 896.000
1452.910, 872.000
1454.081, 868.000
1455.252, 909.000
1456.422, 868.000
1457.593, 892.000
1458.763, 905.000
1459.933, 889.000
1461.103, 899.000
1462.273, 910.000
1463.442, 873.000
1464.611, 911.000
1465.781, 871.000
1466.949, 904.000
1468.118, 906.000
1469.287, 882.000
1470.455, 908.000
1471.623, 892.000
1472.791, 907.000
1473.959, 896.000
1475.127, 896.000
1476.294, 868.000
1477.461, 925.000
1478.628, 896.000
1479.795, 886.000
1480.962, 902.000
1482.128, 884.000
1483.295, 909.000
1484.461, 922.000
1485.627, 874.000
1486.792, 887.000
1487.958, 910.000
1489.123, 896.000
1490.288, 904.000
1491.453, 877.000
1492.618, 903.000
1493.783, 929.000
1494.947, 872.000
1496.111, 912.000
1497.275, 924.000
1498.439, 896.000
1499.603, 909.000
1500.766, 912.000
1501.930, 892.000
1503.093, 931.000
1504.256, 907.000
1505.418, 902.000
1506.581, 914.000
1507.743, 909.000
1508.905, 910.000
1510.067, 924.000
1511.229, 886.000
1512.391, 922.000
1513.552, 918.000
1514.713, 886.000
1515.874, 919.000
1517.035, 898.000
1518.196, 912.000
1519.356, 942.000
##END=



