##NAMES=Celsian
##RRUFFID=R060152
##IDEAL CHEMISTRY=BaAl_2_Si_2_O_8_
##LOCALITY=Benallt mine, Lleyn, Wales
##OWNER=RRUFF
##SOURCE=Marcus Origlieri
##DESCRIPTION=Colorless to white elongated prismatic crystals
##STATUS=The identification of this mineral is confirmed by single-crystal X-ray diffraction and chemical analysis.
##URL=rruff.info/R060152
##MEASURED CHEMISTRY=(Ba_0.98_K_0.02_[box]_0.02_)_Î£=1_Al_2.00_Si_2.00_O_8_
##PIN_ID=M00288
##ORIENTATION=Laser parallel to b* (0 1 0). Fiducial mark perpendicular to laser is parallel to c [0 0 1]
89.46700, 9499.000
90.70600, 9901.000
91.94400, 10444.00
93.18300, 11125.00
94.42100, 11794.00
95.65900, 12827.00
96.89700, 14029.00
98.13500, 15578.00
99.37300, 17338.00
100.6100, 19036.00
101.8480, 21073.00
103.0850, 23351.00
104.3220, 25697.00
105.5590, 28157.00
106.7950, 30151.00
108.0320, 31330.00
109.2680, 31426.00
110.5040, 31131.00
111.7400, 30827.00
112.9760, 30304.00
114.2120, 29536.00
115.4470, 28190.00
116.6820, 26105.00
117.9170, 23503.00
119.1520, 21291.00
120.3870, 19071.00
121.6220, 17860.00
122.8560, 17004.00
124.0900, 16920.00
125.3240, 17177.00
126.5580, 17641.00
127.7920, 18577.00
129.0260, 19416.00
130.2590, 20268.00
131.4920, 20804.00
132.7250, 21678.00
133.9580, 22397.00
135.1910, 22740.00
136.4230, 22374.00
137.6560, 21623.00
138.8880, 20148.00
140.1200, 18198.00
141.3520, 16470.00
142.5830, 15088.00
143.8150, 14048.00
145.0460, 13603.00
146.2770, 13150.00
147.5080, 13203.00
148.7390, 13117.25
149.9700, 13316.00
151.2000, 13503.00
152.4310, 13725.00
153.6610, 14128.00
154.8910, 15046.00
156.1210, 16456.00
157.3500, 17943.00
158.5800, 20338.00
159.8090, 23235.00
161.0380, 26926.00
162.2670, 31209.00
163.4960, 36227.00
164.7240, 41734.00
165.9530, 47809.00
167.1810, 54481.00
168.4090, 59628.00
169.6370, 63762.00
170.8650, 65965.00
172.0920, 65590.00
173.3200, 62917.00
174.5470, 58258.00
175.7740, 52977.00
177.0010, 47089.00
178.2280, 41058.00
179.4540, 35013.00
180.6810, 29515.00
181.9070, 25352.00
183.1330, 21852.00
184.3590, 19256.00
185.5850, 17216.00
186.8100, 15741.00
188.0350, 14652.00
189.2610, 13925.00
190.4860, 13419.00
191.7110, 13288.00
192.9350, 12972.00
194.1600, 13016.00
195.3840, 12923.00
196.6080, 13029.00
197.8320, 12850.00
199.0560, 12544.00
200.2800, 11807.00
201.5030, 11264.00
202.7270, 10615.00
203.9500, 10279.00
205.1730, 9858.000
206.3950, 9731.000
207.6180, 9776.000
208.8410, 9903.000
210.0630, 10143.00
211.2850, 10473.00
212.5070, 11152.00
213.7290, 11782.00
214.9500, 12263.00
216.1720, 13146.00
217.3930, 13808.00
218.6140, 14669.00
219.8350, 15628.00
221.0560, 16415.00
222.2770, 16932.00
223.4970, 17052.00
224.7170, 16457.00
225.9370, 15615.00
227.1570, 14380.00
228.3770, 13380.00
229.5970, 12993.00
230.8160, 12986.00
232.0350, 13327.00
233.2540, 14210.00
234.4730, 15194.00
235.6920, 16749.00
236.9110, 18933.00
238.1290, 21634.00
239.3470, 24523.00
240.5650, 28047.00
241.7830, 31775.00
243.0010, 35571.00
244.2180, 39667.00
245.4360, 43027.00
246.6530, 45366.00
247.8700, 46680.00
249.0870, 46381.00
250.3040, 44418.00
251.5200, 42232.00
252.7370, 39683.00
253.9530, 37597.00
255.1690, 36198.00
256.3850, 34939.00
257.6000, 33394.00
258.8160, 30912.00
260.0310, 28318.00
261.2460, 25240.00
262.4610, 22059.00
263.6760, 19291.00
264.8910, 17111.00
266.1050, 15271.00
267.3200, 14152.00
268.5340, 12913.00
269.7480, 12405.00
270.9620, 11650.00
272.1750, 11195.00
273.3890, 10863.00
274.6020, 10685.00
275.8150, 10323.00
277.0280, 10143.00
278.2410, 10090.00
279.4540, 9848.000
280.6660, 9721.000
281.8790, 9819.000
283.0910, 9728.000
284.3030, 9715.000
285.5140, 9700.000
286.7260, 9629.000
287.9380, 9905.000
289.1490, 10268.00
290.3600, 10316.00
291.5710, 10834.00
292.7820, 11440.00
293.9920, 11920.00
295.2030, 12993.00
296.4130, 14146.00
297.6230, 15436.00
298.8330, 17096.00
300.0430, 18691.00
301.2520, 20465.00
302.4620, 22369.00
303.6710, 24433.00
304.8800, 26054.00
306.0890, 26812.00
307.2980, 27104.00
308.5070, 25987.00
309.7150, 23927.00
310.9230, 21200.00
312.1310, 18200.00
313.3390, 15860.00
314.5470, 14063.00
315.7550, 12480.00
316.9620, 11347.00
318.1690, 10516.00
319.3760, 10003.00
320.5830, 9469.000
321.7900, 9281.000
322.9960, 8984.000
324.2030, 8724.000
325.4090, 8580.000
326.6150, 8411.000
327.8210, 8407.000
329.0270, 8218.000
330.2320, 8108.000
331.4380, 8218.000
332.6430, 8175.000
333.8480, 8136.000
335.0530, 8202.000
336.2580, 8219.117
337.4620, 8323.000
338.6670, 8392.000
339.8710, 8613.000
341.0750, 8807.000
342.2790, 9078.000
343.4820, 9448.000
344.6860, 9881.000
345.8890, 10384.00
347.0920, 11273.00
348.2960, 11957.00
349.4980, 13150.00
350.7010, 14057.00
351.9040, 15251.00
353.1060, 16474.00
354.3080, 17915.00
355.5100, 18838.00
356.7120, 19502.00
357.9140, 19296.00
359.1150, 18467.00
360.3170, 17074.00
361.5180, 15619.00
362.7190, 14019.00
363.9200, 12679.00
365.1200, 11646.00
366.3210, 10749.00
367.5210, 10217.00
368.7210, 9726.000
369.9210, 9335.000
371.1210, 9125.000
372.3210, 8823.000
373.5200, 8789.000
374.7200, 8782.000
375.9190, 8752.000
377.1180, 8731.000
378.3170, 8857.000
379.5150, 8943.000
380.7140, 9250.064
381.9120, 9455.968
383.1110, 10036.00
384.3090, 10504.00
385.5060, 11029.00
386.7040, 11689.64
387.9020, 12665.00
389.0990, 12808.00
390.2960, 13432.00
391.4930, 13518.00
392.6900, 13554.00
393.8860, 12932.00
395.0830, 12425.00
396.2790, 11742.00
397.4750, 11339.00
398.6710, 10970.00
399.8670, 10911.73
401.0630, 11011.00
402.2580, 11338.00
403.4540, 11785.00
404.6490, 12550.00
405.8440, 13317.00
407.0390, 13958.00
408.2330, 14918.00
409.4280, 15792.00
410.6220, 16251.00
411.8160, 16371.00
413.0100, 16110.00
414.2040, 15429.00
415.3980, 14618.00
416.5910, 13613.00
417.7850, 13422.00
418.9780, 13275.00
420.1710, 13291.00
421.3640, 13707.00
422.5560, 14618.00
423.7490, 15464.00
424.9410, 16630.00
426.1330, 17802.00
427.3250, 18771.00
428.5170, 19366.00
429.7090, 19264.00
430.9000, 18681.00
432.0910, 17577.00
433.2820, 15843.00
434.4730, 14443.00
435.6640, 13365.00
436.8550, 12455.00
438.0450, 11529.00
439.2360, 11228.00
440.4260, 10900.00
441.6160, 10664.00
442.8060, 10436.00
443.9950, 10401.00
445.1850, 10692.00
446.3740, 10847.00
447.5630, 11260.00
448.7520, 11506.00
449.9410, 11991.00
451.1300, 12728.00
452.3180, 13630.00
453.5060, 14816.00
454.6950, 16284.00
455.8830, 17843.00
457.0700, 19750.00
458.2580, 22244.00
459.4450, 24683.00
460.6330, 27204.00
461.8200, 29766.00
463.0070, 31313.00
464.1940, 31742.00
465.3800, 31149.00
466.5670, 29437.00
467.7530, 27260.00
468.9390, 26304.00
470.1250, 23915.00
471.3110, 21803.00
472.4970, 20809.00
473.6820, 19496.00
474.8680, 18061.00
476.0530, 16803.00
477.2380, 15515.00
478.4230, 14665.00
479.6070, 14059.00
480.7920, 13564.00
481.9760, 13231.37
483.1600, 13117.00
484.3440, 13014.00
485.5280, 13289.00
486.7120, 13505.00
487.8950, 14030.00
489.0780, 14458.00
490.2620, 15501.00
491.4450, 16712.00
492.6270, 18075.00
493.8100, 20100.00
494.9920, 22796.00
496.1750, 26141.00
497.3570, 30563.00
498.5390, 35693.00
499.7210, 42171.00
500.9020, 49744.00
502.0840, 59450.00
503.2650, 70260.00
504.4460, 81527.00
505.6270, 93257.00
506.8080, 102780.0
507.9890, 109351.0
509.1690, 109457.0
510.3500, 103267.0
511.5300, 91725.00
512.7100, 76941.00
513.8900, 63352.00
515.0690, 51319.00
516.2490, 41797.00
517.4280, 34918.00
518.6070, 29546.00
519.7860, 25662.00
520.9650, 22980.00
522.1440, 20964.00
523.3220, 19821.00
524.5010, 18836.00
525.6790, 18058.00
526.8570, 17712.00
528.0350, 16836.00
529.2130, 16211.00
530.3900, 15518.00
531.5670, 14644.00
532.7450, 13709.00
533.9220, 13064.00
535.0980, 12535.00
536.2750, 12083.00
537.4520, 11756.00
538.6280, 11409.26
539.8040, 11030.00
540.9800, 10963.00
542.1560, 10747.00
543.3320, 10692.00
544.5070, 10545.00
545.6830, 10624.00
546.8580, 10553.00
548.0330, 10413.00
549.2080, 10434.00
550.3830, 10620.00
551.5570, 10632.00
552.7310, 10781.00
553.9060, 10561.00
555.0800, 10528.00
556.2540, 10429.00
557.4270, 10433.00
558.6010, 10167.00
559.7740, 10047.00
560.9470, 9963.000
562.1210, 9789.000
563.2930, 9772.000
564.4660, 9665.000
565.6390, 9624.000
566.8110, 9449.000
567.9830, 9476.000
569.1550, 9453.000
570.3270, 9367.000
571.4990, 9397.000
572.6710, 9396.000
573.8420, 9315.000
575.0130, 9292.000
576.1840, 9297.000
577.3550, 9413.000
578.5260, 9380.000
579.6970, 9343.000
580.8670, 9326.000
582.0370, 9314.000
583.2070, 9309.000
584.3770, 9447.000
585.5470, 9460.000
586.7170, 9496.000
587.8860, 9634.000
589.0550, 9605.000
590.2240, 9585.000
591.3930, 9697.000
592.5620, 9820.000
593.7310, 9822.000
594.8990, 9854.000
596.0670, 9595.000
597.2350, 9642.000
598.4030, 9540.000
599.5710, 9318.000
600.7390, 9383.000
601.9060, 9232.000
603.0740, 9404.000
604.2410, 9233.000
605.4080, 9130.000
606.5740, 9271.000
607.7410, 9190.000
608.9080, 9365.000
610.0740, 9342.000
611.2400, 9367.000
612.4060, 9438.000
613.5720, 9508.000
614.7370, 9600.000
615.9030, 9642.000
617.0680, 9667.000
618.2330, 9656.000
619.3980, 9661.000
620.5630, 9632.000
621.7280, 9578.000
622.8920, 9523.000
624.0570, 9635.000
625.2210, 9518.000
626.3850, 9542.000
627.5490, 9547.000
628.7120, 9464.000
629.8760, 9424.000
631.0390, 9365.000
632.2020, 9485.000
633.3650, 9438.000
634.5280, 9227.000
635.6910, 9368.000
636.8530, 9232.000
638.0160, 9379.000
639.1780, 9524.000
640.3400, 9375.000
641.5020, 9446.000
642.6640, 9521.000
643.8250, 9591.000
644.9870, 9609.000
646.1480, 9589.000
647.3090, 9639.570
648.4700, 9670.000
649.6300, 9687.000
650.7910, 9752.000
651.9510, 9781.000
653.1120, 9811.191
654.2720, 9872.000
655.4320, 9887.000
656.5910, 9888.000
657.7510, 9964.000
658.9100, 10098.00
660.0690, 10077.00
661.2290, 10170.00
662.3880, 10386.00
663.5460, 10390.00
664.7050, 10644.00
665.8630, 10825.00
667.0220, 11017.00
668.1800, 11363.00
669.3380, 11710.00
670.4950, 12150.00
671.6530, 12652.00
672.8100, 13583.00
673.9680, 14299.00
675.1250, 15267.00
676.2820, 16327.00
677.4390, 17486.00
678.5950, 18909.00
679.7520, 20075.00
680.9080, 21317.00
682.0640, 22146.00
683.2200, 22567.00
684.3760, 22071.00
685.5320, 21285.00
686.6870, 19898.00
687.8420, 18615.00
688.9980, 17154.00
690.1530, 15860.00
691.3070, 14997.00
692.4620, 14237.00
693.6170, 13656.00
694.7710, 13371.00
695.9250, 13193.00
697.0790, 12848.00
698.2330, 12596.00
699.3870, 12576.00
700.5400, 12650.00
701.6940, 12713.00
702.8470, 12763.00
704.0000, 12940.00
705.1530, 13344.00
706.3050, 13870.00
707.4580, 14212.00
708.6100, 14902.00
709.7630, 15636.00
710.9150, 16290.00
712.0660, 17087.00
713.2180, 17431.00
714.3700, 17517.00
715.5210, 17479.00
716.6720, 17020.00
717.8240, 16272.00
718.9740, 15846.00
720.1250, 15318.00
721.2760, 14874.30
722.4260, 14575.37
723.5770, 14224.00
724.7270, 14024.00
725.8770, 13933.00
727.0260, 13660.00
728.1760, 13634.00
729.3250, 13189.00
730.4750, 12834.00
731.6240, 12432.00
732.7730, 12395.00
733.9220, 12217.00
735.0700, 11935.00
736.2190, 11862.00
737.3670, 12101.00
738.5150, 12305.00
739.6630, 12534.00
740.8110, 12934.00
741.9590, 13232.00
743.1060, 14001.00
744.2540, 14624.00
745.4010, 15560.00
746.5480, 16774.00
747.6950, 17611.00
748.8410, 18551.00
749.9880, 19306.00
751.1340, 19892.00
752.2800, 19594.00
753.4260, 18926.00
754.5720, 17875.00
755.7180, 16617.00
756.8640, 15483.00
758.0090, 14470.00
759.1540, 13668.77
760.2990, 12838.00
761.4440, 12463.00
762.5890, 12046.00
763.7340, 11765.00
764.8780, 11476.00
766.0220, 11283.00
767.1660, 11098.00
768.3100, 10853.00
769.4540, 10766.00
770.5980, 10668.00
771.7410, 10662.00
772.8840, 10559.00
774.0280, 10551.00
775.1700, 10584.00
776.3130, 10474.00
777.4560, 10359.00
778.5980, 10382.44
779.7410, 10329.18
780.8830, 10344.00
782.0250, 10361.00
783.1670, 10301.00
784.3080, 10362.00
785.4500, 10273.00
786.5910, 10210.00
787.7320, 10335.00
788.8730, 10237.00
790.0140, 10234.08
791.1550, 10033.00
792.2950, 10174.00
793.4360, 10050.00
794.5760, 10051.00
795.7160, 9970.000
796.8560, 10193.00
797.9960, 10069.00
799.1350, 10114.87
800.2750, 10143.00
801.4140, 10112.00
802.5530, 10157.00
803.6920, 10169.00
804.8310, 10184.70
805.9690, 10151.00
807.1080, 10221.00
808.2460, 10195.00
809.3840, 10179.00
810.5220, 10063.00
811.6600, 10140.00
812.7970, 10032.00
813.9350, 10312.00
815.0720, 10130.00
816.2090, 10311.00
817.3460, 10287.00
818.4830, 10239.00
819.6200, 10156.00
820.7560, 10257.00
821.8930, 10186.00
823.0290, 10274.00
824.1650, 10199.00
825.3010, 10163.00
826.4360, 10185.00
827.5720, 10224.00
828.7070, 10190.00
829.8420, 10117.00
830.9770, 10199.00
832.1120, 10140.99
833.2470, 10316.00
834.3820, 10148.00
835.5160, 10209.00
836.6500, 10284.00
837.7840, 10156.00
838.9180, 10298.00
840.0520, 10372.00
841.1860, 10314.00
842.3190, 10263.00
843.4520, 10328.00
844.5850, 10255.00
845.7180, 10362.00
846.8510, 10326.00
847.9840, 10265.00
849.1160, 10303.00
850.2490, 10350.00
851.3810, 10457.00
852.5130, 10484.00
853.6450, 10521.00
854.7760, 10448.00
855.9080, 10417.00
857.0390, 10476.00
858.1700, 10550.00
859.3010, 10603.00
860.4320, 10663.00
861.5630, 10462.00
862.6930, 10465.00
863.8240, 10438.00
864.9540, 10500.00
866.0840, 10431.00
867.2140, 10482.00
868.3440, 10479.00
869.4730, 10357.00
870.6030, 10408.00
871.7320, 10633.00
872.8610, 10563.00
873.9900, 10574.00
875.1190, 10364.00
876.2470, 10497.00
877.3760, 10629.00
878.5040, 10494.00
879.6320, 10587.00
880.7600, 10527.00
881.8880, 10532.00
883.0150, 10565.00
884.1430, 10532.00
885.2700, 10480.00
886.3970, 10634.00
887.5240, 10706.00
888.6510, 10641.00
889.7780, 10540.00
890.9040, 10662.00
892.0310, 10719.00
893.1570, 10627.00
894.2830, 10702.00
895.4090, 10637.00
896.5350, 10808.00
897.6600, 10888.00
898.7860, 10784.00
899.9110, 10868.00
901.0360, 10859.58
902.1610, 10839.56
903.2860, 10941.00
904.4100, 10811.00
905.5350, 10963.00
906.6590, 10921.00
907.7830, 11118.00
908.9070, 10945.00
910.0310, 10985.00
911.1540, 11142.00
912.2780, 10972.00
913.4010, 10877.00
914.5240, 11053.00
915.6470, 11140.00
916.7700, 11082.00
917.8930, 11113.00
919.0150, 11056.00
920.1380, 11321.00
921.2600, 11119.00
922.3820, 11280.00
923.5040, 11210.00
924.6260, 11314.00
925.7470, 11335.00
926.8690, 11332.00
927.9900, 11324.00
929.1110, 11506.00
930.2320, 11610.00
931.3530, 11455.00
932.4730, 11467.00
933.5940, 11662.00
934.7140, 11851.00
935.8340, 11793.00
936.9540, 11887.00
938.0740, 12035.00
939.1930, 12093.00
940.3130, 12237.00
941.4320, 12233.00
942.5510, 12289.00
943.6700, 12383.00
944.7890, 12355.00
945.9080, 12423.00
947.0260, 12427.00
948.1450, 12335.00
949.2630, 12352.00
950.3810, 12497.00
951.4990, 12341.00
952.6170, 12514.00
953.7340, 12435.00
954.8520, 12428.00
955.9690, 12350.00
957.0860, 12532.00
958.2030, 12472.00
959.3200, 12475.00
960.4360, 12623.00
961.5530, 12487.00
962.6690, 12796.00
963.7850, 12934.00
964.9010, 12995.00
966.0170, 13462.00
967.1330, 13542.00
968.2480, 13883.00
969.3630, 14280.00
970.4790, 14562.00
971.5940, 15035.00
972.7080, 15512.00
973.8230, 16134.00
974.9380, 16926.00
976.0520, 18118.00
977.1660, 19524.53
978.2800, 21236.00
979.3940, 23230.00
980.5080, 25524.00
981.6220, 28129.00
982.7350, 30337.00
983.8480, 32036.00
984.9610, 32843.00
986.0740, 32396.00
987.1870, 30794.00
988.3000, 27929.00
989.4120, 25346.00
990.5250, 23111.00
991.6370, 21669.00
992.7490, 20279.00
993.8610, 19579.00
994.9720, 19066.00
996.0840, 18521.00
997.1950, 18087.00
998.3060, 17512.00
999.4170, 17129.00
1000.528, 16860.00
1001.639, 16645.00
1002.750, 16756.00
1003.860, 16688.00
1004.970, 16706.00
1006.080, 17036.00
1007.190, 17253.00
1008.300, 17758.00
1009.410, 18458.00
1010.519, 19072.00
1011.628, 20036.00
1012.738, 20484.00
1013.846, 19903.00
1014.955, 20119.00
1016.064, 19695.00
1017.172, 19135.00
1018.281, 18401.00
1019.389, 17786.00
1020.497, 17142.00
1021.605, 16555.00
1022.713, 16160.00
1023.820, 15721.00
1024.928, 15404.00
1026.035, 15328.00
1027.142, 15279.00
1028.249, 15389.00
1029.356, 15448.00
1030.462, 15506.00
1031.569, 15413.00
1032.675, 15361.00
1033.781, 15428.00
1034.887, 15187.00
1035.993, 14939.00
1037.098, 14762.00
1038.204, 14229.00
1039.309, 13935.00
1040.415, 13964.00
1041.520, 13685.00
1042.624, 13796.00
1043.729, 13826.00
1044.834, 14044.00
1045.938, 14251.00
1047.042, 14448.00
1048.146, 14680.00
1049.250, 15325.00
1050.354, 15664.00
1051.458, 15932.00
1052.561, 16445.00
1053.664, 16552.00
1054.767, 16714.00
1055.870, 16685.00
1056.973, 16540.00
1058.076, 16256.00
1059.178, 15771.00
1060.281, 15554.00
1061.383, 15068.00
1062.485, 14746.00
1063.587, 14250.00
1064.688, 14032.00
1065.790, 13782.00
1066.891, 13579.00
1067.993, 13430.00
1069.094, 13219.00
1070.195, 13084.00
1071.295, 12939.00
1072.396, 12928.00
1073.496, 12733.10
1074.597, 12727.00
1075.697, 12475.00
1076.797, 12582.00
1077.897, 12586.00
1078.996, 12481.00
1080.096, 12493.00
1081.195, 12617.00
1082.294, 12560.00
1083.393, 12695.00
1084.492, 12503.00
1085.591, 12620.72
1086.689, 12758.00
1087.788, 12690.01
1088.886, 12594.99
1089.984, 12657.60
1091.082, 12698.46
1092.180, 12718.72
1093.277, 12656.73
1094.375, 12700.96
1095.472, 12702.61
1096.569, 12702.52
1097.666, 12761.68
1098.763, 12711.65
1099.860, 12769.87
1100.956, 12613.00
1102.053, 12580.00
1103.149, 12560.00
1104.245, 12499.00
1105.341, 12537.00
1106.436, 12336.00
1107.532, 12482.00
1108.627, 12447.00
1109.723, 12318.00
1110.818, 12462.00
1111.913, 12345.00
1113.007, 12391.00
1114.102, 12312.00
1115.197, 12374.00
1116.291, 12335.00
1117.385, 12226.00
1118.479, 12308.00
1119.573, 12225.00
1120.666, 12308.00
1121.760, 12232.00
1122.853, 12263.00
1123.947, 12242.00
1125.040, 12217.67
1126.132, 12158.00
1127.225, 12195.00
1128.318, 12264.00
1129.410, 12275.00
1130.502, 12199.00
1131.595, 12206.00
1132.687, 12206.69
1133.778, 12142.00
1134.870, 12258.00
1135.961, 12239.00
1137.053, 12320.00
1138.144, 12255.00
1139.235, 12294.00
1140.326, 12354.00
1141.416, 12296.00
1142.507, 12260.00
1143.597, 12250.00
1144.688, 12219.00
1145.778, 12232.61
1146.868, 12218.00
1147.957, 12261.00
1149.047, 12207.00
1150.136, 12201.00
1151.226, 12229.70
1152.315, 12346.00
1153.404, 12302.00
1154.493, 12248.53
1155.581, 12310.31
1156.670, 12350.34
1157.758, 12369.78
1158.846, 12306.96
1159.934, 12350.36
1161.022, 12351.19
1162.110, 12217.00
1163.198, 12272.00
1164.285, 12334.00
1165.372, 12272.00
1166.459, 12343.00
1167.546, 12369.00
1168.633, 12300.00
1169.720, 12292.00
1170.806, 12360.00
1171.892, 12389.00
1172.979, 12468.00
1174.065, 12353.00
1175.150, 12377.00
1176.236, 12379.00
1177.322, 12496.00
1178.407, 12491.01
1179.492, 12512.90
1180.577, 12553.00
1181.662, 12494.00
1182.747, 12524.61
1183.832, 12464.00
1184.916, 12472.00
1186.000, 12350.00
1187.084, 12327.00
1188.168, 12424.00
1189.252, 12369.00
1190.336, 12423.00
1191.419, 12284.00
1192.503, 12413.00
1193.586, 12576.00
1194.669, 12645.00
1195.752, 12357.00
1196.835, 12248.00
1197.917, 12608.00
1199.000, 12426.00
1200.082, 12515.00
1201.164, 12404.00
1202.246, 12422.00
1203.328, 12672.00
1204.409, 12594.00
1205.491, 12537.00
1206.572, 12670.00
1207.653, 12482.00
1208.734, 12520.23
1209.815, 12562.07
1210.896, 12455.00
1211.976, 12618.00
1213.057, 12587.00
1214.137, 12524.00
1215.217, 12498.00
1216.297, 12584.00
1217.377, 12640.00
1218.456, 12712.00
1219.536, 12643.00
1220.615, 12705.70
1221.694, 12560.00
1222.773, 12694.00
1223.852, 12730.00
1224.931, 12638.00
1226.009, 12689.00
1227.088, 12611.00
1228.166, 12655.00
1229.244, 12702.00
1230.322, 12661.01
1231.400, 12672.00
1232.477, 12640.00
1233.555, 12794.00
1234.632, 12795.00
1235.709, 12785.00
1236.786, 12839.30
1237.863, 12801.00
1238.939, 12818.00
1240.016, 12799.00
1241.092, 12715.00
1242.168, 12895.00
1243.245, 12842.00
1244.320, 12819.00
1245.396, 12901.00
1246.472, 12765.00
1247.547, 12844.00
1248.622, 12876.00
1249.697, 12983.00
1250.772, 12993.00
1251.847, 12869.00
1252.922, 12877.00
1253.996, 12976.00
1255.071, 12762.00
1256.145, 12918.00
1257.219, 12902.00
1258.293, 12963.00
1259.366, 13018.00
1260.440, 13071.00
1261.513, 12884.00
1262.587, 13096.00
1263.660, 13014.00
1264.733, 12787.00
1265.805, 13015.00
1266.878, 13046.00
1267.951, 13034.00
1269.023, 13029.00
1270.095, 13122.00
1271.167, 13085.00
1272.239, 13159.00
1273.311, 13161.00
1274.382, 13243.00
1275.454, 13120.00
1276.525, 13081.00
1277.596, 13190.00
1278.667, 13093.00
1279.738, 13056.00
1280.808, 12952.00
1281.879, 13025.00
1282.949, 13015.00
1284.019, 13055.00
1285.089, 13127.00
1286.159, 13101.00
1287.229, 13124.00
1288.298, 13161.00
1289.368, 13216.00
1290.437, 13208.48
1291.506, 13120.00
1292.575, 13181.00
1293.644, 13200.00
1294.712, 13137.00
1295.781, 13222.00
1296.849, 13124.00
1297.917, 13257.00
1298.985, 13359.00
1300.053, 13259.00
1301.121, 13198.00
1302.188, 13155.00
1303.255, 13250.00
1304.323, 13220.00
1305.390, 13431.00
1306.457, 13252.00
1307.523, 13095.00
1308.590, 13251.00
1309.656, 13519.00
1310.723, 13466.00
1311.789, 13457.00
1312.855, 13390.00
1313.921, 13390.00
1314.986, 13346.00
1316.052, 13366.86
1317.117, 13375.86
1318.182, 13430.00
1319.248, 13398.00
1320.312, 13433.00
1321.377, 13385.00
1322.442, 13426.00
1323.506, 13473.00
1324.571, 13507.00
1325.635, 13510.00
1326.699, 13635.00
1327.762, 13483.00
1328.826, 13401.00
1329.890, 13443.00
1330.953, 13489.00
1332.016, 13524.00
1333.079, 13560.41
1334.142, 13570.68
1335.205, 13578.41
1336.268, 13560.00
1337.330, 13568.00
1338.392, 13523.00
1339.454, 13514.00
1340.516, 13513.14
1341.578, 13461.00
1342.640, 13520.00
1343.701, 13491.00
1344.763, 13505.00
1345.824, 13554.00
1346.885, 13603.00
1347.946, 13640.00
1349.007, 13550.00
1350.067, 13676.00
1351.128, 13683.00
1352.188, 13559.00
1353.248, 13600.00
1354.308, 13588.00
1355.368, 13563.00
1356.428, 13623.00
1357.487, 13693.00
1358.547, 13549.00
1359.606, 13820.00
1360.665, 13710.08
1361.724, 13536.00
1362.783, 13659.00
1363.841, 13741.00
1364.900, 13715.00
1365.958, 13780.00
1367.016, 13670.00
1368.074, 13714.00
1369.132, 13897.00
1370.190, 13732.00
1371.247, 13776.00
1372.304, 13787.00
1373.362, 13735.00
1374.419, 13780.53
1375.476, 13883.00
1376.532, 13807.00
1377.589, 13880.00
1378.645, 13888.00
1379.702, 13749.00
1380.758, 13819.00
1381.814, 13798.69
1382.870, 13814.00
1383.925, 13799.00
1384.981, 13857.00
1386.036, 13762.00
1387.092, 14051.00
1388.147, 13887.00
1389.202, 13812.00
1390.256, 14037.00
1391.311, 14129.00
1392.365, 13839.00
1393.420, 14093.00
1394.474, 14016.00
1395.528, 13861.00
1396.582, 13976.00
1397.636, 13855.00
1398.689, 13935.00
1399.742, 13919.49
1400.796, 13984.07
1401.849, 14026.88
1402.902, 14049.09
1403.955, 13989.07
1405.007, 14035.23
1406.060, 14038.85
1407.112, 14040.70
1408.164, 14101.81
1409.216, 14053.73
1410.268, 14020.00
1411.320, 14120.00
1412.371, 14012.00
1413.423, 14068.00
1414.474, 14128.00
1415.525, 14153.00
1416.576, 14088.00
1417.627, 14031.00
1418.678, 14025.00
1419.728, 14015.40
1420.778, 14022.71
1421.829, 14077.00
1422.879, 14085.00
1423.928, 14170.00
1424.978, 14234.00
1426.028, 14192.00
1427.077, 14449.00
1428.126, 14272.00
1429.176, 14229.00
1430.225, 14201.00
1431.273, 14385.00
1432.322, 14381.00
1433.371, 14368.00
1434.419, 14343.00
1435.467, 14298.00
1436.515, 14511.00
1437.563, 14500.00
1438.611, 14487.00
1439.658, 14478.00
1440.706, 14403.00
1441.753, 14693.00
1442.800, 14639.00
1443.847, 14603.00
1444.894, 14836.00
1445.941, 14621.00
1446.987, 14732.00
1448.034, 14834.00
1449.080, 14590.00
1450.126, 14870.00
1451.172, 14720.00
1452.218, 14616.00
1453.263, 14699.00
1454.309, 14703.00
1455.354, 14678.09
1456.399, 14816.00
1457.444, 14693.00
1458.489, 14761.00
1459.534, 14830.00
1460.579, 14743.00
1461.623, 14880.00
1462.667, 14896.00
1463.711, 14821.71
1464.755, 14836.26
1465.799, 14693.00
1466.843, 14697.00
1467.886, 14668.00
1468.930, 14557.00
1469.973, 14627.00
1471.016, 14736.00
1472.059, 14678.00
1473.101, 14651.00
1474.144, 14614.00
1475.186, 14502.00
1476.229, 14505.77
1477.271, 14473.86
1478.313, 14517.00
1479.355, 14465.00
1480.396, 14587.00
1481.438, 14591.00
1482.479, 14667.00
1483.520, 14532.00
1484.561, 14633.00
1485.602, 14682.00
1486.643, 14736.00
1487.684, 14485.00
1488.724, 14574.00
1489.765, 14444.00
1490.805, 14575.00
1491.845, 14595.00
1492.885, 14728.00
1493.924, 14702.01
1494.964, 14506.00
1496.003, 14633.00
1497.042, 14591.00
1498.082, 14523.00
1499.120, 14675.00
1500.159, 14637.00
1501.198, 14614.00
1502.236, 14556.00
1503.275, 14487.00
1504.313, 14559.00
1505.351, 14500.23
1506.389, 14807.00
1507.427, 14519.00
1508.464, 14617.00
1509.502, 14714.00
1510.539, 14508.00
1511.576, 14522.00
1512.613, 14695.00
1513.650, 14743.00
1514.687, 14775.36
1515.723, 14660.00
1516.759, 14770.00
1517.796, 14749.00
1518.832, 14640.00
1519.868, 14820.00
1520.903, 14866.00
1521.939, 14659.00
1522.975, 14660.00
1524.010, 14785.00
1525.045, 14760.00
1526.080, 14910.00
1527.115, 14779.00
1528.150, 14840.00
1529.184, 14765.00
1530.219, 14897.00
1531.253, 14936.00
1532.287, 14765.00
1533.321, 14763.00
1534.355, 14674.00
1535.388, 14891.00
1536.422, 15004.00
1537.455, 15028.00
1538.488, 14865.00
1539.522, 14918.00
1540.554, 14830.00
1541.587, 14914.00
1542.620, 14860.00
1543.652, 14989.00
1544.685, 14962.00
1545.717, 14890.00
1546.749, 14784.00
1547.781, 14852.00
1548.812, 14926.00
1549.844, 14940.00
1550.875, 15025.00
1551.906, 15052.00
1552.938, 14954.00
1553.968, 15069.00
1554.999, 14984.00
1556.030, 15061.00
1557.060, 14962.00
1558.091, 15030.00
1559.121, 15030.00
1560.151, 15015.00
1561.181, 14995.00
1562.211, 14985.77
1563.240, 14977.07
1564.270, 14977.00
1565.299, 15003.00
1566.328, 15049.00
1567.357, 15143.00
1568.386, 15080.00
1569.415, 15170.00
1570.443, 15162.00
1571.472, 15187.97
1572.500, 15045.00
1573.528, 15241.00
1574.556, 15245.00
1575.584, 15243.00
1576.611, 15150.00
##END=



