##NAMES=Celsian
##RRUFFID=R060152
##IDEAL CHEMISTRY=BaAl_2_Si_2_O_8_
##LOCALITY=Benallt mine, Lleyn, Wales
##OWNER=RRUFF
##SOURCE=Marcus Origlieri
##DESCRIPTION=Colorless to white elongated prismatic crystals
##STATUS=The identification of this mineral is confirmed by single-crystal X-ray diffraction and chemical analysis.
##URL=rruff.info/R060152
##MEASURED CHEMISTRY=(Ba_0.98_K_0.02_[box]_0.02_)_Î£=1_Al_2.00_Si_2.00_O_8_
##PIN_ID=M00479
##ORIENTATION=Laser parallel to -c* (0 0 -1). Fiducial mark perpendicular to laser is parallel to a [1 0 0]
87.51300, 28649.00
88.74500, 29528.00
89.97700, 30742.00
91.20900, 32121.00
92.44100, 34296.00
93.67200, 36194.00
94.90400, 38681.00
96.13500, 41891.00
97.36600, 44916.00
98.59700, 48266.00
99.82800, 51330.00
101.0590, 55187.00
102.2900, 59296.00
103.5200, 66179.00
104.7500, 68763.00
105.9810, 74661.00
107.2110, 81227.00
108.4410, 86150.00
109.6700, 88201.00
110.9000, 86488.00
112.1300, 82275.00
113.3590, 74057.00
114.5880, 65662.00
115.8170, 58283.00
117.0460, 52722.00
118.2750, 48398.00
119.5040, 45481.00
120.7320, 45408.47
121.9610, 46091.68
123.1890, 46640.20
124.4170, 47061.54
125.6450, 46974.83
126.8730, 47544.16
128.1010, 47850.58
129.3280, 49754.00
130.5560, 52180.00
131.7830, 54253.00
133.0100, 56140.00
134.2380, 57041.00
135.4640, 57039.00
136.6910, 56192.00
137.9180, 54016.00
139.1440, 50719.00
140.3710, 46901.00
141.5970, 43422.00
142.8230, 40654.00
144.0490, 38543.00
145.2750, 36906.00
146.5000, 36077.00
147.7260, 35768.00
148.9510, 35075.00
150.1770, 35219.00
151.4020, 34779.00
152.6270, 34445.00
153.8520, 34377.00
155.0760, 34060.00
156.3010, 34240.00
157.5250, 34123.00
158.7500, 34447.00
159.9740, 34727.00
161.1980, 35240.00
162.4220, 35910.00
163.6450, 36915.00
164.8690, 37852.00
166.0920, 38631.00
167.3160, 39419.00
168.5390, 39861.00
169.7620, 40129.00
170.9850, 40048.00
172.2080, 39724.00
173.4300, 38842.00
174.6530, 37926.00
175.8750, 37113.00
177.0970, 36574.00
178.3190, 36075.00
179.5410, 35564.00
180.7630, 35234.00
181.9850, 34669.00
183.2060, 34511.00
184.4270, 34234.00
185.6490, 34253.00
186.8700, 34215.00
188.0910, 34185.00
189.3110, 34442.00
190.5320, 34464.00
191.7530, 34999.00
192.9730, 35363.00
194.1930, 35588.00
195.4130, 35878.26
196.6330, 35868.00
197.8530, 36082.00
199.0730, 36108.00
200.2920, 35895.00
201.5120, 35220.00
202.7310, 35021.00
203.9500, 34795.00
205.1690, 34664.00
206.3880, 34365.00
207.6070, 34365.00
208.8250, 34194.00
210.0440, 34193.00
211.2620, 34336.73
212.4800, 34638.00
213.6980, 34726.00
214.9160, 34837.00
216.1340, 35047.00
217.3510, 35546.00
218.5690, 35755.00
219.7860, 36182.00
221.0030, 36342.36
222.2200, 36324.00
223.4370, 36582.00
224.6540, 36305.00
225.8700, 36311.00
227.0870, 36042.00
228.3030, 35821.00
229.5190, 35945.00
230.7350, 36006.00
231.9510, 35897.00
233.1670, 36417.00
234.3820, 36914.00
235.5980, 37319.00
236.8130, 38578.00
238.0280, 39562.00
239.2430, 41422.00
240.4580, 43336.00
241.6730, 45208.00
242.8880, 47679.00
244.1020, 49684.00
245.3160, 51303.00
246.5300, 52326.00
247.7450, 53039.00
248.9580, 52663.00
250.1720, 50917.00
251.3860, 49474.00
252.5990, 47875.00
253.8130, 46639.00
255.0260, 45897.00
256.2390, 44999.00
257.4520, 44605.00
258.6640, 43660.00
259.8770, 42636.00
261.0890, 41604.00
262.3020, 40656.00
263.5140, 39818.00
264.7260, 38965.00
265.9380, 38253.00
267.1500, 37866.00
268.3610, 37539.00
269.5730, 37619.00
270.7840, 37575.00
271.9950, 37311.00
273.2060, 37015.00
274.4170, 36646.00
275.6280, 36627.00
276.8390, 36552.00
278.0490, 36662.00
279.2590, 36552.00
280.4690, 36752.00
281.6800, 36300.00
282.8890, 36492.00
284.0990, 36345.00
285.3090, 36237.00
286.5180, 36733.00
287.7280, 36408.00
288.9370, 36608.00
290.1460, 36613.00
291.3550, 36750.00
292.5630, 37001.00
293.7720, 37068.00
294.9800, 37142.00
296.1890, 37549.00
297.3970, 37840.05
298.6050, 38263.08
299.8130, 38739.00
301.0200, 39331.00
302.2280, 39816.00
303.4360, 40524.00
304.6430, 41285.00
305.8500, 41444.00
307.0570, 41769.00
308.2640, 41547.00
309.4710, 41080.00
310.6770, 40497.00
311.8840, 39863.00
313.0900, 39189.00
314.2960, 38880.00
315.5020, 38383.00
316.7080, 38082.00
317.9140, 38151.00
319.1190, 37825.00
320.3250, 37851.00
321.5300, 38140.00
322.7350, 37732.00
323.9400, 37708.00
325.1450, 37770.00
326.3500, 37368.00
327.5540, 37685.00
328.7580, 37406.68
329.9630, 37574.00
331.1670, 37394.00
332.3710, 37204.00
333.5750, 37815.00
334.7780, 37560.00
335.9820, 37606.00
337.1850, 37754.16
338.3880, 38000.00
339.5920, 37791.00
340.7950, 37986.00
341.9970, 38004.00
343.2000, 38226.00
344.4030, 38347.00
345.6050, 38817.00
346.8070, 39687.00
348.0090, 39841.00
349.2110, 39780.00
350.4130, 40723.00
351.6150, 41556.00
352.8160, 41908.00
354.0170, 42790.00
355.2190, 43930.00
356.4200, 44369.00
357.6210, 44664.00
358.8210, 44756.00
360.0220, 44389.00
361.2220, 43080.00
362.4230, 42491.00
363.6230, 41771.00
364.8230, 40970.00
366.0230, 40300.00
367.2230, 40137.00
368.4220, 39609.00
369.6220, 39540.00
370.8210, 39522.00
372.0200, 39401.00
373.2190, 39490.00
374.4180, 39391.00
375.6170, 39476.63
376.8150, 39482.49
378.0140, 39670.00
379.2120, 39626.00
380.4100, 39759.00
381.6080, 40041.00
382.8060, 40404.00
384.0040, 40362.00
385.2010, 40665.00
386.3980, 40891.00
387.5960, 42594.00
388.7930, 43180.00
389.9900, 43720.00
391.1870, 44838.00
392.3830, 45097.00
393.5800, 44670.00
394.7760, 44396.00
395.9720, 43814.00
397.1680, 42671.00
398.3640, 42166.00
399.5600, 41479.00
400.7560, 41069.00
401.9510, 40934.00
403.1460, 40829.00
404.3420, 40849.00
405.5370, 40572.00
406.7320, 40790.00
407.9260, 40822.00
409.1210, 40796.00
410.3150, 40553.00
411.5100, 40781.00
412.7040, 40808.00
413.8980, 41018.00
415.0920, 41280.00
416.2850, 41374.46
417.4790, 41178.00
418.6720, 41774.00
419.8650, 42151.00
421.0590, 42539.00
422.2510, 43405.00
423.4440, 44322.00
424.6370, 45163.00
425.8290, 46002.00
427.0220, 46858.00
428.2140, 47619.00
429.4060, 47235.00
430.5980, 46825.00
431.7900, 46021.00
432.9810, 44785.00
434.1730, 44251.00
435.3640, 43691.00
436.5550, 43219.00
437.7460, 42936.07
438.9370, 42701.00
440.1280, 42614.00
441.3190, 42504.00
442.5090, 42622.00
443.6990, 42793.00
444.8890, 42814.00
446.0790, 43035.00
447.2690, 43358.00
448.4590, 43628.00
449.6480, 43938.00
450.8380, 44471.00
452.0270, 45050.00
453.2160, 46013.00
454.4050, 47545.00
455.5940, 48477.00
456.7820, 50172.00
457.9710, 53033.00
459.1590, 54908.00
460.3470, 57607.00
461.5350, 59456.00
462.7230, 61021.00
463.9110, 61590.00
465.0990, 61025.00
466.2860, 60023.00
467.4730, 58564.00
468.6600, 57546.00
469.8470, 56313.00
471.0340, 55729.00
472.2210, 55068.00
473.4070, 53740.00
474.5940, 52277.00
475.7800, 50986.00
476.9660, 49851.00
478.1520, 48938.00
479.3380, 48188.85
480.5230, 47654.14
481.7090, 47231.00
482.8940, 47144.00
484.0790, 47079.00
485.2650, 47264.00
486.4490, 47680.00
487.6340, 48130.00
488.8190, 48733.00
490.0030, 49714.00
491.1870, 50811.00
492.3720, 51391.00
493.5550, 53720.00
494.7390, 55450.00
495.9230, 58715.00
497.1060, 62293.00
498.2900, 67797.00
499.4730, 74396.00
500.6560, 83365.00
501.8390, 95041.00
503.0220, 110083.0
504.2040, 125874.0
505.3870, 141654.0
506.5690, 155785.0
507.7510, 161416.0
508.9330, 160138.0
510.1150, 151287.0
511.2970, 136231.0
512.4780, 118344.0
513.6600, 101542.0
514.8410, 87694.00
516.0220, 77463.00
517.2030, 70216.00
518.3840, 64696.00
519.5650, 61131.00
520.7450, 58487.00
521.9250, 57178.00
523.1060, 55709.00
524.2860, 55225.00
525.4660, 54574.00
526.6450, 54183.00
527.8250, 53520.00
529.0040, 52702.00
530.1840, 52132.00
531.3630, 51601.00
532.5420, 50507.00
533.7200, 49923.00
534.8990, 48955.00
536.0780, 48680.00
537.2560, 48180.00
538.4340, 48028.00
539.6120, 47809.00
540.7900, 47930.00
541.9680, 47811.00
543.1460, 47747.00
544.3230, 47869.16
545.5000, 47811.00
546.6770, 48152.00
547.8540, 48203.00
549.0310, 48548.00
550.2080, 48503.00
551.3840, 49330.00
552.5610, 49301.00
553.7370, 49616.00
554.9130, 49745.00
556.0890, 49320.00
557.2650, 49069.00
558.4400, 48626.00
559.6160, 48154.00
560.7910, 47838.00
561.9660, 47847.00
563.1410, 47685.00
564.3160, 47625.00
565.4910, 47461.00
566.6650, 47388.00
567.8400, 47013.00
569.0140, 47413.00
570.1880, 47694.00
571.3620, 47581.00
572.5360, 47409.00
573.7090, 47542.00
574.8830, 47741.00
576.0560, 47397.00
577.2290, 47802.00
578.4020, 47765.00
579.5750, 47838.00
580.7480, 48338.00
581.9200, 48148.00
583.0930, 48434.00
584.2650, 49031.00
585.4370, 49432.00
586.6090, 49690.00
587.7810, 50403.00
588.9520, 51033.00
590.1240, 51615.00
591.2950, 52411.00
592.4660, 52941.00
593.6370, 53401.00
594.8080, 53160.00
595.9790, 52893.00
597.1500, 52147.00
598.3200, 51250.00
599.4900, 50872.00
600.6600, 50209.00
601.8300, 50163.00
603.0000, 49552.00
604.1700, 49559.00
605.3390, 49545.00
606.5080, 49657.00
607.6770, 49745.28
608.8460, 49884.00
610.0150, 50128.00
611.1840, 50475.00
612.3520, 50900.00
613.5210, 51316.00
614.6890, 51494.00
615.8570, 52005.00
617.0250, 52204.00
618.1930, 52095.00
619.3600, 52068.00
620.5280, 51772.56
621.6950, 51442.46
622.8620, 51120.00
624.0290, 50919.50
625.1960, 50638.00
626.3630, 50567.00
627.5290, 50399.00
628.6960, 50295.73
629.8620, 50237.00
631.0280, 49946.00
632.1940, 49770.00
633.3600, 49486.00
634.5250, 49938.00
635.6910, 49633.00
636.8560, 49882.00
638.0210, 49720.00
639.1860, 49914.00
640.3510, 49762.00
641.5150, 49903.00
642.6800, 49860.00
643.8440, 49930.69
645.0080, 50056.00
646.1720, 50112.00
647.3360, 50162.00
648.5000, 50246.00
649.6640, 50262.00
650.8270, 50465.00
651.9900, 50509.00
653.1530, 50597.00
654.3160, 50920.00
655.4790, 50478.00
656.6420, 50365.00
657.8040, 50612.00
658.9660, 50362.00
660.1290, 50541.00
661.2910, 50548.00
662.4520, 50442.00
663.6140, 50465.00
664.7760, 50489.00
665.9370, 50577.00
667.0980, 50786.00
668.2590, 50678.00
669.4200, 50922.00
670.5810, 50978.00
671.7420, 51305.00
672.9020, 51507.00
674.0620, 51897.00
675.2220, 52192.00
676.3820, 52982.00
677.5420, 53615.00
678.7020, 53890.00
679.8610, 54567.00
681.0210, 55914.00
682.1800, 55853.91
683.3390, 56963.00
684.4980, 55946.00
685.6560, 55318.00
686.8150, 54510.00
687.9730, 53887.00
689.1320, 53082.00
690.2900, 52721.00
691.4480, 52547.00
692.6050, 52262.00
693.7630, 52278.00
694.9200, 52097.00
696.0780, 51959.00
697.2350, 51728.00
698.3920, 51761.00
699.5490, 51884.00
700.7050, 51821.00
701.8620, 52011.00
703.0180, 52035.00
704.1740, 52039.00
705.3300, 51956.00
706.4860, 52341.00
707.6420, 52630.00
708.7970, 52765.00
709.9530, 53116.00
711.1080, 53510.00
712.2630, 53629.00
713.4180, 53894.00
714.5730, 54170.00
715.7280, 54162.00
716.8820, 54201.00
718.0360, 54204.00
719.1900, 53807.00
720.3440, 53977.00
721.4980, 53947.00
722.6520, 54232.00
723.8050, 54156.00
724.9590, 54330.00
726.1120, 54406.00
727.2650, 54581.00
728.4180, 54395.00
729.5700, 54172.00
730.7230, 53948.00
731.8750, 53743.00
733.0280, 53686.00
734.1800, 53385.00
735.3320, 53479.39
736.4830, 53342.32
737.6350, 53775.00
738.7860, 53388.00
739.9380, 53819.00
741.0890, 54200.00
742.2400, 54387.00
743.3910, 54786.00
744.5410, 55417.00
745.6920, 56530.00
746.8420, 57017.00
747.9920, 57481.00
749.1420, 58430.00
750.2920, 58777.00
751.4420, 59326.00
752.5910, 59505.00
753.7410, 59167.00
754.8900, 57851.00
756.0390, 57310.00
757.1880, 56414.00
758.3370, 55719.00
759.4850, 55430.00
760.6340, 54802.00
761.7820, 54428.00
762.9300, 54540.00
764.0780, 54670.00
765.2260, 54146.00
766.3730, 54153.00
767.5210, 54154.00
768.6680, 54051.00
769.8150, 54148.00
770.9620, 54097.00
772.1090, 54003.00
773.2560, 54014.00
774.4020, 54090.00
775.5490, 53926.00
776.6950, 54198.00
777.8410, 54117.00
778.9870, 54265.00
780.1330, 54249.00
781.2780, 54024.00
782.4230, 54680.00
783.5690, 54229.00
784.7140, 54514.00
785.8590, 54561.00
787.0030, 54380.00
788.1480, 54495.00
789.2920, 54452.00
790.4370, 54627.00
791.5810, 54855.00
792.7250, 54410.00
793.8690, 54418.00
795.0120, 54755.00
796.1560, 54843.00
797.2990, 54896.00
798.4420, 54803.00
799.5850, 54811.00
800.7280, 54663.00
801.8710, 55114.00
803.0130, 55281.00
804.1550, 55204.00
805.2980, 55232.00
806.4400, 55217.00
807.5810, 55226.28
808.7230, 55197.00
809.8650, 55308.00
811.0060, 55187.00
812.1470, 55279.00
813.2880, 55751.00
814.4290, 55651.00
815.5700, 55570.00
816.7110, 55720.00
817.8510, 55488.00
818.9910, 55849.00
820.1310, 55954.00
821.2710, 55610.00
822.4110, 56021.00
823.5510, 56009.00
824.6900, 56252.00
825.8290, 56118.00
826.9680, 56451.00
828.1070, 56185.00
829.2460, 56476.00
830.3850, 56404.00
831.5230, 56113.00
832.6620, 56790.00
833.8000, 56442.00
834.9380, 56613.00
836.0760, 56799.00
837.2130, 56545.00
838.3510, 56555.00
839.4880, 57049.00
840.6250, 56865.00
841.7620, 57208.00
842.8990, 57032.00
844.0360, 57314.00
845.1720, 56816.00
846.3090, 57035.00
847.4450, 57293.00
848.5810, 57861.00
849.7170, 57474.00
850.8530, 57523.00
851.9880, 57846.00
853.1240, 57956.00
854.2590, 58019.00
855.3940, 57972.00
856.5290, 58099.00
857.6640, 58119.00
858.7980, 58323.00
859.9330, 58425.00
861.0670, 58362.00
862.2010, 58455.00
863.3350, 58563.00
864.4690, 58205.00
865.6030, 58331.00
866.7360, 58105.00
867.8690, 58146.00
869.0020, 58108.00
870.1350, 58109.00
871.2680, 58229.00
872.4010, 58252.00
873.5330, 58404.00
874.6660, 58774.00
875.7980, 58138.00
876.9300, 58298.00
878.0620, 58582.00
879.1930, 58260.00
880.3250, 58365.00
881.4560, 58619.00
882.5870, 58842.00
883.7180, 58851.00
884.8490, 58732.00
885.9800, 58730.00
887.1100, 58735.00
888.2410, 58439.00
889.3710, 58768.00
890.5010, 58679.00
891.6310, 59201.00
892.7610, 59402.00
893.8900, 59113.00
895.0200, 59388.00
896.1490, 59593.00
897.2780, 59292.00
898.4070, 59575.00
899.5360, 59649.00
900.6640, 59844.00
901.7920, 59924.00
902.9210, 59525.00
904.0490, 59841.00
905.1770, 59950.00
906.3040, 60095.00
907.4320, 60322.00
908.5600, 60400.00
909.6870, 60451.84
910.8140, 60571.89
911.9410, 60408.00
913.0680, 60670.00
914.1940, 60568.00
915.3210, 60530.00
916.4470, 60662.00
917.5730, 60717.00
918.6990, 60756.18
919.8250, 60860.05
920.9500, 60900.00
922.0760, 60960.00
923.2010, 61102.00
924.3260, 61035.00
925.4510, 61429.00
926.5760, 61581.00
927.7010, 61423.00
928.8250, 61326.00
929.9500, 61674.00
931.0740, 61811.00
932.1980, 61703.00
933.3220, 62303.00
934.4450, 62087.00
935.5690, 62356.00
936.6920, 62652.00
937.8150, 62861.00
938.9380, 62937.00
940.0610, 63207.00
941.1840, 63626.00
942.3060, 63556.00
943.4290, 63639.00
944.5510, 63525.00
945.6730, 63921.00
946.7950, 63657.32
947.9160, 63789.00
949.0380, 63464.00
950.1590, 63344.00
951.2800, 63520.00
952.4010, 63500.00
953.5220, 63619.00
954.6430, 63360.00
955.7630, 63484.00
956.8840, 63449.00
958.0040, 63754.00
959.1240, 64175.00
960.2440, 64101.00
961.3640, 64696.00
962.4830, 65202.00
963.6030, 65301.00
964.7220, 66187.00
965.8410, 67354.00
966.9600, 68465.00
968.0780, 69487.00
969.1970, 71493.00
970.3150, 72741.00
971.4340, 73438.00
972.5520, 74274.00
973.6700, 73593.00
974.7870, 72469.00
975.9050, 71663.00
977.0220, 71298.00
978.1390, 71997.00
979.2560, 72491.00
980.3730, 73664.00
981.4900, 75932.00
982.6070, 77456.00
983.7230, 79184.00
984.8390, 80086.00
985.9550, 79908.00
987.0710, 79019.00
988.1870, 77259.00
989.3030, 74939.00
990.4180, 73700.00
991.5330, 72296.00
992.6480, 71852.00
993.7630, 71757.00
994.8780, 71205.00
995.9930, 71666.00
997.1070, 71565.00
998.2210, 71223.00
999.3350, 70795.00
1000.449, 70154.00
1001.563, 69670.00
1002.677, 69041.00
1003.790, 69073.00
1004.903, 68519.00
1006.016, 68626.00
1007.129, 68835.00
1008.242, 69392.00
1009.355, 69890.00
1010.467, 70457.00
1011.579, 71538.00
1012.691, 72438.00
1013.803, 73862.00
1014.915, 73213.00
1016.027, 72938.00
1017.138, 72651.00
1018.249, 71514.00
1019.360, 70791.00
1020.471, 69660.00
1021.582, 68867.00
1022.693, 68409.00
1023.803, 67888.00
1024.913, 67451.37
1026.023, 66787.00
1027.133, 66702.00
1028.243, 66919.00
1029.353, 66467.00
1030.462, 66618.00
1031.571, 66038.00
1032.680, 66385.00
1033.789, 66346.00
1034.898, 66508.00
1036.007, 66534.81
1037.115, 66165.00
1038.223, 66478.00
1039.331, 65940.00
1040.439, 65828.00
1041.547, 66160.00
1042.655, 66259.00
1043.762, 66236.00
1044.869, 66321.00
1045.976, 66718.00
1047.083, 66877.00
1048.190, 67693.00
1049.297, 68142.00
1050.403, 68859.00
1051.509, 69520.00
1052.615, 70057.00
1053.721, 70513.00
1054.827, 70806.00
1055.933, 70741.15
1057.038, 70851.00
1058.143, 70168.00
1059.248, 70021.00
1060.353, 69447.00
1061.458, 69154.00
1062.563, 68790.00
1063.667, 67793.00
1064.771, 67821.00
1065.875, 67512.00
1066.979, 67227.00
1068.083, 67373.00
1069.186, 67175.00
1070.290, 67040.00
1071.393, 67581.00
1072.496, 67880.00
1073.599, 67745.24
1074.702, 67675.36
1075.804, 67713.00
1076.907, 67029.00
1078.009, 67255.00
1079.111, 67129.00
1080.213, 67637.00
1081.315, 67644.00
1082.416, 67552.00
1083.517, 67636.00
1084.619, 67608.42
1085.720, 67376.00
1086.821, 67524.00
1087.921, 67472.00
1089.022, 67189.00
1090.122, 67501.00
1091.222, 67657.00
1092.322, 67628.00
1093.422, 67373.00
1094.522, 67758.00
1095.622, 67497.00
1096.721, 67483.00
1097.820, 67608.00
1098.919, 67654.00
1100.018, 68172.00
1101.117, 67569.00
1102.215, 67387.00
1103.314, 67928.00
1104.412, 67542.00
1105.510, 67859.00
1106.608, 68091.00
1107.705, 67929.00
1108.803, 68002.00
1109.900, 67787.00
1110.997, 68059.00
1112.094, 67974.00
1113.191, 67756.00
1114.288, 68205.00
1115.384, 67815.00
1116.481, 67966.00
1117.577, 68431.00
1118.673, 68711.00
1119.769, 68066.00
1120.864, 67849.00
1121.960, 68246.00
1123.055, 68051.00
1124.150, 68418.00
1125.245, 68396.00
1126.340, 68054.00
1127.434, 68703.00
1128.529, 68197.00
1129.623, 68546.00
1130.717, 68224.00
1131.811, 68505.00
1132.905, 68388.00
1133.999, 68683.00
1135.092, 68875.00
1136.185, 68521.00
1137.279, 68869.00
1138.371, 69049.00
1139.464, 68733.00
1140.557, 68841.00
1141.649, 68801.00
1142.742, 68928.00
1143.834, 68733.00
1144.926, 68944.00
1146.017, 68818.00
1147.109, 69274.00
1148.200, 69356.00
1149.292, 69348.36
1150.383, 69398.00
1151.474, 69272.00
1152.564, 69260.00
1153.655, 69104.00
1154.745, 69262.00
1155.835, 69341.00
1156.925, 69447.00
1158.015, 69401.00
1159.105, 69413.00
1160.195, 69465.00
1161.284, 69702.00
1162.373, 69844.00
1163.462, 69501.00
1164.551, 69832.00
1165.640, 69860.00
1166.728, 70068.00
1167.817, 69595.00
1168.905, 69817.00
1169.993, 69865.00
1171.081, 70078.00
1172.168, 70281.00
1173.256, 70230.00
1174.343, 70360.00
1175.430, 70199.00
1176.517, 70735.00
1177.604, 70488.00
1178.691, 70343.00
1179.777, 70696.00
1180.864, 70243.00
1181.950, 70305.00
1183.036, 70608.00
1184.121, 70369.00
1185.207, 70693.00
1186.293, 70538.00
1187.378, 71111.00
1188.463, 70687.00
1189.548, 70782.00
1190.633, 70823.00
1191.717, 70652.00
1192.802, 70860.00
1193.886, 70877.00
1194.970, 70893.00
1196.054, 71057.00
1197.138, 70838.00
1198.221, 71013.00
1199.305, 71091.00
1200.388, 71043.00
1201.471, 71281.00
1202.554, 71295.00
1203.637, 71613.00
1204.719, 71420.00
1205.801, 71256.00
1206.884, 71839.00
1207.966, 71261.00
1209.048, 71594.00
1210.129, 71414.00
1211.211, 71419.00
1212.292, 71755.00
1213.373, 71887.00
1214.454, 71779.00
1215.535, 72163.00
1216.616, 71992.00
1217.696, 71690.00
1218.777, 71791.00
1219.857, 71779.00
1220.937, 71713.00
1222.017, 71882.58
1223.096, 72005.00
1224.176, 72116.00
1225.255, 72291.00
1226.334, 72333.00
1227.413, 72215.00
1228.492, 72343.28
1229.570, 72285.00
1230.649, 72421.00
1231.727, 72511.00
1232.805, 72568.00
1233.883, 72752.00
1234.961, 72891.00
1236.038, 72640.00
1237.116, 72774.00
1238.193, 73018.00
1239.270, 72760.00
1240.347, 72927.00
1241.424, 72944.00
1242.500, 73027.00
1243.577, 73256.59
1244.653, 73216.66
1245.729, 73576.00
1246.805, 73398.00
1247.880, 73218.00
1248.956, 73591.00
1250.031, 73194.00
1251.106, 73443.00
1252.181, 73536.00
1253.256, 73733.00
1254.331, 73642.00
1255.405, 73642.00
1256.480, 73742.65
1257.554, 73696.00
1258.628, 73721.00
1259.701, 73806.30
1260.775, 73848.00
1261.849, 74003.00
1262.922, 73925.00
1263.995, 74091.00
1265.068, 74440.00
1266.141, 74027.00
1267.213, 74437.00
1268.286, 74373.00
1269.358, 74432.00
1270.430, 74540.00
1271.502, 74758.00
1272.573, 74967.00
1273.645, 74567.00
1274.716, 74945.00
1275.788, 74511.00
1276.859, 74840.00
1277.929, 74901.00
1279.000, 75375.00
1280.071, 74928.00
1281.141, 74990.00
1282.211, 75102.00
1283.281, 74835.00
1284.351, 74922.00
1285.421, 74968.00
1286.490, 75086.20
1287.559, 75435.73
1288.628, 75650.88
1289.697, 75738.87
1290.766, 75318.80
1291.835, 75554.77
1292.903, 75527.79
1293.972, 75490.07
1295.040, 75818.34
1296.108, 75472.13
1297.175, 75794.55
1298.243, 75850.09
1299.310, 76027.76
1300.377, 75940.88
1301.444, 75935.73
1302.511, 76195.18
1303.578, 76308.12
1304.645, 76190.80
1305.711, 76376.19
1306.777, 76389.66
1307.843, 76139.79
1308.909, 76463.73
1309.975, 76359.66
1311.040, 76261.23
1312.105, 76280.00
1313.171, 76358.00
1314.235, 76231.00
1315.300, 76453.00
1316.365, 76737.00
1317.429, 76395.00
1318.494, 76752.00
1319.558, 76624.00
1320.622, 76349.00
1321.685, 76958.00
1322.749, 76233.00
1323.812, 76949.00
1324.876, 76932.00
1325.939, 76620.00
1327.001, 76526.53
1328.064, 76858.28
1329.127, 77055.64
1330.189, 77125.80
1331.251, 76687.93
1332.313, 76906.09
1333.375, 76861.34
1334.437, 76805.80
1335.498, 77116.27
1336.560, 76752.29
1337.621, 77056.95
1338.682, 77094.70
1339.742, 77254.57
1340.803, 77149.95
1341.863, 77127.00
1342.924, 77368.70
1343.984, 77463.85
1345.044, 77328.74
1346.104, 77496.39
1347.163, 77123.09
1348.222, 77224.47
1349.282, 77530.66
1350.341, 77408.83
1351.400, 77581.29
1352.458, 77641.65
1353.517, 77192.66
1354.575, 77629.48
1355.633, 77683.23
1356.691, 77343.60
1357.749, 77750.08
1358.807, 77327.00
1359.864, 77586.00
1360.922, 77578.00
1361.979, 77504.00
1363.036, 77687.00
1364.092, 78137.00
1365.149, 77600.00
1366.205, 77875.00
1367.262, 77621.00
1368.318, 78572.00
1369.374, 78489.00
1370.429, 77952.00
1371.485, 77929.00
1372.540, 77559.00
1373.596, 78209.00
1374.651, 77830.00
1375.705, 77907.00
1376.760, 78339.00
1377.815, 78026.00
1378.869, 78377.00
1379.923, 78370.00
1380.977, 78479.00
1382.031, 78395.00
1383.085, 78552.00
1384.138, 78574.00
1385.191, 78308.00
1386.244, 78739.00
1387.297, 78973.00
1388.350, 78679.00
1389.403, 78995.00
1390.455, 78554.00
1391.507, 78990.00
1392.559, 79299.00
1393.611, 78837.00
1394.663, 79102.00
1395.714, 78672.00
1396.766, 78547.00
1397.817, 78724.00
1398.868, 78899.00
1399.919, 79064.00
1400.969, 79302.00
1402.020, 79013.00
1403.070, 79284.00
1404.120, 78914.00
1405.170, 79360.00
1406.220, 78915.00
1407.270, 78804.00
1408.319, 78971.00
1409.368, 79281.00
1410.417, 79471.00
1411.466, 79131.00
1412.515, 79253.00
1413.563, 79166.63
1414.612, 79512.48
1415.660, 79723.89
1416.708, 79808.14
1417.756, 79384.34
1418.803, 79616.54
1419.851, 79585.86
1420.898, 79544.37
1421.945, 79868.91
1422.992, 79518.96
1424.039, 79837.70
1425.086, 79889.50
1426.132, 80063.44
1427.178, 79972.84
1428.225, 79963.98
1429.270, 80219.67
1430.316, 80328.88
1431.362, 80207.82
1432.407, 80389.48
1433.452, 80030.23
1434.497, 80145.63
1435.542, 80465.84
1436.587, 80358.05
1437.631, 80544.51
1438.676, 80618.93
1439.720, 80183.95
1440.764, 80634.80
1441.807, 80702.52
1442.851, 80376.92
1443.895, 80797.42
1444.938, 80526.02
1445.981, 80501.57
1447.024, 80662.97
1448.066, 80630.59
1449.109, 80903.70
1450.151, 80882.51
1451.194, 80835.06
1452.236, 80902.32
1453.277, 80863.70
1454.319, 80989.71
1455.361, 80922.99
1456.402, 81061.05
1457.443, 81245.52
1458.484, 81074.55
1459.525, 81279.88
1460.565, 80901.60
1461.606, 81011.66
1462.646, 81069.09
1463.686, 81438.65
1464.726, 81063.21
1465.766, 81159.66
1466.805, 81457.01
1467.845, 81473.24
1468.884, 81606.99
1469.923, 81392.75
1470.962, 81505.42
1472.000, 81527.95
1473.039, 81861.87
1474.077, 81949.95
1475.115, 81741.59
1476.153, 81534.48
1477.191, 81890.78
1478.229, 81713.07
1479.266, 81823.41
1480.303, 81636.23
1481.340, 81705.94
1482.377, 81771.58
1483.414, 81968.91
1484.451, 81980.54
1485.487, 82082.87
1486.523, 82099.44
1487.559, 82204.20
1488.595, 82299.15
1489.631, 82373.14
1490.666, 82351.21
1491.701, 82508.60
1492.736, 82283.67
1493.771, 82203.80
1494.806, 82227.04
1495.841, 82736.93
1496.875, 82794.45
1497.909, 82311.30
1498.943, 82799.70
1499.977, 82690.38
1501.011, 82758.69
1502.045, 82762.19
1503.078, 82784.84
1504.111, 82847.59
1505.144, 82663.67
1506.177, 83025.33
1507.209, 82941.20
1508.242, 83159.98
1509.274, 82826.75
1510.306, 82821.16
1511.338, 82902.55
1512.370, 83015.66
1513.402, 82875.31
1514.433, 82883.00
1515.464, 83294.00
1516.495, 82678.00
1517.526, 83221.00
1518.557, 83081.00
1519.587, 83153.38
1520.617, 83231.00
1521.648, 83421.00
1522.678, 83192.00
1523.707, 83240.00
1524.737, 83425.00
1525.766, 83782.00
1526.796, 83532.00
1527.825, 83818.00
1528.854, 83407.77
1529.882, 83750.29
1530.911, 83958.45
1531.939, 84039.41
1532.967, 83612.32
1533.995, 83841.27
1535.023, 83807.30
1536.051, 83762.56
1537.078, 84083.80
1538.106, 83730.61
1539.133, 84046.05
1540.160, 84094.58
1541.186, 84265.23
1542.213, 84171.38
1543.239, 84159.20
1544.266, 84411.67
1545.292, 84517.59
1546.318, 84393.26
1547.343, 84571.64
1548.369, 84209.13
1549.394, 84321.26
1550.419, 84638.18
1551.444, 84527.11
1552.469, 84710.33
1553.494, 84781.46
1554.518, 84343.20
1555.542, 84790.77
1556.566, 84855.25
1557.590, 84526.38
1558.614, 84943.59
1559.638, 84668.95
1560.661, 84641.22
1561.684, 84799.34
1562.707, 84763.72
1563.730, 85033.55
1564.753, 85009.12
1565.775, 84958.37
1566.797, 85022.34
1567.819, 84761.20
1568.841, 85103.23
1569.863, 85033.23
1570.885, 85168.05
1571.906, 85486.00
1572.927, 84884.00
1573.948, 85089.00
1574.969, 85158.00
1575.990, 84888.00
1577.010, 85392.00
##END=



