##NAMES=Celsian
##RRUFFID=R060152
##IDEAL CHEMISTRY=BaAl_2_Si_2_O_8_
##LOCALITY=Benallt mine, Lleyn, Wales
##OWNER=RRUFF
##SOURCE=Marcus Origlieri
##DESCRIPTION=Colorless to white elongated prismatic crystals
##STATUS=The identification of this mineral is confirmed by single-crystal X-ray diffraction and chemical analysis.
##URL=rruff.info/R060152
##MEASURED CHEMISTRY=(Ba_0.98_K_0.02_[box]_0.02_)_Î£=1_Al_2.00_Si_2.00_O_8_
##PIN_ID=M00288
##ORIENTATION=Laser parallel to b* (0 1 0). Fiducial mark perpendicular to laser is parallel to c [0 0 1]
89.46700, 7484.000
90.70600, 7883.000
91.94400, 8319.000
93.18300, 8737.000
94.42100, 9462.000
95.65900, 10156.38
96.89700, 10772.00
98.13500, 11991.00
99.37300, 13250.00
100.6100, 14547.00
101.8480, 16491.00
103.0850, 18496.00
104.3220, 21610.00
105.5590, 23743.00
106.7950, 24286.00
108.0320, 23067.00
109.2680, 21088.00
110.5040, 18684.00
111.7400, 16428.00
112.9760, 14882.00
114.2120, 13904.00
115.4470, 13144.00
116.6820, 12759.00
117.9170, 12258.00
119.1520, 11738.00
120.3870, 10804.00
121.6220, 10066.62
122.8560, 9994.177
124.0900, 9899.974
125.3240, 9785.183
126.5580, 9588.146
127.7920, 9497.312
129.0260, 9363.917
130.2590, 9228.875
131.4920, 9153.088
132.7250, 8968.110
133.9580, 8707.000
135.1910, 8549.000
136.4230, 8288.000
137.6560, 8154.000
138.8880, 7853.000
140.1200, 7685.000
141.3520, 7308.000
142.5830, 7281.000
143.8150, 7208.000
145.0460, 7218.000
146.2770, 7257.000
147.5080, 7266.585
148.7390, 7238.000
149.9700, 7386.000
151.2000, 7468.000
152.4310, 7581.000
153.6610, 7846.000
154.8910, 8198.000
156.1210, 8536.000
157.3500, 9047.000
158.5800, 9709.000
159.8090, 10597.00
161.0380, 11615.00
162.2670, 12834.00
163.4960, 13906.00
164.7240, 15716.00
165.9530, 17602.00
167.1810, 19784.00
168.4090, 21434.00
169.6370, 21480.00
170.8650, 20329.00
172.0920, 18004.00
173.3200, 15513.00
174.5470, 13396.00
175.7740, 11681.00
177.0010, 10365.00
178.2280, 9494.000
179.4540, 8787.000
180.6810, 8284.000
181.9070, 8033.000
183.1330, 7833.000
184.3590, 7494.131
185.5850, 7481.300
186.8100, 7446.765
188.0350, 7391.643
189.2610, 7254.223
190.4860, 7223.059
191.7110, 7149.332
192.9350, 7090.000
194.1600, 7141.000
195.3840, 7086.000
196.6080, 7046.000
197.8320, 7033.000
199.0560, 6974.272
200.2800, 6866.000
201.5030, 6887.000
202.7270, 6901.000
203.9500, 6873.000
205.1730, 6928.000
206.3950, 6935.000
207.6180, 6872.000
208.8410, 6893.000
210.0630, 6851.000
211.2850, 6871.000
212.5070, 7005.000
213.7290, 7065.000
214.9500, 7026.000
216.1720, 7035.000
217.3930, 7035.000
218.6140, 7068.000
219.8350, 7188.000
221.0560, 7214.000
222.2770, 7362.000
223.4970, 7346.000
224.7170, 7336.000
225.9370, 7504.000
227.1570, 7317.000
228.3770, 7589.000
229.5970, 7609.000
230.8160, 7779.000
232.0350, 8000.000
233.2540, 8349.000
234.4730, 8779.000
235.6920, 9333.000
236.9110, 10007.15
238.1290, 10762.00
239.3470, 11710.00
240.5650, 12771.00
241.7830, 13961.00
243.0010, 15388.00
244.2180, 16199.00
245.4360, 17017.00
246.6530, 17573.00
247.8700, 17533.00
249.0870, 17008.00
250.3040, 16086.00
251.5200, 15037.00
252.7370, 14258.00
253.9530, 13507.00
255.1690, 13017.00
256.3850, 12547.00
257.6000, 12118.00
258.8160, 11562.00
260.0310, 11127.00
261.2460, 10486.00
262.4610, 10030.00
263.6760, 9480.000
264.8910, 9097.189
266.1050, 8777.000
267.3200, 8486.000
268.5340, 8219.000
269.7480, 8096.000
270.9620, 7937.000
272.1750, 7698.000
273.3890, 7689.000
274.6020, 7777.000
275.8150, 7521.000
277.0280, 7510.000
278.2410, 7416.000
279.4540, 7431.000
280.6660, 7412.000
281.8790, 7383.000
283.0910, 7416.000
284.3030, 7414.430
285.5140, 7453.000
286.7260, 7476.000
287.9380, 7551.000
289.1490, 7626.000
290.3600, 7716.000
291.5710, 7877.000
292.7820, 8094.000
293.9920, 8335.000
295.2030, 8551.000
296.4130, 8718.000
297.6230, 9111.000
298.8330, 9652.000
300.0430, 9987.000
301.2520, 10663.00
302.4620, 11399.00
303.6710, 12045.00
304.8800, 12777.00
306.0890, 13183.00
307.2980, 13256.00
308.5070, 12872.00
309.7150, 12125.00
310.9230, 11135.00
312.1310, 10316.00
313.3390, 9602.000
314.5470, 9033.216
315.7550, 8623.000
316.9620, 8243.000
318.1690, 7997.000
319.3760, 7816.000
320.5830, 7672.000
321.7900, 7594.000
322.9960, 7538.000
324.2030, 7422.000
325.4090, 7476.000
326.6150, 7399.000
327.8210, 7342.000
329.0270, 7314.000
330.2320, 7294.716
331.4380, 7307.000
332.6430, 7300.000
333.8480, 7317.934
335.0530, 7387.000
336.2580, 7387.000
337.4620, 7456.000
338.6670, 7548.000
339.8710, 7670.000
341.0750, 7717.000
342.2790, 7871.000
343.4820, 8063.000
344.6860, 8458.000
345.8890, 8640.000
347.0920, 9130.000
348.2960, 9529.000
349.4980, 10172.00
350.7010, 10729.00
351.9040, 11630.00
353.1060, 12416.00
354.3080, 13428.00
355.5100, 14314.00
356.7120, 14617.00
357.9140, 14480.00
359.1150, 14112.00
360.3170, 13104.00
361.5180, 12078.00
362.7190, 11020.00
363.9200, 10236.00
365.1200, 9605.129
366.3210, 9072.000
367.5210, 8729.000
368.7210, 8497.000
369.9210, 8286.000
371.1210, 8199.781
372.3210, 8074.002
373.5200, 8103.000
374.7200, 7999.000
375.9190, 7835.000
377.1180, 7893.000
378.3170, 7730.000
379.5150, 7880.000
380.7140, 7924.000
381.9120, 8010.000
383.1110, 8141.000
384.3090, 8297.112
385.5060, 8485.000
386.7040, 8727.000
387.9020, 9034.000
389.0990, 9341.000
390.2960, 9661.000
391.4930, 10098.00
392.6900, 10307.00
393.8860, 10471.00
395.0830, 10148.00
396.2790, 9921.000
397.4750, 9481.000
398.6710, 8990.000
399.8670, 8787.000
401.0630, 8522.000
402.2580, 8416.000
403.4540, 8324.000
404.6490, 8208.514
405.8440, 8098.000
407.0390, 8137.000
408.2330, 8130.000
409.4280, 8196.000
410.6220, 8146.000
411.8160, 8279.000
413.0100, 8283.000
414.2040, 8440.000
415.3980, 8490.000
416.5910, 8567.804
417.7850, 8740.000
418.9780, 8872.000
420.1710, 8876.000
421.3640, 9334.000
422.5560, 9496.000
423.7490, 9820.000
424.9410, 10267.00
426.1330, 10978.00
427.3250, 11152.00
428.5170, 11175.00
429.7090, 11245.00
430.9000, 11116.00
432.0910, 10795.00
433.2820, 10274.00
434.4730, 10125.00
435.6640, 9865.000
436.8550, 9693.000
438.0450, 9660.000
439.2360, 9692.000
440.4260, 9865.000
441.6160, 9886.000
442.8060, 10092.00
443.9950, 10473.00
445.1850, 10713.00
446.3740, 11009.00
447.5630, 11662.00
448.7520, 12446.00
449.9410, 13340.00
451.1300, 14447.00
452.3180, 15857.00
453.5060, 17556.00
454.6950, 19797.00
455.8830, 22140.00
457.0700, 25051.00
458.2580, 28803.00
459.4450, 32521.00
460.6330, 36997.00
461.8200, 40757.00
463.0070, 43270.00
464.1940, 43821.00
465.3800, 41928.00
466.5670, 38659.00
467.7530, 34457.00
468.9390, 30774.00
470.1250, 27452.00
471.3110, 24966.00
472.4970, 23106.00
473.6820, 20865.00
474.8680, 19094.00
476.0530, 17306.00
477.2380, 16080.00
478.4230, 15127.00
479.6070, 14306.00
480.7920, 13854.00
481.9760, 13304.00
483.1600, 13370.00
484.3440, 13195.95
485.5280, 13399.00
486.7120, 13557.00
487.8950, 13911.00
489.0780, 14594.00
490.2620, 15412.00
491.4450, 16625.00
492.6270, 18134.00
493.8100, 19961.00
494.9920, 22826.00
496.1750, 26252.00
497.3570, 30342.00
498.5390, 35964.00
499.7210, 42737.00
500.9020, 51061.00
502.0840, 60526.00
503.2650, 72568.00
504.4460, 85742.00
505.6270, 99390.00
506.8080, 112270.0
507.9890, 120793.0
509.1690, 120389.0
510.3500, 112604.0
511.5300, 98397.00
512.7100, 82282.00
513.8900, 67082.00
515.0690, 54521.00
516.2490, 44786.00
517.4280, 37518.00
518.6070, 32035.00
519.7860, 28105.00
520.9650, 25803.00
522.1440, 23846.00
523.3220, 22760.00
524.5010, 22407.00
525.6790, 22103.00
526.8570, 21794.00
528.0350, 22010.00
529.2130, 21808.00
530.3900, 23054.00
531.5670, 17800.00
532.7450, 16126.00
533.9220, 15023.00
535.0980, 14166.00
536.2750, 13308.00
537.4520, 12773.00
538.6280, 12220.00
539.8040, 11832.00
540.9800, 11620.00
542.1560, 11325.00
543.3320, 11079.00
544.5070, 10955.00
545.6830, 10806.00
546.8580, 10668.00
548.0330, 10548.00
549.2080, 10510.00
550.3830, 10394.00
551.5570, 10245.00
552.7310, 10234.00
553.9060, 10124.00
555.0800, 10148.00
556.2540, 10164.00
557.4270, 9957.000
558.6010, 10041.00
559.7740, 9932.000
560.9470, 9993.000
562.1210, 9777.000
563.2930, 9796.000
564.4660, 9781.000
565.6390, 9663.000
566.8110, 9652.000
567.9830, 9549.000
569.1550, 9703.000
570.3270, 9617.000
571.4990, 9654.000
572.6710, 9592.000
573.8420, 9512.000
575.0130, 9647.000
576.1840, 9602.000
577.3550, 9482.000
578.5260, 9596.000
579.6970, 9642.000
580.8670, 9627.000
582.0370, 9728.000
583.2070, 9663.000
584.3770, 9767.000
585.5470, 9857.000
586.7170, 9774.000
587.8860, 9962.000
589.0550, 10112.00
590.2240, 10115.00
591.3930, 10165.00
592.5620, 10157.00
593.7310, 10247.00
594.8990, 10123.71
596.0670, 9988.000
597.2350, 9873.000
598.4030, 9648.000
599.5710, 9495.000
600.7390, 9512.000
601.9060, 9516.000
603.0740, 9242.000
604.2410, 9205.000
605.4080, 9233.000
606.5740, 9245.000
607.7410, 9313.000
608.9080, 9307.000
610.0740, 9249.000
611.2400, 9368.000
612.4060, 9312.000
613.5720, 9391.000
614.7370, 9351.000
615.9030, 9393.000
617.0680, 9397.000
618.2330, 9406.000
619.3980, 9419.785
620.5630, 9440.000
621.7280, 9409.000
622.8920, 9455.000
624.0570, 9412.000
625.2210, 9356.000
626.3850, 9415.000
627.5490, 9310.000
628.7120, 9354.000
629.8760, 9323.000
631.0390, 9324.000
632.2020, 9342.000
633.3650, 9256.000
634.5280, 9270.758
635.6910, 9356.000
636.8530, 9249.000
638.0160, 9318.000
639.1780, 9347.000
640.3400, 9346.000
641.5020, 9342.000
642.6640, 9389.000
643.8250, 9391.485
644.9870, 9418.793
646.1480, 9436.000
647.3090, 9447.000
648.4700, 9473.000
649.6300, 9439.000
650.7910, 9462.000
651.9510, 9394.000
653.1120, 9552.000
654.2720, 9620.000
655.4320, 9506.000
656.5910, 9437.000
657.7510, 9519.000
658.9100, 9611.000
660.0690, 9636.000
661.2290, 9663.000
662.3880, 9730.000
663.5460, 9677.000
664.7050, 9786.000
665.8630, 9835.000
667.0220, 9861.000
668.1800, 10096.00
669.3380, 10079.00
670.4950, 10443.00
671.6530, 10484.00
672.8100, 10660.00
673.9680, 11136.00
675.1250, 11538.00
676.2820, 11999.00
677.4390, 12391.00
678.5950, 12918.00
679.7520, 13469.00
680.9080, 13786.00
682.0640, 14262.00
683.2200, 14359.00
684.3760, 14255.00
685.5320, 13821.00
686.6870, 13392.00
687.8420, 12732.00
688.9980, 12190.00
690.1530, 11670.00
691.3070, 11236.00
692.4620, 11033.00
693.6170, 10828.00
694.7710, 10603.00
695.9250, 10475.00
697.0790, 10393.00
698.2330, 10249.00
699.3870, 10271.23
700.5400, 10307.00
701.6940, 10350.00
702.8470, 10426.00
704.0000, 10519.00
705.1530, 10735.00
706.3050, 10816.00
707.4580, 11051.00
708.6100, 11358.00
709.7630, 11847.00
710.9150, 12162.00
712.0660, 12505.00
713.2180, 12697.00
714.3700, 12649.00
715.5210, 12784.00
716.6720, 12380.00
717.8240, 12354.00
718.9740, 12093.00
720.1250, 11751.00
721.2760, 11661.00
722.4260, 11517.00
723.5770, 11594.00
724.7270, 11584.00
725.8770, 11525.00
727.0260, 11572.00
728.1760, 11418.00
729.3250, 11158.00
730.4750, 10852.00
731.6240, 10786.00
732.7730, 10569.00
733.9220, 10643.00
735.0700, 10390.00
736.2190, 10273.00
737.3670, 10323.00
738.5150, 10434.00
739.6630, 10338.70
740.8110, 10147.00
741.9590, 10275.00
743.1060, 10245.00
744.2540, 10229.00
745.4010, 10408.00
746.5480, 10438.00
747.6950, 10553.00
748.8410, 10548.00
749.9880, 10659.00
751.1340, 10819.00
752.2800, 10889.00
753.4260, 10688.00
754.5720, 10585.00
755.7180, 10399.00
756.8640, 10238.00
758.0090, 10150.58
759.1540, 10042.69
760.2990, 10006.00
761.4440, 9937.000
762.5890, 9957.000
763.7340, 9966.000
764.8780, 9902.000
766.0220, 9888.000
767.1660, 9853.000
768.3100, 9927.000
769.4540, 9807.000
770.5980, 9934.000
771.7410, 9715.000
772.8840, 9795.000
774.0280, 9873.000
775.1700, 9842.000
776.3130, 9929.000
777.4560, 9879.000
778.5980, 9873.000
779.7410, 9826.000
780.8830, 9816.007
782.0250, 9803.987
783.1670, 9792.000
784.3080, 9832.000
785.4500, 9820.000
786.5910, 9926.000
787.7320, 9972.000
788.8730, 9923.068
790.0140, 9914.670
791.1550, 9848.000
792.2950, 9881.000
793.4360, 9910.000
794.5760, 9873.541
795.7160, 9977.000
796.8560, 9869.000
797.9960, 9976.000
799.1350, 10032.00
800.2750, 9965.000
801.4140, 9941.000
802.5530, 10104.00
803.6920, 10091.00
804.8310, 10171.00
805.9690, 10055.00
807.1080, 10121.00
808.2460, 10127.00
809.3840, 10281.00
810.5220, 10167.00
811.6600, 10173.00
812.7970, 10313.00
813.9350, 10173.00
815.0720, 10165.00
816.2090, 10139.00
817.3460, 10179.00
818.4830, 10162.43
819.6200, 10176.78
820.7560, 10211.00
821.8930, 10188.00
823.0290, 10301.00
824.1650, 10287.00
825.3010, 10266.00
826.4360, 10360.00
827.5720, 10174.00
828.7070, 10327.00
829.8420, 10157.00
830.9770, 10147.00
832.1120, 10246.00
833.2470, 10342.00
834.3820, 10315.00
835.5160, 10198.00
836.6500, 10285.00
837.7840, 10258.00
838.9180, 10283.00
840.0520, 10337.00
841.1860, 10326.00
842.3190, 10284.00
843.4520, 10288.00
844.5850, 10237.00
845.7180, 10313.00
846.8510, 10397.00
847.9840, 10393.00
849.1160, 10448.00
850.2490, 10364.00
851.3810, 10380.00
852.5130, 10393.00
853.6450, 10520.00
854.7760, 10488.00
855.9080, 10532.00
857.0390, 10539.00
858.1700, 10503.00
859.3010, 10511.24
860.4320, 10592.00
861.5630, 10512.00
862.6930, 10480.00
863.8240, 10566.00
864.9540, 10477.00
866.0840, 10675.00
867.2140, 10499.00
868.3440, 10505.00
869.4730, 10580.00
870.6030, 10478.00
871.7320, 10628.00
872.8610, 10534.00
873.9900, 10666.00
875.1190, 10631.00
876.2470, 10613.00
877.3760, 10692.00
878.5040, 10717.00
879.6320, 10749.00
880.7600, 10650.00
881.8880, 10665.00
883.0150, 10513.00
884.1430, 10656.00
885.2700, 10674.00
886.3970, 10811.00
887.5240, 10804.00
888.6510, 10645.00
889.7780, 10729.00
890.9040, 10647.00
892.0310, 10768.00
893.1570, 10781.00
894.2830, 10899.00
895.4090, 10857.00
896.5350, 10926.00
897.6600, 10938.00
898.7860, 10863.00
899.9110, 10874.00
901.0360, 10979.00
902.1610, 10914.00
903.2860, 10908.00
904.4100, 10845.00
905.5350, 10964.00
906.6590, 10973.00
907.7830, 11020.00
908.9070, 11068.00
910.0310, 11097.00
911.1540, 11080.00
912.2780, 11145.29
913.4010, 11086.00
914.5240, 11242.00
915.6470, 11204.00
916.7700, 11253.00
917.8930, 11210.00
919.0150, 11387.00
920.1380, 11332.00
921.2600, 11483.00
922.3820, 11339.00
923.5040, 11461.00
924.6260, 11353.00
925.7470, 11552.00
926.8690, 11515.00
927.9900, 11513.00
929.1110, 11529.00
930.2320, 11567.88
931.3530, 11692.00
932.4730, 11687.00
933.5940, 11720.00
934.7140, 11765.00
935.8340, 11761.00
936.9540, 12021.00
938.0740, 12119.00
939.1930, 12239.00
940.3130, 12185.00
941.4320, 12342.00
942.5510, 12320.00
943.6700, 12353.00
944.7890, 12246.00
945.9080, 12092.00
947.0260, 12156.00
948.1450, 12150.00
949.2630, 11991.00
950.3810, 12032.00
951.4990, 12142.00
952.6170, 11974.00
953.7340, 12040.00
954.8520, 12112.00
955.9690, 12019.00
957.0860, 12105.00
958.2030, 12281.00
959.3200, 12218.00
960.4360, 12250.00
961.5530, 12116.00
962.6690, 12485.00
963.7850, 12582.00
964.9010, 12598.00
966.0170, 12841.00
967.1330, 13151.00
968.2480, 13421.00
969.3630, 13616.00
970.4790, 13881.00
971.5940, 14438.00
972.7080, 15080.00
973.8230, 15488.00
974.9380, 16549.00
976.0520, 17557.00
977.1660, 18716.00
978.2800, 20264.00
979.3940, 22014.00
980.5080, 23728.00
981.6220, 25609.00
982.7350, 26856.00
983.8480, 27789.00
984.9610, 27390.00
986.0740, 26819.00
987.1870, 25231.00
988.3000, 23196.00
989.4120, 21732.00
990.5250, 20257.00
991.6370, 19474.00
992.7490, 18777.00
993.8610, 18335.00
994.9720, 18400.00
996.0840, 18218.00
997.1950, 17731.00
998.3060, 17224.00
999.4170, 17010.00
1000.528, 16653.00
1001.639, 16543.00
1002.750, 16471.00
1003.860, 16444.00
1004.970, 16796.00
1006.080, 16995.00
1007.190, 17522.00
1008.300, 18093.00
1009.410, 18773.00
1010.519, 19363.00
1011.628, 20004.00
1012.738, 20702.00
1013.846, 20794.00
1014.955, 20778.00
1016.064, 20291.00
1017.172, 19738.00
1018.281, 18873.00
1019.389, 18230.00
1020.497, 17252.00
1021.605, 16320.00
1022.713, 16240.00
1023.820, 15532.00
1024.928, 15132.00
1026.035, 14956.00
1027.142, 14905.00
1028.249, 14881.00
1029.356, 14792.00
1030.462, 14778.00
1031.569, 14771.00
1032.675, 14655.00
1033.781, 14654.00
1034.887, 14607.00
1035.993, 14304.00
1037.098, 14130.00
1038.204, 14077.00
1039.309, 13983.00
1040.415, 13958.00
1041.520, 13944.00
1042.624, 14081.00
1043.729, 14149.00
1044.834, 14491.00
1045.938, 14874.00
1047.042, 15304.00
1048.146, 15915.00
1049.250, 16551.00
1050.354, 17138.00
1051.458, 17878.00
1052.561, 18448.00
1053.664, 18908.00
1054.767, 19089.00
1055.870, 18791.00
1056.973, 18580.00
1058.076, 18108.00
1059.178, 17528.00
1060.281, 17074.00
1061.383, 16426.00
1062.485, 15960.00
1063.587, 15292.00
1064.688, 14925.00
1065.790, 14495.00
1066.891, 14191.00
1067.993, 13991.00
1069.094, 13694.00
1070.195, 13520.00
1071.295, 13557.00
1072.396, 13247.00
1073.496, 13176.00
1074.597, 13163.00
1075.697, 12928.00
1076.797, 12887.00
1077.897, 12926.00
1078.996, 12764.00
1080.096, 12847.00
1081.195, 12756.00
1082.294, 12802.00
1083.393, 12786.00
1084.492, 12744.00
1085.591, 12603.00
1086.689, 12882.00
1087.788, 12817.32
1088.886, 12762.80
1089.984, 12893.00
1091.082, 12638.00
1092.180, 12522.00
1093.277, 12549.00
1094.375, 12630.00
1095.472, 12535.00
1096.569, 12599.00
1097.666, 12454.00
1098.763, 12548.00
1099.860, 12489.00
1100.956, 12520.00
1102.053, 12474.87
1103.149, 12617.00
1104.245, 12456.00
1105.341, 12363.00
1106.436, 12572.00
1107.532, 12381.00
1108.627, 12391.00
1109.723, 12315.00
1110.818, 12425.00
1111.913, 12519.00
1113.007, 12363.00
1114.102, 12371.00
1115.197, 12398.00
1116.291, 12283.00
1117.385, 12367.00
1118.479, 12353.00
1119.573, 12365.00
1120.666, 12373.00
1121.760, 12368.00
1122.853, 12331.00
1123.947, 12327.84
1125.040, 12352.00
1126.132, 12268.00
1127.225, 12394.00
1128.318, 12330.00
1129.410, 12421.00
1130.502, 12311.00
1131.595, 12354.00
1132.687, 12358.00
1133.778, 12452.00
1134.870, 12270.00
1135.961, 12185.00
1137.053, 12304.00
1138.144, 12598.00
1139.235, 12439.00
1140.326, 12466.00
1141.416, 12377.00
1142.507, 12379.00
1143.597, 12319.00
1144.688, 12405.00
1145.778, 12309.00
1146.868, 12439.00
1147.957, 12275.00
1149.047, 12370.00
1150.136, 12481.00
1151.226, 12380.00
1152.315, 12296.00
1153.404, 12464.00
1154.493, 12360.00
1155.581, 12333.00
1156.670, 12322.00
1157.758, 12447.00
1158.846, 12389.00
1159.934, 12464.00
1161.022, 12486.00
1162.110, 12337.00
1163.198, 12483.00
1164.285, 12393.00
1165.372, 12445.00
1166.459, 12512.00
1167.546, 12467.00
1168.633, 12397.00
1169.720, 12642.00
1170.806, 12537.00
1171.892, 12510.00
1172.979, 12620.00
1174.065, 12404.00
1175.150, 12584.00
1176.236, 12562.00
1177.322, 12537.00
1178.407, 12648.00
1179.492, 12525.00
1180.577, 12510.00
1181.662, 12496.00
1182.747, 12570.00
1183.832, 12458.00
1184.916, 12562.00
1186.000, 12533.00
1187.084, 12571.00
1188.168, 12626.00
1189.252, 12595.00
1190.336, 12685.00
1191.419, 12423.00
1192.503, 12675.00
1193.586, 12531.00
1194.669, 12661.00
1195.752, 12732.00
1196.835, 12486.00
1197.917, 12534.00
1199.000, 12767.00
1200.082, 12581.00
1201.164, 12507.00
1202.246, 12569.00
1203.328, 12614.00
1204.409, 12548.00
1205.491, 12700.00
1206.572, 12682.00
1207.653, 12650.00
1208.734, 12671.00
1209.815, 12721.00
1210.896, 12717.00
1211.976, 12639.00
1213.057, 12690.00
1214.137, 12683.00
1215.217, 12713.00
1216.297, 12779.00
1217.377, 12683.00
1218.456, 12825.00
1219.536, 12565.00
1220.615, 12669.00
1221.694, 12815.00
1222.773, 12723.00
1223.852, 12835.00
1224.931, 12831.00
1226.009, 12768.00
1227.088, 12825.00
1228.166, 12808.00
1229.244, 12774.00
1230.322, 12933.00
1231.400, 12770.00
1232.477, 12914.00
1233.555, 12743.00
1234.632, 12807.00
1235.709, 12765.00
1236.786, 12911.00
1237.863, 12889.00
1238.939, 12880.00
1240.016, 12897.00
1241.092, 12902.00
1242.168, 12859.00
1243.245, 12842.00
1244.320, 13030.00
1245.396, 12938.00
1246.472, 12877.00
1247.547, 12934.00
1248.622, 12813.00
1249.697, 12963.00
1250.772, 13029.00
1251.847, 12978.00
1252.922, 12997.00
1253.996, 12937.00
1255.071, 12959.00
1256.145, 12941.00
1257.219, 13042.00
1258.293, 12902.00
1259.366, 12926.00
1260.440, 13012.00
1261.513, 13095.00
1262.587, 13058.00
1263.660, 13094.00
1264.733, 12994.00
1265.805, 13070.00
1266.878, 13068.00
1267.951, 13054.00
1269.023, 13234.00
1270.095, 13063.00
1271.167, 13130.00
1272.239, 13061.00
1273.311, 13214.00
1274.382, 13142.00
1275.454, 13158.00
1276.525, 13241.00
1277.596, 13233.69
1278.667, 13233.00
1279.738, 13310.00
1280.808, 13192.00
1281.879, 13192.00
1282.949, 13162.00
1284.019, 13210.00
1285.089, 13210.99
1286.159, 13158.00
1287.229, 13270.61
1288.298, 13299.00
1289.368, 13355.00
1290.437, 13256.00
1291.506, 13308.00
1292.575, 13159.00
1293.644, 13241.00
1294.712, 13253.00
1295.781, 13168.00
1296.849, 13266.00
1297.917, 13301.00
1298.985, 13210.00
1300.053, 13307.00
1301.121, 13457.00
1302.188, 13369.00
1303.255, 13371.00
1304.323, 13319.00
1305.390, 13276.00
1306.457, 13453.00
1307.523, 13337.00
1308.590, 13400.00
1309.656, 13370.00
1310.723, 13381.00
1311.789, 13452.00
1312.855, 13410.00
1313.921, 13420.00
1314.986, 13392.00
1316.052, 13425.00
1317.117, 13377.00
1318.182, 13356.00
1319.248, 13311.00
1320.312, 13359.00
1321.377, 13532.00
1322.442, 13513.00
1323.506, 13523.00
1324.571, 13560.32
1325.635, 13527.00
1326.699, 13535.00
1327.762, 13504.00
1328.826, 13473.00
1329.890, 13532.00
1330.953, 13502.00
1332.016, 13452.00
1333.079, 13588.00
1334.142, 13459.00
1335.205, 13690.00
1336.268, 13460.00
1337.330, 13610.00
1338.392, 13432.00
1339.454, 13613.00
1340.516, 13450.00
1341.578, 13559.00
1342.640, 13600.00
1343.701, 13566.00
1344.763, 13502.00
1345.824, 13575.00
1346.885, 13704.00
1347.946, 13582.17
1349.007, 13650.00
1350.067, 13452.00
1351.128, 13618.00
1352.188, 13638.00
1353.248, 13689.00
1354.308, 13672.00
1355.368, 13618.00
1356.428, 13683.00
1357.487, 13741.00
1358.547, 13599.00
1359.606, 13661.00
1360.665, 13756.00
1361.724, 13619.00
1362.783, 13670.00
1363.841, 13776.00
1364.900, 13687.00
1365.958, 13744.00
1367.016, 13708.00
1368.074, 13787.00
1369.132, 13830.00
1370.190, 13662.00
1371.247, 13739.00
1372.304, 13801.00
1373.362, 13834.00
1374.419, 13693.00
1375.476, 13818.00
1376.532, 13763.00
1377.589, 13855.41
1378.645, 13849.00
1379.702, 14048.00
1380.758, 13802.00
1381.814, 13808.00
1382.870, 13949.00
1383.925, 13953.00
1384.981, 13794.00
1386.036, 13858.00
1387.092, 13810.00
1388.147, 13890.00
1389.202, 13925.00
1390.256, 13968.00
1391.311, 13993.58
1392.365, 14008.65
1393.420, 14009.00
1394.474, 14016.58
1395.528, 14004.00
1396.582, 13990.00
1397.636, 13982.00
1398.689, 13956.00
1399.742, 14021.00
1400.796, 14095.00
1401.849, 13940.00
1402.902, 14098.00
1403.955, 14066.00
1405.007, 13988.00
1406.060, 14062.00
1407.112, 13971.00
1408.164, 13929.00
1409.216, 13922.00
1410.268, 14062.00
1411.320, 14116.00
1412.371, 14186.00
1413.423, 14132.00
1414.474, 14029.00
1415.525, 14015.00
1416.576, 14045.00
1417.627, 14110.00
1418.678, 14081.00
1419.728, 14144.00
1420.778, 14082.00
1421.829, 14119.00
1422.879, 14118.00
1423.928, 14049.00
1424.978, 14082.00
1426.028, 14142.00
1427.077, 14148.00
1428.126, 14203.00
1429.176, 14231.00
1430.225, 14302.00
1431.273, 14278.00
1432.322, 14259.00
1433.371, 14211.00
1434.419, 14050.00
1435.467, 14240.00
1436.515, 14312.00
1437.563, 14533.00
1438.611, 14343.00
1439.658, 14450.00
1440.706, 14501.00
1441.753, 14525.00
1442.800, 14581.97
1443.847, 14517.00
1444.894, 14632.00
1445.941, 14618.00
1446.987, 14622.00
1448.034, 14473.00
1449.080, 14529.00
1450.126, 14481.00
1451.172, 14633.00
1452.218, 14699.00
1453.263, 14764.00
1454.309, 14588.00
1455.354, 14645.00
1456.399, 14551.00
1457.444, 14680.00
1458.489, 14501.00
1459.534, 14692.00
1460.579, 14361.00
1461.623, 14675.00
1462.667, 14580.00
1463.711, 14470.00
1464.755, 14513.00
1465.799, 14513.00
1466.843, 14392.00
1467.886, 14490.00
1468.930, 14593.00
1469.973, 14621.00
1471.016, 14540.00
1472.059, 14539.00
1473.101, 14446.00
1474.144, 14579.00
1475.186, 14563.00
1476.229, 14485.00
1477.271, 14444.00
1478.313, 14487.00
1479.355, 14571.00
1480.396, 14632.00
1481.438, 14583.00
1482.479, 14734.00
1483.520, 14705.00
1484.561, 14681.00
1485.602, 14549.00
1486.643, 14542.00
1487.684, 14557.00
1488.724, 14528.00
1489.765, 14594.00
1490.805, 14543.89
1491.845, 14625.00
1492.885, 14492.00
1493.924, 14528.00
1494.964, 14535.00
1496.003, 14649.00
1497.042, 14580.00
1498.082, 14598.00
1499.120, 14615.00
1500.159, 14579.00
1501.198, 14501.00
1502.236, 14532.00
1503.275, 14518.00
1504.313, 14563.00
1505.351, 14691.00
1506.389, 14591.00
1507.427, 14683.00
1508.464, 14483.00
1509.502, 14578.00
1510.539, 14558.00
1511.576, 14820.00
1512.613, 14758.00
1513.650, 14625.00
1514.687, 14776.00
1515.723, 14598.00
1516.759, 14736.00
1517.796, 14768.00
1518.832, 14588.00
1519.868, 14703.00
1520.903, 14653.00
1521.939, 14661.00
1522.975, 14730.00
1524.010, 14714.00
1525.045, 14674.00
1526.080, 14627.00
1527.115, 14758.00
1528.150, 14774.00
1529.184, 14711.00
1530.219, 14828.00
1531.253, 14722.00
1532.287, 14631.00
1533.321, 14783.00
1534.355, 14767.00
1535.388, 14829.00
1536.422, 14709.00
1537.455, 14751.00
1538.488, 14838.00
1539.522, 14952.00
1540.554, 14923.00
1541.587, 15028.00
1542.620, 14712.00
1543.652, 14850.00
1544.685, 14732.00
1545.717, 14825.00
1546.749, 14878.00
1547.781, 14855.00
1548.812, 15023.00
1549.844, 14876.00
1550.875, 14956.00
1551.906, 15030.00
1552.938, 14932.00
1553.968, 15073.00
1554.999, 15005.00
1556.030, 15054.00
1557.060, 14959.00
1558.091, 14944.00
1559.121, 14920.00
1560.151, 14921.00
1561.181, 14929.00
1562.211, 14956.00
1563.240, 14960.00
1564.270, 14959.00
1565.299, 15063.00
1566.328, 15065.00
1567.357, 15137.00
1568.386, 15115.00
1569.415, 15075.00
1570.443, 15180.00
1571.472, 15038.00
1572.500, 15142.00
1573.528, 15153.00
1574.556, 15108.00
1575.584, 15254.00
1576.611, 15114.00
##END=



