##NAMES=Celsian
##RRUFFID=R060152
##IDEAL CHEMISTRY=BaAl_2_Si_2_O_8_
##LOCALITY=Benallt mine, Lleyn, Wales
##OWNER=RRUFF
##SOURCE=Marcus Origlieri
##DESCRIPTION=Colorless to white elongated prismatic crystals
##STATUS=The identification of this mineral is confirmed by single-crystal X-ray diffraction and chemical analysis.
##URL=rruff.info/R060152
##MEASURED CHEMISTRY=(Ba_0.98_K_0.02_[box]_0.02_)_Î£=1_Al_2.00_Si_2.00_O_8_
##PIN_ID=M00168
##ORIENTATION=Laser parallel to a* (1 0 0). Fiducial mark perpendicular to laser is parallel to b [0 1 0]
62.16800, 6099.000
63.41100, 6802.000
64.65300, 7803.000
65.89600, 9089.000
67.13800, 10771.00
68.38000, 12868.00
69.62200, 14842.00
70.86300, 16732.00
72.10500, 18451.00
73.34600, 19442.00
74.58700, 20608.00
75.82800, 22168.00
77.06900, 23932.00
78.30900, 26579.00
79.55000, 29207.00
80.79000, 29789.00
82.03000, 29251.00
83.27000, 28464.00
84.51000, 28283.00
85.74900, 28273.00
86.98900, 28945.00
88.22800, 29564.00
89.46700, 30500.00
90.70600, 31760.00
91.94400, 33107.00
93.18300, 34236.00
94.42100, 36038.00
95.65900, 37772.00
96.89700, 40402.00
98.13500, 43999.00
99.37300, 48788.00
100.6100, 51299.00
101.8480, 51538.00
103.0850, 51841.00
104.3220, 54658.00
105.5590, 59892.00
106.7950, 67317.00
108.0320, 75918.00
109.2680, 83207.00
110.5040, 85039.00
111.7400, 79594.00
112.9760, 70863.00
114.2120, 63505.00
115.4470, 57711.00
116.6820, 52291.00
117.9170, 48916.00
119.1520, 46609.00
120.3870, 44821.00
121.6220, 44075.00
122.8560, 43073.00
124.0900, 43486.00
125.3240, 43914.00
126.5580, 45466.00
127.7920, 47337.00
129.0260, 49612.00
130.2590, 51400.00
131.4920, 52269.00
132.7250, 53797.00
133.9580, 55971.00
135.1910, 58549.00
136.4230, 59460.00
137.6560, 57650.00
138.8880, 54009.00
140.1200, 50728.00
141.3520, 46931.00
142.5830, 44757.00
143.8150, 42848.00
145.0460, 41687.00
146.2770, 41272.00
147.5080, 40817.00
148.7390, 40468.00
149.9700, 40316.00
151.2000, 40104.00
152.4310, 39840.00
153.6610, 39766.00
154.8910, 39685.00
156.1210, 39597.00
157.3500, 39480.00
158.5800, 39979.00
159.8090, 40414.00
161.0380, 40676.00
162.2670, 41379.00
163.4960, 42091.00
164.7240, 42698.00
165.9530, 43906.00
167.1810, 44788.00
168.4090, 45895.00
169.6370, 47081.00
170.8650, 47336.00
172.0920, 47067.00
173.3200, 45817.00
174.5470, 44641.00
175.7740, 43397.00
177.0010, 42714.00
178.2280, 41861.00
179.4540, 41297.00
180.6810, 40982.00
181.9070, 40662.00
183.1330, 40352.00
184.3590, 40420.00
185.5850, 40006.00
186.8100, 40279.00
188.0350, 40254.00
189.2610, 40028.00
190.4860, 40994.00
191.7110, 40947.00
192.9350, 41303.00
194.1600, 41651.00
195.3840, 42096.00
196.6080, 43110.00
197.8320, 43533.00
199.0560, 43529.00
200.2800, 42983.00
201.5030, 42503.00
202.7270, 41729.00
203.9500, 41443.00
205.1730, 40868.00
206.3950, 40618.00
207.6180, 40305.00
208.8410, 40328.00
210.0630, 40492.00
211.2850, 40604.00
212.5070, 40577.00
213.7290, 40523.00
214.9500, 40568.00
216.1720, 40828.00
217.3930, 40763.00
218.6140, 41261.00
219.8350, 41262.00
221.0560, 41573.00
222.2770, 41942.00
223.4970, 42562.00
224.7170, 42539.00
225.9370, 42108.00
227.1570, 41845.00
228.3770, 41459.00
229.5970, 41726.00
230.8160, 41338.00
232.0350, 41766.00
233.2540, 41976.00
234.4730, 42111.00
235.6920, 42388.00
236.9110, 42996.00
238.1290, 43744.00
239.3470, 44548.00
240.5650, 45722.00
241.7830, 47127.00
243.0010, 49369.00
244.2180, 50968.00
245.4360, 53365.00
246.6530, 55641.00
247.8700, 57023.00
249.0870, 57259.00
250.3040, 56164.00
251.5200, 54001.00
252.7370, 52684.00
253.9530, 51097.00
255.1690, 50154.00
256.3850, 50386.00
257.6000, 50400.00
258.8160, 49639.00
260.0310, 48868.00
261.2460, 47585.00
262.4610, 46460.00
263.6760, 45773.00
264.8910, 45111.00
266.1050, 44638.00
267.3200, 44137.48
268.5340, 43777.45
269.7480, 43464.00
270.9620, 43254.00
272.1750, 43212.00
273.3890, 43105.00
274.6020, 42805.00
275.8150, 43149.00
277.0280, 43073.00
278.2410, 43124.00
279.4540, 42804.00
280.6660, 42970.00
281.8790, 42887.00
283.0910, 42764.00
284.3030, 42548.00
285.5140, 42734.00
286.7260, 42801.00
287.9380, 42728.00
289.1490, 42992.00
290.3600, 42713.00
291.5710, 42954.00
292.7820, 42905.00
293.9920, 42972.00
295.2030, 43051.00
296.4130, 43501.00
297.6230, 43502.00
298.8330, 44071.00
300.0430, 44064.00
301.2520, 44348.00
302.4620, 45066.00
303.6710, 45451.00
304.8800, 46398.00
306.0890, 46926.00
307.2980, 47832.00
308.5070, 48034.00
309.7150, 47783.00
310.9230, 46691.00
312.1310, 45996.00
313.3390, 45298.00
314.5470, 44752.00
315.7550, 44697.00
316.9620, 44661.00
318.1690, 44048.00
319.3760, 44271.00
320.5830, 44344.00
321.7900, 44207.00
322.9960, 44262.88
324.2030, 44074.00
325.4090, 44108.00
326.6150, 43978.00
327.8210, 43881.00
329.0270, 43932.00
330.2320, 44022.00
331.4380, 44046.00
332.6430, 43884.00
333.8480, 43748.00
335.0530, 44190.00
336.2580, 43948.00
337.4620, 44197.00
338.6670, 44274.00
339.8710, 44394.00
341.0750, 44595.00
342.2790, 44343.00
343.4820, 44509.00
344.6860, 44679.00
345.8890, 44801.00
347.0920, 45012.00
348.2960, 45254.00
349.4980, 45549.00
350.7010, 45943.00
351.9040, 46438.00
353.1060, 47262.00
354.3080, 47842.00
355.5100, 48554.00
356.7120, 49595.00
357.9140, 50103.00
359.1150, 50469.00
360.3170, 50106.00
361.5180, 49864.00
362.7190, 49104.00
363.9200, 48143.00
365.1200, 47591.00
366.3210, 46696.00
367.5210, 46325.00
368.7210, 45879.00
369.9210, 45478.00
371.1210, 45646.00
372.3210, 45531.00
373.5200, 45772.00
374.7200, 45824.00
375.9190, 45717.00
377.1180, 45600.00
378.3170, 45712.00
379.5150, 45780.00
380.7140, 45974.00
381.9120, 46164.00
383.1110, 46274.00
384.3090, 46393.00
385.5060, 46458.00
386.7040, 46538.00
387.9020, 46676.00
389.0990, 47153.00
390.2960, 47704.00
391.4930, 48936.00
392.6900, 49920.00
393.8860, 50865.00
395.0830, 50638.00
396.2790, 50475.00
397.4750, 49306.00
398.6710, 48075.00
399.8670, 47563.00
401.0630, 47552.00
402.2580, 47253.00
403.4540, 46704.00
404.6490, 46993.00
405.8440, 46811.00
407.0390, 47126.00
408.2330, 46856.00
409.4280, 47453.00
410.6220, 47176.00
411.8160, 47309.00
413.0100, 47522.00
414.2040, 47225.00
415.3980, 47557.00
416.5910, 47598.00
417.7850, 47676.00
418.9780, 47823.00
420.1710, 47950.00
421.3640, 48456.00
422.5560, 49073.00
423.7490, 49103.00
424.9410, 50153.00
426.1330, 50901.00
427.3250, 52221.00
428.5170, 53076.00
429.7090, 53662.00
430.9000, 53542.00
432.0910, 52960.00
433.2820, 52028.00
434.4730, 50965.00
435.6640, 50261.00
436.8550, 49680.00
438.0450, 49546.00
439.2360, 49244.00
440.4260, 48928.00
441.6160, 49215.00
442.8060, 48972.00
443.9950, 48867.00
445.1850, 49189.00
446.3740, 49305.00
447.5630, 49256.00
448.7520, 49742.00
449.9410, 49990.00
451.1300, 50318.00
452.3180, 50667.00
453.5060, 51289.00
454.6950, 51871.00
455.8830, 52991.00
457.0700, 53948.00
458.2580, 55291.00
459.4450, 57224.00
460.6330, 58921.00
461.8200, 61591.00
463.0070, 64174.00
464.1940, 65979.00
465.3800, 66227.00
466.5670, 65149.00
467.7530, 63772.00
468.9390, 62262.00
470.1250, 61229.00
471.3110, 60879.00
472.4970, 60562.00
473.6820, 60090.00
474.8680, 58999.00
476.0530, 57538.00
477.2380, 56029.00
478.4230, 54950.00
479.6070, 54184.00
480.7920, 53554.85
481.9760, 53546.00
483.1600, 53227.00
484.3440, 52859.00
485.5280, 53329.00
486.7120, 53147.00
487.8950, 53421.00
489.0780, 53848.00
490.2620, 54093.00
491.4450, 55053.00
492.6270, 55807.00
493.8100, 56909.00
494.9920, 58498.00
496.1750, 60224.00
497.3570, 62398.00
498.5390, 65267.00
499.7210, 69136.00
500.9020, 74436.00
502.0840, 80263.00
503.2650, 89097.00
504.4460, 100003.0
505.6270, 113654.0
506.8080, 130450.0
507.9890, 146405.0
509.1690, 156907.0
510.3500, 156274.0
511.5300, 144239.0
512.7100, 126557.0
513.8900, 109478.0
515.0690, 94492.00
516.2490, 83226.00
517.4280, 75653.00
518.6070, 70442.00
519.7860, 66388.00
520.9650, 63443.00
522.1440, 61505.00
523.3220, 60360.00
524.5010, 59610.00
525.6790, 59140.00
526.8570, 58755.00
528.0350, 59197.00
529.2130, 58380.00
530.3900, 57829.00
531.5670, 56973.00
532.7450, 55986.00
533.9220, 55715.00
535.0980, 54858.00
536.2750, 54558.00
537.4520, 54281.00
538.6280, 53898.00
539.8040, 53653.00
540.9800, 53544.00
542.1560, 53423.00
543.3320, 53338.00
544.5070, 53370.16
545.6830, 53376.61
546.8580, 53502.00
548.0330, 53700.00
549.2080, 53799.00
550.3830, 54341.00
551.5570, 54492.00
552.7310, 55099.00
553.9060, 55288.00
555.0800, 55656.00
556.2540, 55548.00
557.4270, 56085.00
558.6010, 55821.00
559.7740, 54392.00
560.9470, 54168.00
562.1210, 54050.00
563.2930, 53745.00
564.4660, 53449.00
565.6390, 53193.00
566.8110, 53150.46
567.9830, 52866.00
569.1550, 53265.00
570.3270, 53261.00
571.4990, 53531.00
572.6710, 53392.00
573.8420, 53419.00
575.0130, 53397.00
576.1840, 53431.00
577.3550, 53542.00
578.5260, 53606.00
579.6970, 53850.00
580.8670, 53772.92
582.0370, 53962.00
583.2070, 53757.00
584.3770, 54042.00
585.5470, 54216.00
586.7170, 54492.00
587.8860, 54937.00
589.0550, 55433.00
590.2240, 55935.00
591.3930, 56775.00
592.5620, 57057.00
593.7310, 57705.00
594.8990, 58277.00
596.0670, 57837.00
597.2350, 57577.00
598.4030, 57207.00
599.5710, 56450.00
600.7390, 55978.00
601.9060, 55602.00
603.0740, 55214.00
604.2410, 55156.00
605.4080, 54850.00
606.5740, 54940.00
607.7410, 55213.00
608.9080, 55233.00
610.0740, 55990.00
611.2400, 55586.00
612.4060, 55744.00
613.5720, 55984.00
614.7370, 56707.00
615.9030, 56559.00
617.0680, 57082.00
618.2330, 57163.00
619.3980, 57484.00
620.5630, 56915.00
621.7280, 56300.00
622.8920, 55980.00
624.0570, 56030.00
625.2210, 55668.00
626.3850, 55951.00
627.5490, 55906.00
628.7120, 54860.00
629.8760, 55158.00
631.0390, 54863.00
632.2020, 55143.00
633.3650, 54967.00
634.5280, 55146.00
635.6910, 55050.00
636.8530, 55146.00
638.0160, 55214.00
639.1780, 54990.00
640.3400, 55225.00
641.5020, 54948.00
642.6640, 55162.00
643.8250, 55131.00
644.9870, 55534.00
646.1480, 55806.00
647.3090, 55321.00
648.4700, 55589.00
649.6300, 55723.00
650.7910, 55557.00
651.9510, 55435.00
653.1120, 55558.00
654.2720, 55636.00
655.4320, 55716.00
656.5910, 55351.00
657.7510, 55649.00
658.9100, 56130.00
660.0690, 55728.00
661.2290, 55852.00
662.3880, 55714.00
663.5460, 55678.00
664.7050, 55916.00
665.8630, 56214.00
667.0220, 56159.00
668.1800, 56361.00
669.3380, 56475.00
670.4950, 56226.00
671.6530, 56769.00
672.8100, 56780.00
673.9680, 56997.00
675.1250, 57412.00
676.2820, 57826.00
677.4390, 57800.00
678.5950, 58358.00
679.7520, 58840.00
680.9080, 59734.00
682.0640, 60251.00
683.2200, 60768.00
684.3760, 60868.00
685.5320, 60737.00
686.6870, 60247.00
687.8420, 59430.00
688.9980, 59581.00
690.1530, 58644.00
691.3070, 58272.00
692.4620, 57893.00
693.6170, 57921.00
694.7710, 57757.00
695.9250, 57795.00
697.0790, 57741.00
698.2330, 57515.00
699.3870, 57660.00
700.5400, 57579.00
701.6940, 57677.00
702.8470, 57468.00
704.0000, 57686.00
705.1530, 57932.00
706.3050, 57840.00
707.4580, 57721.00
708.6100, 58267.00
709.7630, 58339.00
710.9150, 59067.00
712.0660, 59529.00
713.2180, 59556.00
714.3700, 59646.00
715.5210, 59703.00
716.6720, 59739.00
717.8240, 59921.00
718.9740, 59830.00
720.1250, 59456.00
721.2760, 59584.00
722.4260, 59757.00
723.5770, 59779.00
724.7270, 60003.00
725.8770, 59920.00
727.0260, 60389.00
728.1760, 60170.00
729.3250, 60244.00
730.4750, 59688.00
731.6240, 59618.00
732.7730, 59286.00
733.9220, 59230.70
735.0700, 59639.00
736.2190, 59350.00
737.3670, 59441.00
738.5150, 59713.00
739.6630, 59584.00
740.8110, 59638.00
741.9590, 60064.00
743.1060, 60318.00
744.2540, 60519.00
745.4010, 60863.00
746.5480, 61163.00
747.6950, 62077.00
748.8410, 62718.00
749.9880, 63725.00
751.1340, 64377.00
752.2800, 64732.00
753.4260, 64842.00
754.5720, 64223.00
755.7180, 63550.00
756.8640, 62877.00
758.0090, 62446.00
759.1540, 61961.00
760.2990, 61383.00
761.4440, 60977.00
762.5890, 60947.00
763.7340, 60851.00
764.8780, 60882.00
766.0220, 60687.00
767.1660, 60053.00
768.3100, 60053.00
769.4540, 60067.00
770.5980, 60290.00
771.7410, 60413.00
772.8840, 59890.00
774.0280, 60140.00
775.1700, 60271.00
776.3130, 60299.00
777.4560, 60625.00
778.5980, 60481.00
779.7410, 60661.00
780.8830, 60374.00
782.0250, 60576.00
783.1670, 60529.00
784.3080, 60710.00
785.4500, 60978.00
786.5910, 60508.00
787.7320, 60744.00
788.8730, 60732.00
790.0140, 60998.00
791.1550, 60680.00
792.2950, 60730.00
793.4360, 60535.00
794.5760, 60874.00
795.7160, 61026.00
796.8560, 60972.00
797.9960, 61091.00
799.1350, 61125.00
800.2750, 61123.00
801.4140, 61265.00
802.5530, 61180.00
803.6920, 61305.00
804.8310, 60925.00
805.9690, 61392.00
807.1080, 61371.00
808.2460, 61506.00
809.3840, 61135.00
810.5220, 61421.00
811.6600, 61433.00
812.7970, 61800.00
813.9350, 61759.55
815.0720, 61622.00
816.2090, 61798.00
817.3460, 61689.00
818.4830, 61812.00
819.6200, 61979.00
820.7560, 62020.00
821.8930, 62016.00
823.0290, 61886.00
824.1650, 62139.00
825.3010, 62498.00
826.4360, 62226.00
827.5720, 62507.00
828.7070, 62261.00
829.8420, 62451.00
830.9770, 62259.00
832.1120, 62441.00
833.2470, 62544.00
834.3820, 62731.00
835.5160, 62679.00
836.6500, 62584.00
837.7840, 63025.00
838.9180, 62705.00
840.0520, 62962.00
841.1860, 62913.00
842.3190, 63040.00
843.4520, 63276.00
844.5850, 63065.00
845.7180, 62924.00
846.8510, 63049.62
847.9840, 63346.00
849.1160, 63113.00
850.2490, 63324.00
851.3810, 63312.00
852.5130, 63615.00
853.6450, 63607.00
854.7760, 63598.00
855.9080, 64076.00
857.0390, 63801.00
858.1700, 63807.00
859.3010, 63831.00
860.4320, 64003.00
861.5630, 64149.00
862.6930, 64012.00
863.8240, 63995.00
864.9540, 64158.00
866.0840, 64050.00
867.2140, 64242.00
868.3440, 64315.00
869.4730, 64191.00
870.6030, 64109.00
871.7320, 64532.00
872.8610, 63876.00
873.9900, 64639.00
875.1190, 64100.00
876.2470, 64719.00
877.3760, 64572.00
878.5040, 64149.00
879.6320, 64401.00
880.7600, 64799.00
881.8880, 64219.00
883.0150, 64966.00
884.1430, 64879.00
885.2700, 64792.00
886.3970, 64911.00
887.5240, 64698.00
888.6510, 64856.00
889.7780, 65000.00
890.9040, 64968.00
892.0310, 65175.00
893.1570, 65186.82
894.2830, 65178.00
895.4090, 65320.00
896.5350, 65358.00
897.6600, 65507.00
898.7860, 65305.00
899.9110, 65590.00
901.0360, 65517.00
902.1610, 65683.00
903.2860, 65650.00
904.4100, 65668.00
905.5350, 65730.00
906.6590, 66198.00
907.7830, 65945.00
908.9070, 66172.00
910.0310, 66402.00
911.1540, 66221.00
912.2780, 66334.00
913.4010, 66230.00
914.5240, 66491.00
915.6470, 66591.00
916.7700, 66515.00
917.8930, 66870.00
919.0150, 67026.00
920.1380, 66725.00
921.2600, 66886.00
922.3820, 67061.00
923.5040, 67288.00
924.6260, 66875.00
925.7470, 67051.00
926.8690, 67118.00
927.9900, 67211.00
929.1110, 67369.00
930.2320, 67525.00
931.3530, 67238.00
932.4730, 67589.00
933.5940, 67910.00
934.7140, 67698.00
935.8340, 68157.00
936.9540, 68076.00
938.0740, 68262.00
939.1930, 68811.00
940.3130, 68501.00
941.4320, 69000.00
942.5510, 69314.00
943.6700, 69215.00
944.7890, 69340.00
945.9080, 69526.00
947.0260, 69649.00
948.1450, 69796.00
949.2630, 69610.00
950.3810, 69363.00
951.4990, 69582.00
952.6170, 69300.00
953.7340, 69437.00
954.8520, 69410.00
955.9690, 69468.00
957.0860, 69788.00
958.2030, 69727.00
959.3200, 69626.00
960.4360, 70560.00
961.5530, 70391.00
962.6690, 70764.00
963.7850, 71095.00
964.9010, 71442.00
966.0170, 72262.00
967.1330, 73080.00
968.2480, 74295.00
969.3630, 75209.00
970.4790, 76746.00
971.5940, 77716.00
972.7080, 77802.00
973.8230, 77739.00
974.9380, 76729.00
976.0520, 75908.00
977.1660, 75950.00
978.2800, 75826.00
979.3940, 76510.00
980.5080, 77594.00
981.6220, 79347.00
982.7350, 80764.00
983.8480, 82360.00
984.9610, 83688.00
986.0740, 83558.00
987.1870, 83189.00
988.3000, 81945.00
989.4120, 79953.00
990.5250, 78276.00
991.6370, 77275.00
992.7490, 76644.00
993.8610, 76723.00
994.9720, 76475.00
996.0840, 76503.00
997.1950, 77009.00
998.3060, 77025.00
999.4170, 76266.00
1000.528, 75927.00
1001.639, 75271.00
1002.750, 74862.00
1003.860, 74880.00
1004.970, 74791.00
1006.080, 74777.00
1007.190, 75074.67
1008.300, 75403.48
1009.410, 75832.00
1010.519, 76530.00
1011.628, 77110.00
1012.738, 77896.00
1013.846, 78398.00
1014.955, 78942.00
1016.064, 78318.00
1017.172, 78563.00
1018.281, 77720.00
1019.389, 76887.00
1020.497, 76053.00
1021.605, 75335.00
1022.713, 74548.00
1023.820, 74048.00
1024.928, 73775.00
1026.035, 73589.00
1027.142, 73671.00
1028.249, 73572.00
1029.356, 73550.00
1030.462, 73662.00
1031.569, 73233.00
1032.675, 73458.00
1033.781, 73296.00
1034.887, 73056.00
1035.993, 73121.00
1037.098, 72933.00
1038.204, 72906.00
1039.309, 72809.00
1040.415, 73200.00
1041.520, 72903.00
1042.624, 73148.00
1043.729, 72995.00
1044.834, 73106.00
1045.938, 73423.00
1047.042, 73915.00
1048.146, 74097.00
1049.250, 74149.00
1050.354, 74654.00
1051.458, 74923.00
1052.561, 75520.00
1053.664, 76271.00
1054.767, 76322.00
1055.870, 77066.00
1056.973, 76748.00
1058.076, 77102.00
1059.178, 76638.00
1060.281, 76336.00
1061.383, 75668.00
1062.485, 75624.00
1063.587, 74891.00
1064.688, 75004.00
1065.790, 74710.00
1066.891, 74559.00
1067.993, 74305.00
1069.094, 74087.00
1070.195, 74022.00
1071.295, 74132.00
1072.396, 74119.00
1073.496, 73720.00
1074.597, 74313.00
1075.697, 74104.00
1076.797, 73808.00
1077.897, 74205.00
1078.996, 73920.00
1080.096, 74515.00
1081.195, 74137.00
1082.294, 74630.00
1083.393, 74449.00
1084.492, 74391.00
1085.591, 74103.00
1086.689, 74519.00
1087.788, 74190.00
1088.886, 74448.00
1089.984, 74064.00
1091.082, 74817.00
1092.180, 74852.00
1093.277, 74867.00
1094.375, 74934.00
1095.472, 74904.00
1096.569, 74934.00
1097.666, 75035.00
1098.763, 75123.00
1099.860, 75451.00
1100.956, 75185.00
1102.053, 75413.00
1103.149, 75392.00
1104.245, 75343.00
1105.341, 75278.00
1106.436, 75535.00
1107.532, 75438.00
1108.627, 75528.00
1109.723, 75425.00
1110.818, 75628.00
1111.913, 75774.00
1113.007, 75663.00
1114.102, 75741.72
1115.197, 75472.00
1116.291, 75652.00
1117.385, 75882.00
1118.479, 75856.00
1119.573, 76130.52
1120.666, 76240.00
1121.760, 76395.00
1122.853, 76485.07
1123.947, 76515.39
1125.040, 76503.00
1126.132, 76407.00
1127.225, 76230.00
1128.318, 76246.97
1129.410, 76076.00
1130.502, 76275.00
1131.595, 76167.34
1132.687, 76348.00
1133.778, 76115.00
1134.870, 76295.00
1135.961, 76028.00
1137.053, 76232.00
1138.144, 76467.00
1139.235, 76591.00
1140.326, 76358.00
1141.416, 76574.00
1142.507, 76539.00
1143.597, 76855.00
1144.688, 76272.00
1145.778, 76575.00
1146.868, 76995.00
1147.957, 76716.00
1149.047, 77031.00
1150.136, 76757.00
1151.226, 76916.00
1152.315, 77070.00
1153.404, 77165.00
1154.493, 77353.00
1155.581, 77166.00
1156.670, 77354.00
1157.758, 77100.00
1158.846, 76918.00
1159.934, 77329.00
1161.022, 77134.00
1162.110, 77390.00
1163.198, 77601.00
1164.285, 77257.00
1165.372, 77760.00
1166.459, 77153.00
1167.546, 77525.00
1168.633, 77622.00
1169.720, 77644.00
1170.806, 77950.00
1171.892, 77878.00
1172.979, 77930.00
1174.065, 77793.00
1175.150, 78044.00
1176.236, 77854.00
1177.322, 77844.00
1178.407, 78099.00
1179.492, 78116.00
1180.577, 77793.00
1181.662, 77828.00
1182.747, 78315.00
1183.832, 78157.00
1184.916, 78356.00
1186.000, 78303.00
1187.084, 78427.00
1188.168, 78331.00
1189.252, 78738.00
1190.336, 78530.00
1191.419, 78673.00
1192.503, 78537.00
1193.586, 78902.00
1194.669, 78110.00
1195.752, 78941.00
1196.835, 78794.00
1197.917, 79152.00
1199.000, 78648.00
1200.082, 79028.00
1201.164, 78891.00
1202.246, 79142.00
1203.328, 79431.00
1204.409, 79403.00
1205.491, 79174.00
1206.572, 79655.00
1207.653, 79191.00
1208.734, 79431.00
1209.815, 79657.00
1210.896, 79784.00
1211.976, 79731.00
1213.057, 79656.00
1214.137, 79658.00
1215.217, 79706.00
1216.297, 79689.90
1217.377, 79746.30
1218.456, 79774.00
1219.536, 79856.00
1220.615, 79978.91
1221.694, 80064.55
1222.773, 80126.00
1223.852, 80232.00
1224.931, 80268.55
1226.009, 80333.00
1227.088, 80466.00
1228.166, 80301.00
1229.244, 80426.00
1230.322, 80613.00
1231.400, 80483.00
1232.477, 80256.00
1233.555, 80709.00
1234.632, 80830.00
1235.709, 81031.00
1236.786, 80588.00
1237.863, 80517.00
1238.939, 80925.00
1240.016, 81063.00
1241.092, 80992.00
1242.168, 80906.00
1243.245, 80902.00
1244.320, 80968.52
1245.396, 81126.00
1246.472, 81229.00
1247.547, 81236.00
1248.622, 81439.00
1249.697, 81446.77
1250.772, 81626.00
1251.847, 81541.00
1252.922, 81619.00
1253.996, 81663.00
1255.071, 81544.00
1256.145, 81749.00
1257.219, 81578.00
1258.293, 81958.00
1259.366, 81778.00
1260.440, 82001.00
1261.513, 82071.00
1262.587, 82052.00
1263.660, 82322.00
1264.733, 81984.00
1265.805, 82446.00
1266.878, 82502.00
1267.951, 82222.00
1269.023, 82797.00
1270.095, 82661.00
1271.167, 82568.00
1272.239, 82579.00
1273.311, 82739.00
1274.382, 82774.00
1275.454, 82831.00
1276.525, 82838.16
1277.596, 82904.00
1278.667, 82789.00
1279.738, 82864.00
1280.808, 82870.77
1281.879, 82838.00
1282.949, 83190.00
1284.019, 83036.00
1285.089, 83382.00
1286.159, 83206.00
1287.229, 83339.00
1288.298, 83244.00
1289.368, 83584.00
1290.437, 83391.00
1291.506, 83207.00
1292.575, 83748.00
1293.644, 83751.00
1294.712, 83639.00
1295.781, 84118.00
1296.849, 83488.00
1297.917, 83600.00
1298.985, 83813.00
1300.053, 83954.00
1301.121, 84036.00
1302.188, 83673.00
1303.255, 84010.00
1304.323, 84089.00
1305.390, 83974.00
1306.457, 84411.00
1307.523, 84294.00
1308.590, 84390.00
1309.656, 84581.00
1310.723, 84496.00
1311.789, 84879.00
1312.855, 83896.00
1313.921, 83980.00
1314.986, 84450.00
1316.052, 84832.00
1317.117, 84821.00
1318.182, 84547.00
1319.248, 84891.00
1320.312, 84865.00
1321.377, 84746.00
1322.442, 85557.00
1323.506, 84560.00
1324.571, 85312.00
1325.635, 85231.00
1326.699, 85278.00
1327.762, 84988.00
1328.826, 85166.00
1329.890, 84954.00
1330.953, 85182.00
1332.016, 85210.00
1333.079, 85390.00
1334.142, 85313.00
1335.205, 85552.00
1336.268, 85971.00
1337.330, 85646.00
1338.392, 85974.00
1339.454, 85595.00
1340.516, 85367.00
1341.578, 85786.00
1342.640, 85909.00
1343.701, 86095.00
1344.763, 86066.00
1345.824, 86153.55
1346.885, 86142.42
1347.946, 86111.00
1349.007, 86073.00
1350.067, 85885.00
1351.128, 85849.00
1352.188, 86350.00
1353.248, 86778.00
1354.308, 86576.75
1355.368, 86407.00
1356.428, 86441.00
1357.487, 86470.00
1358.547, 86717.00
1359.606, 86732.00
1360.665, 86642.00
1361.724, 86718.00
1362.783, 86546.00
1363.841, 86827.00
1364.900, 86842.00
1365.958, 86879.00
1367.016, 86847.00
1368.074, 86880.00
1369.132, 87222.00
1370.190, 87137.00
1371.247, 87154.00
1372.304, 87679.00
1373.362, 87106.00
1374.419, 87393.00
1375.476, 87389.00
1376.532, 87328.00
1377.589, 87452.00
1378.645, 87297.00
1379.702, 87544.00
1380.758, 87912.00
1381.814, 87418.00
1382.870, 87710.00
1383.925, 87797.00
1384.981, 87754.00
1386.036, 87907.39
1387.092, 87649.00
1388.147, 88067.00
1389.202, 88134.00
1390.256, 88363.00
1391.311, 88113.00
1392.365, 88207.00
1393.420, 88541.00
1394.474, 88321.00
1395.528, 88686.00
1396.582, 88408.00
1397.636, 88821.00
1398.689, 88377.00
1399.742, 88757.00
1400.796, 88991.00
1401.849, 88800.00
1402.902, 88858.00
1403.955, 88577.00
1405.007, 88561.00
1406.060, 88784.00
1407.112, 88831.00
1408.164, 89031.00
1409.216, 88909.00
1410.268, 89026.00
1411.320, 89266.00
1412.371, 89150.00
1413.423, 89421.00
1414.474, 89399.00
1415.525, 89465.00
1416.576, 89880.00
1417.627, 89161.00
1418.678, 89368.00
1419.728, 89660.00
1420.778, 89869.00
1421.829, 89600.00
1422.879, 89466.00
1423.928, 89774.00
1424.978, 89237.00
1426.028, 89994.00
1427.077, 90095.00
1428.126, 89991.00
1429.176, 89636.00
1430.225, 90180.00
1431.273, 89880.00
1432.322, 90166.00
1433.371, 90067.00
1434.419, 90169.00
1435.467, 90274.00
1436.515, 90360.36
1437.563, 90478.40
1438.611, 90655.00
1439.658, 90701.00
1440.706, 90817.00
1441.753, 90917.63
1442.800, 90937.84
1443.847, 91107.00
1444.894, 91019.00
1445.941, 90987.00
1446.987, 91086.00
1448.034, 90942.00
1449.080, 91190.00
1450.126, 91042.00
1451.172, 91509.00
1452.218, 91314.00
1453.263, 91507.00
1454.309, 91127.00
1455.354, 91633.00
1456.399, 91869.00
1457.444, 91288.00
1458.489, 91370.00
1459.534, 91296.00
1460.579, 91719.00
1461.623, 91472.00
1462.667, 91416.00
1463.711, 91544.00
1464.755, 91692.00
1465.799, 91971.00
1466.843, 92038.00
1467.886, 91988.61
1468.930, 91529.00
1469.973, 91737.00
1471.016, 91887.00
1472.059, 91784.00
1473.101, 91938.00
1474.144, 91883.00
1475.186, 91826.00
1476.229, 91993.00
1477.271, 92066.00
1478.313, 92254.00
1479.355, 92028.00
1480.396, 91986.00
1481.438, 92316.00
1482.479, 92687.00
1483.520, 92094.00
1484.561, 92025.00
1485.602, 92311.00
1486.643, 92599.00
1487.684, 92273.00
1488.724, 92233.00
1489.765, 92306.00
1490.805, 92346.00
1491.845, 92320.45
1492.885, 92398.31
1493.924, 92325.00
1494.964, 92458.00
1496.003, 92536.00
1497.042, 92493.00
1498.082, 92481.00
1499.120, 92742.00
1500.159, 92710.01
1501.198, 93033.00
1502.236, 92867.00
1503.275, 92927.00
1504.313, 93011.00
1505.351, 92752.00
1506.389, 93268.00
1507.427, 93122.00
1508.464, 92941.00
1509.502, 93555.00
1510.539, 92857.00
1511.576, 93333.00
1512.613, 93177.00
1513.650, 93484.00
1514.687, 93309.00
1515.723, 93924.00
1516.759, 93320.00
1517.796, 93717.00
1518.832, 93650.00
1519.868, 93518.00
1520.903, 93740.00
1521.939, 93776.00
1522.975, 93520.00
1524.010, 94154.00
1525.045, 94090.00
1526.080, 94544.00
1527.115, 94197.00
1528.150, 94688.00
1529.184, 93921.00
1530.219, 94353.00
1531.253, 94677.00
1532.287, 94882.00
1533.321, 94406.00
1534.355, 94711.00
1535.388, 94495.00
1536.422, 94825.00
1537.455, 94850.00
1538.488, 94671.00
1539.522, 94917.00
1540.554, 94598.00
1541.587, 95244.00
1542.620, 94619.00
1543.652, 94969.00
1544.685, 95318.00
1545.717, 94693.00
1546.749, 95200.00
1547.781, 95388.00
1548.812, 96039.00
1549.844, 96025.00
1550.875, 95303.00
1551.906, 95169.00
1552.938, 95132.00
1553.968, 95692.00
1554.999, 95919.00
1556.030, 95334.00
1557.060, 95523.00
1558.091, 95525.00
1559.121, 95219.00
1560.151, 95755.00
1561.181, 95595.00
1562.211, 95983.00
1563.240, 95757.00
1564.270, 95990.00
1565.299, 95891.00
1566.328, 95739.00
1567.357, 96095.00
1568.386, 96011.00
1569.415, 96074.00
1570.443, 96290.00
1571.472, 95537.00
1572.500, 96221.00
1573.528, 95929.00
1574.556, 96267.00
1575.584, 96355.00
1576.611, 96235.00
1577.639, 96277.00
1578.666, 96530.00
##END=



