##NAMES=Celsian
##RRUFFID=R060152
##IDEAL CHEMISTRY=BaAl_2_Si_2_O_8_
##LOCALITY=Benallt mine, Lleyn, Wales
##OWNER=RRUFF
##SOURCE=Marcus Origlieri
##DESCRIPTION=Colorless to white elongated prismatic crystals
##STATUS=The identification of this mineral is confirmed by single-crystal X-ray diffraction and chemical analysis.
##URL=rruff.info/R060152
##MEASURED CHEMISTRY=(Ba_0.98_K_0.02_[box]_0.02_)_Î£=1_Al_2.00_Si_2.00_O_8_
##PIN_ID=M00168
##ORIENTATION=Laser parallel to a* (1 0 0). Fiducial mark perpendicular to laser is parallel to b [0 1 0]
62.16800, 5999.000
63.41100, 6825.000
64.65300, 8291.000
65.89600, 9694.000
67.13800, 11471.00
68.38000, 13923.00
69.62200, 15996.00
70.86300, 18344.00
72.10500, 20269.00
73.34600, 20764.00
74.58700, 22363.00
75.82800, 24417.00
77.06900, 26556.00
78.30900, 29555.00
79.55000, 32629.00
80.79000, 33216.00
82.03000, 31140.00
83.27000, 29127.00
84.51000, 28043.00
85.74900, 27724.00
86.98900, 28297.00
88.22800, 28598.00
89.46700, 29638.00
90.70600, 30785.00
91.94400, 32242.00
93.18300, 33800.00
94.42100, 36109.00
95.65900, 38557.00
96.89700, 42251.62
98.13500, 45413.43
99.37300, 48534.75
100.6100, 51615.27
101.8480, 54545.21
103.0850, 57670.32
104.3220, 60716.23
105.5590, 67895.00
106.7950, 79015.00
108.0320, 93196.00
109.2680, 106188.0
110.5040, 108522.0
111.7400, 99102.00
112.9760, 84217.00
114.2120, 71801.00
115.4470, 61932.00
116.6820, 54501.00
117.9170, 49629.00
119.1520, 46296.00
120.3870, 44089.00
121.6220, 42257.00
122.8560, 41662.00
124.0900, 41594.00
125.3240, 41705.00
126.5580, 42239.00
127.7920, 43657.00
129.0260, 45089.00
130.2590, 46092.00
131.4920, 46554.00
132.7250, 47494.00
133.9580, 48797.00
135.1910, 50098.00
136.4230, 50578.00
137.6560, 49337.00
138.8880, 46961.00
140.1200, 44490.00
141.3520, 42009.00
142.5830, 40340.00
143.8150, 39318.00
145.0460, 38683.00
146.2770, 37921.88
147.5080, 38221.00
148.7390, 37185.00
149.9700, 37315.00
151.2000, 36992.00
152.4310, 36866.00
153.6610, 36865.00
154.8910, 36977.00
156.1210, 37037.00
157.3500, 37285.31
158.5800, 37343.00
159.8090, 37919.00
161.0380, 38375.00
162.2670, 38847.00
163.4960, 39791.00
164.7240, 40686.00
165.9530, 41742.00
167.1810, 42753.00
168.4090, 44131.00
169.6370, 45773.00
170.8650, 46238.00
172.0920, 45757.00
173.3200, 44130.00
174.5470, 42724.00
175.7740, 41413.00
177.0010, 40212.00
178.2280, 39620.00
179.4540, 38777.00
180.6810, 38398.00
181.9070, 38217.00
183.1330, 37634.00
184.3590, 37839.00
185.5850, 37609.00
186.8100, 37699.00
188.0350, 37961.00
189.2610, 37930.00
190.4860, 38242.00
191.7110, 38601.00
192.9350, 39054.00
194.1600, 39896.00
195.3840, 40410.00
196.6080, 41662.00
197.8320, 41894.00
199.0560, 42153.00
200.2800, 41709.00
201.5030, 40518.00
202.7270, 39938.00
203.9500, 39031.00
205.1730, 38475.00
206.3950, 38074.00
207.6180, 38082.00
208.8410, 37968.00
210.0630, 37900.00
211.2850, 37754.00
212.5070, 38097.00
213.7290, 37955.00
214.9500, 38163.00
216.1720, 38210.00
217.3930, 38511.00
218.6140, 38550.00
219.8350, 38702.00
221.0560, 38876.00
222.2770, 38794.00
223.4970, 38960.18
224.7170, 39256.00
225.9370, 39126.00
227.1570, 38970.00
228.3770, 39055.00
229.5970, 38590.00
230.8160, 38630.00
232.0350, 38716.00
233.2540, 38911.00
234.4730, 39337.00
235.6920, 39473.00
236.9110, 39854.00
238.1290, 40733.00
239.3470, 41074.00
240.5650, 42069.00
241.7830, 43440.00
243.0010, 44917.00
244.2180, 46540.00
245.4360, 48208.00
246.6530, 49614.00
247.8700, 50813.00
249.0870, 50788.00
250.3040, 50272.00
251.5200, 48827.00
252.7370, 47714.00
253.9530, 46281.00
255.1690, 45719.00
256.3850, 45540.00
257.6000, 45574.00
258.8160, 45118.00
260.0310, 44343.00
261.2460, 43759.00
262.4610, 43032.00
263.6760, 42134.00
264.8910, 41933.00
266.1050, 41262.00
267.3200, 40690.00
268.5340, 40562.00
269.7480, 40879.00
270.9620, 40141.00
272.1750, 40510.00
273.3890, 40294.00
274.6020, 40230.00
275.8150, 40375.00
277.0280, 40087.00
278.2410, 40269.00
279.4540, 40395.00
280.6660, 40050.00
281.8790, 40355.00
283.0910, 40017.00
284.3030, 39996.00
285.5140, 40296.00
286.7260, 39972.00
287.9380, 40324.00
289.1490, 40516.00
290.3600, 40187.00
291.5710, 40164.00
292.7820, 40383.00
293.9920, 40679.00
295.2030, 40580.00
296.4130, 40805.00
297.6230, 41102.00
298.8330, 41502.00
300.0430, 41652.00
301.2520, 41968.00
302.4620, 42207.00
303.6710, 42766.00
304.8800, 43350.00
306.0890, 44234.00
307.2980, 44786.00
308.5070, 44864.00
309.7150, 44765.00
310.9230, 44712.00
312.1310, 43225.00
313.3390, 42838.00
314.5470, 41899.00
315.7550, 42028.00
316.9620, 41810.00
318.1690, 41783.00
319.3760, 41722.00
320.5830, 41576.00
321.7900, 41701.00
322.9960, 41529.00
324.2030, 41669.00
325.4090, 41409.00
326.6150, 41590.00
327.8210, 41329.00
329.0270, 41415.00
330.2320, 41281.00
331.4380, 41541.00
332.6430, 41456.00
333.8480, 41739.00
335.0530, 41649.00
336.2580, 41310.00
337.4620, 41627.00
338.6670, 41607.00
339.8710, 41829.00
341.0750, 42077.00
342.2790, 42102.00
343.4820, 42100.00
344.6860, 42398.00
345.8890, 42340.00
347.0920, 42591.00
348.2960, 42996.00
349.4980, 43375.00
350.7010, 43946.00
351.9040, 44369.00
353.1060, 45181.00
354.3080, 46144.00
355.5100, 46865.00
356.7120, 47973.00
357.9140, 48554.00
359.1150, 49418.00
360.3170, 49524.00
361.5180, 48946.00
362.7190, 48042.00
363.9200, 47169.00
365.1200, 46120.00
366.3210, 45097.00
367.5210, 44535.00
368.7210, 44104.00
369.9210, 43855.00
371.1210, 43815.00
372.3210, 43524.00
373.5200, 43547.00
374.7200, 43451.00
375.9190, 43473.00
377.1180, 43537.00
378.3170, 43613.00
379.5150, 43619.00
380.7140, 43823.00
381.9120, 43866.35
383.1110, 44087.00
384.3090, 44110.00
385.5060, 44259.00
386.7040, 44487.00
387.9020, 44724.33
389.0990, 44863.00
390.2960, 45524.00
391.4930, 45989.00
392.6900, 46744.00
393.8860, 46741.16
395.0830, 47138.00
396.2790, 46425.00
397.4750, 45886.00
398.6710, 45093.00
399.8670, 45202.00
401.0630, 45118.00
402.2580, 45037.00
403.4540, 44739.00
404.6490, 44761.00
405.8440, 44755.00
407.0390, 44672.00
408.2330, 44654.00
409.4280, 44803.00
410.6220, 44801.00
411.8160, 44740.00
413.0100, 44890.00
414.2040, 44737.00
415.3980, 44812.00
416.5910, 45150.00
417.7850, 44939.00
418.9780, 45353.00
420.1710, 45699.00
421.3640, 45974.00
422.5560, 45944.00
423.7490, 46651.00
424.9410, 47072.00
426.1330, 47971.00
427.3250, 48838.00
428.5170, 49887.00
429.7090, 50105.00
430.9000, 50065.00
432.0910, 49521.00
433.2820, 48551.00
434.4730, 48047.00
435.6640, 47700.00
436.8550, 47347.00
438.0450, 46920.00
439.2360, 46571.00
440.4260, 46540.00
441.6160, 46367.00
442.8060, 46480.00
443.9950, 46479.00
445.1850, 46574.00
446.3740, 46692.00
447.5630, 46914.00
448.7520, 47001.00
449.9410, 47316.00
451.1300, 47345.00
452.3180, 47593.00
453.5060, 48451.00
454.6950, 48766.00
455.8830, 49518.00
457.0700, 50342.00
458.2580, 51571.00
459.4450, 52663.00
460.6330, 54680.00
461.8200, 56766.00
463.0070, 59030.00
464.1940, 60499.00
465.3800, 60402.00
466.5670, 59605.00
467.7530, 58322.00
468.9390, 57132.00
470.1250, 56272.00
471.3110, 55790.00
472.4970, 55642.00
473.6820, 55259.00
474.8680, 54064.00
476.0530, 52987.00
477.2380, 51997.00
478.4230, 51027.00
479.6070, 50460.00
480.7920, 50051.00
481.9760, 49914.00
483.1600, 49881.00
484.3440, 49704.00
485.5280, 49869.22
486.7120, 50153.00
487.8950, 50308.00
489.0780, 50627.00
490.2620, 51063.00
491.4450, 51539.00
492.6270, 52071.00
493.8100, 52945.00
494.9920, 54003.00
496.1750, 55781.00
497.3570, 57241.00
498.5390, 59798.00
499.7210, 62712.00
500.9020, 67049.00
502.0840, 72539.00
503.2650, 78974.00
504.4460, 87768.00
505.6270, 99019.00
506.8080, 112001.0
507.9890, 124212.0
509.1690, 132045.0
510.3500, 131828.0
511.5300, 121170.0
512.7100, 106950.0
513.8900, 93294.00
515.0690, 82340.00
516.2490, 73906.00
517.4280, 68195.00
518.6070, 63882.00
519.7860, 60698.00
520.9650, 58404.00
522.1440, 57240.00
523.3220, 56429.00
524.5010, 55997.00
525.6790, 55551.00
526.8570, 55302.00
528.0350, 55219.00
529.2130, 54779.66
530.3900, 54354.71
531.5670, 54083.00
532.7450, 53235.00
533.9220, 52792.00
535.0980, 52176.00
536.2750, 51767.00
537.4520, 51522.00
538.6280, 51352.00
539.8040, 51285.00
540.9800, 51225.00
542.1560, 51376.00
543.3320, 51372.00
544.5070, 51225.00
545.6830, 51464.00
546.8580, 51526.00
548.0330, 52121.00
549.2080, 52534.00
550.3830, 52932.00
551.5570, 53834.00
552.7310, 54608.00
553.9060, 55151.00
555.0800, 55422.90
556.2540, 55453.74
557.4270, 55231.00
558.6010, 54736.00
559.7740, 53837.00
560.9470, 52788.00
562.1210, 52350.00
563.2930, 52223.00
564.4660, 51588.00
565.6390, 51793.00
566.8110, 51588.00
567.9830, 51326.00
569.1550, 51173.00
570.3270, 51174.00
571.4990, 51438.00
572.6710, 51321.00
573.8420, 51451.00
575.0130, 51354.00
576.1840, 51308.00
577.3550, 51420.00
578.5260, 51272.00
579.6970, 51485.00
580.8670, 51432.00
582.0370, 51468.00
583.2070, 51609.00
584.3770, 51752.00
585.5470, 51959.00
586.7170, 52170.00
587.8860, 52612.00
589.0550, 52507.00
590.2240, 52995.00
591.3930, 53360.00
592.5620, 54101.00
593.7310, 54338.00
594.8990, 54390.00
596.0670, 54735.00
597.2350, 54659.00
598.4030, 54325.00
599.5710, 53777.00
600.7390, 53279.00
601.9060, 53080.00
603.0740, 52834.00
604.2410, 53099.00
605.4080, 52515.00
606.5740, 52859.00
607.7410, 53076.00
608.9080, 53078.00
610.0740, 53492.00
611.2400, 53874.00
612.4060, 54425.00
613.5720, 54533.00
614.7370, 55316.00
615.9030, 56183.00
617.0680, 56549.00
618.2330, 56392.00
619.3980, 56499.00
620.5630, 56217.00
621.7280, 55433.00
622.8920, 55102.00
624.0570, 54339.00
625.2210, 53810.00
626.3850, 53929.00
627.5490, 53632.00
628.7120, 53421.00
629.8760, 53467.00
631.0390, 53209.00
632.2020, 52949.00
633.3650, 53042.00
634.5280, 53182.00
635.6910, 53154.00
636.8530, 53116.00
638.0160, 52921.00
639.1780, 53148.00
640.3400, 53164.00
641.5020, 53292.00
642.6640, 53199.00
643.8250, 53704.00
644.9870, 53316.00
646.1480, 53594.00
647.3090, 53521.00
648.4700, 53537.00
649.6300, 53433.00
650.7910, 53645.00
651.9510, 53857.00
653.1120, 53543.00
654.2720, 53757.00
655.4320, 53522.00
656.5910, 53890.00
657.7510, 53518.00
658.9100, 53979.00
660.0690, 53856.00
661.2290, 53969.00
662.3880, 53522.00
663.5460, 54018.00
664.7050, 53982.00
665.8630, 53989.00
667.0220, 54092.00
668.1800, 54314.00
669.3380, 54511.00
670.4950, 54305.00
671.6530, 54642.00
672.8100, 54580.00
673.9680, 54790.00
675.1250, 55360.00
676.2820, 55718.00
677.4390, 55618.00
678.5950, 55871.00
679.7520, 56657.00
680.9080, 57293.00
682.0640, 57685.00
683.2200, 58221.00
684.3760, 58211.00
685.5320, 58617.00
686.6870, 57711.00
687.8420, 57342.00
688.9980, 57011.00
690.1530, 56772.00
691.3070, 56440.43
692.4620, 56072.00
693.6170, 55933.00
694.7710, 55745.00
695.9250, 55633.00
697.0790, 55559.00
698.2330, 55759.00
699.3870, 55956.00
700.5400, 55450.00
701.6940, 55630.00
702.8470, 55508.00
704.0000, 55738.00
705.1530, 55909.00
706.3050, 55875.00
707.4580, 55912.00
708.6100, 56027.00
709.7630, 56282.90
710.9150, 56474.47
712.0660, 56806.80
713.2180, 56961.48
714.3700, 57075.68
715.5210, 57151.51
716.6720, 57074.28
717.8240, 57194.75
718.9740, 57235.91
720.1250, 57273.87
721.2760, 57346.12
722.4260, 57400.83
723.5770, 57427.28
724.7270, 57516.18
725.8770, 57525.87
727.0260, 57532.28
728.1760, 57649.00
729.3250, 57562.48
730.4750, 57677.45
731.6240, 57711.97
732.7730, 57754.00
733.9220, 57333.00
735.0700, 57444.00
736.2190, 57358.00
737.3670, 57070.00
738.5150, 57613.00
739.6630, 57667.00
740.8110, 57774.00
741.9590, 58291.00
743.1060, 58231.00
744.2540, 58206.00
745.4010, 58227.00
746.5480, 59063.00
747.6950, 59431.00
748.8410, 59802.00
749.9880, 60690.00
751.1340, 60949.00
752.2800, 61097.96
753.4260, 61390.00
754.5720, 60861.00
755.7180, 60496.00
756.8640, 59861.00
758.0090, 59754.00
759.1540, 59225.00
760.2990, 59009.86
761.4440, 58807.00
762.5890, 58684.00
763.7340, 58733.00
764.8780, 58789.00
766.0220, 58448.00
767.1660, 58069.00
768.3100, 58358.00
769.4540, 58065.00
770.5980, 58646.00
771.7410, 58292.00
772.8840, 58153.00
774.0280, 58398.00
775.1700, 58591.00
776.3130, 58625.00
777.4560, 58610.00
778.5980, 58590.00
779.7410, 58679.00
780.8830, 58523.00
782.0250, 58665.00
783.1670, 58699.00
784.3080, 58819.00
785.4500, 58877.29
786.5910, 58864.00
787.7320, 59003.00
788.8730, 58953.00
790.0140, 59031.00
791.1550, 59550.00
792.2950, 58883.00
793.4360, 59325.00
794.5760, 59107.00
795.7160, 59008.00
796.8560, 59226.00
797.9960, 59145.97
799.1350, 59420.00
800.2750, 59272.00
801.4140, 59281.00
802.5530, 59268.00
803.6920, 59494.00
804.8310, 59441.00
805.9690, 59486.00
807.1080, 59569.00
808.2460, 59930.00
809.3840, 59710.00
810.5220, 59537.00
811.6600, 59902.00
812.7970, 59584.00
813.9350, 60224.00
815.0720, 60157.00
816.2090, 60134.00
817.3460, 59946.00
818.4830, 60097.00
819.6200, 60192.00
820.7560, 60315.00
821.8930, 60149.00
823.0290, 60072.00
824.1650, 60597.00
825.3010, 60263.00
826.4360, 60698.00
827.5720, 60706.00
828.7070, 60551.00
829.8420, 60939.00
830.9770, 60875.00
832.1120, 60740.00
833.2470, 60827.00
834.3820, 60944.00
835.5160, 60928.38
836.6500, 60913.00
837.7840, 61041.00
838.9180, 61210.00
840.0520, 61274.91
841.1860, 61384.00
842.3190, 61248.00
843.4520, 61418.00
844.5850, 61253.00
845.7180, 61855.00
846.8510, 61054.00
847.9840, 61488.00
849.1160, 61206.00
850.2490, 61847.00
851.3810, 62020.00
852.5130, 61540.00
853.6450, 62225.00
854.7760, 61857.00
855.9080, 61882.00
857.0390, 62053.00
858.1700, 62379.00
859.3010, 62288.00
860.4320, 62006.00
861.5630, 62255.00
862.6930, 62475.00
863.8240, 62110.00
864.9540, 62196.00
866.0840, 62344.00
867.2140, 62793.00
868.3440, 62602.00
869.4730, 62639.00
870.6030, 62889.00
871.7320, 62684.00
872.8610, 62801.32
873.9900, 63088.00
875.1190, 62807.00
876.2470, 62865.00
877.3760, 62871.00
878.5040, 63021.00
879.6320, 63110.00
880.7600, 63188.21
881.8880, 63176.00
883.0150, 63340.00
884.1430, 63318.00
885.2700, 63304.00
886.3970, 63372.00
887.5240, 63438.00
888.6510, 63137.00
889.7780, 63461.00
890.9040, 63230.00
892.0310, 63653.00
893.1570, 63534.00
894.2830, 63756.00
895.4090, 63479.00
896.5350, 63615.00
897.6600, 63644.77
898.7860, 63677.81
899.9110, 63872.00
901.0360, 63807.00
902.1610, 64161.00
903.2860, 64015.00
904.4100, 64365.00
905.5350, 64559.00
906.6590, 64132.00
907.7830, 64593.00
908.9070, 64576.00
910.0310, 64798.00
911.1540, 64731.00
912.2780, 64379.00
913.4010, 65002.00
914.5240, 64538.00
915.6470, 64846.00
916.7700, 64749.00
917.8930, 64998.00
919.0150, 64988.00
920.1380, 65120.00
921.2600, 65416.00
922.3820, 65168.00
923.5040, 65167.00
924.6260, 65591.00
925.7470, 65665.00
926.8690, 65691.00
927.9900, 65917.00
929.1110, 65866.00
930.2320, 66049.00
931.3530, 66033.00
932.4730, 66109.00
933.5940, 66323.00
934.7140, 66546.00
935.8340, 66853.00
936.9540, 67422.00
938.0740, 67821.00
939.1930, 67048.00
940.3130, 67678.00
941.4320, 67446.00
942.5510, 67782.00
943.6700, 67851.00
944.7890, 68054.00
945.9080, 68338.00
947.0260, 67752.00
948.1450, 67847.00
949.2630, 67728.00
950.3810, 67788.00
951.4990, 68259.00
952.6170, 67603.00
953.7340, 68020.00
954.8520, 67753.00
955.9690, 67961.00
957.0860, 68147.00
958.2030, 68418.00
959.3200, 68008.00
960.4360, 68592.00
961.5530, 68463.00
962.6690, 69074.00
963.7850, 69274.00
964.9010, 70101.00
966.0170, 70584.21
967.1330, 71398.00
968.2480, 72007.00
969.3630, 72680.00
970.4790, 73813.00
971.5940, 74231.00
972.7080, 74773.00
973.8230, 74422.00
974.9380, 74113.00
976.0520, 73495.00
977.1660, 73302.00
978.2800, 73852.00
979.3940, 74201.00
980.5080, 75098.00
981.6220, 76807.00
982.7350, 77594.00
983.8480, 79989.00
984.9610, 80430.00
986.0740, 80296.00
987.1870, 79722.00
988.3000, 77842.00
989.4120, 77027.00
990.5250, 75748.00
991.6370, 74932.00
992.7490, 74347.00
993.8610, 74360.00
994.9720, 74621.00
996.0840, 74228.00
997.1950, 74723.00
998.3060, 74734.00
999.4170, 74334.00
1000.528, 74200.00
1001.639, 73357.00
1002.750, 73078.00
1003.860, 72652.00
1004.970, 73184.00
1006.080, 72970.00
1007.190, 73254.00
1008.300, 73129.00
1009.410, 74085.00
1010.519, 74165.00
1011.628, 74796.00
1012.738, 75788.00
1013.846, 76572.00
1014.955, 76594.00
1016.064, 76597.00
1017.172, 76120.00
1018.281, 75858.00
1019.389, 74918.00
1020.497, 74168.00
1021.605, 73346.00
1022.713, 72877.00
1023.820, 72807.00
1024.928, 72404.00
1026.035, 71842.00
1027.142, 72148.00
1028.249, 71728.00
1029.356, 71948.00
1030.462, 72052.00
1031.569, 71610.00
1032.675, 72536.00
1033.781, 72227.00
1034.887, 71723.00
1035.993, 72043.00
1037.098, 71532.00
1038.204, 71827.00
1039.309, 71620.00
1040.415, 71438.00
1041.520, 71571.00
1042.624, 71741.00
1043.729, 71619.00
1044.834, 71908.74
1045.938, 71759.00
1047.042, 72294.00
1048.146, 72508.00
1049.250, 72630.00
1050.354, 73416.00
1051.458, 73396.00
1052.561, 73921.00
1053.664, 74665.00
1054.767, 74649.00
1055.870, 74649.00
1056.973, 74671.00
1058.076, 74593.82
1059.178, 74486.65
1060.281, 74359.00
1061.383, 74164.00
1062.485, 73848.00
1063.587, 73636.57
1064.688, 73461.00
1065.790, 73264.00
1066.891, 73252.00
1067.993, 73204.00
1069.094, 73152.00
1070.195, 73001.00
1071.295, 73195.00
1072.396, 72862.00
1073.496, 73194.00
1074.597, 73045.00
1075.697, 73132.00
1076.797, 73196.00
1077.897, 73191.00
1078.996, 73209.00
1080.096, 73139.00
1081.195, 73134.61
1082.294, 73158.00
1083.393, 73098.00
1084.492, 73102.88
1085.591, 73146.70
1086.689, 73156.00
1087.788, 73214.00
1088.886, 73352.00
1089.984, 73486.00
1091.082, 73394.00
1092.180, 73765.00
1093.277, 73616.00
1094.375, 73602.00
1095.472, 73853.00
1096.569, 74324.00
1097.666, 74290.00
1098.763, 74228.00
1099.860, 74444.00
1100.956, 74191.00
1102.053, 74153.00
1103.149, 74200.00
1104.245, 74143.00
1105.341, 74364.00
1106.436, 74510.00
1107.532, 74483.00
1108.627, 74606.00
1109.723, 74391.00
1110.818, 74307.00
1111.913, 74606.00
1113.007, 74481.00
1114.102, 74657.00
1115.197, 74662.00
1116.291, 74654.00
1117.385, 74888.00
1118.479, 74751.00
1119.573, 74750.00
1120.666, 74919.01
1121.760, 75172.00
1122.853, 75219.00
1123.947, 75666.00
1125.040, 75909.00
1126.132, 75606.00
1127.225, 75153.00
1128.318, 75177.00
1129.410, 74933.19
1130.502, 74899.00
1131.595, 74944.00
1132.687, 74909.09
1133.778, 75005.18
1134.870, 75085.00
1135.961, 75202.00
1137.053, 75396.00
1138.144, 75498.00
1139.235, 75856.00
1140.326, 75553.00
1141.416, 75701.00
1142.507, 76052.00
1143.597, 75773.00
1144.688, 75671.00
1145.778, 75582.00
1146.868, 75622.83
1147.957, 76123.00
1149.047, 75919.00
1150.136, 76035.00
1151.226, 76291.00
1152.315, 75936.00
1153.404, 75956.00
1154.493, 76056.00
1155.581, 76059.64
1156.670, 76110.12
1157.758, 76309.00
1158.846, 76244.00
1159.934, 76215.00
1161.022, 76412.00
1162.110, 76450.00
1163.198, 76914.00
1164.285, 76497.00
1165.372, 76957.00
1166.459, 76844.00
1167.546, 76701.00
1168.633, 76687.00
1169.720, 77200.00
1170.806, 76887.00
1171.892, 77142.00
1172.979, 77340.00
1174.065, 77164.00
1175.150, 77404.00
1176.236, 77335.00
1177.322, 77400.00
1178.407, 77294.00
1179.492, 77251.00
1180.577, 77315.00
1181.662, 77600.00
1182.747, 77331.00
1183.832, 77991.00
1184.916, 77668.00
1186.000, 78501.00
1187.084, 77833.00
1188.168, 77653.00
1189.252, 77755.00
1190.336, 77604.00
1191.419, 77846.00
1192.503, 77943.00
1193.586, 78209.00
1194.669, 77900.00
1195.752, 78156.00
1196.835, 78322.00
1197.917, 77922.00
1199.000, 77980.00
1200.082, 78323.00
1201.164, 78363.00
1202.246, 78756.00
1203.328, 78619.00
1204.409, 78592.00
1205.491, 78749.00
1206.572, 78458.00
1207.653, 78176.00
1208.734, 78647.00
1209.815, 78504.00
1210.896, 78459.00
1211.976, 78923.00
1213.057, 79125.00
1214.137, 79009.00
1215.217, 78965.00
1216.297, 79293.00
1217.377, 79488.00
1218.456, 79146.00
1219.536, 79263.00
1220.615, 79326.00
1221.694, 79560.00
1222.773, 79552.00
1223.852, 79334.00
1224.931, 79639.00
1226.009, 79904.00
1227.088, 79799.00
1228.166, 80047.00
1229.244, 79847.00
1230.322, 80075.00
1231.400, 80197.00
1232.477, 80093.00
1233.555, 80376.00
1234.632, 80229.00
1235.709, 80329.00
1236.786, 80279.00
1237.863, 80780.00
1238.939, 80410.00
1240.016, 80498.00
1241.092, 80840.00
1242.168, 80465.00
1243.245, 80412.00
1244.320, 80552.00
1245.396, 80715.00
1246.472, 80747.00
1247.547, 80705.00
1248.622, 80706.00
1249.697, 80754.00
1250.772, 80757.62
1251.847, 81005.00
1252.922, 80834.00
1253.996, 80944.00
1255.071, 80999.00
1256.145, 81478.00
1257.219, 81353.00
1258.293, 81224.00
1259.366, 81928.00
1260.440, 81335.00
1261.513, 81845.00
1262.587, 81202.00
1263.660, 81421.00
1264.733, 81651.00
1265.805, 81558.00
1266.878, 82036.00
1267.951, 81686.00
1269.023, 81602.00
1270.095, 81696.00
1271.167, 82083.00
1272.239, 82305.00
1273.311, 82089.00
1274.382, 82290.00
1275.454, 82448.00
1276.525, 82598.00
1277.596, 82318.00
1278.667, 82455.00
1279.738, 82208.00
1280.808, 82326.00
1281.879, 82204.00
1282.949, 82949.00
1284.019, 82506.00
1285.089, 82926.00
1286.159, 82741.00
1287.229, 82935.00
1288.298, 83132.00
1289.368, 83008.00
1290.437, 82988.00
1291.506, 82923.00
1292.575, 83044.77
1293.644, 83258.00
1294.712, 83419.00
1295.781, 83377.00
1296.849, 83673.00
1297.917, 83331.00
1298.985, 83462.00
1300.053, 83357.00
1301.121, 83117.00
1302.188, 83831.00
1303.255, 83622.00
1304.323, 83811.00
1305.390, 83234.00
1306.457, 83661.00
1307.523, 83572.00
1308.590, 83778.00
1309.656, 83925.00
1310.723, 83997.00
1311.789, 83980.00
1312.855, 84091.55
1313.921, 83847.00
1314.986, 84374.00
1316.052, 84139.00
1317.117, 84609.00
1318.182, 84243.00
1319.248, 84940.00
1320.312, 84103.00
1321.377, 84369.00
1322.442, 84678.00
1323.506, 84784.00
1324.571, 84827.00
1325.635, 84446.00
1326.699, 84892.00
1327.762, 84961.00
1328.826, 84497.00
1329.890, 84693.00
1330.953, 85038.00
1332.016, 84964.00
1333.079, 84939.00
1334.142, 84968.00
1335.205, 85121.00
1336.268, 85299.00
1337.330, 85054.00
1338.392, 85451.00
1339.454, 85199.00
1340.516, 85739.00
1341.578, 85498.00
1342.640, 85758.00
1343.701, 85726.00
1344.763, 85526.00
1345.824, 85881.00
1346.885, 85492.00
1347.946, 85799.00
1349.007, 86386.00
1350.067, 85624.00
1351.128, 86157.00
1352.188, 86231.00
1353.248, 86393.00
1354.308, 86168.00
1355.368, 86376.00
1356.428, 86303.56
1357.487, 85934.00
1358.547, 86214.00
1359.606, 86429.00
1360.665, 86306.00
1361.724, 86448.00
1362.783, 86740.00
1363.841, 86352.00
1364.900, 86853.00
1365.958, 86896.00
1367.016, 86753.00
1368.074, 86620.00
1369.132, 87267.00
1370.190, 86989.00
1371.247, 87221.00
1372.304, 87351.00
1373.362, 87231.00
1374.419, 87364.00
1375.476, 87091.00
1376.532, 87313.00
1377.589, 87489.00
1378.645, 87749.00
1379.702, 87751.04
1380.758, 87215.00
1381.814, 87605.00
1382.870, 87480.00
1383.925, 87102.00
1384.981, 87843.00
1386.036, 87753.00
1387.092, 87627.00
1388.147, 88062.00
1389.202, 87989.00
1390.256, 88386.00
1391.311, 88237.00
1392.365, 88139.00
1393.420, 88076.00
1394.474, 88117.00
1395.528, 88657.00
1396.582, 88296.00
1397.636, 88439.00
1398.689, 88479.00
1399.742, 88299.00
1400.796, 88559.00
1401.849, 89076.00
1402.902, 88864.00
1403.955, 88846.00
1405.007, 88505.00
1406.060, 88938.00
1407.112, 88997.00
1408.164, 89155.00
1409.216, 89059.00
1410.268, 89178.27
1411.320, 89073.00
1412.371, 89291.00
1413.423, 89120.00
1414.474, 89170.00
1415.525, 89490.00
1416.576, 89139.00
1417.627, 89971.00
1418.678, 90065.00
1419.728, 89625.00
1420.778, 89452.00
1421.829, 89707.00
1422.879, 89822.00
1423.928, 89974.00
1424.978, 90153.00
1426.028, 90043.00
1427.077, 90161.00
1428.126, 90125.80
1429.176, 89757.00
1430.225, 90028.00
1431.273, 90275.00
1432.322, 90202.00
1433.371, 89871.00
1434.419, 89985.00
1435.467, 90232.00
1436.515, 90051.00
1437.563, 90785.00
1438.611, 90602.00
1439.658, 90564.00
1440.706, 90706.00
1441.753, 90192.00
1442.800, 90970.00
1443.847, 90341.00
1444.894, 90803.00
1445.941, 91034.00
1446.987, 91464.00
1448.034, 91071.00
1449.080, 90811.00
1450.126, 91146.00
1451.172, 91188.00
1452.218, 91298.00
1453.263, 91646.00
1454.309, 91322.00
1455.354, 91294.00
1456.399, 91382.00
1457.444, 91605.00
1458.489, 91825.00
1459.534, 91781.98
1460.579, 91771.00
1461.623, 91635.00
1462.667, 91649.00
1463.711, 91405.00
1464.755, 91278.00
1465.799, 91408.16
1466.843, 91930.00
1467.886, 91713.00
1468.930, 91698.00
1469.973, 91913.00
1471.016, 91870.00
1472.059, 92011.00
1473.101, 91994.42
1474.144, 92183.00
1475.186, 91991.00
1476.229, 91958.00
1477.271, 92082.00
1478.313, 91768.00
1479.355, 92302.00
1480.396, 92514.00
1481.438, 92338.00
1482.479, 92504.00
1483.520, 92265.00
1484.561, 92038.00
1485.602, 92813.00
1486.643, 92873.00
1487.684, 92670.00
1488.724, 92940.00
1489.765, 92830.00
1490.805, 92911.00
1491.845, 92913.00
1492.885, 92980.00
1493.924, 93192.00
1494.964, 92932.00
1496.003, 93116.00
1497.042, 92706.00
1498.082, 93227.00
1499.120, 93261.00
1500.159, 93001.00
1501.198, 93024.00
1502.236, 93628.00
1503.275, 93586.00
1504.313, 93302.00
1505.351, 93529.00
1506.389, 93296.00
1507.427, 93340.00
1508.464, 93342.00
1509.502, 93185.00
1510.539, 93357.00
1511.576, 93782.00
1512.613, 93468.00
1513.650, 94023.00
1514.687, 93677.00
1515.723, 94090.00
1516.759, 93928.00
1517.796, 94031.00
1518.832, 94293.00
1519.868, 93867.00
1520.903, 94364.00
1521.939, 94487.00
1522.975, 94088.00
1524.010, 94829.00
1525.045, 94705.00
1526.080, 94535.00
1527.115, 94742.00
1528.150, 95075.00
1529.184, 94523.00
1530.219, 94964.00
1531.253, 95085.00
1532.287, 95145.00
1533.321, 94973.00
1534.355, 94757.00
1535.388, 94817.00
1536.422, 95260.00
1537.455, 95210.00
1538.488, 95098.00
1539.522, 95524.00
1540.554, 95444.00
1541.587, 95448.00
1542.620, 95386.00
1543.652, 95472.00
1544.685, 95335.00
1545.717, 95295.00
1546.749, 95628.00
1547.781, 95917.00
1548.812, 95941.00
1549.844, 95793.00
1550.875, 95896.00
1551.906, 95985.00
1552.938, 96069.00
1553.968, 96160.00
1554.999, 96074.00
1556.030, 96184.00
1557.060, 95890.00
1558.091, 95941.00
1559.121, 95608.00
1560.151, 96297.00
1561.181, 96283.00
1562.211, 96204.00
1563.240, 96346.00
1564.270, 96432.00
1565.299, 96644.00
1566.328, 96654.00
1567.357, 96242.00
1568.386, 96598.00
1569.415, 96438.00
1570.443, 96755.00
1571.472, 96946.00
1572.500, 96675.00
1573.528, 96667.00
1574.556, 96782.00
1575.584, 96832.00
1576.611, 96701.00
1577.639, 97421.00
1578.666, 97396.00
##END=



