##NAMES=Celsian
##RRUFFID=R060152
##IDEAL CHEMISTRY=BaAl_2_Si_2_O_8_
##LOCALITY=Benallt mine, Lleyn, Wales
##OWNER=RRUFF
##SOURCE=Marcus Origlieri
##DESCRIPTION=Colorless to white elongated prismatic crystals
##STATUS=The identification of this mineral is confirmed by single-crystal X-ray diffraction and chemical analysis.
##URL=rruff.info/R060152
##MEASURED CHEMISTRY=(Ba_0.98_K_0.02_[box]_0.02_)_Î£=1_Al_2.00_Si_2.00_O_8_
##PIN_ID=M00479
##ORIENTATION=Laser parallel to -c* (0 0 -1). Fiducial mark perpendicular to laser is parallel to a [1 0 0]
92.44100, 40181.00
93.67200, 43127.00
94.90400, 46779.00
96.13500, 51374.00
97.36600, 55830.00
98.59700, 60334.00
99.82800, 66121.00
101.0590, 70288.00
102.2900, 76147.00
103.5200, 80846.00
104.7500, 88156.00
105.9810, 98846.00
107.2110, 108714.0
108.4410, 116253.0
109.6700, 118641.0
110.9000, 118069.0
112.1300, 109473.0
113.3590, 96193.00
114.5880, 82194.00
115.8170, 70175.00
117.0460, 61328.00
118.2750, 54276.00
119.5040, 50069.00
120.7320, 49216.00
121.9610, 50220.00
123.1890, 50455.00
124.4170, 50144.00
125.6450, 47874.00
126.8730, 46494.00
128.1010, 46765.00
129.3280, 48369.00
130.5560, 50103.00
131.7830, 51633.00
133.0100, 52534.00
134.2380, 53387.00
135.4640, 53318.00
136.6910, 52714.00
137.9180, 50516.00
139.1440, 47790.00
140.3710, 44772.00
141.5970, 42053.00
142.8230, 39835.00
144.0490, 38418.00
145.2750, 37207.00
146.5000, 36570.00
147.7260, 35864.00
148.9510, 35392.00
150.1770, 35337.00
151.4020, 34824.00
152.6270, 34814.00
153.8520, 34771.00
155.0760, 34417.00
156.3010, 34495.00
157.5250, 34422.00
158.7500, 34699.00
159.9740, 34923.75
161.1980, 35192.00
162.4220, 35596.00
163.6450, 36097.00
164.8690, 36423.00
166.0920, 37078.00
167.3160, 37682.00
168.5390, 38206.00
169.7620, 38392.00
170.9850, 38436.00
172.2080, 38336.00
173.4300, 37854.00
174.6530, 37416.00
175.8750, 36845.00
177.0970, 36311.00
178.3190, 35834.00
179.5410, 35403.89
180.7630, 34941.00
181.9850, 34725.00
183.2060, 34491.00
184.4270, 34352.91
185.6490, 34115.00
186.8700, 34159.00
188.0910, 34124.00
189.3110, 34227.00
190.5320, 34709.00
191.7530, 34393.00
192.9730, 34904.00
194.1930, 34902.00
195.4130, 35116.00
196.6330, 35425.00
197.8530, 35469.00
199.0730, 35320.00
200.2920, 35425.00
201.5120, 35202.00
202.7310, 35017.41
203.9500, 34700.00
205.1690, 34505.00
206.3880, 34517.00
207.6070, 34291.00
208.8250, 34340.48
210.0440, 34312.00
211.2620, 34439.00
212.4800, 34609.00
213.6980, 34730.00
214.9160, 34774.00
216.1340, 34857.00
217.3510, 35127.00
218.5690, 35445.00
219.7860, 35698.00
221.0030, 35892.50
222.2200, 35889.00
223.4370, 36024.00
224.6540, 35890.00
225.8700, 35480.00
227.0870, 35718.00
228.3030, 35530.00
229.5190, 35645.00
230.7350, 35839.00
231.9510, 35832.00
233.1670, 36132.45
234.3820, 36180.00
235.5980, 36784.00
236.8130, 37414.00
238.0280, 38027.00
239.2430, 39022.00
240.4580, 40370.00
241.6730, 42720.00
242.8880, 43161.00
244.1020, 44568.00
245.3160, 45637.00
246.5300, 46511.00
247.7450, 46484.00
248.9580, 46195.00
250.1720, 45338.00
251.3860, 44293.00
252.5990, 43365.00
253.8130, 42525.00
255.0260, 42169.00
256.2390, 41882.00
257.4520, 41363.00
258.6640, 40925.00
259.8770, 40024.00
261.0890, 39505.00
262.3020, 38721.00
263.5140, 37920.00
264.7260, 37631.00
265.9380, 37396.00
267.1500, 36936.00
268.3610, 36847.00
269.5730, 36908.00
270.7840, 36795.00
271.9950, 36552.00
273.2060, 36748.00
274.4170, 36354.00
275.6280, 36114.00
276.8390, 36301.00
278.0490, 36322.00
279.2590, 36199.00
280.4690, 36066.00
281.6800, 35892.00
282.8890, 36251.00
284.0990, 35932.00
285.3090, 36103.00
286.5180, 35996.00
287.7280, 36015.00
288.9370, 36200.00
290.1460, 36298.00
291.3550, 36231.00
292.5630, 36550.00
293.7720, 36804.00
294.9800, 36618.00
296.1890, 36631.00
297.3970, 37073.00
298.6050, 37397.00
299.8130, 37697.00
301.0200, 38170.91
302.2280, 38593.00
303.4360, 38879.00
304.6430, 39314.00
305.8500, 39279.00
307.0570, 39555.00
308.2640, 39323.00
309.4710, 39010.00
310.6770, 38612.00
311.8840, 38488.00
313.0900, 38085.57
314.2960, 37811.00
315.5020, 37546.00
316.7080, 37682.00
317.9140, 37709.00
319.1190, 37663.00
320.3250, 37454.00
321.5300, 37620.00
322.7350, 37345.00
323.9400, 37297.00
325.1450, 37440.00
326.3500, 37241.00
327.5540, 37354.00
328.7580, 37049.00
329.9630, 37236.00
331.1670, 37361.00
332.3710, 37367.00
333.5750, 37528.00
334.7780, 37432.00
335.9820, 38036.00
337.1850, 37753.00
338.3880, 37984.00
339.5920, 37689.00
340.7950, 38302.00
341.9970, 38075.00
343.2000, 38182.00
344.4030, 38904.00
345.6050, 38785.00
346.8070, 39075.00
348.0090, 39551.00
349.2110, 39911.00
350.4130, 40409.00
351.6150, 41511.00
352.8160, 42543.00
354.0170, 43672.00
355.2190, 44467.00
356.4200, 44926.00
357.6210, 45241.50
358.8210, 45573.00
360.0220, 45076.00
361.2220, 44446.00
362.4230, 43872.00
363.6230, 42343.00
364.8230, 41954.00
366.0230, 40841.00
367.2230, 40278.00
368.4220, 40028.00
369.6220, 39736.00
370.8210, 39531.01
372.0200, 39631.00
373.2190, 39408.00
374.4180, 39508.00
375.6170, 39674.00
376.8150, 39602.00
378.0140, 39656.00
379.2120, 39984.00
380.4100, 39865.00
381.6080, 40166.00
382.8060, 40328.00
384.0040, 40014.00
385.2010, 40435.00
386.3980, 40417.00
387.5960, 41342.00
388.7930, 41770.00
389.9900, 42323.00
391.1870, 43061.00
392.3830, 43072.00
393.5800, 43163.00
394.7760, 42915.00
395.9720, 42518.00
397.1680, 41755.00
398.3640, 41277.00
399.5600, 41139.00
400.7560, 40762.00
401.9510, 40758.00
403.1460, 40639.00
404.3420, 40523.00
405.5370, 40282.00
406.7320, 40518.00
407.9260, 40631.00
409.1210, 40648.00
410.3150, 40444.00
411.5100, 40427.00
412.7040, 40390.00
413.8980, 40547.00
415.0920, 40949.00
416.2850, 40953.61
417.4790, 40965.99
418.6720, 41331.00
419.8650, 41195.00
421.0590, 41566.00
422.2510, 42649.00
423.4440, 43214.00
424.6370, 43535.00
425.8290, 44251.00
427.0220, 44767.00
428.2140, 45345.00
429.4060, 45271.00
430.5980, 45140.00
431.7900, 44496.00
432.9810, 43623.00
434.1730, 43420.00
435.3640, 43221.00
436.5550, 42647.00
437.7460, 42739.00
438.9370, 42241.00
440.1280, 42177.00
441.3190, 42381.00
442.5090, 42048.00
443.6990, 42381.00
444.8890, 42231.00
446.0790, 42568.00
447.2690, 42595.00
448.4590, 42918.00
449.6480, 42979.00
450.8380, 43285.00
452.0270, 43666.00
453.2160, 44263.26
454.4050, 45085.00
455.5940, 45991.00
456.7820, 47160.00
457.9710, 48575.00
459.1590, 49949.00
460.3470, 51386.00
461.5350, 52592.00
462.7230, 53381.00
463.9110, 53583.00
465.0990, 53855.00
466.2860, 53202.00
467.4730, 52391.00
468.6600, 51802.00
469.8470, 51525.00
471.0340, 50804.00
472.2210, 50390.00
473.4070, 49635.00
474.5940, 49062.00
475.7800, 48230.00
476.9660, 47467.00
478.1520, 46762.00
479.3380, 46322.00
480.5230, 46142.00
481.7090, 45756.00
482.8940, 45863.00
484.0790, 45715.00
485.2650, 45766.00
486.4490, 46182.00
487.6340, 46300.00
488.8190, 47104.00
490.0030, 47510.00
491.1870, 48268.19
492.3720, 49489.00
493.5550, 50242.00
494.7390, 51898.00
495.9230, 53610.00
497.1060, 55883.00
498.2900, 59598.00
499.4730, 63928.00
500.6560, 69788.00
501.8390, 77392.00
503.0220, 86700.00
504.2040, 97266.00
505.3870, 107297.0
506.5690, 115371.0
507.7510, 119309.0
508.9330, 119006.0
510.1150, 112021.0
511.2970, 102389.0
512.4780, 90976.00
513.6600, 80899.00
514.8410, 72315.00
516.0220, 65409.00
517.2030, 61260.00
518.3840, 57607.00
519.5650, 55111.00
520.7450, 53451.00
521.9250, 52895.00
523.1060, 51818.00
524.2860, 51631.00
525.4660, 51355.00
526.6450, 50889.00
527.8250, 50671.00
529.0040, 50470.00
530.1840, 49887.00
531.3630, 49402.00
532.5420, 48542.00
533.7200, 48616.00
534.8990, 48082.00
536.0780, 48074.00
537.2560, 47319.00
538.4340, 47881.00
539.6120, 47396.00
540.7900, 47309.00
541.9680, 47582.00
543.1460, 47309.00
544.3230, 47464.00
545.5000, 47606.00
546.6770, 48038.00
547.8540, 48663.00
549.0310, 49063.00
550.2080, 49731.00
551.3840, 50224.00
552.5610, 50318.00
553.7370, 50769.00
554.9130, 50392.00
556.0890, 50533.00
557.2650, 49962.00
558.4400, 49450.00
559.6160, 49262.00
560.7910, 48582.00
561.9660, 48403.00
563.1410, 48035.00
564.3160, 48038.00
565.4910, 47896.00
566.6650, 47798.00
567.8400, 47806.00
569.0140, 47794.00
570.1880, 47849.00
571.3620, 47754.00
572.5360, 47853.00
573.7090, 47865.00
574.8830, 48132.00
576.0560, 48313.00
577.2290, 48245.58
578.4020, 48108.00
579.5750, 48207.00
580.7480, 48258.50
581.9200, 48666.52
583.0930, 48632.00
584.2650, 48895.00
585.4370, 49294.00
586.6090, 49421.00
587.7810, 49903.00
588.9520, 50412.00
590.1240, 51398.00
591.2950, 51484.00
592.4660, 52005.00
593.6370, 52286.00
594.8080, 52166.00
595.9790, 52057.00
597.1500, 51297.00
598.3200, 51199.00
599.4900, 50547.00
600.6600, 50374.00
601.8300, 50285.50
603.0000, 50530.69
604.1700, 50676.21
605.3390, 50727.41
606.5080, 50401.84
607.6770, 50562.79
608.8460, 50543.00
610.0150, 51353.00
611.1840, 52272.00
612.3520, 53266.00
613.5210, 53307.00
614.6890, 54309.00
615.8570, 54555.00
617.0250, 55040.00
618.1930, 54416.00
619.3600, 53818.00
620.5280, 53589.00
621.6950, 52852.00
622.8620, 52287.00
624.0290, 51607.00
625.1960, 51599.00
626.3630, 51309.00
627.5290, 50979.00
628.6960, 50983.00
629.8620, 50602.00
631.0280, 50517.68
632.1940, 50540.00
633.3600, 50350.00
634.5250, 50314.00
635.6910, 50421.00
636.8560, 50666.00
638.0210, 50317.00
639.1860, 50446.00
640.3510, 50373.00
641.5150, 50328.00
642.6800, 50495.00
643.8440, 50709.00
645.0080, 50635.00
646.1720, 50835.00
647.3360, 50852.00
648.5000, 50707.00
649.6640, 50892.00
650.8270, 51184.00
651.9900, 51107.00
653.1530, 51263.00
654.3160, 50991.00
655.4790, 50902.00
656.6420, 50954.00
657.8040, 51087.00
658.9660, 51208.00
660.1290, 51015.00
661.2910, 51382.00
662.4520, 50934.00
663.6140, 51175.00
664.7760, 51561.00
665.9370, 51381.00
667.0980, 51240.00
668.2590, 51078.00
669.4200, 51920.00
670.5810, 51633.00
671.7420, 51907.00
672.9020, 52172.00
674.0620, 52051.00
675.2220, 52553.00
676.3820, 52682.74
677.5420, 53656.00
678.7020, 53329.00
679.8610, 53995.00
681.0210, 54608.00
682.1800, 54543.00
683.3390, 54499.00
684.4980, 54752.00
685.6560, 54273.00
686.8150, 54167.00
687.9730, 53548.00
689.1320, 53017.00
690.2900, 52747.00
691.4480, 52620.00
692.6050, 52575.00
693.7630, 52798.00
694.9200, 52349.00
696.0780, 52640.00
697.2350, 52147.00
698.3920, 52569.00
699.5490, 52667.00
700.7050, 52268.00
701.8620, 52528.00
703.0180, 52559.00
704.1740, 52996.00
705.3300, 52827.00
706.4860, 52963.00
707.6420, 53172.00
708.7970, 53405.00
709.9530, 53604.01
711.1080, 53902.00
712.2630, 54110.00
713.4180, 54089.00
714.5730, 54415.00
715.7280, 54438.00
716.8820, 54667.00
718.0360, 54622.00
719.1900, 54444.00
720.3440, 54409.00
721.4980, 54684.00
722.6520, 54916.00
723.8050, 55361.00
724.9590, 55059.00
726.1120, 55188.00
727.2650, 55197.00
728.4180, 55155.00
729.5700, 54682.00
730.7230, 54888.00
731.8750, 54309.00
733.0280, 54444.00
734.1800, 54345.00
735.3320, 54538.00
736.4830, 54381.00
737.6350, 54550.00
738.7860, 54421.00
739.9380, 54901.00
741.0890, 54876.00
742.2400, 55065.00
743.3910, 55392.00
744.5410, 55770.00
745.6920, 56448.00
746.8420, 56965.00
747.9920, 57968.00
749.1420, 58526.00
750.2920, 58867.00
751.4420, 58876.00
752.5910, 58923.00
753.7410, 58729.00
754.8900, 57936.00
756.0390, 57776.00
757.1880, 56727.00
758.3370, 56456.00
759.4850, 56062.00
760.6340, 55423.00
761.7820, 55568.00
762.9300, 55580.00
764.0780, 55421.00
765.2260, 55556.00
766.3730, 55427.00
767.5210, 55381.00
768.6680, 55422.34
769.8150, 55430.00
770.9620, 55497.00
772.1090, 55419.00
773.2560, 55585.00
774.4020, 55423.00
775.5490, 55444.00
776.6950, 55521.00
777.8410, 55750.00
778.9870, 55556.00
780.1330, 55479.27
781.2780, 55744.21
782.4230, 55909.48
783.5690, 55980.48
784.7140, 55674.66
785.8590, 55855.38
787.0030, 55841.08
788.1480, 55818.82
789.2920, 56067.98
790.4370, 55816.96
791.5810, 56061.82
792.7250, 56108.72
793.8690, 56246.22
795.0120, 56187.50
796.1560, 56189.41
797.2990, 56387.53
798.4420, 56476.99
799.5850, 56073.00
800.7280, 56721.00
801.8710, 56519.11
803.0130, 56932.00
804.1550, 56693.00
805.2980, 56870.00
806.4400, 56923.00
807.5810, 56786.00
808.7230, 57239.00
809.8650, 56656.00
811.0060, 56825.00
812.1470, 57216.00
813.2880, 56802.00
814.4290, 57531.00
815.5700, 56978.00
816.7110, 57586.00
817.8510, 57226.00
818.9910, 57331.00
820.1310, 57671.00
821.2710, 57316.00
822.4110, 57545.00
823.5510, 57675.00
824.6900, 57974.00
825.8290, 57874.00
826.9680, 58062.00
828.1070, 58054.00
829.2460, 57814.00
830.3850, 57752.00
831.5230, 57965.00
832.6620, 58342.00
833.8000, 58216.00
834.9380, 58378.00
836.0760, 58547.00
837.2130, 58384.00
838.3510, 58840.00
839.4880, 58595.00
840.6250, 58543.00
841.7620, 58864.00
842.8990, 59153.00
844.0360, 59103.00
845.1720, 58956.00
846.3090, 59510.00
847.4450, 59353.00
848.5810, 59548.00
849.7170, 59488.00
850.8530, 59792.00
851.9880, 59307.00
853.1240, 59651.00
854.2590, 59893.00
855.3940, 59669.00
856.5290, 60195.00
857.6640, 59838.00
858.7980, 60342.00
859.9330, 59980.00
861.0670, 60154.00
862.2010, 60277.00
863.3350, 60183.00
864.4690, 60273.00
865.6030, 60418.00
866.7360, 60549.00
867.8690, 60045.00
869.0020, 60381.00
870.1350, 60213.00
871.2680, 60653.00
872.4010, 60678.00
873.5330, 60721.84
874.6660, 60604.00
875.7980, 60769.00
876.9300, 60608.00
878.0620, 60532.00
879.1930, 61061.00
880.3250, 60881.00
881.4560, 60583.00
882.5870, 60770.00
883.7180, 60520.00
884.8490, 60871.00
885.9800, 61254.00
887.1100, 61205.00
888.2410, 61183.00
889.3710, 61419.00
890.5010, 61219.00
891.6310, 61290.00
892.7610, 61269.00
893.8900, 61449.00
895.0200, 61399.00
896.1490, 61688.00
897.2780, 61583.00
898.4070, 62001.00
899.5360, 62084.00
900.6640, 62105.00
901.7920, 62044.00
902.9210, 62158.00
904.0490, 62003.72
905.1770, 62315.91
906.3040, 62528.36
907.4320, 62646.58
908.5600, 62388.02
909.6870, 62615.91
910.8140, 62648.83
911.9410, 62673.75
913.0680, 62970.12
914.1940, 62766.21
915.3210, 63058.28
916.4470, 63152.32
917.5730, 63336.95
918.6990, 63325.41
919.8250, 63374.45
920.9500, 63619.68
922.0760, 63756.30
923.2010, 63722.10
924.3260, 63912.41
925.4510, 63701.58
926.5760, 63842.76
927.7010, 64135.82
928.8250, 64111.41
929.9500, 64305.32
931.0740, 64416.02
932.1980, 64148.98
933.3220, 64538.89
934.4450, 64644.61
935.5690, 64458.69
936.6920, 65131.00
937.8150, 65774.00
938.9380, 65412.00
940.0610, 66195.00
941.1840, 66114.00
942.3060, 66033.00
943.4290, 66479.00
944.5510, 66483.00
945.6730, 66560.00
946.7950, 66600.00
947.9160, 66395.12
949.0380, 66774.00
950.1590, 66037.00
951.2800, 66309.00
952.4010, 66390.00
953.5220, 65932.00
954.6430, 66175.00
955.7630, 66281.00
956.8840, 66132.00
958.0040, 66351.00
959.1240, 66728.00
960.2440, 66847.43
961.3640, 67085.00
962.4830, 67365.00
963.6030, 68237.00
964.7220, 68420.00
965.8410, 68952.00
966.9600, 70342.00
968.0780, 71431.00
969.1970, 72426.00
970.3150, 73156.00
971.4340, 73587.00
972.5520, 73877.00
973.6700, 73720.00
974.7870, 73112.00
975.9050, 72102.00
977.0220, 72293.00
978.1390, 72170.00
979.2560, 72805.00
980.3730, 73805.00
981.4900, 75146.00
982.6070, 76499.00
983.7230, 77287.00
984.8390, 78075.00
985.9550, 78263.00
987.0710, 77547.00
988.1870, 76301.00
989.3030, 74770.00
990.4180, 73575.00
991.5330, 72702.00
992.6480, 72664.00
993.7630, 72067.00
994.8780, 72246.00
995.9930, 72672.00
997.1070, 72623.00
998.2210, 72665.00
999.3350, 71828.00
1000.449, 71758.00
1001.563, 71018.00
1002.677, 70924.00
1003.790, 70739.00
1004.903, 70288.00
1006.016, 70548.00
1007.129, 70505.00
1008.242, 70826.00
1009.355, 71679.00
1010.467, 71856.00
1011.579, 72544.00
1012.691, 73117.00
1013.803, 73575.00
1014.915, 73358.33
1016.027, 73631.91
1017.138, 73593.67
1018.249, 73249.12
1019.360, 72315.80
1020.471, 71542.00
1021.582, 71464.00
1022.693, 70617.00
1023.803, 70088.00
1024.913, 69974.00
1026.023, 69311.00
1027.133, 69343.00
1028.243, 69243.00
1029.353, 69196.00
1030.462, 69241.34
1031.571, 69129.00
1032.680, 69131.99
1033.789, 69134.00
1034.898, 69113.15
1036.007, 69091.04
1037.115, 69170.00
1038.223, 69013.00
1039.331, 69039.00
1040.439, 69111.00
1041.547, 69284.00
1042.655, 69241.00
1043.762, 69560.00
1044.869, 69553.00
1045.976, 69723.00
1047.083, 70204.00
1048.190, 70550.00
1049.297, 70972.00
1050.403, 71177.00
1051.509, 71687.00
1052.615, 72331.00
1053.721, 73156.00
1054.827, 72967.00
1055.933, 73106.00
1057.038, 73261.00
1058.143, 72670.00
1059.248, 72650.00
1060.353, 71876.00
1061.458, 72072.00
1062.563, 71433.00
1063.667, 71243.00
1064.771, 71069.00
1065.875, 70760.00
1066.979, 70730.00
1068.083, 70433.00
1069.186, 70524.00
1070.290, 70138.52
1071.393, 70567.35
1072.496, 70859.61
1073.599, 71021.17
1074.702, 70741.30
1075.804, 70969.61
1076.907, 70956.55
1078.009, 70907.73
1079.111, 71130.60
1080.213, 70776.33
1081.315, 70940.63
1082.416, 71228.00
1083.517, 71537.00
1084.619, 71505.00
1085.720, 71465.00
1086.821, 71383.00
1087.921, 71885.00
1089.022, 71817.00
1090.122, 71746.85
1091.222, 71609.00
1092.322, 71504.00
1093.422, 71326.00
1094.522, 71363.00
1095.622, 71392.45
1096.721, 71666.00
1097.820, 71603.00
1098.919, 71719.66
1100.018, 71801.00
1101.117, 71657.00
1102.215, 71923.00
1103.314, 71803.00
1104.412, 71732.00
1105.510, 71926.00
1106.608, 71692.00
1107.705, 72090.00
1108.803, 72353.00
1109.900, 72261.00
1110.997, 72511.00
1112.094, 72229.00
1113.191, 72430.00
1114.288, 72343.00
1115.384, 72149.00
1116.481, 72394.00
1117.577, 72486.00
1118.673, 72362.00
1119.769, 72865.00
1120.864, 72551.00
1121.960, 72659.00
1123.055, 72272.00
1124.150, 72540.00
1125.245, 72254.00
1126.340, 72916.00
1127.434, 72504.57
1128.529, 72780.05
1129.623, 72945.86
1130.717, 73007.94
1131.811, 72655.55
1132.905, 72838.36
1133.999, 72806.68
1135.092, 72766.19
1136.185, 73024.30
1137.279, 72732.20
1138.371, 72985.54
1139.464, 73021.16
1140.557, 73156.43
1141.649, 73075.88
1142.742, 73062.01
1143.834, 73424.00
1144.926, 73436.00
1146.017, 73485.00
1147.109, 73407.00
1148.200, 73752.00
1149.292, 73567.00
1150.383, 74068.00
1151.474, 73867.00
1152.564, 74028.00
1153.655, 73949.00
1154.745, 74088.00
1155.835, 74348.00
1156.925, 74208.00
1158.015, 74263.00
1159.105, 74080.00
1160.195, 74540.00
1161.284, 74760.00
1162.373, 74536.00
1163.462, 74312.00
1164.551, 74672.00
1165.640, 74891.00
1166.728, 74927.00
1167.817, 74993.00
1168.905, 75021.58
1169.993, 74931.00
1171.081, 75018.00
1172.168, 74940.00
1173.256, 75021.00
1174.343, 75120.18
1175.430, 75423.19
1176.517, 75616.56
1177.604, 75706.20
1178.691, 75381.38
1179.777, 75591.70
1180.864, 75587.59
1181.950, 75574.62
1183.036, 75860.27
1184.121, 75595.63
1185.207, 75876.54
1186.293, 75939.70
1187.378, 76102.47
1188.463, 76049.43
1189.548, 76063.04
1190.633, 76292.54
1191.717, 76402.45
1192.802, 76324.57
1193.886, 76493.62
1194.970, 76221.40
1196.054, 76336.40
1197.138, 76618.47
1198.221, 76551.34
1199.305, 76724.35
1200.388, 76805.86
1201.471, 76471.85
1202.554, 76860.48
1203.637, 76936.59
1204.719, 76691.77
1205.801, 77055.59
1206.884, 76855.05
1207.966, 76855.93
1209.048, 77008.41
1210.129, 77002.80
1211.211, 77246.42
1212.292, 77249.93
1213.373, 77232.00
1214.454, 77307.66
1215.535, 77118.10
1216.616, 77303.09
1217.696, 77225.00
1218.777, 77521.00
1219.857, 77488.00
1220.937, 77628.00
1222.017, 77573.00
1223.096, 77405.00
1224.176, 77634.00
1225.255, 77717.00
1226.334, 77910.00
1227.413, 78106.00
1228.492, 77508.00
1229.570, 77803.00
1230.649, 77730.00
1231.727, 77740.00
1232.805, 78145.00
1233.883, 78119.00
1234.961, 78357.00
1236.038, 78318.00
1237.116, 78658.00
1238.193, 78841.00
1239.270, 78921.00
1240.347, 79147.00
1241.424, 78807.00
1242.500, 79103.00
1243.577, 79024.00
1244.653, 79083.00
1245.729, 79356.00
1246.805, 79454.00
1247.880, 79525.00
1248.956, 79178.00
1250.031, 79397.00
1251.106, 79349.00
1252.181, 79353.00
1253.256, 79674.00
1254.331, 79337.00
1255.405, 79178.00
1256.480, 79846.00
1257.554, 80100.00
1258.628, 79696.00
1259.701, 79505.00
1260.775, 79905.00
1261.849, 79772.00
1262.922, 80082.00
1263.995, 80133.00
1265.068, 80175.00
1266.141, 80199.00
1267.213, 80235.59
1268.286, 80303.00
1269.358, 80343.00
1270.430, 80557.00
1271.502, 80744.00
1272.573, 80537.00
1273.645, 81210.00
1274.716, 80920.00
1275.788, 80812.00
1276.859, 81468.00
1277.929, 81151.00
1279.000, 80954.00
1280.071, 81259.00
1281.141, 80897.00
1282.211, 81242.00
1283.281, 81008.00
1284.351, 81312.00
1285.421, 81598.00
1286.490, 81302.00
1287.559, 81290.00
1288.628, 81451.00
1289.697, 81643.00
1290.766, 81427.84
1291.835, 81750.23
1292.903, 81962.92
1293.972, 82071.95
1295.040, 81766.45
1296.108, 81996.12
1297.175, 82011.26
1298.243, 82017.66
1299.310, 82322.60
1300.377, 82077.30
1301.444, 82377.50
1302.511, 82459.95
1303.578, 82642.06
1304.645, 82608.38
1305.711, 82641.27
1306.777, 82890.03
1307.843, 83019.27
1308.909, 82960.67
1309.975, 83149.04
1311.040, 82896.08
1312.105, 83030.34
1313.171, 83331.73
1314.235, 83283.84
1315.300, 83476.10
1316.365, 83576.92
1317.429, 83095.00
1318.494, 83231.00
1319.558, 83368.00
1320.622, 83332.00
1321.685, 83158.00
1322.749, 83519.00
1323.812, 83341.00
1324.876, 83421.00
1325.939, 83421.00
1327.001, 83375.00
1328.064, 83354.00
1329.127, 83369.43
1330.189, 83367.00
1331.251, 83417.00
1332.313, 83423.00
1333.375, 83474.19
1334.437, 83780.00
1335.498, 83408.00
1336.560, 83582.00
1337.621, 83321.00
1338.682, 83317.00
1339.742, 83745.00
1340.803, 83586.00
1341.863, 84008.00
1342.924, 83973.00
1343.984, 83586.00
1345.044, 84081.00
1346.104, 83783.00
1347.163, 84147.00
1348.222, 83726.00
1349.282, 83901.00
1350.341, 84227.00
1351.400, 84566.00
1352.458, 84282.00
1353.517, 84192.00
1354.575, 84375.00
1355.633, 84434.00
1356.691, 83969.00
1357.749, 84487.00
1358.807, 85013.00
1359.864, 84676.00
1360.922, 84723.00
1361.979, 84592.00
1363.036, 84686.00
1364.092, 84677.00
1365.149, 84395.00
1366.205, 84931.00
1367.262, 84565.00
1368.318, 85140.00
1369.374, 84966.00
1370.429, 84882.00
1371.485, 85003.00
1372.540, 85118.00
1373.596, 85319.00
1374.651, 85351.00
1375.705, 85188.00
1376.760, 85419.00
1377.815, 85376.00
1378.869, 85464.72
1379.923, 85755.69
1380.977, 85937.02
1382.031, 86014.62
1383.085, 85677.76
1384.138, 85876.05
1385.191, 85859.86
1386.244, 85834.88
1387.297, 86108.48
1388.350, 85831.87
1389.403, 86100.74
1390.455, 86151.83
1391.507, 86302.57
1392.559, 86237.52
1393.611, 86239.12
1394.663, 86456.59
1395.714, 86554.48
1396.766, 86464.59
1397.817, 86621.63
1398.868, 86337.40
1399.919, 86440.39
1400.969, 86710.41
1402.020, 86631.33
1403.070, 86792.27
1404.120, 86861.80
1405.170, 86515.78
1406.220, 86892.41
1407.270, 86956.53
1408.319, 86699.71
1409.368, 87051.55
1410.417, 86838.97
1411.466, 86827.84
1412.515, 86968.34
1413.563, 86950.75
1414.612, 87182.38
1415.660, 87173.91
1416.708, 87143.99
1417.756, 87207.68
1418.803, 87006.09
1419.851, 87296.60
1420.898, 87250.96
1421.945, 87372.39
1422.992, 87531.70
1424.039, 87401.02
1425.086, 87577.34
1426.132, 87277.55
1427.178, 87376.11
1428.225, 87431.81
1429.270, 87742.05
1430.316, 87444.59
1431.362, 87532.07
1432.407, 87783.43
1433.452, 87805.45
1434.497, 87923.34
1435.542, 87757.38
1436.587, 87858.08
1437.631, 87885.24
1438.676, 88166.45
1439.720, 88247.09
1440.764, 88085.90
1441.807, 87925.69
1442.851, 88225.13
1443.895, 88088.95
1444.938, 88187.75
1445.981, 88043.82
1447.024, 88109.48
1448.066, 88171.76
1449.109, 88341.52
1450.151, 88185.47
1451.194, 88452.03
1452.236, 88474.32
1453.277, 88568.52
1454.319, 88654.74
1455.361, 88413.23
1456.402, 88440.35
1457.443, 88851.91
1458.484, 88677.18
1459.525, 88620.78
1460.565, 88648.46
1461.606, 89073.18
1462.646, 89128.86
1463.686, 88743.46
1464.726, 89150.65
1465.766, 89070.23
1466.805, 89134.66
1467.845, 89146.27
1468.884, 89173.49
1469.923, 89001.65
1470.962, 89092.14
1472.000, 89395.88
1473.039, 89336.02
1474.077, 89523.22
1475.115, 89260.10
1476.153, 89264.28
1477.191, 89339.41
1478.229, 89440.42
1479.266, 89334.63
1480.303, 89642.33
1481.340, 89674.71
1482.377, 89468.52
1483.414, 89521.14
1484.451, 89530.79
1485.487, 89987.75
1486.523, 89829.65
1487.559, 89628.00
1488.595, 89913.93
1489.631, 90043.59
1490.666, 89961.92
1491.701, 89992.53
1492.736, 89810.13
1493.771, 89954.38
1494.806, 89986.29
1495.841, 90203.29
1496.875, 90021.71
1497.909, 90298.94
1498.943, 90128.05
1499.977, 90423.85
1501.011, 90243.49
1502.045, 90487.30
1503.078, 90224.77
1504.111, 90328.69
1505.144, 90461.66
1506.177, 90509.66
1507.209, 90787.56
1508.242, 90965.85
1509.274, 91049.79
1510.306, 90756.94
1511.338, 90950.62
1512.370, 90949.33
1513.402, 90940.04
1514.433, 91202.15
1515.464, 90964.05
1516.495, 91221.87
1517.526, 91281.72
1518.557, 91432.17
1519.587, 91386.39
1520.617, 91401.20
1521.648, 91612.31
1522.678, 91714.71
1523.707, 91646.30
1524.737, 91802.46
1525.766, 91557.41
1526.796, 91664.44
1527.825, 91923.30
1528.854, 91864.75
1529.882, 92024.40
1530.911, 92100.98
1531.939, 91799.76
1532.967, 92155.48
1533.995, 92227.10
1535.023, 92007.00
1536.051, 92340.22
1537.078, 92160.29
1538.106, 92163.55
1539.133, 92304.59
1540.160, 92301.95
1541.186, 92525.80
1542.213, 92531.45
1543.239, 92517.56
1544.266, 92588.81
1545.292, 92418.90
1546.318, 92696.30
1547.343, 92668.10
1548.369, 92791.84
1549.394, 92949.95
1550.419, 92844.45
1551.444, 93018.03
1552.469, 92758.83
1553.494, 92861.76
1554.518, 92925.63
1555.542, 93220.98
1556.566, 92963.84
1557.590, 93056.65
1558.614, 93298.47
1559.638, 93331.80
1560.661, 93452.25
1561.684, 93314.62
1562.707, 93419.45
1563.730, 93457.44
1564.753, 93726.35
1565.775, 93812.91
1566.797, 93679.62
1567.819, 93547.26
1568.841, 93832.73
1569.863, 93722.20
1570.885, 93825.30
1571.906, 93707.69
1572.927, 93780.60
1573.948, 93850.50
1574.969, 94018.06
1575.990, 93793.00
1577.010, 94670.00
##END=



