##NAMES=Cerussite
##RRUFFID=R060017
##IDEAL CHEMISTRY=Pb^2+^CO_3_
##LOCALITY=Gonessa, Sardinia, Italy
##OWNER=RRUFF
##SOURCE=American Museum of Natural History
##DESCRIPTION=White reticulated composite
##STATUS=The identification of this mineral has been confirmed by X-ray diffraction and chemical analysis
##URL=rruff.info/R060017
##MEASURED CHEMISTRY=Pb_1.00_CO_3_ C not measured but estimated by difference and stoichiometry
##PIN_ID=M00430
##ORIENTATION=Laser parallel to c* (0 0 1). Fiducial mark perpendicular to laser is parallel to a [1 0 0]
51.43100, 938.0000
52.67100, 1182.000
53.91000, 1325.000
55.14900, 1513.000
56.38700, 1620.000
57.62600, 1794.000
58.86400, 2252.000
60.10300, 2935.000
61.34100, 3933.000
62.57900, 5321.000
63.81700, 6652.000
65.05400, 8335.000
66.29200, 9967.000
67.52900, 11821.00
68.76700, 12998.00
70.00400, 13740.00
71.24100, 13807.00
72.47700, 13472.00
73.71400, 12681.00
74.95100, 12021.00
76.18700, 11232.00
77.42300, 10600.00
78.65900, 10343.00
79.89500, 9894.000
81.13100, 9754.000
82.36700, 9849.000
83.60200, 9886.000
84.83700, 10079.00
86.07200, 10557.00
87.30800, 10813.00
88.54200, 11413.00
89.77700, 12270.00
91.01200, 12835.00
92.24600, 13418.00
93.48000, 14153.00
94.71400, 14577.00
95.94800, 15211.00
97.18200, 15724.00
98.41600, 15941.00
99.64900, 16271.00
100.8830, 16502.00
102.1160, 16383.00
103.3490, 16218.00
104.5820, 15871.00
105.8150, 15741.00
107.0470, 15543.00
108.2800, 15235.00
109.5120, 15243.00
110.7440, 15067.00
111.9760, 15210.00
113.2080, 15184.00
114.4400, 15224.00
115.6710, 15228.00
116.9030, 15226.00
118.1340, 14898.00
119.3650, 14791.00
120.5960, 14441.00
121.8270, 14270.00
123.0580, 13763.00
124.2880, 13604.00
125.5190, 13310.00
126.7490, 13182.00
127.9790, 13119.00
129.2090, 12994.00
130.4390, 12881.29
131.6680, 12713.00
132.8980, 12642.00
134.1270, 12308.00
135.3560, 12173.00
136.5850, 11880.00
137.8140, 11707.00
139.0430, 11523.00
140.2710, 11364.00
141.5000, 11226.00
142.7280, 11015.00
143.9560, 10899.34
145.1840, 10889.00
146.4120, 10623.00
147.6390, 10526.00
148.8670, 10368.00
150.0940, 10003.00
151.3210, 9823.000
152.5490, 9426.000
153.7750, 9318.000
155.0020, 8925.000
156.2290, 8739.000
157.4550, 8488.000
158.6810, 8378.000
159.9080, 8310.000
161.1340, 8242.000
162.3590, 8222.000
163.5850, 8205.784
164.8110, 8216.000
166.0360, 8228.000
167.2610, 8272.000
168.4860, 8299.000
169.7110, 8342.000
170.9360, 8425.000
172.1610, 8446.000
173.3850, 8455.000
174.6100, 8425.000
175.8340, 8275.000
177.0580, 8286.000
178.2820, 8094.000
179.5050, 8059.225
180.7290, 8006.000
181.9520, 7980.000
183.1760, 7985.000
184.3990, 7946.342
185.6220, 7979.000
186.8450, 7934.000
188.0670, 7952.000
189.2900, 8007.000
190.5120, 8163.000
191.7340, 8159.000
192.9560, 8148.000
194.1780, 8395.000
195.4000, 8510.000
196.6220, 8871.000
197.8430, 8767.000
199.0640, 9064.000
200.2860, 9181.000
201.5070, 9396.000
202.7270, 9554.000
203.9480, 9718.000
205.1690, 9836.000
206.3890, 10004.00
207.6090, 10104.00
208.8290, 10273.00
210.0490, 10310.00
211.2690, 10434.00
212.4890, 10466.00
213.7080, 10302.00
214.9280, 10251.00
216.1470, 10266.00
217.3660, 10145.00
218.5850, 10030.00
219.8030, 9887.000
221.0220, 9744.888
222.2400, 9602.000
223.4590, 9430.000
224.6770, 9236.000
225.8950, 9060.000
227.1120, 8877.319
228.3300, 8762.000
229.5480, 8511.000
230.7650, 8323.000
231.9820, 8134.000
233.1990, 8041.000
234.4160, 7873.000
235.6330, 7753.000
236.8490, 7713.000
238.0660, 7521.000
239.2820, 7346.000
240.4980, 7160.000
241.7140, 7111.000
242.9300, 7047.000
244.1460, 7025.000
245.3610, 6953.000
246.5770, 6906.000
247.7920, 6824.388
249.0070, 6754.667
250.2220, 6610.000
251.4370, 6624.000
252.6510, 6453.000
253.8660, 6430.000
255.0800, 6405.000
256.2940, 6278.000
257.5080, 6370.000
258.7220, 6208.000
259.9360, 6232.000
261.1490, 6227.000
262.3630, 6218.000
263.5760, 6194.000
264.7890, 6135.000
266.0020, 6113.000
267.2150, 6110.000
268.4270, 6060.000
269.6400, 6109.000
270.8520, 6101.000
272.0640, 6066.000
273.2760, 6173.000
274.4880, 6041.000
275.7000, 6076.000
276.9120, 6051.000
278.1230, 5977.000
279.3340, 6003.000
280.5450, 5885.000
281.7560, 5952.000
282.9670, 6035.000
284.1780, 5951.000
285.3880, 5983.000
286.5980, 5976.000
287.8090, 6009.000
289.0190, 5933.000
290.2290, 6055.000
291.4380, 5865.000
292.6480, 5988.000
293.8570, 5974.000
295.0670, 5990.000
296.2760, 5924.000
297.4850, 5964.000
298.6930, 6028.000
299.9020, 5914.000
301.1110, 6038.000
302.3190, 5864.000
303.5270, 5891.000
304.7350, 5982.000
305.9430, 5912.000
307.1510, 5944.000
308.3580, 5994.000
309.5660, 5960.000
310.7730, 5953.000
311.9800, 5948.000
313.1870, 5942.000
314.3940, 6047.000
315.6010, 5942.000
316.8070, 5937.000
318.0130, 6038.000
319.2200, 5969.000
320.4260, 5939.000
321.6310, 5983.000
322.8370, 6060.000
324.0430, 5984.000
325.2480, 5947.000
326.4540, 5924.000
327.6590, 5998.000
328.8640, 5994.000
330.0680, 6025.000
331.2730, 6042.000
332.4780, 6020.000
333.6820, 5999.000
334.8860, 5983.000
336.0900, 6019.000
337.2940, 6064.000
338.4980, 6030.000
339.7010, 6090.000
340.9050, 6054.000
342.1080, 6036.000
343.3110, 6089.000
344.5140, 6133.000
345.7170, 6084.000
346.9200, 6175.000
348.1220, 6093.000
349.3240, 6061.000
350.5270, 6102.000
351.7290, 6176.000
352.9310, 6192.000
354.1320, 6120.000
355.3340, 6212.000
356.5350, 6149.000
357.7370, 6235.000
358.9380, 6136.000
360.1390, 6212.000
361.3400, 6125.000
362.5400, 6252.000
363.7410, 6160.000
364.9410, 6141.000
366.1410, 6151.000
367.3410, 6117.000
368.5410, 6144.623
369.7410, 6152.000
370.9400, 6211.000
372.1400, 6213.000
373.3390, 6287.000
374.5380, 6358.000
375.7370, 6265.000
376.9360, 6254.000
378.1350, 6233.000
379.3330, 6323.000
380.5310, 6314.000
381.7300, 6381.000
382.9280, 6281.000
384.1260, 6332.000
385.3230, 6236.000
386.5210, 6347.000
387.7180, 6426.000
388.9160, 6341.000
390.1130, 6411.000
391.3100, 6451.000
392.5060, 6462.000
393.7030, 6486.638
394.9000, 6422.000
396.0960, 6465.000
397.2920, 6450.000
398.4880, 6383.000
399.6840, 6517.000
400.8800, 6551.000
402.0750, 6429.000
403.2710, 6457.000
404.4660, 6364.000
405.6610, 6393.000
406.8560, 6397.474
408.0510, 6472.000
409.2450, 6443.000
410.4400, 6469.000
411.6340, 6497.000
412.8280, 6568.000
414.0220, 6566.837
415.2160, 6587.000
416.4100, 6596.000
417.6030, 6539.000
418.7970, 6560.000
419.9900, 6533.000
421.1830, 6492.000
422.3760, 6534.000
423.5690, 6582.000
424.7610, 6581.000
425.9540, 6519.000
427.1460, 6585.000
428.3380, 6553.000
429.5300, 6603.000
430.7220, 6602.000
431.9140, 6670.000
433.1050, 6557.000
434.2970, 6618.000
435.4880, 6519.000
436.6790, 6628.000
437.8700, 6648.000
439.0610, 6637.000
440.2510, 6731.000
441.4420, 6711.000
442.6320, 6573.000
443.8220, 6754.000
445.0120, 6641.000
446.2020, 6726.000
447.3910, 6724.000
448.5810, 6781.000
449.7700, 6701.000
450.9600, 6794.000
452.1490, 6755.000
453.3370, 6780.000
454.5260, 6783.000
455.7150, 6779.000
456.9030, 6786.665
458.0910, 6846.000
459.2800, 6774.000
460.4670, 6788.000
461.6550, 6763.000
462.8430, 6816.000
464.0300, 6866.000
465.2180, 6814.000
466.4050, 6885.000
467.5920, 6860.000
468.7790, 6864.000
469.9650, 6917.000
471.1520, 6933.000
472.3380, 6935.000
473.5250, 6957.086
474.7110, 6969.000
475.8970, 6968.000
477.0820, 6986.000
478.2680, 6993.000
479.4540, 6978.000
480.6390, 6925.000
481.8240, 7005.000
483.0090, 6865.000
484.1940, 6924.000
485.3780, 6955.000
486.5630, 7031.000
487.7470, 7045.000
488.9320, 7005.000
490.1160, 7088.000
491.3000, 7080.000
492.4830, 7148.000
493.6670, 7149.201
494.8500, 7087.000
496.0340, 7122.000
497.2170, 7164.000
498.4000, 7095.000
499.5820, 7178.000
500.7650, 7141.000
501.9480, 7139.000
503.1300, 7285.000
504.3120, 7236.000
505.4940, 7169.000
506.6760, 7106.000
507.8580, 7176.000
509.0390, 7259.000
510.2210, 7119.000
511.4020, 7066.000
512.5830, 7199.000
513.7640, 7293.000
514.9450, 7321.000
516.1250, 7161.000
517.3060, 7260.000
518.4860, 7306.000
519.6660, 7188.000
520.8460, 7223.000
522.0260, 7323.000
523.2060, 7261.000
524.3850, 7195.000
525.5650, 7235.000
526.7440, 7249.000
527.9230, 7312.000
529.1020, 7353.000
530.2810, 7260.000
531.4590, 7383.000
532.6380, 7259.000
533.8160, 7343.000
534.9940, 7370.000
536.1720, 7328.000
537.3500, 7448.000
538.5270, 7377.000
539.7050, 7361.000
540.8820, 7342.000
542.0590, 7475.000
543.2360, 7435.000
544.4130, 7431.000
545.5900, 7407.000
546.7660, 7406.002
547.9430, 7364.000
549.1190, 7434.000
550.2950, 7412.000
551.4710, 7466.690
552.6470, 7464.000
553.8220, 7484.000
554.9980, 7467.000
556.1730, 7399.000
557.3480, 7393.000
558.5230, 7422.050
559.6980, 7466.000
560.8730, 7550.000
562.0470, 7568.000
563.2220, 7701.000
564.3960, 7468.000
565.5700, 7652.000
566.7440, 7550.000
567.9170, 7577.000
569.0910, 7557.000
570.2640, 7542.000
571.4380, 7572.000
572.6110, 7525.000
573.7840, 7549.000
574.9570, 7725.000
576.1290, 7725.000
577.3020, 7657.000
578.4740, 7581.000
579.6460, 7701.000
580.8180, 7724.000
581.9900, 7755.000
583.1620, 7716.000
584.3330, 7778.000
585.5040, 7740.000
586.6760, 7738.324
587.8470, 7773.000
589.0180, 7706.000
590.1880, 7757.000
591.3590, 7733.000
592.5290, 7828.000
593.7000, 7713.000
594.8700, 7733.000
596.0400, 7739.000
597.2090, 7880.000
598.3790, 7876.000
599.5490, 7816.000
600.7180, 7891.000
601.8870, 7783.000
603.0560, 7876.000
604.2250, 7953.000
605.3940, 7879.000
606.5620, 7945.000
607.7300, 7882.000
608.8990, 7944.000
610.0670, 8031.000
611.2350, 8059.000
612.4020, 7975.000
613.5700, 8073.000
614.7370, 8058.000
615.9050, 8098.000
617.0720, 8080.000
618.2390, 8112.000
619.4060, 8108.000
620.5720, 8132.000
621.7390, 8123.000
622.9050, 8241.000
624.0710, 8245.000
625.2370, 8230.000
626.4030, 8265.000
627.5690, 8172.000
628.7340, 8253.000
629.9000, 8219.000
631.0650, 8196.000
632.2300, 8214.000
633.3950, 8246.000
634.5600, 8250.000
635.7240, 8237.000
636.8890, 8279.000
638.0530, 8207.000
639.2170, 8216.000
640.3810, 8185.000
641.5450, 8202.000
642.7080, 8331.000
643.8720, 8274.000
645.0350, 8377.000
646.1980, 8215.000
647.3610, 8221.000
648.5240, 8247.000
649.6870, 8320.000
650.8490, 8302.000
652.0120, 8317.601
653.1740, 8258.000
654.3360, 8295.000
655.4980, 8348.000
656.6600, 8335.000
657.8210, 8395.000
658.9830, 8538.000
660.1440, 8619.000
661.3050, 8642.000
662.4660, 8629.000
663.6270, 8835.000
664.7870, 9126.000
665.9480, 9157.000
667.1080, 9076.000
668.2680, 9264.000
669.4280, 9234.000
670.5880, 9215.000
671.7480, 9316.000
672.9070, 9235.729
674.0670, 9321.000
675.2260, 9146.000
676.3850, 9188.000
677.5440, 9129.000
678.7030, 9155.000
679.8610, 9148.000
681.0200, 9004.000
682.1780, 8934.000
683.3360, 8888.000
684.4940, 8703.000
685.6520, 8612.000
686.8090, 8696.000
687.9670, 8622.000
689.1240, 8649.000
690.2810, 8760.000
691.4380, 8671.000
692.5950, 8741.000
693.7520, 8730.000
694.9080, 8715.000
696.0650, 8681.000
697.2210, 8731.000
698.3770, 8691.000
699.5330, 8672.000
700.6880, 8628.000
701.8440, 8753.000
702.9990, 8679.000
704.1550, 8749.000
705.3100, 8705.000
706.4650, 8788.000
707.6190, 8667.000
708.7740, 8761.000
709.9290, 8741.000
711.0830, 8799.000
712.2370, 8850.000
713.3910, 8858.000
714.5450, 8767.000
715.6980, 8788.000
716.8520, 8819.000
718.0050, 8883.000
719.1580, 8890.000
720.3110, 8912.033
721.4640, 8917.318
722.6170, 8926.000
723.7700, 8915.000
724.9220, 8922.000
726.0740, 8953.000
727.2260, 8964.000
728.3780, 8928.000
729.5300, 8988.000
730.6810, 9016.000
731.8330, 9077.000
732.9840, 9037.000
734.1350, 8982.000
735.2860, 8881.000
736.4370, 9032.000
737.5880, 8924.000
738.7380, 9147.000
739.8880, 8956.000
741.0390, 9043.000
742.1890, 9055.000
743.3380, 9013.000
744.4880, 8973.000
745.6380, 9101.000
746.7870, 9009.000
747.9360, 8983.000
749.0850, 9086.000
750.2340, 9063.000
751.3830, 9166.000
752.5310, 9117.000
753.6800, 9140.000
754.8280, 9207.000
755.9760, 9045.000
757.1240, 9159.000
758.2720, 9201.000
759.4190, 9128.000
760.5670, 9082.000
761.7140, 9132.000
762.8610, 9236.000
764.0080, 9104.000
765.1550, 9127.000
766.3020, 9230.000
767.4480, 9232.000
768.5950, 9279.000
769.7410, 9241.000
770.8870, 9318.000
772.0330, 9344.000
773.1780, 9311.000
774.3240, 9251.000
775.4690, 9353.000
776.6140, 9333.000
777.7590, 9432.000
778.9040, 9379.000
780.0490, 9327.000
781.1940, 9326.000
782.3380, 9308.000
783.4820, 9415.000
784.6260, 9493.000
785.7700, 9323.000
786.9140, 9428.000
788.0580, 9329.000
789.2010, 9492.000
790.3450, 9388.000
791.4880, 9482.000
792.6310, 9467.000
793.7730, 9330.000
794.9160, 9484.000
796.0590, 9539.000
797.2010, 9500.000
798.3430, 9357.000
799.4850, 9441.000
800.6270, 9392.000
801.7690, 9464.000
802.9100, 9500.000
804.0520, 9517.000
805.1930, 9552.000
806.3340, 9669.000
807.4750, 9543.000
808.6160, 9485.000
809.7560, 9610.000
810.8970, 9572.000
812.0370, 9546.000
813.1770, 9551.000
814.3170, 9626.000
815.4570, 9655.000
816.5960, 9708.000
817.7360, 9708.000
818.8750, 9672.000
820.0140, 9699.000
821.1530, 9821.000
822.2920, 9745.000
823.4310, 9809.000
824.5690, 9791.000
825.7070, 9930.000
826.8460, 9896.000
827.9840, 10098.00
829.1220, 10443.00
830.2590, 10770.00
831.3970, 10656.00
832.5340, 10923.00
833.6710, 10962.00
834.8080, 11015.00
835.9450, 11068.00
837.0820, 10832.00
838.2190, 10783.00
839.3550, 10520.00
840.4910, 10191.00
841.6270, 10199.00
842.7630, 10032.00
843.8990, 9996.000
845.0350, 9961.000
846.1700, 10088.00
847.3060, 9899.000
848.4410, 9965.000
849.5760, 9990.000
850.7100, 9908.000
851.8450, 9852.000
852.9800, 9992.000
854.1140, 9856.000
855.2480, 10149.00
856.3820, 10037.00
857.5160, 10047.00
858.6500, 10003.00
859.7830, 9964.000
860.9170, 9990.393
862.0500, 10046.00
863.1830, 10046.00
864.3160, 10079.00
865.4480, 10145.00
866.5810, 10062.00
867.7130, 10168.00
868.8460, 10138.00
869.9780, 10133.00
871.1100, 9945.000
872.2410, 10164.00
873.3730, 10091.00
874.5050, 10258.00
875.6360, 10200.00
876.7670, 10164.00
877.8980, 10241.00
879.0290, 10263.00
880.1590, 10231.00
881.2900, 10221.00
882.4200, 10241.79
883.5500, 10310.00
884.6800, 10239.00
885.8100, 10326.00
886.9400, 10249.00
888.0690, 10176.00
889.1990, 10227.00
890.3280, 10283.00
891.4570, 10386.00
892.5860, 10329.00
893.7140, 10204.00
894.8430, 10366.00
895.9710, 10346.00
897.1000, 10355.00
898.2280, 10390.00
899.3560, 10285.00
900.4830, 10451.00
901.6110, 10503.00
902.7380, 10351.00
903.8660, 10363.00
904.9930, 10432.00
906.1200, 10438.00
907.2460, 10370.00
908.3730, 10567.00
909.5000, 10599.00
910.6260, 10482.00
911.7520, 10455.00
912.8780, 10429.00
914.0040, 10507.00
915.1290, 10607.00
916.2550, 10632.00
917.3800, 10519.00
918.5050, 10627.00
919.6300, 10616.00
920.7550, 10587.00
921.8800, 10620.00
923.0040, 10650.00
924.1290, 10708.00
925.2530, 10713.45
926.3770, 10567.00
927.5010, 10698.00
928.6250, 10650.00
929.7480, 10554.00
930.8720, 10597.00
931.9950, 10664.00
933.1180, 10735.00
934.2410, 10702.00
935.3640, 10627.00
936.4860, 10682.00
937.6090, 10699.00
938.7310, 10693.00
939.8530, 10714.52
940.9750, 10778.00
942.0970, 10717.00
943.2180, 10865.00
944.3400, 10880.00
945.4610, 10866.00
946.5820, 10882.00
947.7030, 10869.82
948.8240, 10808.00
949.9450, 10868.00
951.0650, 10831.00
952.1860, 10869.00
953.3060, 10887.12
954.4260, 10828.00
955.5460, 10950.00
956.6650, 10944.00
957.7850, 11020.00
958.9040, 11062.00
960.0230, 10971.00
961.1420, 11163.00
962.2610, 10924.00
963.3800, 10993.00
964.4990, 10995.00
965.6170, 11032.00
966.7350, 11020.00
967.8530, 11028.87
968.9710, 11067.00
970.0890, 11047.00
971.2070, 11131.00
972.3240, 11191.00
973.4410, 11175.00
974.5580, 11193.00
975.6750, 11255.00
976.7920, 11162.00
977.9090, 11158.00
979.0250, 11126.00
980.1410, 11247.00
981.2580, 11219.00
982.3740, 11102.00
983.4890, 11326.00
984.6050, 11253.00
985.7200, 11369.00
986.8360, 11352.00
987.9510, 11249.00
989.0660, 11218.00
990.1810, 11433.00
991.2950, 11389.00
992.4100, 11384.00
993.5240, 11364.00
994.6390, 11293.00
995.7530, 11444.00
996.8660, 11371.00
997.9800, 11461.00
999.0940, 11478.00
1000.207, 11393.00
1001.320, 11414.00
1002.433, 11363.00
1003.546, 11361.83
1004.659, 11545.00
1005.772, 11408.00
1006.884, 11475.00
1007.996, 11582.00
1009.108, 11458.00
1010.220, 11539.00
1011.332, 11446.00
1012.444, 11551.00
1013.555, 11403.00
1014.666, 11664.00
1015.777, 11551.00
1016.888, 11431.00
1017.999, 11641.00
1019.110, 11592.00
1020.220, 11523.00
1021.331, 11684.00
1022.441, 11779.00
1023.551, 11826.00
1024.661, 11906.00
1025.770, 11947.00
1026.880, 11875.00
1027.989, 12175.00
1029.098, 12007.00
1030.207, 12083.00
1031.316, 11861.00
1032.425, 12078.00
1033.533, 12118.00
1034.642, 12105.00
1035.750, 11945.00
1036.858, 12131.00
1037.966, 12464.00
1039.073, 12444.00
1040.181, 12724.00
1041.288, 13100.00
1042.396, 13754.00
1043.503, 15180.00
1044.610, 18761.00
1045.716, 27708.00
1046.823, 44796.00
1047.929, 53108.00
1049.036, 51028.00
1050.142, 55941.00
1051.248, 59529.00
1052.353, 58910.00
1053.459, 53457.00
1054.564, 43970.00
1055.670, 31431.00
1056.775, 21166.00
1057.880, 15931.00
1058.985, 13840.00
1060.089, 13259.00
1061.194, 12807.00
1062.298, 12709.00
1063.402, 12433.00
1064.506, 12540.00
1065.610, 12343.00
1066.713, 12307.00
1067.817, 12311.00
1068.920, 12329.00
1070.023, 12348.00
1071.126, 12337.00
1072.229, 12237.00
1073.332, 12197.00
1074.435, 12170.00
1075.537, 12278.00
1076.639, 12351.00
1077.741, 12245.00
1078.843, 12359.00
1079.945, 12378.00
1081.046, 12367.00
1082.148, 12378.00
1083.249, 12390.00
1084.350, 12405.00
1085.451, 12306.00
1086.551, 12442.00
1087.652, 12190.00
1088.752, 12529.00
1089.853, 12407.00
1090.953, 12486.00
1092.053, 12344.00
1093.152, 12542.00
1094.252, 12342.00
1095.351, 12447.00
1096.451, 12519.00
1097.550, 12411.00
1098.649, 12417.00
1099.748, 12484.00
1100.846, 12550.00
1101.945, 12689.00
1103.043, 12625.00
1104.141, 12508.00
1105.239, 12363.00
1106.337, 12490.00
1107.434, 12477.00
1108.532, 12575.00
1109.629, 12558.00
1110.726, 12522.00
1111.823, 12535.00
1112.920, 12653.00
1114.017, 12646.00
1115.113, 12580.00
1116.210, 12669.00
1117.306, 12604.00
1118.402, 12760.00
1119.498, 12722.00
1120.593, 12701.00
1121.689, 12872.00
1122.784, 12859.00
1123.879, 12781.00
1124.974, 12677.00
1126.069, 12769.00
1127.164, 12567.00
1128.259, 12742.00
1129.353, 12881.00
1130.447, 12731.00
1131.541, 12809.00
1132.635, 12634.00
1133.729, 12839.00
1134.822, 12755.00
1135.916, 12893.00
1137.009, 12876.00
1138.102, 12974.00
1139.195, 12864.00
1140.288, 12717.00
1141.380, 12897.00
1142.473, 12940.00
1143.565, 12852.00
1144.657, 12913.00
1145.749, 12907.00
1146.841, 12933.00
1147.932, 12979.76
1149.024, 13070.00
1150.115, 13030.00
1151.206, 13123.00
1152.297, 13076.00
1153.388, 13018.00
1154.479, 13098.00
1155.569, 13116.00
1156.659, 13092.05
1157.750, 13040.00
1158.839, 13075.00
1159.929, 13107.00
1161.019, 13126.00
1162.108, 12999.00
1163.198, 13189.00
1164.287, 13160.00
1165.376, 12989.00
1166.465, 13280.00
1167.553, 13199.00
1168.642, 13194.00
1169.730, 13183.00
1170.818, 13158.00
1171.906, 13302.00
1172.994, 13092.00
1174.082, 13205.00
1175.170, 13361.00
1176.257, 13256.00
1177.344, 13205.00
1178.431, 13394.00
1179.518, 13208.00
1180.605, 13270.00
1181.691, 13291.00
1182.778, 13398.00
1183.864, 13394.00
1184.950, 13302.00
1186.036, 13347.00
1187.122, 13408.00
1188.207, 13434.00
1189.292, 13467.00
1190.378, 13523.00
1191.463, 13467.00
1192.548, 13621.00
1193.632, 13473.00
1194.717, 13481.00
1195.801, 13450.00
1196.886, 13595.00
1197.970, 13561.00
1199.054, 13632.00
1200.137, 13585.00
1201.221, 13613.00
1202.305, 13508.00
1203.388, 13586.00
1204.471, 13737.00
1205.554, 13539.00
1206.637, 13652.00
1207.719, 13617.00
1208.802, 13483.00
1209.884, 13802.00
1210.966, 13776.00
1212.048, 13635.00
1213.130, 13789.00
1214.212, 13772.00
1215.293, 13800.00
1216.374, 13805.00
1217.456, 13915.00
1218.536, 13828.00
1219.617, 13777.00
1220.698, 13728.00
1221.778, 13932.00
1222.859, 14064.00
1223.939, 13899.00
1225.019, 13988.00
1226.099, 13950.00
1227.178, 13811.00
1228.258, 13921.00
1229.337, 14036.00
1230.417, 14026.00
1231.496, 13858.00
1232.574, 14008.00
1233.653, 14030.00
1234.732, 14075.00
1235.810, 14198.00
1236.888, 14225.00
1237.966, 14235.88
1239.044, 14217.00
1240.122, 14196.00
1241.199, 14247.00
1242.277, 14202.00
1243.354, 14270.00
1244.431, 14310.00
1245.508, 14353.00
1246.585, 14337.00
1247.661, 14218.00
1248.738, 14315.00
1249.814, 14338.00
1250.890, 14238.00
1251.966, 14303.00
1253.042, 14324.00
1254.117, 14408.00
1255.193, 14346.00
1256.268, 14281.00
1257.343, 14335.00
1258.418, 14347.00
1259.493, 14420.00
1260.567, 14498.00
1261.642, 14642.00
1262.716, 14590.00
1263.790, 14438.00
1264.864, 14590.00
1265.938, 14514.00
1267.011, 14598.00
1268.085, 14490.00
1269.158, 14466.00
1270.231, 14675.00
1271.304, 14679.00
1272.377, 14650.00
1273.450, 14653.00
1274.522, 14687.42
1275.594, 14720.94
1276.666, 14752.00
1277.738, 14817.00
1278.810, 14804.00
1279.882, 14796.00
1280.953, 14856.63
1282.025, 14928.00
1283.096, 14936.00
1284.167, 14988.00
1285.238, 15002.00
1286.308, 15040.00
1287.379, 14898.00
1288.449, 15153.00
1289.519, 15168.00
1290.589, 15050.00
1291.659, 15124.00
1292.729, 15129.00
1293.798, 15127.98
1294.868, 15334.00
1295.937, 15202.00
1297.006, 15280.00
1298.075, 15360.00
1299.143, 15280.00
1300.212, 15417.00
1301.280, 15412.00
1302.348, 15454.00
1303.416, 15487.00
1304.484, 15502.00
1305.552, 15675.00
1306.620, 15666.00
1307.687, 15811.00
1308.754, 15806.00
1309.821, 15842.00
1310.888, 15806.00
1311.955, 15992.00
1313.021, 15910.00
1314.088, 16058.00
1315.154, 15933.00
1316.220, 15961.00
1317.286, 16024.00
1318.352, 16109.00
1319.417, 16149.00
1320.483, 16035.00
1321.548, 16214.00
1322.613, 16364.00
1323.678, 16249.00
1324.743, 16141.00
1325.807, 16284.00
1326.872, 16381.00
1327.936, 16429.00
1329.000, 16254.00
1330.064, 16366.00
1331.128, 16400.00
1332.191, 16630.00
1333.255, 16405.00
1334.318, 16695.00
1335.381, 16662.00
1336.444, 16716.00
1337.507, 16769.00
1338.569, 16863.00
1339.632, 16874.00
1340.694, 17082.00
1341.756, 17147.00
1342.818, 17158.00
1343.880, 17264.00
1344.941, 17519.00
1346.003, 17740.00
1347.064, 17995.00
1348.125, 18198.00
1349.186, 18573.00
1350.247, 18719.00
1351.308, 19152.00
1352.368, 19461.00
1353.428, 19805.00
1354.489, 20419.00
1355.549, 20782.00
1356.608, 21332.00
1357.668, 21536.00
1358.727, 21864.00
1359.787, 22289.00
1360.846, 22275.00
1361.905, 22322.00
1362.964, 21987.00
1364.022, 21745.00
1365.081, 21608.00
1366.139, 21095.00
1367.197, 21035.00
1368.255, 20746.00
1369.313, 20699.00
1370.371, 20720.00
1371.428, 20384.00
1372.486, 20206.00
1373.543, 20092.00
1374.600, 19999.00
1375.657, 19742.87
1376.713, 19319.00
1377.770, 19180.00
1378.826, 18822.00
1379.882, 18375.00
1380.938, 18119.00
1381.994, 17965.00
1383.050, 17723.00
1384.106, 17529.00
1385.161, 17301.00
1386.216, 17137.00
1387.271, 16961.00
1388.326, 16828.00
1389.381, 16758.34
1390.435, 16757.00
1391.490, 16654.00
1392.544, 16751.00
1393.598, 16677.00
1394.652, 16565.00
1395.705, 16694.00
1396.759, 16669.00
1397.812, 16511.00
1398.866, 16592.00
1399.919, 16466.00
1400.972, 16456.00
1402.024, 16621.00
1403.077, 16523.00
1404.129, 16723.00
1405.181, 16623.00
1406.233, 16695.00
1407.285, 16892.00
1408.337, 16827.00
1409.389, 16819.00
1410.440, 16693.00
1411.491, 16834.00
1412.542, 16837.00
1413.593, 16769.00
1414.644, 16989.00
1415.695, 16959.00
1416.745, 16954.00
1417.795, 16875.00
1418.845, 17051.00
1419.895, 17067.00
1420.945, 17545.00
1421.995, 17345.00
1423.044, 17226.00
1424.093, 16908.00
1425.142, 16984.00
1426.191, 17134.00
1427.240, 17018.00
1428.289, 17058.00
1429.337, 17109.00
1430.385, 17062.00
1431.433, 17094.00
1432.481, 17046.00
1433.529, 17078.70
1434.577, 17133.00
1435.624, 17122.00
1436.672, 17211.96
1437.719, 17205.00
1438.766, 17296.00
1439.812, 17222.00
1440.859, 17222.00
1441.905, 17252.00
1442.952, 17358.00
1443.998, 17425.00
1445.044, 17362.00
1446.090, 17452.00
1447.135, 17427.00
1448.181, 17404.00
1449.226, 17697.00
1450.271, 17578.00
1451.316, 17854.00
1452.361, 17829.00
1453.405, 17829.00
1454.450, 17816.00
1455.494, 17895.00
1456.538, 18125.00
1457.582, 18094.00
1458.626, 18262.00
1459.670, 18262.00
1460.713, 18245.00
1461.757, 18454.00
1462.800, 18530.00
1463.843, 18600.00
1464.886, 18605.00
1465.928, 18557.00
1466.971, 18772.00
1468.013, 18968.00
1469.055, 18851.00
1470.097, 18933.00
1471.139, 18924.00
1472.181, 18960.00
1473.222, 19149.00
1474.263, 19104.00
1475.305, 19262.00
1476.346, 18983.00
1477.386, 19163.00
1478.427, 19019.00
1479.468, 19135.00
1480.508, 19116.00
1481.548, 18798.00
1482.588, 18867.00
1483.628, 18772.00
1484.668, 18682.00
1485.707, 18612.00
1486.747, 18536.00
1487.786, 18419.00
1488.825, 18249.00
1489.864, 18225.00
1490.902, 18244.00
1491.941, 18256.00
1492.979, 18021.00
1494.017, 18106.00
1495.055, 17855.00
1496.093, 18019.00
1497.131, 17871.00
1498.168, 17684.00
1499.206, 17761.00
1500.243, 17697.00
1501.280, 17592.00
1502.317, 17714.00
1503.354, 17763.00
1504.390, 17695.00
1505.426, 17730.43
1506.463, 17654.00
1507.499, 17683.00
1508.535, 17626.00
1509.570, 17644.00
1510.606, 17645.00
1511.641, 17559.00
1512.676, 17691.00
1513.711, 17727.00
1514.746, 17548.00
1515.781, 17461.00
1516.816, 17602.00
1517.850, 17699.00
1518.884, 17452.00
1519.918, 17650.00
1520.952, 17690.00
1521.986, 17679.00
1523.019, 17645.00
1524.053, 17643.00
1525.086, 17625.00
1526.119, 17675.00
1527.152, 17656.00
1528.185, 17671.62
1529.217, 17624.00
1530.250, 17707.00
1531.282, 17651.00
1532.314, 17703.00
1533.346, 17742.00
1534.377, 17739.00
1535.409, 17731.00
1536.440, 17760.00
1537.472, 17749.00
1538.503, 17872.00
1539.534, 17648.00
1540.564, 17537.00
1541.595, 17729.00
1542.625, 17733.00
1543.656, 17895.00
1544.686, 17808.00
1545.716, 17790.00
1546.745, 17826.00
1547.775, 17814.00
1548.804, 17831.00
1549.834, 17857.67
1550.863, 17940.00
1551.892, 17905.00
1552.920, 18010.00
1553.949, 18029.00
1554.977, 17874.00
1556.006, 17880.00
1557.034, 17883.00
1558.062, 18051.00
1559.089, 17982.00
1560.117, 17876.00
1561.144, 18056.00
1562.172, 17888.00
1563.199, 17975.00
1564.226, 17947.00
1565.252, 18017.00
1566.279, 18058.00
1567.305, 18058.00
1568.332, 17891.00
1569.358, 18014.00
1570.384, 18140.00
##END=



