##NAMES=Cerussite
##RRUFFID=R060017
##IDEAL CHEMISTRY=Pb^2+^CO_3_
##LOCALITY=Gonessa, Sardinia, Italy
##OWNER=RRUFF
##SOURCE=American Museum of Natural History
##DESCRIPTION=White reticulated composite
##STATUS=The identification of this mineral has been confirmed by X-ray diffraction and chemical analysis
##URL=rruff.info/R060017
##MEASURED CHEMISTRY=Pb_1.00_CO_3_ C not measured but estimated by difference and stoichiometry
##PIN_ID=M00240
##ORIENTATION=Laser parallel to b* (0 1 0). Fiducial mark perpendicular to laser is parallel to c [0 0 1]
51.43100, 924.0000
52.67100, 1042.000
53.91000, 1223.000
55.14900, 1226.000
56.38700, 1348.000
57.62600, 1431.000
58.86400, 1682.000
60.10300, 2076.000
61.34100, 2642.000
62.57900, 3254.000
63.81700, 4050.000
65.05400, 5023.000
66.29200, 6161.000
67.52900, 7340.000
68.76700, 8206.000
70.00400, 8792.000
71.24100, 9293.000
72.47700, 9308.000
73.71400, 9237.000
74.95100, 9152.000
76.18700, 9071.000
77.42300, 9131.000
78.65900, 9195.000
79.89500, 9702.000
81.13100, 10288.00
82.36700, 10824.00
83.60200, 11789.00
84.83700, 12840.00
86.07200, 14440.00
87.30800, 16305.00
88.54200, 18407.00
89.77700, 20767.00
91.01200, 23150.00
92.24600, 24793.00
93.48000, 26259.00
94.71400, 27281.00
95.94800, 28350.00
97.18200, 29328.00
98.41600, 29620.00
99.64900, 29532.00
100.8830, 28915.00
102.1160, 27922.00
103.3490, 26717.00
104.5820, 25297.00
105.8150, 23476.00
107.0470, 22216.00
108.2800, 20649.00
109.5120, 19653.00
110.7440, 19044.00
111.9760, 18956.00
113.2080, 18496.00
114.4400, 18374.00
115.6710, 18519.00
116.9030, 18448.00
118.1340, 18326.00
119.3650, 18316.00
120.5960, 18122.78
121.8270, 17761.00
123.0580, 17781.00
124.2880, 17608.00
125.5190, 17467.00
126.7490, 17494.00
127.9790, 17556.00
129.2090, 17540.71
130.4390, 17663.00
131.6680, 17682.00
132.8980, 17727.00
134.1270, 17893.00
135.3560, 18049.00
136.5850, 18102.00
137.8140, 18319.00
139.0430, 18671.00
140.2710, 18708.00
141.5000, 18948.00
142.7280, 19247.00
143.9560, 19151.00
145.1840, 19254.00
146.4120, 19110.00
147.6390, 18865.00
148.8670, 18548.00
150.0940, 18005.00
151.3210, 17517.00
152.5490, 17011.00
153.7750, 15987.00
155.0020, 15611.00
156.2290, 14936.00
157.4550, 14388.00
158.6810, 13988.00
159.9080, 13670.00
161.1340, 13568.00
162.3590, 13579.00
163.5850, 13557.00
164.8110, 13604.85
166.0360, 13715.00
167.2610, 13771.00
168.4860, 13933.00
169.7110, 14045.00
170.9360, 13940.00
172.1610, 13901.44
173.3850, 13852.00
174.6100, 13545.00
175.8340, 13289.00
177.0580, 13001.00
178.2820, 12780.00
179.5050, 12377.00
180.7290, 11930.00
181.9520, 11430.00
183.1760, 11124.00
184.3990, 11037.00
185.6220, 10632.00
186.8450, 10389.00
188.0670, 10437.00
189.2900, 10010.00
190.5120, 9981.000
191.7340, 9959.000
192.9560, 9859.000
194.1780, 9844.316
195.4000, 9831.833
196.6220, 9765.000
197.8430, 9843.000
199.0640, 9816.000
200.2860, 9825.000
201.5070, 9993.000
202.7270, 9938.000
203.9480, 9913.000
205.1690, 9968.000
206.3890, 10226.00
207.6090, 10094.00
208.8290, 10431.00
210.0490, 10338.00
211.2690, 10535.00
212.4890, 10534.00
213.7080, 10643.00
214.9280, 10683.00
216.1470, 10626.00
217.3660, 10636.00
218.5850, 10722.00
219.8030, 10617.00
221.0220, 10555.00
222.2400, 10522.00
223.4590, 10578.00
224.6770, 10481.00
225.8950, 10347.00
227.1120, 10339.00
228.3300, 10160.00
229.5480, 10167.00
230.7650, 9990.000
231.9820, 9974.000
233.1990, 9724.000
234.4160, 9571.000
235.6330, 9514.000
236.8490, 9478.000
238.0660, 9434.000
239.2820, 9360.100
240.4980, 9203.000
241.7140, 9194.000
242.9300, 9108.000
244.1460, 8988.033
245.3610, 8736.000
246.5770, 8697.000
247.7920, 8512.000
249.0070, 8366.000
250.2220, 8369.000
251.4370, 8189.000
252.6510, 8054.000
253.8660, 8081.000
255.0800, 8073.000
256.2940, 7976.000
257.5080, 7839.000
258.7220, 7754.000
259.9360, 7680.000
261.1490, 7595.000
262.3630, 7556.000
263.5760, 7597.000
264.7890, 7535.000
266.0020, 7525.000
267.2150, 7409.000
268.4270, 7458.000
269.6400, 7445.000
270.8520, 7296.000
272.0640, 7435.000
273.2760, 7345.000
274.4880, 7388.000
275.7000, 7353.000
276.9120, 7418.000
278.1230, 7317.000
279.3340, 7400.000
280.5450, 7352.000
281.7560, 7393.000
282.9670, 7539.000
284.1780, 7407.000
285.3880, 7440.000
286.5980, 7258.000
287.8090, 7302.000
289.0190, 7346.000
290.2290, 7464.000
291.4380, 7243.000
292.6480, 7301.000
293.8570, 7263.000
295.0670, 7495.000
296.2760, 7325.000
297.4850, 7350.000
298.6930, 7349.000
299.9020, 7318.000
301.1110, 7290.000
302.3190, 7271.333
303.5270, 7321.000
304.7350, 7246.000
305.9430, 7310.000
307.1510, 7362.000
308.3580, 7319.000
309.5660, 7234.000
310.7730, 7342.000
311.9800, 7365.000
313.1870, 7274.000
314.3940, 7290.000
315.6010, 7365.000
316.8070, 7322.000
318.0130, 7337.000
319.2200, 7414.000
320.4260, 7420.000
321.6310, 7340.000
322.8370, 7366.000
324.0430, 7316.000
325.2480, 7244.000
326.4540, 7301.151
327.6590, 7374.000
328.8640, 7357.000
330.0680, 7394.000
331.2730, 7382.000
332.4780, 7423.000
333.6820, 7418.147
334.8860, 7417.000
336.0900, 7422.000
337.2940, 7421.000
338.4980, 7434.000
339.7010, 7405.000
340.9050, 7553.000
342.1080, 7549.000
343.3110, 7494.000
344.5140, 7501.000
345.7170, 7397.000
346.9200, 7498.000
348.1220, 7544.000
349.3240, 7433.000
350.5270, 7495.000
351.7290, 7533.000
352.9310, 7571.000
354.1320, 7595.000
355.3340, 7611.000
356.5350, 7470.000
357.7370, 7566.000
358.9380, 7536.000
360.1390, 7595.000
361.3400, 7614.000
362.5400, 7555.000
363.7410, 7668.000
364.9410, 7690.000
366.1410, 7561.000
367.3410, 7697.000
368.5410, 7635.000
369.7410, 7610.000
370.9400, 7593.000
372.1400, 7625.000
373.3390, 7606.000
374.5380, 7760.000
375.7370, 7741.000
376.9360, 7835.000
378.1350, 7734.000
379.3330, 7742.000
380.5310, 7823.000
381.7300, 7671.000
382.9280, 7818.000
384.1260, 7660.000
385.3230, 7720.000
386.5210, 7662.000
387.7180, 7688.000
388.9160, 7744.000
390.1130, 7736.032
391.3100, 7813.000
392.5060, 7804.000
393.7030, 7812.000
394.9000, 7875.000
396.0960, 8008.000
397.2920, 7859.000
398.4880, 7750.000
399.6840, 7936.000
400.8800, 7947.000
402.0750, 7777.000
403.2710, 7821.000
404.4660, 7885.000
405.6610, 7964.000
406.8560, 7959.000
408.0510, 7911.000
409.2450, 7962.000
410.4400, 7985.000
411.6340, 8003.000
412.8280, 7996.000
414.0220, 8021.000
415.2160, 8042.000
416.4100, 8055.000
417.6030, 7934.000
418.7970, 7997.000
419.9900, 8108.000
421.1830, 7948.000
422.3760, 7976.000
423.5690, 8014.000
424.7610, 7974.000
425.9540, 8034.000
427.1460, 8126.000
428.3380, 8110.000
429.5300, 8169.000
430.7220, 8243.000
431.9140, 8049.000
433.1050, 8121.000
434.2970, 8018.000
435.4880, 8124.000
436.6790, 8142.000
437.8700, 8181.000
439.0610, 8220.696
440.2510, 8181.000
441.4420, 8234.000
442.6320, 8211.000
443.8220, 8153.000
445.0120, 8217.000
446.2020, 8309.000
447.3910, 8244.000
448.5810, 8284.000
449.7700, 8307.000
450.9600, 8221.000
452.1490, 8241.000
453.3370, 8203.000
454.5260, 8254.000
455.7150, 8242.000
456.9030, 8320.000
458.0910, 8342.000
459.2800, 8239.000
460.4670, 8330.000
461.6550, 8303.000
462.8430, 8465.000
464.0300, 8423.000
465.2180, 8381.000
466.4050, 8307.000
467.5920, 8339.962
468.7790, 8350.000
469.9650, 8437.000
471.1520, 8394.000
472.3380, 8513.000
473.5250, 8583.000
474.7110, 8485.000
475.8970, 8559.000
477.0820, 8436.000
478.2680, 8574.000
479.4540, 8404.000
480.6390, 8556.000
481.8240, 8602.000
483.0090, 8516.000
484.1940, 8505.000
485.3780, 8537.000
486.5630, 8646.000
487.7470, 8611.000
488.9320, 8587.000
490.1160, 8525.000
491.3000, 8625.000
492.4830, 8694.000
493.6670, 8692.000
494.8500, 8747.000
496.0340, 8718.510
497.2170, 8611.000
498.4000, 8685.000
499.5820, 8664.000
500.7650, 8724.000
501.9480, 8742.000
503.1300, 8714.000
504.3120, 8747.000
505.4940, 8717.000
506.6760, 8724.000
507.8580, 8778.000
509.0390, 8795.000
510.2210, 8754.000
511.4020, 8851.000
512.5830, 8782.000
513.7640, 8736.000
514.9450, 8756.000
516.1250, 8827.000
517.3060, 8789.000
518.4860, 8832.000
519.6660, 8828.000
520.8460, 8863.000
522.0260, 8861.734
523.2060, 8875.071
524.3850, 8860.000
525.5650, 8886.000
526.7440, 8893.000
527.9230, 8878.000
529.1020, 8990.000
530.2810, 8904.000
531.4590, 8920.000
532.6380, 9090.000
533.8160, 9018.000
534.9940, 8974.000
536.1720, 8951.000
537.3500, 8966.000
538.5270, 9063.000
539.7050, 8889.000
540.8820, 9027.000
542.0590, 8956.000
543.2360, 8975.000
544.4130, 9136.000
545.5900, 8976.000
546.7660, 9097.000
547.9430, 9007.000
549.1190, 9030.000
550.2950, 9124.000
551.4710, 9099.000
552.6470, 9103.000
553.8220, 9151.000
554.9980, 9153.000
556.1730, 9166.000
557.3480, 9163.000
558.5230, 9087.000
559.6980, 9189.000
560.8730, 9054.000
562.0470, 9319.000
563.2220, 9242.000
564.3960, 9222.000
565.5700, 9202.000
566.7440, 9183.496
567.9170, 9205.790
569.0910, 9199.000
570.2640, 9259.000
571.4380, 9302.000
572.6110, 9323.000
573.7840, 9226.000
574.9570, 9275.000
576.1290, 9345.000
577.3020, 9276.000
578.4740, 9383.000
579.6460, 9439.000
580.8180, 9480.000
581.9900, 9489.056
583.1620, 9538.000
584.3330, 9431.000
585.5040, 9413.000
586.6760, 9343.000
587.8470, 9450.000
589.0180, 9525.000
590.1880, 9476.000
591.3590, 9478.000
592.5290, 9460.000
593.7000, 9555.000
594.8700, 9466.000
596.0400, 9534.000
597.2090, 9553.000
598.3790, 9502.000
599.5490, 9390.000
600.7180, 9566.000
601.8870, 9631.000
603.0560, 9527.000
604.2250, 9529.000
605.3940, 9560.000
606.5620, 9570.000
607.7300, 9670.000
608.8990, 9696.000
610.0670, 9708.000
611.2350, 9644.000
612.4020, 9637.000
613.5700, 9734.000
614.7370, 9622.000
615.9050, 9663.000
617.0720, 9726.000
618.2390, 9719.000
619.4060, 9684.000
620.5720, 9793.000
621.7390, 9810.000
622.9050, 9816.000
624.0710, 9873.000
625.2370, 9934.000
626.4030, 9877.000
627.5690, 9781.000
628.7340, 9926.000
629.9000, 9880.000
631.0650, 9910.000
632.2300, 9937.000
633.3950, 9916.197
634.5600, 9891.000
635.7240, 9907.000
636.8890, 9909.000
638.0530, 9898.000
639.2170, 9918.000
640.3810, 9940.000
641.5450, 9935.000
642.7080, 9986.000
643.8720, 9907.000
645.0350, 9972.000
646.1980, 9863.000
647.3610, 9907.822
648.5240, 9929.000
649.6870, 9982.000
650.8490, 10007.00
652.0120, 10092.00
653.1740, 10090.00
654.3360, 9985.000
655.4980, 10067.00
656.6600, 10053.00
657.8210, 10077.00
658.9830, 10134.00
660.1440, 10190.17
661.3050, 10280.00
662.4660, 10400.00
663.6270, 10536.00
664.7870, 10730.00
665.9480, 10755.00
667.1080, 10757.00
668.2680, 10766.00
669.4280, 10963.00
670.5880, 11153.00
671.7480, 11357.00
672.9070, 11480.62
674.0670, 11604.34
675.2260, 11776.00
676.3850, 11757.00
677.5440, 12020.00
678.7030, 12059.00
679.8610, 11989.00
681.0200, 11693.00
682.1780, 11570.00
683.3360, 11147.00
684.4940, 11008.00
685.6520, 10729.00
686.8090, 10821.00
687.9670, 10728.00
689.1240, 10853.00
690.2810, 10820.00
691.4380, 10826.00
692.5950, 10955.00
693.7520, 10838.00
694.9080, 10721.00
696.0650, 10719.00
697.2210, 10677.00
698.3770, 10512.00
699.5330, 10494.00
700.6880, 10382.00
701.8440, 10496.00
702.9990, 10503.00
704.1550, 10522.00
705.3100, 10597.00
706.4650, 10609.00
707.6190, 10558.00
708.7740, 10519.00
709.9290, 10533.00
711.0830, 10697.00
712.2370, 10501.00
713.3910, 10614.00
714.5450, 10523.00
715.6980, 10619.00
716.8520, 10515.00
718.0050, 10767.00
719.1580, 10691.00
720.3110, 10675.00
721.4640, 10707.00
722.6170, 10742.00
723.7700, 10762.00
724.9220, 10769.00
726.0740, 10749.00
727.2260, 10887.00
728.3780, 10798.00
729.5300, 10798.00
730.6810, 10855.00
731.8330, 10785.00
732.9840, 10800.00
734.1350, 10918.00
735.2860, 10851.00
736.4370, 10904.00
737.5880, 10934.00
738.7380, 10775.00
739.8880, 10956.00
741.0390, 11014.00
742.1890, 10916.00
743.3380, 10831.00
744.4880, 11104.00
745.6380, 11106.00
746.7870, 11014.00
747.9360, 10978.00
749.0850, 10974.20
750.2340, 10902.00
751.3830, 10962.00
752.5310, 10998.00
753.6800, 10983.00
754.8280, 11015.00
755.9760, 11067.00
757.1240, 11142.00
758.2720, 11125.00
759.4190, 11113.00
760.5670, 11144.00
761.7140, 11242.00
762.8610, 11249.00
764.0080, 11261.27
765.1550, 11152.00
766.3020, 11216.00
767.4480, 11231.00
768.5950, 11156.00
769.7410, 11297.00
770.8870, 11167.00
772.0330, 11196.00
773.1780, 11158.00
774.3240, 11276.00
775.4690, 11336.00
776.6140, 11136.00
777.7590, 11231.00
778.9040, 11235.00
780.0490, 11274.00
781.1940, 11249.00
782.3380, 11268.00
783.4820, 11347.00
784.6260, 11230.00
785.7700, 11416.00
786.9140, 11427.00
788.0580, 11310.00
789.2010, 11394.00
790.3450, 11423.00
791.4880, 11345.00
792.6310, 11407.00
793.7730, 11380.17
794.9160, 11474.00
796.0590, 11389.00
797.2010, 11393.00
798.3430, 11435.00
799.4850, 11418.00
800.6270, 11470.00
801.7690, 11489.00
802.9100, 11495.00
804.0520, 11539.24
805.1930, 11488.00
806.3340, 11590.00
807.4750, 11567.00
808.6160, 11561.00
809.7560, 11764.00
810.8970, 11651.00
812.0370, 11667.00
813.1770, 11569.00
814.3170, 11759.00
815.4570, 11834.00
816.5960, 11794.00
817.7360, 11736.00
818.8750, 11728.00
820.0140, 11790.00
821.1530, 11882.00
822.2920, 11847.00
823.4310, 11767.00
824.5690, 11917.00
825.7070, 12156.00
826.8460, 12060.00
827.9840, 12230.00
829.1220, 12774.00
830.2590, 13128.00
831.3970, 13324.00
832.5340, 13507.00
833.6710, 13710.00
834.8080, 13685.00
835.9450, 13756.00
837.0820, 13367.00
838.2190, 13173.00
839.3550, 12888.00
840.4910, 12469.00
841.6270, 12347.00
842.7630, 12178.00
843.8990, 12143.00
845.0350, 12114.00
846.1700, 11912.00
847.3060, 11972.00
848.4410, 12006.00
849.5760, 12101.00
850.7100, 12196.00
851.8450, 11918.00
852.9800, 11945.00
854.1140, 11956.00
855.2480, 12086.00
856.3820, 11987.00
857.5160, 12059.00
858.6500, 12056.00
859.7830, 12047.00
860.9170, 12110.00
862.0500, 12243.00
863.1830, 12071.00
864.3160, 12068.00
865.4480, 12189.00
866.5810, 12122.00
867.7130, 12079.00
868.8460, 12234.00
869.9780, 12200.00
871.1100, 12099.00
872.2410, 12132.00
873.3730, 12192.00
874.5050, 12154.12
875.6360, 12156.00
876.7670, 12151.00
877.8980, 12286.00
879.0290, 12255.00
880.1590, 12282.00
881.2900, 12479.00
882.4200, 12386.00
883.5500, 12439.00
884.6800, 12330.00
885.8100, 12300.00
886.9400, 12289.00
888.0690, 12282.00
889.1990, 12305.97
890.3280, 12407.00
891.4570, 12351.00
892.5860, 12425.00
893.7140, 12392.00
894.8430, 12410.56
895.9710, 12326.00
897.1000, 12434.00
898.2280, 12468.00
899.3560, 12466.00
900.4830, 12391.00
901.6110, 12450.00
902.7380, 12523.00
903.8660, 12585.00
904.9930, 12586.00
906.1200, 12486.00
907.2460, 12540.00
908.3730, 12569.00
909.5000, 12545.00
910.6260, 12575.46
911.7520, 12465.00
912.8780, 12605.00
914.0040, 12555.00
915.1290, 12617.00
916.2550, 12737.00
917.3800, 12589.00
918.5050, 12702.00
919.6300, 12612.00
920.7550, 12809.00
921.8800, 12852.00
923.0040, 12777.00
924.1290, 12615.00
925.2530, 12699.00
926.3770, 12805.00
927.5010, 12846.00
928.6250, 12939.00
929.7480, 12898.00
930.8720, 12793.00
931.9950, 12727.00
933.1180, 12778.00
934.2410, 12740.07
935.3640, 12945.00
936.4860, 12783.00
937.6090, 12977.00
938.7310, 13011.00
939.8530, 12862.00
940.9750, 12911.00
942.0970, 12928.00
943.2180, 12998.00
944.3400, 12909.00
945.4610, 12953.00
946.5820, 12971.00
947.7030, 13081.00
948.8240, 13014.00
949.9450, 13130.00
951.0650, 13069.00
952.1860, 13049.00
953.3060, 13137.00
954.4260, 13147.00
955.5460, 13116.00
956.6650, 13048.00
957.7850, 13093.00
958.9040, 13141.00
960.0230, 13196.00
961.1420, 13231.00
962.2610, 13098.00
963.3800, 13183.00
964.4990, 13266.00
965.6170, 13141.00
966.7350, 13202.00
967.8530, 13179.00
968.9710, 13436.00
970.0890, 13225.00
971.2070, 13162.00
972.3240, 13416.00
973.4410, 13411.00
974.5580, 13339.00
975.6750, 13368.00
976.7920, 13283.00
977.9090, 13322.00
979.0250, 13451.00
980.1410, 13294.00
981.2580, 13387.00
982.3740, 13382.00
983.4890, 13480.00
984.6050, 13478.00
985.7200, 13507.99
986.8360, 13534.96
987.9510, 13536.00
989.0660, 13545.00
990.1810, 13538.00
991.2950, 13524.00
992.4100, 13651.00
993.5240, 13652.00
994.6390, 13552.00
995.7530, 13649.00
996.8660, 13507.00
997.9800, 13759.00
999.0940, 13667.00
1000.207, 13714.00
1001.320, 13724.00
1002.433, 13725.00
1003.546, 13637.00
1004.659, 13601.00
1005.772, 13683.00
1006.884, 13621.00
1007.996, 13898.00
1009.108, 13799.00
1010.220, 13869.00
1011.332, 13771.00
1012.444, 13832.00
1013.555, 13861.00
1014.666, 13824.00
1015.777, 13859.00
1016.888, 13893.00
1017.999, 13794.00
1019.110, 13774.00
1020.220, 13907.00
1021.331, 13835.00
1022.441, 13908.00
1023.551, 14091.00
1024.661, 14195.00
1025.770, 14173.00
1026.880, 14237.00
1027.989, 14399.00
1029.098, 14153.00
1030.207, 14450.00
1031.316, 14353.00
1032.425, 14373.00
1033.533, 14343.00
1034.642, 14374.00
1035.750, 14392.00
1036.858, 14438.00
1037.966, 14589.00
1039.073, 14798.00
1040.181, 14942.00
1041.288, 15363.00
1042.396, 15966.00
1043.503, 17039.00
1044.610, 19918.00
1045.716, 26913.00
1046.823, 41361.00
1047.929, 51572.00
1049.036, 53662.00
1050.142, 62731.00
1051.248, 65535.00
1052.353, 65535.00
1053.459, 59337.00
1054.564, 47942.00
1055.670, 34940.00
1056.775, 24182.00
1057.880, 18695.00
1058.985, 16317.00
1060.089, 15591.00
1061.194, 15057.00
1062.298, 15080.00
1063.402, 14835.00
1064.506, 14645.00
1065.610, 14700.00
1066.713, 14663.00
1067.817, 14683.00
1068.920, 14680.00
1070.023, 14643.95
1071.126, 14653.00
1072.229, 14532.00
1073.332, 14545.00
1074.435, 14393.00
1075.537, 14627.00
1076.639, 14580.00
1077.741, 14621.00
1078.843, 14528.00
1079.945, 14563.00
1081.046, 14706.00
1082.148, 14555.00
1083.249, 14518.00
1084.350, 14856.00
1085.451, 14467.00
1086.551, 14639.00
1087.652, 14669.00
1088.752, 14862.00
1089.853, 14699.00
1090.953, 14762.00
1092.053, 14615.00
1093.152, 14872.00
1094.252, 14716.00
1095.351, 14797.00
1096.451, 14853.00
1097.550, 14971.00
1098.649, 14816.00
1099.748, 14771.00
1100.846, 14995.00
1101.945, 14874.00
1103.043, 14978.00
1104.141, 14960.00
1105.239, 14912.00
1106.337, 14877.00
1107.434, 14871.00
1108.532, 14937.00
1109.629, 14995.00
1110.726, 14939.00
1111.823, 14898.00
1112.920, 14921.00
1114.017, 15194.00
1115.113, 15156.00
1116.210, 15264.00
1117.306, 15123.00
1118.402, 15215.00
1119.498, 15179.00
1120.593, 15155.00
1121.689, 15283.00
1122.784, 15312.00
1123.879, 15179.00
1124.974, 15189.00
1126.069, 15087.00
1127.164, 15160.00
1128.259, 15065.00
1129.353, 15205.00
1130.447, 15222.00
1131.541, 15163.00
1132.635, 15177.00
1133.729, 15244.00
1134.822, 15330.00
1135.916, 15254.00
1137.009, 15121.00
1138.102, 15168.00
1139.195, 15216.00
1140.288, 15177.00
1141.380, 15310.00
1142.473, 15202.00
1143.565, 15282.00
1144.657, 15226.00
1145.749, 15358.00
1146.841, 15390.00
1147.932, 15414.00
1149.024, 15327.00
1150.115, 15391.19
1151.206, 15297.00
1152.297, 15392.00
1153.388, 15409.00
1154.479, 15301.00
1155.569, 15376.00
1156.659, 15373.00
1157.750, 15485.00
1158.839, 15552.00
1159.929, 15365.00
1161.019, 15562.00
1162.108, 15593.00
1163.198, 15363.00
1164.287, 15606.00
1165.376, 15590.00
1166.465, 15566.00
1167.553, 15756.00
1168.642, 15736.00
1169.730, 15737.00
1170.818, 15801.51
1171.906, 15636.00
1172.994, 15775.00
1174.082, 15784.00
1175.170, 15658.00
1176.257, 15811.00
1177.344, 15654.00
1178.431, 15857.00
1179.518, 15682.00
1180.605, 15739.00
1181.691, 15912.00
1182.778, 15772.00
1183.864, 15872.00
1184.950, 15934.00
1186.036, 15874.00
1187.122, 15847.00
1188.207, 15917.00
1189.292, 16025.00
1190.378, 15914.00
1191.463, 15966.00
1192.548, 15987.00
1193.632, 15938.00
1194.717, 15988.00
1195.801, 15989.23
1196.886, 15925.00
1197.970, 16050.00
1199.054, 16011.00
1200.137, 16077.00
1201.221, 15990.00
1202.305, 16110.00
1203.388, 16283.00
1204.471, 16233.00
1205.554, 16242.00
1206.637, 16214.00
1207.719, 16189.00
1208.802, 16177.00
1209.884, 16100.00
1210.966, 16170.00
1212.048, 16295.00
1213.130, 16174.00
1214.212, 16266.00
1215.293, 16273.19
1216.374, 16377.00
1217.456, 16324.00
1218.536, 16362.00
1219.617, 16411.00
1220.698, 16473.00
1221.778, 16494.27
1222.859, 16506.94
1223.939, 16540.00
1225.019, 16502.00
1226.099, 16505.00
1227.178, 16511.00
1228.258, 16492.00
1229.337, 16596.00
1230.417, 16620.00
1231.496, 16512.00
1232.574, 16617.00
1233.653, 16535.00
1234.732, 16762.00
1235.810, 16554.00
1236.888, 16726.00
1237.966, 16624.00
1239.044, 16690.00
1240.122, 16876.00
1241.199, 16619.00
1242.277, 16936.00
1243.354, 16813.00
1244.431, 16854.00
1245.508, 16873.00
1246.585, 16840.00
1247.661, 16978.00
1248.738, 16881.00
1249.814, 16709.00
1250.890, 16799.00
1251.966, 16797.00
1253.042, 16970.00
1254.117, 17003.00
1255.193, 16974.00
1256.268, 17147.00
1257.343, 16999.00
1258.418, 17106.00
1259.493, 17132.00
1260.567, 17112.00
1261.642, 17240.00
1262.716, 17150.00
1263.790, 17393.00
1264.864, 17284.00
1265.938, 17303.00
1267.011, 17404.00
1268.085, 17427.00
1269.158, 17273.00
1270.231, 17320.00
1271.304, 17347.00
1272.377, 17483.00
1273.450, 17601.00
1274.522, 17357.00
1275.594, 17528.00
1276.666, 17688.00
1277.738, 17370.00
1278.810, 17563.00
1279.882, 17471.00
1280.953, 17533.00
1282.025, 17635.00
1283.096, 17721.00
1284.167, 17623.00
1285.238, 17724.00
1286.308, 17725.00
1287.379, 17737.00
1288.449, 17890.00
1289.519, 17664.00
1290.589, 17931.00
1291.659, 17963.00
1292.729, 18009.00
1293.798, 17795.00
1294.868, 17993.00
1295.937, 17937.00
1297.006, 17989.00
1298.075, 18162.00
1299.143, 18118.00
1300.212, 18283.00
1301.280, 18212.00
1302.348, 18068.00
1303.416, 18165.00
1304.484, 18340.00
1305.552, 18577.00
1306.620, 18354.00
1307.687, 18544.00
1308.754, 18574.00
1309.821, 18480.00
1310.888, 18559.00
1311.955, 18698.00
1313.021, 18549.00
1314.088, 18671.00
1315.154, 18756.00
1316.220, 18864.00
1317.286, 18697.00
1318.352, 18923.00
1319.417, 18896.00
1320.483, 19028.00
1321.548, 18889.00
1322.613, 18941.00
1323.678, 18846.00
1324.743, 19047.00
1325.807, 19026.00
1326.872, 19169.00
1327.936, 19050.00
1329.000, 19069.00
1330.064, 19194.00
1331.128, 19355.00
1332.191, 19409.00
1333.255, 19406.00
1334.318, 19416.00
1335.381, 19538.00
1336.444, 19516.00
1337.507, 19610.25
1338.569, 19671.00
1339.632, 19774.00
1340.694, 19716.00
1341.756, 19817.00
1342.818, 20034.00
1343.880, 20085.00
1344.941, 20347.00
1346.003, 20633.00
1347.064, 20810.00
1348.125, 20846.00
1349.186, 21305.00
1350.247, 21502.00
1351.308, 21723.00
1352.368, 22115.00
1353.428, 22571.00
1354.489, 23019.00
1355.549, 23350.00
1356.608, 23861.00
1357.668, 24416.00
1358.727, 24557.00
1359.787, 25006.00
1360.846, 25068.00
1361.905, 25431.00
1362.964, 25589.00
1364.022, 25631.00
1365.081, 25668.00
1366.139, 25892.00
1367.197, 25997.00
1368.255, 26325.00
1369.313, 26658.00
1370.371, 26844.00
1371.428, 26912.00
1372.486, 27230.00
1373.543, 27211.00
1374.600, 27070.00
1375.657, 26317.00
1376.713, 26134.00
1377.770, 25448.00
1378.826, 24873.00
1379.882, 24136.00
1380.938, 23442.00
1381.994, 23072.00
1383.050, 22520.00
1384.106, 22078.00
1385.161, 21662.00
1386.216, 21306.14
1387.271, 20897.00
1388.326, 20796.00
1389.381, 20632.00
1390.435, 20575.00
1391.490, 20387.00
1392.544, 20288.00
1393.598, 20202.00
1394.652, 20096.00
1395.705, 20080.74
1396.759, 20181.00
1397.812, 20114.00
1398.866, 20129.00
1399.919, 20259.00
1400.972, 19924.00
1402.024, 19894.00
1403.077, 20035.00
1404.129, 20119.00
1405.181, 20244.00
1406.233, 20220.00
1407.285, 20170.00
1408.337, 20286.00
1409.389, 20302.00
1410.440, 20564.00
1411.491, 20604.00
1412.542, 20516.00
1413.593, 20743.00
1414.644, 20681.00
1415.695, 20584.00
1416.745, 20781.00
1417.795, 20899.00
1418.845, 20835.00
1419.895, 20653.00
1420.945, 20727.00
1421.995, 20699.00
1423.044, 20856.00
1424.093, 20932.00
1425.142, 20983.00
1426.191, 20820.00
1427.240, 20913.00
1428.289, 20857.00
1429.337, 20973.00
1430.385, 20874.00
1431.433, 20888.00
1432.481, 21052.00
1433.529, 20980.00
1434.577, 20917.00
1435.624, 21066.00
1436.672, 21022.31
1437.719, 21115.00
1438.766, 21160.00
1439.812, 21195.00
1440.859, 21386.00
1441.905, 21327.00
1442.952, 21523.00
1443.998, 21451.00
1445.044, 21892.00
1446.090, 21897.00
1447.135, 21963.00
1448.181, 22025.00
1449.226, 22232.00
1450.271, 22468.00
1451.316, 22414.00
1452.361, 22732.00
1453.405, 22789.00
1454.450, 23129.00
1455.494, 23406.00
1456.538, 23374.00
1457.582, 23650.00
1458.626, 23864.00
1459.670, 24177.00
1460.713, 24411.96
1461.757, 24383.00
1462.800, 24860.00
1463.843, 24943.00
1464.886, 25026.00
1465.928, 25529.00
1466.971, 25424.00
1468.013, 25732.00
1469.055, 25993.00
1470.097, 26034.00
1471.139, 25971.00
1472.181, 26056.00
1473.222, 26206.00
1474.263, 26401.00
1475.305, 26419.00
1476.346, 26263.00
1477.386, 26387.00
1478.427, 26237.00
1479.468, 25860.00
1480.508, 25660.00
1481.548, 25253.00
1482.588, 25064.19
1483.628, 24892.00
1484.668, 24623.00
1485.707, 24388.00
1486.747, 24098.00
1487.786, 23783.00
1488.825, 23552.00
1489.864, 23327.00
1490.902, 23156.00
1491.941, 22824.00
1492.979, 22739.00
1494.017, 22370.00
1495.055, 22213.00
1496.093, 21983.00
1497.131, 21752.00
1498.168, 21642.00
1499.206, 21559.00
1500.243, 21519.00
1501.280, 21302.00
1502.317, 21285.00
1503.354, 21167.00
1504.390, 21265.00
1505.426, 20982.00
1506.463, 21034.00
1507.499, 20978.00
1508.535, 20953.00
1509.570, 20727.00
1510.606, 20921.00
1511.641, 20883.00
1512.676, 20654.00
1513.711, 20830.00
1514.746, 20665.00
1515.781, 20517.00
1516.816, 20551.00
1517.850, 20596.00
1518.884, 20587.00
1519.918, 20668.00
1520.952, 20755.00
1521.986, 20677.00
1523.019, 20813.00
1524.053, 20789.00
1525.086, 20801.01
1526.119, 20595.00
1527.152, 20798.00
1528.185, 20619.00
1529.217, 20559.00
1530.250, 20854.00
1531.282, 20827.00
1532.314, 20575.00
1533.346, 20655.00
1534.377, 20532.00
1535.409, 20630.00
1536.440, 20626.00
1537.472, 20798.00
1538.503, 20584.00
1539.534, 20714.00
1540.564, 20750.00
1541.595, 20595.00
1542.625, 20641.00
1543.656, 20629.00
1544.686, 20786.00
1545.716, 20698.00
1546.745, 20620.00
1547.775, 20850.00
1548.804, 20618.00
1549.834, 20658.00
1550.863, 20845.00
1551.892, 20860.00
1552.920, 20780.00
1553.949, 20797.00
1554.977, 20812.00
1556.006, 20622.00
1557.034, 20717.00
1558.062, 20837.00
1559.089, 20509.00
1560.117, 20719.00
1561.144, 20717.00
1562.172, 20828.00
1563.199, 20804.00
1564.226, 20760.00
1565.252, 20812.00
1566.279, 20882.00
1567.305, 20667.00
1568.332, 20850.00
1569.358, 20775.00
1570.384, 20738.00
##END=



