##NAMES=Cerussite
##RRUFFID=R050174
##IDEAL CHEMISTRY=Pb^2+^CO_3_
##LOCALITY=Tsumeb mine, Tsumeb, Otavi District, Oshikoto, Namibia
##OWNER=RRUFF
##SOURCE=Marcus Origlieri
##DESCRIPTION=Colorless single crystal
##STATUS=The identification of this mineral has been confirmed by X-ray diffraction and chemical analysis
##URL=rruff.info/R050174
##MEASURED CHEMISTRY=Pb_1.00_CO_3_ ; C not measured but estimated by difference and stoichiometry
##PIN_ID=L01652
##ORIENTATION=Laser parallel to -b* (0 -1 0). Fiducial mark perpendicular to laser is parallel to c [0 0 1]
51.43100, 389.0000
52.67100, 385.0000
53.91000, 404.0000
55.14900, 423.0000
56.38700, 437.0000
57.62600, 450.0000
58.86400, 473.0000
60.10300, 513.0000
61.34100, 571.0000
62.57900, 669.7570
63.81700, 781.0000
65.05400, 926.0000
66.29200, 1101.000
67.52900, 1275.000
68.76700, 1482.492
70.00400, 1698.000
71.24100, 1936.000
72.47700, 2200.000
73.71400, 2454.000
74.95100, 2702.000
76.18700, 2887.000
77.42300, 2953.000
78.65900, 3042.000
79.89500, 3090.000
81.13100, 3262.000
82.36700, 3456.000
83.60200, 3705.000
84.83700, 4076.000
86.07200, 4601.000
87.30800, 5152.000
88.54200, 6049.000
89.77700, 6898.000
91.01200, 8114.000
92.24600, 9319.000
93.48000, 10524.00
94.71400, 11560.00
95.94800, 12643.00
97.18200, 13512.00
98.41600, 14790.00
99.64900, 16791.00
100.8830, 19049.00
102.1160, 21642.00
103.3490, 24878.00
104.5820, 27415.00
105.8150, 28172.00
107.0470, 27051.00
108.2800, 24574.00
109.5120, 20652.00
110.7440, 16915.00
111.9760, 13764.00
113.2080, 11291.00
114.4400, 9537.000
115.6710, 8235.000
116.9030, 7410.000
118.1340, 6784.000
119.3650, 6557.000
120.5960, 6167.000
121.8270, 6202.000
123.0580, 6148.000
124.2880, 6375.000
125.5190, 6594.000
126.7490, 6854.000
127.9790, 7288.000
129.2090, 7776.000
130.4390, 8342.000
131.6680, 8931.000
132.8980, 9610.000
134.1270, 9927.000
135.3560, 10264.00
136.5850, 10356.00
137.8140, 10246.00
139.0430, 10125.00
140.2710, 10000.00
141.5000, 9997.000
142.7280, 9838.000
143.9560, 9952.000
145.1840, 9906.000
146.4120, 10265.00
147.6390, 10460.00
148.8670, 10576.00
150.0940, 10851.00
151.3210, 10679.00
152.5490, 10662.00
153.7750, 10142.00
155.0020, 9596.000
156.2290, 8855.000
157.4550, 8176.000
158.6810, 7504.000
159.9080, 6923.000
161.1340, 6395.000
162.3590, 5859.000
163.5850, 5494.000
164.8110, 5142.174
166.0360, 4831.000
167.2610, 4654.000
168.4860, 4411.000
169.7110, 4271.000
170.9360, 4230.000
172.1610, 4199.000
173.3850, 4169.000
174.6100, 4126.000
175.8340, 4142.000
177.0580, 4119.000
178.2820, 4183.000
179.5050, 4035.000
180.7290, 3974.000
181.9520, 4013.000
183.1760, 3930.000
184.3990, 3731.000
185.6220, 3465.000
186.8450, 3418.000
188.0670, 3212.000
189.2900, 3140.000
190.5120, 2921.000
191.7340, 2829.000
192.9560, 2711.000
194.1780, 2665.000
195.4000, 2680.000
196.6220, 2605.000
197.8430, 2620.000
199.0640, 2592.000
200.2860, 2577.000
201.5070, 2568.000
202.7270, 2604.000
203.9480, 2629.000
205.1690, 2636.000
206.3890, 2632.000
207.6090, 2657.918
208.8290, 2656.000
210.0490, 2700.000
211.2690, 2718.000
212.4890, 2751.000
213.7080, 2722.000
214.9280, 2839.000
216.1470, 2791.000
217.3660, 2770.000
218.5850, 2727.000
219.8030, 2654.000
221.0220, 2513.000
222.2400, 2428.000
223.4590, 2321.000
224.6770, 2278.000
225.8950, 2223.000
227.1120, 2103.000
228.3300, 2072.000
229.5480, 1942.000
230.7650, 1881.000
231.9820, 1799.000
233.1990, 1853.000
234.4160, 1800.000
235.6330, 1743.000
236.8490, 1789.000
238.0660, 1715.000
239.2820, 1664.000
240.4980, 1636.000
241.7140, 1613.000
242.9300, 1619.000
244.1460, 1568.000
245.3610, 1559.000
246.5770, 1570.000
247.7920, 1486.000
249.0070, 1452.000
250.2220, 1517.000
251.4370, 1396.000
252.6510, 1442.000
253.8660, 1434.000
255.0800, 1441.000
256.2940, 1358.000
257.5080, 1366.000
258.7220, 1373.000
259.9360, 1412.000
261.1490, 1320.000
262.3630, 1344.000
263.5760, 1296.000
264.7890, 1324.000
266.0020, 1283.000
267.2150, 1258.000
268.4270, 1275.000
269.6400, 1245.000
270.8520, 1243.000
272.0640, 1276.000
273.2760, 1227.000
274.4880, 1216.000
275.7000, 1223.000
276.9120, 1239.000
278.1230, 1169.000
279.3340, 1204.000
280.5450, 1139.000
281.7560, 1185.000
282.9670, 1172.000
284.1780, 1174.000
285.3880, 1150.000
286.5980, 1120.000
287.8090, 1148.000
289.0190, 1117.000
290.2290, 1128.000
291.4380, 1101.000
292.6480, 1110.000
293.8570, 1095.000
295.0670, 1099.000
296.2760, 1131.000
297.4850, 1068.000
298.6930, 1114.000
299.9020, 1087.000
301.1110, 1093.000
302.3190, 1034.000
303.5270, 1047.000
304.7350, 1044.000
305.9430, 1080.000
307.1510, 1043.000
308.3580, 1056.000
309.5660, 1032.000
310.7730, 1052.000
311.9800, 1027.000
313.1870, 1003.000
314.3940, 982.0000
315.6010, 1024.000
316.8070, 1048.000
318.0130, 1051.000
319.2200, 1031.000
320.4260, 1033.000
321.6310, 999.0000
322.8370, 1045.000
324.0430, 998.0000
325.2480, 1026.000
326.4540, 1015.000
327.6590, 1016.000
328.8640, 993.0000
330.0680, 1013.000
331.2730, 1004.000
332.4780, 1000.000
333.6820, 998.0000
334.8860, 990.8412
336.0900, 987.0000
337.2940, 978.0000
338.4980, 983.0000
339.7010, 972.0000
340.9050, 980.3892
342.1080, 1021.000
343.3110, 994.0000
344.5140, 995.0000
345.7170, 998.0000
346.9200, 976.0000
348.1220, 995.0000
349.3240, 958.0000
350.5270, 981.0000
351.7290, 954.0000
352.9310, 965.0000
354.1320, 975.0000
355.3340, 1013.000
356.5350, 1023.000
357.7370, 975.0000
358.9380, 972.0000
360.1390, 959.0000
361.3400, 953.2347
362.5400, 959.0000
363.7410, 969.0000
364.9410, 969.0000
366.1410, 988.0000
367.3410, 991.0000
368.5410, 984.0000
369.7410, 963.0000
370.9400, 953.0000
372.1400, 994.0000
373.3390, 970.0000
374.5380, 1000.000
375.7370, 972.0000
376.9360, 953.0000
378.1350, 957.0000
379.3330, 989.0000
380.5310, 953.0000
381.7300, 975.0000
382.9280, 967.0000
384.1260, 980.0000
385.3230, 941.0000
386.5210, 979.0000
387.7180, 919.0000
388.9160, 984.0000
390.1130, 955.0000
391.3100, 958.0000
392.5060, 985.0000
393.7030, 960.0000
394.9000, 962.0000
396.0960, 979.0000
397.2920, 955.0000
398.4880, 943.0000
399.6840, 974.0000
400.8800, 934.0000
402.0750, 948.0000
403.2710, 931.0000
404.4660, 943.0000
405.6610, 969.0000
406.8560, 942.0000
408.0510, 953.0000
409.2450, 977.0000
410.4400, 932.0000
411.6340, 954.0000
412.8280, 973.0000
414.0220, 949.0000
415.2160, 928.0000
416.4100, 931.0000
417.6030, 931.7162
418.7970, 935.0000
419.9900, 960.0000
421.1830, 955.0000
422.3760, 971.0000
423.5690, 921.0000
424.7610, 1007.000
425.9540, 967.0000
427.1460, 921.0000
428.3380, 951.0000
429.5300, 943.0000
430.7220, 944.0000
431.9140, 933.0000
433.1050, 949.0000
434.2970, 924.0000
435.4880, 946.0000
436.6790, 961.0000
437.8700, 981.0000
439.0610, 982.0000
440.2510, 985.0000
441.4420, 992.3898
442.6320, 965.0000
443.8220, 983.0000
445.0120, 997.0000
446.2020, 962.0000
447.3910, 943.0000
448.5810, 956.0000
449.7700, 999.0000
450.9600, 977.0000
452.1490, 944.0000
453.3370, 983.0000
454.5260, 958.0000
455.7150, 1003.000
456.9030, 986.0000
458.0910, 954.0000
459.2800, 962.0000
460.4670, 953.0000
461.6550, 970.0000
462.8430, 970.0000
464.0300, 962.0000
465.2180, 973.0000
466.4050, 951.0000
467.5920, 946.0000
468.7790, 953.0000
469.9650, 956.0000
471.1520, 962.1370
472.3380, 978.0000
473.5250, 981.0000
474.7110, 987.0000
475.8970, 1000.000
477.0820, 1023.000
478.2680, 994.0000
479.4540, 981.0000
480.6390, 994.0000
481.8240, 948.0000
483.0090, 993.0000
484.1940, 1006.000
485.3780, 987.0000
486.5630, 976.0000
487.7470, 998.0000
488.9320, 1019.000
490.1160, 992.0000
491.3000, 980.0000
492.4830, 1020.000
493.6670, 972.0000
494.8500, 1002.000
496.0340, 999.0000
497.2170, 974.0000
498.4000, 1017.000
499.5820, 964.0000
500.7650, 993.0000
501.9480, 998.0000
503.1300, 993.0000
504.3120, 1019.000
505.4940, 987.0000
506.6760, 962.0000
507.8580, 980.0000
509.0390, 970.0000
510.2210, 973.0000
511.4020, 987.0000
512.5830, 956.0000
513.7640, 969.0000
514.9450, 975.0000
516.1250, 944.0000
517.3060, 979.0000
518.4860, 964.0000
519.6660, 991.0000
520.8460, 976.0000
522.0260, 1012.000
523.2060, 946.0000
524.3850, 961.0000
525.5650, 979.0000
526.7440, 964.0000
527.9230, 981.0000
529.1020, 981.0000
530.2810, 987.0000
531.4590, 963.0000
532.6380, 954.0000
533.8160, 1005.000
534.9940, 958.0000
536.1720, 979.0000
537.3500, 981.0000
538.5270, 945.0000
539.7050, 934.0000
540.8820, 981.0000
542.0590, 966.0000
543.2360, 959.0000
544.4130, 952.0000
545.5900, 961.0000
546.7660, 967.0000
547.9430, 950.0000
549.1190, 972.0000
550.2950, 966.0000
551.4710, 960.0000
552.6470, 961.0000
553.8220, 979.0000
554.9980, 978.0000
556.1730, 983.0000
557.3480, 945.0000
558.5230, 968.0000
559.6980, 992.0000
560.8730, 956.0000
562.0470, 966.0000
563.2220, 952.0000
564.3960, 963.0000
565.5700, 987.0000
566.7440, 1007.000
567.9170, 977.0000
569.0910, 1006.000
570.2640, 981.0000
571.4380, 993.0000
572.6110, 965.0000
573.7840, 962.0000
574.9570, 973.0000
576.1290, 978.0000
577.3020, 983.0000
578.4740, 970.0000
579.6460, 965.0000
580.8180, 987.0000
581.9900, 969.0000
583.1620, 985.0000
584.3330, 1000.000
585.5040, 981.0000
586.6760, 976.0000
587.8470, 959.0000
589.0180, 982.0000
590.1880, 978.0000
591.3590, 980.0000
592.5290, 986.0000
593.7000, 993.0000
594.8700, 973.0000
596.0400, 1001.000
597.2090, 1000.000
598.3790, 980.0000
599.5490, 1002.000
600.7180, 996.9808
601.8870, 1010.000
603.0560, 1009.000
604.2250, 1007.000
605.3940, 1012.000
606.5620, 987.0000
607.7300, 1011.000
608.8990, 1025.000
610.0670, 999.0000
611.2350, 1017.000
612.4020, 1015.000
613.5700, 994.0000
614.7370, 978.0000
615.9050, 984.0000
617.0720, 1006.000
618.2390, 1000.000
619.4060, 1014.538
620.5720, 1011.000
621.7390, 1027.000
622.9050, 1021.000
624.0710, 1016.000
625.2370, 1018.000
626.4030, 1017.144
627.5690, 1021.915
628.7340, 1026.000
629.9000, 1037.000
631.0650, 1050.000
632.2300, 1063.000
633.3950, 1059.000
634.5600, 1042.000
635.7240, 1040.000
636.8890, 1029.000
638.0530, 1021.000
639.2170, 1018.686
640.3810, 1016.060
641.5450, 1018.000
642.7080, 1021.000
643.8720, 1033.000
645.0350, 1042.000
646.1980, 1040.088
647.3610, 1018.000
648.5240, 1040.000
649.6870, 1031.000
650.8490, 1037.793
652.0120, 1005.000
653.1740, 1035.000
654.3360, 1033.000
655.4980, 1031.000
656.6600, 1044.000
657.8210, 1029.000
658.9830, 1026.000
660.1440, 1013.000
661.3050, 1059.000
662.4660, 1044.000
663.6270, 1037.000
664.7870, 1014.000
665.9480, 1034.000
667.1080, 1046.832
668.2680, 1118.000
669.4280, 1120.000
670.5880, 1153.000
671.7480, 1227.000
672.9070, 1336.000
674.0670, 1602.000
675.2260, 1881.000
676.3850, 2009.000
677.5440, 1864.000
678.7030, 1697.000
679.8610, 1738.000
681.0200, 2119.000
682.1780, 3230.000
683.3360, 4392.000
684.4940, 4336.000
685.6520, 3306.000
686.8090, 2256.000
687.9670, 1629.000
689.1240, 1329.000
690.2810, 1156.000
691.4380, 1115.000
692.5950, 1089.000
693.7520, 1039.000
694.9080, 1066.000
696.0650, 1071.000
697.2210, 1069.000
698.3770, 1019.000
699.5330, 1050.000
700.6880, 1026.000
701.8440, 1040.000
702.9990, 1042.000
704.1550, 1053.000
705.3100, 1025.000
706.4650, 1030.000
707.6190, 1027.000
708.7740, 1015.000
709.9290, 1030.000
711.0830, 1053.000
712.2370, 1022.000
713.3910, 1022.000
714.5450, 1050.000
715.6980, 1068.000
716.8520, 1032.000
718.0050, 1077.000
719.1580, 1094.000
720.3110, 1066.000
721.4640, 1053.000
722.6170, 1081.000
723.7700, 1075.000
724.9220, 1075.000
726.0740, 1091.000
727.2260, 1104.000
728.3780, 1109.000
729.5300, 1105.130
730.6810, 1068.000
731.8330, 1082.000
732.9840, 1077.000
734.1350, 1059.000
735.2860, 1070.059
736.4370, 1074.000
737.5880, 1080.000
738.7380, 1083.000
739.8880, 1083.890
741.0390, 1088.044
742.1890, 1087.000
743.3380, 1087.000
744.4880, 1096.000
745.6380, 1083.000
746.7870, 1083.000
747.9360, 1069.000
749.0850, 1070.115
750.2340, 1082.000
751.3830, 1073.000
752.5310, 1075.000
753.6800, 1081.000
754.8280, 1067.000
755.9760, 1064.000
757.1240, 1065.000
758.2720, 1070.000
759.4190, 1112.000
760.5670, 1059.000
761.7140, 1093.000
762.8610, 1042.000
764.0080, 1118.000
765.1550, 1063.000
766.3020, 1107.000
767.4480, 1108.000
768.5950, 1103.000
769.7410, 1096.000
770.8870, 1100.000
772.0330, 1114.000
773.1780, 1106.000
774.3240, 1097.000
775.4690, 1126.000
776.6140, 1139.000
777.7590, 1090.000
778.9040, 1059.000
780.0490, 1099.000
781.1940, 1119.000
782.3380, 1087.000
783.4820, 1144.000
784.6260, 1120.000
785.7700, 1136.000
786.9140, 1084.000
788.0580, 1108.000
789.2010, 1133.000
790.3450, 1117.000
791.4880, 1125.000
792.6310, 1126.000
793.7730, 1099.000
794.9160, 1122.000
796.0590, 1091.000
797.2010, 1090.000
798.3430, 1091.000
799.4850, 1108.000
800.6270, 1084.000
801.7690, 1099.000
802.9100, 1130.000
804.0520, 1110.000
805.1930, 1109.000
806.3340, 1080.000
807.4750, 1113.000
808.6160, 1112.000
809.7560, 1116.000
810.8970, 1127.000
812.0370, 1147.000
813.1770, 1140.308
814.3170, 1145.000
815.4570, 1138.000
816.5960, 1136.000
817.7360, 1144.000
818.8750, 1150.000
820.0140, 1187.000
821.1530, 1146.000
822.2920, 1220.000
823.4310, 1186.000
824.5690, 1290.000
825.7070, 1337.000
826.8460, 1308.000
827.9840, 1277.000
829.1220, 1339.000
830.2590, 1427.000
831.3970, 1550.000
832.5340, 1774.000
833.6710, 1845.000
834.8080, 1904.000
835.9450, 2149.000
837.0820, 2738.000
838.2190, 3662.000
839.3550, 4630.000
840.4910, 4484.000
841.6270, 3610.000
842.7630, 2610.000
843.8990, 2010.000
845.0350, 1620.000
846.1700, 1456.000
847.3060, 1349.000
848.4410, 1275.000
849.5760, 1236.000
850.7100, 1241.000
851.8450, 1194.000
852.9800, 1194.000
854.1140, 1157.000
855.2480, 1185.000
856.3820, 1161.000
857.5160, 1145.000
858.6500, 1137.000
859.7830, 1130.533
860.9170, 1160.000
862.0500, 1137.000
863.1830, 1155.000
864.3160, 1172.000
865.4480, 1121.000
866.5810, 1135.000
867.7130, 1113.000
868.8460, 1158.000
869.9780, 1146.000
871.1100, 1103.000
872.2410, 1149.000
873.3730, 1148.000
874.5050, 1139.000
875.6360, 1162.000
876.7670, 1140.000
877.8980, 1127.000
879.0290, 1157.000
880.1590, 1165.000
881.2900, 1125.000
882.4200, 1119.000
883.5500, 1125.000
884.6800, 1134.000
885.8100, 1134.000
886.9400, 1144.000
888.0690, 1156.000
889.1990, 1166.000
890.3280, 1125.000
891.4570, 1156.000
892.5860, 1113.000
893.7140, 1131.000
894.8430, 1151.000
895.9710, 1145.000
897.1000, 1185.000
898.2280, 1148.000
899.3560, 1133.000
900.4830, 1167.000
901.6110, 1170.000
902.7380, 1149.000
903.8660, 1167.000
904.9930, 1164.000
906.1200, 1160.000
907.2460, 1161.000
908.3730, 1147.000
909.5000, 1161.000
910.6260, 1185.000
911.7520, 1140.000
912.8780, 1131.000
914.0040, 1155.000
915.1290, 1196.000
916.2550, 1170.000
917.3800, 1143.000
918.5050, 1141.000
919.6300, 1137.383
920.7550, 1190.000
921.8800, 1160.000
923.0040, 1164.000
924.1290, 1188.000
925.2530, 1174.000
926.3770, 1156.000
927.5010, 1177.000
928.6250, 1186.000
929.7480, 1165.000
930.8720, 1164.000
931.9950, 1197.000
933.1180, 1194.000
934.2410, 1188.000
935.3640, 1176.000
936.4860, 1204.000
937.6090, 1165.000
938.7310, 1176.000
939.8530, 1189.000
940.9750, 1157.000
942.0970, 1219.000
943.2180, 1176.000
944.3400, 1156.000
945.4610, 1199.000
946.5820, 1182.000
947.7030, 1142.000
948.8240, 1170.000
949.9450, 1189.000
951.0650, 1207.000
952.1860, 1210.000
953.3060, 1193.000
954.4260, 1185.000
955.5460, 1205.000
956.6650, 1211.000
957.7850, 1179.000
958.9040, 1193.000
960.0230, 1222.000
961.1420, 1203.000
962.2610, 1185.000
963.3800, 1203.000
964.4990, 1201.000
965.6170, 1201.000
966.7350, 1173.000
967.8530, 1171.000
968.9710, 1211.000
970.0890, 1233.000
971.2070, 1247.000
972.3240, 1205.000
973.4410, 1223.000
974.5580, 1196.000
975.6750, 1208.000
976.7920, 1247.000
977.9090, 1230.000
979.0250, 1226.000
980.1410, 1261.000
981.2580, 1223.000
982.3740, 1225.000
983.4890, 1237.000
984.6050, 1241.000
985.7200, 1210.000
986.8360, 1233.000
987.9510, 1226.000
989.0660, 1241.000
990.1810, 1244.227
991.2950, 1242.444
992.4100, 1248.000
993.5240, 1244.000
994.6390, 1242.000
995.7530, 1250.000
996.8660, 1233.000
997.9800, 1254.000
999.0940, 1261.000
1000.207, 1231.000
1001.320, 1235.000
1002.433, 1254.000
1003.546, 1296.000
1004.659, 1282.000
1005.772, 1264.000
1006.884, 1251.000
1007.996, 1269.000
1009.108, 1242.000
1010.220, 1285.000
1011.332, 1274.000
1012.444, 1282.000
1013.555, 1291.000
1014.666, 1255.000
1015.777, 1241.000
1016.888, 1233.000
1017.999, 1273.000
1019.110, 1264.000
1020.220, 1250.000
1021.331, 1320.000
1022.441, 1283.000
1023.551, 1259.000
1024.661, 1306.000
1025.770, 1312.000
1026.880, 1345.000
1027.989, 1330.000
1029.098, 1368.000
1030.207, 1373.000
1031.316, 1501.000
1032.425, 1613.000
1033.533, 1628.000
1034.642, 1529.000
1035.750, 1482.000
1036.858, 1464.000
1037.966, 1416.000
1039.073, 1492.000
1040.181, 1478.000
1041.288, 1615.000
1042.396, 1687.000
1043.503, 1733.000
1044.610, 1936.000
1045.716, 2261.000
1046.823, 2997.000
1047.929, 4771.000
1049.036, 8109.000
1050.142, 11468.00
1051.248, 10890.00
1052.353, 12191.00
1053.459, 19400.00
1054.564, 42325.00
1055.670, 65535.00
1056.775, 64186.00
1057.880, 40601.00
1058.985, 19260.00
1060.089, 8712.000
1061.194, 4439.000
1062.298, 2939.000
1063.402, 2252.000
1064.506, 1976.000
1065.610, 1764.000
1066.713, 1659.000
1067.817, 1559.000
1068.920, 1486.000
1070.023, 1478.000
1071.126, 1470.000
1072.229, 1396.000
1073.332, 1425.000
1074.435, 1404.000
1075.537, 1348.000
1076.639, 1415.000
1077.741, 1353.000
1078.843, 1344.000
1079.945, 1346.000
1081.046, 1338.000
1082.148, 1351.000
1083.249, 1367.000
1084.350, 1349.000
1085.451, 1361.000
1086.551, 1343.000
1087.652, 1350.000
1088.752, 1354.000
1089.853, 1353.000
1090.953, 1351.000
1092.053, 1362.000
1093.152, 1340.000
1094.252, 1350.000
1095.351, 1387.000
1096.451, 1383.000
1097.550, 1369.000
1098.649, 1406.000
1099.748, 1394.000
1100.846, 1354.000
1101.945, 1423.000
1103.043, 1377.000
1104.141, 1359.000
1105.239, 1369.000
1106.337, 1376.000
1107.434, 1358.000
1108.532, 1350.000
1109.629, 1357.000
1110.726, 1358.000
1111.823, 1360.000
1112.920, 1365.225
1114.017, 1340.000
1115.113, 1363.000
1116.210, 1362.000
1117.306, 1338.000
1118.402, 1406.000
1119.498, 1338.000
1120.593, 1332.000
1121.689, 1388.000
1122.784, 1370.000
1123.879, 1355.000
1124.974, 1342.000
1126.069, 1373.000
1127.164, 1335.000
1128.259, 1362.000
1129.353, 1348.000
1130.447, 1318.000
1131.541, 1385.000
1132.635, 1373.000
1133.729, 1351.000
1134.822, 1347.000
1135.916, 1352.000
1137.009, 1362.000
1138.102, 1333.000
1139.195, 1336.000
1140.288, 1312.000
1141.380, 1361.000
1142.473, 1335.000
1143.565, 1363.000
1144.657, 1325.000
1145.749, 1354.000
1146.841, 1321.000
1147.932, 1346.000
1149.024, 1348.000
1150.115, 1360.000
1151.206, 1336.000
1152.297, 1356.000
1153.388, 1370.000
1154.479, 1326.000
1155.569, 1339.000
1156.659, 1343.000
1157.750, 1308.000
1158.839, 1386.000
1159.929, 1392.000
1161.019, 1341.000
1162.108, 1399.000
1163.198, 1398.000
1164.287, 1385.000
1165.376, 1352.000
1166.465, 1359.000
1167.553, 1380.000
1168.642, 1363.000
1169.730, 1372.000
1170.818, 1363.000
1171.906, 1413.000
1172.994, 1347.000
1174.082, 1412.000
1175.170, 1377.000
1176.257, 1403.000
1177.344, 1351.000
1178.431, 1395.000
1179.518, 1369.000
1180.605, 1390.000
1181.691, 1390.000
1182.778, 1407.000
1183.864, 1401.000
1184.950, 1386.000
1186.036, 1384.000
1187.122, 1405.000
1188.207, 1436.000
1189.292, 1474.000
1190.378, 1432.000
1191.463, 1428.000
1192.548, 1450.000
1193.632, 1450.000
1194.717, 1442.802
1195.801, 1396.000
1196.886, 1428.000
1197.970, 1414.000
1199.054, 1419.000
1200.137, 1424.000
1201.221, 1455.000
1202.305, 1457.264
1203.388, 1481.000
1204.471, 1471.000
1205.554, 1496.000
1206.637, 1484.000
1207.719, 1484.000
1208.802, 1487.000
1209.884, 1494.000
1210.966, 1499.966
1212.048, 1505.000
1213.130, 1511.000
1214.212, 1516.000
1215.293, 1507.042
1216.374, 1510.038
1217.456, 1519.000
1218.536, 1505.000
1219.617, 1532.000
1220.698, 1533.000
1221.778, 1525.000
1222.859, 1496.000
1223.939, 1513.000
1225.019, 1521.000
1226.099, 1531.000
1227.178, 1548.000
1228.258, 1552.000
1229.337, 1547.000
1230.417, 1553.000
1231.496, 1543.880
1232.574, 1558.000
1233.653, 1531.000
1234.732, 1538.000
1235.810, 1542.000
1236.888, 1579.000
1237.966, 1508.000
1239.044, 1525.000
1240.122, 1566.000
1241.199, 1594.000
1242.277, 1614.000
1243.354, 1575.000
1244.431, 1562.000
1245.508, 1579.000
1246.585, 1616.000
1247.661, 1619.000
1248.738, 1678.000
1249.814, 1597.000
1250.890, 1646.000
1251.966, 1592.000
1253.042, 1643.000
1254.117, 1633.000
1255.193, 1672.000
1256.268, 1669.000
1257.343, 1680.000
1258.418, 1694.000
1259.493, 1674.000
1260.567, 1688.000
1261.642, 1680.000
1262.716, 1710.000
1263.790, 1719.000
1264.864, 1727.000
1265.938, 1770.000
1267.011, 1755.000
1268.085, 1722.000
1269.158, 1760.000
1270.231, 1752.000
1271.304, 1780.000
1272.377, 1778.000
1273.450, 1817.000
1274.522, 1815.000
1275.594, 1822.000
1276.666, 1817.000
1277.738, 1865.000
1278.810, 1810.000
1279.882, 1852.000
1280.953, 1856.000
1282.025, 1846.000
1283.096, 1902.000
1284.167, 1898.000
1285.238, 1916.000
1286.308, 1907.000
1287.379, 1924.157
1288.449, 1888.000
1289.519, 1943.000
1290.589, 1944.000
1291.659, 1931.000
1292.729, 1974.000
1293.798, 1930.000
1294.868, 1961.000
1295.937, 1951.000
1297.006, 1998.000
1298.075, 2027.000
1299.143, 1996.000
1300.212, 2053.000
1301.280, 2050.000
1302.348, 2017.000
1303.416, 2092.000
1304.484, 2108.000
1305.552, 2083.000
1306.620, 2122.000
1307.687, 2110.000
1308.754, 2164.000
1309.821, 2136.000
1310.888, 2215.000
1311.955, 2230.000
1313.021, 2218.000
1314.088, 2232.000
1315.154, 2303.000
1316.220, 2252.000
1317.286, 2292.000
1318.352, 2318.000
1319.417, 2247.000
1320.483, 2294.000
1321.548, 2339.000
1322.613, 2317.000
1323.678, 2298.000
1324.743, 2396.000
1325.807, 2350.000
1326.872, 2374.000
1327.936, 2311.000
1329.000, 2351.000
1330.064, 2364.000
1331.128, 2424.000
1332.191, 2416.000
1333.255, 2408.000
1334.318, 2416.000
1335.381, 2500.000
1336.444, 2441.000
1337.507, 2426.000
1338.569, 2501.000
1339.632, 2477.000
1340.694, 2568.000
1341.756, 2532.000
1342.818, 2524.000
1343.880, 2574.000
1344.941, 2606.000
1346.003, 2645.000
1347.064, 2710.000
1348.125, 2725.000
1349.186, 2843.000
1350.247, 2877.000
1351.308, 2986.000
1352.368, 3160.000
1353.428, 3200.000
1354.489, 3298.000
1355.549, 3430.000
1356.608, 3652.000
1357.668, 3822.000
1358.727, 3920.000
1359.787, 4144.000
1360.846, 4325.000
1361.905, 4574.000
1362.964, 4833.000
1364.022, 5021.000
1365.081, 5275.000
1366.139, 5639.000
1367.197, 5919.000
1368.255, 6209.000
1369.313, 6759.000
1370.371, 7210.000
1371.428, 7918.000
1372.486, 8476.000
1373.543, 9185.000
1374.600, 9803.000
1375.657, 10257.00
1376.713, 10560.00
1377.770, 10665.00
1378.826, 10534.00
1379.882, 10100.00
1380.938, 9496.000
1381.994, 8726.000
1383.050, 8089.000
1384.106, 7264.000
1385.161, 6479.000
1386.216, 5879.000
1387.271, 5419.000
1388.326, 4949.000
1389.381, 4583.000
1390.435, 4201.000
1391.490, 3930.000
1392.544, 3662.000
1393.598, 3500.000
1394.652, 3284.000
1395.705, 3160.000
1396.759, 3018.000
1397.812, 2908.000
1398.866, 2884.000
1399.919, 2788.000
1400.972, 2729.602
1402.024, 2690.000
1403.077, 2627.000
1404.129, 2601.000
1405.181, 2593.000
1406.233, 2558.000
1407.285, 2529.000
1408.337, 2583.000
1409.389, 2508.000
1410.440, 2503.000
1411.491, 2530.000
1412.542, 2580.000
1413.593, 2496.000
1414.644, 2541.000
1415.695, 2584.000
1416.745, 2582.000
1417.795, 2529.000
1418.845, 2534.000
1419.895, 2534.808
1420.945, 2552.000
1421.995, 2576.000
1423.044, 2540.000
1424.093, 2593.000
1425.142, 2558.000
1426.191, 2523.000
1427.240, 2676.000
1428.289, 2509.000
1429.337, 2591.000
1430.385, 2523.000
1431.433, 2457.000
1432.481, 2475.000
1433.529, 2439.000
1434.577, 2466.000
1435.624, 2361.000
1436.672, 2355.000
1437.719, 2302.000
1438.766, 2309.000
1439.812, 2278.000
1440.859, 2206.000
1441.905, 2212.000
1442.952, 2186.000
1443.998, 2199.000
1445.044, 2188.000
1446.090, 2147.000
1447.135, 2102.000
1448.181, 2100.000
1449.226, 2069.000
1450.271, 2032.000
1451.316, 2087.000
1452.361, 2024.000
1453.405, 2092.000
1454.450, 2049.000
1455.494, 2080.000
1456.538, 2055.000
1457.582, 2053.000
1458.626, 2067.000
1459.670, 2022.000
1460.713, 2023.000
1461.757, 2043.000
1462.800, 2024.000
1463.843, 2031.000
1464.886, 1962.000
1465.928, 2008.000
1466.971, 2024.000
1468.013, 2076.000
1469.055, 2025.000
1470.097, 2070.000
1471.139, 1980.000
1472.181, 2067.000
1473.222, 2003.000
1474.263, 1984.000
1475.305, 2035.000
1476.346, 2002.000
1477.386, 1963.000
1478.427, 1998.000
1479.468, 1994.000
1480.508, 1956.000
1481.548, 1929.000
1482.588, 1957.000
1483.628, 1902.000
1484.668, 1998.000
1485.707, 1955.000
1486.747, 1974.000
1487.786, 1988.000
1488.825, 1951.000
1489.864, 1908.000
1490.902, 1946.000
1491.941, 1936.000
1492.979, 1898.000
1494.017, 1944.000
1495.055, 1916.000
1496.093, 1925.000
1497.131, 1889.000
1498.168, 1910.000
1499.206, 1860.000
1500.243, 1888.000
1501.280, 1919.000
1502.317, 1899.000
1503.354, 1898.000
1504.390, 1891.000
1505.426, 1886.934
1506.463, 1884.432
1507.499, 1880.000
1508.535, 1878.000
1509.570, 1861.000
1510.606, 1855.000
1511.641, 1852.000
1512.676, 1876.000
1513.711, 1888.000
1514.746, 1857.000
1515.781, 1930.000
1516.816, 1943.000
1517.850, 1921.000
1518.884, 1892.000
1519.918, 1905.000
1520.952, 1920.000
1521.986, 1937.000
1523.019, 1925.000
1524.053, 1902.000
1525.086, 1861.000
1526.119, 1899.000
1527.152, 1962.000
1528.185, 1879.000
1529.217, 1915.000
1530.250, 1852.000
1531.282, 1880.000
1532.314, 1883.000
1533.346, 1854.000
1534.377, 1894.000
1535.409, 1887.000
1536.440, 1822.000
1537.472, 1884.000
1538.503, 1851.000
1539.534, 1830.000
1540.564, 1872.000
1541.595, 1864.000
1542.625, 1853.000
1543.656, 1790.000
1544.686, 1865.000
1545.716, 1860.000
1546.745, 1794.000
1547.775, 1794.000
1548.804, 1799.000
1549.834, 1796.000
1550.863, 1863.000
1551.892, 1847.000
1552.920, 1837.000
1553.949, 1861.000
1554.977, 1843.000
1556.006, 1806.000
1557.034, 1821.000
1558.062, 1778.000
1559.089, 1754.000
1560.117, 1804.000
1561.144, 1811.000
1562.172, 1757.000
1563.199, 1822.000
1564.226, 1780.000
1565.252, 1800.000
1566.279, 1789.000
1567.305, 1819.000
1568.332, 1798.000
1569.358, 1789.000
1570.384, 1852.000
##END=



