##NAMES=Cerussite
##RRUFFID=R060017
##IDEAL CHEMISTRY=Pb^2+^CO_3_
##LOCALITY=Gonessa, Sardinia, Italy
##OWNER=RRUFF
##SOURCE=American Museum of Natural History
##DESCRIPTION=White reticulated composite
##STATUS=The identification of this mineral has been confirmed by X-ray diffraction and chemical analysis
##URL=rruff.info/R060017
##MEASURED CHEMISTRY=Pb_1.00_CO_3_ C not measured but estimated by difference and stoichiometry
##PIN_ID=M00261
##ORIENTATION=Laser parallel to a* (1 0 0). Fiducial mark perpendicular to laser is parallel to b [0 1 0]
51.43100, 850.0000
52.67100, 865.0000
53.91000, 879.0000
55.14900, 901.0000
56.38700, 973.0000
57.62600, 1101.000
58.86400, 1284.000
60.10300, 1451.000
61.34100, 1626.000
62.57900, 1762.000
63.81700, 1923.000
65.05400, 2222.000
66.29200, 2490.000
67.52900, 2854.000
68.76700, 3283.000
70.00400, 3786.000
71.24100, 4469.000
72.47700, 4985.000
73.71400, 5432.000
74.95100, 5826.000
76.18700, 6142.000
77.42300, 6322.000
78.65900, 6702.000
79.89500, 7029.000
81.13100, 7506.000
82.36700, 7842.000
83.60200, 8362.000
84.83700, 8939.000
86.07200, 9423.000
87.30800, 10007.00
88.54200, 10522.00
89.77700, 10946.00
91.01200, 11559.00
92.24600, 12117.00
93.48000, 12590.00
94.71400, 12891.00
95.94800, 13477.00
97.18200, 13603.00
98.41600, 14093.00
99.64900, 14366.00
100.8830, 14277.00
102.1160, 14274.00
103.3490, 14360.00
104.5820, 14231.00
105.8150, 14304.00
107.0470, 13725.00
108.2800, 13465.00
109.5120, 13159.00
110.7440, 13354.00
111.9760, 13472.00
113.2080, 13905.00
114.4400, 14256.00
115.6710, 14719.00
116.9030, 15066.00
118.1340, 15309.00
119.3650, 15825.00
120.5960, 16111.00
121.8270, 16609.00
123.0580, 17135.00
124.2880, 17689.00
125.5190, 18475.00
126.7490, 18744.00
127.9790, 19272.00
129.2090, 19303.00
130.4390, 19570.00
131.6680, 19389.00
132.8980, 19014.00
134.1270, 19051.00
135.3560, 18320.00
136.5850, 17838.00
137.8140, 17265.00
139.0430, 16886.00
140.2710, 16447.00
141.5000, 16012.00
142.7280, 15799.00
143.9560, 15587.00
145.1840, 15448.00
146.4120, 15135.00
147.6390, 15000.00
148.8670, 14908.00
150.0940, 14608.00
151.3210, 14296.00
152.5490, 14119.00
153.7750, 13742.00
155.0020, 13523.00
156.2290, 13356.00
157.4550, 13115.00
158.6810, 12972.00
159.9080, 12803.00
161.1340, 12727.00
162.3590, 12606.00
163.5850, 12617.00
164.8110, 12605.00
166.0360, 12521.00
167.2610, 12691.00
168.4860, 12768.00
169.7110, 12676.00
170.9360, 12571.00
172.1610, 12681.00
173.3850, 12535.00
174.6100, 12645.00
175.8340, 12599.00
177.0580, 12417.00
178.2820, 12302.00
179.5050, 12202.00
180.7290, 12049.84
181.9520, 11955.92
183.1760, 11793.00
184.3990, 11748.00
185.6220, 11629.00
186.8450, 11539.00
188.0670, 11498.00
189.2900, 11549.00
190.5120, 11367.00
191.7340, 11408.00
192.9560, 11227.00
194.1780, 11322.00
195.4000, 11270.00
196.6220, 11369.00
197.8430, 11341.00
199.0640, 11246.00
200.2860, 11130.00
201.5070, 11241.00
202.7270, 11052.00
203.9480, 10942.00
205.1690, 11027.00
206.3890, 11050.00
207.6090, 11099.00
208.8290, 11018.00
210.0490, 10992.00
211.2690, 11036.00
212.4890, 11056.00
213.7080, 10959.00
214.9280, 10977.00
216.1470, 11121.00
217.3660, 10959.00
218.5850, 11053.00
219.8030, 10920.00
221.0220, 10990.00
222.2400, 10983.00
223.4590, 10941.00
224.6770, 11101.00
225.8950, 11112.00
227.1120, 11052.00
228.3300, 11193.00
229.5480, 11062.00
230.7650, 11165.00
231.9820, 11122.00
233.1990, 11101.00
234.4160, 11128.00
235.6330, 11147.43
236.8490, 11161.69
238.0660, 11250.00
239.2820, 11225.00
240.4980, 11277.00
241.7140, 11335.70
242.9300, 11207.00
244.1460, 11350.00
245.3610, 11262.00
246.5770, 11187.00
247.7920, 11208.00
249.0070, 11135.00
250.2220, 11179.00
251.4370, 11025.00
252.6510, 11136.00
253.8660, 11091.00
255.0800, 11119.00
256.2940, 11176.00
257.5080, 11103.43
258.7220, 11129.55
259.9360, 11004.00
261.1490, 11055.00
262.3630, 11016.00
263.5760, 10886.00
264.7890, 11060.00
266.0020, 11034.00
267.2150, 11075.00
268.4270, 10947.00
269.6400, 10903.00
270.8520, 11001.00
272.0640, 10980.00
273.2760, 11054.00
274.4880, 11006.00
275.7000, 11085.00
276.9120, 10958.00
278.1230, 11006.00
279.3340, 11040.00
280.5450, 11006.00
281.7560, 11017.00
282.9670, 11029.06
284.1780, 11029.35
285.3880, 11050.00
286.5980, 11045.00
287.8090, 11048.00
289.0190, 11027.00
290.2290, 10989.00
291.4380, 11175.00
292.6480, 10994.00
293.8570, 11133.00
295.0670, 11133.00
296.2760, 11054.00
297.4850, 11101.00
298.6930, 11175.00
299.9020, 11141.00
301.1110, 11144.00
302.3190, 11182.00
303.5270, 11286.00
304.7350, 11185.00
305.9430, 11149.00
307.1510, 11039.00
308.3580, 11198.00
309.5660, 11147.00
310.7730, 11332.00
311.9800, 11187.00
313.1870, 11263.00
314.3940, 11255.00
315.6010, 11342.00
316.8070, 11318.00
318.0130, 11207.00
319.2200, 11368.00
320.4260, 11328.00
321.6310, 11277.00
322.8370, 11466.00
324.0430, 11409.00
325.2480, 11307.00
326.4540, 11328.00
327.6590, 11283.00
328.8640, 11272.82
330.0680, 11426.00
331.2730, 11318.00
332.4780, 11394.00
333.6820, 11509.00
334.8860, 11324.00
336.0900, 11498.00
337.2940, 11551.00
338.4980, 11632.00
339.7010, 11575.00
340.9050, 11585.00
342.1080, 11502.00
343.3110, 11416.00
344.5140, 11604.00
345.7170, 11573.00
346.9200, 11539.00
348.1220, 11482.00
349.3240, 11688.00
350.5270, 11683.00
351.7290, 11538.00
352.9310, 11720.00
354.1320, 11612.00
355.3340, 11718.00
356.5350, 11719.00
357.7370, 11651.00
358.9380, 11721.00
360.1390, 11608.00
361.3400, 11600.00
362.5400, 11750.00
363.7410, 11676.00
364.9410, 11868.00
366.1410, 11876.00
367.3410, 11817.00
368.5410, 11725.00
369.7410, 11798.00
370.9400, 11644.00
372.1400, 11758.00
373.3390, 11887.00
374.5380, 11841.00
375.7370, 11756.00
376.9360, 11859.00
378.1350, 11897.00
379.3330, 11827.00
380.5310, 11914.00
381.7300, 11817.00
382.9280, 11953.00
384.1260, 11881.00
385.3230, 11907.00
386.5210, 12026.00
387.7180, 11998.00
388.9160, 11973.00
390.1130, 11995.00
391.3100, 11962.00
392.5060, 11974.40
393.7030, 12046.00
394.9000, 12005.00
396.0960, 12095.00
397.2920, 12155.00
398.4880, 12001.00
399.6840, 11996.00
400.8800, 12152.00
402.0750, 12181.00
403.2710, 11982.00
404.4660, 12140.00
405.6610, 12089.42
406.8560, 12074.00
408.0510, 12142.00
409.2450, 12181.00
410.4400, 12217.00
411.6340, 12203.00
412.8280, 12201.00
414.0220, 12210.84
415.2160, 12239.00
416.4100, 12207.00
417.6030, 12277.00
418.7970, 12270.00
419.9900, 12284.76
421.1830, 12417.00
422.3760, 12338.00
423.5690, 12366.00
424.7610, 12451.00
425.9540, 12324.00
427.1460, 12384.00
428.3380, 12491.00
429.5300, 12429.00
430.7220, 12390.00
431.9140, 12377.00
433.1050, 12438.00
434.2970, 12389.00
435.4880, 12477.00
436.6790, 12535.00
437.8700, 12328.00
439.0610, 12479.00
440.2510, 12543.00
441.4420, 12635.00
442.6320, 12420.00
443.8220, 12438.00
445.0120, 12597.00
446.2020, 12618.00
447.3910, 12795.00
448.5810, 12585.00
449.7700, 12600.00
450.9600, 12755.00
452.1490, 12654.00
453.3370, 12667.00
454.5260, 12748.00
455.7150, 12686.00
456.9030, 12767.00
458.0910, 12887.00
459.2800, 12793.00
460.4670, 12804.00
461.6550, 12933.00
462.8430, 12816.00
464.0300, 12862.00
465.2180, 12797.00
466.4050, 12917.00
467.5920, 12767.00
468.7790, 12766.00
469.9650, 12948.00
471.1520, 12834.00
472.3380, 12934.00
473.5250, 12913.00
474.7110, 13090.00
475.8970, 13027.00
477.0820, 13025.00
478.2680, 13070.00
479.4540, 12983.00
480.6390, 13086.00
481.8240, 13047.00
483.0090, 13144.00
484.1940, 13043.00
485.3780, 13143.00
486.5630, 13168.00
487.7470, 13155.00
488.9320, 13081.00
490.1160, 13059.00
491.3000, 13030.00
492.4830, 13242.00
493.6670, 13122.00
494.8500, 13209.00
496.0340, 13233.00
497.2170, 13166.00
498.4000, 13191.00
499.5820, 13223.00
500.7650, 13280.00
501.9480, 13242.00
503.1300, 13312.00
504.3120, 13259.00
505.4940, 13242.00
506.6760, 13120.00
507.8580, 13262.00
509.0390, 13298.00
510.2210, 13422.00
511.4020, 13337.00
512.5830, 13303.00
513.7640, 13399.00
514.9450, 13402.00
516.1250, 13457.00
517.3060, 13306.00
518.4860, 13499.00
519.6660, 13504.00
520.8460, 13346.00
522.0260, 13455.00
523.2060, 13519.00
524.3850, 13388.00
525.5650, 13517.00
526.7440, 13624.00
527.9230, 13545.00
529.1020, 13545.00
530.2810, 13580.00
531.4590, 13515.00
532.6380, 13457.00
533.8160, 13473.23
534.9940, 13577.00
536.1720, 13500.00
537.3500, 13593.00
538.5270, 13690.00
539.7050, 13682.00
540.8820, 13599.00
542.0590, 13542.00
543.2360, 13603.00
544.4130, 13662.00
545.5900, 13645.62
546.7660, 13705.00
547.9430, 13674.00
549.1190, 13761.00
550.2950, 13789.00
551.4710, 13770.00
552.6470, 13813.00
553.8220, 13874.00
554.9980, 13879.00
556.1730, 13837.00
557.3480, 13867.00
558.5230, 13766.00
559.6980, 13780.00
560.8730, 13778.00
562.0470, 13810.00
563.2220, 13832.00
564.3960, 13840.00
565.5700, 14031.00
566.7440, 13961.00
567.9170, 13911.00
569.0910, 13921.00
570.2640, 13763.00
571.4380, 14035.00
572.6110, 13856.00
573.7840, 13986.00
574.9570, 13866.00
576.1290, 14064.00
577.3020, 14034.00
578.4740, 14005.00
579.6460, 14050.00
580.8180, 14159.00
581.9900, 14295.00
583.1620, 14026.00
584.3330, 14243.00
585.5040, 14113.00
586.6760, 14156.00
587.8470, 14166.00
589.0180, 14167.00
590.1880, 14163.00
591.3590, 14257.00
592.5290, 14179.00
593.7000, 14286.00
594.8700, 14224.00
596.0400, 14302.00
597.2090, 14313.00
598.3790, 14256.00
599.5490, 14264.00
600.7180, 14138.00
601.8870, 14272.00
603.0560, 14163.00
604.2250, 14616.00
605.3940, 14289.00
606.5620, 14446.00
607.7300, 14476.00
608.8990, 14376.00
610.0670, 14491.00
611.2350, 14326.00
612.4020, 14505.00
613.5700, 14543.00
614.7370, 14479.00
615.9050, 14515.00
617.0720, 14679.00
618.2390, 14740.00
619.4060, 14685.00
620.5720, 14692.00
621.7390, 14653.00
622.9050, 14721.00
624.0710, 14724.00
625.2370, 14790.00
626.4030, 14767.00
627.5690, 14846.00
628.7340, 14628.00
629.9000, 14615.00
631.0650, 14653.00
632.2300, 14625.00
633.3950, 14693.00
634.5600, 14797.00
635.7240, 14931.00
636.8890, 14829.00
638.0530, 14791.00
639.2170, 14898.00
640.3810, 14951.00
641.5450, 14813.00
642.7080, 14861.00
643.8720, 14938.00
645.0350, 14931.00
646.1980, 15049.00
647.3610, 15045.11
648.5240, 14898.00
649.6870, 15022.00
650.8490, 14922.00
652.0120, 14788.00
653.1740, 14909.00
654.3360, 14879.00
655.4980, 14946.00
656.6600, 14794.00
657.8210, 14894.00
658.9830, 14957.00
660.1440, 14910.00
661.3050, 14960.00
662.4660, 14944.00
663.6270, 15046.00
664.7870, 14976.00
665.9480, 14996.00
667.1080, 15001.00
668.2680, 15108.00
669.4280, 15163.00
670.5880, 15179.00
671.7480, 15261.00
672.9070, 15361.00
674.0670, 15222.00
675.2260, 15285.00
676.3850, 15510.00
677.5440, 15301.00
678.7030, 15371.00
679.8610, 15271.00
681.0200, 15377.00
682.1780, 15363.00
683.3360, 15391.00
684.4940, 15308.00
685.6520, 15519.00
686.8090, 15169.00
687.9670, 15396.00
689.1240, 15271.00
690.2810, 15451.00
691.4380, 15345.00
692.5950, 15497.00
693.7520, 15536.00
694.9080, 15399.00
696.0650, 15474.00
697.2210, 15503.00
698.3770, 15327.00
699.5330, 15277.00
700.6880, 15340.00
701.8440, 15365.00
702.9990, 15378.00
704.1550, 15343.00
705.3100, 15370.00
706.4650, 15494.00
707.6190, 15441.00
708.7740, 15321.00
709.9290, 15502.00
711.0830, 15524.00
712.2370, 15360.00
713.3910, 15554.00
714.5450, 15439.00
715.6980, 15585.00
716.8520, 15511.00
718.0050, 15444.00
719.1580, 15276.00
720.3110, 15639.00
721.4640, 15593.00
722.6170, 15464.00
723.7700, 15618.00
724.9220, 15447.00
726.0740, 15656.00
727.2260, 15721.00
728.3780, 15753.00
729.5300, 15705.00
730.6810, 15731.61
731.8330, 15676.00
732.9840, 15683.00
734.1350, 15663.00
735.2860, 15597.00
736.4370, 15656.00
737.5880, 15924.00
738.7380, 15809.00
739.8880, 15789.00
741.0390, 15885.00
742.1890, 15768.00
743.3380, 16026.00
744.4880, 15812.00
745.6380, 15744.00
746.7870, 15890.00
747.9360, 15782.00
749.0850, 15884.00
750.2340, 15791.00
751.3830, 15930.00
752.5310, 16076.00
753.6800, 16002.00
754.8280, 15997.00
755.9760, 15963.00
757.1240, 15812.00
758.2720, 15904.00
759.4190, 15983.00
760.5670, 16085.00
761.7140, 15953.00
762.8610, 16027.00
764.0080, 15865.00
765.1550, 16041.00
766.3020, 16041.00
767.4480, 15939.00
768.5950, 16117.00
769.7410, 16069.00
770.8870, 16126.00
772.0330, 16014.00
773.1780, 16018.00
774.3240, 16110.00
775.4690, 16064.85
776.6140, 16138.37
777.7590, 16104.00
778.9040, 16227.00
780.0490, 16254.00
781.1940, 16273.00
782.3380, 16356.00
783.4820, 16384.00
784.6260, 16197.00
785.7700, 16451.00
786.9140, 16287.00
788.0580, 16408.00
789.2010, 16265.00
790.3450, 16369.00
791.4880, 16275.00
792.6310, 16238.00
793.7730, 16451.00
794.9160, 16404.00
796.0590, 16278.00
797.2010, 16423.00
798.3430, 16423.00
799.4850, 16602.00
800.6270, 16342.00
801.7690, 16484.00
802.9100, 16545.00
804.0520, 16392.00
805.1930, 16595.00
806.3340, 16640.00
807.4750, 16486.00
808.6160, 16577.00
809.7560, 16588.00
810.8970, 16672.00
812.0370, 16687.00
813.1770, 16726.00
814.3170, 16755.61
815.4570, 16799.00
816.5960, 16804.00
817.7360, 16819.63
818.8750, 16873.00
820.0140, 16892.00
821.1530, 16925.00
822.2920, 17037.00
823.4310, 17096.00
824.5690, 17290.00
825.7070, 17342.00
826.8460, 17527.00
827.9840, 17910.00
829.1220, 18153.00
830.2590, 18839.00
831.3970, 19223.00
832.5340, 19807.00
833.6710, 20272.00
834.8080, 20639.00
835.9450, 20889.00
837.0820, 20727.00
838.2190, 20210.00
839.3550, 19212.00
840.4910, 18263.00
841.6270, 17875.00
842.7630, 17425.00
843.8990, 17329.00
845.0350, 17306.00
846.1700, 17090.00
847.3060, 17154.00
848.4410, 17304.00
849.5760, 17401.00
850.7100, 17139.00
851.8450, 17337.00
852.9800, 17305.00
854.1140, 17239.00
855.2480, 17355.00
856.3820, 17339.00
857.5160, 17482.00
858.6500, 17247.00
859.7830, 17431.00
860.9170, 17345.00
862.0500, 17383.00
863.1830, 17308.00
864.3160, 17291.00
865.4480, 17428.00
866.5810, 17388.00
867.7130, 17469.00
868.8460, 17379.00
869.9780, 17280.00
871.1100, 17290.00
872.2410, 17313.00
873.3730, 17397.00
874.5050, 17371.00
875.6360, 17290.00
876.7670, 17497.00
877.8980, 17439.00
879.0290, 17432.00
880.1590, 17502.00
881.2900, 17333.00
882.4200, 17494.00
883.5500, 17535.00
884.6800, 17422.00
885.8100, 17338.00
886.9400, 17413.00
888.0690, 17561.00
889.1990, 17498.00
890.3280, 17537.00
891.4570, 17525.00
892.5860, 17583.00
893.7140, 17582.00
894.8430, 17625.08
895.9710, 17648.02
897.1000, 17687.00
898.2280, 17662.00
899.3560, 17637.00
900.4830, 17573.00
901.6110, 17714.00
902.7380, 17639.00
903.8660, 17543.00
904.9930, 17668.00
906.1200, 17825.00
907.2460, 17725.00
908.3730, 17658.00
909.5000, 17606.00
910.6260, 17609.88
911.7520, 17616.09
912.8780, 17707.00
914.0040, 17694.00
915.1290, 17821.00
916.2550, 17866.00
917.3800, 17829.00
918.5050, 17941.00
919.6300, 17745.00
920.7550, 17856.00
921.8800, 17806.00
923.0040, 17665.00
924.1290, 17910.00
925.2530, 17966.00
926.3770, 17941.00
927.5010, 17750.00
928.6250, 17968.00
929.7480, 17967.00
930.8720, 17847.00
931.9950, 18101.00
933.1180, 18005.00
934.2410, 17998.00
935.3640, 17964.00
936.4860, 18117.00
937.6090, 18068.00
938.7310, 18140.00
939.8530, 18204.00
940.9750, 18089.00
942.0970, 18244.00
943.2180, 18023.00
944.3400, 17974.00
945.4610, 18223.00
946.5820, 18074.00
947.7030, 18322.00
948.8240, 18124.00
949.9450, 18114.00
951.0650, 18032.00
952.1860, 18226.00
953.3060, 18335.00
954.4260, 18148.00
955.5460, 18256.00
956.6650, 18265.00
957.7850, 18241.00
958.9040, 18451.00
960.0230, 18425.00
961.1420, 18214.00
962.2610, 18567.00
963.3800, 18294.00
964.4990, 18281.00
965.6170, 18456.00
966.7350, 18488.00
967.8530, 18474.00
968.9710, 18423.00
970.0890, 18490.37
971.2070, 18493.00
972.3240, 18566.00
973.4410, 18527.00
974.5580, 18511.00
975.6750, 18481.00
976.7920, 18355.00
977.9090, 18458.00
979.0250, 18618.00
980.1410, 18704.00
981.2580, 18654.00
982.3740, 18743.00
983.4890, 18633.00
984.6050, 18586.00
985.7200, 18669.00
986.8360, 18595.00
987.9510, 18644.00
989.0660, 18554.00
990.1810, 18587.61
991.2950, 18645.04
992.4100, 18644.00
993.5240, 18784.00
994.6390, 18852.00
995.7530, 18895.00
996.8660, 18896.00
997.9800, 18979.00
999.0940, 19038.79
1000.207, 18989.00
1001.320, 19137.00
1002.433, 19049.00
1003.546, 18936.00
1004.659, 18966.00
1005.772, 19076.00
1006.884, 18938.00
1007.996, 18921.00
1009.108, 19086.00
1010.220, 18988.00
1011.332, 19168.00
1012.444, 18914.00
1013.555, 19064.00
1014.666, 19071.00
1015.777, 19039.00
1016.888, 18929.00
1017.999, 19015.00
1019.110, 19088.00
1020.220, 19146.00
1021.331, 19153.00
1022.441, 19216.24
1023.551, 19262.59
1024.661, 19310.00
1025.770, 19360.00
1026.880, 19437.00
1027.989, 19460.00
1029.098, 19456.00
1030.207, 19505.00
1031.316, 19471.00
1032.425, 19623.00
1033.533, 19415.00
1034.642, 19407.00
1035.750, 19408.00
1036.858, 19576.00
1037.966, 19496.00
1039.073, 19814.00
1040.181, 19675.00
1041.288, 20133.00
1042.396, 20651.00
1043.503, 21235.00
1044.610, 23399.00
1045.716, 27784.00
1046.823, 36502.00
1047.929, 42042.00
1049.036, 46105.00
1050.142, 54988.00
1051.248, 61042.00
1052.353, 64153.00
1053.459, 62238.00
1054.564, 54255.00
1055.670, 41455.00
1056.775, 29639.00
1057.880, 23655.00
1058.985, 21438.00
1060.089, 20451.00
1061.194, 20162.00
1062.298, 20023.00
1063.402, 19911.00
1064.506, 19800.38
1065.610, 19772.72
1066.713, 19703.00
1067.817, 19760.00
1068.920, 19713.00
1070.023, 19708.00
1071.126, 19738.00
1072.229, 19724.00
1073.332, 19829.00
1074.435, 19829.00
1075.537, 19866.00
1076.639, 19868.00
1077.741, 19694.00
1078.843, 19741.00
1079.945, 19797.00
1081.046, 19648.00
1082.148, 19829.00
1083.249, 19884.00
1084.350, 19949.00
1085.451, 19964.00
1086.551, 19935.00
1087.652, 19779.00
1088.752, 19905.00
1089.853, 19789.00
1090.953, 19913.00
1092.053, 19949.00
1093.152, 19887.00
1094.252, 19811.00
1095.351, 19971.00
1096.451, 19867.00
1097.550, 19909.00
1098.649, 19777.00
1099.748, 20065.00
1100.846, 20032.00
1101.945, 20157.00
1103.043, 19949.00
1104.141, 20144.00
1105.239, 20221.00
1106.337, 20164.00
1107.434, 20230.00
1108.532, 20204.00
1109.629, 20072.00
1110.726, 19951.00
1111.823, 20046.00
1112.920, 20251.00
1114.017, 20303.00
1115.113, 20206.00
1116.210, 20585.00
1117.306, 20625.00
1118.402, 20293.00
1119.498, 20581.00
1120.593, 20355.00
1121.689, 20504.00
1122.784, 20650.00
1123.879, 20442.00
1124.974, 20134.00
1126.069, 20420.00
1127.164, 20239.00
1128.259, 20348.00
1129.353, 20287.00
1130.447, 20297.00
1131.541, 20194.00
1132.635, 20219.00
1133.729, 20292.00
1134.822, 20330.00
1135.916, 20349.00
1137.009, 20365.74
1138.102, 20433.00
1139.195, 20351.00
1140.288, 20359.00
1141.380, 20341.00
1142.473, 20262.00
1143.565, 20423.00
1144.657, 20361.00
1145.749, 20406.00
1146.841, 20497.00
1147.932, 20433.00
1149.024, 20357.00
1150.115, 20333.00
1151.206, 20384.00
1152.297, 20500.00
1153.388, 20410.00
1154.479, 20510.00
1155.569, 20561.00
1156.659, 20596.00
1157.750, 20411.00
1158.839, 20574.00
1159.929, 20650.00
1161.019, 20411.00
1162.108, 20530.00
1163.198, 20556.00
1164.287, 20628.00
1165.376, 20650.00
1166.465, 20627.00
1167.553, 20738.00
1168.642, 20634.00
1169.730, 20800.00
1170.818, 20835.00
1171.906, 20705.00
1172.994, 20872.00
1174.082, 20709.00
1175.170, 20669.00
1176.257, 20613.00
1177.344, 20803.00
1178.431, 20740.00
1179.518, 20724.00
1180.605, 20873.00
1181.691, 20824.00
1182.778, 20927.00
1183.864, 20796.00
1184.950, 20914.00
1186.036, 20831.00
1187.122, 20801.00
1188.207, 20918.00
1189.292, 21073.00
1190.378, 20972.00
1191.463, 20948.00
1192.548, 20839.00
1193.632, 20833.00
1194.717, 20824.85
1195.801, 20837.34
1196.886, 20916.00
1197.970, 20906.00
1199.054, 21083.00
1200.137, 21068.00
1201.221, 21143.00
1202.305, 21027.00
1203.388, 21144.00
1204.471, 21050.00
1205.554, 21160.00
1206.637, 21007.00
1207.719, 21076.00
1208.802, 21282.00
1209.884, 21136.00
1210.966, 21134.00
1212.048, 21289.00
1213.130, 21194.00
1214.212, 21340.00
1215.293, 21380.00
1216.374, 21311.00
1217.456, 21343.00
1218.536, 21291.00
1219.617, 21436.00
1220.698, 21428.00
1221.778, 21550.00
1222.859, 21577.00
1223.939, 21549.00
1225.019, 21420.00
1226.099, 21578.00
1227.178, 21312.00
1228.258, 21417.00
1229.337, 21398.00
1230.417, 21448.00
1231.496, 21368.00
1232.574, 21553.00
1233.653, 21668.00
1234.732, 21580.00
1235.810, 21695.00
1236.888, 21702.00
1237.966, 21623.00
1239.044, 21520.00
1240.122, 21606.00
1241.199, 21486.00
1242.277, 21687.00
1243.354, 21737.00
1244.431, 21802.00
1245.508, 21764.00
1246.585, 21781.00
1247.661, 21718.00
1248.738, 21912.00
1249.814, 21870.00
1250.890, 21893.00
1251.966, 21541.00
1253.042, 21666.00
1254.117, 21611.00
1255.193, 21865.00
1256.268, 21702.00
1257.343, 21748.00
1258.418, 21720.00
1259.493, 22016.00
1260.567, 22049.00
1261.642, 22034.00
1262.716, 22199.00
1263.790, 22014.00
1264.864, 22167.00
1265.938, 22049.00
1267.011, 22131.00
1268.085, 21968.00
1269.158, 21972.00
1270.231, 22040.00
1271.304, 21994.00
1272.377, 22045.34
1273.450, 22011.00
1274.522, 22092.00
1275.594, 22041.00
1276.666, 22036.00
1277.738, 22267.00
1278.810, 22202.00
1279.882, 22171.00
1280.953, 22324.00
1282.025, 22164.00
1283.096, 22381.00
1284.167, 22228.00
1285.238, 22299.00
1286.308, 22298.00
1287.379, 22368.00
1288.449, 22372.47
1289.519, 22313.00
1290.589, 22391.00
1291.659, 22339.00
1292.729, 22351.00
1293.798, 22403.47
1294.868, 22497.00
1295.937, 22481.00
1297.006, 22521.00
1298.075, 22528.00
1299.143, 22560.00
1300.212, 22551.00
1301.280, 22600.00
1302.348, 22558.92
1303.416, 22606.08
1304.484, 22556.00
1305.552, 22647.00
1306.620, 22810.00
1307.687, 22788.00
1308.754, 22869.00
1309.821, 22556.00
1310.888, 22906.00
1311.955, 22781.00
1313.021, 22800.00
1314.088, 22903.00
1315.154, 23134.00
1316.220, 22971.00
1317.286, 23151.00
1318.352, 23099.00
1319.417, 23108.00
1320.483, 23000.00
1321.548, 22974.00
1322.613, 22966.48
1323.678, 22964.00
1324.743, 22967.00
1325.807, 23033.00
1326.872, 23055.00
1327.936, 23009.00
1329.000, 23096.00
1330.064, 23145.00
1331.128, 22959.00
1332.191, 22901.00
1333.255, 23133.00
1334.318, 23088.00
1335.381, 23196.00
1336.444, 23219.00
1337.507, 23286.00
1338.569, 23280.00
1339.632, 23032.00
1340.694, 23386.00
1341.756, 23226.00
1342.818, 23115.00
1343.880, 23329.00
1344.941, 23585.00
1346.003, 23322.00
1347.064, 23458.00
1348.125, 23511.00
1349.186, 23436.00
1350.247, 23745.00
1351.308, 23855.00
1352.368, 23655.00
1353.428, 23788.00
1354.489, 24054.00
1355.549, 24112.00
1356.608, 24290.00
1357.668, 24264.00
1358.727, 24274.00
1359.787, 24525.00
1360.846, 24612.00
1361.905, 24701.38
1362.964, 24770.00
1364.022, 24861.00
1365.081, 24958.00
1366.139, 25001.00
1367.197, 25153.89
1368.255, 25241.00
1369.313, 25486.00
1370.371, 25556.00
1371.428, 25819.00
1372.486, 25863.00
1373.543, 25974.00
1374.600, 26207.00
1375.657, 25917.00
1376.713, 25951.00
1377.770, 25807.00
1378.826, 25481.00
1379.882, 25233.00
1380.938, 25033.00
1381.994, 24808.00
1383.050, 24648.00
1384.106, 24637.00
1385.161, 24472.00
1386.216, 24437.00
1387.271, 24127.00
1388.326, 24259.00
1389.381, 24137.00
1390.435, 24021.00
1391.490, 24033.00
1392.544, 24047.00
1393.598, 24030.00
1394.652, 24006.00
1395.705, 24141.00
1396.759, 23988.00
1397.812, 23963.00
1398.866, 23983.00
1399.919, 24149.00
1400.972, 24098.00
1402.024, 24231.00
1403.077, 24309.00
1404.129, 24251.00
1405.181, 24242.00
1406.233, 24260.00
1407.285, 24236.00
1408.337, 24437.00
1409.389, 24568.00
1410.440, 24453.00
1411.491, 24526.00
1412.542, 24508.00
1413.593, 24596.00
1414.644, 24730.00
1415.695, 24609.00
1416.745, 24626.00
1417.795, 24613.00
1418.845, 24811.00
1419.895, 24753.00
1420.945, 24857.00
1421.995, 24923.00
1423.044, 24974.00
1424.093, 24760.00
1425.142, 24988.00
1426.191, 24971.00
1427.240, 24866.00
1428.289, 24978.00
1429.337, 24914.00
1430.385, 25273.00
1431.433, 24979.00
1432.481, 25239.00
1433.529, 25112.00
1434.577, 25222.00
1435.624, 25375.00
1436.672, 25402.00
1437.719, 25512.00
1438.766, 25637.00
1439.812, 25491.00
1440.859, 25708.00
1441.905, 25889.00
1442.952, 25916.00
1443.998, 25835.00
1445.044, 26199.00
1446.090, 26061.00
1447.135, 26265.00
1448.181, 26380.00
1449.226, 26554.00
1450.271, 26841.00
1451.316, 26725.00
1452.361, 26995.00
1453.405, 27129.00
1454.450, 27026.00
1455.494, 27548.00
1456.538, 27593.00
1457.582, 27712.00
1458.626, 27724.00
1459.670, 27929.67
1460.713, 28040.00
1461.757, 28289.00
1462.800, 28595.00
1463.843, 28689.00
1464.886, 28903.00
1465.928, 29260.00
1466.971, 29067.00
1468.013, 29439.00
1469.055, 29204.00
1470.097, 29594.00
1471.139, 29570.00
1472.181, 29714.00
1473.222, 29683.00
1474.263, 29933.00
1475.305, 29931.00
1476.346, 29873.00
1477.386, 29722.00
1478.427, 29604.00
1479.468, 29402.00
1480.508, 29254.65
1481.548, 29135.00
1482.588, 28951.00
1483.628, 28793.00
1484.668, 28725.00
1485.707, 28330.00
1486.747, 28038.00
1487.786, 28013.00
1488.825, 27588.00
1489.864, 27447.00
1490.902, 27161.00
1491.941, 27054.00
1492.979, 26872.00
1494.017, 26493.00
1495.055, 26480.00
1496.093, 26399.00
1497.131, 26055.00
1498.168, 25962.00
1499.206, 25857.00
1500.243, 26003.00
1501.280, 25823.00
1502.317, 25709.00
1503.354, 25611.00
1504.390, 25585.00
1505.426, 25709.00
1506.463, 25310.00
1507.499, 25521.00
1508.535, 25400.00
1509.570, 25321.00
1510.606, 25396.00
1511.641, 25399.00
1512.676, 25454.00
1513.711, 25412.00
1514.746, 25263.00
1515.781, 25374.00
1516.816, 25340.00
1517.850, 25370.00
1518.884, 25135.00
1519.918, 25260.00
1520.952, 25236.00
1521.986, 25250.00
1523.019, 25291.00
1524.053, 25101.00
1525.086, 25252.00
1526.119, 24968.00
1527.152, 25247.00
1528.185, 25173.00
1529.217, 25276.00
1530.250, 25339.00
1531.282, 25251.00
1532.314, 25163.00
1533.346, 25310.00
1534.377, 25237.00
1535.409, 25407.00
1536.440, 25378.00
1537.472, 25426.00
1538.503, 25256.00
1539.534, 25252.00
1540.564, 25101.00
1541.595, 25602.00
1542.625, 25367.00
1543.656, 25383.00
1544.686, 25204.00
1545.716, 25290.00
1546.745, 25358.00
1547.775, 25474.00
1548.804, 25389.00
1549.834, 25262.00
1550.863, 25324.00
1551.892, 25731.00
1552.920, 25551.00
1553.949, 25375.00
1554.977, 25588.00
1556.006, 25226.00
1557.034, 25425.00
1558.062, 25688.00
1559.089, 25233.00
1560.117, 25167.00
1561.144, 25698.00
1562.172, 25330.07
1563.199, 25418.00
1564.226, 25298.00
1565.252, 25430.00
1566.279, 25599.00
1567.305, 25503.00
1568.332, 25703.00
1569.358, 25552.00
1570.384, 25488.00
##END=



