##NAMES=Cerussite
##RRUFFID=R060017
##IDEAL CHEMISTRY=Pb^2+^CO_3_
##LOCALITY=Gonessa, Sardinia, Italy
##OWNER=RRUFF
##SOURCE=American Museum of Natural History
##DESCRIPTION=White reticulated composite
##STATUS=The identification of this mineral has been confirmed by X-ray diffraction and chemical analysis
##URL=rruff.info/R060017
##MEASURED CHEMISTRY=Pb_1.00_CO_3_ C not measured but estimated by difference and stoichiometry
##PIN_ID=M00261
##ORIENTATION=Laser parallel to a* (1 0 0). Fiducial mark perpendicular to laser is parallel to b [0 1 0]
51.43100, 774.0000
52.67100, 868.0000
53.91000, 910.0000
55.14900, 1019.000
56.38700, 1030.000
57.62600, 1131.000
58.86400, 1262.000
60.10300, 1480.000
61.34100, 1788.000
62.57900, 2162.000
63.81700, 2757.000
65.05400, 3520.000
66.29200, 4282.000
67.52900, 5042.000
68.76700, 5804.000
70.00400, 6312.000
71.24100, 6776.000
72.47700, 7078.000
73.71400, 7090.000
74.95100, 7026.000
76.18700, 6822.000
77.42300, 7006.000
78.65900, 6870.000
79.89500, 6860.000
81.13100, 7144.000
82.36700, 7190.000
83.60200, 7316.000
84.83700, 7659.000
86.07200, 7927.000
87.30800, 8287.000
88.54200, 8708.000
89.77700, 8973.000
91.01200, 9234.000
92.24600, 9703.000
93.48000, 10102.00
94.71400, 10402.00
95.94800, 10686.00
97.18200, 10940.00
98.41600, 11501.00
99.64900, 11919.00
100.8830, 12170.00
102.1160, 12498.00
103.3490, 12346.00
104.5820, 12748.00
105.8150, 12788.00
107.0470, 12968.00
108.2800, 13053.00
109.5120, 13151.00
110.7440, 13573.00
111.9760, 13781.00
113.2080, 14193.00
114.4400, 14669.00
115.6710, 14890.00
116.9030, 15290.00
118.1340, 15310.00
119.3650, 15327.00
120.5960, 15265.00
121.8270, 14974.00
123.0580, 14791.00
124.2880, 14540.00
125.5190, 14165.00
126.7490, 14240.00
127.9790, 13984.00
129.2090, 13876.00
130.4390, 13865.00
131.6680, 13886.00
132.8980, 13813.00
134.1270, 13562.00
135.3560, 13358.00
136.5850, 13163.00
137.8140, 12808.00
139.0430, 12764.00
140.2710, 12576.00
141.5000, 12505.00
142.7280, 12539.00
143.9560, 12249.00
145.1840, 12421.00
146.4120, 12309.00
147.6390, 12124.00
148.8670, 12147.00
150.0940, 12090.00
151.3210, 12074.00
152.5490, 11971.00
153.7750, 11841.00
155.0020, 11736.00
156.2290, 11473.00
157.4550, 11416.00
158.6810, 11390.00
159.9080, 11475.00
161.1340, 11443.00
162.3590, 11368.00
163.5850, 11246.00
164.8110, 11339.00
166.0360, 11436.00
167.2610, 11388.00
168.4860, 11460.00
169.7110, 11361.00
170.9360, 11514.00
172.1610, 11623.00
173.3850, 11646.00
174.6100, 11522.00
175.8340, 11526.00
177.0580, 11432.00
178.2820, 11377.72
179.5050, 11441.00
180.7290, 11313.00
181.9520, 11321.00
183.1760, 11392.00
184.3990, 11406.00
185.6220, 11350.00
186.8450, 11393.00
188.0670, 11298.00
189.2900, 11303.00
190.5120, 11583.00
191.7340, 11472.00
192.9560, 11483.00
194.1780, 11289.00
195.4000, 11488.00
196.6220, 11647.00
197.8430, 11764.00
199.0640, 11882.63
200.2860, 11927.00
201.5070, 12023.00
202.7270, 12117.00
203.9480, 12126.00
205.1690, 12213.00
206.3890, 12396.00
207.6090, 12610.00
208.8290, 12586.00
210.0490, 12824.00
211.2690, 13006.00
212.4890, 13013.00
213.7080, 13223.00
214.9280, 13241.00
216.1470, 13283.00
217.3660, 13322.00
218.5850, 13345.00
219.8030, 13316.00
221.0220, 13232.00
222.2400, 13305.00
223.4590, 13237.00
224.6770, 13159.00
225.8950, 12992.00
227.1120, 13099.00
228.3300, 13044.00
229.5480, 12821.00
230.7650, 12818.00
231.9820, 12556.00
233.1990, 12464.00
234.4160, 12324.00
235.6330, 12125.00
236.8490, 12123.00
238.0660, 11915.00
239.2820, 11863.00
240.4980, 11643.00
241.7140, 11813.00
242.9300, 11738.00
244.1460, 11547.00
245.3610, 11487.00
246.5770, 11344.00
247.7920, 11355.00
249.0070, 11253.73
250.2220, 11219.00
251.4370, 11171.00
252.6510, 11152.00
253.8660, 11223.00
255.0800, 11282.00
256.2940, 11169.00
257.5080, 11269.00
258.7220, 11195.00
259.9360, 11036.00
261.1490, 11113.00
262.3630, 11145.00
263.5760, 11097.00
264.7890, 10962.00
266.0020, 11137.00
267.2150, 11111.00
268.4270, 11203.00
269.6400, 11058.00
270.8520, 11191.00
272.0640, 11149.00
273.2760, 11063.00
274.4880, 11084.00
275.7000, 11049.00
276.9120, 11036.00
278.1230, 10999.00
279.3340, 11114.00
280.5450, 11199.00
281.7560, 11117.00
282.9670, 11088.00
284.1780, 11155.00
285.3880, 11208.00
286.5980, 11158.00
287.8090, 11085.00
289.0190, 11294.00
290.2290, 11152.00
291.4380, 11118.00
292.6480, 11236.00
293.8570, 11036.00
295.0670, 11307.00
296.2760, 11162.00
297.4850, 11249.00
298.6930, 11160.00
299.9020, 11276.00
301.1110, 11260.86
302.3190, 11329.00
303.5270, 11291.00
304.7350, 11270.00
305.9430, 11298.00
307.1510, 11404.00
308.3580, 11213.00
309.5660, 11384.00
310.7730, 11425.00
311.9800, 11302.00
313.1870, 11328.00
314.3940, 11207.00
315.6010, 11427.00
316.8070, 11534.00
318.0130, 11407.00
319.2200, 11556.00
320.4260, 11346.00
321.6310, 11545.00
322.8370, 11371.00
324.0430, 11436.00
325.2480, 11449.00
326.4540, 11487.00
327.6590, 11472.00
328.8640, 11546.00
330.0680, 11431.00
331.2730, 11597.00
332.4780, 11587.00
333.6820, 11568.00
334.8860, 11644.00
336.0900, 11576.00
337.2940, 11637.00
338.4980, 11762.00
339.7010, 11606.00
340.9050, 11621.00
342.1080, 11669.00
343.3110, 11643.00
344.5140, 11634.00
345.7170, 11626.00
346.9200, 11755.00
348.1220, 11731.00
349.3240, 11757.00
350.5270, 11839.00
351.7290, 11797.00
352.9310, 11859.23
354.1320, 11967.00
355.3340, 11869.00
356.5350, 11824.00
357.7370, 11704.00
358.9380, 11756.00
360.1390, 11981.00
361.3400, 11900.00
362.5400, 11960.00
363.7410, 11929.00
364.9410, 11903.00
366.1410, 11933.52
367.3410, 11876.00
368.5410, 11974.00
369.7410, 11903.00
370.9400, 11961.00
372.1400, 11946.00
373.3390, 12090.00
374.5380, 12119.00
375.7370, 12001.00
376.9360, 12006.00
378.1350, 12163.00
379.3330, 11954.00
380.5310, 12064.00
381.7300, 12140.00
382.9280, 12136.00
384.1260, 12092.00
385.3230, 12122.00
386.5210, 12177.00
387.7180, 12258.00
388.9160, 12256.00
390.1130, 12285.00
391.3100, 12268.00
392.5060, 12200.00
393.7030, 12170.00
394.9000, 12310.00
396.0960, 12266.00
397.2920, 12321.00
398.4880, 12378.00
399.6840, 12379.00
400.8800, 12362.00
402.0750, 12343.00
403.2710, 12402.00
404.4660, 12286.00
405.6610, 12417.00
406.8560, 12443.00
408.0510, 12299.00
409.2450, 12453.00
410.4400, 12402.00
411.6340, 12482.00
412.8280, 12385.00
414.0220, 12493.00
415.2160, 12366.00
416.4100, 12456.00
417.6030, 12592.00
418.7970, 12636.00
419.9900, 12547.00
421.1830, 12671.00
422.3760, 12712.00
423.5690, 12648.00
424.7610, 12701.00
425.9540, 12689.00
427.1460, 12644.00
428.3380, 12742.00
429.5300, 12641.00
430.7220, 12799.00
431.9140, 12736.00
433.1050, 12543.00
434.2970, 12744.00
435.4880, 12802.00
436.6790, 12900.00
437.8700, 12848.00
439.0610, 12941.00
440.2510, 12762.00
441.4420, 12876.00
442.6320, 12893.00
443.8220, 13088.00
445.0120, 12931.00
446.2020, 12848.00
447.3910, 12904.00
448.5810, 12976.00
449.7700, 12974.00
450.9600, 12965.00
452.1490, 12861.00
453.3370, 13014.00
454.5260, 13115.00
455.7150, 13040.00
456.9030, 13174.00
458.0910, 12989.00
459.2800, 13058.00
460.4670, 12970.00
461.6550, 13061.00
462.8430, 13169.00
464.0300, 13106.00
465.2180, 13167.00
466.4050, 13228.00
467.5920, 13219.00
468.7790, 13123.00
469.9650, 13282.00
471.1520, 13252.00
472.3380, 13379.00
473.5250, 13353.00
474.7110, 13413.57
475.8970, 13298.00
477.0820, 13474.00
478.2680, 13361.00
479.4540, 13302.00
480.6390, 13358.00
481.8240, 13245.00
483.0090, 13407.00
484.1940, 13370.00
485.3780, 13508.00
486.5630, 13350.00
487.7470, 13417.00
488.9320, 13360.00
490.1160, 13465.00
491.3000, 13645.00
492.4830, 13574.00
493.6670, 13754.00
494.8500, 13563.00
496.0340, 13591.00
497.2170, 13664.00
498.4000, 13632.00
499.5820, 13622.00
500.7650, 13658.00
501.9480, 13578.00
503.1300, 13738.00
504.3120, 13782.00
505.4940, 13605.00
506.6760, 13530.00
507.8580, 13723.00
509.0390, 13722.00
510.2210, 13854.00
511.4020, 13728.00
512.5830, 13796.00
513.7640, 13702.00
514.9450, 13853.00
516.1250, 13776.00
517.3060, 13962.00
518.4860, 13729.00
519.6660, 14035.00
520.8460, 13881.00
522.0260, 13759.00
523.2060, 14068.00
524.3850, 13882.00
525.5650, 13955.00
526.7440, 14049.00
527.9230, 14042.00
529.1020, 14113.88
530.2810, 14030.00
531.4590, 14102.00
532.6380, 14155.00
533.8160, 13959.00
534.9940, 14015.00
536.1720, 14027.00
537.3500, 14228.00
538.5270, 14232.00
539.7050, 14206.00
540.8820, 14142.00
542.0590, 14355.00
543.2360, 14165.00
544.4130, 14215.00
545.5900, 13994.00
546.7660, 14168.00
547.9430, 14117.43
549.1190, 14106.00
550.2950, 14226.00
551.4710, 14243.00
552.6470, 14414.00
553.8220, 14302.00
554.9980, 14425.00
556.1730, 14373.00
557.3480, 14307.00
558.5230, 14696.00
559.6980, 14748.00
560.8730, 14630.00
562.0470, 14445.00
563.2220, 14396.00
564.3960, 14496.00
565.5700, 14397.00
566.7440, 14547.00
567.9170, 14422.00
569.0910, 14477.00
570.2640, 14551.00
571.4380, 14431.00
572.6110, 14609.00
573.7840, 14577.00
574.9570, 14628.00
576.1290, 14611.00
577.3020, 14648.00
578.4740, 14638.00
579.6460, 14590.00
580.8180, 14784.00
581.9900, 14681.53
583.1620, 14676.00
584.3330, 14570.00
585.5040, 14745.00
586.6760, 14607.00
587.8470, 14827.00
589.0180, 14667.00
590.1880, 14797.00
591.3590, 14876.00
592.5290, 14992.00
593.7000, 14854.00
594.8700, 14847.00
596.0400, 14954.00
597.2090, 14895.00
598.3790, 14936.00
599.5490, 14714.00
600.7180, 14883.91
601.8870, 14915.12
603.0560, 15071.00
604.2250, 15067.00
605.3940, 15027.00
606.5620, 14898.00
607.7300, 14991.00
608.8990, 15139.00
610.0670, 15043.00
611.2350, 15065.00
612.4020, 15167.00
613.5700, 15129.00
614.7370, 15177.00
615.9050, 15260.00
617.0720, 15304.00
618.2390, 15210.00
619.4060, 15314.00
620.5720, 15195.00
621.7390, 15280.00
622.9050, 15268.00
624.0710, 15243.00
625.2370, 15370.00
626.4030, 15262.00
627.5690, 15424.00
628.7340, 15177.00
629.9000, 15272.00
631.0650, 15377.00
632.2300, 15410.00
633.3950, 15371.00
634.5600, 15518.00
635.7240, 15445.00
636.8890, 15505.00
638.0530, 15336.00
639.2170, 15554.00
640.3810, 15481.00
641.5450, 15544.00
642.7080, 15423.00
643.8720, 15568.00
645.0350, 15525.00
646.1980, 15651.00
647.3610, 15683.00
648.5240, 15502.00
649.6870, 15528.00
650.8490, 15541.00
652.0120, 15657.00
653.1740, 15663.00
654.3360, 15696.18
655.4980, 15664.00
656.6600, 15723.00
657.8210, 15741.00
658.9830, 15742.00
660.1440, 15868.00
661.3050, 15649.00
662.4660, 15904.00
663.6270, 15775.00
664.7870, 15982.00
665.9480, 15916.00
667.1080, 16041.00
668.2680, 16219.00
669.4280, 16266.00
670.5880, 16389.75
671.7480, 16438.00
672.9070, 16539.00
674.0670, 16571.00
675.2260, 16592.00
676.3850, 16597.00
677.5440, 16505.74
678.7030, 16543.00
679.8610, 16283.00
681.0200, 16175.00
682.1780, 16080.00
683.3360, 16035.42
684.4940, 16089.00
685.6520, 16076.00
686.8090, 16165.00
687.9670, 16197.00
689.1240, 16192.00
690.2810, 16216.39
691.4380, 16149.00
692.5950, 16180.00
693.7520, 16200.00
694.9080, 16146.00
696.0650, 16286.00
697.2210, 16278.00
698.3770, 16277.00
699.5330, 16306.00
700.6880, 16258.94
701.8440, 16135.00
702.9990, 16165.00
704.1550, 16211.00
705.3100, 16139.00
706.4650, 16208.40
707.6190, 16393.00
708.7740, 16272.00
709.9290, 16303.00
711.0830, 16325.00
712.2370, 16283.00
713.3910, 16398.00
714.5450, 16383.66
715.6980, 16536.00
716.8520, 16465.00
718.0050, 16517.00
719.1580, 16623.00
720.3110, 16667.00
721.4640, 16351.00
722.6170, 16532.00
723.7700, 16395.00
724.9220, 16474.00
726.0740, 16652.00
727.2260, 16630.00
728.3780, 16754.00
729.5300, 16714.00
730.6810, 16513.00
731.8330, 16751.00
732.9840, 16595.00
734.1350, 16607.00
735.2860, 16712.00
736.4370, 16583.00
737.5880, 16730.00
738.7380, 16894.00
739.8880, 16667.00
741.0390, 16966.00
742.1890, 16921.00
743.3380, 16857.00
744.4880, 16875.00
745.6380, 16824.00
746.7870, 16818.00
747.9360, 16845.62
749.0850, 16851.00
750.2340, 16887.00
751.3830, 16912.00
752.5310, 16887.00
753.6800, 16942.00
754.8280, 16980.00
755.9760, 16932.00
757.1240, 16933.00
758.2720, 16922.00
759.4190, 17121.00
760.5670, 17195.00
761.7140, 17049.00
762.8610, 17124.00
764.0080, 16949.00
765.1550, 16954.41
766.3020, 17062.00
767.4480, 16952.00
768.5950, 17074.00
769.7410, 17175.00
770.8870, 17243.00
772.0330, 17081.00
773.1780, 17127.00
774.3240, 17193.00
775.4690, 17327.00
776.6140, 17280.00
777.7590, 17271.00
778.9040, 17308.00
780.0490, 17226.00
781.1940, 17466.00
782.3380, 17158.00
783.4820, 17495.00
784.6260, 17451.00
785.7700, 17290.00
786.9140, 17310.00
788.0580, 17462.00
789.2010, 17462.00
790.3450, 17552.00
791.4880, 17473.00
792.6310, 17527.00
793.7730, 17551.00
794.9160, 17509.00
796.0590, 17629.00
797.2010, 17553.00
798.3430, 17542.00
799.4850, 17566.00
800.6270, 17531.00
801.7690, 17632.00
802.9100, 17636.00
804.0520, 17621.25
805.1930, 17611.00
806.3340, 17634.00
807.4750, 17660.00
808.6160, 17637.96
809.7560, 17717.00
810.8970, 17633.00
812.0370, 17612.00
813.1770, 17665.00
814.3170, 17857.00
815.4570, 17800.00
816.5960, 17954.00
817.7360, 17806.00
818.8750, 17838.00
820.0140, 17833.00
821.1530, 17755.00
822.2920, 17904.00
823.4310, 17801.00
824.5690, 17948.00
825.7070, 18021.00
826.8460, 17936.00
827.9840, 18025.00
829.1220, 18112.00
830.2590, 18115.00
831.3970, 18263.00
832.5340, 18257.00
833.6710, 18591.00
834.8080, 18520.00
835.9450, 18740.00
837.0820, 18902.00
838.2190, 18754.00
839.3550, 18907.00
840.4910, 18532.00
841.6270, 18461.00
842.7630, 18385.00
843.8990, 18163.00
845.0350, 18395.00
846.1700, 18331.00
847.3060, 18274.00
848.4410, 18349.00
849.5760, 18262.00
850.7100, 18379.00
851.8450, 18526.00
852.9800, 18336.00
854.1140, 18520.00
855.2480, 18405.00
856.3820, 18453.00
857.5160, 18420.00
858.6500, 18428.00
859.7830, 18448.00
860.9170, 18526.00
862.0500, 18286.00
863.1830, 18547.00
864.3160, 18474.00
865.4480, 18468.00
866.5810, 18608.00
867.7130, 18596.00
868.8460, 18590.00
869.9780, 18510.00
871.1100, 18719.00
872.2410, 18658.00
873.3730, 18638.00
874.5050, 18524.00
875.6360, 18689.00
876.7670, 18629.00
877.8980, 18679.00
879.0290, 18697.00
880.1590, 18588.00
881.2900, 18554.00
882.4200, 18754.00
883.5500, 18742.00
884.6800, 18873.00
885.8100, 18820.00
886.9400, 18808.00
888.0690, 18847.00
889.1990, 18868.00
890.3280, 18950.00
891.4570, 19016.00
892.5860, 19007.25
893.7140, 18920.00
894.8430, 18944.00
895.9710, 19035.00
897.1000, 18901.00
898.2280, 19048.00
899.3560, 19004.00
900.4830, 18998.00
901.6110, 18981.00
902.7380, 19029.00
903.8660, 19122.00
904.9930, 19043.00
906.1200, 18973.00
907.2460, 19022.00
908.3730, 19276.00
909.5000, 19187.00
910.6260, 19283.00
911.7520, 19195.00
912.8780, 19233.00
914.0040, 19190.00
915.1290, 19367.00
916.2550, 19305.00
917.3800, 19217.00
918.5050, 19303.00
919.6300, 19057.00
920.7550, 19287.00
921.8800, 19387.00
923.0040, 19311.00
924.1290, 19265.00
925.2530, 19453.00
926.3770, 19407.00
927.5010, 19385.00
928.6250, 19334.00
929.7480, 19346.36
930.8720, 19554.00
931.9950, 19411.00
933.1180, 19510.00
934.2410, 19628.00
935.3640, 19495.00
936.4860, 19801.00
937.6090, 19407.00
938.7310, 19478.00
939.8530, 19727.00
940.9750, 19378.00
942.0970, 19453.00
943.2180, 19725.00
944.3400, 19642.00
945.4610, 19698.00
946.5820, 19648.00
947.7030, 19684.00
948.8240, 19671.00
949.9450, 19832.00
951.0650, 19707.00
952.1860, 19714.00
953.3060, 19650.00
954.4260, 19825.00
955.5460, 19812.00
956.6650, 19795.00
957.7850, 19940.00
958.9040, 19753.00
960.0230, 19983.00
961.1420, 20012.00
962.2610, 20104.00
963.3800, 19800.00
964.4990, 19859.00
965.6170, 19779.00
966.7350, 20081.00
967.8530, 20040.00
968.9710, 20100.00
970.0890, 19852.00
971.2070, 19875.00
972.3240, 20169.00
973.4410, 20270.00
974.5580, 20248.00
975.6750, 20190.00
976.7920, 20237.00
977.9090, 20251.00
979.0250, 20117.00
980.1410, 20171.00
981.2580, 20280.00
982.3740, 20078.00
983.4890, 20304.00
984.6050, 20273.00
985.7200, 20106.00
986.8360, 20299.00
987.9510, 20263.00
989.0660, 20390.00
990.1810, 20339.00
991.2950, 20474.00
992.4100, 20496.00
993.5240, 20270.00
994.6390, 20281.00
995.7530, 20419.00
996.8660, 20489.00
997.9800, 20543.00
999.0940, 20534.00
1000.207, 20457.00
1001.320, 20556.00
1002.433, 20499.38
1003.546, 20529.00
1004.659, 20515.00
1005.772, 20636.00
1006.884, 20738.00
1007.996, 20700.00
1009.108, 20555.00
1010.220, 20674.00
1011.332, 20837.00
1012.444, 20597.00
1013.555, 20639.00
1014.666, 20937.00
1015.777, 20739.00
1016.888, 20630.00
1017.999, 20735.00
1019.110, 21045.00
1020.220, 20877.00
1021.331, 20936.00
1022.441, 20850.00
1023.551, 20974.00
1024.661, 20943.00
1025.770, 21045.00
1026.880, 21035.00
1027.989, 21011.00
1029.098, 21066.00
1030.207, 21094.00
1031.316, 21092.30
1032.425, 21179.00
1033.533, 21184.00
1034.642, 21094.00
1035.750, 21296.00
1036.858, 21055.00
1037.966, 21196.00
1039.073, 21326.00
1040.181, 21302.00
1041.288, 21537.00
1042.396, 21937.00
1043.503, 21932.00
1044.610, 22618.00
1045.716, 23687.00
1046.823, 26386.00
1047.929, 28919.00
1049.036, 31704.00
1050.142, 36920.00
1051.248, 44048.00
1052.353, 52780.00
1053.459, 59624.00
1054.564, 58475.00
1055.670, 47910.00
1056.775, 33302.00
1057.880, 25823.00
1058.985, 23237.00
1060.089, 22726.00
1061.194, 22205.00
1062.298, 21888.00
1063.402, 21738.00
1064.506, 21912.00
1065.610, 21858.00
1066.713, 21744.00
1067.817, 21777.00
1068.920, 21737.00
1070.023, 21615.00
1071.126, 21606.00
1072.229, 21811.00
1073.332, 21669.00
1074.435, 21872.00
1075.537, 21734.00
1076.639, 21729.00
1077.741, 21782.00
1078.843, 21820.00
1079.945, 21924.00
1081.046, 21806.00
1082.148, 21868.50
1083.249, 21796.00
1084.350, 21894.00
1085.451, 21882.00
1086.551, 21961.00
1087.652, 22013.33
1088.752, 22040.66
1089.853, 22100.00
1090.953, 22102.00
1092.053, 22080.00
1093.152, 22060.00
1094.252, 21954.00
1095.351, 22074.00
1096.451, 22014.00
1097.550, 22220.00
1098.649, 21896.00
1099.748, 22073.00
1100.846, 22038.00
1101.945, 22257.00
1103.043, 21994.00
1104.141, 22323.00
1105.239, 22199.00
1106.337, 21978.00
1107.434, 22293.00
1108.532, 22319.00
1109.629, 22238.00
1110.726, 22226.00
1111.823, 22361.00
1112.920, 22327.00
1114.017, 22406.00
1115.113, 22593.00
1116.210, 22554.00
1117.306, 22642.95
1118.402, 22578.00
1119.498, 22712.00
1120.593, 22592.00
1121.689, 22638.00
1122.784, 22671.00
1123.879, 22816.00
1124.974, 22627.00
1126.069, 22627.00
1127.164, 22480.00
1128.259, 22487.00
1129.353, 22621.00
1130.447, 22535.00
1131.541, 22638.00
1132.635, 22497.00
1133.729, 22697.00
1134.822, 22705.00
1135.916, 22691.00
1137.009, 22749.00
1138.102, 22688.00
1139.195, 22766.00
1140.288, 22887.00
1141.380, 22694.00
1142.473, 22763.00
1143.565, 22553.00
1144.657, 22671.00
1145.749, 22865.00
1146.841, 22889.00
1147.932, 22911.00
1149.024, 22885.00
1150.115, 22916.00
1151.206, 22866.00
1152.297, 22966.00
1153.388, 22844.00
1154.479, 23039.00
1155.569, 22885.00
1156.659, 22855.00
1157.750, 22902.00
1158.839, 23097.00
1159.929, 23037.00
1161.019, 22982.00
1162.108, 22945.00
1163.198, 22994.00
1164.287, 23106.00
1165.376, 23062.00
1166.465, 23000.00
1167.553, 23257.00
1168.642, 23082.00
1169.730, 23193.00
1170.818, 23130.00
1171.906, 23152.00
1172.994, 23312.00
1174.082, 23292.00
1175.170, 23352.00
1176.257, 23070.00
1177.344, 23258.00
1178.431, 23149.00
1179.518, 23335.00
1180.605, 23283.00
1181.691, 23268.00
1182.778, 23390.00
1183.864, 23508.00
1184.950, 23489.65
1186.036, 23547.36
1187.122, 23488.00
1188.207, 23543.00
1189.292, 23508.00
1190.378, 23501.00
1191.463, 23473.00
1192.548, 23565.00
1193.632, 23696.00
1194.717, 23633.00
1195.801, 23542.00
1196.886, 23430.00
1197.970, 23664.00
1199.054, 23609.00
1200.137, 23769.00
1201.221, 23900.00
1202.305, 23866.00
1203.388, 23641.00
1204.471, 23884.00
1205.554, 23764.00
1206.637, 23821.00
1207.719, 23722.00
1208.802, 23703.00
1209.884, 23845.00
1210.966, 23883.00
1212.048, 23914.51
1213.130, 23925.00
1214.212, 23956.00
1215.293, 23900.00
1216.374, 23862.00
1217.456, 24078.00
1218.536, 23959.00
1219.617, 24054.00
1220.698, 23742.00
1221.778, 23995.00
1222.859, 23918.00
1223.939, 24134.00
1225.019, 24099.00
1226.099, 24204.00
1227.178, 24051.00
1228.258, 24105.00
1229.337, 24165.00
1230.417, 24283.00
1231.496, 24311.00
1232.574, 24221.00
1233.653, 24315.00
1234.732, 24313.00
1235.810, 24369.00
1236.888, 24351.49
1237.966, 24230.00
1239.044, 24328.00
1240.122, 24275.47
1241.199, 24340.00
1242.277, 24400.00
1243.354, 24465.00
1244.431, 24654.00
1245.508, 24439.00
1246.585, 24736.00
1247.661, 24484.00
1248.738, 24543.00
1249.814, 24578.00
1250.890, 24642.00
1251.966, 24730.00
1253.042, 24718.00
1254.117, 24772.00
1255.193, 24661.00
1256.268, 24773.00
1257.343, 24858.00
1258.418, 24741.00
1259.493, 24623.00
1260.567, 24912.00
1261.642, 24903.00
1262.716, 24843.00
1263.790, 24864.00
1264.864, 24897.00
1265.938, 24868.98
1267.011, 24904.24
1268.085, 24859.00
1269.158, 24969.00
1270.231, 24964.00
1271.304, 25060.49
1272.377, 25104.00
1273.450, 25176.00
1274.522, 25069.00
1275.594, 25086.00
1276.666, 24994.00
1277.738, 25019.00
1278.810, 24953.00
1279.882, 25366.00
1280.953, 25262.00
1282.025, 25410.00
1283.096, 25351.00
1284.167, 25222.00
1285.238, 25312.00
1286.308, 25456.00
1287.379, 25462.00
1288.449, 25448.00
1289.519, 25457.00
1290.589, 25507.00
1291.659, 25545.00
1292.729, 25409.00
1293.798, 25631.00
1294.868, 25508.00
1295.937, 25713.00
1297.006, 25494.00
1298.075, 25762.00
1299.143, 25694.00
1300.212, 25776.00
1301.280, 25756.00
1302.348, 25887.00
1303.416, 25977.00
1304.484, 25891.00
1305.552, 25945.00
1306.620, 26039.00
1307.687, 26011.00
1308.754, 26034.00
1309.821, 25775.00
1310.888, 26088.00
1311.955, 25978.00
1313.021, 26228.00
1314.088, 26220.00
1315.154, 26433.00
1316.220, 26233.00
1317.286, 26221.00
1318.352, 26282.00
1319.417, 26458.00
1320.483, 26449.00
1321.548, 26595.00
1322.613, 26519.00
1323.678, 26527.00
1324.743, 26777.00
1325.807, 26459.00
1326.872, 26478.00
1327.936, 26709.00
1329.000, 26707.00
1330.064, 26455.00
1331.128, 26721.00
1332.191, 26941.00
1333.255, 26762.00
1334.318, 26910.00
1335.381, 26851.00
1336.444, 26840.00
1337.507, 26859.00
1338.569, 27018.00
1339.632, 26942.00
1340.694, 27190.00
1341.756, 27089.00
1342.818, 27176.00
1343.880, 27157.00
1344.941, 27359.00
1346.003, 27357.00
1347.064, 27532.00
1348.125, 27647.00
1349.186, 27845.00
1350.247, 28083.00
1351.308, 28456.00
1352.368, 28517.00
1353.428, 28704.00
1354.489, 29003.00
1355.549, 29544.00
1356.608, 29731.00
1357.668, 29964.00
1358.727, 30316.00
1359.787, 30310.00
1360.846, 30505.00
1361.905, 30597.21
1362.964, 30592.86
1364.022, 30694.00
1365.081, 30564.00
1366.139, 30548.00
1367.197, 30473.00
1368.255, 30125.00
1369.313, 30142.00
1370.371, 29682.00
1371.428, 29789.00
1372.486, 30020.00
1373.543, 29517.00
1374.600, 29627.00
1375.657, 29339.00
1376.713, 29105.00
1377.770, 29136.00
1378.826, 28877.00
1379.882, 28554.00
1380.938, 28395.00
1381.994, 28257.00
1383.050, 28126.22
1384.106, 27974.00
1385.161, 27965.00
1386.216, 27823.00
1387.271, 27668.00
1388.326, 27763.00
1389.381, 27690.00
1390.435, 27537.00
1391.490, 27782.00
1392.544, 27684.00
1393.598, 27488.00
1394.652, 27516.00
1395.705, 27392.00
1396.759, 27389.00
1397.812, 27391.84
1398.866, 27536.00
1399.919, 27484.00
1400.972, 27370.00
1402.024, 27547.00
1403.077, 27667.00
1404.129, 27696.00
1405.181, 27841.00
1406.233, 27702.00
1407.285, 27674.00
1408.337, 27707.00
1409.389, 27673.00
1410.440, 27660.71
1411.491, 27892.00
1412.542, 27755.00
1413.593, 27812.00
1414.644, 28164.00
1415.695, 28111.00
1416.745, 28076.00
1417.795, 28043.00
1418.845, 28089.00
1419.895, 28282.00
1420.945, 28158.00
1421.995, 28247.00
1423.044, 28095.00
1424.093, 28235.00
1425.142, 28292.00
1426.191, 28247.00
1427.240, 28170.00
1428.289, 28331.00
1429.337, 28357.00
1430.385, 28511.00
1431.433, 28549.00
1432.481, 28497.00
1433.529, 28502.00
1434.577, 28549.00
1435.624, 28491.00
1436.672, 28576.00
1437.719, 28477.00
1438.766, 28529.00
1439.812, 28628.00
1440.859, 28727.00
1441.905, 28766.96
1442.952, 28764.00
1443.998, 28812.00
1445.044, 28845.52
1446.090, 28854.00
1447.135, 28950.00
1448.181, 28960.67
1449.226, 29051.07
1450.271, 29065.00
1451.316, 29276.00
1452.361, 29483.00
1453.405, 29583.00
1454.450, 29733.19
1455.494, 29627.00
1456.538, 29910.00
1457.582, 29955.00
1458.626, 29980.00
1459.670, 30171.00
1460.713, 30217.00
1461.757, 30204.00
1462.800, 30266.00
1463.843, 30410.00
1464.886, 30486.00
1465.928, 30493.00
1466.971, 30676.00
1468.013, 30904.00
1469.055, 30927.56
1470.097, 30948.00
1471.139, 31155.00
1472.181, 31013.00
1473.222, 31258.00
1474.263, 31050.00
1475.305, 31323.00
1476.346, 31204.00
1477.386, 31369.00
1478.427, 31012.00
1479.468, 30960.00
1480.508, 31173.00
1481.548, 31142.00
1482.588, 31095.85
1483.628, 30832.00
1484.668, 30944.00
1485.707, 30752.00
1486.747, 30688.00
1487.786, 30584.00
1488.825, 30515.00
1489.864, 30210.00
1490.902, 30148.00
1491.941, 30014.00
1492.979, 29993.00
1494.017, 29780.00
1495.055, 29638.00
1496.093, 29731.00
1497.131, 29534.00
1498.168, 29649.00
1499.206, 29532.00
1500.243, 29606.00
1501.280, 29620.00
1502.317, 29499.00
1503.354, 29448.00
1504.390, 29522.00
1505.426, 29340.00
1506.463, 29458.00
1507.499, 29195.00
1508.535, 29444.00
1509.570, 29580.00
1510.606, 29354.00
1511.641, 29488.00
1512.676, 29329.00
1513.711, 29595.00
1514.746, 29620.00
1515.781, 29479.00
1516.816, 29619.00
1517.850, 29443.00
1518.884, 29487.00
1519.918, 29558.00
1520.952, 29316.00
1521.986, 29388.00
1523.019, 29485.00
1524.053, 29436.00
1525.086, 29597.00
1526.119, 29633.00
1527.152, 29640.00
1528.185, 29751.31
1529.217, 29599.00
1530.250, 29853.00
1531.282, 29632.00
1532.314, 29583.00
1533.346, 29500.00
1534.377, 29607.00
1535.409, 29666.00
1536.440, 29630.00
1537.472, 29869.00
1538.503, 29804.00
1539.534, 29607.00
1540.564, 29669.00
1541.595, 29818.00
1542.625, 29736.00
1543.656, 29982.00
1544.686, 29713.00
1545.716, 29600.00
1546.745, 29554.00
1547.775, 29753.00
1548.804, 29877.00
1549.834, 29805.00
1550.863, 29941.00
1551.892, 29854.00
1552.920, 30112.00
1553.949, 29956.00
1554.977, 29861.00
1556.006, 30057.00
1557.034, 29782.00
1558.062, 30067.00
1559.089, 29846.00
1560.117, 30036.00
1561.144, 30110.00
1562.172, 30319.00
1563.199, 30112.00
1564.226, 30341.00
1565.252, 30351.00
1566.279, 30233.00
1567.305, 30371.00
1568.332, 30418.00
1569.358, 30064.00
1570.384, 30250.00
##END=



