##NAMES=Cerussite
##RRUFFID=R060017
##IDEAL CHEMISTRY=Pb^2+^CO_3_
##LOCALITY=Gonessa, Sardinia, Italy
##OWNER=RRUFF
##SOURCE=American Museum of Natural History
##DESCRIPTION=White reticulated composite
##STATUS=The identification of this mineral has been confirmed by X-ray diffraction and chemical analysis
##URL=rruff.info/R060017
##MEASURED CHEMISTRY=Pb_1.00_CO_3_ C not measured but estimated by difference and stoichiometry
##PIN_ID=M00240
##ORIENTATION=Laser parallel to b* (0 1 0). Fiducial mark perpendicular to laser is parallel to c [0 0 1]
51.43100, 805.0000
52.67100, 1007.000
53.91000, 1162.000
55.14900, 1245.000
56.38700, 1306.000
57.62600, 1385.000
58.86400, 1598.000
60.10300, 1996.000
61.34100, 2616.000
62.57900, 3301.000
63.81700, 4302.000
65.05400, 5451.000
66.29200, 6699.000
67.52900, 7980.000
68.76700, 9192.000
70.00400, 9928.000
71.24100, 10355.00
72.47700, 10386.00
73.71400, 9856.000
74.95100, 9407.000
76.18700, 8905.000
77.42300, 8294.000
78.65900, 8016.000
79.89500, 7759.000
81.13100, 7718.000
82.36700, 7633.905
83.60200, 7615.000
84.83700, 7776.000
86.07200, 7997.000
87.30800, 8283.000
88.54200, 8627.000
89.77700, 9273.000
91.01200, 9768.000
92.24600, 10313.00
93.48000, 10741.49
94.71400, 10990.00
95.94800, 11531.00
97.18200, 11924.00
98.41600, 12347.00
99.64900, 12846.00
100.8830, 13200.00
102.1160, 13342.00
103.3490, 13645.00
104.5820, 13670.00
105.8150, 13982.00
107.0470, 14107.00
108.2800, 14083.00
109.5120, 14554.00
110.7440, 14796.00
111.9760, 15247.00
113.2080, 15496.00
114.4400, 15807.00
115.6710, 15871.00
116.9030, 15951.00
118.1340, 15802.00
119.3650, 15420.00
120.5960, 14920.00
121.8270, 14402.00
123.0580, 13764.00
124.2880, 13277.00
125.5190, 12906.00
126.7490, 12491.00
127.9790, 12032.00
129.2090, 11806.00
130.4390, 11444.00
131.6680, 11162.00
132.8980, 10700.00
134.1270, 10234.00
135.3560, 9897.000
136.5850, 9602.000
137.8140, 9191.000
139.0430, 8881.000
140.2710, 8741.000
141.5000, 8370.000
142.7280, 8289.000
143.9560, 8201.000
145.1840, 8016.000
146.4120, 7948.000
147.6390, 7701.000
148.8670, 7590.000
150.0940, 7521.000
151.3210, 7274.000
152.5490, 7128.000
153.7750, 6883.000
155.0020, 6664.000
156.2290, 6627.000
157.4550, 6369.000
158.6810, 6227.000
159.9080, 6183.000
161.1340, 6122.000
162.3590, 6057.000
163.5850, 5942.000
164.8110, 5950.000
166.0360, 5949.000
167.2610, 6074.000
168.4860, 6078.000
169.7110, 6158.000
170.9360, 6044.000
172.1610, 6203.000
173.3850, 6061.000
174.6100, 6046.000
175.8340, 5958.000
177.0580, 5928.000
178.2820, 5903.000
179.5050, 5908.000
180.7290, 5805.000
181.9520, 5756.000
183.1760, 5697.000
184.3990, 5705.000
185.6220, 5678.000
186.8450, 5687.550
188.0670, 5734.000
189.2900, 5738.000
190.5120, 5777.000
191.7340, 5830.000
192.9560, 5939.000
194.1780, 6038.000
195.4000, 6115.000
196.6220, 6232.845
197.8430, 6329.000
199.0640, 6466.000
200.2860, 6657.000
201.5070, 6814.000
202.7270, 6996.000
203.9480, 7098.000
205.1690, 7270.236
206.3890, 7416.218
207.6090, 7539.000
208.8290, 7693.000
210.0490, 7762.000
211.2690, 7840.000
212.4890, 7956.000
213.7080, 8018.000
214.9280, 8134.000
216.1470, 8108.000
217.3660, 8116.000
218.5850, 8175.000
219.8030, 8128.000
221.0220, 8100.000
222.2400, 8031.959
223.4590, 7947.394
224.6770, 7794.000
225.8950, 7725.000
227.1120, 7523.000
228.3300, 7356.141
229.5480, 7078.000
230.7650, 6895.000
231.9820, 6563.000
233.1990, 6303.000
234.4160, 6156.000
235.6330, 6001.000
236.8490, 5778.000
238.0660, 5625.000
239.2820, 5523.000
240.4980, 5348.000
241.7140, 5212.000
242.9300, 5222.000
244.1460, 5058.000
245.3610, 4890.000
246.5770, 4882.000
247.7920, 4760.000
249.0070, 4682.000
250.2220, 4592.000
251.4370, 4573.000
252.6510, 4448.000
253.8660, 4409.000
255.0800, 4438.000
256.2940, 4366.000
257.5080, 4332.000
258.7220, 4227.000
259.9360, 4195.000
261.1490, 4144.000
262.3630, 4073.000
263.5760, 4045.000
264.7890, 4058.000
266.0020, 4022.000
267.2150, 4000.000
268.4270, 3930.000
269.6400, 3934.706
270.8520, 3906.617
272.0640, 3920.000
273.2760, 3896.000
274.4880, 3877.000
275.7000, 3896.000
276.9120, 3872.000
278.1230, 3867.000
279.3340, 3847.000
280.5450, 3851.000
281.7560, 3795.000
282.9670, 3869.000
284.1780, 3781.000
285.3880, 3885.000
286.5980, 3802.000
287.8090, 3813.000
289.0190, 3785.000
290.2290, 3776.000
291.4380, 3748.000
292.6480, 3774.000
293.8570, 3745.000
295.0670, 3759.000
296.2760, 3744.000
297.4850, 3761.000
298.6930, 3755.000
299.9020, 3698.000
301.1110, 3660.000
302.3190, 3721.000
303.5270, 3731.000
304.7350, 3668.000
305.9430, 3749.000
307.1510, 3725.000
308.3580, 3610.000
309.5660, 3673.000
310.7730, 3711.000
311.9800, 3709.000
313.1870, 3755.000
314.3940, 3756.000
315.6010, 3687.000
316.8070, 3632.000
318.0130, 3713.000
319.2200, 3663.000
320.4260, 3731.000
321.6310, 3697.000
322.8370, 3671.000
324.0430, 3726.000
325.2480, 3658.000
326.4540, 3693.000
327.6590, 3648.000
328.8640, 3703.000
330.0680, 3655.000
331.2730, 3646.000
332.4780, 3691.000
333.6820, 3710.000
334.8860, 3679.000
336.0900, 3680.000
337.2940, 3638.000
338.4980, 3663.000
339.7010, 3661.000
340.9050, 3727.000
342.1080, 3656.000
343.3110, 3667.000
344.5140, 3723.000
345.7170, 3675.000
346.9200, 3707.000
348.1220, 3759.000
349.3240, 3720.000
350.5270, 3747.000
351.7290, 3678.000
352.9310, 3726.000
354.1320, 3697.000
355.3340, 3645.000
356.5350, 3750.000
357.7370, 3717.000
358.9380, 3720.000
360.1390, 3783.000
361.3400, 3803.000
362.5400, 3776.000
363.7410, 3729.000
364.9410, 3757.000
366.1410, 3769.000
367.3410, 3778.000
368.5410, 3759.000
369.7410, 3720.000
370.9400, 3797.000
372.1400, 3757.000
373.3390, 3721.000
374.5380, 3812.000
375.7370, 3819.000
376.9360, 3754.000
378.1350, 3833.000
379.3330, 3774.000
380.5310, 3771.000
381.7300, 3823.000
382.9280, 3854.000
384.1260, 3836.000
385.3230, 3851.735
386.5210, 3792.000
387.7180, 3813.000
388.9160, 3823.000
390.1130, 3771.000
391.3100, 3861.000
392.5060, 3850.000
393.7030, 3844.000
394.9000, 3807.000
396.0960, 3852.000
397.2920, 3817.720
398.4880, 3859.000
399.6840, 3797.000
400.8800, 3808.000
402.0750, 3815.000
403.2710, 3896.000
404.4660, 3913.000
405.6610, 3835.000
406.8560, 3815.000
408.0510, 3951.000
409.2450, 3831.000
410.4400, 3896.000
411.6340, 3900.000
412.8280, 3888.000
414.0220, 3878.000
415.2160, 3929.000
416.4100, 3888.000
417.6030, 3846.000
418.7970, 3887.000
419.9900, 3986.000
421.1830, 3969.000
422.3760, 3937.000
423.5690, 3882.000
424.7610, 3829.000
425.9540, 3878.000
427.1460, 4000.000
428.3380, 3983.000
429.5300, 3968.000
430.7220, 3986.000
431.9140, 3935.000
433.1050, 4006.000
434.2970, 3916.000
435.4880, 4061.000
436.6790, 3966.000
437.8700, 4025.000
439.0610, 3971.000
440.2510, 3949.000
441.4420, 4017.000
442.6320, 4001.000
443.8220, 4010.000
445.0120, 3980.000
446.2020, 3994.000
447.3910, 4064.000
448.5810, 4037.000
449.7700, 4068.000
450.9600, 4002.000
452.1490, 4063.000
453.3370, 4051.000
454.5260, 4041.000
455.7150, 3998.000
456.9030, 4070.000
458.0910, 4003.000
459.2800, 4091.000
460.4670, 4084.000
461.6550, 4076.000
462.8430, 4092.000
464.0300, 4092.000
465.2180, 4106.000
466.4050, 4100.000
467.5920, 4107.038
468.7790, 4095.000
469.9650, 4121.000
471.1520, 4110.000
472.3380, 4131.000
473.5250, 4191.000
474.7110, 4156.000
475.8970, 4162.000
477.0820, 4066.000
478.2680, 4164.000
479.4540, 4177.000
480.6390, 4106.000
481.8240, 4177.000
483.0090, 4135.000
484.1940, 4178.000
485.3780, 4153.000
486.5630, 4191.000
487.7470, 4246.000
488.9320, 4131.000
490.1160, 4186.000
491.3000, 4205.000
492.4830, 4151.000
493.6670, 4173.000
494.8500, 4190.000
496.0340, 4197.000
497.2170, 4168.000
498.4000, 4194.000
499.5820, 4158.000
500.7650, 4213.000
501.9480, 4243.000
503.1300, 4208.000
504.3120, 4219.000
505.4940, 4160.000
506.6760, 4267.000
507.8580, 4235.000
509.0390, 4278.000
510.2210, 4259.000
511.4020, 4154.000
512.5830, 4237.000
513.7640, 4218.000
514.9450, 4188.000
516.1250, 4259.000
517.3060, 4255.000
518.4860, 4270.000
519.6660, 4377.000
520.8460, 4186.000
522.0260, 4264.000
523.2060, 4205.000
524.3850, 4236.000
525.5650, 4287.000
526.7440, 4325.000
527.9230, 4299.000
529.1020, 4327.000
530.2810, 4361.000
531.4590, 4301.000
532.6380, 4316.000
533.8160, 4235.000
534.9940, 4211.000
536.1720, 4319.000
537.3500, 4287.000
538.5270, 4269.000
539.7050, 4311.000
540.8820, 4337.000
542.0590, 4323.000
543.2360, 4339.536
544.4130, 4308.000
545.5900, 4326.000
546.7660, 4383.000
547.9430, 4373.000
549.1190, 4378.000
550.2950, 4382.651
551.4710, 4354.000
552.6470, 4353.000
553.8220, 4382.000
554.9980, 4351.000
556.1730, 4446.000
557.3480, 4439.000
558.5230, 4357.000
559.6980, 4415.000
560.8730, 4407.000
562.0470, 4432.000
563.2220, 4363.000
564.3960, 4356.000
565.5700, 4378.501
566.7440, 4384.000
567.9170, 4426.000
569.0910, 4423.000
570.2640, 4436.000
571.4380, 4463.000
572.6110, 4432.000
573.7840, 4443.000
574.9570, 4436.000
576.1290, 4427.000
577.3020, 4437.000
578.4740, 4499.000
579.6460, 4496.000
580.8180, 4520.000
581.9900, 4607.000
583.1620, 4469.000
584.3330, 4418.000
585.5040, 4518.000
586.6760, 4608.000
587.8470, 4551.000
589.0180, 4499.000
590.1880, 4549.000
591.3590, 4526.000
592.5290, 4488.000
593.7000, 4566.000
594.8700, 4608.000
596.0400, 4521.000
597.2090, 4539.000
598.3790, 4577.000
599.5490, 4577.000
600.7180, 4607.927
601.8870, 4583.000
603.0560, 4633.000
604.2250, 4605.000
605.3940, 4570.000
606.5620, 4591.166
607.7300, 4687.000
608.8990, 4605.000
610.0670, 4655.000
611.2350, 4701.000
612.4020, 4638.000
613.5700, 4726.000
614.7370, 4670.000
615.9050, 4589.000
617.0720, 4706.000
618.2390, 4768.000
619.4060, 4680.000
620.5720, 4740.000
621.7390, 4705.000
622.9050, 4730.000
624.0710, 4744.000
625.2370, 4710.000
626.4030, 4755.000
627.5690, 4663.000
628.7340, 4745.000
629.9000, 4821.000
631.0650, 4694.000
632.2300, 4798.000
633.3950, 4723.000
634.5600, 4709.000
635.7240, 4755.000
636.8890, 4739.000
638.0530, 4778.000
639.2170, 4813.000
640.3810, 4791.110
641.5450, 4776.000
642.7080, 4760.000
643.8720, 4790.000
645.0350, 4766.000
646.1980, 4761.000
647.3610, 4805.000
648.5240, 4760.000
649.6870, 4755.000
650.8490, 4800.000
652.0120, 4761.000
653.1740, 4755.000
654.3360, 4811.000
655.4980, 4805.000
656.6600, 4843.000
657.8210, 4900.000
658.9830, 4879.000
660.1440, 4973.000
661.3050, 5073.000
662.4660, 5085.000
663.6270, 5243.000
664.7870, 5400.000
665.9480, 5516.000
667.1080, 5531.000
668.2680, 5543.000
669.4280, 5690.000
670.5880, 5663.000
671.7480, 5729.000
672.9070, 5613.000
674.0670, 5583.000
675.2260, 5371.000
676.3850, 5418.000
677.5440, 5328.000
678.7030, 5372.000
679.8610, 5441.000
681.0200, 5407.000
682.1780, 5370.000
683.3360, 5222.000
684.4940, 5124.000
685.6520, 5080.000
686.8090, 5052.000
687.9670, 5012.000
689.1240, 4979.000
690.2810, 5076.000
691.4380, 5011.000
692.5950, 5112.000
693.7520, 5069.000
694.9080, 5140.000
696.0650, 5038.000
697.2210, 4979.000
698.3770, 4990.000
699.5330, 4966.000
700.6880, 4959.617
701.8440, 5017.000
702.9990, 4989.000
704.1550, 4992.000
705.3100, 5062.000
706.4650, 5021.000
707.6190, 5068.000
708.7740, 5065.000
709.9290, 5065.562
711.0830, 5097.908
712.2370, 5087.000
713.3910, 5140.000
714.5450, 5177.000
715.6980, 5197.517
716.8520, 5236.304
718.0050, 5180.000
719.1580, 5269.000
720.3110, 5199.000
721.4640, 5159.000
722.6170, 5275.000
723.7700, 5205.000
724.9220, 5221.000
726.0740, 5245.000
727.2260, 5205.000
728.3780, 5216.000
729.5300, 5252.000
730.6810, 5271.000
731.8330, 5198.000
732.9840, 5242.000
734.1350, 5148.000
735.2860, 5194.000
736.4370, 5309.000
737.5880, 5213.000
738.7380, 5251.000
739.8880, 5259.000
741.0390, 5266.000
742.1890, 5208.000
743.3380, 5165.000
744.4880, 5295.000
745.6380, 5217.000
746.7870, 5321.000
747.9360, 5199.000
749.0850, 5195.000
750.2340, 5227.000
751.3830, 5243.000
752.5310, 5186.000
753.6800, 5211.000
754.8280, 5260.000
755.9760, 5378.000
757.1240, 5255.000
758.2720, 5177.000
759.4190, 5273.000
760.5670, 5217.000
761.7140, 5364.000
762.8610, 5385.000
764.0080, 5361.000
765.1550, 5345.000
766.3020, 5312.000
767.4480, 5358.000
768.5950, 5336.374
769.7410, 5317.000
770.8870, 5341.000
772.0330, 5312.000
773.1780, 5307.000
774.3240, 5348.000
775.4690, 5435.000
776.6140, 5372.000
777.7590, 5420.000
778.9040, 5382.000
780.0490, 5427.000
781.1940, 5449.000
782.3380, 5463.000
783.4820, 5456.000
784.6260, 5458.831
785.7700, 5469.075
786.9140, 5456.000
788.0580, 5469.000
789.2010, 5502.000
790.3450, 5465.000
791.4880, 5461.000
792.6310, 5495.000
793.7730, 5522.000
794.9160, 5477.000
796.0590, 5495.000
797.2010, 5423.000
798.3430, 5439.000
799.4850, 5470.000
800.6270, 5383.000
801.7690, 5448.000
802.9100, 5491.000
804.0520, 5470.119
805.1930, 5452.000
806.3340, 5500.000
807.4750, 5549.000
808.6160, 5585.000
809.7560, 5516.000
810.8970, 5440.000
812.0370, 5497.000
813.1770, 5642.000
814.3170, 5526.000
815.4570, 5554.000
816.5960, 5633.000
817.7360, 5598.000
818.8750, 5597.000
820.0140, 5599.000
821.1530, 5591.000
822.2920, 5654.000
823.4310, 5645.000
824.5690, 5744.000
825.7070, 5650.000
826.8460, 5913.000
827.9840, 5898.000
829.1220, 6121.000
830.2590, 6352.000
831.3970, 6323.000
832.5340, 6511.000
833.6710, 6748.000
834.8080, 6819.000
835.9450, 6863.000
837.0820, 6813.000
838.2190, 6588.000
839.3550, 6286.000
840.4910, 6217.000
841.6270, 5948.000
842.7630, 5867.000
843.8990, 5795.000
845.0350, 5773.000
846.1700, 5708.000
847.3060, 5764.000
848.4410, 5802.000
849.5760, 5684.000
850.7100, 5802.000
851.8450, 5799.000
852.9800, 5773.000
854.1140, 5794.000
855.2480, 5815.000
856.3820, 5756.000
857.5160, 5665.000
858.6500, 5811.000
859.7830, 5828.000
860.9170, 5820.000
862.0500, 5712.000
863.1830, 5781.000
864.3160, 5828.000
865.4480, 5806.000
866.5810, 5797.000
867.7130, 5822.000
868.8460, 5811.000
869.9780, 5760.000
871.1100, 5785.649
872.2410, 5868.000
873.3730, 5827.000
874.5050, 5839.000
875.6360, 5934.000
876.7670, 5870.000
877.8980, 5859.000
879.0290, 5924.000
880.1590, 5806.000
881.2900, 5911.000
882.4200, 5912.000
883.5500, 5879.000
884.6800, 5855.000
885.8100, 5846.000
886.9400, 5845.000
888.0690, 5919.000
889.1990, 5801.000
890.3280, 5973.000
891.4570, 5919.000
892.5860, 5978.000
893.7140, 5969.000
894.8430, 5965.000
895.9710, 5805.000
897.1000, 5941.000
898.2280, 5840.000
899.3560, 5935.000
900.4830, 5936.000
901.6110, 5943.000
902.7380, 5967.000
903.8660, 5957.000
904.9930, 5963.000
906.1200, 5886.000
907.2460, 5998.000
908.3730, 6068.000
909.5000, 6030.000
910.6260, 6008.000
911.7520, 6001.000
912.8780, 6002.000
914.0040, 5938.000
915.1290, 5974.000
916.2550, 5979.000
917.3800, 5930.000
918.5050, 6030.000
919.6300, 6067.000
920.7550, 6078.000
921.8800, 6067.000
923.0040, 6045.000
924.1290, 6107.000
925.2530, 6156.000
926.3770, 6093.000
927.5010, 6061.000
928.6250, 6021.000
929.7480, 6121.000
930.8720, 6123.000
931.9950, 6082.000
933.1180, 6107.000
934.2410, 6055.000
935.3640, 6167.000
936.4860, 6215.000
937.6090, 6135.000
938.7310, 6090.000
939.8530, 6155.000
940.9750, 6224.000
942.0970, 6099.000
943.2180, 6307.000
944.3400, 6148.000
945.4610, 6265.000
946.5820, 6109.000
947.7030, 6249.000
948.8240, 6139.000
949.9450, 6230.000
951.0650, 6291.000
952.1860, 6203.000
953.3060, 6198.000
954.4260, 6120.000
955.5460, 6134.288
956.6650, 6136.749
957.7850, 6180.000
958.9040, 6194.000
960.0230, 6240.000
961.1420, 6297.000
962.2610, 6349.000
963.3800, 6320.525
964.4990, 6279.000
965.6170, 6237.000
966.7350, 6284.000
967.8530, 6231.000
968.9710, 6264.419
970.0890, 6360.000
971.2070, 6317.000
972.3240, 6335.000
973.4410, 6369.000
974.5580, 6306.000
975.6750, 6402.000
976.7920, 6423.000
977.9090, 6332.000
979.0250, 6327.000
980.1410, 6403.000
981.2580, 6392.000
982.3740, 6427.000
983.4890, 6349.000
984.6050, 6465.000
985.7200, 6355.000
986.8360, 6410.000
987.9510, 6402.000
989.0660, 6492.000
990.1810, 6521.000
991.2950, 6496.000
992.4100, 6441.000
993.5240, 6528.000
994.6390, 6514.000
995.7530, 6587.000
996.8660, 6551.000
997.9800, 6563.446
999.0940, 6584.000
1000.207, 6547.000
1001.320, 6545.000
1002.433, 6530.000
1003.546, 6622.000
1004.659, 6628.000
1005.772, 6598.000
1006.884, 6656.000
1007.996, 6616.187
1009.108, 6567.000
1010.220, 6592.000
1011.332, 6585.000
1012.444, 6610.000
1013.555, 6575.000
1014.666, 6688.000
1015.777, 6588.000
1016.888, 6673.000
1017.999, 6610.000
1019.110, 6491.000
1020.220, 6707.000
1021.331, 6641.000
1022.441, 6690.000
1023.551, 6840.000
1024.661, 6850.000
1025.770, 6931.000
1026.880, 6992.000
1027.989, 6902.000
1029.098, 6952.000
1030.207, 6932.000
1031.316, 6993.000
1032.425, 6972.000
1033.533, 7020.000
1034.642, 6957.000
1035.750, 7062.000
1036.858, 7073.000
1037.966, 7093.000
1039.073, 7408.000
1040.181, 7471.000
1041.288, 7753.000
1042.396, 8354.000
1043.503, 9314.000
1044.610, 11621.00
1045.716, 17265.00
1046.823, 22594.58
1047.929, 36917.00
1049.036, 38562.00
1050.142, 48380.00
1051.248, 59085.00
1052.353, 63901.00
1053.459, 59854.00
1054.564, 47347.00
1055.670, 31274.00
1056.775, 18167.00
1057.880, 11542.00
1058.985, 9164.000
1060.089, 8128.000
1061.194, 7871.000
1062.298, 7528.000
1063.402, 7327.000
1064.506, 7427.000
1065.610, 7244.000
1066.713, 7119.000
1067.817, 7165.000
1068.920, 7095.000
1070.023, 7069.000
1071.126, 7129.000
1072.229, 7009.000
1073.332, 7115.000
1074.435, 6986.000
1075.537, 6989.000
1076.639, 7096.000
1077.741, 7047.000
1078.843, 7055.000
1079.945, 7079.000
1081.046, 7051.418
1082.148, 7064.968
1083.249, 7051.000
1084.350, 7049.000
1085.451, 7079.000
1086.551, 7046.000
1087.652, 7112.000
1088.752, 7092.000
1089.853, 7057.000
1090.953, 7013.000
1092.053, 7075.000
1093.152, 6982.000
1094.252, 7051.000
1095.351, 6999.000
1096.451, 7223.000
1097.550, 7131.000
1098.649, 7123.000
1099.748, 7024.000
1100.846, 7128.000
1101.945, 7202.000
1103.043, 7117.000
1104.141, 7200.000
1105.239, 7031.000
1106.337, 7149.000
1107.434, 7158.000
1108.532, 7177.000
1109.629, 7069.000
1110.726, 7168.000
1111.823, 7121.000
1112.920, 7262.000
1114.017, 7100.000
1115.113, 7210.000
1116.210, 7230.000
1117.306, 7328.000
1118.402, 7285.000
1119.498, 7246.000
1120.593, 7354.000
1121.689, 7193.000
1122.784, 7350.000
1123.879, 7219.000
1124.974, 7393.000
1126.069, 7325.000
1127.164, 7241.000
1128.259, 7169.000
1129.353, 7249.000
1130.447, 7212.000
1131.541, 7252.000
1132.635, 7289.000
1133.729, 7292.000
1134.822, 7274.000
1135.916, 7297.587
1137.009, 7338.000
1138.102, 7277.000
1139.195, 7293.000
1140.288, 7209.000
1141.380, 7391.000
1142.473, 7376.000
1143.565, 7261.000
1144.657, 7388.000
1145.749, 7347.000
1146.841, 7323.000
1147.932, 7344.000
1149.024, 7396.000
1150.115, 7329.000
1151.206, 7407.000
1152.297, 7409.000
1153.388, 7324.000
1154.479, 7341.000
1155.569, 7336.822
1156.659, 7407.000
1157.750, 7338.000
1158.839, 7439.000
1159.929, 7386.000
1161.019, 7415.000
1162.108, 7360.000
1163.198, 7488.000
1164.287, 7431.000
1165.376, 7509.000
1166.465, 7453.000
1167.553, 7465.000
1168.642, 7570.000
1169.730, 7428.000
1170.818, 7534.000
1171.906, 7358.000
1172.994, 7539.000
1174.082, 7505.000
1175.170, 7514.000
1176.257, 7471.000
1177.344, 7453.000
1178.431, 7463.000
1179.518, 7535.000
1180.605, 7522.537
1181.691, 7575.000
1182.778, 7547.000
1183.864, 7553.000
1184.950, 7544.000
1186.036, 7563.000
1187.122, 7625.000
1188.207, 7499.000
1189.292, 7589.000
1190.378, 7551.000
1191.463, 7631.000
1192.548, 7674.000
1193.632, 7718.000
1194.717, 7736.935
1195.801, 7699.000
1196.886, 7721.000
1197.970, 7706.473
1199.054, 7646.000
1200.137, 7706.000
1201.221, 7677.000
1202.305, 7686.000
1203.388, 7731.000
1204.471, 7722.000
1205.554, 7763.000
1206.637, 7804.000
1207.719, 7710.000
1208.802, 7744.000
1209.884, 7742.000
1210.966, 7791.000
1212.048, 7742.000
1213.130, 7772.289
1214.212, 7792.000
1215.293, 7781.000
1216.374, 7838.000
1217.456, 7828.000
1218.536, 7822.000
1219.617, 7831.000
1220.698, 7860.000
1221.778, 7913.000
1222.859, 7791.000
1223.939, 7921.000
1225.019, 8013.000
1226.099, 7970.000
1227.178, 7851.000
1228.258, 7972.000
1229.337, 7902.000
1230.417, 7885.000
1231.496, 7900.000
1232.574, 7938.000
1233.653, 7946.512
1234.732, 7970.628
1235.810, 8004.000
1236.888, 8010.000
1237.966, 8045.000
1239.044, 8068.454
1240.122, 8082.708
1241.199, 8089.880
1242.277, 8109.000
1243.354, 8096.000
1244.431, 8090.000
1245.508, 8115.000
1246.585, 8075.000
1247.661, 8131.000
1248.738, 8076.000
1249.814, 8079.000
1250.890, 8131.000
1251.966, 8159.000
1253.042, 8117.000
1254.117, 8250.000
1255.193, 8169.000
1256.268, 8227.000
1257.343, 8205.000
1258.418, 8228.000
1259.493, 8245.000
1260.567, 8264.469
1261.642, 8245.000
1262.716, 8308.000
1263.790, 8307.000
1264.864, 8283.000
1265.938, 8275.000
1267.011, 8317.000
1268.085, 8353.000
1269.158, 8318.000
1270.231, 8384.000
1271.304, 8463.000
1272.377, 8409.000
1273.450, 8409.000
1274.522, 8418.373
1275.594, 8406.000
1276.666, 8421.000
1277.738, 8453.000
1278.810, 8493.000
1279.882, 8599.000
1280.953, 8448.000
1282.025, 8606.000
1283.096, 8707.000
1284.167, 8657.000
1285.238, 8555.000
1286.308, 8557.000
1287.379, 8644.000
1288.449, 8652.000
1289.519, 8717.000
1290.589, 8719.000
1291.659, 8702.000
1292.729, 8747.000
1293.798, 8825.000
1294.868, 8792.000
1295.937, 8859.000
1297.006, 8797.000
1298.075, 8898.000
1299.143, 8929.000
1300.212, 8928.000
1301.280, 8976.000
1302.348, 9051.000
1303.416, 9089.000
1304.484, 9108.000
1305.552, 9147.000
1306.620, 9144.000
1307.687, 9169.000
1308.754, 9256.000
1309.821, 9092.000
1310.888, 9293.000
1311.955, 9172.000
1313.021, 9256.000
1314.088, 9348.000
1315.154, 9368.000
1316.220, 9313.000
1317.286, 9458.000
1318.352, 9492.000
1319.417, 9414.000
1320.483, 9496.000
1321.548, 9505.000
1322.613, 9567.000
1323.678, 9586.000
1324.743, 9598.001
1325.807, 9634.000
1326.872, 9606.000
1327.936, 9681.000
1329.000, 9676.000
1330.064, 9707.000
1331.128, 9670.000
1332.191, 9747.000
1333.255, 9802.000
1334.318, 9935.000
1335.381, 9830.000
1336.444, 9909.000
1337.507, 10060.00
1338.569, 10083.00
1339.632, 10224.00
1340.694, 10142.00
1341.756, 10219.00
1342.818, 10326.00
1343.880, 10510.00
1344.941, 10563.00
1346.003, 10794.00
1347.064, 10951.00
1348.125, 11271.00
1349.186, 11410.00
1350.247, 11706.00
1351.308, 11971.00
1352.368, 12414.00
1353.428, 12707.00
1354.489, 13161.00
1355.549, 13395.00
1356.608, 13894.00
1357.668, 14278.00
1358.727, 14488.00
1359.787, 14720.00
1360.846, 14818.96
1361.905, 14882.04
1362.964, 14772.00
1364.022, 14797.00
1365.081, 14522.00
1366.139, 14275.00
1367.197, 14265.00
1368.255, 13943.00
1369.313, 13985.00
1370.371, 13774.00
1371.428, 13774.00
1372.486, 13610.00
1373.543, 13494.00
1374.600, 13251.00
1375.657, 13160.00
1376.713, 12809.00
1377.770, 12720.00
1378.826, 12266.00
1379.882, 11985.00
1380.938, 11736.00
1381.994, 11475.00
1383.050, 11023.00
1384.106, 10892.00
1385.161, 10658.00
1386.216, 10566.00
1387.271, 10344.00
1388.326, 10159.00
1389.381, 9948.000
1390.435, 9978.000
1391.490, 9773.000
1392.544, 9907.000
1393.598, 9678.000
1394.652, 9827.000
1395.705, 9708.000
1396.759, 9764.000
1397.812, 9653.000
1398.866, 9740.000
1399.919, 9617.000
1400.972, 9537.000
1402.024, 9663.000
1403.077, 9711.000
1404.129, 9638.000
1405.181, 9813.000
1406.233, 9707.000
1407.285, 9545.000
1408.337, 9731.000
1409.389, 9814.000
1410.440, 9750.000
1411.491, 9856.000
1412.542, 9974.000
1413.593, 9937.000
1414.644, 9966.000
1415.695, 9960.000
1416.745, 9919.000
1417.795, 9867.000
1418.845, 9968.000
1419.895, 9926.000
1420.945, 9929.000
1421.995, 9902.000
1423.044, 10035.00
1424.093, 9993.000
1425.142, 9957.000
1426.191, 10015.00
1427.240, 9946.000
1428.289, 10019.00
1429.337, 9903.000
1430.385, 10035.00
1431.433, 9989.000
1432.481, 10070.00
1433.529, 10024.00
1434.577, 10013.00
1435.624, 9989.000
1436.672, 10065.00
1437.719, 10119.00
1438.766, 9958.000
1439.812, 10169.00
1440.859, 10032.00
1441.905, 10085.00
1442.952, 10137.00
1443.998, 10211.00
1445.044, 10332.00
1446.090, 10284.00
1447.135, 10367.00
1448.181, 10435.00
1449.226, 10356.00
1450.271, 10405.00
1451.316, 10406.00
1452.361, 10575.00
1453.405, 10654.00
1454.450, 10854.00
1455.494, 10811.00
1456.538, 10854.00
1457.582, 11018.00
1458.626, 10990.00
1459.670, 11063.00
1460.713, 11054.00
1461.757, 11164.23
1462.800, 11293.00
1463.843, 11419.00
1464.886, 11520.00
1465.928, 11685.00
1466.971, 11621.00
1468.013, 11685.00
1469.055, 11771.00
1470.097, 11898.00
1471.139, 11939.00
1472.181, 11967.41
1473.222, 11908.00
1474.263, 11992.00
1475.305, 11937.00
1476.346, 12007.00
1477.386, 11985.00
1478.427, 11828.00
1479.468, 11822.00
1480.508, 11817.00
1481.548, 11745.00
1482.588, 11527.00
1483.628, 11599.00
1484.668, 11357.00
1485.707, 11291.00
1486.747, 11229.00
1487.786, 11146.00
1488.825, 11157.00
1489.864, 10954.00
1490.902, 10717.00
1491.941, 10685.00
1492.979, 10619.00
1494.017, 10511.00
1495.055, 10462.00
1496.093, 10348.00
1497.131, 10237.00
1498.168, 10269.00
1499.206, 10196.00
1500.243, 10135.00
1501.280, 10239.00
1502.317, 10044.00
1503.354, 10138.00
1504.390, 10014.00
1505.426, 10050.00
1506.463, 9943.000
1507.499, 10022.00
1508.535, 10076.00
1509.570, 9879.000
1510.606, 10046.00
1511.641, 9898.000
1512.676, 10093.00
1513.711, 9986.000
1514.746, 9931.000
1515.781, 9929.000
1516.816, 9843.000
1517.850, 10055.00
1518.884, 9881.000
1519.918, 10048.00
1520.952, 9858.000
1521.986, 9928.000
1523.019, 9884.000
1524.053, 9818.000
1525.086, 9948.000
1526.119, 9927.000
1527.152, 9975.000
1528.185, 9929.000
1529.217, 9986.000
1530.250, 9889.000
1531.282, 9869.000
1532.314, 9968.000
1533.346, 9774.000
1534.377, 9819.000
1535.409, 9906.000
1536.440, 9798.000
1537.472, 9794.000
1538.503, 9953.000
1539.534, 9962.000
1540.564, 9891.000
1541.595, 9815.000
1542.625, 9858.000
1543.656, 9935.000
1544.686, 9862.000
1545.716, 9979.000
1546.745, 9933.000
1547.775, 9849.000
1548.804, 9868.000
1549.834, 9984.000
1550.863, 9955.000
1551.892, 9915.000
1552.920, 9852.000
1553.949, 10029.00
1554.977, 9994.000
1556.006, 9976.000
1557.034, 10013.00
1558.062, 9972.000
1559.089, 9916.000
1560.117, 9935.000
1561.144, 9885.192
1562.172, 9999.000
1563.199, 9888.000
1564.226, 9851.000
1565.252, 9970.000
1566.279, 9918.000
1567.305, 9915.000
1568.332, 9989.000
1569.358, 9939.000
1570.384, 9953.000
##END=



