##NAMES=Cerussite
##RRUFFID=R040069
##IDEAL CHEMISTRY=Pb^2+^CO_3_
##LOCALITY=Broken Hill, New South Wales, Australia
##OWNER=RRUFF
##SOURCE=University of Arizona Mineral Museum
##DESCRIPTION=Reticulated composite of colorless tabular crystals
##STATUS=The identification of this mineral has been confirmed by X-ray diffraction and chemical analysis
##URL=rruff.info/R040069
##MEASURED CHEMISTRY=Pb_1.04_C_0.98_O_3_
##PIN_ID=M00419
##ORIENTATION=Laser parallel to -b* (0 -1 0). Fiducial mark perpendicular to laser is parallel to c [0 0 1]
50.930, 671.000
52.334, 698.000
53.738, 752.000
55.142, 786.000
56.546, 804.000
57.949, 832.000
59.352, 846.000
60.755, 812.000
62.158, 771.000
63.560, 753.000
64.962, 750.000
66.364, 786.000
67.766, 878.000
69.168, 984.000
70.569, 1154.000
71.970, 1305.000
73.371, 1433.000
74.771, 1434.000
76.172, 1505.000
77.572, 1442.000
78.972, 1452.000
80.371, 1425.000
81.771, 1477.000
83.170, 1497.000
84.569, 1538.000
85.968, 1631.000
87.367, 1732.000
88.765, 1849.000
90.163, 1889.000
91.561, 1988.000
92.959, 2139.000
94.356, 2207.000
95.753, 2343.000
97.150, 2482.000
98.547, 2592.000
99.943, 2825.000
101.340, 2999.000
102.736, 3127.000
104.132, 3317.000
105.527, 3571.000
106.923, 3882.000
108.318, 4278.000
109.713, 4946.000
111.107, 5379.000
112.502, 6026.000
113.896, 6607.000
115.290, 7032.000
116.684, 7227.000
118.077, 7069.000
119.471, 6870.000
120.864, 6396.000
122.257, 6065.000
123.649, 5761.000
125.042, 5369.000
126.434, 5335.000
127.826, 5030.000
129.218, 5081.000
130.609, 4820.000
132.001, 4575.000
133.392, 4269.000
134.782, 3884.000
136.173, 3620.000
137.564, 3281.000
138.954, 3080.000
140.344, 2800.000
141.733, 2654.000
143.123, 2562.000
144.512, 2406.000
145.901, 2379.000
147.290, 2281.000
148.679, 2237.000
150.067, 2121.000
151.455, 2076.000
152.843, 1998.000
154.231, 1928.000
155.618, 1897.000
157.005, 1799.000
158.392, 1792.000
159.779, 1699.000
161.166, 1710.000
162.552, 1664.000
163.938, 1645.000
165.324, 1629.000
166.710, 1604.000
168.095, 1621.000
169.480, 1646.000
170.865, 1614.000
172.250, 1628.000
173.635, 1627.000
175.019, 1635.000
176.403, 1622.000
177.787, 1696.000
179.171, 1621.000
180.554, 1614.000
181.937, 1620.000
183.320, 1600.000
184.703, 1664.000
186.086, 1601.000
187.468, 1655.000
188.850, 1658.000
190.232, 1651.000
191.614, 1753.000
192.995, 1753.000
194.376, 1814.000
195.757, 1829.000
197.138, 1927.000
198.518, 1942.000
199.899, 2049.000
201.279, 2151.000
202.659, 2250.000
204.038, 2335.000
205.418, 2440.000
206.797, 2630.000
208.176, 2712.000
209.554, 2848.000
210.933, 2950.000
212.311, 3011.000
213.689, 3076.000
215.067, 3041.000
216.445, 3179.000
217.822, 3192.000
219.199, 3194.000
220.576, 3275.000
221.953, 3191.000
223.330, 3228.000
224.706, 3207.000
226.082, 3083.000
227.458, 2985.000
228.833, 2833.000
230.209, 2636.000
231.584, 2455.000
232.959, 2270.000
234.334, 2153.000
235.708, 1981.000
237.082, 1878.000
238.456, 1710.000
239.830, 1660.000
241.204, 1572.000
242.577, 1498.000
243.951, 1476.000
245.323, 1367.000
246.696, 1365.000
248.069, 1274.000
249.441, 1244.000
250.813, 1166.000
252.185, 1152.000
253.557, 1106.000
254.928, 1055.000
256.299, 1054.000
257.670, 1008.000
259.041, 988.000
260.411, 947.000
261.782, 942.000
263.152, 884.000
264.522, 880.000
265.891, 858.000
267.261, 840.000
268.630, 841.000
269.999, 859.000
271.368, 844.000
272.736, 846.000
274.104, 835.000
275.473, 842.000
276.840, 818.000
278.208, 827.000
279.576, 805.000
280.943, 819.000
282.310, 800.000
283.677, 808.000
285.043, 786.000
286.409, 798.000
287.776, 787.000
289.141, 756.000
290.507, 753.000
291.873, 772.000
293.238, 764.000
294.603, 734.000
295.968, 724.000
297.332, 737.000
298.697, 756.000
300.061, 715.000
301.425, 727.000
302.788, 719.000
304.152, 708.000
305.515, 722.000
306.878, 721.000
308.241, 704.000
309.603, 711.000
310.966, 687.000
312.328, 674.000
313.690, 711.000
315.052, 687.000
316.413, 686.000
317.774, 682.000
319.136, 689.000
320.496, 868.000
321.857, 700.000
323.217, 662.000
324.578, 684.000
325.938, 658.000
327.297, 663.000
328.657, 661.000
330.016, 636.000
331.375, 646.000
332.734, 663.000
334.093, 654.000
335.451, 638.000
336.810, 647.000
338.168, 643.000
339.525, 622.000
340.883, 646.000
342.240, 636.000
343.597, 670.000
344.954, 631.000
346.311, 628.000
347.668, 650.000
349.024, 612.000
350.380, 637.000
351.736, 634.000
353.091, 630.000
354.447, 630.000
355.802, 623.000
357.157, 633.000
358.512, 633.000
359.866, 623.000
361.221, 628.000
362.575, 630.000
363.928, 627.000
365.282, 635.000
366.636, 636.000
367.989, 618.000
369.342, 631.000
370.695, 623.000
372.047, 629.000
373.400, 606.000
374.752, 614.000
376.104, 622.000
377.455, 613.000
378.807, 619.000
380.158, 608.000
381.509, 617.000
382.860, 633.000
384.211, 615.000
385.561, 612.000
386.911, 639.000
388.261, 628.000
389.611, 609.000
390.961, 637.000
392.310, 605.000
393.659, 607.000
395.008, 623.000
396.357, 630.000
397.705, 607.000
399.053, 630.000
400.401, 627.000
401.749, 627.000
403.097, 623.000
404.444, 607.000
405.791, 622.000
407.138, 633.000
408.485, 612.000
409.832, 627.000
411.178, 623.000
412.524, 633.000
413.870, 627.000
415.216, 627.000
416.561, 630.000
417.906, 628.000
419.251, 628.000
420.596, 626.000
421.941, 626.000
423.285, 636.000
424.629, 622.000
425.973, 633.000
427.317, 615.000
428.661, 627.000
430.004, 619.000
431.347, 618.000
432.690, 615.000
434.032, 628.000
435.375, 630.000
436.717, 632.000
438.059, 630.000
439.401, 640.000
440.743, 621.000
442.084, 638.000
443.425, 639.000
444.766, 635.000
446.107, 642.000
447.447, 620.000
448.788, 620.000
450.128, 615.000
451.468, 636.000
452.807, 619.000
454.147, 627.000
455.486, 633.000
456.825, 613.000
458.164, 640.000
459.502, 636.000
460.841, 611.000
462.179, 624.000
463.517, 620.000
464.855, 631.000
466.192, 601.000
467.530, 622.000
468.867, 620.000
470.204, 625.000
471.540, 623.000
472.877, 619.000
474.213, 617.000
475.549, 646.000
476.885, 627.000
478.221, 629.000
479.556, 619.000
480.891, 634.000
482.226, 634.000
483.561, 640.000
484.895, 623.000
486.230, 617.000
487.564, 622.000
488.898, 638.000
490.232, 617.000
491.565, 654.000
492.898, 631.000
494.231, 653.000
495.564, 625.000
496.897, 660.000
498.229, 633.000
499.562, 613.000
500.894, 631.000
502.225, 612.000
503.557, 623.000
504.888, 621.000
506.220, 636.000
507.550, 629.000
508.881, 628.000
510.212, 609.000
511.542, 613.000
512.872, 623.000
514.202, 617.000
515.532, 634.000
516.861, 620.000
518.191, 607.000
519.520, 619.000
520.848, 606.000
522.177, 614.000
523.505, 615.000
524.834, 625.000
526.162, 620.000
527.489, 625.000
528.817, 631.000
530.144, 620.000
531.472, 607.000
532.798, 631.000
534.125, 610.000
535.452, 627.000
536.778, 619.000
538.104, 630.000
539.430, 623.000
540.756, 620.000
542.081, 622.000
543.406, 627.000
544.731, 613.000
546.056, 626.000
547.381, 617.000
548.705, 614.000
550.030, 611.000
551.354, 627.000
552.677, 608.000
554.001, 607.000
555.324, 614.000
556.647, 634.000
557.970, 626.000
559.293, 639.000
560.616, 629.000
561.938, 638.000
563.260, 628.000
564.582, 639.000
565.904, 623.000
567.225, 624.000
568.546, 642.000
569.868, 634.000
571.188, 628.000
572.509, 625.000
573.829, 630.000
575.150, 623.000
576.470, 641.000
577.790, 629.000
579.109, 650.000
580.429, 634.000
581.748, 615.000
583.067, 641.000
584.385, 625.000
585.704, 648.000
587.022, 635.000
588.340, 639.000
589.658, 655.000
590.976, 642.000
592.294, 633.000
593.611, 644.000
594.928, 645.000
596.245, 628.000
597.562, 636.000
598.878, 671.000
600.194, 653.000
601.510, 671.000
602.826, 631.000
604.142, 634.000
605.457, 655.000
606.773, 636.000
608.088, 637.000
609.402, 643.000
610.717, 655.000
612.031, 663.000
613.346, 668.000
614.660, 655.000
615.973, 670.000
617.287, 670.000
618.600, 663.000
619.913, 684.000
621.226, 671.000
622.539, 699.000
623.852, 695.000
625.164, 697.000
626.476, 682.000
627.788, 721.000
629.100, 666.000
630.411, 685.000
631.722, 690.000
633.033, 694.000
634.344, 710.000
635.655, 689.000
636.965, 679.000
638.276, 687.000
639.586, 681.000
640.896, 687.000
642.205, 662.000
643.515, 662.000
644.824, 673.000
646.133, 671.000
647.442, 667.000
648.750, 675.000
650.059, 671.000
651.367, 653.000
652.675, 671.000
653.983, 655.000
655.290, 631.000
656.598, 667.000
657.905, 663.000
659.212, 669.000
660.518, 695.000
661.825, 698.000
663.131, 729.000
664.437, 775.000
665.743, 862.000
667.049, 1014.000
668.354, 1152.000
669.660, 1190.000
670.965, 1178.000
672.270, 1297.000
673.574, 1371.000
674.879, 1138.000
676.183, 897.000
677.487, 774.000
678.791, 722.000
680.095, 749.000
681.398, 764.000
682.701, 742.000
684.005, 727.000
685.307, 686.000
686.610, 703.000
687.912, 702.000
689.215, 687.000
690.517, 690.000
691.818, 700.000
693.120, 727.000
694.421, 716.000
695.723, 710.000
697.024, 687.000
698.324, 695.000
699.625, 686.000
700.925, 686.000
702.226, 695.000
703.526, 705.000
704.825, 679.000
706.125, 682.000
707.424, 687.000
708.723, 692.000
710.022, 678.000
711.321, 684.000
712.620, 677.000
713.918, 714.000
715.216, 702.000
716.514, 710.000
717.812, 703.000
719.109, 733.000
720.407, 727.000
721.704, 764.000
723.001, 756.000
724.297, 762.000
725.594, 762.000
726.890, 747.000
728.186, 765.000
729.482, 740.000
730.778, 751.000
732.073, 748.000
733.369, 742.000
734.664, 750.000
735.959, 739.000
737.253, 735.000
738.548, 745.000
739.842, 735.000
741.136, 731.000
742.430, 733.000
743.724, 740.000
745.017, 730.000
746.310, 727.000
747.603, 757.000
748.896, 725.000
750.189, 723.000
751.481, 731.000
752.774, 732.000
754.066, 732.000
755.357, 722.000
756.649, 725.000
757.941, 735.000
759.232, 721.000
760.523, 734.000
761.814, 727.000
763.104, 731.000
764.395, 725.000
765.685, 731.000
766.975, 741.000
768.265, 754.000
769.554, 717.000
770.844, 741.000
772.133, 750.000
773.422, 735.000
774.711, 745.000
775.999, 727.000
777.288, 743.000
778.576, 748.000
779.864, 740.000
781.152, 765.000
782.439, 753.000
783.727, 760.000
785.014, 734.000
786.301, 730.000
787.588, 753.000
788.874, 743.000
790.161, 756.000
791.447, 758.000
792.733, 738.000
794.019, 760.000
795.304, 742.000
796.590, 755.000
797.875, 768.000
799.160, 735.000
800.445, 726.000
801.729, 747.000
803.014, 762.000
804.298, 761.000
805.582, 750.000
806.865, 751.000
808.149, 758.000
809.432, 765.000
810.716, 727.000
811.999, 756.000
813.281, 752.000
814.564, 733.000
815.846, 761.000
817.128, 764.000
818.410, 743.000
819.692, 766.000
820.974, 788.000
822.255, 786.000
823.536, 796.000
824.817, 779.000
826.098, 780.000
827.379, 772.000
828.659, 796.000
829.939, 796.000
831.219, 822.000
832.499, 882.000
833.779, 1015.000
835.058, 1244.000
836.337, 1532.000
837.616, 1606.000
838.895, 1437.000
840.173, 1171.000
841.452, 1017.000
842.730, 885.000
844.008, 868.000
845.286, 838.000
846.563, 827.000
847.841, 807.000
849.118, 809.000
850.395, 794.000
851.672, 785.000
852.948, 806.000
854.225, 773.000
855.501, 784.000
856.777, 796.000
858.053, 801.000
859.328, 789.000
860.604, 804.000
861.879, 798.000
863.154, 779.000
864.429, 761.000
865.703, 798.000
866.978, 784.000
868.252, 792.000
869.526, 784.000
870.800, 772.000
872.073, 790.000
873.347, 775.000
874.620, 784.000
875.893, 773.000
877.166, 766.000
878.438, 783.000
879.711, 786.000
880.983, 763.000
882.255, 820.000
883.527, 793.000
884.798, 772.000
886.070, 769.000
887.341, 786.000
888.612, 777.000
889.883, 789.000
891.154, 787.000
892.424, 774.000
893.694, 775.000
894.964, 800.000
896.234, 799.000
897.504, 807.000
898.773, 786.000
900.042, 794.000
901.312, 792.000
902.580, 799.000
903.849, 782.000
905.118, 808.000
906.386, 798.000
907.654, 800.000
908.922, 820.000
910.189, 804.000
911.457, 801.000
912.724, 862.000
913.991, 1142.000
915.258, 805.000
916.525, 803.000
917.791, 806.000
919.058, 827.000
920.324, 799.000
921.590, 827.000
922.855, 803.000
924.121, 847.000
925.386, 807.000
926.651, 830.000
927.916, 850.000
929.181, 826.000
930.446, 838.000
931.710, 833.000
932.974, 846.000
934.238, 823.000
935.502, 841.000
936.765, 817.000
938.029, 832.000
939.292, 850.000
940.555, 838.000
941.818, 804.000
943.080, 852.000
944.343, 837.000
945.605, 816.000
946.867, 846.000
948.129, 838.000
949.390, 826.000
950.652, 815.000
951.913, 832.000
953.174, 839.000
954.435, 830.000
955.695, 803.000
956.956, 840.000
958.216, 839.000
959.476, 838.000
960.736, 853.000
961.995, 847.000
963.255, 863.000
964.514, 843.000
965.773, 843.000
967.032, 861.000
968.291, 839.000
969.549, 852.000
970.807, 856.000
972.066, 850.000
973.323, 858.000
974.581, 852.000
975.839, 847.000
977.096, 859.000
978.353, 828.000
979.610, 823.000
980.867, 872.000
982.123, 851.000
983.380, 882.000
984.636, 862.000
985.892, 841.000
987.147, 867.000
988.403, 841.000
989.658, 884.000
990.914, 876.000
992.169, 887.000
993.423, 894.000
994.678, 904.000
995.932, 897.000
997.187, 907.000
998.441, 888.000
999.694, 918.000
1000.948, 891.000
1002.201, 903.000
1003.455, 904.000
1004.708, 916.000
1005.961, 897.000
1007.213, 904.000
1008.466, 882.000
1009.718, 908.000
1010.970, 912.000
1012.222, 904.000
1013.474, 905.000
1014.725, 925.000
1015.976, 924.000
1017.227, 924.000
1018.478, 935.000
1019.729, 938.000
1020.980, 925.000
1022.230, 938.000
1023.480, 952.000
1024.730, 946.000
1025.980, 977.000
1027.229, 1008.000
1028.479, 1043.000
1029.728, 1191.000
1030.977, 1261.000
1032.226, 1133.000
1033.474, 1051.000
1034.723, 1028.000
1035.971, 1051.000
1037.219, 1086.000
1038.467, 1113.000
1039.714, 1173.000
1040.962, 1223.000
1042.209, 1270.000
1043.456, 1363.000
1044.703, 1518.000
1045.950, 1774.000
1047.196, 2088.000
1048.443, 2752.000
1049.689, 4251.000
1050.935, 9562.000
1052.180, 31800.000
1053.426, 56280.000
1054.671, 52100.000
1055.916, 24600.000
1057.161, 9996.000
1058.406, 4526.000
1059.651, 2658.000
1060.895, 1961.000
1062.139, 1622.000
1063.383, 1434.000
1064.627, 1339.000
1065.871, 1229.000
1067.114, 1174.000
1068.357, 1137.000
1069.600, 1099.000
1070.843, 1117.000
1072.086, 1072.000
1073.328, 1076.000
1074.570, 1065.000
1075.813, 1024.000
1077.054, 1044.000
1078.296, 1024.000
1079.538, 1011.000
1080.779, 1040.000
1082.020, 1010.000
1083.261, 1016.000
1084.502, 996.000
1085.742, 1002.000
1086.983, 975.000
1088.223, 994.000
1089.463, 1006.000
1090.703, 1008.000
1091.942, 999.000
1093.182, 997.000
1094.421, 997.000
1095.660, 984.000
1096.899, 992.000
1098.137, 1001.000
1099.376, 989.000
1100.614, 1018.000
1101.852, 1016.000
1103.090, 990.000
1104.328, 1017.000
1105.565, 1009.000
1106.803, 1003.000
1108.040, 1016.000
1109.277, 969.000
1110.513, 1001.000
1111.750, 1006.000
1112.986, 980.000
1114.223, 992.000
1115.459, 982.000
1116.694, 981.000
1117.930, 953.000
1119.165, 973.000
1120.401, 989.000
1121.636, 964.000
1122.871, 950.000
1124.105, 982.000
1125.340, 960.000
1126.574, 952.000
1127.808, 960.000
1129.042, 960.000
1130.276, 978.000
1131.509, 981.000
1132.743, 952.000
1133.976, 972.000
1135.209, 953.000
1136.442, 982.000
1137.674, 988.000
1138.906, 960.000
1140.139, 966.000
1141.371, 976.000
1142.603, 972.000
1143.834, 983.000
1145.066, 925.000
1146.297, 960.000
1147.528, 977.000
1148.759, 946.000
1149.990, 956.000
1151.220, 995.000
1152.450, 960.000
1153.681, 980.000
1154.910, 976.000
1156.140, 985.000
1157.370, 948.000
1158.599, 984.000
1159.828, 969.000
1161.057, 960.000
1162.286, 953.000
1163.515, 961.000
1164.743, 973.000
1165.972, 960.000
1167.200, 982.000
1168.427, 981.000
1169.655, 990.000
1170.883, 977.000
1172.110, 972.000
1173.337, 998.000
1174.564, 975.000
1175.791, 964.000
1177.017, 945.000
1178.244, 964.000
1179.470, 1004.000
1180.696, 953.000
1181.922, 978.000
1183.147, 1006.000
1184.373, 967.000
1185.598, 969.000
1186.823, 1001.000
1188.048, 960.000
1189.273, 1021.000
1190.497, 977.000
1191.722, 966.000
1192.946, 988.000
1194.170, 976.000
1195.393, 1016.000
1196.617, 990.000
1197.840, 987.000
1199.064, 1008.000
1200.287, 1002.000
1201.509, 1000.000
1202.732, 1040.000
1203.954, 1009.000
1205.177, 1006.000
1206.399, 993.000
1207.621, 985.000
1208.842, 1021.000
1210.064, 1020.000
1211.285, 1026.000
1212.506, 1015.000
1213.727, 1011.000
1214.948, 1035.000
1216.169, 1008.000
1217.389, 1021.000
1218.609, 1040.000
1219.829, 1041.000
1221.049, 1021.000
1222.269, 1032.000
1223.488, 1010.000
1224.708, 1046.000
1225.927, 1062.000
1227.146, 1041.000
1228.364, 1030.000
1229.583, 1034.000
1230.801, 1043.000
1232.019, 1059.000
1233.237, 1024.000
1234.455, 1074.000
1235.673, 1057.000
1236.890, 1064.000
1238.107, 1084.000
1239.324, 1042.000
1240.541, 1059.000
1241.758, 1086.000
1242.975, 1061.000
1244.191, 1081.000
1245.407, 1076.000
1246.623, 1060.000
1247.839, 1092.000
1249.054, 1058.000
1250.270, 1105.000
1251.485, 1110.000
1252.700, 1107.000
1253.915, 1123.000
1255.129, 1101.000
1256.344, 1104.000
1257.558, 1114.000
1258.772, 1135.000
1259.986, 1134.000
1261.200, 1112.000
1262.413, 1120.000
1263.627, 1150.000
1264.840, 1164.000
1266.053, 1160.000
1267.266, 1173.000
1268.478, 1153.000
1269.691, 1176.000
1270.903, 1178.000
1272.115, 1201.000
1273.327, 1148.000
1274.539, 1196.000
1275.750, 1177.000
1276.961, 1210.000
1278.173, 1216.000
1279.384, 1189.000
1280.594, 1231.000
1281.805, 1269.000
1283.015, 1216.000
1284.226, 1252.000
1285.436, 1270.000
1286.646, 1292.000
1287.855, 1288.000
1289.065, 1282.000
1290.274, 1318.000
1291.483, 1306.000
1292.692, 1280.000
1293.901, 1331.000
1295.109, 1326.000
1296.318, 1356.000
1297.526, 1391.000
1298.734, 1391.000
1299.942, 1392.000
1301.150, 1400.000
1302.357, 1434.000
1303.564, 1458.000
1304.771, 1473.000
1305.978, 1491.000
1307.185, 1520.000
1308.392, 1514.000
1309.598, 1555.000
1310.804, 1601.000
1312.010, 1574.000
1313.216, 1642.000
1314.422, 1622.000
1315.627, 1675.000
1316.832, 1703.000
1318.037, 1699.000
1319.242, 1725.000
1320.447, 1742.000
1321.652, 1728.000
1322.856, 1740.000
1324.060, 1746.000
1325.264, 1740.000
1326.468, 1789.000
1327.672, 1836.000
1328.875, 1809.000
1330.078, 1825.000
1331.281, 1812.000
1332.484, 1839.000
1333.687, 1915.000
1334.890, 1877.000
1336.092, 1928.000
1337.294, 1975.000
1338.496, 1995.000
1339.698, 2042.000
1340.900, 2054.000
1342.101, 2099.000
1343.302, 2174.000
1344.503, 2178.000
1345.704, 2327.000
1346.905, 2401.000
1348.106, 2465.000
1349.306, 2653.000
1350.506, 2832.000
1351.706, 2953.000
1352.906, 3237.000
1354.106, 3379.000
1355.305, 3733.000
1356.504, 4102.000
1357.703, 4269.000
1358.902, 4783.000
1360.101, 5089.000
1361.300, 5377.000
1362.498, 5861.000
1363.696, 5935.000
1364.894, 5690.000
1366.092, 5732.000
1367.290, 5238.000
1368.487, 4866.000
1369.684, 4587.000
1370.881, 4034.000
1372.078, 3772.000
1373.275, 3398.000
1374.472, 3111.000
1375.668, 2889.000
1376.864, 2668.000
1378.060, 2510.000
1379.256, 2370.000
1380.452, 2220.000
1381.647, 2136.000
1382.842, 2066.000
1384.038, 1950.000
1385.233, 1928.000
1386.427, 1843.000
1387.622, 1761.000
1388.816, 1751.000
1390.010, 1614.000
1391.204, 1585.000
1392.398, 1564.000
1393.592, 1486.000
1394.785, 1529.000
1395.979, 1456.000
1397.172, 1444.000
1398.365, 1440.000
1399.558, 1436.000
1400.750, 1418.000
1401.943, 1422.000
1403.135, 1396.000
1404.327, 1394.000
1405.519, 1406.000
1406.710, 1360.000
1407.902, 1402.000
1409.093, 1402.000
1410.284, 1388.000
1411.475, 1426.000
1412.666, 1392.000
1413.857, 1402.000
1415.047, 1478.000
1416.238, 1412.000
1417.428, 1426.000
1418.617, 1429.000
1419.807, 1428.000
1420.997, 1452.000
1422.186, 1433.000
1423.375, 1384.000
1424.564, 1440.000
1425.753, 1392.000
1426.942, 1416.000
1428.130, 1447.000
1429.318, 1401.000
1430.507, 1392.000
1431.694, 1414.000
1432.882, 1372.000
1434.070, 1399.000
1435.257, 1369.000
1436.444, 1359.000
1437.631, 1375.000
1438.818, 1370.000
1440.005, 1366.000
1441.191, 1359.000
1442.378, 1349.000
1443.564, 1372.000
1444.750, 1368.000
1445.936, 1338.000
1447.121, 1360.000
1448.307, 1374.000
1449.492, 1340.000
1450.677, 1412.000
1451.862, 1390.000
1453.047, 1397.000
1454.231, 1439.000
1455.415, 1408.000
1456.600, 1421.000
1457.784, 1410.000
1458.967, 1419.000
1460.151, 1458.000
1461.335, 1459.000
1462.518, 1439.000
1463.701, 1509.000
1464.884, 1492.000
1466.067, 1487.000
1467.249, 1538.000
1468.432, 1519.000
1469.614, 1520.000
1470.796, 1536.000
1471.978, 1520.000
1473.159, 1578.000
1474.341, 1586.000
1475.522, 1559.000
1476.703, 1600.000
1477.884, 1575.000
1479.065, 1552.000
1480.246, 1620.000
1481.426, 1579.000
1482.607, 1563.000
1483.787, 1610.000
1484.967, 1525.000
1486.146, 1503.000
1487.326, 1528.000
1488.505, 1480.000
1489.685, 1478.000
1490.864, 1462.000
1492.042, 1418.000
1493.221, 1436.000
1494.400, 1436.000
1495.578, 1374.000
1496.756, 1408.000
1497.934, 1353.000
1499.112, 1361.000
1500.289, 1355.000
1501.467, 1300.000
1502.644, 1323.000
1503.821, 1338.000
1504.998, 1284.000
1506.175, 1309.000
1507.351, 1333.000
1508.528, 1288.000
1509.704, 1301.000
1510.880, 1303.000
1512.056, 1312.000
1513.232, 1309.000
1514.407, 1259.000
1515.582, 1280.000
1516.758, 1288.000
1517.933, 1256.000
1519.107, 1284.000
1520.282, 1270.000
1521.456, 1241.000
1522.631, 1309.000
1523.805, 1312.000
1524.979, 1261.000
1526.152, 1296.000
##END=



