##NAMES=Cerussite
##RRUFFID=R050174
##IDEAL CHEMISTRY=Pb^2+^CO_3_
##LOCALITY=Tsumeb mine, Tsumeb, Otavi District, Oshikoto, Namibia
##OWNER=RRUFF
##SOURCE=Marcus Origlieri
##DESCRIPTION=Colorless single crystal
##STATUS=The identification of this mineral has been confirmed by X-ray diffraction and chemical analysis
##URL=rruff.info/R050174
##MEASURED CHEMISTRY=Pb_1.00_CO_3_ ; C not measured but estimated by difference and stoichiometry
##PIN_ID=L01652
##ORIENTATION=Laser parallel to -b* (0 -1 0). Fiducial mark perpendicular to laser is parallel to c [0 0 1]
51.43100, 420.0000
52.67100, 407.0000
53.91000, 405.0000
55.14900, 409.0000
56.38700, 406.0000
57.62600, 397.0000
58.86400, 417.0000
60.10300, 420.0000
61.34100, 442.0000
62.57900, 451.0000
63.81700, 474.3330
65.05400, 509.0000
66.29200, 528.0000
67.52900, 558.0000
68.76700, 593.0000
70.00400, 616.0000
71.24100, 642.0000
72.47700, 635.0000
73.71400, 694.0000
74.95100, 743.0000
76.18700, 791.0000
77.42300, 860.0000
78.65900, 909.0000
79.89500, 1016.000
81.13100, 1071.000
82.36700, 1202.000
83.60200, 1317.000
84.83700, 1422.000
86.07200, 1624.000
87.30800, 1798.000
88.54200, 2074.000
89.77700, 2340.000
91.01200, 2595.000
92.24600, 2902.000
93.48000, 3154.000
94.71400, 3364.000
95.94800, 3648.000
97.18200, 3814.000
98.41600, 3989.000
99.64900, 4294.000
100.8830, 4586.000
102.1160, 5101.000
103.3490, 5637.000
104.5820, 5976.000
105.8150, 6067.584
107.0470, 6184.000
108.2800, 5828.000
109.5120, 5299.000
110.7440, 4755.000
111.9760, 4233.000
113.2080, 3958.000
114.4400, 3847.000
115.6710, 3823.000
116.9030, 3766.000
118.1340, 3916.000
119.3650, 4138.000
120.5960, 4278.000
121.8270, 4622.000
123.0580, 4967.000
124.2880, 5292.000
125.5190, 5827.000
126.7490, 6256.000
127.9790, 6814.000
129.2090, 7513.000
130.4390, 8153.000
131.6680, 8669.000
132.8980, 9351.000
134.1270, 9749.000
135.3560, 9875.000
136.5850, 9840.000
137.8140, 9313.000
139.0430, 8703.000
140.2710, 8033.000
141.5000, 7343.000
142.7280, 6784.000
143.9560, 6408.000
145.1840, 5947.000
146.4120, 5555.000
147.6390, 5268.000
148.8670, 4982.000
150.0940, 4815.000
151.3210, 4618.000
152.5490, 4426.000
153.7750, 4234.000
155.0020, 4035.000
156.2290, 3810.000
157.4550, 3611.000
158.6810, 3370.000
159.9080, 3211.000
161.1340, 3034.000
162.3590, 2883.000
163.5850, 2763.000
164.8110, 2667.000
166.0360, 2510.000
167.2610, 2477.000
168.4860, 2388.000
169.7110, 2363.000
170.9360, 2317.000
172.1610, 2274.000
173.3850, 2252.000
174.6100, 2218.665
175.8340, 2171.000
177.0580, 2187.000
178.2820, 2148.000
179.5050, 2163.000
180.7290, 2100.000
181.9520, 2085.000
183.1760, 2018.000
184.3990, 2013.000
185.6220, 1988.000
186.8450, 1910.000
188.0670, 1885.000
189.2900, 1867.000
190.5120, 1817.000
191.7340, 1810.000
192.9560, 1740.000
194.1780, 1674.000
195.4000, 1712.000
196.6220, 1696.000
197.8430, 1678.000
199.0640, 1662.000
200.2860, 1673.000
201.5070, 1644.000
202.7270, 1608.000
203.9480, 1633.000
205.1690, 1633.000
206.3890, 1605.000
207.6090, 1547.000
208.8290, 1475.000
210.0490, 1544.000
211.2690, 1519.000
212.4890, 1518.000
213.7080, 1451.000
214.9280, 1510.000
216.1470, 1449.000
217.3660, 1472.000
218.5850, 1412.000
219.8030, 1392.000
221.0220, 1404.000
222.2400, 1400.000
223.4590, 1398.000
224.6770, 1373.000
225.8950, 1379.000
227.1120, 1377.000
228.3300, 1328.000
229.5480, 1317.000
230.7650, 1323.000
231.9820, 1311.000
233.1990, 1313.000
234.4160, 1277.000
235.6330, 1335.000
236.8490, 1291.000
238.0660, 1311.000
239.2820, 1285.000
240.4980, 1226.000
241.7140, 1272.000
242.9300, 1301.000
244.1460, 1254.000
245.3610, 1237.000
246.5770, 1273.000
247.7920, 1197.000
249.0070, 1232.000
250.2220, 1201.000
251.4370, 1195.000
252.6510, 1178.000
253.8660, 1162.639
255.0800, 1157.923
256.2940, 1150.000
257.5080, 1147.000
258.7220, 1167.000
259.9360, 1167.000
261.1490, 1135.000
262.3630, 1106.000
263.5760, 1113.000
264.7890, 1094.000
266.0020, 1051.000
267.2150, 1081.000
268.4270, 1084.000
269.6400, 1054.000
270.8520, 1104.000
272.0640, 1050.000
273.2760, 1051.000
274.4880, 1061.000
275.7000, 1058.000
276.9120, 1017.000
278.1230, 1042.000
279.3340, 1008.000
280.5450, 1019.000
281.7560, 1015.000
282.9670, 990.0000
284.1780, 975.0000
285.3880, 975.5031
286.5980, 1000.000
287.8090, 974.0000
289.0190, 996.0000
290.2290, 992.0000
291.4380, 964.0000
292.6480, 969.0000
293.8570, 952.7134
295.0670, 987.0000
296.2760, 944.0000
297.4850, 953.0000
298.6930, 977.0000
299.9020, 970.0000
301.1110, 964.0000
302.3190, 958.0000
303.5270, 954.0000
304.7350, 948.1476
305.9430, 928.0000
307.1510, 932.0000
308.3580, 925.0000
309.5660, 904.0000
310.7730, 951.0000
311.9800, 920.0000
313.1870, 925.0000
314.3940, 954.0000
315.6010, 878.0000
316.8070, 907.0000
318.0130, 895.0000
319.2200, 917.0000
320.4260, 949.0000
321.6310, 928.0000
322.8370, 932.0000
324.0430, 889.0000
325.2480, 897.0000
326.4540, 900.0000
327.6590, 905.0000
328.8640, 919.0000
330.0680, 909.0000
331.2730, 899.0000
332.4780, 872.0000
333.6820, 882.0000
334.8860, 871.3145
336.0900, 896.0000
337.2940, 872.0000
338.4980, 879.0000
339.7010, 884.0000
340.9050, 913.0000
342.1080, 871.0000
343.3110, 906.0000
344.5140, 896.0000
345.7170, 914.0000
346.9200, 893.0000
348.1220, 912.0000
349.3240, 896.0000
350.5270, 927.0000
351.7290, 898.0000
352.9310, 879.0000
354.1320, 862.0000
355.3340, 922.0000
356.5350, 870.0000
357.7370, 914.0000
358.9380, 901.0000
360.1390, 879.0000
361.3400, 874.0000
362.5400, 884.0000
363.7410, 901.0000
364.9410, 891.0000
366.1410, 891.0000
367.3410, 861.0000
368.5410, 892.0000
369.7410, 885.0000
370.9400, 860.0000
372.1400, 877.0000
373.3390, 863.0000
374.5380, 882.0000
375.7370, 894.0000
376.9360, 896.0000
378.1350, 896.0000
379.3330, 862.0000
380.5310, 866.0000
381.7300, 871.0000
382.9280, 862.0000
384.1260, 903.0000
385.3230, 890.0000
386.5210, 890.0000
387.7180, 895.0000
388.9160, 853.0000
390.1130, 897.0000
391.3100, 869.0000
392.5060, 875.0000
393.7030, 920.0000
394.9000, 896.0000
396.0960, 896.0000
397.2920, 875.0000
398.4880, 889.0000
399.6840, 893.0000
400.8800, 849.0000
402.0750, 883.0000
403.2710, 886.0000
404.4660, 867.0000
405.6610, 887.0000
406.8560, 880.8140
408.0510, 878.0000
409.2450, 881.0000
410.4400, 876.0000
411.6340, 865.0000
412.8280, 874.0000
414.0220, 888.0000
415.2160, 878.0000
416.4100, 899.0000
417.6030, 875.0000
418.7970, 859.0000
419.9900, 863.0000
421.1830, 866.0000
422.3760, 869.0000
423.5690, 871.0000
424.7610, 877.0000
425.9540, 878.8117
427.1460, 881.0000
428.3380, 886.0000
429.5300, 884.0000
430.7220, 890.0000
431.9140, 864.0000
433.1050, 895.0000
434.2970, 852.0000
435.4880, 920.0000
436.6790, 905.0000
437.8700, 856.0000
439.0610, 901.0000
440.2510, 885.0000
441.4420, 877.0000
442.6320, 897.0000
443.8220, 902.0000
445.0120, 871.0000
446.2020, 878.0000
447.3910, 891.0000
448.5810, 896.0000
449.7700, 898.0000
450.9600, 905.0000
452.1490, 857.0000
453.3370, 873.0000
454.5260, 875.0000
455.7150, 910.0000
456.9030, 868.0000
458.0910, 902.0000
459.2800, 890.0000
460.4670, 885.0000
461.6550, 939.0000
462.8430, 915.0000
464.0300, 908.0000
465.2180, 915.0000
466.4050, 890.0000
467.5920, 914.0000
468.7790, 914.0000
469.9650, 923.0000
471.1520, 922.0000
472.3380, 920.0000
473.5250, 906.0000
474.7110, 935.0000
475.8970, 939.0000
477.0820, 907.0000
478.2680, 934.0000
479.4540, 926.0000
480.6390, 931.0000
481.8240, 932.0000
483.0090, 939.0000
484.1940, 910.0000
485.3780, 922.0000
486.5630, 951.0000
487.7470, 921.0000
488.9320, 932.0000
490.1160, 913.0000
491.3000, 949.0000
492.4830, 917.0000
493.6670, 935.0000
494.8500, 950.0000
496.0340, 920.0000
497.2170, 932.0000
498.4000, 950.0000
499.5820, 900.0000
500.7650, 911.0000
501.9480, 905.0000
503.1300, 881.0000
504.3120, 913.0000
505.4940, 928.0000
506.6760, 899.0000
507.8580, 901.0000
509.0390, 923.0000
510.2210, 918.0000
511.4020, 914.0000
512.5830, 907.0000
513.7640, 899.0000
514.9450, 919.0000
516.1250, 909.0000
517.3060, 926.0000
518.4860, 905.0000
519.6660, 904.0000
520.8460, 892.0000
522.0260, 902.0000
523.2060, 944.0000
524.3850, 899.0000
525.5650, 912.0000
526.7440, 887.0000
527.9230, 876.0000
529.1020, 866.0000
530.2810, 926.0000
531.4590, 902.0000
532.6380, 902.0000
533.8160, 934.0000
534.9940, 862.0000
536.1720, 905.0000
537.3500, 890.0000
538.5270, 873.0000
539.7050, 881.0000
540.8820, 877.0000
542.0590, 870.0000
543.2360, 859.0000
544.4130, 885.0000
545.5900, 896.0000
546.7660, 877.0000
547.9430, 871.0000
549.1190, 913.0000
550.2950, 862.0000
551.4710, 891.0000
552.6470, 888.0000
553.8220, 869.0000
554.9980, 895.0000
556.1730, 862.0000
557.3480, 886.0000
558.5230, 867.0000
559.6980, 891.0000
560.8730, 887.0000
562.0470, 879.0000
563.2220, 913.0000
564.3960, 884.0000
565.5700, 914.0000
566.7440, 876.0000
567.9170, 885.0000
569.0910, 928.0000
570.2640, 895.0000
571.4380, 937.0000
572.6110, 896.0000
573.7840, 874.0000
574.9570, 888.0000
576.1290, 892.0000
577.3020, 899.0000
578.4740, 897.0000
579.6460, 904.2514
580.8180, 910.0000
581.9900, 915.0000
583.1620, 906.0000
584.3330, 912.0000
585.5040, 912.0000
586.6760, 930.0000
587.8470, 911.0000
589.0180, 907.0000
590.1880, 897.0000
591.3590, 909.0000
592.5290, 894.0000
593.7000, 914.0000
594.8700, 875.0000
596.0400, 873.0000
597.2090, 898.0000
598.3790, 885.0000
599.5490, 912.0000
600.7180, 928.0000
601.8870, 932.0000
603.0560, 935.5673
604.2250, 901.0000
605.3940, 916.0000
606.5620, 904.0000
607.7300, 878.0000
608.8990, 913.0000
610.0670, 939.0000
611.2350, 933.0000
612.4020, 904.0000
613.5700, 923.0000
614.7370, 898.0000
615.9050, 917.0000
617.0720, 926.0000
618.2390, 925.0000
619.4060, 947.0000
620.5720, 928.0000
621.7390, 914.0000
622.9050, 955.0000
624.0710, 913.0000
625.2370, 916.0000
626.4030, 910.0000
627.5690, 929.0000
628.7340, 927.0000
629.9000, 923.0000
631.0650, 933.0000
632.2300, 933.6035
633.3950, 933.0000
634.5600, 940.0000
635.7240, 940.0000
636.8890, 932.0000
638.0530, 930.0000
639.2170, 926.0000
640.3810, 909.0000
641.5450, 954.0000
642.7080, 909.0000
643.8720, 944.0000
645.0350, 940.0000
646.1980, 932.0000
647.3610, 907.0000
648.5240, 945.0000
649.6870, 902.0000
650.8490, 934.0000
652.0120, 938.0000
653.1740, 939.0000
654.3360, 917.0000
655.4980, 917.0000
656.6600, 910.0000
657.8210, 926.0000
658.9830, 941.0000
660.1440, 908.0000
661.3050, 922.0000
662.4660, 953.0000
663.6270, 927.0000
664.7870, 917.0000
665.9480, 945.0000
667.1080, 953.0000
668.2680, 980.0000
669.4280, 955.0000
670.5880, 974.0000
671.7480, 1009.000
672.9070, 993.0000
674.0670, 1077.000
675.2260, 1154.000
676.3850, 1180.000
677.5440, 1093.000
678.7030, 1060.000
679.8610, 1063.000
681.0200, 1152.000
682.1780, 1317.000
683.3360, 1568.000
684.4940, 1615.000
685.6520, 1448.000
686.8090, 1246.000
687.9670, 1057.000
689.1240, 1009.000
690.2810, 973.0000
691.4380, 923.0000
692.5950, 930.0000
693.7520, 935.0000
694.9080, 973.0000
696.0650, 962.0000
697.2210, 970.0000
698.3770, 950.0000
699.5330, 977.0000
700.6880, 939.0000
701.8440, 942.0000
702.9990, 904.0000
704.1550, 929.0000
705.3100, 903.0000
706.4650, 936.0000
707.6190, 914.0000
708.7740, 950.0000
709.9290, 919.0000
711.0830, 930.0000
712.2370, 953.0000
713.3910, 946.0000
714.5450, 941.0000
715.6980, 931.0000
716.8520, 946.0000
718.0050, 941.0000
719.1580, 966.0000
720.3110, 985.0000
721.4640, 946.0000
722.6170, 963.0000
723.7700, 966.0000
724.9220, 962.0000
726.0740, 962.0000
727.2260, 947.0000
728.3780, 992.0000
729.5300, 993.0000
730.6810, 1000.000
731.8330, 967.0000
732.9840, 923.0000
734.1350, 957.0000
735.2860, 987.0000
736.4370, 954.0000
737.5880, 977.0000
738.7380, 954.0000
739.8880, 974.0000
741.0390, 963.0000
742.1890, 948.0000
743.3380, 974.0000
744.4880, 940.0000
745.6380, 954.0000
746.7870, 924.0000
747.9360, 952.0000
749.0850, 977.0000
750.2340, 970.0000
751.3830, 964.0000
752.5310, 988.0000
753.6800, 937.0000
754.8280, 967.0000
755.9760, 971.0000
757.1240, 954.0000
758.2720, 952.0000
759.4190, 966.0000
760.5670, 985.0000
761.7140, 976.0000
762.8610, 976.0000
764.0080, 984.0000
765.1550, 979.0000
766.3020, 972.6309
767.4480, 990.0000
768.5950, 957.0000
769.7410, 959.0000
770.8870, 963.0000
772.0330, 966.0000
773.1780, 972.0000
774.3240, 987.0000
775.4690, 982.9071
776.6140, 985.0000
777.7590, 978.0000
778.9040, 983.0000
780.0490, 975.0000
781.1940, 978.0000
782.3380, 1005.000
783.4820, 962.0000
784.6260, 966.0000
785.7700, 983.0000
786.9140, 1001.000
788.0580, 964.0000
789.2010, 986.0000
790.3450, 993.0000
791.4880, 1002.000
792.6310, 1005.000
793.7730, 1014.000
794.9160, 1024.000
796.0590, 974.0000
797.2010, 1013.000
798.3430, 980.0000
799.4850, 959.0000
800.6270, 974.0000
801.7690, 999.0000
802.9100, 1012.000
804.0520, 1008.000
805.1930, 1010.842
806.3340, 1000.000
807.4750, 991.0000
808.6160, 1006.000
809.7560, 993.0000
810.8970, 1020.000
812.0370, 999.0000
813.1770, 1024.000
814.3170, 1022.000
815.4570, 1019.000
816.5960, 1026.000
817.7360, 1042.000
818.8750, 1055.655
820.0140, 1065.000
821.1530, 1099.000
822.2920, 1110.000
823.4310, 1133.000
824.5690, 1173.398
825.7070, 1207.650
826.8460, 1247.000
827.9840, 1332.000
829.1220, 1355.000
830.2590, 1484.000
831.3970, 1718.000
832.5340, 1874.000
833.6710, 1977.000
834.8080, 2159.000
835.9450, 2545.000
837.0820, 3363.000
838.2190, 4710.000
839.3550, 5694.000
840.4910, 5355.000
841.6270, 4203.000
842.7630, 2924.000
843.8990, 2066.000
845.0350, 1630.000
846.1700, 1409.000
847.3060, 1245.000
848.4410, 1184.000
849.5760, 1120.000
850.7100, 1096.000
851.8450, 1060.000
852.9800, 1036.000
854.1140, 1034.000
855.2480, 1012.000
856.3820, 1004.000
857.5160, 1008.000
858.6500, 1009.000
859.7830, 1008.028
860.9170, 1024.000
862.0500, 1004.000
863.1830, 1019.000
864.3160, 1004.000
865.4480, 995.0000
866.5810, 1012.000
867.7130, 1008.000
868.8460, 1024.000
869.9780, 1018.000
871.1100, 1013.000
872.2410, 978.0000
873.3730, 957.0000
874.5050, 1020.000
875.6360, 1038.000
876.7670, 1010.000
877.8980, 987.0000
879.0290, 993.0000
880.1590, 1011.000
881.2900, 980.0000
882.4200, 980.0000
883.5500, 1006.000
884.6800, 970.0000
885.8100, 1010.000
886.9400, 988.0000
888.0690, 1035.000
889.1990, 981.0000
890.3280, 980.0000
891.4570, 988.0000
892.5860, 1013.000
893.7140, 999.0000
894.8430, 1021.000
895.9710, 999.0000
897.1000, 995.0000
898.2280, 976.0000
899.3560, 1008.000
900.4830, 1030.000
901.6110, 1023.000
902.7380, 977.0000
903.8660, 1019.000
904.9930, 996.0000
906.1200, 1031.000
907.2460, 976.0000
908.3730, 1015.000
909.5000, 998.0000
910.6260, 1007.000
911.7520, 1024.000
912.8780, 970.0000
914.0040, 1045.000
915.1290, 997.0000
916.2550, 999.0000
917.3800, 1021.000
918.5050, 1056.000
919.6300, 1048.000
920.7550, 1044.000
921.8800, 1021.000
923.0040, 1006.000
924.1290, 1076.000
925.2530, 1029.000
926.3770, 1052.000
927.5010, 1022.000
928.6250, 1012.000
929.7480, 987.0000
930.8720, 1012.000
931.9950, 1021.000
933.1180, 1011.000
934.2410, 1005.000
935.3640, 1003.000
936.4860, 1044.000
937.6090, 1003.000
938.7310, 1025.000
939.8530, 1055.000
940.9750, 1023.000
942.0970, 1029.000
943.2180, 1008.000
944.3400, 1025.000
945.4610, 1015.000
946.5820, 1043.000
947.7030, 965.0000
948.8240, 1037.000
949.9450, 1001.000
951.0650, 1035.000
952.1860, 1037.000
953.3060, 1028.000
954.4260, 1013.000
955.5460, 1039.000
956.6650, 1043.000
957.7850, 1057.000
958.9040, 1058.708
960.0230, 1054.136
961.1420, 1056.000
962.2610, 1048.371
963.3800, 1039.000
964.4990, 1032.000
965.6170, 1026.000
966.7350, 1016.000
967.8530, 1034.000
968.9710, 1062.000
970.0890, 1040.000
971.2070, 1047.000
972.3240, 1057.000
973.4410, 1024.000
974.5580, 1036.000
975.6750, 1015.000
976.7920, 1067.000
977.9090, 1053.000
979.0250, 1039.000
980.1410, 1057.000
981.2580, 1027.000
982.3740, 1045.000
983.4890, 1021.000
984.6050, 1070.000
985.7200, 1045.000
986.8360, 1077.000
987.9510, 1081.455
989.0660, 1055.000
990.1810, 1084.000
991.2950, 1077.000
992.4100, 1063.000
993.5240, 1076.000
994.6390, 1062.000
995.7530, 1049.000
996.8660, 1098.000
997.9800, 1077.000
999.0940, 1073.000
1000.207, 1079.000
1001.320, 1065.000
1002.433, 1061.000
1003.546, 1088.000
1004.659, 1071.000
1005.772, 1047.000
1006.884, 1095.000
1007.996, 1069.000
1009.108, 1071.000
1010.220, 1097.000
1011.332, 1103.000
1012.444, 1063.000
1013.555, 1077.000
1014.666, 1072.000
1015.777, 1118.000
1016.888, 1049.000
1017.999, 1119.000
1019.110, 1051.000
1020.220, 1098.000
1021.331, 1087.000
1022.441, 1145.000
1023.551, 1122.000
1024.661, 1102.000
1025.770, 1157.000
1026.880, 1147.000
1027.989, 1166.000
1029.098, 1151.000
1030.207, 1173.000
1031.316, 1265.000
1032.425, 1371.000
1033.533, 1414.000
1034.642, 1310.000
1035.750, 1254.000
1036.858, 1209.000
1037.966, 1241.000
1039.073, 1307.000
1040.181, 1273.000
1041.288, 1402.000
1042.396, 1473.000
1043.503, 1538.000
1044.610, 1702.000
1045.716, 2022.000
1046.823, 2762.000
1047.929, 4333.000
1049.036, 7657.000
1050.142, 10556.00
1051.248, 10093.00
1052.353, 11716.00
1053.459, 18614.00
1054.564, 39327.00
1055.670, 61682.00
1056.775, 56768.00
1057.880, 34285.00
1058.985, 15886.00
1060.089, 7055.000
1061.194, 3719.000
1062.298, 2501.000
1063.402, 1947.000
1064.506, 1646.000
1065.610, 1466.000
1066.713, 1433.000
1067.817, 1340.000
1068.920, 1265.000
1070.023, 1235.000
1071.126, 1211.000
1072.229, 1205.000
1073.332, 1171.000
1074.435, 1199.000
1075.537, 1165.000
1076.639, 1161.000
1077.741, 1191.000
1078.843, 1175.000
1079.945, 1134.000
1081.046, 1104.000
1082.148, 1134.000
1083.249, 1118.000
1084.350, 1138.000
1085.451, 1148.000
1086.551, 1163.000
1087.652, 1163.372
1088.752, 1149.000
1089.853, 1157.000
1090.953, 1153.000
1092.053, 1146.000
1093.152, 1169.000
1094.252, 1171.000
1095.351, 1125.000
1096.451, 1153.000
1097.550, 1099.000
1098.649, 1139.000
1099.748, 1148.000
1100.846, 1127.000
1101.945, 1123.000
1103.043, 1135.000
1104.141, 1105.000
1105.239, 1149.000
1106.337, 1120.000
1107.434, 1095.000
1108.532, 1129.000
1109.629, 1127.000
1110.726, 1149.000
1111.823, 1102.000
1112.920, 1155.000
1114.017, 1116.000
1115.113, 1154.000
1116.210, 1090.000
1117.306, 1114.000
1118.402, 1130.000
1119.498, 1134.000
1120.593, 1130.000
1121.689, 1126.000
1122.784, 1116.000
1123.879, 1117.909
1124.974, 1118.000
1126.069, 1124.000
1127.164, 1110.000
1128.259, 1123.000
1129.353, 1132.000
1130.447, 1132.000
1131.541, 1106.000
1132.635, 1093.000
1133.729, 1100.000
1134.822, 1104.000
1135.916, 1092.211
1137.009, 1135.000
1138.102, 1088.000
1139.195, 1106.000
1140.288, 1134.000
1141.380, 1130.000
1142.473, 1084.000
1143.565, 1111.000
1144.657, 1112.000
1145.749, 1131.000
1146.841, 1122.000
1147.932, 1088.000
1149.024, 1109.000
1150.115, 1089.000
1151.206, 1103.000
1152.297, 1120.000
1153.388, 1110.000
1154.479, 1118.000
1155.569, 1098.000
1156.659, 1117.000
1157.750, 1091.000
1158.839, 1107.000
1159.929, 1094.000
1161.019, 1131.000
1162.108, 1117.000
1163.198, 1114.000
1164.287, 1077.000
1165.376, 1100.000
1166.465, 1120.000
1167.553, 1100.000
1168.642, 1117.000
1169.730, 1079.000
1170.818, 1113.000
1171.906, 1124.000
1172.994, 1127.000
1174.082, 1111.000
1175.170, 1108.000
1176.257, 1141.000
1177.344, 1102.000
1178.431, 1158.000
1179.518, 1144.000
1180.605, 1139.000
1181.691, 1147.000
1182.778, 1109.000
1183.864, 1150.000
1184.950, 1152.000
1186.036, 1106.000
1187.122, 1161.000
1188.207, 1138.000
1189.292, 1123.000
1190.378, 1175.000
1191.463, 1118.000
1192.548, 1140.000
1193.632, 1170.000
1194.717, 1156.000
1195.801, 1143.000
1196.886, 1136.000
1197.970, 1186.000
1199.054, 1159.000
1200.137, 1123.000
1201.221, 1183.000
1202.305, 1150.000
1203.388, 1150.000
1204.471, 1218.000
1205.554, 1140.000
1206.637, 1174.000
1207.719, 1136.000
1208.802, 1164.000
1209.884, 1178.000
1210.966, 1177.000
1212.048, 1170.000
1213.130, 1158.000
1214.212, 1155.000
1215.293, 1173.000
1216.374, 1187.000
1217.456, 1174.000
1218.536, 1175.000
1219.617, 1181.000
1220.698, 1198.000
1221.778, 1196.000
1222.859, 1186.000
1223.939, 1203.000
1225.019, 1185.000
1226.099, 1197.000
1227.178, 1168.000
1228.258, 1220.000
1229.337, 1177.000
1230.417, 1232.000
1231.496, 1195.000
1232.574, 1206.000
1233.653, 1197.000
1234.732, 1212.000
1235.810, 1225.000
1236.888, 1224.000
1237.966, 1206.000
1239.044, 1212.000
1240.122, 1228.000
1241.199, 1255.000
1242.277, 1200.000
1243.354, 1201.000
1244.431, 1227.000
1245.508, 1266.000
1246.585, 1237.000
1247.661, 1265.000
1248.738, 1220.000
1249.814, 1244.000
1250.890, 1259.000
1251.966, 1242.000
1253.042, 1270.000
1254.117, 1253.000
1255.193, 1273.000
1256.268, 1234.000
1257.343, 1266.000
1258.418, 1261.000
1259.493, 1245.000
1260.567, 1269.359
1261.642, 1285.000
1262.716, 1286.000
1263.790, 1298.000
1264.864, 1292.000
1265.938, 1291.000
1267.011, 1294.581
1268.085, 1317.000
1269.158, 1297.000
1270.231, 1302.000
1271.304, 1306.000
1272.377, 1350.000
1273.450, 1320.000
1274.522, 1360.000
1275.594, 1365.000
1276.666, 1351.000
1277.738, 1323.000
1278.810, 1356.000
1279.882, 1361.000
1280.953, 1365.000
1282.025, 1338.000
1283.096, 1360.000
1284.167, 1354.000
1285.238, 1432.000
1286.308, 1337.000
1287.379, 1387.000
1288.449, 1409.000
1289.519, 1367.000
1290.589, 1375.000
1291.659, 1387.000
1292.729, 1375.000
1293.798, 1417.000
1294.868, 1437.000
1295.937, 1416.000
1297.006, 1409.000
1298.075, 1396.000
1299.143, 1426.000
1300.212, 1422.882
1301.280, 1460.000
1302.348, 1451.000
1303.416, 1455.000
1304.484, 1477.000
1305.552, 1510.000
1306.620, 1512.000
1307.687, 1510.000
1308.754, 1482.000
1309.821, 1499.000
1310.888, 1500.000
1311.955, 1536.000
1313.021, 1539.000
1314.088, 1496.000
1315.154, 1558.000
1316.220, 1577.000
1317.286, 1540.000
1318.352, 1525.000
1319.417, 1572.000
1320.483, 1608.000
1321.548, 1548.000
1322.613, 1594.000
1323.678, 1591.000
1324.743, 1539.000
1325.807, 1563.000
1326.872, 1598.000
1327.936, 1578.000
1329.000, 1645.000
1330.064, 1596.000
1331.128, 1575.000
1332.191, 1595.000
1333.255, 1597.000
1334.318, 1622.000
1335.381, 1626.000
1336.444, 1606.000
1337.507, 1606.000
1338.569, 1680.000
1339.632, 1643.000
1340.694, 1667.000
1341.756, 1653.000
1342.818, 1667.000
1343.880, 1658.000
1344.941, 1701.000
1346.003, 1747.000
1347.064, 1721.000
1348.125, 1791.000
1349.186, 1807.000
1350.247, 1767.000
1351.308, 1878.000
1352.368, 1942.000
1353.428, 1947.000
1354.489, 2052.000
1355.549, 2084.000
1356.608, 2157.000
1357.668, 2245.000
1358.727, 2286.000
1359.787, 2419.000
1360.846, 2515.000
1361.905, 2579.000
1362.964, 2721.000
1364.022, 2839.000
1365.081, 2929.000
1366.139, 3118.000
1367.197, 3295.000
1368.255, 3450.000
1369.313, 3640.000
1370.371, 3966.000
1371.428, 4176.000
1372.486, 4460.000
1373.543, 4849.000
1374.600, 5170.000
1375.657, 5379.000
1376.713, 5519.594
1377.770, 5587.000
1378.826, 5525.000
1379.882, 5383.000
1380.938, 5151.000
1381.994, 4715.000
1383.050, 4512.000
1384.106, 4002.000
1385.161, 3855.000
1386.216, 3382.000
1387.271, 3115.000
1388.326, 2834.000
1389.381, 2782.000
1390.435, 2589.000
1391.490, 2465.000
1392.544, 2284.000
1393.598, 2178.000
1394.652, 2172.000
1395.705, 2059.000
1396.759, 2005.000
1397.812, 1949.000
1398.866, 1915.000
1399.919, 1872.000
1400.972, 1826.000
1402.024, 1823.000
1403.077, 1828.000
1404.129, 1835.000
1405.181, 1765.000
1406.233, 1818.000
1407.285, 1769.000
1408.337, 1779.000
1409.389, 1750.000
1410.440, 1778.000
1411.491, 1803.000
1412.542, 1724.000
1413.593, 1736.000
1414.644, 1774.000
1415.695, 1778.000
1416.745, 1787.000
1417.795, 1809.000
1418.845, 1773.000
1419.895, 1828.000
1420.945, 1795.000
1421.995, 1763.000
1423.044, 1753.000
1424.093, 1808.000
1425.142, 1750.000
1426.191, 1791.000
1427.240, 1812.000
1428.289, 1760.000
1429.337, 1781.000
1430.385, 1761.000
1431.433, 1761.000
1432.481, 1789.000
1433.529, 1698.000
1434.577, 1732.000
1435.624, 1707.000
1436.672, 1674.000
1437.719, 1626.000
1438.766, 1672.000
1439.812, 1629.000
1440.859, 1635.000
1441.905, 1618.000
1442.952, 1615.000
1443.998, 1588.000
1445.044, 1596.000
1446.090, 1589.000
1447.135, 1550.000
1448.181, 1547.000
1449.226, 1550.000
1450.271, 1573.000
1451.316, 1534.000
1452.361, 1578.000
1453.405, 1581.000
1454.450, 1563.000
1455.494, 1509.000
1456.538, 1547.000
1457.582, 1559.000
1458.626, 1544.000
1459.670, 1569.000
1460.713, 1549.000
1461.757, 1536.000
1462.800, 1578.000
1463.843, 1554.000
1464.886, 1548.000
1465.928, 1577.000
1466.971, 1554.000
1468.013, 1602.000
1469.055, 1564.000
1470.097, 1567.000
1471.139, 1570.000
1472.181, 1619.000
1473.222, 1574.000
1474.263, 1594.000
1475.305, 1582.000
1476.346, 1538.000
1477.386, 1599.000
1478.427, 1602.000
1479.468, 1611.000
1480.508, 1546.000
1481.548, 1556.000
1482.588, 1535.000
1483.628, 1548.000
1484.668, 1557.000
1485.707, 1540.000
1486.747, 1534.000
1487.786, 1504.000
1488.825, 1480.000
1489.864, 1496.000
1490.902, 1538.000
1491.941, 1481.000
1492.979, 1496.000
1494.017, 1488.000
1495.055, 1460.000
1496.093, 1440.000
1497.131, 1478.000
1498.168, 1475.000
1499.206, 1448.000
1500.243, 1427.000
1501.280, 1430.000
1502.317, 1401.000
1503.354, 1422.000
1504.390, 1417.000
1505.426, 1452.000
1506.463, 1421.000
1507.499, 1453.000
1508.535, 1435.000
1509.570, 1446.000
1510.606, 1468.000
1511.641, 1421.000
1512.676, 1407.000
1513.711, 1400.000
1514.746, 1462.000
1515.781, 1424.000
1516.816, 1448.000
1517.850, 1410.000
1518.884, 1446.000
1519.918, 1433.000
1520.952, 1393.000
1521.986, 1420.000
1523.019, 1370.000
1524.053, 1432.000
1525.086, 1484.000
1526.119, 1383.000
1527.152, 1431.000
1528.185, 1407.000
1529.217, 1405.000
1530.250, 1399.000
1531.282, 1391.000
1532.314, 1396.000
1533.346, 1391.147
1534.377, 1378.000
1535.409, 1390.000
1536.440, 1398.000
1537.472, 1397.000
1538.503, 1376.000
1539.534, 1350.000
1540.564, 1407.000
1541.595, 1369.000
1542.625, 1383.000
1543.656, 1384.000
1544.686, 1395.000
1545.716, 1373.000
1546.745, 1377.688
1547.775, 1357.000
1548.804, 1371.000
1549.834, 1368.000
1550.863, 1371.864
1551.892, 1371.000
1552.920, 1375.000
1553.949, 1351.000
1554.977, 1372.000
1556.006, 1393.000
1557.034, 1338.000
1558.062, 1346.000
1559.089, 1340.000
1560.117, 1338.000
1561.144, 1325.000
1562.172, 1326.953
1563.199, 1325.000
1564.226, 1326.000
1565.252, 1353.000
1566.279, 1354.000
1567.305, 1313.000
1568.332, 1346.000
1569.358, 1340.000
1570.384, 1367.000
##END=



