##NAMES=Cerussite
##RRUFFID=R060017
##IDEAL CHEMISTRY=Pb^2+^CO_3_
##LOCALITY=Gonessa, Sardinia, Italy
##OWNER=RRUFF
##SOURCE=American Museum of Natural History
##DESCRIPTION=White reticulated composite
##STATUS=The identification of this mineral has been confirmed by X-ray diffraction and chemical analysis
##URL=rruff.info/R060017
##MEASURED CHEMISTRY=Pb_1.00_CO_3_ C not measured but estimated by difference and stoichiometry
##PIN_ID=M00261
##ORIENTATION=Laser parallel to a* (1 0 0). Fiducial mark perpendicular to laser is parallel to b [0 1 0]
51.43100, 1044.000
52.67100, 1138.000
53.91000, 1254.000
55.14900, 1285.000
56.38700, 1405.000
57.62600, 1539.000
58.86400, 1762.000
60.10300, 2146.000
61.34100, 2569.000
62.57900, 3266.000
63.81700, 3996.000
65.05400, 4994.000
66.29200, 5911.000
67.52900, 6940.000
68.76700, 7903.000
70.00400, 8514.000
71.24100, 8826.000
72.47700, 9007.000
73.71400, 9161.000
74.95100, 8788.000
76.18700, 8668.000
77.42300, 8788.000
78.65900, 8779.000
79.89500, 8930.000
81.13100, 9077.000
82.36700, 9407.000
83.60200, 9707.000
84.83700, 10164.00
86.07200, 10625.00
87.30800, 11275.00
88.54200, 12131.00
89.77700, 13043.00
91.01200, 13899.00
92.24600, 14814.26
93.48000, 15686.00
94.71400, 16640.00
95.94800, 17558.00
97.18200, 18468.00
98.41600, 19260.00
99.64900, 19860.00
100.8830, 20009.73
102.1160, 20169.00
103.3490, 19634.00
104.5820, 19033.00
105.8150, 18173.00
107.0470, 17184.00
108.2800, 16090.00
109.5120, 15361.00
110.7440, 14783.00
111.9760, 14448.00
113.2080, 14555.00
114.4400, 14391.00
115.6710, 14443.00
116.9030, 14414.00
118.1340, 14354.42
119.3650, 14562.00
120.5960, 14339.00
121.8270, 14474.00
123.0580, 14583.00
124.2880, 14526.00
125.5190, 14687.00
126.7490, 14933.00
127.9790, 15126.00
129.2090, 15422.00
130.4390, 15509.93
131.6680, 15337.00
132.8980, 15619.00
134.1270, 15526.00
135.3560, 15391.00
136.5850, 15708.00
137.8140, 15651.00
139.0430, 15720.00
140.2710, 15899.00
141.5000, 16214.00
142.7280, 16554.00
143.9560, 16717.00
145.1840, 16996.00
146.4120, 17236.00
147.6390, 17368.00
148.8670, 17338.00
150.0940, 17325.00
151.3210, 16999.00
152.5490, 16809.00
153.7750, 16289.00
155.0020, 15757.00
156.2290, 15265.00
157.4550, 14702.00
158.6810, 14438.00
159.9080, 13926.00
161.1340, 13772.00
162.3590, 13789.00
163.5850, 13696.00
164.8110, 13694.00
166.0360, 13938.00
167.2610, 14139.00
168.4860, 14197.00
169.7110, 14468.00
170.9360, 14489.00
172.1610, 14526.00
173.3850, 14702.00
174.6100, 14763.00
175.8340, 14660.00
177.0580, 14187.00
178.2820, 13886.00
179.5050, 13600.00
180.7290, 13267.00
181.9520, 12930.00
183.1760, 12521.00
184.3990, 12229.92
185.6220, 11901.00
186.8450, 11492.00
188.0670, 11303.00
189.2900, 11024.15
190.5120, 10963.00
191.7340, 10707.00
192.9560, 10634.00
194.1780, 10697.00
195.4000, 10604.00
196.6220, 10418.00
197.8430, 10405.00
199.0640, 10391.00
200.2860, 10439.00
201.5070, 10419.00
202.7270, 10365.00
203.9480, 10336.00
205.1690, 10229.00
206.3890, 10328.00
207.6090, 10389.00
208.8290, 10563.00
210.0490, 10483.00
211.2690, 10432.00
212.4890, 10616.00
213.7080, 10498.00
214.9280, 10501.00
216.1470, 10475.00
217.3660, 10632.00
218.5850, 10657.00
219.8030, 10582.00
221.0220, 10448.00
222.2400, 10747.00
223.4590, 10523.00
224.6770, 10566.00
225.8950, 10539.00
227.1120, 10488.00
228.3300, 10625.00
229.5480, 10611.00
230.7650, 10349.00
231.9820, 10437.00
233.1990, 10486.00
234.4160, 10345.00
235.6330, 10460.00
236.8490, 10335.00
238.0660, 10377.00
239.2820, 10475.00
240.4980, 10430.00
241.7140, 10375.00
242.9300, 10371.00
244.1460, 10187.00
245.3610, 10217.00
246.5770, 10220.00
247.7920, 9904.000
249.0070, 9927.000
250.2220, 9758.000
251.4370, 9726.000
252.6510, 9607.000
253.8660, 9536.000
255.0800, 9572.000
256.2940, 9498.000
257.5080, 9433.163
258.7220, 9394.000
259.9360, 9264.000
261.1490, 9133.000
262.3630, 9036.000
263.5760, 8970.660
264.7890, 8942.000
266.0020, 8970.000
267.2150, 8842.000
268.4270, 9025.000
269.6400, 8827.000
270.8520, 8870.000
272.0640, 8926.000
273.2760, 8903.000
274.4880, 8916.000
275.7000, 8864.000
276.9120, 8901.000
278.1230, 8913.000
279.3340, 8951.000
280.5450, 8982.000
281.7560, 8930.000
282.9670, 8793.000
284.1780, 8921.000
285.3880, 8836.000
286.5980, 8916.000
287.8090, 8888.000
289.0190, 9087.000
290.2290, 8833.000
291.4380, 8858.000
292.6480, 8876.000
293.8570, 9066.000
295.0670, 8914.000
296.2760, 8867.000
297.4850, 8917.000
298.6930, 8893.000
299.9020, 8790.000
301.1110, 8873.000
302.3190, 8795.000
303.5270, 8924.000
304.7350, 8980.000
305.9430, 9075.000
307.1510, 9004.000
308.3580, 8958.000
309.5660, 8958.000
310.7730, 9002.000
311.9800, 8916.000
313.1870, 8878.000
314.3940, 8993.000
315.6010, 8943.000
316.8070, 8987.000
318.0130, 9000.000
319.2200, 9039.000
320.4260, 9024.194
321.6310, 9114.000
322.8370, 8967.000
324.0430, 9002.000
325.2480, 8937.000
326.4540, 8999.000
327.6590, 9066.000
328.8640, 8994.000
330.0680, 9020.000
331.2730, 9230.000
332.4780, 9010.000
333.6820, 9250.000
334.8860, 9102.000
336.0900, 9105.000
337.2940, 9127.000
338.4980, 9188.000
339.7010, 9109.000
340.9050, 9133.000
342.1080, 9192.000
343.3110, 9069.000
344.5140, 9098.000
345.7170, 9111.000
346.9200, 9277.000
348.1220, 9348.000
349.3240, 9150.000
350.5270, 9180.000
351.7290, 9135.000
352.9310, 9262.000
354.1320, 9209.000
355.3340, 9272.000
356.5350, 9270.000
357.7370, 9334.000
358.9380, 9259.000
360.1390, 9205.000
361.3400, 9323.000
362.5400, 9440.000
363.7410, 9288.000
364.9410, 9234.000
366.1410, 9262.000
367.3410, 9301.000
368.5410, 9303.000
369.7410, 9340.000
370.9400, 9370.000
372.1400, 9490.000
373.3390, 9422.000
374.5380, 9485.000
375.7370, 9393.000
376.9360, 9498.000
378.1350, 9435.000
379.3330, 9368.000
380.5310, 9484.000
381.7300, 9436.000
382.9280, 9451.000
384.1260, 9574.000
385.3230, 9515.000
386.5210, 9560.000
387.7180, 9419.000
388.9160, 9470.000
390.1130, 9459.000
391.3100, 9623.000
392.5060, 9673.000
393.7030, 9705.000
394.9000, 9627.000
396.0960, 9568.000
397.2920, 9520.000
398.4880, 9673.000
399.6840, 9541.000
400.8800, 9664.000
402.0750, 9598.000
403.2710, 9584.000
404.4660, 9636.000
405.6610, 9620.474
406.8560, 9643.454
408.0510, 9680.000
409.2450, 9674.000
410.4400, 9717.000
411.6340, 9730.000
412.8280, 9748.018
414.0220, 9746.000
415.2160, 9783.000
416.4100, 9716.000
417.6030, 9715.000
418.7970, 9799.000
419.9900, 9882.000
421.1830, 9888.000
422.3760, 9818.000
423.5690, 9898.000
424.7610, 9931.000
425.9540, 9779.000
427.1460, 9930.000
428.3380, 9856.000
429.5300, 9817.000
430.7220, 9940.000
431.9140, 9889.000
433.1050, 9962.000
434.2970, 9922.000
435.4880, 9912.000
436.6790, 9977.000
437.8700, 10023.00
439.0610, 9947.000
440.2510, 9906.000
441.4420, 10101.00
442.6320, 9990.000
443.8220, 10067.00
445.0120, 10057.00
446.2020, 10046.00
447.3910, 10141.00
448.5810, 9984.000
449.7700, 10053.00
450.9600, 10100.00
452.1490, 10059.00
453.3370, 10091.00
454.5260, 10179.00
455.7150, 10310.00
456.9030, 10179.00
458.0910, 10318.00
459.2800, 10206.00
460.4670, 10142.00
461.6550, 10147.00
462.8430, 10129.00
464.0300, 10316.00
465.2180, 10274.00
466.4050, 10326.00
467.5920, 10246.00
468.7790, 10296.00
469.9650, 10344.00
471.1520, 10308.00
472.3380, 10373.00
473.5250, 10451.00
474.7110, 10346.00
475.8970, 10401.00
477.0820, 10414.00
478.2680, 10329.00
479.4540, 10375.00
480.6390, 10389.00
481.8240, 10420.00
483.0090, 10446.00
484.1940, 10438.00
485.3780, 10367.00
486.5630, 10346.00
487.7470, 10528.00
488.9320, 10440.00
490.1160, 10507.00
491.3000, 10448.00
492.4830, 10474.00
493.6670, 10555.00
494.8500, 10537.00
496.0340, 10425.00
497.2170, 10558.00
498.4000, 10452.00
499.5820, 10555.00
500.7650, 10504.00
501.9480, 10437.00
503.1300, 10664.00
504.3120, 10539.00
505.4940, 10641.00
506.6760, 10769.00
507.8580, 10601.00
509.0390, 10652.00
510.2210, 10681.00
511.4020, 10628.00
512.5830, 10635.00
513.7640, 10761.00
514.9450, 10555.00
516.1250, 10841.00
517.3060, 10771.00
518.4860, 10687.00
519.6660, 10665.00
520.8460, 10678.51
522.0260, 10960.00
523.2060, 10766.00
524.3850, 10833.00
525.5650, 10877.00
526.7440, 10740.00
527.9230, 10769.00
529.1020, 10792.00
530.2810, 10857.00
531.4590, 10933.00
532.6380, 10974.00
533.8160, 10832.00
534.9940, 10902.00
536.1720, 10969.00
537.3500, 10911.00
538.5270, 11015.00
539.7050, 10871.00
540.8820, 10864.00
542.0590, 10833.00
543.2360, 10984.00
544.4130, 11025.00
545.5900, 10983.00
546.7660, 11023.00
547.9430, 11093.00
549.1190, 11055.00
550.2950, 11086.00
551.4710, 11047.00
552.6470, 11116.00
553.8220, 11097.83
554.9980, 11069.00
556.1730, 11091.00
557.3480, 11113.00
558.5230, 11092.00
559.6980, 11199.00
560.8730, 11053.00
562.0470, 11165.00
563.2220, 11163.00
564.3960, 11130.00
565.5700, 11258.00
566.7440, 11198.00
567.9170, 11331.00
569.0910, 11249.00
570.2640, 11233.00
571.4380, 11252.00
572.6110, 11194.00
573.7840, 11262.00
574.9570, 11258.61
576.1290, 11256.00
577.3020, 11330.00
578.4740, 11299.00
579.6460, 11378.00
580.8180, 11195.00
581.9900, 11392.00
583.1620, 11287.00
584.3330, 11390.00
585.5040, 11473.00
586.6760, 11435.00
587.8470, 11507.00
589.0180, 11539.00
590.1880, 11463.00
591.3590, 11335.00
592.5290, 11485.00
593.7000, 11416.00
594.8700, 11546.00
596.0400, 11411.00
597.2090, 11649.00
598.3790, 11639.00
599.5490, 11618.00
600.7180, 11597.00
601.8870, 11607.00
603.0560, 11616.08
604.2250, 11517.00
605.3940, 11642.00
606.5620, 11736.00
607.7300, 11706.00
608.8990, 11643.00
610.0670, 11803.00
611.2350, 11773.00
612.4020, 11840.00
613.5700, 11751.00
614.7370, 11826.00
615.9050, 11777.00
617.0720, 11904.00
618.2390, 11785.00
619.4060, 11798.00
620.5720, 11930.00
621.7390, 11865.00
622.9050, 11924.00
624.0710, 12080.00
625.2370, 11949.00
626.4030, 11868.00
627.5690, 11902.00
628.7340, 11942.00
629.9000, 11880.00
631.0650, 11961.00
632.2300, 11893.00
633.3950, 11941.00
634.5600, 11947.00
635.7240, 11999.00
636.8890, 11979.00
638.0530, 11986.00
639.2170, 12006.00
640.3810, 12029.00
641.5450, 12054.00
642.7080, 12052.98
643.8720, 12060.00
645.0350, 12072.00
646.1980, 12056.00
647.3610, 12115.00
648.5240, 12234.00
649.6870, 12144.00
650.8490, 11992.00
652.0120, 12067.00
653.1740, 12116.00
654.3360, 12073.00
655.4980, 12208.00
656.6600, 12078.00
657.8210, 12135.00
658.9830, 12040.00
660.1440, 12112.02
661.3050, 12214.00
662.4660, 12236.00
663.6270, 12283.00
664.7870, 12265.00
665.9480, 12356.00
667.1080, 12475.00
668.2680, 12527.00
669.4280, 12664.00
670.5880, 12797.00
671.7480, 12817.72
672.9070, 12922.00
674.0670, 12892.00
675.2260, 12967.00
676.3850, 13026.00
677.5440, 13095.00
678.7030, 13208.00
679.8610, 13364.00
681.0200, 13349.00
682.1780, 13230.00
683.3360, 13045.00
684.4940, 12935.00
685.6520, 12846.29
686.8090, 12859.00
687.9670, 12738.00
689.1240, 12833.00
690.2810, 12864.00
691.4380, 12920.00
692.5950, 13111.00
693.7520, 12991.00
694.9080, 13027.00
696.0650, 12813.00
697.2210, 12740.00
698.3770, 12598.00
699.5330, 12632.00
700.6880, 12548.00
701.8440, 12487.00
702.9990, 12440.00
704.1550, 12550.00
705.3100, 12622.00
706.4650, 12490.00
707.6190, 12657.00
708.7740, 12559.00
709.9290, 12728.00
711.0830, 12782.00
712.2370, 12699.00
713.3910, 12726.00
714.5450, 12704.00
715.6980, 12722.00
716.8520, 12612.00
718.0050, 12760.00
719.1580, 12819.00
720.3110, 12892.00
721.4640, 12730.00
722.6170, 12866.00
723.7700, 12757.00
724.9220, 12860.00
726.0740, 12710.00
727.2260, 12936.00
728.3780, 12810.00
729.5300, 13067.00
730.6810, 13060.00
731.8330, 12986.00
732.9840, 12974.00
734.1350, 12909.00
735.2860, 13025.00
736.4370, 12966.00
737.5880, 13120.00
738.7380, 13055.00
739.8880, 12953.00
741.0390, 12937.00
742.1890, 12905.99
743.3380, 12992.00
744.4880, 12921.00
745.6380, 13008.00
746.7870, 13066.00
747.9360, 13000.00
749.0850, 13133.00
750.2340, 13069.00
751.3830, 13126.00
752.5310, 13009.00
753.6800, 13012.00
754.8280, 13180.00
755.9760, 13051.00
757.1240, 13091.00
758.2720, 13015.00
759.4190, 13201.00
760.5670, 13275.00
761.7140, 13236.00
762.8610, 13323.00
764.0080, 13310.00
765.1550, 13178.00
766.3020, 13325.00
767.4480, 13238.00
768.5950, 13301.00
769.7410, 13270.00
770.8870, 13222.00
772.0330, 13338.00
773.1780, 13333.00
774.3240, 13262.00
775.4690, 13369.00
776.6140, 13386.00
777.7590, 13381.00
778.9040, 13334.00
780.0490, 13412.00
781.1940, 13441.00
782.3380, 13460.00
783.4820, 13415.00
784.6260, 13489.00
785.7700, 13376.00
786.9140, 13515.00
788.0580, 13407.00
789.2010, 13407.00
790.3450, 13465.46
791.4880, 13561.00
792.6310, 13538.00
793.7730, 13570.00
794.9160, 13602.00
796.0590, 13501.00
797.2010, 13625.00
798.3430, 13681.00
799.4850, 13558.00
800.6270, 13661.00
801.7690, 13731.00
802.9100, 13701.00
804.0520, 13738.00
805.1930, 13811.00
806.3340, 13713.00
807.4750, 13696.00
808.6160, 13726.00
809.7560, 13762.00
810.8970, 13632.00
812.0370, 13602.00
813.1770, 13757.00
814.3170, 13935.00
815.4570, 13839.00
816.5960, 13943.00
817.7360, 13784.00
818.8750, 14033.00
820.0140, 13985.00
821.1530, 13873.00
822.2920, 13966.00
823.4310, 14101.00
824.5690, 13900.00
825.7070, 14137.00
826.8460, 14321.00
827.9840, 14241.00
829.1220, 14475.00
830.2590, 14686.00
831.3970, 14859.00
832.5340, 15090.00
833.6710, 15294.00
834.8080, 15636.00
835.9450, 15883.00
837.0820, 15805.00
838.2190, 15674.00
839.3550, 15121.00
840.4910, 14971.00
841.6270, 14613.00
842.7630, 14426.00
843.8990, 14204.00
845.0350, 14298.00
846.1700, 14178.00
847.3060, 14414.00
848.4410, 14383.00
849.5760, 14296.00
850.7100, 14488.00
851.8450, 14418.00
852.9800, 14633.00
854.1140, 14415.00
855.2480, 14297.00
856.3820, 14513.00
857.5160, 14251.00
858.6500, 14409.00
859.7830, 14513.00
860.9170, 14516.00
862.0500, 14413.00
863.1830, 14466.00
864.3160, 14395.00
865.4480, 14486.00
866.5810, 14442.00
867.7130, 14413.00
868.8460, 14395.00
869.9780, 14412.00
871.1100, 14557.00
872.2410, 14508.00
873.3730, 14581.00
874.5050, 14604.23
875.6360, 14627.77
876.7670, 14642.54
877.8980, 14691.00
879.0290, 14616.00
880.1590, 14604.00
881.2900, 14545.00
882.4200, 14575.00
883.5500, 14613.00
884.6800, 14722.00
885.8100, 14555.00
886.9400, 14599.00
888.0690, 14675.00
889.1990, 14588.00
890.3280, 14740.00
891.4570, 14678.00
892.5860, 14714.00
893.7140, 14760.00
894.8430, 14795.00
895.9710, 14775.00
897.1000, 14603.00
898.2280, 14846.00
899.3560, 14806.00
900.4830, 14955.00
901.6110, 14831.00
902.7380, 14972.00
903.8660, 14768.00
904.9930, 15038.00
906.1200, 14977.00
907.2460, 14877.00
908.3730, 14958.00
909.5000, 14711.00
910.6260, 14969.00
911.7520, 14866.00
912.8780, 15072.00
914.0040, 15134.00
915.1290, 15058.00
916.2550, 14938.00
917.3800, 14988.00
918.5050, 15077.00
919.6300, 14980.00
920.7550, 15129.00
921.8800, 15079.00
923.0040, 15105.00
924.1290, 15004.00
925.2530, 14915.00
926.3770, 14979.00
927.5010, 14935.00
928.6250, 15235.00
929.7480, 15123.00
930.8720, 15044.00
931.9950, 15218.00
933.1180, 15133.00
934.2410, 15159.00
935.3640, 15226.00
936.4860, 15208.02
937.6090, 15318.00
938.7310, 15300.00
939.8530, 15277.00
940.9750, 15393.00
942.0970, 15411.00
943.2180, 15394.28
944.3400, 15404.00
945.4610, 15311.00
946.5820, 15377.00
947.7030, 15265.00
948.8240, 15339.00
949.9450, 15459.00
951.0650, 15484.00
952.1860, 15301.00
953.3060, 15477.00
954.4260, 15428.00
955.5460, 15477.00
956.6650, 15503.00
957.7850, 15468.00
958.9040, 15513.00
960.0230, 15439.00
961.1420, 15616.00
962.2610, 15570.00
963.3800, 15568.00
964.4990, 15682.00
965.6170, 15474.00
966.7350, 15550.00
967.8530, 15505.00
968.9710, 15619.00
970.0890, 15643.00
971.2070, 15593.00
972.3240, 15621.00
973.4410, 15650.00
974.5580, 15714.00
975.6750, 15663.00
976.7920, 15818.00
977.9090, 15799.00
979.0250, 15687.00
980.1410, 15903.00
981.2580, 15954.00
982.3740, 15993.00
983.4890, 15905.00
984.6050, 15955.00
985.7200, 16019.00
986.8360, 15890.00
987.9510, 16085.00
989.0660, 16158.00
990.1810, 15925.00
991.2950, 16038.00
992.4100, 16027.00
993.5240, 16179.00
994.6390, 16065.00
995.7530, 16124.00
996.8660, 16194.00
997.9800, 16179.00
999.0940, 16320.00
1000.207, 16253.57
1001.320, 16301.00
1002.433, 16190.00
1003.546, 16223.00
1004.659, 16248.00
1005.772, 16119.00
1006.884, 16072.00
1007.996, 16278.00
1009.108, 16227.00
1010.220, 16209.00
1011.332, 16141.00
1012.444, 16163.04
1013.555, 16145.00
1014.666, 16224.00
1015.777, 16243.00
1016.888, 16320.00
1017.999, 16263.00
1019.110, 16334.00
1020.220, 16409.00
1021.331, 16390.00
1022.441, 16529.00
1023.551, 16571.00
1024.661, 16597.00
1025.770, 16554.00
1026.880, 16546.00
1027.989, 16660.00
1029.098, 16725.00
1030.207, 16710.00
1031.316, 16636.00
1032.425, 16632.00
1033.533, 16644.00
1034.642, 16663.89
1035.750, 16735.00
1036.858, 16794.00
1037.966, 16808.00
1039.073, 16925.00
1040.181, 16953.00
1041.288, 17225.00
1042.396, 17442.00
1043.503, 17907.00
1044.610, 19033.00
1045.716, 21659.00
1046.823, 26126.00
1047.929, 29731.00
1049.036, 34248.00
1050.142, 42528.00
1051.248, 49743.00
1052.353, 54257.00
1053.459, 54707.00
1054.564, 49615.00
1055.670, 38764.00
1056.775, 26663.00
1057.880, 20769.00
1058.985, 18694.00
1060.089, 17810.00
1061.194, 17381.00
1062.298, 17271.00
1063.402, 17191.00
1064.506, 17123.00
1065.610, 17012.00
1066.713, 16981.00
1067.817, 16997.00
1068.920, 16936.35
1070.023, 17059.00
1071.126, 16961.00
1072.229, 17080.00
1073.332, 17244.00
1074.435, 17089.00
1075.537, 17214.00
1076.639, 17161.00
1077.741, 17010.00
1078.843, 17135.00
1079.945, 17179.00
1081.046, 17265.00
1082.148, 17039.00
1083.249, 17057.00
1084.350, 17230.00
1085.451, 17114.00
1086.551, 17196.00
1087.652, 17133.00
1088.752, 17260.00
1089.853, 17210.00
1090.953, 17091.00
1092.053, 17204.00
1093.152, 17305.00
1094.252, 17289.00
1095.351, 17350.83
1096.451, 17441.00
1097.550, 17342.00
1098.649, 17368.00
1099.748, 17305.00
1100.846, 17391.00
1101.945, 17411.00
1103.043, 17436.00
1104.141, 17377.00
1105.239, 17389.00
1106.337, 17462.00
1107.434, 17417.00
1108.532, 17522.00
1109.629, 17486.00
1110.726, 17538.37
1111.823, 17385.00
1112.920, 17611.00
1114.017, 17603.00
1115.113, 17604.00
1116.210, 18057.00
1117.306, 17823.00
1118.402, 18055.00
1119.498, 17951.00
1120.593, 18098.00
1121.689, 18076.00
1122.784, 18130.00
1123.879, 17960.00
1124.974, 17849.00
1126.069, 17808.00
1127.164, 17607.00
1128.259, 17668.00
1129.353, 17694.00
1130.447, 17502.00
1131.541, 17632.00
1132.635, 17785.00
1133.729, 17688.00
1134.822, 17606.00
1135.916, 17668.00
1137.009, 17721.00
1138.102, 17831.00
1139.195, 17771.00
1140.288, 17823.70
1141.380, 17911.00
1142.473, 17806.00
1143.565, 17836.00
1144.657, 17785.00
1145.749, 17740.00
1146.841, 17658.00
1147.932, 17878.00
1149.024, 17894.00
1150.115, 18149.00
1151.206, 17927.00
1152.297, 17882.00
1153.388, 17875.00
1154.479, 17762.00
1155.569, 18024.00
1156.659, 17987.00
1157.750, 17969.00
1158.839, 18071.00
1159.929, 18120.00
1161.019, 18102.27
1162.108, 18098.00
1163.198, 18019.00
1164.287, 18107.00
1165.376, 17949.00
1166.465, 18109.00
1167.553, 18192.00
1168.642, 18204.00
1169.730, 18030.00
1170.818, 18148.00
1171.906, 18195.00
1172.994, 18144.00
1174.082, 18269.00
1175.170, 18100.00
1176.257, 18093.00
1177.344, 18155.00
1178.431, 18302.00
1179.518, 18119.00
1180.605, 18367.00
1181.691, 18429.00
1182.778, 18407.00
1183.864, 18114.00
1184.950, 18133.00
1186.036, 18349.00
1187.122, 18402.00
1188.207, 18454.00
1189.292, 18474.00
1190.378, 18502.64
1191.463, 18517.74
1192.548, 18502.00
1193.632, 18558.00
1194.717, 18502.00
1195.801, 18573.00
1196.886, 18638.00
1197.970, 18471.00
1199.054, 18557.00
1200.137, 18688.00
1201.221, 18542.00
1202.305, 18614.00
1203.388, 18584.00
1204.471, 18519.00
1205.554, 18619.00
1206.637, 18610.18
1207.719, 18800.00
1208.802, 18690.00
1209.884, 18837.00
1210.966, 18852.00
1212.048, 18789.00
1213.130, 18926.00
1214.212, 18675.00
1215.293, 19029.00
1216.374, 18754.00
1217.456, 18926.00
1218.536, 18931.00
1219.617, 18933.00
1220.698, 18956.00
1221.778, 18960.00
1222.859, 19069.00
1223.939, 19031.00
1225.019, 19098.58
1226.099, 18957.00
1227.178, 19139.00
1228.258, 19054.00
1229.337, 18966.00
1230.417, 19038.00
1231.496, 19103.00
1232.574, 19120.00
1233.653, 19125.61
1234.732, 19152.25
1235.810, 19101.00
1236.888, 19183.00
1237.966, 19221.00
1239.044, 19272.00
1240.122, 19213.00
1241.199, 19196.00
1242.277, 19188.00
1243.354, 19284.00
1244.431, 19251.00
1245.508, 19351.00
1246.585, 19386.00
1247.661, 19511.00
1248.738, 19378.00
1249.814, 19463.00
1250.890, 19417.00
1251.966, 19392.00
1253.042, 19329.00
1254.117, 19379.00
1255.193, 19376.00
1256.268, 19393.36
1257.343, 19576.00
1258.418, 19442.00
1259.493, 19610.00
1260.567, 19616.00
1261.642, 19663.00
1262.716, 19767.00
1263.790, 19750.00
1264.864, 19874.00
1265.938, 19790.00
1267.011, 19768.00
1268.085, 19732.00
1269.158, 19773.00
1270.231, 19950.00
1271.304, 19891.00
1272.377, 19942.00
1273.450, 19883.00
1274.522, 19799.00
1275.594, 19820.54
1276.666, 19800.74
1277.738, 19809.00
1278.810, 19875.00
1279.882, 19912.00
1280.953, 20028.00
1282.025, 19940.00
1283.096, 19865.00
1284.167, 20123.00
1285.238, 19918.00
1286.308, 20025.00
1287.379, 20222.00
1288.449, 20152.00
1289.519, 20183.00
1290.589, 20320.00
1291.659, 20145.00
1292.729, 20054.00
1293.798, 20359.00
1294.868, 20292.00
1295.937, 20183.00
1297.006, 20489.00
1298.075, 20367.00
1299.143, 20364.00
1300.212, 20357.00
1301.280, 20259.00
1302.348, 20348.00
1303.416, 20408.34
1304.484, 20606.00
1305.552, 20634.00
1306.620, 20655.00
1307.687, 20732.00
1308.754, 20754.00
1309.821, 20778.00
1310.888, 20728.00
1311.955, 20837.00
1313.021, 20838.00
1314.088, 20921.00
1315.154, 20952.00
1316.220, 20893.00
1317.286, 21070.00
1318.352, 21180.00
1319.417, 21171.00
1320.483, 21071.00
1321.548, 21169.00
1322.613, 21020.00
1323.678, 20943.00
1324.743, 21237.00
1325.807, 21216.00
1326.872, 21198.00
1327.936, 21207.00
1329.000, 21157.21
1330.064, 21229.00
1331.128, 21111.00
1332.191, 21183.00
1333.255, 21254.00
1334.318, 21242.00
1335.381, 21210.00
1336.444, 21283.00
1337.507, 21304.00
1338.569, 21395.00
1339.632, 21346.00
1340.694, 21598.00
1341.756, 21758.00
1342.818, 21709.00
1343.880, 21853.00
1344.941, 21844.00
1346.003, 22025.00
1347.064, 22038.00
1348.125, 22223.00
1349.186, 22401.00
1350.247, 22466.00
1351.308, 22749.00
1352.368, 22950.00
1353.428, 23171.00
1354.489, 23358.00
1355.549, 23601.47
1356.608, 24002.00
1357.668, 24035.00
1358.727, 24495.00
1359.787, 24629.00
1360.846, 24747.00
1361.905, 24918.00
1362.964, 24945.81
1364.022, 24943.00
1365.081, 25054.00
1366.139, 25128.00
1367.197, 25286.00
1368.255, 25314.68
1369.313, 25441.00
1370.371, 25472.00
1371.428, 25692.00
1372.486, 25944.00
1373.543, 25748.00
1374.600, 25696.00
1375.657, 25487.00
1376.713, 25123.00
1377.770, 25013.00
1378.826, 24710.00
1379.882, 24486.00
1380.938, 24036.00
1381.994, 23781.00
1383.050, 23399.00
1384.106, 23125.00
1385.161, 22833.00
1386.216, 22657.30
1387.271, 22578.00
1388.326, 22419.00
1389.381, 22415.00
1390.435, 22370.00
1391.490, 22407.00
1392.544, 22158.00
1393.598, 22206.00
1394.652, 22089.00
1395.705, 22228.00
1396.759, 22317.00
1397.812, 22278.00
1398.866, 22060.00
1399.919, 22251.00
1400.972, 22120.00
1402.024, 22406.00
1403.077, 22382.00
1404.129, 22496.00
1405.181, 22486.00
1406.233, 22407.00
1407.285, 22636.00
1408.337, 22701.00
1409.389, 22707.00
1410.440, 22910.00
1411.491, 22800.00
1412.542, 23193.00
1413.593, 22874.00
1414.644, 23127.00
1415.695, 23055.00
1416.745, 23225.00
1417.795, 23250.00
1418.845, 23272.00
1419.895, 23176.00
1420.945, 23344.00
1421.995, 23041.00
1423.044, 23139.00
1424.093, 23226.00
1425.142, 23471.00
1426.191, 23417.00
1427.240, 23217.00
1428.289, 23476.00
1429.337, 23376.00
1430.385, 23341.00
1431.433, 23399.00
1432.481, 23579.00
1433.529, 23553.00
1434.577, 23566.00
1435.624, 23827.00
1436.672, 23828.00
1437.719, 23838.00
1438.766, 23896.00
1439.812, 24078.00
1440.859, 24072.00
1441.905, 24110.00
1442.952, 24434.00
1443.998, 24591.00
1445.044, 24721.00
1446.090, 24869.00
1447.135, 24889.00
1448.181, 25037.00
1449.226, 24972.00
1450.271, 25489.00
1451.316, 25474.00
1452.361, 25747.00
1453.405, 26056.00
1454.450, 26186.00
1455.494, 26438.00
1456.538, 26590.00
1457.582, 26718.00
1458.626, 27023.00
1459.670, 27342.00
1460.713, 27411.00
1461.757, 27732.00
1462.800, 27811.00
1463.843, 28081.00
1464.886, 28378.00
1465.928, 28639.00
1466.971, 28669.00
1468.013, 28730.00
1469.055, 29359.00
1470.097, 29315.00
1471.139, 29646.00
1472.181, 29782.00
1473.222, 29698.00
1474.263, 29558.00
1475.305, 29754.00
1476.346, 29900.00
1477.386, 29673.00
1478.427, 29478.00
1479.468, 29414.00
1480.508, 29358.00
1481.548, 29092.00
1482.588, 28728.00
1483.628, 28283.00
1484.668, 28055.00
1485.707, 27564.00
1486.747, 27423.00
1487.786, 27134.00
1488.825, 26796.00
1489.864, 26478.00
1490.902, 26204.00
1491.941, 25936.04
1492.979, 25673.18
1494.017, 25474.00
1495.055, 25203.00
1496.093, 25002.00
1497.131, 24811.00
1498.168, 24663.00
1499.206, 24487.00
1500.243, 24383.20
1501.280, 24323.00
1502.317, 24186.00
1503.354, 24060.00
1504.390, 23940.00
1505.426, 23936.00
1506.463, 23863.00
1507.499, 23877.00
1508.535, 23933.00
1509.570, 23832.36
1510.606, 23680.00
1511.641, 23694.00
1512.676, 23660.00
1513.711, 23600.00
1514.746, 23632.77
1515.781, 23494.00
1516.816, 23654.00
1517.850, 23454.00
1518.884, 23425.00
1519.918, 23510.00
1520.952, 23385.00
1521.986, 24916.00
1523.019, 24561.00
1524.053, 24887.00
1525.086, 23474.00
1526.119, 23231.00
1527.152, 23448.00
1528.185, 23474.00
1529.217, 23450.00
1530.250, 23363.00
1531.282, 23298.00
1532.314, 23232.00
1533.346, 23252.00
1534.377, 23558.00
1535.409, 23298.00
1536.440, 23487.00
1537.472, 23412.00
1538.503, 23176.00
1539.534, 23429.00
1540.564, 23357.00
1541.595, 23541.00
1542.625, 23380.00
1543.656, 23422.00
1544.686, 23607.00
1545.716, 23520.00
1546.745, 23658.00
1547.775, 23540.00
1548.804, 23629.00
1549.834, 23527.00
1550.863, 23513.00
1551.892, 23356.00
1552.920, 23672.00
1553.949, 23812.00
1554.977, 23840.00
1556.006, 23621.00
1557.034, 23674.00
1558.062, 23423.00
1559.089, 23625.00
1560.117, 23348.00
1561.144, 23526.00
1562.172, 23574.00
1563.199, 23633.00
1564.226, 23514.00
1565.252, 23512.00
1566.279, 23653.00
1567.305, 23581.00
1568.332, 23674.00
1569.358, 23493.00
1570.384, 23766.00
##END=



