##NAMES=Cerussite
##RRUFFID=R060017
##IDEAL CHEMISTRY=Pb^2+^CO_3_
##LOCALITY=Gonessa, Sardinia, Italy
##OWNER=RRUFF
##SOURCE=American Museum of Natural History
##DESCRIPTION=White reticulated composite
##STATUS=The identification of this mineral has been confirmed by X-ray diffraction and chemical analysis
##URL=rruff.info/R060017
##MEASURED CHEMISTRY=Pb_1.00_CO_3_ C not measured but estimated by difference and stoichiometry
##PIN_ID=M00430
##ORIENTATION=Laser parallel to c* (0 0 1). Fiducial mark perpendicular to laser is parallel to a [1 0 0]
51.43100, 1062.000
52.67100, 1327.000
53.91000, 1582.000
55.14900, 1659.000
56.38700, 1737.000
57.62600, 1999.000
58.86400, 2380.000
60.10300, 3125.000
61.34100, 4085.000
62.57900, 5444.000
63.81700, 7043.000
65.05400, 8976.000
66.29200, 10976.00
67.52900, 12941.00
68.76700, 14515.00
70.00400, 15078.00
71.24100, 15305.00
72.47700, 14759.00
73.71400, 13880.00
74.95100, 12741.00
76.18700, 11983.00
77.42300, 11250.00
78.65900, 10705.00
79.89500, 10339.00
81.13100, 10097.00
82.36700, 10014.00
83.60200, 10083.00
84.83700, 10161.00
86.07200, 10450.18
87.30800, 10737.00
88.54200, 11320.00
89.77700, 11923.00
91.01200, 12651.00
92.24600, 13301.00
93.48000, 13830.00
94.71400, 14275.00
95.94800, 15045.00
97.18200, 15610.00
98.41600, 15805.00
99.64900, 16100.00
100.8830, 16302.00
102.1160, 16366.00
103.3490, 16338.00
104.5820, 16203.00
105.8150, 16206.00
107.0470, 16066.00
108.2800, 15812.00
109.5120, 15803.00
110.7440, 16237.00
111.9760, 16217.00
113.2080, 16536.00
114.4400, 16407.00
115.6710, 16653.00
116.9030, 16580.00
118.1340, 16210.00
119.3650, 15834.00
120.5960, 15599.00
121.8270, 15016.00
123.0580, 14688.00
124.2880, 14260.00
125.5190, 14128.00
126.7490, 13936.00
127.9790, 13771.00
129.2090, 13809.00
130.4390, 13408.00
131.6680, 13403.00
132.8980, 13299.00
134.1270, 13048.00
135.3560, 12726.00
136.5850, 12551.00
137.8140, 12206.00
139.0430, 12179.00
140.2710, 11966.00
141.5000, 12162.00
142.7280, 11946.00
143.9560, 11836.00
145.1840, 11810.00
146.4120, 11441.00
147.6390, 11376.00
148.8670, 11118.00
150.0940, 10931.00
151.3210, 10461.00
152.5490, 10185.00
153.7750, 9828.000
155.0020, 9415.000
156.2290, 9086.000
157.4550, 8928.000
158.6810, 8848.000
159.9080, 8595.000
161.1340, 8572.000
162.3590, 8431.000
163.5850, 8588.000
164.8110, 8577.000
166.0360, 8609.000
167.2610, 8751.000
168.4860, 8750.000
169.7110, 8809.000
170.9360, 8890.000
172.1610, 8833.000
173.3850, 8845.000
174.6100, 8701.000
175.8340, 8565.000
177.0580, 8330.000
178.2820, 8274.000
179.5050, 8034.000
180.7290, 7786.000
181.9520, 7727.000
183.1760, 7403.000
184.3990, 7410.000
185.6220, 7203.000
186.8450, 7104.000
188.0670, 7106.000
189.2900, 7109.000
190.5120, 6965.000
191.7340, 7062.000
192.9560, 7108.000
194.1780, 7214.000
195.4000, 7381.000
196.6220, 7361.000
197.8430, 7421.000
199.0640, 7601.000
200.2860, 7748.000
201.5070, 7935.000
202.7270, 8039.000
203.9480, 8088.000
205.1690, 8406.000
206.3890, 8443.000
207.6090, 8649.000
208.8290, 8710.000
210.0490, 8862.000
211.2690, 8890.000
212.4890, 9015.000
213.7080, 9041.000
214.9280, 9020.000
216.1470, 9008.000
217.3660, 9033.000
218.5850, 8878.000
219.8030, 8827.000
221.0220, 8807.000
222.2400, 8643.000
223.4590, 8528.000
224.6770, 8247.000
225.8950, 8146.000
227.1120, 7967.000
228.3300, 7863.000
229.5480, 7664.517
230.7650, 7474.297
231.9820, 7252.000
233.1990, 7059.000
234.4160, 6888.347
235.6330, 6710.688
236.8490, 6574.000
238.0660, 6423.000
239.2820, 6296.000
240.4980, 6214.000
241.7140, 6080.000
242.9300, 5977.000
244.1460, 5898.000
245.3610, 5728.000
246.5770, 5545.000
247.7920, 5513.000
249.0070, 5415.000
250.2220, 5341.000
251.4370, 5168.000
252.6510, 5180.000
253.8660, 5021.000
255.0800, 4994.000
256.2940, 5039.000
257.5080, 4904.000
258.7220, 4822.000
259.9360, 4753.000
261.1490, 4725.000
262.3630, 4642.000
263.5760, 4576.000
264.7890, 4547.000
266.0020, 4462.968
267.2150, 4553.000
268.4270, 4364.000
269.6400, 4459.000
270.8520, 4498.000
272.0640, 4457.000
273.2760, 4445.000
274.4880, 4429.000
275.7000, 4408.721
276.9120, 4413.000
278.1230, 4381.000
279.3340, 4391.000
280.5450, 4376.000
281.7560, 4322.000
282.9670, 4307.000
284.1780, 4305.955
285.3880, 4290.000
286.5980, 4303.000
287.8090, 4324.000
289.0190, 4287.000
290.2290, 4280.000
291.4380, 4285.000
292.6480, 4243.000
293.8570, 4263.589
295.0670, 4274.000
296.2760, 4288.000
297.4850, 4283.000
298.6930, 4307.000
299.9020, 4305.000
301.1110, 4244.000
302.3190, 4252.000
303.5270, 4197.000
304.7350, 4269.000
305.9430, 4258.000
307.1510, 4272.000
308.3580, 4277.000
309.5660, 4242.000
310.7730, 4267.000
311.9800, 4190.000
313.1870, 4192.000
314.3940, 4222.000
315.6010, 4224.000
316.8070, 4228.750
318.0130, 4187.000
319.2200, 4218.000
320.4260, 4250.000
321.6310, 4222.000
322.8370, 4157.000
324.0430, 4239.000
325.2480, 4184.000
326.4540, 4289.000
327.6590, 4277.000
328.8640, 4237.000
330.0680, 4260.000
331.2730, 4228.000
332.4780, 4167.000
333.6820, 4248.000
334.8860, 4239.000
336.0900, 4127.000
337.2940, 4246.000
338.4980, 4206.000
339.7010, 4346.000
340.9050, 4309.000
342.1080, 4211.000
343.3110, 4205.000
344.5140, 4234.000
345.7170, 4193.000
346.9200, 4268.000
348.1220, 4278.000
349.3240, 4315.000
350.5270, 4364.000
351.7290, 4329.000
352.9310, 4357.000
354.1320, 4248.000
355.3340, 4230.000
356.5350, 4325.000
357.7370, 4298.000
358.9380, 4381.000
360.1390, 4278.000
361.3400, 4266.000
362.5400, 4282.000
363.7410, 4301.000
364.9410, 4273.000
366.1410, 4417.000
367.3410, 4291.000
368.5410, 4264.000
369.7410, 4434.000
370.9400, 4361.000
372.1400, 4439.000
373.3390, 4375.000
374.5380, 4386.000
375.7370, 4463.000
376.9360, 4395.000
378.1350, 4467.000
379.3330, 4322.000
380.5310, 4288.000
381.7300, 4375.000
382.9280, 4466.000
384.1260, 4351.000
385.3230, 4497.000
386.5210, 4441.000
387.7180, 4437.000
388.9160, 4488.000
390.1130, 4521.000
391.3100, 4487.000
392.5060, 4439.000
393.7030, 4428.000
394.9000, 4441.000
396.0960, 4479.000
397.2920, 4483.000
398.4880, 4449.000
399.6840, 4476.000
400.8800, 4488.000
402.0750, 4447.000
403.2710, 4512.000
404.4660, 4502.000
405.6610, 4497.000
406.8560, 4542.000
408.0510, 4473.000
409.2450, 4483.000
410.4400, 4457.000
411.6340, 4516.000
412.8280, 4538.000
414.0220, 4500.000
415.2160, 4475.000
416.4100, 4465.000
417.6030, 4537.000
418.7970, 4482.000
419.9900, 4484.000
421.1830, 4515.000
422.3760, 4469.000
423.5690, 4576.000
424.7610, 4584.000
425.9540, 4544.000
427.1460, 4460.000
428.3380, 4516.000
429.5300, 4661.000
430.7220, 4556.000
431.9140, 4584.000
433.1050, 4523.000
434.2970, 4520.211
435.4880, 4587.000
436.6790, 4548.000
437.8700, 4574.000
439.0610, 4629.000
440.2510, 4661.000
441.4420, 4585.000
442.6320, 4592.000
443.8220, 4523.000
445.0120, 4628.000
446.2020, 4698.000
447.3910, 4604.000
448.5810, 4689.000
449.7700, 4691.000
450.9600, 4584.000
452.1490, 4660.000
453.3370, 4647.000
454.5260, 4688.000
455.7150, 4689.000
456.9030, 4685.090
458.0910, 4704.000
459.2800, 4682.000
460.4670, 4673.000
461.6550, 4692.000
462.8430, 4664.000
464.0300, 4719.000
465.2180, 4681.000
466.4050, 4712.000
467.5920, 4782.000
468.7790, 4723.000
469.9650, 4689.000
471.1520, 4706.000
472.3380, 4655.000
473.5250, 4702.000
474.7110, 4705.000
475.8970, 4768.000
477.0820, 4764.000
478.2680, 4824.000
479.4540, 4828.957
480.6390, 4802.000
481.8240, 4825.000
483.0090, 4860.000
484.1940, 4820.000
485.3780, 4787.000
486.5630, 4788.000
487.7470, 4857.000
488.9320, 4900.000
490.1160, 4858.000
491.3000, 4791.000
492.4830, 4907.000
493.6670, 4788.000
494.8500, 4831.000
496.0340, 4902.000
497.2170, 4769.000
498.4000, 4873.000
499.5820, 4885.000
500.7650, 4824.000
501.9480, 4891.000
503.1300, 4938.000
504.3120, 4870.000
505.4940, 4899.000
506.6760, 4988.000
507.8580, 4919.000
509.0390, 4982.000
510.2210, 4893.000
511.4020, 4943.000
512.5830, 4985.000
513.7640, 4979.000
514.9450, 4953.000
516.1250, 4914.000
517.3060, 4922.000
518.4860, 4979.000
519.6660, 4895.000
520.8460, 4950.000
522.0260, 4917.000
523.2060, 4920.227
524.3850, 4983.000
525.5650, 4917.000
526.7440, 4966.000
527.9230, 4916.000
529.1020, 4942.000
530.2810, 4892.000
531.4590, 5071.000
532.6380, 4969.000
533.8160, 5031.000
534.9940, 4960.000
536.1720, 5042.000
537.3500, 4958.000
538.5270, 5009.000
539.7050, 4975.000
540.8820, 5025.000
542.0590, 4972.000
543.2360, 5041.000
544.4130, 5027.000
545.5900, 5036.000
546.7660, 5121.000
547.9430, 5016.000
549.1190, 5128.000
550.2950, 5061.000
551.4710, 5038.000
552.6470, 5017.000
553.8220, 5106.000
554.9980, 5080.000
556.1730, 5095.000
557.3480, 5123.000
558.5230, 5034.000
559.6980, 5124.000
560.8730, 5113.000
562.0470, 5069.000
563.2220, 5123.000
564.3960, 5133.000
565.5700, 5157.000
566.7440, 5173.000
567.9170, 5149.000
569.0910, 5142.000
570.2640, 5123.000
571.4380, 5096.000
572.6110, 5145.000
573.7840, 5181.000
574.9570, 5118.000
576.1290, 5193.000
577.3020, 5179.000
578.4740, 5210.000
579.6460, 5257.000
580.8180, 5181.000
581.9900, 5263.000
583.1620, 5306.000
584.3330, 5280.000
585.5040, 5329.000
586.6760, 5243.000
587.8470, 5249.000
589.0180, 5195.000
590.1880, 5218.000
591.3590, 5352.000
592.5290, 5272.000
593.7000, 5343.000
594.8700, 5303.000
596.0400, 5333.000
597.2090, 5273.000
598.3790, 5187.000
599.5490, 5237.000
600.7180, 5352.000
601.8870, 5267.000
603.0560, 5476.000
604.2250, 5304.000
605.3940, 5334.000
606.5620, 5422.000
607.7300, 5375.000
608.8990, 5371.000
610.0670, 5297.000
611.2350, 5444.000
612.4020, 5466.000
613.5700, 5532.000
614.7370, 5534.000
615.9050, 5505.000
617.0720, 5567.000
618.2390, 5505.000
619.4060, 5491.000
620.5720, 5579.000
621.7390, 5573.000
622.9050, 5568.000
624.0710, 5618.000
625.2370, 5634.000
626.4030, 5612.000
627.5690, 5604.000
628.7340, 5645.000
629.9000, 5650.000
631.0650, 5634.000
632.2300, 5596.000
633.3950, 5637.000
634.5600, 5593.000
635.7240, 5636.000
636.8890, 5571.000
638.0530, 5629.000
639.2170, 5608.000
640.3810, 5634.000
641.5450, 5601.000
642.7080, 5572.000
643.8720, 5581.000
645.0350, 5554.000
646.1980, 5585.000
647.3610, 5549.000
648.5240, 5596.000
649.6870, 5567.000
650.8490, 5620.000
652.0120, 5590.000
653.1740, 5613.000
654.3360, 5658.000
655.4980, 5627.000
656.6600, 5640.000
657.8210, 5726.000
658.9830, 5693.000
660.1440, 5887.000
661.3050, 5989.000
662.4660, 5986.000
663.6270, 6168.000
664.7870, 6431.000
665.9480, 6549.000
667.1080, 6562.000
668.2680, 6535.000
669.4280, 6762.000
670.5880, 6856.000
671.7480, 6779.000
672.9070, 6715.000
674.0670, 6610.000
675.2260, 6501.000
676.3850, 6511.000
677.5440, 6434.000
678.7030, 6447.000
679.8610, 6375.000
681.0200, 6368.000
682.1780, 6305.000
683.3360, 6158.000
684.4940, 6055.000
685.6520, 6095.000
686.8090, 6054.000
687.9670, 6029.000
689.1240, 5992.000
690.2810, 6141.000
691.4380, 6212.000
692.5950, 6118.000
693.7520, 6136.000
694.9080, 5945.000
696.0650, 5956.000
697.2210, 5828.000
698.3770, 5793.000
699.5330, 5840.000
700.6880, 5885.000
701.8440, 6012.000
702.9990, 5855.000
704.1550, 5997.000
705.3100, 5930.000
706.4650, 5944.000
707.6190, 5991.000
708.7740, 5987.000
709.9290, 5961.000
711.0830, 5927.000
712.2370, 5931.000
713.3910, 6050.000
714.5450, 6034.000
715.6980, 6041.000
716.8520, 6116.000
718.0050, 6063.000
719.1580, 6058.000
720.3110, 6004.000
721.4640, 6062.000
722.6170, 6126.000
723.7700, 6113.000
724.9220, 6114.000
726.0740, 6063.000
727.2260, 6175.000
728.3780, 6207.000
729.5300, 6265.000
730.6810, 6029.000
731.8330, 6148.000
732.9840, 6112.000
734.1350, 6143.000
735.2860, 6112.000
736.4370, 6042.000
737.5880, 6135.000
738.7380, 6106.000
739.8880, 6189.000
741.0390, 6146.000
742.1890, 6216.000
743.3380, 6176.000
744.4880, 6169.000
745.6380, 6190.000
746.7870, 6108.000
747.9360, 6177.000
749.0850, 6170.000
750.2340, 6196.000
751.3830, 6168.000
752.5310, 6174.000
753.6800, 6218.000
754.8280, 6104.000
755.9760, 6167.000
757.1240, 6259.000
758.2720, 6236.000
759.4190, 6140.000
760.5670, 6252.000
761.7140, 6330.000
762.8610, 6185.000
764.0080, 6244.000
765.1550, 6105.000
766.3020, 6210.000
767.4480, 6283.000
768.5950, 6249.000
769.7410, 6378.000
770.8870, 6290.000
772.0330, 6290.000
773.1780, 6239.000
774.3240, 6233.000
775.4690, 6482.000
776.6140, 6408.000
777.7590, 6340.000
778.9040, 6417.000
780.0490, 6266.000
781.1940, 6330.000
782.3380, 6336.000
783.4820, 6309.000
784.6260, 6422.000
785.7700, 6296.000
786.9140, 6296.000
788.0580, 6399.000
789.2010, 6427.000
790.3450, 6329.000
791.4880, 6437.000
792.6310, 6331.000
793.7730, 6394.000
794.9160, 6390.000
796.0590, 6451.000
797.2010, 6525.000
798.3430, 6421.000
799.4850, 6385.000
800.6270, 6429.000
801.7690, 6505.000
802.9100, 6484.000
804.0520, 6435.000
805.1930, 6562.000
806.3340, 6598.000
807.4750, 6498.000
808.6160, 6590.000
809.7560, 6573.000
810.8970, 6600.000
812.0370, 6577.000
813.1770, 6507.000
814.3170, 6534.000
815.4570, 6492.000
816.5960, 6652.000
817.7360, 6562.000
818.8750, 6647.000
820.0140, 6688.000
821.1530, 6587.000
822.2920, 6684.000
823.4310, 6600.000
824.5690, 6719.000
825.7070, 6778.000
826.8460, 6926.000
827.9840, 7109.000
829.1220, 7250.000
830.2590, 7391.907
831.3970, 7467.000
832.5340, 7651.000
833.6710, 7719.000
834.8080, 7829.000
835.9450, 7791.000
837.0820, 7741.000
838.2190, 7549.000
839.3550, 7340.000
840.4910, 7045.000
841.6270, 7108.000
842.7630, 6889.000
843.8990, 6825.000
845.0350, 6871.000
846.1700, 6865.000
847.3060, 6841.000
848.4410, 6759.000
849.5760, 6666.000
850.7100, 6778.000
851.8450, 6741.000
852.9800, 6823.000
854.1140, 6841.000
855.2480, 6862.000
856.3820, 6807.000
857.5160, 6837.000
858.6500, 6788.000
859.7830, 6818.000
860.9170, 6802.000
862.0500, 6843.000
863.1830, 6828.455
864.3160, 6868.000
865.4480, 6832.000
866.5810, 6833.000
867.7130, 6880.000
868.8460, 6846.000
869.9780, 6816.000
871.1100, 6887.000
872.2410, 6879.000
873.3730, 6946.000
874.5050, 6891.000
875.6360, 6810.000
876.7670, 6922.000
877.8980, 6886.000
879.0290, 7025.000
880.1590, 6858.000
881.2900, 6980.000
882.4200, 6990.000
883.5500, 6889.000
884.6800, 6985.000
885.8100, 6951.000
886.9400, 6979.000
888.0690, 6955.000
889.1990, 7086.000
890.3280, 7069.000
891.4570, 6861.000
892.5860, 6928.000
893.7140, 7071.000
894.8430, 6964.000
895.9710, 7074.000
897.1000, 7065.000
898.2280, 7069.000
899.3560, 7069.088
900.4830, 7069.000
901.6110, 7080.736
902.7380, 7079.000
903.8660, 7096.000
904.9930, 7101.000
906.1200, 7090.000
907.2460, 7013.000
908.3730, 6987.000
909.5000, 7196.000
910.6260, 7099.000
911.7520, 7173.000
912.8780, 7039.000
914.0040, 7231.000
915.1290, 7109.000
916.2550, 7151.000
917.3800, 7158.000
918.5050, 7168.000
919.6300, 7214.000
920.7550, 7228.000
921.8800, 7163.000
923.0040, 7152.000
924.1290, 7209.000
925.2530, 7195.000
926.3770, 7237.000
927.5010, 7269.000
928.6250, 7250.000
929.7480, 7279.000
930.8720, 7252.000
931.9950, 7296.000
933.1180, 7257.000
934.2410, 7383.000
935.3640, 7246.000
936.4860, 7337.000
937.6090, 7290.000
938.7310, 7355.000
939.8530, 7383.000
940.9750, 7386.000
942.0970, 7506.000
943.2180, 7300.000
944.3400, 7290.000
945.4610, 7471.000
946.5820, 7395.000
947.7030, 7429.000
948.8240, 7361.000
949.9450, 7315.000
951.0650, 7480.000
952.1860, 7247.000
953.3060, 7416.000
954.4260, 7512.000
955.5460, 7421.000
956.6650, 7412.000
957.7850, 7500.000
958.9040, 7503.000
960.0230, 7514.000
961.1420, 7529.000
962.2610, 7481.000
963.3800, 7439.000
964.4990, 7478.000
965.6170, 7483.000
966.7350, 7508.000
967.8530, 7552.000
968.9710, 7566.000
970.0890, 7548.000
971.2070, 7530.000
972.3240, 7466.000
973.4410, 7479.432
974.5580, 7500.971
975.6750, 7507.000
976.7920, 7565.000
977.9090, 7641.000
979.0250, 7617.000
980.1410, 7723.000
981.2580, 7672.000
982.3740, 7587.000
983.4890, 7670.000
984.6050, 7698.000
985.7200, 7699.000
986.8360, 7628.000
987.9510, 7765.000
989.0660, 7688.000
990.1810, 7753.000
991.2950, 7665.000
992.4100, 7811.000
993.5240, 7803.000
994.6390, 7746.000
995.7530, 7884.000
996.8660, 7839.000
997.9800, 7836.000
999.0940, 7713.000
1000.207, 7781.000
1001.320, 7881.000
1002.433, 7779.000
1003.546, 7810.000
1004.659, 7849.000
1005.772, 7758.000
1006.884, 7795.000
1007.996, 7740.000
1009.108, 7904.000
1010.220, 7765.000
1011.332, 7894.000
1012.444, 7938.000
1013.555, 7897.000
1014.666, 8015.000
1015.777, 7866.000
1016.888, 7898.000
1017.999, 7881.000
1019.110, 7961.000
1020.220, 8069.000
1021.331, 7985.000
1022.441, 8098.000
1023.551, 8225.000
1024.661, 8144.000
1025.770, 8248.000
1026.880, 8297.000
1027.989, 8332.000
1029.098, 8425.000
1030.207, 8415.995
1031.316, 8431.000
1032.425, 8415.000
1033.533, 8348.000
1034.642, 8330.000
1035.750, 8374.000
1036.858, 8510.000
1037.966, 8678.000
1039.073, 8750.000
1040.181, 8932.000
1041.288, 9419.000
1042.396, 10066.00
1043.503, 11437.00
1044.610, 14700.00
1045.716, 23241.00
1046.823, 39721.00
1047.929, 48788.00
1049.036, 49958.00
1050.142, 58964.00
1051.248, 63367.00
1052.353, 61934.00
1053.459, 55200.00
1054.564, 43458.00
1055.670, 30145.00
1056.775, 18573.00
1057.880, 12521.00
1058.985, 10306.00
1060.089, 9552.000
1061.194, 9169.000
1062.298, 8856.000
1063.402, 8720.000
1064.506, 8674.000
1065.610, 8578.000
1066.713, 8599.000
1067.817, 8424.000
1068.920, 8521.000
1070.023, 8441.000
1071.126, 8352.000
1072.229, 8487.000
1073.332, 8433.000
1074.435, 8412.000
1075.537, 8476.000
1076.639, 8424.000
1077.741, 8371.000
1078.843, 8623.000
1079.945, 8426.000
1081.046, 8615.000
1082.148, 8424.000
1083.249, 8468.000
1084.350, 8419.000
1085.451, 8457.000
1086.551, 8643.000
1087.652, 8558.000
1088.752, 8566.000
1089.853, 8576.000
1090.953, 8526.000
1092.053, 8567.000
1093.152, 8621.000
1094.252, 8611.000
1095.351, 8532.000
1096.451, 8632.000
1097.550, 8578.000
1098.649, 8606.000
1099.748, 8569.000
1100.846, 8666.000
1101.945, 8545.000
1103.043, 8697.000
1104.141, 8665.000
1105.239, 8500.000
1106.337, 8650.000
1107.434, 8753.000
1108.532, 8619.000
1109.629, 8675.000
1110.726, 8657.000
1111.823, 8700.000
1112.920, 8540.000
1114.017, 8680.000
1115.113, 8732.000
1116.210, 8577.000
1117.306, 8781.000
1118.402, 8729.000
1119.498, 8804.000
1120.593, 8865.000
1121.689, 8705.000
1122.784, 8701.000
1123.879, 8793.000
1124.974, 8736.000
1126.069, 8762.000
1127.164, 8802.000
1128.259, 8812.000
1129.353, 8707.000
1130.447, 8782.000
1131.541, 8789.000
1132.635, 8677.000
1133.729, 8730.000
1134.822, 8740.000
1135.916, 8765.000
1137.009, 8789.000
1138.102, 8870.000
1139.195, 8800.000
1140.288, 8868.000
1141.380, 8784.000
1142.473, 8802.000
1143.565, 8822.000
1144.657, 8908.000
1145.749, 8769.000
1146.841, 8868.000
1147.932, 8747.000
1149.024, 8830.000
1150.115, 8924.000
1151.206, 8875.000
1152.297, 8934.000
1153.388, 8951.000
1154.479, 8938.000
1155.569, 8890.000
1156.659, 8950.000
1157.750, 9026.000
1158.839, 8953.000
1159.929, 9010.000
1161.019, 8973.000
1162.108, 8938.000
1163.198, 9004.000
1164.287, 8976.000
1165.376, 9035.000
1166.465, 9111.000
1167.553, 9050.000
1168.642, 9114.000
1169.730, 8995.000
1170.818, 9036.000
1171.906, 9124.000
1172.994, 9181.000
1174.082, 9098.000
1175.170, 9080.000
1176.257, 9169.000
1177.344, 9085.000
1178.431, 9179.000
1179.518, 8978.000
1180.605, 9209.000
1181.691, 9185.000
1182.778, 9060.000
1183.864, 9153.000
1184.950, 9259.000
1186.036, 9210.000
1187.122, 9264.000
1188.207, 9200.000
1189.292, 9195.000
1190.378, 9213.000
1191.463, 9310.000
1192.548, 9283.000
1193.632, 9405.000
1194.717, 9311.000
1195.801, 9276.000
1196.886, 9305.000
1197.970, 9331.000
1199.054, 9296.000
1200.137, 9336.000
1201.221, 9410.000
1202.305, 9349.000
1203.388, 9375.000
1204.471, 9432.000
1205.554, 9404.000
1206.637, 9417.000
1207.719, 9512.000
1208.802, 9406.000
1209.884, 9485.000
1210.966, 9536.000
1212.048, 9619.000
1213.130, 9536.000
1214.212, 9575.000
1215.293, 9495.000
1216.374, 9581.000
1217.456, 9666.000
1218.536, 9614.000
1219.617, 9547.000
1220.698, 9595.000
1221.778, 9506.000
1222.859, 9559.000
1223.939, 9601.000
1225.019, 9590.000
1226.099, 9739.000
1227.178, 9658.000
1228.258, 9720.000
1229.337, 9684.000
1230.417, 9710.000
1231.496, 9848.000
1232.574, 9601.000
1233.653, 9789.000
1234.732, 9763.000
1235.810, 9754.000
1236.888, 9700.000
1237.966, 9728.000
1239.044, 9778.000
1240.122, 9774.000
1241.199, 9882.000
1242.277, 9969.000
1243.354, 9967.000
1244.431, 10019.87
1245.508, 9965.280
1246.585, 10013.00
1247.661, 9904.000
1248.738, 9839.000
1249.814, 9980.000
1250.890, 9951.000
1251.966, 10018.00
1253.042, 9915.000
1254.117, 9954.050
1255.193, 9989.000
1256.268, 9967.000
1257.343, 10049.00
1258.418, 10070.00
1259.493, 10096.00
1260.567, 10169.00
1261.642, 10094.00
1262.716, 10028.00
1263.790, 10227.00
1264.864, 10268.00
1265.938, 10227.00
1267.011, 10356.00
1268.085, 10221.00
1269.158, 10196.00
1270.231, 10145.00
1271.304, 10139.90
1272.377, 10268.00
1273.450, 10184.00
1274.522, 10331.00
1275.594, 10353.00
1276.666, 10285.00
1277.738, 10376.00
1278.810, 10476.00
1279.882, 10510.00
1280.953, 10535.00
1282.025, 10479.00
1283.096, 10525.00
1284.167, 10445.00
1285.238, 10473.75
1286.308, 10439.00
1287.379, 10521.78
1288.449, 10558.00
1289.519, 10627.00
1290.589, 10739.00
1291.659, 10754.65
1292.729, 10862.00
1293.798, 10803.00
1294.868, 10831.00
1295.937, 10805.00
1297.006, 10920.00
1298.075, 10983.00
1299.143, 11015.00
1300.212, 11130.00
1301.280, 11030.00
1302.348, 11084.00
1303.416, 11302.00
1304.484, 11250.00
1305.552, 11242.00
1306.620, 11388.00
1307.687, 11323.00
1308.754, 11435.00
1309.821, 11419.00
1310.888, 11425.00
1311.955, 11409.00
1313.021, 11651.00
1314.088, 11504.00
1315.154, 11704.00
1316.220, 11699.00
1317.286, 11799.00
1318.352, 11794.00
1319.417, 11657.00
1320.483, 11672.00
1321.548, 11921.00
1322.613, 11799.00
1323.678, 11954.00
1324.743, 11846.00
1325.807, 11812.00
1326.872, 11945.00
1327.936, 11896.00
1329.000, 11985.00
1330.064, 11919.00
1331.128, 12172.00
1332.191, 12085.00
1333.255, 12223.00
1334.318, 12275.00
1335.381, 12197.00
1336.444, 12312.00
1337.507, 12418.00
1338.569, 12632.00
1339.632, 12576.00
1340.694, 12656.00
1341.756, 12881.00
1342.818, 12863.00
1343.880, 13143.00
1344.941, 13400.00
1346.003, 13582.00
1347.064, 13788.00
1348.125, 14315.00
1349.186, 14598.00
1350.247, 15005.00
1351.308, 15402.00
1352.368, 15819.00
1353.428, 16529.00
1354.489, 17178.00
1355.549, 17515.00
1356.608, 18386.00
1357.668, 18574.00
1358.727, 18957.00
1359.787, 19279.00
1360.846, 19370.00
1361.905, 19099.00
1362.964, 18998.00
1364.022, 18660.00
1365.081, 18358.00
1366.139, 18119.00
1367.197, 17541.00
1368.255, 17232.00
1369.313, 16885.00
1370.371, 16639.00
1371.428, 16343.00
1372.486, 16143.00
1373.543, 15854.00
1374.600, 15606.00
1375.657, 15354.00
1376.713, 15037.00
1377.770, 14704.00
1378.826, 14308.38
1379.882, 14018.84
1380.938, 13491.00
1381.994, 13389.00
1383.050, 13113.00
1384.106, 12791.00
1385.161, 12842.00
1386.216, 12521.00
1387.271, 12361.00
1388.326, 12461.00
1389.381, 12234.00
1390.435, 12206.00
1391.490, 12110.00
1392.544, 12040.00
1393.598, 12060.00
1394.652, 11882.00
1395.705, 11915.00
1396.759, 11964.00
1397.812, 12027.00
1398.866, 11823.00
1399.919, 11929.00
1400.972, 11899.00
1402.024, 11974.00
1403.077, 11909.00
1404.129, 12069.00
1405.181, 11959.00
1406.233, 12028.00
1407.285, 12056.00
1408.337, 12173.00
1409.389, 12310.00
1410.440, 12217.00
1411.491, 12147.00
1412.542, 12324.00
1413.593, 12223.00
1414.644, 12475.00
1415.695, 12574.00
1416.745, 12359.00
1417.795, 12362.00
1418.845, 12487.00
1419.895, 12557.00
1420.945, 12460.00
1421.995, 12494.00
1423.044, 12429.00
1424.093, 12566.00
1425.142, 12432.00
1426.191, 12630.00
1427.240, 12548.00
1428.289, 12548.00
1429.337, 12595.00
1430.385, 12513.00
1431.433, 12562.00
1432.481, 12519.00
1433.529, 12514.00
1434.577, 12615.00
1435.624, 12565.00
1436.672, 12661.00
1437.719, 12648.00
1438.766, 12737.00
1439.812, 12790.39
1440.859, 12733.00
1441.905, 12911.00
1442.952, 13061.00
1443.998, 13116.17
1445.044, 13092.00
1446.090, 13241.00
1447.135, 13236.00
1448.181, 13305.00
1449.226, 13347.00
1450.271, 13461.00
1451.316, 13686.00
1452.361, 13707.00
1453.405, 13948.00
1454.450, 14134.00
1455.494, 14025.00
1456.538, 14249.00
1457.582, 14321.00
1458.626, 14554.00
1459.670, 14665.82
1460.713, 14848.00
1461.757, 14937.00
1462.800, 15115.00
1463.843, 15297.00
1464.886, 15455.00
1465.928, 15565.00
1466.971, 15562.00
1468.013, 15629.00
1469.055, 15739.02
1470.097, 15693.00
1471.139, 15934.00
1472.181, 16071.00
1473.222, 16106.00
1474.263, 16084.00
1475.305, 16070.00
1476.346, 15953.00
1477.386, 16074.00
1478.427, 15906.00
1479.468, 15868.00
1480.508, 15808.00
1481.548, 15497.00
1482.588, 15424.00
1483.628, 15189.00
1484.668, 14982.00
1485.707, 14867.00
1486.747, 14616.00
1487.786, 14436.00
1488.825, 14365.00
1489.864, 14036.00
1490.902, 14076.00
1491.941, 13815.00
1492.979, 13678.00
1494.017, 13408.00
1495.055, 13320.00
1496.093, 13238.00
1497.131, 13043.00
1498.168, 13077.00
1499.206, 12936.00
1500.243, 12746.00
1501.280, 12669.00
1502.317, 12796.00
1503.354, 12657.00
1504.390, 12722.00
1505.426, 12680.00
1506.463, 12687.00
1507.499, 12609.00
1508.535, 12562.00
1509.570, 12494.00
1510.606, 12410.00
1511.641, 12537.00
1512.676, 12534.00
1513.711, 12483.00
1514.746, 12271.00
1515.781, 12476.00
1516.816, 12497.00
1517.850, 12314.00
1518.884, 12571.00
1519.918, 12445.00
1520.952, 12220.00
1521.986, 12280.00
1523.019, 12271.00
1524.053, 12310.00
1525.086, 12267.00
1526.119, 12323.00
1527.152, 12328.00
1528.185, 12371.00
1529.217, 12351.62
1530.250, 12461.00
1531.282, 12311.00
1532.314, 12375.00
1533.346, 12384.00
1534.377, 12258.00
1535.409, 12367.00
1536.440, 12406.00
1537.472, 12311.00
1538.503, 12460.00
1539.534, 12256.00
1540.564, 12402.00
1541.595, 12282.00
1542.625, 12328.00
1543.656, 12350.00
1544.686, 12217.00
1545.716, 12344.00
1546.745, 12375.00
1547.775, 12409.00
1548.804, 12334.00
1549.834, 12373.00
1550.863, 12532.00
1551.892, 12450.00
1552.920, 12521.00
1553.949, 12499.00
1554.977, 12345.00
1556.006, 12500.00
1557.034, 12428.00
1558.062, 12272.00
1559.089, 12555.00
1560.117, 12457.00
1561.144, 12494.00
1562.172, 12374.00
1563.199, 12450.00
1564.226, 12323.00
1565.252, 12550.00
1566.279, 12570.00
1567.305, 12474.00
1568.332, 12613.00
1569.358, 12527.00
1570.384, 12428.00
##END=



