##NAMES=Chabazite-Ca
##RRUFFID=R050014
##IDEAL CHEMISTRY=Ca_2_Al_4_Si_8_O_24_&#183;13H_2_O
##LOCALITY=Tablo Mountain, Baja California, Mexico
##OWNER=RRUFF
##SOURCE=University of Arizona Mineral Museum
##DESCRIPTION=Light tan colored rhombohedral single crystals
##STATUS=The identification of this mineral has been confirmed by X-ray diffraction and chemical analysis
##URL=rruff.info/R050014
##MEASURED CHEMISTRY=(Ca_0.72_Mg_0.11_K_0.09_Sr_0.06_Na_0.01_)_Σ=1_(Si_4.12_Al_1.88_)O_12_·6H_2_O
##PIN_ID=M00242
##ORIENTATION=Laser parallel to (-1 1 0). Fiducial mark perpendicular to laser is parallel to [1 1 1]
105.8150, 23634.00
107.0470, 24544.00
108.2800, 24482.54
109.5120, 25194.00
110.7440, 24621.00
111.9760, 24373.00
113.2080, 24776.00
114.4400, 25201.00
115.6710, 25319.00
116.9030, 25281.00
118.1340, 25443.00
119.3650, 25542.00
120.5960, 25593.00
121.8270, 25829.00
123.0580, 26091.00
124.2880, 26221.00
125.5190, 26484.00
126.7490, 26725.00
127.9790, 27000.00
129.2090, 27514.00
130.4390, 28032.00
131.6680, 28381.00
132.8980, 29105.00
134.1270, 29822.00
135.3560, 31137.00
136.5850, 32995.00
137.8140, 34930.00
139.0430, 37654.00
140.2710, 40075.00
141.5000, 40845.00
142.7280, 39480.00
143.9560, 37087.00
145.1840, 34466.00
146.4120, 32279.00
147.6390, 30495.00
148.8670, 29498.00
150.0940, 28699.00
151.3210, 28298.00
152.5490, 27508.00
153.7750, 27275.00
155.0020, 26798.00
156.2290, 26412.00
157.4550, 26306.00
158.6810, 26092.00
159.9080, 25833.00
161.1340, 25710.00
162.3590, 25556.00
163.5850, 25789.00
164.8110, 25761.00
166.0360, 25769.00
167.2610, 25770.57
168.4860, 25441.00
169.7110, 25581.00
170.9360, 25489.00
172.1610, 25279.00
173.3850, 25435.00
174.6100, 25479.00
175.8340, 25166.00
177.0580, 25138.00
178.2820, 25079.00
179.5050, 24954.00
180.7290, 25079.00
181.9520, 24928.28
183.1760, 24939.71
184.3990, 24724.00
185.6220, 24903.00
186.8450, 24743.00
188.0670, 24727.00
189.2900, 24805.00
190.5120, 24716.00
191.7340, 24840.00
192.9560, 24768.00
194.1780, 24876.00
195.4000, 24657.00
196.6220, 24839.00
197.8430, 24678.00
199.0640, 24678.00
200.2860, 24381.00
201.5070, 24522.00
202.7270, 24353.00
203.9480, 24036.00
205.1690, 23803.00
206.3890, 23646.00
207.6090, 23538.00
208.8290, 23481.00
210.0490, 23436.00
211.2690, 23432.00
212.4890, 23393.00
213.7080, 23320.55
214.9280, 23218.00
216.1470, 23194.00
217.3660, 23161.00
218.5850, 23175.00
219.8030, 23156.00
221.0220, 23138.00
222.2400, 23035.00
223.4590, 22963.00
224.6770, 22946.00
225.8950, 23039.00
227.1120, 23045.00
228.3300, 22821.00
229.5480, 22968.00
230.7650, 22926.00
231.9820, 23026.00
233.1990, 22958.00
234.4160, 23278.00
235.6330, 23202.00
236.8490, 23149.00
238.0660, 23202.00
239.2820, 23048.00
240.4980, 23263.00
241.7140, 23268.00
242.9300, 23109.00
244.1460, 23069.00
245.3610, 23009.00
246.5770, 23069.00
247.7920, 23194.00
249.0070, 23180.00
250.2220, 23347.00
251.4370, 23139.00
252.6510, 23221.00
253.8660, 23220.00
255.0800, 23099.00
256.2940, 23426.00
257.5080, 23726.00
258.7220, 24125.00
259.9360, 23962.00
261.1490, 23518.00
262.3630, 23519.00
263.5760, 23664.00
264.7890, 23667.00
266.0020, 23750.00
267.2150, 23773.00
268.4270, 23799.00
269.6400, 23807.00
270.8520, 23769.00
272.0640, 24138.00
273.2760, 23927.00
274.4880, 24194.00
275.7000, 24150.00
276.9120, 24146.00
278.1230, 24340.00
279.3340, 24415.00
280.5450, 24585.00
281.7560, 24416.00
282.9670, 24441.00
284.1780, 24376.00
285.3880, 24405.00
286.5980, 24446.00
287.8090, 24483.00
289.0190, 24530.00
290.2290, 24531.00
291.4380, 24376.00
292.6480, 24415.00
293.8570, 24589.00
295.0670, 24475.00
296.2760, 24589.00
297.4850, 24759.00
298.6930, 24843.00
299.9020, 24926.75
301.1110, 24821.00
302.3190, 24977.00
303.5270, 24929.00
304.7350, 24797.00
305.9430, 25032.00
307.1510, 25080.00
308.3580, 25098.00
309.5660, 25407.00
310.7730, 25339.00
311.9800, 25519.00
313.1870, 25431.00
314.3940, 25536.00
315.6010, 25687.00
316.8070, 25650.89
318.0130, 25823.00
319.2200, 25776.00
320.4260, 25944.00
321.6310, 26169.00
322.8370, 26135.00
324.0430, 26069.00
325.2480, 26333.00
326.4540, 26074.00
327.6590, 26283.00
328.8640, 26377.00
330.0680, 26452.00
331.2730, 26338.00
332.4780, 26159.00
333.6820, 26215.00
334.8860, 26314.00
336.0900, 26168.00
337.2940, 26435.00
338.4980, 26099.00
339.7010, 26408.00
340.9050, 26077.00
342.1080, 25927.00
343.3110, 25968.00
344.5140, 25896.00
345.7170, 25933.00
346.9200, 25741.00
348.1220, 26003.00
349.3240, 25734.00
350.5270, 25792.00
351.7290, 25928.00
352.9310, 26109.00
354.1320, 25788.00
355.3340, 25583.00
356.5350, 25746.00
357.7370, 25804.00
358.9380, 25864.00
360.1390, 25739.00
361.3400, 25926.00
362.5400, 25902.00
363.7410, 25928.00
364.9410, 25718.00
366.1410, 25717.00
367.3410, 25868.00
368.5410, 25776.00
369.7410, 25809.00
370.9400, 25897.00
372.1400, 25913.00
373.3390, 25754.00
374.5380, 26158.00
375.7370, 25988.00
376.9360, 26190.00
378.1350, 26101.00
379.3330, 26096.00
380.5310, 26261.00
381.7300, 26277.00
382.9280, 26338.25
384.1260, 26422.00
385.3230, 26447.00
386.5210, 26561.00
387.7180, 26641.00
388.9160, 26825.00
390.1130, 26959.00
391.3100, 27039.00
392.5060, 26964.00
393.7030, 27027.00
394.9000, 27113.00
396.0960, 27031.00
397.2920, 27106.00
398.4880, 27369.00
399.6840, 26975.00
400.8800, 27157.00
402.0750, 26966.00
403.2710, 27282.00
404.4660, 27248.00
405.6610, 27194.00
406.8560, 27145.00
408.0510, 27285.00
409.2450, 27200.00
410.4400, 27410.00
411.6340, 27273.00
412.8280, 27367.00
414.0220, 27498.00
415.2160, 27346.00
416.4100, 27396.00
417.6030, 27710.00
418.7970, 27793.00
419.9900, 27763.00
421.1830, 27896.00
422.3760, 28007.00
423.5690, 28181.00
424.7610, 28522.00
425.9540, 28408.00
427.1460, 29038.00
428.3380, 29085.00
429.5300, 29368.00
430.7220, 29419.00
431.9140, 29708.00
433.1050, 30006.00
434.2970, 30300.00
435.4880, 30642.89
436.6790, 30971.00
437.8700, 31385.00
439.0610, 31750.00
440.2510, 32212.00
441.4420, 32433.00
442.6320, 32751.00
443.8220, 33349.00
445.0120, 33455.00
446.2020, 34048.00
447.3910, 34637.00
448.5810, 34948.00
449.7700, 35227.00
450.9600, 35562.03
452.1490, 35827.17
453.3370, 36025.00
454.5260, 36359.00
455.7150, 36590.00
456.9030, 36820.00
458.0910, 36913.00
459.2800, 36920.00
460.4670, 37266.00
461.6550, 37026.00
462.8430, 36956.00
464.0300, 37123.00
465.2180, 37308.00
466.4050, 37264.00
467.5920, 37247.00
468.7790, 37322.00
469.9650, 37499.00
471.1520, 37826.00
472.3380, 37997.00
473.5250, 38112.00
474.7110, 38231.00
475.8970, 38232.00
477.0820, 38196.00
478.2680, 38394.00
479.4540, 37920.00
480.6390, 37666.00
481.8240, 37560.00
483.0090, 36798.00
484.1940, 36744.00
485.3780, 35810.00
486.5630, 35563.00
487.7470, 34965.00
488.9320, 34587.00
490.1160, 34024.00
491.3000, 33348.00
492.4830, 33411.00
493.6670, 32986.00
494.8500, 32465.00
496.0340, 32189.00
497.2170, 31791.00
498.4000, 31433.00
499.5820, 31322.00
500.7650, 31062.00
501.9480, 30882.00
503.1300, 30841.00
504.3120, 30715.00
505.4940, 30436.00
506.6760, 30441.00
507.8580, 30450.00
509.0390, 30375.00
510.2210, 30138.00
511.4020, 30116.00
512.5830, 30113.00
513.7640, 30042.00
514.9450, 30018.00
516.1250, 29978.00
517.3060, 29923.45
518.4860, 29916.00
519.6660, 29826.00
520.8460, 29718.00
522.0260, 29664.00
523.2060, 29499.00
524.3850, 29363.00
525.5650, 29477.00
526.7440, 29557.00
527.9230, 29479.00
529.1020, 29333.00
530.2810, 29372.00
531.4590, 29334.00
532.6380, 29276.00
533.8160, 29408.00
534.9940, 29441.00
536.1720, 29223.00
537.3500, 29402.00
538.5270, 29231.00
539.7050, 29338.00
540.8820, 29397.00
542.0590, 29370.00
543.2360, 29197.00
544.4130, 29567.00
545.5900, 29372.00
546.7660, 29239.00
547.9430, 29528.00
549.1190, 29297.00
550.2950, 29456.00
551.4710, 29324.00
552.6470, 29262.00
553.8220, 29177.00
554.9980, 29318.00
556.1730, 29403.00
557.3480, 29367.00
558.5230, 29662.00
559.6980, 29280.00
560.8730, 29466.00
562.0470, 29277.00
563.2220, 29519.00
564.3960, 29511.00
565.5700, 29305.00
566.7440, 29651.00
567.9170, 29430.00
569.0910, 29608.00
570.2640, 29630.00
571.4380, 29692.00
572.6110, 29749.00
573.7840, 29743.10
574.9570, 29593.00
576.1290, 29776.00
577.3020, 29610.00
578.4740, 29696.00
579.6460, 29646.00
580.8180, 29805.00
581.9900, 29822.00
583.1620, 29747.00
584.3330, 29800.44
585.5040, 29677.00
586.6760, 29759.00
587.8470, 29814.00
589.0180, 29811.00
590.1880, 29945.00
591.3590, 29833.00
592.5290, 30037.00
593.7000, 29988.00
594.8700, 29943.00
596.0400, 29965.00
597.2090, 29983.40
598.3790, 30006.00
599.5490, 30080.00
600.7180, 30180.00
601.8870, 30214.00
603.0560, 30196.00
604.2250, 30201.00
605.3940, 30240.00
606.5620, 30196.00
607.7300, 30196.00
608.8990, 30433.00
610.0670, 30383.62
611.2350, 30605.00
612.4020, 30511.00
613.5700, 30674.00
614.7370, 30820.00
615.9050, 30655.00
617.0720, 30742.00
618.2390, 30660.00
619.4060, 30899.00
620.5720, 30852.00
621.7390, 30843.00
622.9050, 31169.00
624.0710, 31407.00
625.2370, 31398.00
626.4030, 31372.00
627.5690, 31693.00
628.7340, 31631.00
629.9000, 31875.00
631.0650, 32003.00
632.2300, 31958.00
633.3950, 32296.00
634.5600, 32280.00
635.7240, 32311.00
636.8890, 32634.00
638.0530, 32272.00
639.2170, 32290.00
640.3810, 32337.00
641.5450, 32184.00
642.7080, 32226.00
643.8720, 32228.00
645.0350, 32025.00
646.1980, 31980.00
647.3610, 31953.00
648.5240, 31750.00
649.6870, 31793.00
650.8490, 31887.00
652.0120, 31780.00
653.1740, 31683.00
654.3360, 31658.00
655.4980, 31640.00
656.6600, 31816.00
657.8210, 31783.00
658.9830, 31755.00
660.1440, 32007.00
661.3050, 31818.00
662.4660, 31757.00
663.6270, 31732.00
664.7870, 31598.00
665.9480, 31692.00
667.1080, 31837.00
668.2680, 31768.00
669.4280, 31609.00
670.5880, 31955.00
671.7480, 32209.00
672.9070, 31935.00
674.0670, 31850.00
675.2260, 31913.00
676.3850, 32061.00
677.5440, 32022.00
678.7030, 32062.77
679.8610, 31830.00
681.0200, 32091.00
682.1780, 31935.00
683.3360, 32056.00
684.4940, 32175.00
685.6520, 32031.00
686.8090, 32138.00
687.9670, 32125.00
689.1240, 32183.00
690.2810, 32064.00
691.4380, 32250.00
692.5950, 32324.00
693.7520, 32326.00
694.9080, 32477.00
696.0650, 32240.00
697.2210, 32300.00
698.3770, 32491.00
699.5330, 32307.00
700.6880, 32656.00
701.8440, 32261.00
702.9990, 32642.00
704.1550, 32782.00
705.3100, 32854.00
706.4650, 32783.00
707.6190, 32675.00
708.7740, 33000.00
709.9290, 32978.00
711.0830, 33313.00
712.2370, 33095.00
713.3910, 33072.00
714.5450, 33211.00
715.6980, 33136.00
716.8520, 32826.00
718.0050, 33159.00
719.1580, 33292.00
720.3110, 32973.00
721.4640, 33412.00
722.6170, 32941.00
723.7700, 33202.00
724.9220, 33455.00
726.0740, 33161.00
727.2260, 33304.00
728.3780, 33221.00
729.5300, 33148.00
730.6810, 33314.00
731.8330, 33570.00
732.9840, 33401.00
734.1350, 33423.00
735.2860, 33579.00
736.4370, 33343.00
737.5880, 33570.00
738.7380, 33690.00
739.8880, 33478.00
741.0390, 33504.00
742.1890, 33732.00
743.3380, 33679.00
744.4880, 33831.00
745.6380, 33523.00
746.7870, 33776.00
747.9360, 33743.00
749.0850, 33698.00
750.2340, 33843.00
751.3830, 33905.00
752.5310, 33731.00
753.6800, 33968.00
754.8280, 34018.00
755.9760, 33932.00
757.1240, 33909.00
758.2720, 34054.00
759.4190, 34058.00
760.5670, 34113.00
761.7140, 34345.00
762.8610, 34196.00
764.0080, 34137.00
765.1550, 34251.00
766.3020, 34510.00
767.4480, 34334.00
768.5950, 34424.00
769.7410, 34309.00
770.8870, 34437.00
772.0330, 34509.00
773.1780, 34501.00
774.3240, 34708.00
775.4690, 34524.00
776.6140, 34784.00
777.7590, 34386.00
778.9040, 34538.00
780.0490, 34730.00
781.1940, 34572.00
782.3380, 34691.00
783.4820, 34598.00
784.6260, 34693.00
785.7700, 34794.00
786.9140, 34829.00
788.0580, 34808.00
789.2010, 34898.00
790.3450, 34742.00
791.4880, 35141.00
792.6310, 34902.00
793.7730, 34717.00
794.9160, 34965.00
796.0590, 34898.00
797.2010, 34923.00
798.3430, 34880.46
799.4850, 35129.61
800.6270, 35281.11
801.7690, 35340.23
802.9100, 35030.23
804.0520, 35196.86
805.1930, 35172.46
806.3340, 35140.24
807.4750, 35373.93
808.6160, 35117.61
809.7560, 35347.07
810.8970, 35382.62
812.0370, 35506.91
813.1770, 35439.01
814.3170, 35430.46
815.4570, 35614.17
816.5960, 35691.41
817.7360, 35601.38
818.8750, 35731.29
820.0140, 35468.21
821.1530, 35549.98
822.2920, 35780.53
823.4310, 35700.15
824.5690, 35833.54
825.7070, 35885.51
826.8460, 35567.45
827.9840, 35892.92
829.1220, 35940.08
830.2590, 35701.44
831.3970, 36004.86
832.5340, 35805.62
833.6710, 35785.79
834.8080, 35900.98
835.9450, 35875.41
837.0820, 36071.76
838.2190, 36054.33
839.3550, 36017.77
840.4910, 36064.57
841.6270, 35875.16
842.7630, 36123.96
843.8990, 36073.43
845.0350, 36171.68
846.1700, 36303.64
847.3060, 36177.39
848.4410, 36324.51
849.5760, 36047.66
850.7100, 36125.54
851.8450, 36165.23
852.9800, 36431.68
854.1140, 36156.87
855.2480, 36224.89
856.3820, 36438.88
857.5160, 36448.62
858.6500, 36543.76
859.7830, 36386.07
860.9170, 36465.89
862.0500, 36480.23
863.1830, 36720.78
864.3160, 36782.75
865.4480, 36629.32
866.5810, 36476.83
867.7130, 36733.64
868.8460, 36602.51
869.9780, 36804.00
871.1100, 37071.00
872.2410, 36781.00
873.3730, 37101.00
874.5050, 36988.00
875.6360, 36831.00
876.7670, 37304.00
877.8980, 36852.00
879.0290, 36947.00
880.1590, 37207.00
881.2900, 37074.29
882.4200, 37399.00
883.5500, 37217.00
884.6800, 37295.00
885.8100, 37321.00
886.9400, 37503.00
888.0690, 37334.00
889.1990, 37295.00
890.3280, 37423.00
891.4570, 37147.00
892.5860, 37442.00
893.7140, 37734.00
894.8430, 37634.00
895.9710, 37645.00
897.1000, 37660.05
898.2280, 37604.34
899.3560, 37525.00
900.4830, 37606.00
901.6110, 37518.00
902.7380, 37627.00
903.8660, 37840.00
904.9930, 38025.00
906.1200, 38092.00
907.2460, 37874.00
908.3730, 37934.00
909.5000, 37894.00
910.6260, 37910.00
911.7520, 37928.00
912.8780, 38195.00
914.0040, 38413.00
915.1290, 38280.00
916.2550, 38420.00
917.3800, 38362.00
918.5050, 38461.00
919.6300, 38483.74
920.7550, 38550.00
921.8800, 38530.00
923.0040, 38519.00
924.1290, 38530.76
925.2530, 38581.27
926.3770, 38641.00
927.5010, 38683.00
928.6250, 38753.00
929.7480, 38723.00
930.8720, 38987.00
931.9950, 39061.00
933.1180, 38962.00
934.2410, 39091.12
935.3640, 39040.00
936.4860, 39065.00
937.6090, 39151.00
938.7310, 39051.00
939.8530, 39164.24
940.9750, 39059.00
942.0970, 39269.00
943.2180, 39366.00
944.3400, 39353.00
945.4610, 39372.00
946.5820, 39536.00
947.7030, 39499.00
948.8240, 39341.00
949.9450, 39740.00
951.0650, 39863.00
952.1860, 39731.00
953.3060, 39795.00
954.4260, 39961.00
955.5460, 39866.00
956.6650, 39857.00
957.7850, 40100.00
958.9040, 40102.00
960.0230, 40231.00
961.1420, 40231.00
962.2610, 40411.00
963.3800, 40549.00
964.4990, 40281.00
965.6170, 40468.00
966.7350, 40362.00
967.8530, 40470.00
968.9710, 40510.00
970.0890, 40667.00
971.2070, 40741.00
972.3240, 40725.00
973.4410, 40827.98
974.5580, 40902.26
975.6750, 40896.00
976.7920, 41013.00
977.9090, 41003.00
979.0250, 40859.00
980.1410, 41093.00
981.2580, 41000.00
982.3740, 41159.00
983.4890, 41063.00
984.6050, 41537.00
985.7200, 41572.00
986.8360, 41790.00
987.9510, 41927.00
989.0660, 41688.00
990.1810, 41700.00
991.2950, 41649.00
992.4100, 41747.00
993.5240, 41526.00
994.6390, 41693.00
995.7530, 41689.00
996.8660, 41954.00
997.9800, 41790.00
999.0940, 41906.00
1000.207, 41838.00
1001.320, 41980.00
1002.433, 42045.00
1003.546, 42186.00
1004.659, 42151.19
1005.772, 42113.00
1006.884, 42102.00
1007.996, 42381.00
1009.108, 42471.00
1010.220, 42548.00
1011.332, 42543.00
1012.444, 42604.00
1013.555, 42561.00
1014.666, 42665.00
1015.777, 42699.00
1016.888, 42723.00
1017.999, 42791.00
1019.110, 42822.00
1020.220, 42717.00
1021.331, 42766.10
1022.441, 42801.07
1023.551, 42808.00
1024.661, 42929.00
1025.770, 42976.94
1026.880, 43052.33
1027.989, 43164.00
1029.098, 43229.00
1030.207, 43353.00
1031.316, 43478.00
1032.425, 43691.00
1033.533, 43675.00
1034.642, 43720.00
1035.750, 43330.00
1036.858, 43616.00
1037.966, 43853.00
1039.073, 43418.00
1040.181, 43940.00
1041.288, 44334.00
1042.396, 44578.00
1043.503, 43988.00
1044.610, 44015.00
1045.716, 44295.00
1046.823, 44127.00
1047.929, 44229.00
1049.036, 43943.00
1050.142, 44134.00
1051.248, 44519.00
1052.353, 44290.00
1053.459, 44487.00
1054.564, 44419.00
1055.670, 44648.00
1056.775, 44825.00
1057.880, 44486.00
1058.985, 44578.00
1060.089, 44979.00
1061.194, 44867.00
1062.298, 44989.00
1063.402, 44966.00
1064.506, 45222.00
1065.610, 45282.00
1066.713, 45233.00
1067.817, 45283.00
1068.920, 45518.00
1070.023, 45217.00
1071.126, 45565.00
1072.229, 45471.00
1073.332, 45486.00
1074.435, 45676.02
1075.537, 45929.88
1076.639, 46086.10
1077.741, 46149.93
1078.843, 45844.67
1079.945, 46016.02
1081.046, 45996.34
1082.148, 45968.86
1083.249, 46207.26
1084.350, 45955.66
1085.451, 46189.84
1086.551, 46230.09
1087.652, 46359.11
1088.752, 46295.91
1089.853, 46292.11
1090.953, 46480.52
1092.053, 46562.49
1093.152, 46477.15
1094.252, 46611.78
1095.351, 46666.00
1096.451, 46508.00
1097.550, 46571.00
1098.649, 46610.00
1099.748, 46738.00
1100.846, 46762.00
1101.945, 46717.00
1103.043, 46850.00
1104.141, 46819.00
1105.239, 46940.00
1106.337, 46856.00
1107.434, 46874.89
1108.532, 46830.00
1109.629, 46840.00
1110.726, 46855.00
1111.823, 46848.00
1112.920, 46809.00
1114.017, 46762.00
1115.113, 47049.00
1116.210, 47239.00
1117.306, 47211.00
1118.402, 47405.00
1119.498, 47320.95
1120.593, 47403.00
1121.689, 47239.00
1122.784, 47475.00
1123.879, 47635.00
1124.974, 47508.00
1126.069, 47597.00
1127.164, 47714.00
1128.259, 47537.00
1129.353, 47819.00
1130.447, 47809.00
1131.541, 47605.00
1132.635, 47520.00
1133.729, 47470.00
1134.822, 47858.00
1135.916, 47708.00
1137.009, 47707.00
1138.102, 47938.00
1139.195, 47839.00
1140.288, 48134.00
1141.380, 47589.00
1142.473, 47742.00
1143.565, 47901.00
1144.657, 47633.00
1145.749, 47898.00
1146.841, 47841.00
1147.932, 47802.00
1149.024, 47769.00
1150.115, 47818.00
1151.206, 47788.00
1152.297, 47872.00
1153.388, 48040.00
1154.479, 48130.00
1155.569, 48155.88
1156.659, 48140.00
1157.750, 48182.00
1158.839, 47954.00
1159.929, 47973.00
1161.019, 48162.00
1162.108, 48007.00
1163.198, 48087.00
1164.287, 48209.00
1165.376, 48372.00
1166.465, 48349.00
1167.553, 48349.00
1168.642, 48352.00
1169.730, 48170.00
1170.818, 48599.00
1171.906, 48352.00
1172.994, 48157.00
1174.082, 48509.00
1175.170, 48239.00
1176.257, 48810.00
1177.344, 48586.00
1178.431, 48303.00
1179.518, 48802.00
1180.605, 48721.00
1181.691, 48713.00
1182.778, 48698.00
1183.864, 48837.00
1184.950, 48814.00
1186.036, 48559.00
1187.122, 48972.00
1188.207, 48805.89
1189.292, 48626.00
1190.378, 48900.00
1191.463, 48948.00
1192.548, 49135.00
1193.632, 48861.00
1194.717, 49062.00
1195.801, 48981.00
1196.886, 49235.00
1197.970, 49428.00
1199.054, 49138.00
1200.137, 49649.00
1201.221, 49523.00
1202.305, 49280.00
1203.388, 49206.00
1204.471, 49474.00
1205.554, 49307.00
1206.637, 49694.00
1207.719, 49614.00
1208.802, 49785.00
1209.884, 49551.00
1210.966, 49852.00
1212.048, 49909.00
1213.130, 49766.00
1214.212, 50001.00
1215.293, 50045.00
1216.374, 49922.00
1217.456, 49819.00
1218.536, 50197.00
1219.617, 49929.00
1220.698, 50198.00
1221.778, 50335.00
1222.859, 50247.00
1223.939, 50398.00
1225.019, 50027.00
1226.099, 50327.00
1227.178, 50657.00
1228.258, 50657.00
1229.337, 50275.00
1230.417, 50488.00
1231.496, 50505.00
1232.574, 50762.00
1233.653, 50812.00
1234.732, 50856.00
1235.810, 50907.21
1236.888, 50997.00
1237.966, 50840.00
1239.044, 50957.00
1240.122, 50876.00
1241.199, 50965.00
1242.277, 51012.86
1243.354, 51077.00
1244.431, 51110.00
1245.508, 51148.00
1246.585, 51141.00
1247.661, 51228.00
1248.738, 51357.00
1249.814, 51328.00
1250.890, 51197.00
1251.966, 51713.00
1253.042, 51359.00
1254.117, 51200.00
1255.193, 51601.00
1256.268, 51538.00
1257.343, 51718.00
1258.418, 51903.00
1259.493, 52107.00
1260.567, 52162.69
1261.642, 51887.00
1262.716, 52163.00
1263.790, 52163.00
1264.864, 51954.00
1265.938, 52039.00
1267.011, 52085.00
1268.085, 52049.00
1269.158, 52164.00
1270.231, 52299.00
1271.304, 52170.00
1272.377, 52072.00
1273.450, 52169.00
1274.522, 52558.00
1275.594, 52331.00
1276.666, 52643.00
1277.738, 52606.00
1278.810, 52717.00
1279.882, 52686.00
1280.953, 52692.00
1282.025, 52954.00
1283.096, 52449.00
1284.167, 52606.00
1285.238, 52832.00
1286.308, 52647.00
1287.379, 52684.00
1288.449, 52723.00
1289.519, 52787.00
1290.589, 53399.00
1291.659, 53219.00
1292.729, 53465.00
1293.798, 53380.00
1294.868, 53529.00
1295.937, 53444.00
1297.006, 53696.00
1298.075, 53737.00
1299.143, 53604.00
1300.212, 53914.00
1301.280, 53931.00
1302.348, 53784.00
1303.416, 53872.00
1304.484, 54252.00
1305.552, 54031.00
1306.620, 53966.00
1307.687, 54321.00
1308.754, 54191.00
1309.821, 53957.00
1310.888, 54157.00
1311.955, 54504.00
1313.021, 54197.00
1314.088, 54311.00
1315.154, 54559.00
1316.220, 54598.00
1317.286, 54405.00
1318.352, 54520.00
1319.417, 54696.00
1320.483, 54529.00
1321.548, 54935.00
1322.613, 54754.00
1323.678, 54814.00
1324.743, 54821.00
1325.807, 54851.52
1326.872, 54835.00
1327.936, 54910.30
1329.000, 54925.00
1330.064, 55082.00
1331.128, 55241.00
1332.191, 55396.00
1333.255, 55514.00
1334.318, 55305.00
1335.381, 55123.00
1336.444, 55045.00
1337.507, 55216.00
1338.569, 55052.00
1339.632, 55389.00
1340.694, 55465.00
1341.756, 55452.00
1342.818, 55599.00
1343.880, 55493.00
1344.941, 55641.00
1346.003, 55916.00
1347.064, 55830.00
1348.125, 55934.00
1349.186, 55634.00
1350.247, 55983.00
1351.308, 56099.00
1352.368, 56389.00
1353.428, 56327.00
1354.489, 55986.00
1355.549, 56289.00
1356.608, 56446.00
1357.668, 56422.00
1358.727, 56691.00
1359.787, 56475.00
1360.846, 56777.00
1361.905, 56339.00
1362.964, 56779.00
1364.022, 56604.00
1365.081, 56761.00
1366.139, 56836.00
1367.197, 56694.00
1368.255, 56640.00
1369.313, 57209.00
1370.371, 57010.00
1371.428, 57045.00
1372.486, 56881.00
1373.543, 56971.00
1374.600, 57081.00
1375.657, 57168.00
1376.713, 57065.00
1377.770, 57307.00
1378.826, 57263.00
1379.882, 57347.07
1380.938, 57444.67
1381.994, 57488.00
1383.050, 57521.00
1384.106, 57576.00
1385.161, 57487.00
1386.216, 57656.00
1387.271, 57668.00
1388.326, 57544.00
1389.381, 57883.00
1390.435, 57763.78
1391.490, 57518.00
1392.544, 57919.00
1393.598, 57769.00
1394.652, 58134.00
1395.705, 57990.00
1396.759, 57809.00
1397.812, 58219.00
1398.866, 57593.00
1399.919, 57968.00
1400.972, 58017.00
1402.024, 58079.00
1403.077, 58371.00
1404.129, 58273.00
1405.181, 58555.00
1406.233, 58350.00
1407.285, 58530.00
1408.337, 58542.00
1409.389, 58232.00
1410.440, 58390.00
1411.491, 58333.00
1412.542, 58675.00
1413.593, 58884.00
1414.644, 58629.00
1415.695, 58914.00
1416.745, 58804.00
1417.795, 58621.00
1418.845, 59006.00
1419.895, 59057.00
1420.945, 59125.00
1421.995, 58846.00
1423.044, 59105.00
1424.093, 59060.00
1425.142, 59142.00
1426.191, 59429.00
1427.240, 59099.00
1428.289, 59474.00
1429.337, 59594.00
1430.385, 59505.00
1431.433, 59399.00
1432.481, 59621.00
1433.529, 59524.00
1434.577, 59750.00
1435.624, 59936.00
1436.672, 59989.00
1437.719, 59856.00
1438.766, 60081.00
1439.812, 59867.00
1440.859, 60061.00
1441.905, 60230.00
1442.952, 59822.00
1443.998, 60053.00
1445.044, 60117.00
1446.090, 60330.00
1447.135, 60414.00
1448.181, 60313.00
1449.226, 60342.00
1450.271, 60190.00
1451.316, 60297.00
1452.361, 60498.00
1453.405, 60427.79
1454.450, 60638.24
1455.494, 60627.00
1456.538, 60702.00
1457.582, 60746.21
1458.626, 60690.00
1459.670, 60757.00
1460.713, 60710.00
1461.757, 60694.00
1462.800, 60875.00
1463.843, 60993.00
1464.886, 61018.00
1465.928, 61013.00
1466.971, 60727.00
1468.013, 61249.00
1469.055, 61223.00
1470.097, 60857.00
1471.139, 61220.00
1472.181, 60960.00
1473.222, 61452.00
1474.263, 61048.00
1475.305, 61202.00
1476.346, 61430.00
1477.386, 61413.00
1478.427, 61775.00
1479.468, 61481.00
1480.508, 61724.00
1481.548, 61571.00
1482.588, 61384.00
1483.628, 61745.00
1484.668, 61741.00
1485.707, 61746.00
1486.747, 61976.00
1487.786, 61764.00
1488.825, 61986.00
1489.864, 62026.00
1490.902, 62100.00
1491.941, 62215.00
1492.979, 62312.00
1494.017, 62135.00
1495.055, 62348.00
1496.093, 62210.00
1497.131, 62052.00
1498.168, 62355.00
1499.206, 61948.00
1500.243, 62546.00
1501.280, 62358.00
1502.317, 62512.00
1503.354, 62407.00
1504.390, 62535.00
1505.426, 62635.00
1506.463, 62740.00
1507.499, 62877.00
1508.535, 62547.00
1509.570, 62661.00
1510.606, 62866.00
1511.641, 62620.00
1512.676, 63042.00
1513.711, 62866.00
1514.746, 63223.00
1515.781, 63248.00
1516.816, 63122.00
1517.850, 63584.00
1518.884, 63299.00
1519.918, 63350.00
1520.952, 63244.00
1521.986, 63363.00
1523.019, 63311.00
1524.053, 63319.00
1525.086, 63681.00
1526.119, 63293.00
1527.152, 63576.00
1528.185, 64059.00
1529.217, 63566.00
1530.250, 63928.00
1531.282, 63560.00
1532.314, 63931.00
1533.346, 64009.00
1534.377, 63986.00
1535.409, 64154.00
1536.440, 64247.00
1537.472, 64294.00
1538.503, 64348.79
1539.534, 64357.00
1540.564, 64369.00
1541.595, 64243.00
1542.625, 64251.00
1543.656, 64199.00
1544.686, 64566.00
1545.716, 64586.00
1546.745, 64576.00
1547.775, 64537.00
1548.804, 64564.00
1549.834, 64563.20
1550.863, 64869.00
1551.892, 64684.00
1552.920, 65017.00
1553.949, 65282.00
1554.977, 65064.00
1556.006, 64793.00
1557.034, 65246.00
1558.062, 64989.00
1559.089, 65166.00
1560.117, 65122.00
1561.144, 65436.00
1562.172, 65508.00
1563.199, 65359.00
1564.226, 65448.00
1565.252, 65252.00
1566.279, 65525.00
1567.305, 65535.00
1568.332, 65535.00
1569.358, 65535.00
1570.384, 65535.00
1571.409, 65535.00
1572.435, 65535.00
##END=



