##NAMES=Chabazite-Ca
##RRUFFID=R050014
##IDEAL CHEMISTRY=Ca_2_Al_4_Si_8_O_24_&#183;13H_2_O
##LOCALITY=Tablo Mountain, Baja California, Mexico
##OWNER=RRUFF
##SOURCE=University of Arizona Mineral Museum
##DESCRIPTION=Light tan colored rhombohedral single crystals
##STATUS=The identification of this mineral has been confirmed by X-ray diffraction and chemical analysis
##URL=rruff.info/R050014
##MEASURED CHEMISTRY=(Ca_0.72_Mg_0.11_K_0.09_Sr_0.06_Na_0.01_)_Σ=1_(Si_4.12_Al_1.88_)O_12_·6H_2_O
##PIN_ID=M00242
##ORIENTATION=Laser parallel to (-1 1 0). Fiducial mark perpendicular to laser is parallel to [1 1 1]
105.8150, 31897.98
107.0470, 32330.72
108.2800, 32394.69
109.5120, 32934.95
110.7440, 33284.20
111.9760, 33625.62
113.2080, 34232.96
114.4400, 34969.00
115.6710, 35481.00
116.9030, 35234.00
118.1340, 35112.00
119.3650, 35230.00
120.5960, 35455.00
121.8270, 35751.00
123.0580, 36136.00
124.2880, 36586.00
125.5190, 36324.00
126.7490, 37119.00
127.9790, 37464.00
129.2090, 38231.00
130.4390, 39130.00
131.6680, 39919.00
132.8980, 41028.00
134.1270, 42662.00
135.3560, 44762.00
136.5850, 47274.00
137.8140, 51006.00
139.0430, 55889.00
140.2710, 59985.00
141.5000, 61880.00
142.7280, 60759.00
143.9560, 56835.00
145.1840, 52013.00
146.4120, 48091.00
147.6390, 44465.00
148.8670, 41958.00
150.0940, 40450.00
151.3210, 38982.00
152.5490, 38037.00
153.7750, 37082.00
155.0020, 36213.00
156.2290, 35547.00
157.4550, 35185.00
158.6810, 34385.00
159.9080, 34139.00
161.1340, 33703.00
162.3590, 33682.00
163.5850, 33230.00
164.8110, 33388.00
166.0360, 32852.00
167.2610, 32807.00
168.4860, 32544.00
169.7110, 32561.00
170.9360, 32158.00
172.1610, 32065.00
173.3850, 32164.00
174.6100, 31829.00
175.8340, 31501.00
177.0580, 31296.00
178.2820, 31306.00
179.5050, 30990.00
180.7290, 31175.00
181.9520, 30909.00
183.1760, 30851.00
184.3990, 30435.00
185.6220, 30604.00
186.8450, 30461.00
188.0670, 29966.00
189.2900, 29836.00
190.5120, 29981.00
191.7340, 30138.00
192.9560, 29961.00
194.1780, 30064.00
195.4000, 29597.00
196.6220, 29638.00
197.8430, 29128.00
199.0640, 29353.00
200.2860, 29199.00
201.5070, 29059.00
202.7270, 28629.00
203.9480, 28151.00
205.1690, 27583.00
206.3890, 27198.00
207.6090, 27072.00
208.8290, 26688.00
210.0490, 26671.00
211.2690, 26866.00
212.4890, 26875.00
213.7080, 26502.00
214.9280, 26283.00
216.1470, 26293.00
217.3660, 26179.00
218.5850, 25995.00
219.8030, 25993.00
221.0220, 25863.00
222.2400, 25703.00
223.4590, 25693.00
224.6770, 25655.00
225.8950, 25439.00
227.1120, 25651.00
228.3300, 25300.00
229.5480, 25437.00
230.7650, 25297.00
231.9820, 25480.00
233.1990, 25310.00
234.4160, 25415.00
235.6330, 25479.00
236.8490, 25335.00
238.0660, 25326.00
239.2820, 25225.00
240.4980, 25418.00
241.7140, 25315.00
242.9300, 25381.00
244.1460, 25305.00
245.3610, 25423.00
246.5770, 25141.00
247.7920, 25432.00
249.0070, 25091.54
250.2220, 25354.81
251.4370, 25520.44
252.6510, 25593.64
253.8660, 25297.79
255.0800, 25478.51
256.2940, 25468.23
257.5080, 25450.11
258.7220, 25697.91
259.9360, 25455.71
261.1490, 25699.26
262.3630, 25748.92
263.5760, 25887.30
264.7890, 25833.50
266.0020, 25804.00
267.2150, 25886.00
268.4270, 26007.00
269.6400, 26001.00
270.8520, 26108.00
272.0640, 26394.00
273.2760, 26475.00
274.4880, 26711.00
275.7000, 26659.00
276.9120, 27016.00
278.1230, 27017.00
279.3340, 27273.00
280.5450, 27183.00
281.7560, 27219.00
282.9670, 27186.00
284.1780, 27201.00
285.3880, 26931.00
286.5980, 26936.00
287.8090, 26980.00
289.0190, 27103.00
290.2290, 27023.00
291.4380, 27005.00
292.6480, 27004.00
293.8570, 26966.00
295.0670, 26943.00
296.2760, 27217.00
297.4850, 27127.00
298.6930, 27228.00
299.9020, 27210.00
301.1110, 27412.00
302.3190, 27493.00
303.5270, 27456.91
304.7350, 27646.00
305.9430, 27546.00
307.1510, 27478.00
308.3580, 27872.00
309.5660, 27877.00
310.7730, 27796.00
311.9800, 28400.00
313.1870, 28244.00
314.3940, 28296.00
315.6010, 28539.00
316.8070, 28823.00
318.0130, 28800.00
319.2200, 29092.00
320.4260, 29005.00
321.6310, 29053.00
322.8370, 29343.00
324.0430, 29321.00
325.2480, 29550.00
326.4540, 29468.00
327.6590, 29706.00
328.8640, 29596.00
330.0680, 29820.00
331.2730, 29759.00
332.4780, 29384.00
333.6820, 29547.00
334.8860, 29364.00
336.0900, 29188.00
337.2940, 29256.00
338.4980, 29017.00
339.7010, 29006.00
340.9050, 28935.00
342.1080, 28467.00
343.3110, 28763.00
344.5140, 28278.00
345.7170, 28496.00
346.9200, 28394.00
348.1220, 28221.00
349.3240, 28074.00
350.5270, 27990.00
351.7290, 27956.00
352.9310, 27917.00
354.1320, 27711.00
355.3340, 27835.00
356.5350, 27663.00
357.7370, 27698.00
358.9380, 27711.00
360.1390, 27435.00
361.3400, 27781.00
362.5400, 27540.00
363.7410, 27702.00
364.9410, 27564.00
366.1410, 27737.00
367.3410, 27443.00
368.5410, 27608.00
369.7410, 27878.00
370.9400, 27553.00
372.1400, 27998.00
373.3390, 27591.00
374.5380, 27912.00
375.7370, 27847.00
376.9360, 27793.00
378.1350, 27853.00
379.3330, 27888.98
380.5310, 28004.32
381.7300, 28153.00
382.9280, 28411.00
384.1260, 28723.00
385.3230, 29162.00
386.5210, 28775.00
387.7180, 28845.00
388.9160, 28817.00
390.1130, 29266.00
391.3100, 29300.00
392.5060, 29414.00
393.7030, 29693.00
394.9000, 29734.00
396.0960, 29496.00
397.2920, 29627.00
398.4880, 29547.00
399.6840, 29585.00
400.8800, 29467.00
402.0750, 29286.00
403.2710, 29427.00
404.4660, 29242.00
405.6610, 29208.00
406.8560, 29552.00
408.0510, 29298.00
409.2450, 29497.00
410.4400, 29549.00
411.6340, 29386.00
412.8280, 29700.00
414.0220, 29683.00
415.2160, 29964.00
416.4100, 30082.00
417.6030, 30287.00
418.7970, 30569.00
419.9900, 30769.00
421.1830, 30953.00
422.3760, 31158.00
423.5690, 31665.00
424.7610, 31888.48
425.9540, 32012.00
427.1460, 32610.00
428.3380, 33014.00
429.5300, 33449.00
430.7220, 34049.00
431.9140, 34508.00
433.1050, 35113.00
434.2970, 35757.00
435.4880, 36024.00
436.6790, 36911.00
437.8700, 37423.00
439.0610, 38047.00
440.2510, 38998.00
441.4420, 39830.00
442.6320, 40259.00
443.8220, 41257.00
445.0120, 42101.00
446.2020, 42665.00
447.3910, 43715.00
448.5810, 44268.00
449.7700, 45064.00
450.9600, 45347.00
452.1490, 45808.00
453.3370, 46610.00
454.5260, 46986.00
455.7150, 47209.00
456.9030, 47394.00
458.0910, 47568.00
459.2800, 47690.00
460.4670, 47935.00
461.6550, 48213.00
462.8430, 48309.00
464.0300, 48414.00
465.2180, 48660.00
466.4050, 49231.00
467.5920, 49443.00
468.7790, 49705.00
469.9650, 49680.00
471.1520, 50396.00
472.3380, 50844.00
473.5250, 51196.00
474.7110, 51011.00
475.8970, 51233.00
477.0820, 50934.36
478.2680, 50771.00
479.4540, 50067.00
480.6390, 49440.00
481.8240, 48587.00
483.0090, 47694.00
484.1940, 46764.00
485.3780, 45807.00
486.5630, 44832.00
487.7470, 43706.00
488.9320, 42335.00
490.1160, 41434.00
491.3000, 40398.00
492.4830, 39811.00
493.6670, 38364.00
494.8500, 37890.00
496.0340, 37123.00
497.2170, 36495.00
498.4000, 36010.00
499.5820, 35421.00
500.7650, 34932.00
501.9480, 34600.00
503.1300, 34133.00
504.3120, 33997.00
505.4940, 33666.00
506.6760, 33484.00
507.8580, 33426.00
509.0390, 32931.00
510.2210, 32818.00
511.4020, 32438.00
512.5830, 32419.00
513.7640, 32318.00
514.9450, 32166.00
516.1250, 32056.00
517.3060, 31952.83
518.4860, 31802.00
519.6660, 31699.00
520.8460, 31528.00
522.0260, 31273.00
523.2060, 31082.00
524.3850, 30978.00
525.5650, 30822.60
526.7440, 30708.00
527.9230, 30683.00
529.1020, 30453.00
530.2810, 30490.00
531.4590, 30365.00
532.6380, 30322.00
533.8160, 30331.00
534.9940, 30288.00
536.1720, 30229.00
537.3500, 30251.00
538.5270, 30212.00
539.7050, 30274.00
540.8820, 30320.00
542.0590, 30233.00
543.2360, 30054.00
544.4130, 30131.00
545.5900, 30040.00
546.7660, 30104.00
547.9430, 29995.00
549.1190, 29925.00
550.2950, 30164.00
551.4710, 30114.00
552.6470, 30128.95
553.8220, 29988.00
554.9980, 30063.00
556.1730, 30069.00
557.3480, 29971.00
558.5230, 29999.00
559.6980, 29861.00
560.8730, 30037.00
562.0470, 29938.00
563.2220, 29818.00
564.3960, 29914.00
565.5700, 29888.00
566.7440, 30065.00
567.9170, 29907.00
569.0910, 30062.00
570.2640, 30297.00
571.4380, 30265.00
572.6110, 30222.00
573.7840, 30106.00
574.9570, 29987.00
576.1290, 30055.00
577.3020, 30103.00
578.4740, 30287.00
579.6460, 30046.00
580.8180, 30156.00
581.9900, 30326.00
583.1620, 30115.00
584.3330, 30242.00
585.5040, 30235.00
586.6760, 30200.00
587.8470, 30218.00
589.0180, 30401.00
590.1880, 30385.00
591.3590, 30545.00
592.5290, 30364.00
593.7000, 30379.00
594.8700, 30334.00
596.0400, 30258.00
597.2090, 30293.01
598.3790, 30391.00
599.5490, 30344.00
600.7180, 30522.00
601.8870, 30612.00
603.0560, 30729.00
604.2250, 30747.84
605.3940, 30777.52
606.5620, 30740.00
607.7300, 30790.00
608.8990, 30815.00
610.0670, 30888.00
611.2350, 30814.00
612.4020, 30777.00
613.5700, 30868.00
614.7370, 30967.00
615.9050, 31424.00
617.0720, 31341.00
618.2390, 31449.00
619.4060, 31150.00
620.5720, 31462.00
621.7390, 31550.00
622.9050, 31641.00
624.0710, 32271.00
625.2370, 32211.00
626.4030, 32002.00
627.5690, 32360.00
628.7340, 32823.00
629.9000, 32509.00
631.0650, 33354.00
632.2300, 33219.00
633.3950, 33549.00
634.5600, 33410.00
635.7240, 33596.00
636.8890, 33645.00
638.0530, 33849.00
639.2170, 33753.22
640.3810, 33634.00
641.5450, 33461.00
642.7080, 33303.00
643.8720, 32965.00
645.0350, 33257.00
646.1980, 32817.00
647.3610, 32856.00
648.5240, 32597.00
649.6870, 32676.00
650.8490, 32558.00
652.0120, 32323.00
653.1740, 32440.00
654.3360, 32494.00
655.4980, 32364.00
656.6600, 32128.00
657.8210, 32107.00
658.9830, 32103.00
660.1440, 32086.00
661.3050, 32077.00
662.4660, 32149.00
663.6270, 32153.39
664.7870, 32152.00
665.9480, 32187.00
667.1080, 32180.00
668.2680, 32099.00
669.4280, 32233.00
670.5880, 32136.00
671.7480, 31951.00
672.9070, 31990.00
674.0670, 32155.00
675.2260, 32294.00
676.3850, 32197.00
677.5440, 32109.00
678.7030, 31938.00
679.8610, 32124.00
681.0200, 32177.00
682.1780, 32292.00
683.3360, 31918.00
684.4940, 32382.00
685.6520, 32201.00
686.8090, 32262.00
687.9670, 32478.00
689.1240, 32367.00
690.2810, 32346.00
691.4380, 32412.00
692.5950, 32245.00
693.7520, 32359.00
694.9080, 32542.00
696.0650, 32422.00
697.2210, 32416.00
698.3770, 32399.00
699.5330, 32637.00
700.6880, 32679.00
701.8440, 32893.00
702.9990, 32698.00
704.1550, 32690.00
705.3100, 32729.00
706.4650, 32831.00
707.6190, 32882.00
708.7740, 33270.00
709.9290, 33389.00
711.0830, 33619.00
712.2370, 33419.00
713.3910, 33518.00
714.5450, 33091.00
715.6980, 33320.00
716.8520, 33300.00
718.0050, 33212.00
719.1580, 33199.00
720.3110, 33459.00
721.4640, 33153.00
722.6170, 33108.00
723.7700, 33487.00
724.9220, 33325.00
726.0740, 33067.00
727.2260, 33227.00
728.3780, 33107.31
729.5300, 32908.86
730.6810, 33512.00
731.8330, 33034.00
732.9840, 33973.00
734.1350, 33634.30
735.2860, 33295.00
736.4370, 33461.00
737.5880, 33257.00
738.7380, 33468.00
739.8880, 33351.00
741.0390, 33578.00
742.1890, 33598.00
743.3380, 33553.98
744.4880, 33560.21
745.6380, 33481.00
746.7870, 33505.00
747.9360, 33490.00
749.0850, 33563.07
750.2340, 33825.00
751.3830, 33754.00
752.5310, 33816.00
753.6800, 33892.01
754.8280, 33872.40
755.9760, 34002.00
757.1240, 33956.00
758.2720, 33859.00
759.4190, 33986.00
760.5670, 34119.00
761.7140, 34182.10
762.8610, 34380.32
764.0080, 34431.00
765.1550, 34676.00
766.3020, 34778.00
767.4480, 34770.00
768.5950, 34251.00
769.7410, 34257.00
770.8870, 34227.00
772.0330, 34503.00
773.1780, 34379.00
774.3240, 34315.00
775.4690, 34232.00
776.6140, 34538.00
777.7590, 35075.00
778.9040, 35034.00
780.0490, 35477.00
781.1940, 35786.00
782.3380, 34733.00
783.4820, 34732.00
784.6260, 34724.00
785.7700, 34744.00
786.9140, 34748.00
788.0580, 34807.00
789.2010, 34729.00
790.3450, 34610.00
791.4880, 34775.00
792.6310, 34602.00
793.7730, 34596.00
794.9160, 34658.00
796.0590, 34377.00
797.2010, 34718.00
798.3430, 34692.00
799.4850, 34569.00
800.6270, 34516.00
801.7690, 34539.00
802.9100, 34514.00
804.0520, 34442.00
805.1930, 34568.00
806.3340, 34699.00
807.4750, 34717.00
808.6160, 34871.00
809.7560, 34540.00
810.8970, 34830.00
812.0370, 34368.00
813.1770, 34506.00
814.3170, 34609.00
815.4570, 34947.00
816.5960, 34677.00
817.7360, 34542.00
818.8750, 34469.00
820.0140, 34968.00
821.1530, 34461.00
822.2920, 35089.00
823.4310, 34640.00
824.5690, 34732.00
825.7070, 34697.00
826.8460, 34877.00
827.9840, 34863.00
829.1220, 34860.00
830.2590, 34752.00
831.3970, 34961.00
832.5340, 35025.00
833.6710, 34867.00
834.8080, 34845.00
835.9450, 35082.00
837.0820, 35270.00
838.2190, 34879.00
839.3550, 35203.00
840.4910, 35168.00
841.6270, 35203.00
842.7630, 35121.00
843.8990, 35264.00
845.0350, 35189.00
846.1700, 35281.00
847.3060, 35434.00
848.4410, 35444.05
849.5760, 35444.00
850.7100, 35564.00
851.8450, 35653.00
852.9800, 35637.00
854.1140, 35524.00
855.2480, 35625.00
856.3820, 35714.00
857.5160, 35841.00
858.6500, 35846.46
859.7830, 35971.00
860.9170, 35878.00
862.0500, 35906.00
863.1830, 35970.00
864.3160, 35996.00
865.4480, 35749.00
866.5810, 35857.00
867.7130, 35925.00
868.8460, 36015.00
869.9780, 36273.00
871.1100, 36083.00
872.2410, 36003.00
873.3730, 36184.00
874.5050, 36102.00
875.6360, 36286.00
876.7670, 36050.00
877.8980, 36100.00
879.0290, 36209.00
880.1590, 36160.00
881.2900, 36185.00
882.4200, 36233.00
883.5500, 36382.00
884.6800, 36255.00
885.8100, 36402.00
886.9400, 36354.00
888.0690, 36565.00
889.1990, 36634.00
890.3280, 36610.00
891.4570, 36724.00
892.5860, 36672.00
893.7140, 36608.00
894.8430, 36789.00
895.9710, 37035.00
897.1000, 36748.00
898.2280, 36719.00
899.3560, 37074.00
900.4830, 36921.00
901.6110, 36682.00
902.7380, 37018.00
903.8660, 36884.00
904.9930, 37076.00
906.1200, 37134.00
907.2460, 37114.00
908.3730, 37039.00
909.5000, 37160.00
910.6260, 37259.00
911.7520, 37389.00
912.8780, 37315.00
914.0040, 37384.00
915.1290, 37564.00
916.2550, 37382.00
917.3800, 37406.00
918.5050, 37577.00
919.6300, 37462.00
920.7550, 37768.00
921.8800, 37719.00
923.0040, 37524.00
924.1290, 37726.00
925.2530, 37960.00
926.3770, 37808.00
927.5010, 38030.00
928.6250, 38100.00
929.7480, 38291.00
930.8720, 38112.00
931.9950, 38013.00
933.1180, 37944.00
934.2410, 38385.00
935.3640, 38181.00
936.4860, 38217.00
937.6090, 38315.00
938.7310, 38272.00
939.8530, 38512.00
940.9750, 38337.00
942.0970, 38259.00
943.2180, 38693.00
944.3400, 38364.00
945.4610, 38653.00
946.5820, 38618.00
947.7030, 38764.00
948.8240, 38658.00
949.9450, 38993.00
951.0650, 38780.00
952.1860, 39049.00
953.3060, 38815.00
954.4260, 39258.00
955.5460, 39184.00
956.6650, 38989.00
957.7850, 39314.00
958.9040, 39269.00
960.0230, 39250.00
961.1420, 39612.00
962.2610, 39520.00
963.3800, 39474.00
964.4990, 39516.00
965.6170, 39473.00
966.7350, 39613.00
967.8530, 39583.00
968.9710, 39687.00
970.0890, 39786.00
971.2070, 40043.00
972.3240, 40184.00
973.4410, 40019.00
974.5580, 39873.00
975.6750, 40056.00
976.7920, 40301.00
977.9090, 40292.00
979.0250, 40329.00
980.1410, 40259.00
981.2580, 40898.00
982.3740, 40691.77
983.4890, 41436.00
984.6050, 40779.00
985.7200, 41096.00
986.8360, 41339.00
987.9510, 41429.00
989.0660, 41558.00
990.1810, 41297.00
991.2950, 41061.00
992.4100, 41090.00
993.5240, 41098.00
994.6390, 41116.00
995.7530, 41232.00
996.8660, 41322.83
997.9800, 41444.50
999.0940, 41514.00
1000.207, 41606.24
1001.320, 41653.00
1002.433, 41787.00
1003.546, 41809.00
1004.659, 41941.00
1005.772, 42022.00
1006.884, 41870.00
1007.996, 42054.00
1009.108, 42149.80
1010.220, 42647.00
1011.332, 42366.00
1012.444, 42392.00
1013.555, 42206.00
1014.666, 42261.00
1015.777, 42517.00
1016.888, 42252.00
1017.999, 42614.00
1019.110, 42556.00
1020.220, 42636.00
1021.331, 42601.00
1022.441, 42420.00
1023.551, 42812.00
1024.661, 42548.00
1025.770, 42582.00
1026.880, 42943.00
1027.989, 42989.00
1029.098, 43042.00
1030.207, 43165.00
1031.316, 43161.06
1032.425, 43085.00
1033.533, 43228.00
1034.642, 43120.00
1035.750, 43213.00
1036.858, 43434.00
1037.966, 43311.00
1039.073, 43441.00
1040.181, 43487.00
1041.288, 43510.00
1042.396, 43498.00
1043.503, 43583.00
1044.610, 43399.00
1045.716, 43911.00
1046.823, 44011.00
1047.929, 43893.00
1049.036, 44022.00
1050.142, 43960.00
1051.248, 43902.00
1052.353, 44310.00
1053.459, 44365.00
1054.564, 44486.00
1055.670, 44469.00
1056.775, 44373.00
1057.880, 44859.00
1058.985, 44506.00
1060.089, 44464.00
1061.194, 44797.00
1062.298, 44986.00
1063.402, 45234.00
1064.506, 45370.00
1065.610, 45366.80
1066.713, 45182.00
1067.817, 45361.00
1068.920, 45177.00
1070.023, 45394.00
1071.126, 45043.00
1072.229, 45715.00
1073.332, 45619.00
1074.435, 45846.00
1075.537, 45703.00
1076.639, 45719.00
1077.741, 45840.47
1078.843, 46113.02
1079.945, 46287.93
1081.046, 46370.41
1082.148, 46083.84
1083.249, 46273.84
1084.350, 46272.82
1085.451, 46263.99
1086.551, 46521.02
1087.652, 46288.09
1088.752, 46540.90
1089.853, 46599.85
1090.953, 46747.50
1092.053, 46702.96
1093.152, 46717.74
1094.252, 46784.00
1095.351, 46787.00
1096.451, 46895.00
1097.550, 46800.00
1098.649, 46770.45
1099.748, 46962.00
1100.846, 46657.00
1101.945, 46769.00
1103.043, 46859.00
1104.141, 46691.00
1105.239, 46735.00
1106.337, 46592.00
1107.434, 46638.37
1108.532, 46838.00
1109.629, 46735.00
1110.726, 46641.00
1111.823, 46678.00
1112.920, 46605.00
1114.017, 46759.00
1115.113, 46856.00
1116.210, 47039.00
1117.306, 46633.00
1118.402, 47030.00
1119.498, 47100.00
1120.593, 46668.00
1121.689, 47042.00
1122.784, 47212.00
1123.879, 46767.00
1124.974, 47050.00
1126.069, 46885.00
1127.164, 46907.00
1128.259, 47032.00
1129.353, 47015.00
1130.447, 46825.00
1131.541, 46815.00
1132.635, 47008.00
1133.729, 47015.00
1134.822, 47135.00
1135.916, 47176.00
1137.009, 46812.00
1138.102, 47026.00
1139.195, 46983.00
1140.288, 46811.00
1141.380, 46925.00
1142.473, 47100.00
1143.565, 47196.00
1144.657, 46969.00
1145.749, 46814.00
1146.841, 46955.00
1147.932, 47015.00
1149.024, 46874.00
1150.115, 47020.00
1151.206, 46895.00
1152.297, 46877.05
1153.388, 46845.00
1154.479, 46894.00
1155.569, 46849.00
1156.659, 46861.31
1157.750, 46909.05
1158.839, 46873.00
1159.929, 46989.00
1161.019, 47030.00
1162.108, 47029.00
1163.198, 46938.00
1164.287, 47232.00
1165.376, 46924.00
1166.465, 47094.00
1167.553, 47134.00
1168.642, 46988.00
1169.730, 47085.00
1170.818, 46861.00
1171.906, 46902.00
1172.994, 47120.00
1174.082, 47019.00
1175.170, 47140.00
1176.257, 46904.00
1177.344, 47198.00
1178.431, 46949.00
1179.518, 47165.00
1180.605, 46752.00
1181.691, 46978.00
1182.778, 46693.00
1183.864, 47135.00
1184.950, 47205.00
1186.036, 47412.00
1187.122, 47044.00
1188.207, 47109.00
1189.292, 47174.00
1190.378, 47239.00
1191.463, 47276.00
1192.548, 47147.00
1193.632, 47251.00
1194.717, 47183.00
1195.801, 47388.00
1196.886, 47564.00
1197.970, 47075.00
1199.054, 47257.00
1200.137, 47513.00
1201.221, 47315.00
1202.305, 47448.00
1203.388, 47253.00
1204.471, 47345.00
1205.554, 47829.00
1206.637, 47794.00
1207.719, 47732.00
1208.802, 47716.00
1209.884, 47621.00
1210.966, 47433.00
1212.048, 47811.00
1213.130, 47812.00
1214.212, 47685.00
1215.293, 47723.00
1216.374, 47943.00
1217.456, 48131.00
1218.536, 48199.00
1219.617, 48164.00
1220.698, 48352.00
1221.778, 48158.00
1222.859, 48262.00
1223.939, 48082.00
1225.019, 48265.00
1226.099, 48496.00
1227.178, 48384.00
1228.258, 48229.00
1229.337, 48428.00
1230.417, 48759.00
1231.496, 48374.00
1232.574, 48498.00
1233.653, 48405.00
1234.732, 48375.81
1235.810, 48571.00
1236.888, 48476.00
1237.966, 48720.00
1239.044, 48827.00
1240.122, 48911.00
1241.199, 48863.00
1242.277, 48773.00
1243.354, 48865.00
1244.431, 48841.00
1245.508, 49027.00
1246.585, 48871.00
1247.661, 48753.00
1248.738, 49025.00
1249.814, 49414.00
1250.890, 48876.00
1251.966, 49107.00
1253.042, 49107.00
1254.117, 49063.00
1255.193, 49103.00
1256.268, 49024.00
1257.343, 49182.00
1258.418, 49197.00
1259.493, 49275.00
1260.567, 49188.00
1261.642, 49474.00
1262.716, 49583.00
1263.790, 49799.00
1264.864, 49777.80
1265.938, 49793.60
1267.011, 49721.00
1268.085, 49672.00
1269.158, 49767.00
1270.231, 49723.00
1271.304, 49794.95
1272.377, 49735.00
1273.450, 49937.00
1274.522, 50012.00
1275.594, 50107.00
1276.666, 50014.00
1277.738, 50139.00
1278.810, 50090.00
1279.882, 50185.00
1280.953, 50048.00
1282.025, 50034.00
1283.096, 49995.00
1284.167, 50257.00
1285.238, 50290.00
1286.308, 50312.00
1287.379, 50565.00
1288.449, 50429.00
1289.519, 50793.00
1290.589, 50635.00
1291.659, 50714.00
1292.729, 50760.00
1293.798, 50927.00
1294.868, 50891.00
1295.937, 50802.00
1297.006, 51295.00
1298.075, 50969.00
1299.143, 51133.00
1300.212, 50881.00
1301.280, 51205.00
1302.348, 51262.00
1303.416, 50919.00
1304.484, 50931.00
1305.552, 51080.00
1306.620, 51206.00
1307.687, 51447.00
1308.754, 51520.00
1309.821, 51414.00
1310.888, 51738.00
1311.955, 51245.00
1313.021, 51512.00
1314.088, 51663.00
1315.154, 51796.00
1316.220, 51847.37
1317.286, 51810.00
1318.352, 51835.00
1319.417, 51741.00
1320.483, 51729.00
1321.548, 51867.00
1322.613, 51783.00
1323.678, 51851.00
1324.743, 51920.40
1325.807, 51927.00
1326.872, 52060.00
1327.936, 52154.00
1329.000, 52220.18
1330.064, 52275.89
1331.128, 52216.00
1332.191, 52295.00
1333.255, 52247.00
1334.318, 52173.00
1335.381, 52340.00
1336.444, 52495.00
1337.507, 52712.00
1338.569, 52169.00
1339.632, 52698.00
1340.694, 52516.00
1341.756, 52471.00
1342.818, 52660.00
1343.880, 52465.00
1344.941, 52799.00
1346.003, 52851.00
1347.064, 52659.00
1348.125, 53025.00
1349.186, 52878.00
1350.247, 52874.00
1351.308, 52837.00
1352.368, 53089.00
1353.428, 53027.00
1354.489, 53186.00
1355.549, 53265.00
1356.608, 53082.00
1357.668, 53255.00
1358.727, 53286.05
1359.787, 53497.00
1360.846, 53458.00
1361.905, 53458.00
1362.964, 53464.27
1364.022, 53455.58
1365.081, 53481.35
1366.139, 53500.00
1367.197, 53488.00
1368.255, 53580.00
1369.313, 53497.00
1370.371, 53839.00
1371.428, 53963.00
1372.486, 53849.00
1373.543, 53764.00
1374.600, 53928.00
1375.657, 53897.00
1376.713, 53757.00
1377.770, 53634.00
1378.826, 54100.00
1379.882, 53775.00
1380.938, 54090.00
1381.994, 54052.00
1383.050, 53894.00
1384.106, 54187.00
1385.161, 54189.00
1386.216, 54376.00
1387.271, 54363.00
1388.326, 54381.00
1389.381, 54493.00
1390.435, 54783.00
1391.490, 54575.00
1392.544, 54372.00
1393.598, 54786.00
1394.652, 54675.00
1395.705, 54615.00
1396.759, 54710.00
1397.812, 54613.53
1398.866, 54659.39
1399.919, 54569.00
1400.972, 54699.00
1402.024, 54709.00
1403.077, 54725.00
1404.129, 54664.00
1405.181, 54915.00
1406.233, 54854.00
1407.285, 54755.00
1408.337, 55156.00
1409.389, 54935.00
1410.440, 54996.00
1411.491, 55277.00
1412.542, 55092.00
1413.593, 55145.00
1414.644, 55194.00
1415.695, 55358.00
1416.745, 55071.00
1417.795, 55549.00
1418.845, 55123.00
1419.895, 55484.00
1420.945, 55753.00
1421.995, 55304.00
1423.044, 55570.00
1424.093, 55755.00
1425.142, 55890.00
1426.191, 55951.00
1427.240, 55760.00
1428.289, 55861.00
1429.337, 56028.00
1430.385, 56239.00
1431.433, 56213.00
1432.481, 56410.24
1433.529, 56386.00
1434.577, 56611.00
1435.624, 56619.00
1436.672, 56615.00
1437.719, 56431.00
1438.766, 56801.00
1439.812, 56422.00
1440.859, 56661.00
1441.905, 56632.00
1442.952, 56636.00
1443.998, 56834.00
1445.044, 56828.00
1446.090, 56725.00
1447.135, 56923.00
1448.181, 56850.00
1449.226, 56960.00
1450.271, 56820.79
1451.316, 57024.00
1452.361, 56680.00
1453.405, 56830.00
1454.450, 57214.00
1455.494, 57036.40
1456.538, 57182.60
1457.582, 57130.00
1458.626, 57195.00
1459.670, 57307.00
1460.713, 57409.00
1461.757, 57435.52
1462.800, 57610.00
1463.843, 57372.13
1464.886, 57554.00
1465.928, 57281.00
1466.971, 57482.00
1468.013, 57190.00
1469.055, 57399.00
1470.097, 57730.00
1471.139, 57467.00
1472.181, 57895.00
1473.222, 57497.00
1474.263, 57320.00
1475.305, 57736.00
1476.346, 57690.00
1477.386, 57633.00
1478.427, 57452.00
1479.468, 57743.00
1480.508, 57680.00
1481.548, 57720.00
1482.588, 57824.00
1483.628, 57835.15
1484.668, 57944.95
1485.707, 57960.00
1486.747, 58084.00
1487.786, 58138.00
1488.825, 58084.00
1489.864, 58256.00
1490.902, 58290.00
1491.941, 58320.00
1492.979, 58146.00
1494.017, 58203.00
1495.055, 58298.00
1496.093, 57900.00
1497.131, 58040.00
1498.168, 58293.00
1499.206, 58581.00
1500.243, 58642.66
1501.280, 58542.00
1502.317, 58770.00
1503.354, 58561.00
1504.390, 58495.00
1505.426, 58891.00
1506.463, 58537.00
1507.499, 58672.00
1508.535, 58667.00
1509.570, 58932.00
1510.606, 58844.00
1511.641, 58912.02
1512.676, 59027.14
1513.711, 58917.00
1514.746, 59127.00
1515.781, 59147.00
1516.816, 59059.00
1517.850, 59077.00
1518.884, 59023.00
1519.918, 59152.00
1520.952, 59196.00
1521.986, 59352.00
1523.019, 59412.85
1524.053, 59455.80
1525.086, 59449.00
1526.119, 59567.00
1527.152, 59340.00
1528.185, 59480.00
1529.217, 59845.00
1530.250, 59647.00
1531.282, 59821.00
1532.314, 59682.00
1533.346, 59752.04
1534.377, 59877.00
1535.409, 59834.00
1536.440, 59783.00
1537.472, 59711.00
1538.503, 59895.00
1539.534, 60105.00
1540.564, 60289.00
1541.595, 59826.00
1542.625, 60032.00
1543.656, 60270.00
1544.686, 60034.00
1545.716, 60234.00
1546.745, 59889.00
1547.775, 60113.00
1548.804, 60051.00
1549.834, 60251.00
1550.863, 60487.00
1551.892, 60694.00
1552.920, 60496.00
1553.949, 60571.00
1554.977, 60796.00
1556.006, 60442.00
1557.034, 60590.00
1558.062, 60647.00
1559.089, 60875.00
1560.117, 60584.00
1561.144, 60743.00
1562.172, 61025.00
1563.199, 60826.00
1564.226, 61117.00
1565.252, 60925.00
1566.279, 60813.00
1567.305, 61065.00
1568.332, 60977.00
1569.358, 61102.00
1570.384, 61131.00
1571.409, 60931.00
1572.435, 61842.00
##END=



