##NAMES=Chabazite-Ca
##RRUFFID=R050014
##IDEAL CHEMISTRY=Ca_2_Al_4_Si_8_O_24_&#183;13H_2_O
##LOCALITY=Tablo Mountain, Baja California, Mexico
##OWNER=RRUFF
##SOURCE=University of Arizona Mineral Museum
##DESCRIPTION=Light tan colored rhombohedral single crystals
##STATUS=The identification of this mineral has been confirmed by X-ray diffraction and chemical analysis
##URL=rruff.info/R050014
##MEASURED CHEMISTRY=(Ca_0.72_Mg_0.11_K_0.09_Sr_0.06_Na_0.01_)_Σ=1_(Si_4.12_Al_1.88_)O_12_·6H_2_O
##PIN_ID=M00242
##ORIENTATION=Laser parallel to (-1 1 0). Fiducial mark perpendicular to laser is parallel to [1 1 1]
105.8150, 37966.99
107.0470, 38522.40
108.2800, 38980.45
109.5120, 39345.85
110.7440, 39342.15
111.9760, 39815.06
113.2080, 40332.00
114.4400, 40862.00
115.6710, 41276.00
116.9030, 41732.00
118.1340, 41428.00
119.3650, 41355.00
120.5960, 41522.00
121.8270, 41965.00
123.0580, 42368.00
124.2880, 42732.00
125.5190, 43100.00
126.7490, 43501.00
127.9790, 44261.00
129.2090, 45045.00
130.4390, 45759.00
131.6680, 46815.00
132.8980, 47999.00
134.1270, 49458.00
135.3560, 51598.00
136.5850, 53905.00
137.8140, 57664.00
139.0430, 61880.00
140.2710, 64843.00
141.5000, 65535.00
142.7280, 63685.00
143.9560, 59900.00
145.1840, 55433.00
146.4120, 52242.00
147.6390, 49593.00
148.8670, 47342.00
150.0940, 46235.00
151.3210, 45431.00
152.5490, 44452.00
153.7750, 43659.00
155.0020, 42988.00
156.2290, 42139.98
157.4550, 41488.15
158.6810, 40746.00
159.9080, 40180.00
161.1340, 39716.00
162.3590, 39166.00
163.5850, 39184.00
164.8110, 39045.00
166.0360, 38304.00
167.2610, 37961.00
168.4860, 37631.00
169.7110, 37507.00
170.9360, 37271.00
172.1610, 36698.00
173.3850, 36201.00
174.6100, 35925.00
175.8340, 35731.00
177.0580, 35585.00
178.2820, 35146.00
179.5050, 35047.00
180.7290, 34758.00
181.9520, 34536.00
183.1760, 34120.00
184.3990, 33912.00
185.6220, 33862.00
186.8450, 33411.00
188.0670, 33303.00
189.2900, 33235.00
190.5120, 33193.00
191.7340, 32973.00
192.9560, 32938.00
194.1780, 32762.00
195.4000, 32375.00
196.6220, 32161.00
197.8430, 31781.00
199.0640, 31528.00
200.2860, 31622.00
201.5070, 31712.00
202.7270, 31054.00
203.9480, 30527.00
205.1690, 29922.00
206.3890, 29694.00
207.6090, 29365.64
208.8290, 29000.00
210.0490, 29006.00
211.2690, 28942.00
212.4890, 28772.00
213.7080, 28677.00
214.9280, 28513.00
216.1470, 28374.00
217.3660, 28296.00
218.5850, 27986.00
219.8030, 28194.00
221.0220, 27616.00
222.2400, 27880.00
223.4590, 27669.00
224.6770, 27422.00
225.8950, 27579.00
227.1120, 27491.00
228.3300, 27515.00
229.5480, 27270.00
230.7650, 27386.00
231.9820, 27152.00
233.1990, 27191.00
234.4160, 26955.00
235.6330, 26946.01
236.8490, 27225.00
238.0660, 26988.00
239.2820, 27004.00
240.4980, 27229.00
241.7140, 27136.00
242.9300, 27074.00
244.1460, 27008.00
245.3610, 26979.09
246.5770, 26955.00
247.7920, 26929.00
249.0070, 27013.00
250.2220, 26780.96
251.4370, 27056.80
252.6510, 27234.97
253.8660, 27320.79
255.0800, 27037.47
256.2940, 27230.77
257.5080, 27233.06
258.7220, 27227.52
259.9360, 27487.89
261.1490, 27258.21
262.3630, 27514.38
263.5760, 27576.57
264.7890, 27727.52
266.0020, 27686.29
267.2150, 27595.00
268.4270, 27613.00
269.6400, 27675.00
270.8520, 27796.00
272.0640, 27933.00
273.2760, 28037.00
274.4880, 28346.00
275.7000, 28707.00
276.9120, 28818.00
278.1230, 29081.00
279.3340, 28920.00
280.5450, 28907.00
281.7560, 29009.00
282.9670, 28917.00
284.1780, 28643.00
285.3880, 28396.00
286.5980, 28443.00
287.8090, 28483.00
289.0190, 28345.00
290.2290, 28432.00
291.4380, 28313.00
292.6480, 28271.00
293.8570, 28313.00
295.0670, 28427.00
296.2760, 28566.00
297.4850, 28639.00
298.6930, 28634.00
299.9020, 28549.00
301.1110, 28800.00
302.3190, 28917.00
303.5270, 28780.00
304.7350, 29065.00
305.9430, 28850.00
307.1510, 29131.00
308.3580, 29280.00
309.5660, 29577.00
310.7730, 29510.00
311.9800, 29724.00
313.1870, 29913.00
314.3940, 30181.00
315.6010, 30185.00
316.8070, 30424.00
318.0130, 30690.00
319.2200, 31055.00
320.4260, 30953.00
321.6310, 31299.00
322.8370, 31428.00
324.0430, 31629.00
325.2480, 31563.00
326.4540, 31566.00
327.6590, 31632.38
328.8640, 31769.00
330.0680, 31709.00
331.2730, 31633.00
332.4780, 31743.00
333.6820, 31560.00
334.8860, 31672.00
336.0900, 31362.00
337.2940, 31319.00
338.4980, 31421.00
339.7010, 31112.00
340.9050, 30993.00
342.1080, 30780.00
343.3110, 30445.00
344.5140, 30689.00
345.7170, 30522.00
346.9200, 30557.00
348.1220, 30231.00
349.3240, 30233.00
350.5270, 29912.00
351.7290, 29807.00
352.9310, 30176.00
354.1320, 30025.00
355.3340, 29766.00
356.5350, 30083.00
357.7370, 29845.00
358.9380, 29723.00
360.1390, 29647.00
361.3400, 29512.00
362.5400, 29633.00
363.7410, 29744.00
364.9410, 29692.00
366.1410, 29600.00
367.3410, 29815.00
368.5410, 29441.00
369.7410, 29616.00
370.9400, 29607.64
372.1400, 29798.00
373.3390, 29649.00
374.5380, 29711.00
375.7370, 29630.00
376.9360, 29792.00
378.1350, 29866.00
379.3330, 29860.00
380.5310, 29744.00
381.7300, 30049.00
382.9280, 30062.00
384.1260, 30260.00
385.3230, 30527.00
386.5210, 30652.00
387.7180, 30941.00
388.9160, 30999.00
390.1130, 31120.00
391.3100, 31066.00
392.5060, 31039.00
393.7030, 31104.57
394.9000, 31414.00
396.0960, 31214.00
397.2920, 31420.00
398.4880, 31585.00
399.6840, 31602.00
400.8800, 31360.00
402.0750, 31612.00
403.2710, 31261.00
404.4660, 31360.00
405.6610, 31447.00
406.8560, 31421.00
408.0510, 31679.00
409.2450, 31734.00
410.4400, 31625.00
411.6340, 31886.00
412.8280, 31960.00
414.0220, 32223.00
415.2160, 32270.00
416.4100, 32665.00
417.6030, 32914.00
418.7970, 32963.00
419.9900, 33269.00
421.1830, 33471.00
422.3760, 33601.00
423.5690, 34178.00
424.7610, 34444.00
425.9540, 34798.00
427.1460, 35374.00
428.3380, 35719.00
429.5300, 36207.00
430.7220, 37136.00
431.9140, 37454.00
433.1050, 38146.00
434.2970, 38784.00
435.4880, 39275.00
436.6790, 40078.00
437.8700, 41194.00
439.0610, 41612.00
440.2510, 42522.00
441.4420, 43165.00
442.6320, 44051.00
443.8220, 45047.00
445.0120, 46013.00
446.2020, 46837.00
447.3910, 47841.00
448.5810, 48361.00
449.7700, 49521.00
450.9600, 50072.00
452.1490, 50412.00
453.3370, 51198.00
454.5260, 51759.00
455.7150, 52436.00
456.9030, 52851.00
458.0910, 53577.00
459.2800, 53866.00
460.4670, 54576.00
461.6550, 54758.00
462.8430, 55726.00
464.0300, 56286.00
465.2180, 57005.00
466.4050, 57432.00
467.5920, 58022.00
468.7790, 58859.00
469.9650, 59801.00
471.1520, 60124.00
472.3380, 60730.00
473.5250, 61091.00
474.7110, 61467.00
475.8970, 61487.00
477.0820, 61390.00
478.2680, 60835.00
479.4540, 60023.00
480.6390, 59333.00
481.8240, 58276.00
483.0090, 56999.00
484.1940, 55350.00
485.3780, 54272.00
486.5630, 52340.00
487.7470, 50768.00
488.9320, 49525.00
490.1160, 48317.00
491.3000, 46674.00
492.4830, 45486.00
493.6670, 44255.00
494.8500, 43331.00
496.0340, 41967.00
497.2170, 41201.00
498.4000, 40335.00
499.5820, 39704.00
500.7650, 38969.00
501.9480, 38438.00
503.1300, 37894.34
504.3120, 37318.00
505.4940, 37034.00
506.6760, 36635.00
507.8580, 36419.00
509.0390, 36275.00
510.2210, 36093.00
511.4020, 35906.00
512.5830, 35503.00
513.7640, 35121.00
514.9450, 35153.00
516.1250, 34572.00
517.3060, 34690.00
518.4860, 34269.00
519.6660, 34144.00
520.8460, 34058.00
522.0260, 33717.00
523.2060, 33436.00
524.3850, 33321.00
525.5650, 33691.00
526.7440, 33395.00
527.9230, 33265.00
529.1020, 33288.00
530.2810, 32849.00
531.4590, 33043.00
532.6380, 32778.00
533.8160, 32831.00
534.9940, 32745.00
536.1720, 32689.00
537.3500, 32623.00
538.5270, 32442.00
539.7050, 32367.00
540.8820, 32239.00
542.0590, 32418.00
543.2360, 32330.00
544.4130, 32391.00
545.5900, 32289.00
546.7660, 32329.00
547.9430, 32358.00
549.1190, 32211.00
550.2950, 32352.00
551.4710, 32389.00
552.6470, 32368.00
553.8220, 32304.00
554.9980, 32354.00
556.1730, 32205.00
557.3480, 32349.00
558.5230, 32341.00
559.6980, 32202.00
560.8730, 32359.00
562.0470, 32295.00
563.2220, 32502.00
564.3960, 32477.88
565.5700, 32394.00
566.7440, 32468.00
567.9170, 32446.00
569.0910, 32385.00
570.2640, 32482.00
571.4380, 32451.17
572.6110, 32545.00
573.7840, 32452.00
574.9570, 32600.00
576.1290, 32534.00
577.3020, 32566.00
578.4740, 32364.00
579.6460, 32745.00
580.8180, 32423.00
581.9900, 32640.00
583.1620, 32445.00
584.3330, 32445.00
585.5040, 32482.00
586.6760, 32659.00
587.8470, 32581.00
589.0180, 32678.00
590.1880, 32679.73
591.3590, 32510.00
592.5290, 32658.00
593.7000, 32678.00
594.8700, 32659.00
596.0400, 32841.00
597.2090, 32779.30
598.3790, 32786.00
599.5490, 32788.00
600.7180, 32848.00
601.8870, 32901.00
603.0560, 32806.00
604.2250, 32727.00
605.3940, 33048.00
606.5620, 32985.00
607.7300, 33017.00
608.8990, 33114.00
610.0670, 33180.00
611.2350, 33247.00
612.4020, 33227.00
613.5700, 33379.00
614.7370, 33275.00
615.9050, 33636.00
617.0720, 33553.00
618.2390, 33671.00
619.4060, 33756.00
620.5720, 33850.00
621.7390, 33992.00
622.9050, 34134.28
624.0710, 34197.00
625.2370, 34477.00
626.4030, 34566.00
627.5690, 34740.00
628.7340, 34790.00
629.9000, 35035.33
631.0650, 35410.00
632.2300, 35475.00
633.3950, 35770.00
634.5600, 35922.00
635.7240, 35858.00
636.8890, 36116.00
638.0530, 35643.00
639.2170, 35801.00
640.3810, 35867.00
641.5450, 35563.00
642.7080, 35703.00
643.8720, 35391.00
645.0350, 35536.00
646.1980, 35119.00
647.3610, 35249.00
648.5240, 35050.00
649.6870, 34795.00
650.8490, 35012.00
652.0120, 34732.00
653.1740, 34959.00
654.3360, 34763.00
655.4980, 34731.00
656.6600, 34717.00
657.8210, 34739.00
658.9830, 34693.00
660.1440, 34689.00
661.3050, 34667.44
662.4660, 34694.59
663.6270, 34524.00
664.7870, 34846.00
665.9480, 34606.00
667.1080, 34817.00
668.2680, 34884.00
669.4280, 34502.00
670.5880, 34447.00
671.7480, 34589.00
672.9070, 34652.00
674.0670, 34496.00
675.2260, 34817.00
676.3850, 34662.00
677.5440, 34511.00
678.7030, 34685.00
679.8610, 34425.00
681.0200, 34851.00
682.1780, 34691.00
683.3360, 34827.00
684.4940, 34995.00
685.6520, 34895.00
686.8090, 34933.00
687.9670, 34960.00
689.1240, 34951.00
690.2810, 35102.00
691.4380, 34985.00
692.5950, 35093.00
693.7520, 35022.00
694.9080, 35099.00
696.0650, 35039.00
697.2210, 35166.00
698.3770, 35232.00
699.5330, 35234.00
700.6880, 35300.00
701.8440, 35170.00
702.9990, 35302.00
704.1550, 35403.00
705.3100, 35265.00
706.4650, 35325.00
707.6190, 35471.00
708.7740, 35752.00
709.9290, 36081.00
711.0830, 36071.00
712.2370, 35853.00
713.3910, 35962.00
714.5450, 35772.00
715.6980, 35914.00
716.8520, 35759.00
718.0050, 35613.00
719.1580, 35731.00
720.3110, 35973.00
721.4640, 35686.00
722.6170, 35699.00
723.7700, 35725.00
724.9220, 35572.00
726.0740, 35641.00
727.2260, 35509.00
728.3780, 35450.00
729.5300, 35794.00
730.6810, 35749.00
731.8330, 35673.00
732.9840, 35533.00
734.1350, 35724.00
735.2860, 35454.00
736.4370, 35884.00
737.5880, 35806.00
738.7380, 35663.00
739.8880, 35945.00
741.0390, 35784.00
742.1890, 35851.00
743.3380, 35935.00
744.4880, 35586.00
745.6380, 35625.00
746.7870, 35667.00
747.9360, 35888.00
749.0850, 35910.00
750.2340, 35674.00
751.3830, 35901.00
752.5310, 35924.00
753.6800, 35999.00
754.8280, 35693.00
755.9760, 35881.00
757.1240, 35879.00
758.2720, 36170.00
759.4190, 36189.00
760.5670, 36089.00
761.7140, 36180.00
762.8610, 36331.00
764.0080, 36214.00
765.1550, 36259.00
766.3020, 36416.00
767.4480, 36375.00
768.5950, 36507.00
769.7410, 36371.00
770.8870, 36441.00
772.0330, 36551.00
773.1780, 36643.00
774.3240, 36712.00
775.4690, 36817.32
776.6140, 36962.00
777.7590, 36958.00
778.9040, 37022.00
780.0490, 36995.00
781.1940, 37110.00
782.3380, 37158.00
783.4820, 37026.00
784.6260, 37363.00
785.7700, 37423.00
786.9140, 37271.00
788.0580, 37349.00
789.2010, 37523.00
790.3450, 37467.00
791.4880, 37749.00
792.6310, 37598.00
793.7730, 37243.00
794.9160, 37364.00
796.0590, 37207.00
797.2010, 37288.00
798.3430, 37232.00
799.4850, 37047.00
800.6270, 37085.00
801.7690, 37230.00
802.9100, 37088.00
804.0520, 37375.00
805.1930, 37345.00
806.3340, 37094.00
807.4750, 37216.00
808.6160, 36902.00
809.7560, 37147.00
810.8970, 37120.00
812.0370, 37339.00
813.1770, 37174.00
814.3170, 37060.00
815.4570, 37253.00
816.5960, 37032.00
817.7360, 37261.00
818.8750, 36858.00
820.0140, 37306.00
821.1530, 37375.00
822.2920, 37168.00
823.4310, 37209.00
824.5690, 37147.21
825.7070, 36865.00
826.8460, 37178.00
827.9840, 37287.00
829.1220, 37568.00
830.2590, 37287.00
831.3970, 37406.00
832.5340, 37486.00
833.6710, 37294.00
834.8080, 37564.00
835.9450, 37382.00
837.0820, 37267.00
838.2190, 37583.00
839.3550, 37521.00
840.4910, 37698.00
841.6270, 37386.00
842.7630, 37886.00
843.8990, 37722.00
845.0350, 37553.00
846.1700, 37951.00
847.3060, 37997.00
848.4410, 37725.00
849.5760, 37777.00
850.7100, 37735.00
851.8450, 38098.00
852.9800, 37793.00
854.1140, 38165.00
855.2480, 38097.00
856.3820, 38061.00
857.5160, 38238.00
858.6500, 37967.00
859.7830, 38093.00
860.9170, 38089.00
862.0500, 38210.00
863.1830, 38167.00
864.3160, 38081.00
865.4480, 38087.00
866.5810, 38263.00
867.7130, 38497.00
868.8460, 38457.00
869.9780, 38162.00
871.1100, 38308.00
872.2410, 38277.00
873.3730, 38493.00
874.5050, 38471.00
875.6360, 38589.00
876.7670, 38625.00
877.8980, 38562.00
879.0290, 38712.00
880.1590, 38741.00
881.2900, 38742.15
882.4200, 38595.00
883.5500, 38832.00
884.6800, 38678.00
885.8100, 38865.00
886.9400, 38647.00
888.0690, 39054.00
889.1990, 38713.00
890.3280, 39133.00
891.4570, 38931.00
892.5860, 38905.00
893.7140, 38758.00
894.8430, 38671.00
895.9710, 38794.66
897.1000, 38986.00
898.2280, 39114.00
899.3560, 39162.00
900.4830, 39218.74
901.6110, 39245.00
902.7380, 39223.00
903.8660, 39137.00
904.9930, 39154.00
906.1200, 39188.00
907.2460, 39764.00
908.3730, 39669.00
909.5000, 39731.00
910.6260, 39558.00
911.7520, 39730.00
912.8780, 39788.00
914.0040, 39969.00
915.1290, 39590.00
916.2550, 39793.00
917.3800, 39891.00
918.5050, 39585.00
919.6300, 40116.00
920.7550, 40000.00
921.8800, 39894.00
923.0040, 40130.00
924.1290, 40272.00
925.2530, 39944.00
926.3770, 40294.00
927.5010, 40399.00
928.6250, 40488.00
929.7480, 40351.00
930.8720, 40212.00
931.9950, 40323.00
933.1180, 40254.00
934.2410, 40359.00
935.3640, 40501.00
936.4860, 40507.00
937.6090, 40508.00
938.7310, 40670.00
939.8530, 40838.00
940.9750, 40651.00
942.0970, 40680.00
943.2180, 40723.00
944.3400, 40938.00
945.4610, 40920.00
946.5820, 40938.00
947.7030, 41199.00
948.8240, 41065.00
949.9450, 41228.00
951.0650, 41337.00
952.1860, 41359.00
953.3060, 41292.00
954.4260, 41237.00
955.5460, 41495.00
956.6650, 41507.00
957.7850, 41656.00
958.9040, 41689.00
960.0230, 41708.00
961.1420, 41510.00
962.2610, 41879.00
963.3800, 41851.00
964.4990, 41815.00
965.6170, 42028.00
966.7350, 42050.00
967.8530, 42363.00
968.9710, 42116.00
970.0890, 42303.00
971.2070, 42029.00
972.3240, 42406.00
973.4410, 42302.00
974.5580, 42832.00
975.6750, 42506.00
976.7920, 42705.00
977.9090, 42796.00
979.0250, 42914.00
980.1410, 43052.00
981.2580, 42985.00
982.3740, 43112.00
983.4890, 43276.00
984.6050, 43351.00
985.7200, 43522.00
986.8360, 43611.38
987.9510, 43650.73
989.0660, 43798.00
990.1810, 43692.00
991.2950, 43752.00
992.4100, 43759.00
993.5240, 43876.00
994.6390, 43904.00
995.7530, 44028.00
996.8660, 43883.00
997.9800, 44059.00
999.0940, 44074.00
1000.207, 44129.00
1001.320, 44280.00
1002.433, 44463.00
1003.546, 44246.00
1004.659, 44575.00
1005.772, 44474.00
1006.884, 44386.00
1007.996, 44546.00
1009.108, 44423.00
1010.220, 44639.00
1011.332, 45139.00
1012.444, 45755.00
1013.555, 44930.00
1014.666, 45111.00
1015.777, 44876.00
1016.888, 45409.00
1017.999, 45451.00
1019.110, 45185.00
1020.220, 45531.00
1021.331, 45432.00
1022.441, 45589.00
1023.551, 45650.00
1024.661, 45383.00
1025.770, 45762.00
1026.880, 45460.00
1027.989, 45622.00
1029.098, 45354.00
1030.207, 45761.00
1031.316, 45719.00
1032.425, 46070.00
1033.533, 46059.00
1034.642, 46115.00
1035.750, 45992.00
1036.858, 45857.00
1037.966, 46125.00
1039.073, 45911.00
1040.181, 46005.00
1041.288, 46118.00
1042.396, 46488.00
1043.503, 46517.00
1044.610, 46617.00
1045.716, 47200.00
1046.823, 46200.00
1047.929, 46392.00
1049.036, 46712.00
1050.142, 46654.00
1051.248, 46569.00
1052.353, 47062.00
1053.459, 46846.00
1054.564, 46868.00
1055.670, 47157.00
1056.775, 47105.00
1057.880, 47244.00
1058.985, 47418.00
1060.089, 47277.00
1061.194, 47478.00
1062.298, 47444.00
1063.402, 47261.00
1064.506, 47612.00
1065.610, 47690.00
1066.713, 47695.00
1067.817, 47727.00
1068.920, 47968.00
1070.023, 48064.00
1071.126, 47951.00
1072.229, 48390.00
1073.332, 48236.00
1074.435, 48312.00
1075.537, 48431.00
1076.639, 48392.00
1077.741, 48234.73
1078.843, 48515.55
1079.945, 48698.74
1081.046, 48789.49
1082.148, 48511.19
1083.249, 48709.46
1084.350, 48716.72
1085.451, 48716.15
1086.551, 48981.45
1087.652, 48756.79
1088.752, 49017.86
1089.853, 49085.08
1090.953, 49240.99
1092.053, 49204.71
1093.152, 49235.00
1094.252, 49270.00
1095.351, 49221.00
1096.451, 49071.00
1097.550, 49063.06
1098.649, 49069.26
1099.748, 48981.00
1100.846, 49199.00
1101.945, 49298.00
1103.043, 49453.00
1104.141, 49217.00
1105.239, 48879.00
1106.337, 49111.00
1107.434, 49149.00
1108.532, 49446.00
1109.629, 49111.00
1110.726, 49318.00
1111.823, 49234.00
1112.920, 49406.00
1114.017, 49545.00
1115.113, 49463.00
1116.210, 49481.00
1117.306, 49582.00
1118.402, 49595.00
1119.498, 49491.00
1120.593, 49664.00
1121.689, 49677.00
1122.784, 49535.00
1123.879, 49735.00
1124.974, 49705.00
1126.069, 49834.00
1127.164, 49585.00
1128.259, 49648.00
1129.353, 49594.00
1130.447, 49430.00
1131.541, 49581.00
1132.635, 49515.00
1133.729, 49693.00
1134.822, 49702.00
1135.916, 49245.00
1137.009, 49559.00
1138.102, 49307.00
1139.195, 49436.00
1140.288, 49517.00
1141.380, 49502.00
1142.473, 49550.02
1143.565, 49507.41
1144.657, 49611.00
1145.749, 49584.39
1146.841, 49593.00
1147.932, 49603.00
1149.024, 49600.00
1150.115, 49651.88
1151.206, 49531.00
1152.297, 49675.00
1153.388, 49428.00
1154.479, 49484.00
1155.569, 49691.00
1156.659, 49491.00
1157.750, 49147.00
1158.839, 49267.00
1159.929, 49395.00
1161.019, 49539.00
1162.108, 49307.00
1163.198, 49489.00
1164.287, 49434.00
1165.376, 49553.00
1166.465, 49463.00
1167.553, 49546.00
1168.642, 49586.00
1169.730, 49315.00
1170.818, 49657.00
1171.906, 48942.00
1172.994, 49200.00
1174.082, 49370.00
1175.170, 49267.00
1176.257, 49409.00
1177.344, 49452.00
1178.431, 49426.00
1179.518, 49566.00
1180.605, 49656.00
1181.691, 49725.00
1182.778, 49438.00
1183.864, 49605.00
1184.950, 49224.00
1186.036, 49388.00
1187.122, 49457.00
1188.207, 49479.00
1189.292, 49570.64
1190.378, 49752.00
1191.463, 49704.00
1192.548, 49732.00
1193.632, 49888.00
1194.717, 49749.00
1195.801, 49637.00
1196.886, 49679.00
1197.970, 49550.00
1199.054, 49846.00
1200.137, 49553.00
1201.221, 49801.00
1202.305, 50076.00
1203.388, 50031.00
1204.471, 50172.04
1205.554, 49932.00
1206.637, 50100.00
1207.719, 50117.00
1208.802, 49864.00
1209.884, 49962.00
1210.966, 49966.00
1212.048, 50157.00
1213.130, 50193.00
1214.212, 50072.00
1215.293, 50179.00
1216.374, 50254.00
1217.456, 50250.00
1218.536, 50401.00
1219.617, 50196.00
1220.698, 50484.00
1221.778, 50415.00
1222.859, 50914.00
1223.939, 50434.00
1225.019, 50849.00
1226.099, 50607.00
1227.178, 50525.00
1228.258, 50788.00
1229.337, 50806.00
1230.417, 50710.00
1231.496, 51099.00
1232.574, 50766.00
1233.653, 51123.00
1234.732, 51227.00
1235.810, 51060.00
1236.888, 50998.00
1237.966, 51007.00
1239.044, 51005.00
1240.122, 50861.00
1241.199, 50815.00
1242.277, 51234.00
1243.354, 51095.00
1244.431, 51284.00
1245.508, 51473.00
1246.585, 51401.00
1247.661, 51432.00
1248.738, 51439.00
1249.814, 51435.00
1250.890, 51400.00
1251.966, 51630.00
1253.042, 51598.00
1254.117, 51443.00
1255.193, 51661.00
1256.268, 51488.00
1257.343, 51401.00
1258.418, 51671.00
1259.493, 51788.00
1260.567, 51440.00
1261.642, 51824.00
1262.716, 51762.00
1263.790, 51922.00
1264.864, 51979.00
1265.938, 51813.00
1267.011, 52012.00
1268.085, 51892.00
1269.158, 51605.00
1270.231, 51869.00
1271.304, 52156.00
1272.377, 52337.00
1273.450, 52261.00
1274.522, 52237.00
1275.594, 52180.00
1276.666, 52035.00
1277.738, 52240.00
1278.810, 52260.26
1279.882, 52702.00
1280.953, 52609.00
1282.025, 52411.00
1283.096, 52698.00
1284.167, 52505.00
1285.238, 52765.00
1286.308, 52613.00
1287.379, 53079.00
1288.449, 52957.00
1289.519, 52950.00
1290.589, 53136.00
1291.659, 52744.00
1292.729, 53068.00
1293.798, 53236.00
1294.868, 53032.00
1295.937, 53091.00
1297.006, 53180.50
1298.075, 53513.00
1299.143, 53317.00
1300.212, 53476.74
1301.280, 53414.13
1302.348, 53341.00
1303.416, 53535.00
1304.484, 53479.00
1305.552, 53427.00
1306.620, 53615.00
1307.687, 53927.00
1308.754, 53862.79
1309.821, 53891.00
1310.888, 53937.00
1311.955, 53902.00
1313.021, 53965.00
1314.088, 54194.00
1315.154, 53924.00
1316.220, 54162.00
1317.286, 53820.00
1318.352, 53993.00
1319.417, 54107.00
1320.483, 54299.00
1321.548, 54273.76
1322.613, 54237.00
1323.678, 54164.00
1324.743, 54223.00
1325.807, 54085.00
1326.872, 54784.00
1327.936, 54421.00
1329.000, 54488.92
1330.064, 54957.00
1331.128, 54393.00
1332.191, 54434.00
1333.255, 54734.00
1334.318, 54925.00
1335.381, 54764.00
1336.444, 54876.00
1337.507, 54681.00
1338.569, 54797.00
1339.632, 54729.00
1340.694, 54807.00
1341.756, 54786.24
1342.818, 54937.00
1343.880, 54818.00
1344.941, 55005.00
1346.003, 55201.00
1347.064, 55070.00
1348.125, 55034.00
1349.186, 55352.00
1350.247, 55431.00
1351.308, 55121.00
1352.368, 55379.00
1353.428, 55433.00
1354.489, 55444.00
1355.549, 55730.00
1356.608, 55655.00
1357.668, 55706.00
1358.727, 55730.00
1359.787, 55578.00
1360.846, 55517.00
1361.905, 55623.00
1362.964, 56121.00
1364.022, 56427.00
1365.081, 56251.00
1366.139, 55982.00
1367.197, 55975.00
1368.255, 55789.00
1369.313, 55871.02
1370.371, 55812.00
1371.428, 56116.00
1372.486, 56146.00
1373.543, 56296.00
1374.600, 56284.00
1375.657, 56132.00
1376.713, 56275.00
1377.770, 56369.00
1378.826, 56838.00
1379.882, 56440.00
1380.938, 56152.00
1381.994, 56833.00
1383.050, 56766.00
1384.106, 56658.00
1385.161, 56506.00
1386.216, 56743.00
1387.271, 56554.00
1388.326, 56832.00
1389.381, 56634.00
1390.435, 56778.00
1391.490, 57062.00
1392.544, 56874.00
1393.598, 57008.00
1394.652, 57047.00
1395.705, 57135.00
1396.759, 56960.00
1397.812, 57344.00
1398.866, 57121.63
1399.919, 57296.00
1400.972, 56928.00
1402.024, 56985.00
1403.077, 56955.00
1404.129, 57043.00
1405.181, 57517.00
1406.233, 57370.00
1407.285, 57404.00
1408.337, 57653.00
1409.389, 57359.00
1410.440, 57645.00
1411.491, 57779.00
1412.542, 57409.00
1413.593, 57544.00
1414.644, 57616.00
1415.695, 57876.00
1416.745, 57954.00
1417.795, 58095.00
1418.845, 57958.00
1419.895, 57764.00
1420.945, 58032.00
1421.995, 57658.00
1423.044, 58006.00
1424.093, 58316.00
1425.142, 58270.00
1426.191, 58312.00
1427.240, 58250.00
1428.289, 58181.00
1429.337, 58388.00
1430.385, 58455.00
1431.433, 58685.00
1432.481, 58938.00
1433.529, 58814.00
1434.577, 59034.00
1435.624, 58863.00
1436.672, 59115.00
1437.719, 58962.00
1438.766, 58894.00
1439.812, 58891.00
1440.859, 58900.30
1441.905, 58929.00
1442.952, 59044.40
1443.998, 59039.00
1445.044, 59107.00
1446.090, 59268.00
1447.135, 59356.00
1448.181, 59119.00
1449.226, 59228.00
1450.271, 59453.00
1451.316, 59123.00
1452.361, 59234.00
1453.405, 59251.00
1454.450, 59542.00
1455.494, 59372.00
1456.538, 59376.00
1457.582, 59695.00
1458.626, 59739.00
1459.670, 59787.00
1460.713, 59580.00
1461.757, 59391.00
1462.800, 59560.00
1463.843, 59534.15
1464.886, 59787.00
1465.928, 59775.00
1466.971, 59739.00
1468.013, 59790.00
1469.055, 59809.85
1470.097, 59850.29
1471.139, 59905.00
1472.181, 60012.00
1473.222, 60049.00
1474.263, 60232.00
1475.305, 60279.95
1476.346, 60309.06
1477.386, 60430.00
1478.427, 60350.00
1479.468, 60390.00
1480.508, 60465.00
1481.548, 60242.00
1482.588, 60421.00
1483.628, 60317.00
1484.668, 60397.00
1485.707, 60418.47
1486.747, 60444.00
1487.786, 60500.00
1488.825, 60456.00
1489.864, 60619.00
1490.902, 60640.00
1491.941, 60721.00
1492.979, 60905.00
1494.017, 60446.00
1495.055, 60630.00
1496.093, 60708.00
1497.131, 60862.00
1498.168, 60908.00
1499.206, 61141.00
1500.243, 61020.00
1501.280, 60853.00
1502.317, 60923.00
1503.354, 61110.00
1504.390, 60915.00
1505.426, 61270.00
1506.463, 60854.00
1507.499, 61269.00
1508.535, 60990.00
1509.570, 61444.00
1510.606, 61146.00
1511.641, 61198.00
1512.676, 61421.00
1513.711, 61478.00
1514.746, 61632.00
1515.781, 61500.00
1516.816, 61474.00
1517.850, 61566.00
1518.884, 61545.45
1519.918, 61504.00
1520.952, 61655.00
1521.986, 61584.00
1523.019, 61609.00
1524.053, 61800.00
1525.086, 61951.00
1526.119, 61991.00
1527.152, 62016.00
1528.185, 61881.00
1529.217, 62034.00
1530.250, 61844.00
1531.282, 62225.00
1532.314, 62155.00
1533.346, 62119.00
1534.377, 62195.00
1535.409, 62400.00
1536.440, 62288.00
1537.472, 62560.00
1538.503, 62469.00
1539.534, 62446.00
1540.564, 62530.51
1541.595, 62745.00
1542.625, 62579.00
1543.656, 62586.00
1544.686, 62667.00
1545.716, 62540.00
1546.745, 62255.00
1547.775, 62548.00
1548.804, 62451.00
1549.834, 62781.00
1550.863, 62881.00
1551.892, 63090.00
1552.920, 63334.00
1553.949, 63148.00
1554.977, 63332.00
1556.006, 63290.00
1557.034, 63235.00
1558.062, 63181.00
1559.089, 63205.96
1560.117, 63200.35
1561.144, 63296.00
1562.172, 63287.00
1563.199, 63388.00
1564.226, 63494.00
1565.252, 63483.72
1566.279, 63585.00
1567.305, 63552.00
1568.332, 63500.00
1569.358, 63614.00
1570.384, 63989.00
1571.409, 63668.00
1572.435, 64004.00
##END=



