##NAMES=Chalcopyrite
##RRUFFID=R050222
##IDEAL CHEMISTRY=Cu^1+^Fe^3+^S^2-^_2_
##LOCALITY=Iron Cap mine, Landsman Camp, Graham County, Arizona, USA
##OWNER=RRUFF
##SOURCE=Bob Downs
##DESCRIPTION=Group of brass yellow metallic tetrahedra, dark streaks represent alteration by bacteria where S is left behind
##STATUS=The identification of this mineral has been confirmed by X-ray diffraction and chemical analysis
##URL=rruff.info/R050222
##MEASURED CHEMISTRY=Cu_1.00_Fe_1.00_S_2.00_
##PIN_ID=L01086
##ORIENTATION=Laser parallel to -c* (0 0 -1). Fiducial mark perpendicular to laser is parallel to -a [-1 0 0]
89.53200, 5067.000
90.77000, 5335.000
92.00800, 5255.564
93.24600, 5261.000
94.48400, 5103.000
95.72200, 4977.000
96.95900, 4860.510
98.19600, 4355.000
99.43300, 4930.000
100.6700, 5319.000
101.9070, 5425.000
103.1430, 6575.000
104.3800, 8505.000
105.6160, 7782.000
106.8520, 8025.000
108.0880, 7190.000
109.3230, 5641.000
110.5590, 4774.000
111.7940, 4344.000
113.0290, 4558.000
114.2640, 4960.000
115.4990, 5941.000
116.7340, 5497.000
117.9680, 5168.000
119.2030, 4894.000
120.4370, 4504.000
121.6710, 4388.000
122.9040, 4690.000
124.1380, 4883.000
125.3710, 4360.000
126.6050, 4032.000
127.8380, 4032.000
129.0710, 4228.000
130.3030, 4377.000
131.5360, 4510.000
132.7680, 4347.000
134.0000, 4137.000
135.2320, 4045.000
136.4640, 4114.000
137.6960, 4137.000
138.9270, 4538.000
140.1590, 4634.000
141.3900, 4354.000
142.6210, 4030.000
143.8520, 3993.000
145.0820, 3844.000
146.3130, 4085.000
147.5430, 4047.000
148.7730, 3936.000
150.0030, 3843.000
151.2330, 3704.000
152.4630, 3630.000
153.6920, 3691.000
154.9210, 3840.000
156.1510, 3780.000
157.3790, 3692.000
158.6080, 3679.501
159.8370, 3678.642
161.0650, 3563.000
162.2930, 3716.000
163.5220, 3799.000
164.7490, 3779.000
165.9770, 3763.000
167.2050, 3928.000
168.4320, 3965.000
169.6590, 3939.000
170.8860, 4268.000
172.1130, 4239.000
173.3400, 4094.000
174.5660, 4068.000
175.7930, 3948.000
177.0190, 3849.000
178.2450, 3828.000
179.4710, 3744.000
180.6960, 3725.000
181.9220, 3703.000
183.1470, 3683.756
184.3720, 3676.000
185.5970, 3672.000
186.8220, 3822.000
188.0470, 3798.000
189.2710, 3865.000
190.4950, 3803.000
191.7200, 3837.063
192.9430, 3895.000
194.1670, 3829.000
195.3910, 3851.000
196.6140, 3777.000
197.8380, 3728.000
199.0610, 3746.000
200.2830, 3860.000
201.5060, 3908.000
202.7290, 4026.000
203.9510, 4012.000
205.1730, 3981.000
206.3950, 3679.000
207.6170, 3379.000
208.8390, 3138.000
210.0610, 2997.000
211.2820, 2913.000
212.5030, 2784.000
213.7240, 2688.000
214.9450, 2647.000
216.1660, 2605.000
217.3860, 2645.000
218.6070, 2641.000
219.8270, 2662.000
221.0470, 2675.000
222.2670, 2675.606
223.4860, 2709.000
224.7060, 2680.000
225.9250, 2671.000
227.1440, 2667.000
228.3630, 2727.000
229.5820, 2729.000
230.8000, 2772.000
232.0190, 2844.000
233.2370, 2843.000
234.4550, 2897.684
235.6730, 2862.000
236.8910, 2956.000
238.1090, 2914.000
239.3260, 2911.000
240.5430, 2975.000
241.7600, 3014.000
242.9770, 3046.000
244.1940, 3062.000
245.4110, 3093.000
246.6270, 3030.000
247.8430, 3176.000
249.0590, 3250.000
250.2750, 3408.000
251.4910, 3430.000
252.7070, 3701.000
253.9220, 4501.000
255.1370, 4617.000
256.3520, 4877.000
257.5670, 4986.000
258.7820, 4440.000
259.9960, 4212.000
261.2110, 4259.000
262.4250, 4285.000
263.6390, 4433.000
264.8530, 4467.000
266.0660, 4533.000
267.2800, 4557.000
268.4930, 4680.000
269.7060, 4784.000
270.9190, 4799.000
272.1320, 4854.000
273.3450, 4911.000
274.5570, 4965.000
275.7700, 5005.000
276.9820, 5089.000
278.1940, 5397.000
279.4050, 5812.000
280.6170, 6352.000
281.8290, 7185.000
283.0400, 8299.000
284.2510, 9708.000
285.4620, 11807.00
286.6730, 14821.00
287.8830, 19443.00
289.0940, 25611.00
290.3040, 33010.00
291.5140, 40744.00
292.7240, 44318.00
293.9340, 43677.00
295.1430, 37940.00
296.3530, 28695.00
297.5620, 19681.00
298.7710, 13070.00
299.9800, 9236.000
301.1890, 7104.000
302.3970, 5850.744
303.6060, 5118.317
304.8140, 4502.196
306.0220, 4002.723
307.2300, 3565.970
308.4380, 3356.757
309.6450, 3244.994
310.8520, 3266.133
312.0600, 3313.000
313.2670, 3460.000
314.4740, 3640.000
315.6800, 3932.000
316.8870, 4210.000
318.0930, 4696.000
319.2990, 5110.000
320.5050, 5274.000
321.7110, 5373.000
322.9170, 5365.000
324.1220, 5067.000
325.3280, 4811.000
326.5330, 4327.000
327.7380, 4025.000
328.9430, 3798.609
330.1470, 3791.840
331.3520, 3766.003
332.5560, 3722.202
333.7600, 3606.469
334.9640, 3583.622
336.1680, 3523.550
337.3720, 3461.952
338.5750, 3452.219
339.7790, 3328.000
340.9820, 3286.000
342.1850, 3287.000
343.3880, 3113.000
344.5900, 3189.000
345.7930, 3262.000
346.9950, 3380.000
348.1970, 3654.000
349.3990, 4058.000
350.6010, 4532.000
351.8020, 4840.000
353.0040, 4924.000
354.2050, 4970.000
355.4060, 4656.221
356.6070, 4290.268
357.8080, 3905.276
359.0090, 3502.289
360.2090, 3128.373
361.4090, 3092.941
362.6090, 3038.479
363.8090, 2966.014
365.0090, 2821.616
366.2090, 2770.102
367.4080, 2681.433
368.6070, 2591.235
369.8060, 2706.000
371.0050, 2770.000
372.2040, 2780.000
373.4030, 2820.000
374.6010, 2775.000
375.7990, 2738.000
376.9970, 2854.000
378.1950, 2930.000
379.3930, 2938.000
380.5910, 3042.000
381.7880, 3035.000
382.9850, 3115.000
384.1820, 3012.000
385.3790, 2815.000
386.5760, 2545.000
387.7720, 2407.000
388.9690, 2259.000
390.1650, 2186.000
391.3610, 2085.000
392.5570, 2078.000
393.7530, 2046.000
394.9480, 2026.000
396.1440, 1977.000
397.3390, 1994.000
398.5340, 1961.000
399.7290, 1956.000
400.9230, 1987.000
402.1180, 1956.000
403.3120, 1984.000
404.5060, 1964.000
405.7000, 1968.000
406.8940, 1894.000
408.0880, 1961.000
409.2820, 1914.000
410.4750, 1924.000
411.6680, 1912.000
412.8610, 1955.000
414.0540, 1965.000
415.2470, 1963.008
416.4390, 1979.383
417.6310, 1966.000
418.8240, 1981.000
420.0160, 1997.000
421.2080, 1995.000
422.3990, 2001.000
423.5910, 1948.000
424.7820, 1982.000
425.9730, 1983.000
427.1640, 1958.000
428.3550, 1980.000
429.5460, 1968.000
430.7360, 1990.000
431.9270, 1984.000
433.1170, 2017.000
434.3070, 1982.000
435.4970, 1989.000
436.6860, 1989.000
437.8760, 1915.000
439.0650, 2001.000
440.2540, 2011.000
441.4430, 1924.000
442.6320, 2004.000
443.8210, 2001.000
445.0090, 2006.000
446.1970, 1947.000
447.3860, 2099.000
448.5740, 2053.000
449.7610, 2080.000
450.9490, 2031.000
452.1370, 2040.000
453.3240, 2010.000
454.5110, 1997.000
455.6980, 2031.000
456.8850, 2009.000
458.0710, 1981.000
459.2580, 1979.000
460.4440, 1893.000
461.6300, 1992.000
462.8160, 1976.000
464.0020, 1910.000
465.1880, 1901.000
466.3730, 1856.000
467.5590, 1902.000
468.7440, 1900.000
469.9290, 1904.000
471.1140, 1898.000
472.2980, 1860.000
473.4830, 1832.000
474.6670, 1859.000
475.8510, 1881.000
477.0350, 1779.000
478.2190, 1849.000
479.4020, 1823.000
480.5860, 1795.000
481.7690, 1836.000
482.9520, 1846.000
484.1350, 1858.000
485.3180, 1869.952
486.5010, 1844.000
487.6830, 1872.000
488.8660, 1848.000
490.0480, 1840.000
491.2300, 1857.798
492.4110, 1840.000
493.5930, 1876.000
494.7750, 1875.000
495.9560, 1872.000
497.1370, 1880.829
498.3180, 1873.993
499.4990, 1848.000
500.6790, 1879.000
501.8600, 1875.238
503.0400, 1831.000
504.2200, 1899.000
505.4000, 1896.000
506.5800, 1898.429
507.7600, 1879.000
508.9390, 1865.000
510.1190, 1882.000
511.2980, 1870.000
512.4770, 1899.000
513.6550, 1871.000
514.8340, 1900.000
516.0130, 1920.000
517.1910, 1905.000
518.3690, 1929.000
519.5470, 1906.000
520.7250, 1891.000
521.9020, 1856.000
523.0800, 1912.000
524.2570, 1882.000
525.4340, 1916.000
526.6110, 1934.000
527.7880, 1924.000
528.9650, 1905.000
530.1410, 1879.000
531.3180, 1918.000
532.4940, 1913.000
533.6700, 1887.000
534.8450, 1908.000
536.0210, 1887.000
537.1970, 1879.000
538.3720, 1886.000
539.5470, 1893.000
540.7220, 1883.000
541.8970, 1912.000
543.0720, 1943.000
544.2460, 1884.000
545.4200, 1861.000
546.5940, 1895.000
547.7680, 1875.606
548.9420, 1919.528
550.1160, 1944.423
551.2890, 1951.312
552.4630, 1886.271
553.6360, 1914.113
554.8090, 1904.732
555.9820, 1893.824
557.1540, 1934.740
558.3270, 1880.160
559.4990, 1920.254
560.6710, 1922.555
561.8430, 1942.153
563.0150, 1924.297
564.1870, 1871.000
565.3580, 1924.000
566.5300, 1883.000
567.7010, 1929.000
568.8720, 1929.000
570.0430, 1925.000
571.2130, 1881.000
572.3840, 1873.624
573.5540, 1910.247
574.7240, 1927.843
575.8940, 1927.435
577.0640, 1855.094
578.2340, 1875.638
579.4030, 1858.965
580.5730, 1840.759
581.7420, 1874.382
582.9110, 1812.510
584.0800, 1845.311
585.2490, 1840.320
586.4170, 1852.632
587.5850, 1831.272
588.7540, 1829.386
589.9220, 1776.000
591.0900, 1807.000
592.2570, 1793.000
593.4250, 1778.000
594.5920, 1798.857
595.7590, 1828.000
596.9260, 1798.000
598.0930, 1792.000
599.2600, 1746.000
600.4270, 1752.000
601.5930, 1767.000
602.7590, 1778.000
603.9250, 1789.122
605.0910, 1771.000
606.2570, 1818.000
607.4220, 1780.000
608.5880, 1800.000
609.7530, 1809.000
610.9180, 1813.000
612.0830, 1804.000
613.2480, 1815.000
614.4120, 1817.301
615.5770, 1809.000
616.7410, 1837.000
617.9050, 1833.000
619.0690, 1855.000
620.2330, 1765.000
621.3960, 1761.000
622.5600, 1788.000
623.7230, 1818.000
624.8860, 1809.000
626.0490, 1793.000
627.2120, 1826.000
628.3740, 1816.209
629.5370, 1840.324
630.6990, 1836.015
631.8610, 1881.524
633.0230, 1908.006
634.1850, 1916.483
635.3460, 1853.026
636.5080, 1882.456
637.6690, 1874.661
638.8300, 1865.339
639.9910, 1907.840
641.1520, 1854.846
642.3120, 1896.524
643.4730, 1900.411
644.6330, 1921.593
645.7930, 1905.322
646.9530, 1900.618
648.1130, 1933.381
649.2730, 1945.398
650.4320, 1924.813
651.5910, 1947.093
652.7510, 1892.789
653.9100, 1905.688
655.0680, 1947.581
656.2270, 1918.000
657.3850, 1890.000
658.5440, 1869.000
659.7020, 1868.000
660.8600, 1846.377
662.0180, 1862.000
663.1750, 1826.000
664.3330, 1809.000
665.4900, 1806.000
666.6470, 1830.000
667.8040, 1801.000
668.9610, 1767.000
670.1180, 1806.000
671.2740, 1790.000
672.4310, 1751.000
673.5870, 1748.000
674.7430, 1774.000
675.8990, 1769.000
677.0550, 1713.000
678.2100, 1758.000
679.3660, 1704.000
680.5210, 1723.000
681.6760, 1724.000
682.8310, 1740.000
683.9850, 1740.919
685.1400, 1689.000
686.2940, 1741.000
687.4490, 1703.000
688.6030, 1698.000
689.7570, 1760.000
690.9100, 1791.000
692.0640, 1728.000
693.2170, 1758.000
694.3700, 1738.000
695.5240, 1779.000
696.6760, 1836.000
697.8290, 1849.000
698.9820, 1871.987
700.1340, 1833.000
701.2870, 1873.000
702.4390, 1886.000
703.5910, 1856.000
704.7420, 1890.000
705.8940, 1953.000
707.0450, 1866.000
708.1970, 1917.000
709.3480, 1937.000
710.4990, 1863.000
711.6500, 1885.000
712.8000, 1926.000
713.9510, 1902.000
715.1010, 1867.000
716.2510, 1860.000
717.4010, 1823.000
718.5510, 1812.000
719.7010, 1812.000
720.8500, 1792.000
721.9990, 1800.000
723.1490, 1759.433
724.2980, 1796.947
725.4460, 1815.438
726.5950, 1815.919
727.7440, 1744.468
728.8920, 1765.908
730.0400, 1750.123
731.1880, 1732.812
732.3360, 1767.325
733.4840, 1706.342
734.6310, 1740.037
735.7790, 1735.936
736.9260, 1749.136
738.0730, 1724.883
739.2200, 1712.197
740.3670, 1736.978
741.5130, 1741.018
742.6600, 1670.000
743.8060, 1662.000
744.9520, 1661.000
746.0980, 1719.000
747.2440, 1745.000
748.3890, 1740.000
749.5350, 1685.000
750.6800, 1697.000
751.8250, 1675.000
752.9700, 1681.000
754.1150, 1686.000
755.2590, 1669.000
756.4040, 1692.000
757.5480, 1668.000
758.6920, 1590.000
759.8360, 1665.000
760.9800, 1733.000
762.1230, 1697.000
763.2670, 1647.000
764.4100, 1648.000
765.5530, 1685.000
766.6960, 1673.000
767.8390, 1713.000
768.9820, 1642.000
770.1240, 1669.000
771.2670, 1655.000
772.4090, 1676.000
773.5510, 1714.000
774.6930, 1668.000
775.8350, 1651.951
776.9760, 1693.039
778.1170, 1715.100
779.2590, 1719.154
780.4000, 1651.279
781.5410, 1676.288
782.6810, 1664.075
783.8220, 1650.334
784.9620, 1688.419
786.1020, 1660.000
787.2430, 1632.000
788.3820, 1637.000
789.5220, 1655.000
790.6620, 1619.000
791.8010, 1629.000
792.9400, 1681.000
794.0800, 1673.000
795.2190, 1661.000
796.3570, 1653.000
797.4960, 1657.000
798.6340, 1658.000
799.7730, 1671.000
800.9110, 1688.047
802.0490, 1723.000
803.1870, 1716.000
804.3240, 1742.000
805.4620, 1719.683
806.5990, 1709.400
807.7360, 1648.000
808.8730, 1652.000
810.0100, 1683.000
811.1470, 1629.000
812.2830, 1683.000
813.4200, 1650.000
814.5560, 1668.000
815.6920, 1610.000
816.8280, 1651.000
817.9630, 1650.000
819.0990, 1666.000
820.2340, 1679.000
821.3700, 1691.000
822.5050, 1700.000
823.6400, 1688.000
824.7740, 1718.270
825.9090, 1727.000
827.0430, 1753.000
828.1780, 1740.012
829.3120, 1725.000
830.4460, 1713.000
831.5790, 1722.000
832.7130, 1661.000
833.8460, 1730.000
834.9800, 1680.000
836.1130, 1720.000
837.2460, 1704.000
838.3790, 1676.000
839.5110, 1715.000
840.6440, 1718.000
841.7760, 1693.000
842.9080, 1745.000
844.0400, 1686.000
845.1720, 1733.000
846.3040, 1690.000
847.4350, 1651.000
848.5670, 1719.000
849.6980, 1690.000
850.8290, 1755.000
851.9600, 1734.000
853.0910, 1737.503
854.2210, 1732.000
855.3520, 1721.000
856.4820, 1730.000
857.6120, 1708.000
858.7420, 1732.000
859.8720, 1818.000
861.0010, 1724.000
862.1310, 1786.000
863.2600, 1793.000
864.3890, 1711.000
865.5180, 1742.000
866.6470, 1741.000
867.7750, 1784.000
868.9040, 1724.000
870.0320, 1766.000
871.1600, 1709.000
872.2880, 1770.000
873.4160, 1776.000
874.5440, 1768.000
875.6710, 1770.000
876.7990, 1775.000
877.9260, 1775.000
879.0530, 1780.128
880.1800, 1785.000
881.3060, 1774.000
882.4330, 1797.000
883.5590, 1764.000
884.6860, 1722.000
885.8120, 1801.000
886.9380, 1756.000
888.0630, 1763.000
889.1890, 1803.000
890.3140, 1755.000
891.4400, 1826.000
892.5650, 1840.000
893.6900, 1750.000
894.8140, 1789.000
895.9390, 1810.000
897.0640, 1801.000
898.1880, 1826.000
899.3120, 1765.000
900.4360, 1808.000
901.5600, 1779.000
902.6830, 1830.000
903.8070, 1827.000
904.9300, 1848.000
906.0540, 1875.000
907.1770, 1829.000
908.2990, 1783.000
909.4220, 1816.000
910.5450, 1828.000
911.6670, 1846.000
912.7890, 1841.000
913.9110, 1823.000
915.0330, 1835.000
916.1550, 1874.000
917.2770, 1814.000
918.3980, 1848.000
919.5190, 1872.000
920.6400, 1844.000
921.7610, 1859.000
922.8820, 1908.000
924.0030, 1867.000
925.1230, 1867.000
926.2440, 1820.000
927.3640, 1879.000
928.4840, 1882.000
929.6040, 1897.000
930.7230, 1863.000
931.8430, 1904.000
932.9620, 1899.000
934.0810, 1909.000
935.2000, 1898.000
936.3190, 1899.000
937.4380, 1892.000
938.5570, 1845.000
939.6750, 1862.000
940.7930, 1853.000
941.9110, 1897.000
943.0290, 1893.000
944.1470, 1917.000
945.2650, 1876.000
946.3820, 1882.000
947.4990, 1924.000
948.6160, 1877.000
949.7330, 1901.000
950.8500, 1899.000
951.9670, 1842.000
953.0830, 1871.000
954.2000, 1940.000
955.3160, 1850.000
956.4320, 1930.000
957.5480, 1895.000
958.6630, 1891.000
959.7790, 1901.000
960.8940, 1860.484
962.0100, 1909.434
963.1250, 1939.351
964.2390, 1951.259
965.3540, 1891.240
966.4690, 1924.106
967.5830, 1919.742
968.6970, 1913.853
969.8120, 1959.792
970.9260, 1910.230
972.0390, 1955.337
973.1530, 1962.657
974.2660, 1987.268
975.3800, 1974.431
976.4930, 1973.157
977.6060, 2009.349
978.7190, 2024.795
979.8310, 2007.637
980.9440, 2033.348
982.0560, 1982.468
983.1680, 1998.793
984.2810, 2044.119
985.3920, 2028.839
986.5040, 2055.230
987.6160, 2037.000
988.7270, 2040.913
989.8380, 2063.000
990.9490, 2026.000
992.0600, 2011.000
993.1710, 1964.000
994.2820, 2001.132
995.3920, 2045.455
996.5030, 2070.752
997.6130, 2078.042
998.7230, 2013.402
999.8330, 2041.646
1000.942, 2032.665
1002.052, 2022.159
1003.161, 2063.475
1004.270, 2009.296
1005.379, 2049.790
1006.488, 2052.493
1007.597, 2072.492
1008.705, 2055.036
1009.814, 2049.149
1010.922, 2080.728
1012.030, 2053.000
1013.138, 2020.000
1014.246, 2050.000
1015.354, 1989.000
1016.461, 2032.000
1017.568, 2008.000
1018.675, 2069.000
1019.782, 2110.000
1020.889, 2047.000
1021.996, 2053.000
1023.102, 2030.000
1024.209, 2051.000
1025.315, 2051.000
1026.421, 2021.000
1027.527, 2039.176
1028.633, 2034.000
1029.738, 2033.000
1030.844, 2053.000
1031.949, 2028.000
1033.054, 2028.000
1034.159, 2036.000
1035.264, 2057.000
1036.368, 2047.905
1037.473, 2110.000
1038.577, 2039.000
1039.681, 2051.000
1040.785, 2045.000
1041.889, 1971.000
1042.993, 2057.000
1044.096, 2064.000
1045.199, 2066.000
1046.303, 2061.000
1047.406, 2071.000
1048.509, 2060.201
1049.611, 2053.000
1050.714, 2053.000
1051.816, 2097.000
1052.918, 2118.000
1054.021, 2075.000
1055.123, 2067.000
1056.224, 2023.000
1057.326, 2032.143
1058.427, 2110.000
1059.529, 2069.000
1060.630, 2067.000
1061.731, 2122.000
1062.832, 2071.000
1063.932, 2164.000
1065.033, 2067.000
1066.133, 2083.000
1067.233, 2168.000
1068.333, 2080.000
1069.433, 2091.000
1070.533, 2161.000
1071.633, 2029.000
1072.732, 2123.000
1073.831, 2041.000
1074.930, 2096.000
1076.029, 2064.000
1077.128, 2122.000
1078.227, 2094.000
1079.325, 2131.000
1080.424, 2078.000
1081.522, 2102.000
1082.620, 2140.000
1083.718, 2100.000
1084.815, 2110.000
1085.913, 2114.856
1087.010, 2106.000
1088.108, 2129.974
1089.205, 2102.404
1090.302, 2126.746
1091.398, 2090.000
1092.495, 2101.000
1093.591, 2109.000
1094.688, 2084.000
1095.784, 2115.000
1096.880, 2081.000
1097.976, 2123.000
1099.071, 2054.000
1100.167, 2092.000
1101.262, 2062.000
1102.357, 2068.000
1103.452, 2103.000
1104.547, 2084.000
1105.642, 2042.000
1106.736, 2108.000
1107.831, 2022.000
1108.925, 2012.000
1110.019, 2035.000
1111.113, 2102.000
1112.207, 2031.000
1113.301, 2071.000
1114.394, 2101.000
1115.487, 2096.000
1116.580, 2078.000
1117.673, 2028.000
1118.766, 2035.432
1119.859, 2075.120
1120.952, 2095.782
1122.044, 2098.442
1123.136, 2029.171
1124.228, 2052.784
1125.320, 2039.173
1126.412, 2024.036
1127.503, 2060.726
1128.595, 2001.917
1129.686, 2037.784
1130.777, 2035.861
1131.868, 2051.233
1132.959, 2029.151
1134.050, 1979.000
1135.140, 2022.000
1136.231, 2056.000
1137.321, 2011.000
1138.411, 1998.000
1139.501, 2038.000
1140.590, 2052.000
1141.680, 2033.694
1142.769, 2016.000
1143.859, 1992.000
1144.948, 2005.000
1146.037, 1973.000
1147.125, 1990.000
1148.214, 2010.000
1149.303, 1995.934
1150.391, 2000.680
1151.479, 1990.000
1152.567, 1993.000
1153.655, 1980.000
1154.743, 1997.000
1155.830, 1909.000
1156.917, 1988.000
1158.005, 1943.000
1159.092, 1984.000
1160.179, 1952.000
1161.265, 1987.000
1162.352, 1972.000
1163.439, 1988.000
1164.525, 1986.000
1165.611, 1926.000
1166.697, 1994.000
1167.783, 1943.000
1168.868, 2010.000
1169.954, 2023.000
1171.039, 1996.000
1172.125, 1988.000
1173.210, 2006.000
1174.295, 1962.000
1175.379, 1999.000
1176.464, 1984.645
1177.548, 1957.000
1178.633, 1979.000
1179.717, 1982.000
1180.801, 1973.000
1181.884, 1993.000
1182.968, 1956.000
1184.052, 2021.000
1185.135, 1944.000
1186.218, 2058.000
1187.301, 1944.000
1188.384, 1993.000
1189.467, 1979.000
1190.549, 1932.000
1191.632, 1923.000
1192.714, 1963.000
1193.796, 1960.000
1194.878, 2000.443
1195.960, 2045.188
1197.042, 2070.906
1198.123, 2078.618
1199.204, 2014.399
1200.286, 2043.065
1201.367, 2034.506
1202.447, 2024.420
1203.528, 2066.157
1204.609, 2012.400
1205.689, 2053.315
1206.769, 2056.439
1207.849, 2076.858
1208.929, 2059.824
1210.009, 2054.358
1211.089, 2086.358
1212.168, 2097.612
1213.248, 2076.266
1214.327, 2097.784
1215.406, 2042.716
1216.485, 2054.853
1217.563, 2095.985
1218.642, 2064.519
1219.720, 1984.000
1220.798, 2039.000
1221.877, 2027.000
1222.954, 1963.000
1224.032, 2070.000
1225.110, 2016.000
1226.187, 1986.000
1227.265, 1976.000
1228.342, 1964.000
1229.419, 2026.000
1230.496, 2053.000
1231.572, 2046.000
1232.649, 1991.000
1233.725, 2008.000
1234.801, 1957.000
1235.878, 1972.000
1236.953, 2039.000
1238.029, 1978.000
1239.105, 2050.000
1240.180, 1979.000
1241.256, 2026.000
1242.331, 2029.000
1243.406, 2032.000
1244.481, 2040.000
1245.555, 2096.000
1246.630, 2047.000
1247.704, 2067.000
1248.778, 1998.000
1249.852, 2079.000
1250.926, 2032.000
1252.000, 2021.000
1253.074, 2019.000
1254.147, 2044.514
1255.220, 2089.804
1256.294, 2116.068
1257.367, 2124.326
1258.439, 2060.651
1259.512, 2089.862
1260.585, 2081.849
1261.657, 2072.307
1262.729, 2114.590
1263.801, 2061.376
1264.873, 2102.837
1265.945, 2106.505
1267.017, 2127.470
1268.088, 2110.979
1269.159, 2106.057
1270.231, 2138.602
1271.302, 2150.400
1272.372, 2129.596
1273.443, 2151.659
1274.514, 2102.000
1275.584, 2087.000
1276.654, 2098.000
1277.724, 2091.598
1278.794, 2135.000
1279.864, 2101.000
1280.934, 2091.000
1282.003, 2102.000
1283.072, 2045.000
1284.141, 2059.000
1285.210, 2107.000
1286.279, 2076.000
1287.348, 2122.000
1288.417, 2101.000
1289.485, 2082.000
1290.553, 2084.000
1291.621, 2121.000
1292.689, 2106.000
1293.757, 2115.000
1294.825, 2120.000
1295.892, 2094.000
1296.959, 2157.000
1298.026, 2147.000
1299.093, 2094.701
1300.160, 2176.000
1301.227, 2080.000
1302.294, 2202.000
1303.360, 2173.853
1304.426, 2147.000
1305.492, 2182.000
1306.558, 2126.000
1307.624, 2134.000
1308.690, 2134.000
1309.755, 2164.000
1310.820, 2140.000
1311.886, 2105.000
1312.951, 2214.000
1314.015, 2179.000
1315.080, 2232.000
1316.145, 2201.000
1317.209, 2153.000
1318.273, 2180.000
1319.337, 2186.000
1320.401, 2236.000
1321.465, 2116.000
1322.529, 2180.000
1323.592, 2171.000
1324.656, 2205.000
1325.719, 2190.000
1326.782, 2138.000
1327.845, 2199.000
1328.907, 2107.000
1329.970, 2156.000
1331.032, 2182.000
1332.095, 2175.000
1333.157, 2197.000
1334.219, 2177.000
1335.280, 2125.000
1336.342, 2182.000
1337.404, 2144.000
1338.465, 2165.000
1339.526, 2237.000
1340.587, 2120.000
1341.648, 2155.000
1342.709, 2132.000
1343.769, 2189.000
1344.830, 2176.000
1345.890, 2148.000
1346.950, 2190.000
1348.010, 2117.000
1349.070, 2137.000
1350.130, 2121.000
1351.189, 2129.655
1352.249, 2173.579
1353.308, 2198.475
1354.367, 2205.366
1355.426, 2140.326
1356.485, 2168.170
1357.543, 2158.791
1358.602, 2147.885
1359.660, 2188.802
1360.718, 2134.223
1361.776, 2174.318
1362.834, 2176.621
1363.892, 2196.221
1364.949, 2178.366
1366.006, 2172.080
1367.064, 2203.260
1368.121, 2213.694
1369.178, 2191.528
1370.235, 2172.323
1371.291, 2216.094
1372.348, 2240.837
1373.404, 2247.575
1374.460, 2182.382
1375.516, 2210.073
1376.572, 2200.540
1377.628, 2189.481
1378.683, 2230.245
1379.739, 2175.514
1380.794, 2215.456
1381.849, 2217.606
1382.904, 2237.053
1383.959, 2219.046
1385.013, 2212.606
1386.068, 2243.633
1387.122, 2253.915
1388.176, 2231.595
1389.231, 2252.142
1390.284, 2196.101
1391.338, 2207.266
1392.392, 2247.427
1393.445, 2195.000
1394.498, 2209.000
1395.552, 2151.000
1396.605, 2226.000
1397.657, 2184.000
1398.710, 2227.000
1399.763, 2240.000
1400.815, 2213.000
1401.867, 2223.000
1402.919, 2212.000
1403.971, 2195.954
1405.023, 2241.457
1406.075, 2267.933
1407.126, 2276.402
1408.177, 2212.939
1409.229, 2242.364
1410.280, 2234.562
1411.330, 2225.231
1412.381, 2267.726
1413.432, 2214.726
1414.482, 2256.397
1415.532, 2260.277
1416.582, 2281.452
1417.632, 2265.174
1418.682, 2260.465
1419.732, 2293.221
1420.781, 2305.230
1421.831, 2284.640
1422.880, 2306.913
1423.929, 2252.601
1424.978, 2265.493
1426.027, 2307.382
1427.075, 2288.672
1428.124, 2215.000
1429.172, 2260.000
1430.220, 2271.000
1431.268, 2250.000
1432.316, 2343.000
1433.364, 2307.000
1434.411, 2314.000
1435.459, 2304.000
1436.506, 2318.000
1437.553, 2287.000
1438.600, 2295.627
1439.647, 2297.000
1440.693, 2318.000
1441.740, 2316.000
1442.786, 2378.000
1443.832, 2344.315
1444.878, 2389.037
1445.924, 2414.732
1446.970, 2422.422
1448.015, 2358.180
1449.061, 2386.823
1450.106, 2378.241
1451.151, 2368.133
1452.196, 2409.848
1453.241, 2356.068
1454.286, 2396.961
1455.330, 2400.061
1456.375, 2420.459
1457.419, 2397.000
1458.463, 2385.000
1459.507, 2399.000
1460.551, 2390.926
1461.594, 2389.000
1462.638, 2367.000
1463.681, 2393.000
1464.724, 2358.000
1465.767, 2364.885
1466.810, 2405.347
1467.853, 2426.781
1468.895, 2430.213
1469.938, 2361.711
1470.980, 2386.096
1472.022, 2373.257
1473.064, 2358.892
1474.106, 2396.351
1475.148, 2338.313
1476.189, 2374.953
1477.230, 2373.800
1478.272, 2389.941
1479.313, 2368.631
1480.354, 2358.889
1481.394, 2386.616
1482.435, 2360.891
1483.476, 2373.947
1484.516, 2375.000
1485.556, 2345.000
1486.596, 2361.000
1487.636, 2311.000
1488.676, 2331.000
1489.715, 2365.000
1490.755, 2334.000
1491.794, 2317.000
1492.833, 2324.000
1493.872, 2320.000
1494.911, 2326.131
1495.949, 2319.665
1496.988, 2346.000
1498.026, 2322.000
1499.064, 2329.000
1500.103, 2365.000
1501.140, 2352.000
1502.178, 2368.911
1503.216, 2362.000
1504.253, 2376.000
1505.291, 2324.000
1506.328, 2312.000
1507.365, 2322.000
1508.402, 2413.000
1509.438, 2384.723
1510.475, 2397.907
1511.511, 2401.000
1512.548, 2357.000
1513.584, 2378.000
1514.620, 2332.000
1515.656, 2322.000
1516.691, 2367.000
1517.727, 2407.000
1518.762, 2365.000
1519.797, 2373.000
1520.832, 2351.000
1521.867, 2368.000
1522.902, 2370.000
1523.937, 2368.000
1524.971, 2393.000
1526.005, 2406.000
1527.040, 2435.000
1528.074, 2344.000
1529.108, 2455.000
1530.141, 2409.000
1531.175, 2388.000
1532.208, 2456.000
1533.242, 2361.000
1534.275, 2425.000
1535.308, 2407.123
1536.341, 2452.102
1537.373, 2478.052
1538.406, 2485.999
1539.438, 2422.013
1540.470, 2450.912
1541.502, 2442.586
1542.534, 2432.735
1543.566, 2474.707
1544.598, 2421.183
1545.629, 2462.332
1546.661, 2465.689
1547.692, 2486.342
1548.723, 2469.542
1549.754, 2464.309
1550.784, 2496.541
1551.815, 2508.028
1552.846, 2486.916
1553.876, 2508.667
1554.906, 2453.832
1555.936, 2466.202
1556.966, 2507.568
1557.996, 2488.337
1559.025, 2510.772
1560.054, 2517.337
1561.084, 2451.786
1562.113, 2511.654
1563.142, 2517.281
1564.171, 2467.216
1565.199, 2522.785
1566.228, 2486.000
1567.256, 2450.000
1568.284, 2426.000
1569.312, 2501.000
1570.340, 2488.000
1571.368, 2522.000
1572.396, 2450.000
1573.423, 2487.000
1574.451, 2517.000
1575.478, 2466.000
##END=



