##NAMES=Chalcopyrite
##RRUFFID=R050222
##IDEAL CHEMISTRY=Cu^1+^Fe^3+^S^2-^_2_
##LOCALITY=Iron Cap mine, Landsman Camp, Graham County, Arizona, USA
##OWNER=RRUFF
##SOURCE=Bob Downs
##DESCRIPTION=Group of brass yellow metallic tetrahedra, dark streaks represent alteration by bacteria where S is left behind
##STATUS=The identification of this mineral has been confirmed by X-ray diffraction and chemical analysis
##URL=rruff.info/R050222
##MEASURED CHEMISTRY=Cu_1.00_Fe_1.00_S_2.00_
##PIN_ID=L01086
##ORIENTATION=Laser parallel to -c* (0 0 -1). Fiducial mark perpendicular to laser is parallel to -a [-1 0 0]
93.24600, 5100.000
94.48400, 4927.000
95.72200, 4867.000
96.95900, 4769.057
98.19600, 4100.000
99.43300, 4647.000
100.6700, 4938.000
101.9070, 5027.000
103.1430, 5828.000
104.3800, 6845.000
105.6160, 7298.000
106.8520, 7697.000
108.0880, 7177.000
109.3230, 5872.000
110.5590, 5275.000
111.7940, 5178.000
113.0290, 5055.000
114.2640, 5221.000
115.4990, 5450.000
116.7340, 5332.000
117.9680, 5408.000
119.2030, 5457.000
120.4370, 4906.000
121.6710, 4430.000
122.9040, 4474.000
124.1380, 4036.520
125.3710, 4017.000
126.6050, 3748.000
127.8380, 3717.000
129.0710, 3892.000
130.3030, 4060.000
131.5360, 4237.000
132.7680, 4049.000
134.0000, 3813.000
135.2320, 3876.000
136.4640, 3781.000
137.6960, 3810.000
138.9270, 4175.000
140.1590, 4390.000
141.3900, 4055.000
142.6210, 3797.000
143.8520, 3692.000
145.0820, 3637.000
146.3130, 3660.000
147.5430, 3574.195
148.7730, 3542.611
150.0030, 3488.000
151.2330, 3426.000
152.4630, 3386.000
153.6920, 3305.000
154.9210, 3309.963
156.1510, 3265.469
157.3790, 3316.000
158.6080, 3261.000
159.8370, 3260.000
161.0650, 3343.000
162.2930, 3392.000
163.5220, 3482.000
164.7490, 3408.000
165.9770, 3387.000
167.2050, 3403.000
168.4320, 3473.000
169.6590, 3537.000
170.8860, 3613.000
172.1130, 3705.000
173.3400, 3651.000
174.5660, 3549.000
175.7930, 3590.000
177.0190, 3424.000
178.2450, 3389.000
179.4710, 3352.000
180.6960, 3224.000
181.9220, 3174.000
183.1470, 3128.000
184.3720, 3139.000
185.5970, 3234.000
186.8220, 3269.000
188.0470, 3313.000
189.2710, 3269.000
190.4950, 3372.000
191.7200, 3510.000
192.9430, 3463.670
194.1670, 3370.000
195.3910, 3470.000
196.6140, 3363.000
197.8380, 3385.000
199.0610, 3372.000
200.2830, 3401.000
201.5060, 3438.000
202.7290, 3596.000
203.9510, 3683.000
205.1730, 3637.000
206.3950, 3438.000
207.6170, 3131.000
208.8390, 2843.000
210.0610, 2788.938
211.2820, 2778.278
212.5030, 2753.597
213.7240, 2715.650
214.9450, 2624.701
216.1660, 2602.193
217.3860, 2552.292
218.6070, 2501.232
219.8270, 2488.391
221.0470, 2405.186
222.2670, 2401.000
223.4860, 2418.000
224.7060, 2454.000
225.9250, 2464.000
227.1440, 2523.000
228.3630, 2454.000
229.5820, 2502.000
230.8000, 2636.000
232.0190, 2602.316
233.2370, 2769.000
234.4550, 2674.000
235.6730, 2635.000
236.8910, 2704.000
238.1090, 2706.000
239.3260, 2717.000
240.5430, 2721.000
241.7600, 2743.370
242.9770, 2761.795
244.1940, 2794.000
245.4110, 2830.000
246.6270, 2861.000
247.8430, 2935.830
249.0590, 3017.000
250.2750, 3115.000
251.4910, 3337.001
252.7070, 3420.000
253.9220, 3892.000
255.1370, 4281.000
256.3520, 4696.000
257.5670, 4752.000
258.7820, 4279.000
259.9960, 3966.000
261.2110, 3978.000
262.4250, 4179.000
263.6390, 4224.000
264.8530, 4385.000
266.0660, 4384.000
267.2800, 4506.000
268.4930, 4521.000
269.7060, 4661.000
270.9190, 4600.000
272.1320, 4647.000
273.3450, 4690.000
274.5570, 4755.000
275.7700, 4740.000
276.9820, 4864.000
278.1940, 5147.000
279.4050, 5470.000
280.6170, 5948.000
281.8290, 6739.000
283.0400, 7681.000
284.2510, 9101.000
285.4620, 11128.00
286.6730, 15099.64
287.8830, 18071.00
289.0940, 25625.00
290.3040, 32232.00
291.5140, 40159.00
292.7240, 41716.00
293.9340, 40906.00
295.1430, 35146.00
296.3530, 26805.00
297.5620, 18515.00
298.7710, 12289.00
299.9800, 8853.000
301.1890, 6639.000
302.3970, 5375.000
303.6060, 4568.000
304.8140, 4050.000
306.0220, 3625.000
307.2300, 3421.000
308.4380, 3169.000
309.6450, 3070.000
310.8520, 2920.000
312.0600, 2822.000
313.2670, 2888.000
314.4740, 2920.000
315.6800, 3016.000
316.8870, 3177.000
318.0930, 3429.000
319.2990, 3723.000
320.5050, 3957.000
321.7110, 4017.000
322.9170, 4015.000
324.1220, 3732.000
325.3280, 3536.000
326.5330, 3350.000
327.7380, 3154.083
328.9430, 2976.000
330.1470, 2849.000
331.3520, 2791.000
332.5560, 2693.000
333.7600, 2688.000
334.9640, 2592.000
336.1680, 2624.000
337.3720, 2699.000
338.5750, 2716.000
339.7790, 2674.000
340.9820, 2615.000
342.1850, 2649.000
343.3880, 2633.000
344.5900, 2534.000
345.7930, 2631.000
346.9950, 2722.000
348.1970, 2929.000
349.3990, 3228.000
350.6010, 3412.000
351.8020, 3758.000
353.0040, 3861.000
354.2050, 3896.000
355.4060, 3796.000
356.6070, 3403.000
357.8080, 3015.000
359.0090, 2813.000
360.2090, 2556.000
361.4090, 2508.000
362.6090, 2391.000
363.8090, 2306.000
365.0090, 2243.000
366.2090, 2255.000
367.4080, 2353.000
368.6070, 2437.000
369.8060, 2470.000
371.0050, 2582.000
372.2040, 2609.000
373.4030, 2668.000
374.6010, 2738.000
375.7990, 2925.000
376.9970, 3179.000
378.1950, 3588.000
379.3930, 4170.000
380.5910, 4867.000
381.7880, 5424.000
382.9850, 5726.000
384.1820, 5628.000
385.3790, 5009.000
386.5760, 4164.000
387.7720, 3475.000
388.9690, 2886.000
390.1650, 2481.000
391.3610, 2309.000
392.5570, 2150.000
393.7530, 2100.000
394.9480, 2043.000
396.1440, 1961.000
397.3390, 1906.000
398.5340, 1915.000
399.7290, 1849.000
400.9230, 1886.000
402.1180, 1889.000
403.3120, 1881.000
404.5060, 1800.000
405.7000, 1854.000
406.8940, 1857.000
408.0880, 1786.000
409.2820, 1881.000
410.4750, 1862.000
411.6680, 1883.000
412.8610, 1860.450
414.0540, 1849.000
415.2470, 1795.000
416.4390, 1844.000
417.6310, 1877.000
418.8240, 1823.000
420.0160, 1845.000
421.2080, 1849.000
422.3990, 1872.000
423.5910, 1837.000
424.7820, 1874.000
425.9730, 1880.000
427.1640, 1936.000
428.3550, 1895.000
429.5460, 1899.000
430.7360, 1896.000
431.9270, 1839.000
433.1170, 1891.000
434.3070, 1836.000
435.4970, 1865.000
436.6860, 1838.000
437.8760, 1865.000
439.0650, 1842.000
440.2540, 1775.000
441.4430, 1801.000
442.6320, 1783.000
443.8210, 1890.000
445.0090, 1868.000
446.1970, 1873.000
447.3860, 1801.000
448.5740, 1828.000
449.7610, 1847.000
450.9490, 1765.000
452.1370, 1829.000
453.3240, 1819.000
454.5110, 1866.000
455.6980, 1805.000
456.8850, 1817.000
458.0710, 1786.000
459.2580, 1787.000
460.4440, 1809.000
461.6300, 1733.000
462.8160, 1712.000
464.0020, 1717.000
465.1880, 1746.000
466.3730, 1713.000
467.5590, 1738.807
468.7440, 1703.000
469.9290, 1746.000
471.1140, 1683.000
472.2980, 1651.000
473.4830, 1659.000
474.6670, 1709.000
475.8510, 1657.000
477.0350, 1688.000
478.2190, 1692.000
479.4020, 1703.000
480.5860, 1675.000
481.7690, 1669.434
482.9520, 1666.350
484.1350, 1655.000
485.3180, 1653.000
486.5010, 1701.000
487.6830, 1690.000
488.8660, 1716.000
490.0480, 1719.000
491.2300, 1682.034
492.4110, 1776.000
493.5930, 1612.000
494.7750, 1712.000
495.9560, 1715.000
497.1370, 1650.000
498.3180, 1678.000
499.4990, 1707.000
500.6790, 1713.000
501.8600, 1705.000
503.0400, 1686.000
504.2200, 1707.000
505.4000, 1752.000
506.5800, 1713.000
507.7600, 1708.000
508.9390, 1672.000
510.1190, 1710.000
511.2980, 1747.000
512.4770, 1709.000
513.6550, 1737.552
514.8340, 1715.000
516.0130, 1761.000
517.1910, 1695.000
518.3690, 1754.000
519.5470, 1711.000
520.7250, 1749.000
521.9020, 1754.449
523.0800, 1743.000
524.2570, 1760.000
525.4340, 1729.546
526.6110, 1771.820
527.7880, 1795.066
528.9650, 1800.307
530.1410, 1733.618
531.3180, 1759.812
532.4940, 1748.783
533.6700, 1736.228
534.8450, 1775.498
536.0210, 1719.271
537.1970, 1757.717
538.3720, 1758.373
539.5470, 1776.325
540.7220, 1756.823
541.8970, 1748.890
543.0720, 1778.422
544.2460, 1787.211
545.4200, 1768.955
546.5940, 1792.000
547.7680, 1737.000
548.9420, 1693.000
550.1160, 1690.000
551.2890, 1739.000
552.4630, 1654.000
553.6360, 1702.000
554.8090, 1757.000
555.9820, 1716.000
557.1540, 1732.000
558.3270, 1763.000
559.4990, 1739.000
560.6710, 1699.000
561.8430, 1708.000
563.0150, 1718.000
564.1870, 1815.000
565.3580, 1782.642
566.5300, 1779.853
567.7010, 1776.000
568.8720, 1739.000
570.0430, 1741.000
571.2130, 1783.000
572.3840, 1804.000
573.5540, 1755.000
574.7240, 1797.000
575.8940, 1745.000
577.0640, 1774.000
578.2340, 1790.000
579.4030, 1733.000
580.5730, 1747.000
581.7420, 1761.000
582.9110, 1725.468
584.0800, 1729.584
585.2490, 1675.000
586.4170, 1700.000
587.5850, 1648.000
588.7540, 1633.000
589.9220, 1681.000
591.0900, 1679.000
592.2570, 1646.000
593.4250, 1657.000
594.5920, 1649.248
595.7590, 1632.893
596.9260, 1626.000
598.0930, 1620.000
599.2600, 1552.000
600.4270, 1565.000
601.5930, 1552.000
602.7590, 1559.000
603.9250, 1589.000
605.0910, 1608.000
606.2570, 1628.000
607.4220, 1643.000
608.5880, 1652.339
609.7530, 1633.000
610.9180, 1648.000
612.0830, 1633.000
613.2480, 1592.000
614.4120, 1695.000
615.5770, 1711.000
616.7410, 1703.433
617.9050, 1711.777
619.0690, 1685.000
620.2330, 1656.000
621.3960, 1630.000
622.5600, 1613.000
623.7230, 1626.000
624.8860, 1624.000
626.0490, 1619.000
627.2120, 1652.000
628.3740, 1599.000
629.5370, 1623.000
630.6990, 1642.000
631.8610, 1621.000
633.0230, 1611.000
634.1850, 1626.000
635.3460, 1575.000
636.5080, 1578.000
637.6690, 1586.000
638.8300, 1608.000
639.9910, 1615.000
641.1520, 1571.000
642.3120, 1551.000
643.4730, 1593.000
644.6330, 1635.000
645.7930, 1616.000
646.9530, 1659.115
648.1130, 1630.000
649.2730, 1691.000
650.4320, 1716.000
651.5910, 1712.000
652.7510, 1677.000
653.9100, 1751.000
655.0680, 1728.000
656.2270, 1716.000
657.3850, 1730.000
658.5440, 1706.000
659.7020, 1692.000
660.8600, 1669.000
662.0180, 1660.000
663.1750, 1674.000
664.3330, 1678.000
665.4900, 1658.000
666.6470, 1645.000
667.8040, 1629.000
668.9610, 1647.000
670.1180, 1626.000
671.2740, 1599.000
672.4310, 1609.000
673.5870, 1571.000
674.7430, 1614.000
675.8990, 1575.000
677.0550, 1536.000
678.2100, 1572.351
679.3660, 1589.000
680.5210, 1607.000
681.6760, 1542.000
682.8310, 1547.000
683.9850, 1542.000
685.1400, 1497.308
686.2940, 1522.229
687.4490, 1522.000
688.6030, 1485.000
689.7570, 1538.419
690.9100, 1555.782
692.0640, 1607.000
693.2170, 1616.000
694.3700, 1631.000
695.5240, 1652.000
696.6760, 1653.497
697.8290, 1676.000
698.9820, 1654.000
700.1340, 1668.000
701.2870, 1653.000
702.4390, 1672.000
703.5910, 1699.000
704.7420, 1688.000
705.8940, 1640.000
707.0450, 1732.000
708.1970, 1690.000
709.3480, 1758.000
710.4990, 1716.000
711.6500, 1737.000
712.8000, 1705.000
713.9510, 1732.000
715.1010, 1732.000
716.2510, 1691.000
717.4010, 1661.000
718.5510, 1648.758
719.7010, 1660.000
720.8500, 1614.000
721.9990, 1618.000
723.1490, 1606.000
724.2980, 1589.000
725.4460, 1603.000
726.5950, 1593.000
727.7440, 1559.000
728.8920, 1611.000
730.0400, 1629.000
731.1880, 1598.000
732.3360, 1562.000
733.4840, 1531.000
734.6310, 1601.000
735.7790, 1572.000
736.9260, 1602.000
738.0730, 1520.000
739.2200, 1584.000
740.3670, 1539.000
741.5130, 1543.000
742.6600, 1578.000
743.8060, 1496.000
744.9520, 1477.000
746.0980, 1541.000
747.2440, 1490.000
748.3890, 1517.000
749.5350, 1520.000
750.6800, 1541.000
751.8250, 1552.000
752.9700, 1578.000
754.1150, 1581.394
755.2590, 1525.000
756.4040, 1579.000
757.5480, 1539.000
758.6920, 1509.000
759.8360, 1505.000
760.9800, 1477.000
762.1230, 1537.000
763.2670, 1496.000
764.4100, 1523.000
765.5530, 1543.000
766.6960, 1539.000
767.8390, 1506.000
768.9820, 1517.000
770.1240, 1492.000
771.2670, 1537.000
772.4090, 1453.000
773.5510, 1513.000
774.6930, 1542.000
775.8350, 1486.000
776.9760, 1504.000
778.1170, 1545.000
779.2590, 1501.000
780.4000, 1505.000
781.5410, 1507.000
782.6810, 1482.000
783.8220, 1495.000
784.9620, 1481.000
786.1020, 1484.000
787.2430, 1509.000
788.3820, 1521.000
789.5220, 1519.000
790.6620, 1492.000
791.8010, 1516.000
792.9400, 1467.000
794.0800, 1529.000
795.2190, 1525.000
796.3570, 1554.000
797.4960, 1471.000
798.6340, 1518.000
799.7730, 1482.000
800.9110, 1485.000
802.0490, 1471.941
803.1870, 1515.284
804.3240, 1539.600
805.4620, 1545.911
806.5990, 1480.290
807.7360, 1507.554
808.8730, 1497.594
810.0100, 1486.108
811.1470, 1526.446
812.2830, 1471.287
813.4200, 1510.803
814.5560, 1512.526
815.6920, 1504.977
816.8280, 1537.115
817.9630, 1555.232
819.0990, 1560.082
820.2340, 1511.930
821.3700, 1532.219
822.5050, 1525.081
823.6400, 1516.817
824.7740, 1546.739
825.9090, 1506.296
827.0430, 1535.613
828.1780, 1537.083
829.3120, 1551.297
830.4460, 1537.914
831.5790, 1533.055
832.7130, 1555.802
833.8460, 1563.264
834.9800, 1546.704
836.1130, 1561.729
837.2460, 1520.321
838.3790, 1528.434
839.5110, 1557.912
840.6440, 1511.000
841.7760, 1504.000
842.9080, 1528.231
844.0400, 1497.344
845.1720, 1571.000
846.3040, 1473.000
847.4350, 1532.000
848.5670, 1547.000
849.6980, 1496.000
850.8290, 1525.447
851.9600, 1559.484
853.0910, 1579.501
854.2210, 1586.249
855.3520, 1539.998
856.4820, 1562.185
857.6120, 1556.944
858.7420, 1550.579
859.8720, 1582.399
861.0010, 1543.853
862.1310, 1575.068
863.2600, 1578.434
864.3890, 1594.545
865.5180, 1583.059
866.6470, 1580.096
867.7750, 1604.738
868.9040, 1614.096
870.0320, 1599.431
871.1600, 1616.350
872.2880, 1576.838
873.4160, 1586.845
874.5440, 1618.218
875.6710, 1604.939
876.7990, 1622.363
877.9260, 1628.092
879.0530, 1618.506
880.1800, 1625.687
881.3060, 1606.407
882.4330, 1606.000
883.5590, 1605.000
884.6860, 1592.000
885.8120, 1583.000
886.9380, 1588.548
888.0630, 1627.000
889.1890, 1601.000
890.3140, 1608.000
891.4400, 1618.000
892.5650, 1586.000
893.6900, 1567.000
894.8140, 1601.000
895.9390, 1614.000
897.0640, 1628.000
898.1880, 1618.000
899.3120, 1587.000
900.4360, 1616.000
901.5600, 1599.000
902.6830, 1620.000
903.8070, 1597.000
904.9300, 1628.000
906.0540, 1659.000
907.1770, 1638.000
908.2990, 1710.000
909.4220, 1652.000
910.5450, 1670.000
911.6670, 1644.000
912.7890, 1687.000
913.9110, 1635.000
915.0330, 1659.000
916.1550, 1686.000
917.2770, 1648.000
918.3980, 1673.000
919.5190, 1616.000
920.6400, 1658.000
921.7610, 1667.000
922.8820, 1681.000
924.0030, 1696.000
925.1230, 1684.000
926.2440, 1657.000
927.3640, 1663.000
928.4840, 1668.000
929.6040, 1716.000
930.7230, 1691.000
931.8430, 1704.434
932.9620, 1698.482
934.0810, 1703.000
935.2000, 1679.000
936.3190, 1689.000
937.4380, 1698.000
938.5570, 1678.619
939.6750, 1712.977
940.7930, 1733.316
941.9110, 1740.387
943.0290, 1694.456
944.1470, 1716.967
945.2650, 1712.049
946.3820, 1706.005
947.4990, 1738.146
948.6160, 1699.922
949.7330, 1731.458
950.8500, 1735.147
951.9670, 1751.581
953.0830, 1740.415
954.2000, 1737.775
955.3160, 1762.740
956.4320, 1772.418
957.5480, 1758.076
958.6630, 1775.315
959.7790, 1736.125
960.8940, 1746.453
962.0100, 1778.148
963.1250, 1701.000
964.2390, 1719.000
965.3540, 1766.000
966.4690, 1770.000
967.5830, 1792.000
968.6970, 1749.000
969.8120, 1754.000
970.9260, 1748.000
972.0390, 1770.000
973.1530, 1759.000
974.2660, 1794.000
975.3800, 1793.000
976.4930, 1798.000
977.6060, 1754.000
978.7190, 1795.000
979.8310, 1805.000
980.9440, 1768.085
982.0560, 1803.390
983.1680, 1824.674
984.2810, 1832.694
985.3920, 1787.706
986.5040, 1811.163
987.6160, 1807.191
988.7270, 1802.092
989.8380, 1835.178
990.9490, 1797.899
992.0600, 1830.380
993.1710, 1835.014
994.2820, 1852.393
995.3920, 1842.171
996.5030, 1840.477
997.6130, 1866.385
998.7230, 1877.008
999.8330, 1838.329
1000.942, 1870.823
1002.052, 1889.298
1003.161, 1894.505
1004.270, 1846.711
1005.379, 1867.358
1006.488, 1860.576
1007.597, 1852.670
1008.705, 1882.949
1009.814, 1842.864
1010.922, 1872.537
1012.030, 1874.364
1013.138, 1888.935
1014.246, 1875.909
1015.354, 1871.407
1016.461, 1894.511
1017.568, 1902.329
1018.675, 1886.126
1019.782, 1901.507
1020.889, 1860.457
1021.996, 1868.926
1023.102, 1898.760
1024.209, 1883.944
1025.315, 1907.000
1026.421, 1827.000
1027.527, 1836.000
1028.633, 1803.000
1029.738, 1849.000
1030.844, 1845.000
1031.949, 1875.000
1033.054, 1888.660
1034.159, 1911.262
1035.264, 1913.807
1036.368, 1809.000
1037.473, 1815.000
1038.577, 1855.000
1039.681, 1903.000
1040.785, 1834.000
1041.889, 1832.000
1042.993, 1876.000
1044.096, 1887.000
1045.199, 1833.000
1046.303, 1822.000
1047.406, 1856.000
1048.509, 1850.000
1049.611, 1840.000
1050.714, 1888.000
1051.816, 1914.000
1052.918, 1847.000
1054.021, 1886.000
1055.123, 1885.000
1056.224, 1990.000
1057.326, 1910.190
1058.427, 1873.000
1059.529, 1809.000
1060.630, 1895.000
1061.731, 1914.000
1062.832, 1925.000
1063.932, 1917.000
1065.033, 1911.000
1066.133, 1923.569
1067.233, 1859.000
1068.333, 1954.000
1069.433, 1912.000
1070.533, 1947.000
1071.633, 1908.000
1072.732, 1912.000
1073.831, 1899.000
1074.930, 1901.000
1076.029, 1851.000
1077.128, 1859.483
1078.227, 1851.105
1079.325, 1867.000
1080.424, 1862.000
1081.522, 1903.000
1082.620, 1930.000
1083.718, 1882.000
1084.815, 1930.000
1085.913, 1904.000
1087.010, 1967.000
1088.108, 1952.134
1089.205, 1843.000
1090.302, 1926.000
1091.398, 1883.000
1092.495, 1833.000
1093.591, 1827.000
1094.688, 1865.000
1095.784, 1874.000
1096.880, 1916.000
1097.976, 1902.000
1099.071, 1825.000
1100.167, 1860.000
1101.262, 1881.000
1102.357, 1831.000
1103.452, 1892.000
1104.547, 1885.000
1105.642, 1878.000
1106.736, 1850.000
1107.831, 1825.000
1108.925, 1837.782
1110.019, 1852.000
1111.113, 1864.000
1112.207, 1845.000
1113.301, 1860.000
1114.394, 1846.000
1115.487, 1844.516
1116.580, 1865.000
1117.673, 1841.000
1118.766, 1833.000
1119.859, 1836.000
1120.952, 1839.000
1122.044, 1835.226
1123.136, 1827.000
1124.228, 1832.000
1125.320, 1812.000
1126.412, 1806.000
1127.503, 1846.000
1128.595, 1801.000
1129.686, 1781.000
1130.777, 1824.000
1131.868, 1798.000
1132.959, 1781.000
1134.050, 1823.000
1135.140, 1798.000
1136.231, 1769.000
1137.321, 1758.000
1138.411, 1754.972
1139.501, 1782.000
1140.590, 1759.000
1141.680, 1768.000
1142.769, 1755.000
1143.859, 1778.000
1144.948, 1846.000
1146.037, 1753.000
1147.125, 1768.000
1148.214, 1824.000
1149.303, 1780.000
1150.391, 1829.000
1151.479, 1787.000
1152.567, 1772.000
1153.655, 1784.000
1154.743, 1739.000
1155.830, 1763.000
1156.917, 1765.000
1158.005, 1790.000
1159.092, 1831.000
1160.179, 1794.000
1161.265, 1757.000
1162.352, 1786.000
1163.439, 1788.000
1164.525, 1766.000
1165.611, 1746.000
1166.697, 1783.000
1167.783, 1760.000
1168.868, 1803.000
1169.954, 1809.000
1171.039, 1802.000
1172.125, 1778.000
1173.210, 1769.000
1174.295, 1704.000
1175.379, 1764.000
1176.464, 1792.000
1177.548, 1740.000
1178.633, 1768.000
1179.717, 1783.000
1180.801, 1731.000
1181.884, 1781.000
1182.968, 1748.591
1184.052, 1767.252
1185.135, 1715.000
1186.218, 1790.000
1187.301, 1771.000
1188.384, 1750.000
1189.467, 1760.000
1190.549, 1721.000
1191.632, 1744.000
1192.714, 1710.000
1193.796, 1762.000
1194.878, 1750.867
1195.960, 1762.000
1197.042, 1766.000
1198.123, 1743.000
1199.204, 1761.000
1200.286, 1737.000
1201.367, 1788.000
1202.447, 1780.170
1203.528, 1857.000
1204.609, 1786.000
1205.689, 1779.000
1206.769, 1759.000
1207.849, 1792.000
1208.929, 1715.000
1210.009, 1726.000
1211.089, 1790.000
1212.168, 1733.000
1213.248, 1725.000
1214.327, 1767.000
1215.406, 1781.000
1216.485, 1770.000
1217.563, 1744.000
1218.642, 1719.000
1219.720, 1775.000
1220.798, 1770.000
1221.877, 1793.000
1222.954, 1792.000
1224.032, 1797.000
1225.110, 1753.000
1226.187, 1730.000
1227.265, 1730.000
1228.342, 1718.779
1229.419, 1755.000
1230.496, 1741.000
1231.572, 1795.000
1232.649, 1833.000
1233.725, 1764.000
1234.801, 1816.000
1235.878, 1781.000
1236.953, 1778.000
1238.029, 1789.000
1239.105, 1795.568
1240.180, 1764.935
1241.256, 1778.797
1242.331, 1784.000
1243.406, 1773.000
1244.481, 1782.052
1245.555, 1769.502
1246.630, 1794.000
1247.704, 1768.000
1248.778, 1834.000
1249.852, 1805.000
1250.926, 1812.000
1252.000, 1764.000
1253.074, 1814.000
1254.147, 1787.866
1255.220, 1821.000
1256.294, 1770.000
1257.367, 1811.000
1258.439, 1791.000
1259.512, 1791.000
1260.585, 1795.000
1261.657, 1791.000
1262.729, 1797.098
1263.801, 1769.375
1264.873, 1780.606
1265.945, 1783.300
1267.017, 1786.000
1268.088, 1806.000
1269.159, 1810.000
1270.231, 1828.000
1271.302, 1801.000
1272.372, 1841.000
1273.443, 1787.000
1274.514, 1819.000
1275.584, 1830.000
1276.654, 1848.000
1277.724, 1848.257
1278.794, 1768.000
1279.864, 1824.000
1280.934, 1824.000
1282.003, 1784.000
1283.072, 1838.000
1284.141, 1815.000
1285.210, 1826.000
1286.279, 1821.000
1287.348, 1819.000
1288.417, 1837.000
1289.485, 1858.000
1290.553, 1799.000
1291.621, 1815.000
1292.689, 1836.000
1293.757, 1819.494
1294.825, 1833.534
1295.892, 1844.000
1296.959, 1826.000
1298.026, 1862.000
1299.093, 1815.141
1300.160, 1848.264
1301.227, 1867.367
1302.294, 1873.204
1303.360, 1826.037
1304.426, 1847.312
1305.492, 1841.158
1306.558, 1833.880
1307.624, 1864.787
1308.690, 1825.329
1309.755, 1855.630
1310.820, 1858.084
1311.886, 1873.284
1312.951, 1860.886
1314.015, 1857.010
1315.080, 1880.741
1316.145, 1889.187
1317.209, 1873.611
1318.273, 1889.619
1319.337, 1849.195
1320.401, 1858.291
1321.465, 1888.752
1322.529, 1874.563
1323.592, 1891.074
1324.656, 1895.894
1325.719, 1847.574
1326.782, 1891.667
1327.845, 1895.795
1328.907, 1858.885
1329.970, 1899.812
1331.032, 1868.560
1332.095, 1863.072
1333.157, 1876.971
1334.219, 1870.659
1335.280, 1896.212
1336.342, 1891.066
1337.404, 1883.178
1338.465, 1887.259
1339.526, 1880.301
1340.587, 1890.509
1341.648, 1880.613
1342.709, 1892.084
1343.769, 1908.396
1344.830, 1887.627
1345.890, 1906.116
1346.950, 1863.723
1348.010, 1872.272
1349.070, 1875.336
1350.130, 1910.960
1351.189, 1868.863
1352.249, 1875.997
1353.308, 1904.090
1354.367, 1902.855
1355.426, 1913.882
1356.485, 1888.606
1357.543, 1897.433
1358.602, 1896.860
1359.660, 1928.770
1360.718, 1935.036
1361.776, 1910.375
1362.834, 1885.845
1363.892, 1920.093
1364.949, 1898.630
1366.006, 1882.000
1367.064, 1895.000
1368.121, 1905.371
1369.178, 1937.261
1370.235, 1955.131
1371.291, 1959.734
1372.348, 1911.334
1373.404, 1931.376
1374.460, 1923.990
1375.516, 1915.479
1376.572, 1945.154
1377.628, 1904.464
1378.683, 1933.534
1379.739, 1934.756
1380.794, 1948.724
1381.849, 1935.094
1382.904, 1929.988
1383.959, 1952.488
1385.013, 1959.702
1386.068, 1942.895
1387.122, 1957.673
1388.176, 1916.019
1389.231, 1923.885
1390.284, 1953.116
1391.338, 1937.697
1392.392, 1952.979
1393.445, 1956.568
1394.498, 1907.019
1395.552, 1949.883
1396.605, 1952.782
1397.657, 1914.644
1398.710, 1954.342
1399.763, 1921.862
1400.815, 1915.145
1401.867, 1927.816
1402.919, 1920.276
1403.971, 1944.602
1405.023, 1938.229
1406.075, 1929.112
1407.126, 1931.966
1408.177, 1923.781
1409.229, 1932.763
1410.280, 1921.640
1411.330, 1931.884
1412.381, 1946.971
1413.432, 1924.975
1414.482, 1942.238
1415.532, 1898.620
1416.582, 1905.943
1417.632, 1967.000
1418.682, 1921.000
1419.732, 1887.000
1420.781, 1950.000
1421.831, 1862.000
1422.880, 1981.000
1423.929, 1914.000
1424.978, 1930.000
1426.027, 1987.000
1427.075, 1925.000
1428.124, 2003.000
1429.172, 1966.000
1430.220, 1920.000
1431.268, 1993.000
1432.316, 1935.100
1433.364, 1970.544
1434.411, 1991.965
1435.459, 2000.122
1436.506, 1955.274
1437.553, 1978.868
1438.600, 1975.033
1439.647, 1970.073
1440.693, 2003.296
1441.740, 1966.157
1442.786, 1998.774
1443.832, 2003.545
1444.878, 2021.060
1445.924, 2010.978
1446.970, 2009.420
1448.015, 2035.464
1449.061, 2046.227
1450.106, 2032.964
1451.151, 2051.286
1452.196, 2013.177
1453.241, 2024.587
1454.286, 2057.362
1455.330, 2019.728
1456.375, 2049.896
1457.419, 2066.045
1458.463, 2068.927
1459.507, 2018.808
1460.551, 2037.130
1461.594, 2028.025
1462.638, 2017.794
1463.681, 2045.750
1464.724, 2003.341
1465.767, 2030.692
1466.810, 2030.196
1467.853, 2042.445
1468.895, 2027.098
1469.938, 2020.273
1470.980, 2041.056
1472.022, 2046.554
1473.064, 2028.030
1474.106, 2041.091
1475.148, 1997.719
1476.189, 2003.870
1477.230, 2031.385
1478.272, 2014.249
1479.313, 2027.816
1480.354, 1994.000
1481.394, 1994.000
1482.435, 1994.629
1483.476, 2001.012
1484.516, 1990.000
1485.556, 2006.000
1486.596, 2022.000
1487.636, 1991.000
1488.676, 2014.000
1489.715, 2036.000
1490.755, 2023.000
1491.794, 1998.000
1492.833, 2006.000
1493.872, 2012.000
1494.911, 1987.000
1495.949, 2034.000
1496.988, 2027.000
1498.026, 1988.000
1499.064, 2003.000
1500.103, 1948.000
1501.140, 2028.000
1502.178, 2063.000
1503.216, 2051.000
1504.253, 2034.000
1505.291, 2059.441
1506.328, 2093.327
1507.365, 2113.194
1508.402, 2119.793
1509.438, 2073.389
1510.475, 2095.427
1511.511, 2090.036
1512.548, 2083.522
1513.584, 2115.192
1514.620, 2076.496
1515.656, 2107.560
1516.691, 2110.776
1517.727, 2126.738
1518.762, 2115.101
1519.797, 2111.988
1520.832, 2136.481
1521.867, 2145.688
1522.902, 2130.874
1523.937, 2147.645
1524.971, 2107.982
1526.005, 2117.839
1527.040, 2149.062
1528.074, 2135.634
1529.108, 2152.907
1530.141, 2158.486
1531.175, 2110.927
1532.208, 2155.781
1533.242, 2160.670
1534.275, 2124.522
1535.308, 2166.209
1536.341, 2135.718
1537.373, 2130.988
1538.406, 2145.648
1539.438, 2140.095
1540.470, 2166.408
1541.502, 2162.022
1542.534, 2154.894
1543.566, 2159.735
1544.598, 2153.536
1545.629, 2164.503
1546.661, 2155.368
1547.692, 2167.597
1548.723, 2184.669
1549.754, 2164.658
1550.784, 2183.905
1551.815, 2142.272
1552.846, 2151.581
1553.876, 2155.402
1554.906, 2191.784
1555.936, 2150.446
1556.966, 2158.337
1557.996, 2187.189
1559.025, 2186.711
1560.054, 2198.495
1561.084, 2173.978
1562.113, 2183.563
1563.142, 2183.747
1564.171, 2124.000
1565.199, 2130.000
1566.228, 2151.000
1567.256, 2151.000
1568.284, 2163.321
1569.312, 2136.000
1570.340, 2200.000
1571.368, 2153.000
1572.396, 2209.000
1573.423, 2180.000
1574.451, 2145.000
1575.478, 2149.000
1576.505, 2183.000
1577.532, 2086.000
##END=



