##NAMES=Chalcopyrite
##RRUFFID=R050222
##IDEAL CHEMISTRY=Cu^1+^Fe^3+^S^2-^_2_
##LOCALITY=Iron Cap mine, Landsman Camp, Graham County, Arizona, USA
##OWNER=RRUFF
##SOURCE=Bob Downs
##DESCRIPTION=Group of brass yellow metallic tetrahedra, dark streaks represent alteration by bacteria where S is left behind
##STATUS=The identification of this mineral has been confirmed by X-ray diffraction and chemical analysis
##URL=rruff.info/R050222
##MEASURED CHEMISTRY=Cu_1.00_Fe_1.00_S_2.00_
##PIN_ID=L01086
##ORIENTATION=Laser parallel to -c* (0 0 -1). Fiducial mark perpendicular to laser is parallel to -a [-1 0 0]
97.32800, 4144.892
98.56000, 3697.000
99.79200, 4158.000
101.0240, 4381.000
102.2560, 4664.000
103.4880, 5749.938
104.7190, 6184.477
105.9500, 6574.107
107.1810, 6712.260
108.4120, 6067.402
109.6430, 4420.000
110.8740, 3716.000
112.1050, 3425.000
113.3350, 3995.000
114.5650, 4848.000
115.7950, 5986.000
117.0250, 5830.000
118.2550, 5463.000
119.4850, 5064.000
120.7140, 5213.000
121.9430, 4302.000
123.1730, 5013.000
124.4020, 4420.000
125.6310, 5022.000
126.8590, 3229.000
128.0880, 3301.000
129.3160, 3360.000
130.5450, 3580.000
131.7730, 3690.000
133.0010, 3525.000
134.2290, 3294.000
135.4560, 3290.000
136.6840, 3219.000
137.9110, 3834.000
139.1380, 3940.000
140.3650, 3854.000
141.5920, 3489.000
142.8190, 3328.000
144.0460, 3320.438
145.2720, 3114.000
146.4990, 3294.000
147.7250, 3376.000
148.9510, 3225.000
150.1770, 3024.000
151.4020, 2955.000
152.6280, 2941.000
153.8530, 2996.000
155.0790, 2949.706
156.3040, 2958.202
157.5290, 2948.000
158.7530, 2925.000
159.9780, 2947.000
161.2030, 2913.000
162.4270, 3018.000
163.6510, 3003.742
164.8750, 3114.000
166.0990, 3061.000
167.3230, 3162.000
168.5470, 3230.000
169.7700, 3246.000
170.9930, 3332.413
172.2160, 3454.000
173.4390, 3400.000
174.6620, 3364.000
175.8850, 3284.000
177.1080, 3222.236
178.3300, 3127.000
179.5520, 3080.000
180.7740, 2995.000
181.9960, 2941.000
183.2180, 2920.000
184.4400, 2949.000
185.6610, 3011.000
186.8820, 3024.000
188.1040, 3040.000
189.3250, 3117.000
190.5450, 3044.000
191.7660, 3077.000
192.9870, 3008.000
194.2070, 3024.000
195.4270, 3151.000
196.6480, 3107.769
197.8680, 3236.000
199.0870, 3194.000
200.3070, 3180.000
201.5270, 3325.000
202.7460, 3336.000
203.9650, 3402.000
205.1840, 3416.000
206.4030, 3058.000
207.6220, 2770.000
208.8400, 2607.000
210.0590, 2427.000
211.2770, 2455.000
212.4950, 2368.000
213.7130, 2266.000
214.9310, 2262.000
216.1490, 2225.000
217.3660, 2206.000
218.5840, 2174.000
219.8010, 2182.000
221.0180, 2187.000
222.2350, 2129.000
223.4520, 2231.000
224.6680, 2207.973
225.8850, 2299.000
227.1010, 2253.000
228.3170, 2202.000
229.5330, 2231.000
230.7490, 2303.000
231.9650, 2309.000
233.1810, 2303.000
234.3960, 2285.000
235.6110, 2334.000
236.8260, 2372.000
238.0410, 2338.000
239.2560, 2372.000
240.4710, 2423.000
241.6850, 2400.000
242.9000, 2432.000
244.1140, 2439.000
245.3280, 2512.000
246.5420, 2578.000
247.7550, 2549.000
248.9690, 2638.000
250.1820, 2711.000
251.3960, 2892.304
252.6090, 3082.000
253.8220, 3404.000
255.0350, 3790.000
256.2470, 4185.433
257.4600, 4222.273
258.6720, 3747.822
259.8840, 3306.000
261.0960, 3312.000
262.3080, 3463.000
263.5200, 3523.000
264.7320, 3678.000
265.9430, 3838.000
267.1540, 3836.161
268.3650, 3878.000
269.5760, 3839.000
270.7870, 3829.000
271.9980, 3784.000
273.2080, 3741.000
274.4190, 3781.000
275.6290, 3672.000
276.8390, 3753.000
278.0490, 3776.000
279.2590, 3988.000
280.4680, 4250.000
281.6780, 4724.000
282.8870, 5527.000
284.0960, 6444.000
285.3050, 6729.000
286.5140, 8239.000
287.7230, 10183.00
288.9310, 13583.00
290.1400, 18089.00
291.3480, 23530.00
292.5560, 26773.00
293.7640, 25938.00
294.9720, 21364.00
296.1790, 16025.00
297.3870, 11235.00
298.5940, 7971.000
299.8010, 5952.000
301.0080, 4903.000
302.2150, 4171.000
303.4220, 3678.000
304.6290, 3304.000
305.8350, 3128.000
307.0410, 2948.000
308.2470, 2841.000
309.4530, 2808.000
310.6590, 2821.000
311.8650, 2794.000
313.0700, 2977.000
314.2750, 3189.000
315.4810, 3433.000
316.6860, 4028.000
317.8900, 4640.000
319.0950, 5481.000
320.3000, 6159.000
321.5040, 6258.000
322.7080, 5834.000
323.9120, 5026.000
325.1160, 4395.000
326.3200, 3966.000
327.5240, 3474.000
328.7270, 3264.000
329.9310, 3059.000
331.1340, 2951.000
332.3370, 2849.000
333.5400, 2783.000
334.7420, 2701.000
335.9450, 2747.000
337.1470, 2696.000
338.3500, 2720.000
339.5520, 2630.000
340.7540, 2666.000
341.9550, 2540.000
343.1570, 2618.000
344.3590, 2626.000
345.5600, 2757.000
346.7610, 2883.000
347.9620, 3341.505
349.1630, 3834.721
350.3640, 4311.953
351.5640, 4844.000
352.7650, 5210.000
353.9650, 5166.898
355.1650, 5186.631
356.3650, 4628.418
357.5650, 3493.091
358.7640, 3014.000
359.9640, 2700.000
361.1630, 2537.000
362.3620, 2536.000
363.5610, 2369.402
364.7600, 2332.223
365.9590, 2258.000
367.1580, 2250.000
368.3560, 2203.000
369.5540, 2196.000
370.7520, 2210.653
371.9500, 2206.236
373.1480, 2259.000
374.3460, 2250.000
375.5430, 2271.000
376.7410, 2313.000
377.9380, 2312.000
379.1350, 2389.000
380.3320, 2379.613
381.5280, 2363.000
382.7250, 2345.000
383.9210, 2205.000
385.1180, 2083.934
386.3140, 2014.503
387.5100, 1987.000
388.7050, 1838.000
389.9010, 1850.000
391.0960, 1796.000
392.2920, 1826.000
393.4870, 1764.000
394.6820, 1764.000
395.8770, 1749.000
397.0720, 1749.000
398.2660, 1733.000
399.4610, 1712.000
400.6550, 1704.000
401.8490, 1698.000
403.0430, 1725.000
404.2370, 1704.823
405.4300, 1705.021
406.6240, 1695.000
407.8170, 1686.000
409.0100, 1699.000
410.2030, 1692.000
411.3960, 1723.000
412.5890, 1736.000
413.7810, 1723.000
414.9740, 1752.000
416.1660, 1753.000
417.3580, 1707.000
418.5500, 1758.000
419.7420, 1722.000
420.9330, 1744.000
422.1250, 1781.000
423.3160, 1737.000
424.5070, 1730.000
425.6980, 1737.000
426.8890, 1751.000
428.0800, 1706.000
429.2700, 1751.000
430.4610, 1742.000
431.6510, 1722.000
432.8410, 1759.000
434.0310, 1743.000
435.2210, 1776.000
436.4100, 1742.000
437.6000, 1789.000
438.7890, 1747.000
439.9780, 1718.000
441.1670, 1733.000
442.3560, 1725.000
443.5450, 1773.000
444.7330, 1767.000
445.9210, 1786.000
447.1100, 1760.000
448.2980, 1779.000
449.4860, 1766.000
450.6730, 1769.000
451.8610, 1789.000
453.0480, 1781.000
454.2360, 1779.000
455.4230, 1806.000
456.6100, 1792.000
457.7970, 1768.000
458.9830, 1723.000
460.1700, 1782.000
461.3560, 1689.000
462.5420, 1715.000
463.7280, 1693.320
464.9140, 1791.000
466.1000, 1640.000
467.2850, 1683.000
468.4710, 1630.000
469.6560, 1644.000
470.8410, 1642.000
472.0260, 1632.000
473.2110, 1672.000
474.3960, 1634.000
475.5800, 1724.000
476.7640, 1694.543
477.9490, 1681.000
479.1330, 1676.000
480.3160, 1633.000
481.5000, 1611.000
482.6840, 1673.000
483.8670, 1652.000
485.0500, 1627.000
486.2330, 1647.000
487.4160, 1628.000
488.5990, 1643.000
489.7820, 1641.000
490.9640, 1634.000
492.1470, 1650.000
493.3290, 1633.000
494.5110, 1613.000
495.6930, 1653.000
496.8740, 1638.390
498.0560, 1674.000
499.2370, 1632.000
500.4180, 1699.000
501.5990, 1656.000
502.7800, 1652.000
503.9610, 1688.000
505.1420, 1690.000
506.3220, 1694.141
507.5020, 1701.995
508.6820, 1695.000
509.8620, 1689.000
511.0420, 1657.600
512.2220, 1697.359
513.4010, 1721.103
514.5810, 1729.698
515.7600, 1677.754
516.9390, 1703.979
518.1180, 1698.878
519.2970, 1692.492
520.4750, 1729.717
521.6540, 1686.578
522.8320, 1723.111
524.0100, 1727.839
525.1880, 1703.000
526.3660, 1717.000
527.5430, 1655.000
528.7210, 1705.000
529.8980, 1693.740
531.0750, 1747.000
532.2520, 1696.000
533.4290, 1681.569
534.6060, 1716.369
535.7820, 1735.158
536.9590, 1738.792
538.1350, 1681.893
539.3110, 1703.163
540.4870, 1693.106
541.6630, 1681.765
542.8380, 1714.038
544.0140, 1665.943
545.1890, 1697.525
546.3640, 1697.301
547.5390, 1711.634
548.7140, 1694.448
549.8890, 1722.000
551.0630, 1680.000
552.2380, 1650.000
553.4120, 1679.000
554.5860, 1677.000
555.7600, 1684.000
556.9330, 1636.000
558.1070, 1690.000
559.2800, 1655.684
560.4540, 1721.000
561.6270, 1650.000
562.8000, 1644.000
563.9730, 1686.000
565.1450, 1653.000
566.3180, 1660.000
567.4900, 1729.000
568.6620, 1703.000
569.8340, 1665.000
571.0060, 1680.000
572.1780, 1721.000
573.3490, 1711.000
574.5210, 1711.000
575.6920, 1721.000
576.8630, 1708.829
578.0340, 1674.000
579.2050, 1686.000
580.3750, 1664.000
581.5460, 1631.000
582.7160, 1658.000
583.8860, 1632.000
585.0560, 1578.000
586.2260, 1610.000
587.3960, 1548.000
588.5650, 1542.000
589.7340, 1545.561
590.9040, 1589.000
592.0730, 1548.000
593.2410, 1560.000
594.4100, 1562.000
595.5790, 1540.000
596.7470, 1554.000
597.9150, 1524.000
599.0840, 1579.000
600.2510, 1614.000
601.4190, 1577.237
602.5870, 1614.311
603.7540, 1635.372
604.9220, 1641.281
606.0890, 1586.654
607.2560, 1610.196
608.4230, 1602.412
609.5890, 1593.342
610.7560, 1627.886
611.9220, 1582.064
613.0880, 1615.916
614.2540, 1617.963
615.4200, 1634.567
616.5860, 1619.651
617.7520, 1614.470
618.9170, 1645.000
620.0820, 1599.000
621.2480, 1580.000
622.4120, 1573.714
623.5770, 1605.658
624.7420, 1621.590
625.9060, 1622.373
627.0710, 1562.616
628.2350, 1581.033
629.3990, 1568.122
630.5630, 1553.928
631.7260, 1583.350
632.8900, 1532.402
634.0530, 1561.133
635.2170, 1558.055
636.3800, 1569.538
637.5430, 1549.500
638.7050, 1539.202
639.8680, 1560.430
641.0300, 1564.203
642.1930, 1528.000
643.3550, 1524.000
644.5170, 1512.000
645.6790, 1530.241
646.8400, 1528.628
648.0020, 1573.000
649.1630, 1546.000
650.3240, 1582.000
651.4850, 1595.000
652.6460, 1655.000
653.8070, 1633.000
654.9670, 1629.000
656.1280, 1677.000
657.2880, 1653.526
658.4480, 1639.287
659.6080, 1659.000
660.7680, 1582.000
661.9270, 1593.000
663.0870, 1579.000
664.2460, 1571.000
665.4050, 1613.000
666.5640, 1513.000
667.7230, 1537.000
668.8820, 1551.000
670.0400, 1581.000
671.1990, 1526.000
672.3570, 1567.000
673.5150, 1536.000
674.6730, 1554.000
675.8310, 1547.000
676.9880, 1535.000
678.1450, 1554.000
679.3030, 1519.000
680.4600, 1518.000
681.6170, 1561.000
682.7740, 1513.113
683.9300, 1530.000
685.0870, 1492.000
686.2430, 1484.000
687.3990, 1542.000
688.5550, 1538.000
689.7110, 1537.000
690.8670, 1557.000
692.0220, 1517.000
693.1770, 1536.000
694.3330, 1574.000
695.4880, 1554.000
696.6430, 1565.000
697.7970, 1602.000
698.9520, 1586.000
700.1060, 1613.537
701.2600, 1646.000
702.4150, 1638.000
703.5690, 1586.000
704.7220, 1579.000
705.8760, 1605.000
707.0290, 1605.000
708.1830, 1629.000
709.3360, 1608.000
710.4890, 1613.000
711.6420, 1623.000
712.7940, 1628.000
713.9470, 1645.000
715.0990, 1658.000
716.2510, 1606.000
717.4030, 1594.000
718.5550, 1557.000
719.7070, 1579.000
720.8590, 1563.000
722.0100, 1571.000
723.1610, 1528.000
724.3120, 1563.000
725.4630, 1521.000
726.6140, 1545.897
727.7650, 1542.203
728.9150, 1566.000
730.0650, 1556.000
731.2160, 1516.000
732.3660, 1548.000
733.5150, 1527.000
734.6650, 1509.000
735.8150, 1504.000
736.9640, 1488.760
738.1130, 1505.000
739.2620, 1487.000
740.4110, 1487.000
741.5600, 1522.000
742.7080, 1508.000
743.8570, 1491.000
745.0050, 1497.000
746.1530, 1524.000
747.3010, 1485.000
748.4490, 1509.000
749.5960, 1483.000
750.7440, 1513.000
751.8910, 1501.000
753.0380, 1493.000
754.1850, 1501.000
755.3320, 1486.000
756.4790, 1458.000
757.6250, 1527.000
758.7720, 1461.000
759.9180, 1499.000
761.0640, 1476.598
762.2100, 1479.990
763.3550, 1467.000
764.5010, 1469.000
765.6460, 1546.000
766.7920, 1474.000
767.9370, 1501.000
769.0820, 1437.000
770.2260, 1434.983
771.3710, 1455.201
772.5150, 1437.000
773.6600, 1483.000
774.8040, 1520.000
775.9480, 1494.000
777.0910, 1480.000
778.2350, 1491.000
779.3790, 1478.000
780.5220, 1512.000
781.6650, 1460.000
782.8080, 1497.000
783.9510, 1482.000
785.0940, 1494.000
786.2360, 1511.000
787.3790, 1465.000
788.5210, 1512.000
789.6630, 1414.000
790.8050, 1492.000
791.9470, 1478.000
793.0880, 1439.000
794.2300, 1438.000
795.3710, 1459.000
796.5120, 1516.000
797.6530, 1481.000
798.7940, 1525.000
799.9340, 1479.000
801.0750, 1526.000
802.2150, 1473.000
803.3550, 1508.000
804.4950, 1517.000
805.6350, 1473.000
806.7750, 1446.000
807.9140, 1437.636
809.0540, 1482.000
810.1930, 1427.000
811.3320, 1434.000
812.4710, 1473.000
813.6100, 1449.000
814.7480, 1504.000
815.8870, 1492.000
817.0250, 1484.000
818.1630, 1489.000
819.3010, 1478.000
820.4390, 1523.000
821.5760, 1512.000
822.7140, 1486.000
823.8510, 1501.000
824.9880, 1460.000
826.1250, 1487.000
827.2620, 1459.000
828.3990, 1435.964
829.5350, 1472.749
830.6710, 1493.522
831.8080, 1499.142
832.9440, 1444.227
834.0800, 1467.481
835.2150, 1459.408
836.3510, 1450.051
837.4860, 1484.306
838.6210, 1438.196
839.7560, 1471.760
840.8910, 1473.519
842.0260, 1489.834
843.1610, 1474.630
844.2950, 1469.161
845.4290, 1495.222
846.5640, 1503.824
847.6980, 1484.991
848.8310, 1502.232
849.9650, 1455.020
851.0980, 1522.000
852.2320, 1458.000
853.3650, 1480.000
854.4980, 1532.000
855.6310, 1529.000
856.7630, 1489.000
857.8960, 1473.000
859.0280, 1490.000
860.1610, 1553.000
861.2930, 1513.000
862.4240, 1545.000
863.5560, 1510.000
864.6880, 1503.000
865.8190, 1490.000
866.9500, 1494.000
868.0820, 1519.000
869.2120, 1542.000
870.3430, 1505.000
871.4740, 1573.000
872.6040, 1494.000
873.7350, 1540.000
874.8650, 1549.000
875.9950, 1545.000
877.1250, 1560.071
878.2540, 1569.000
879.3840, 1547.000
880.5130, 1545.000
881.6420, 1543.123
882.7710, 1539.423
883.9000, 1541.000
885.0290, 1539.000
886.1570, 1543.000
887.2860, 1530.000
888.4140, 1591.000
889.5420, 1600.000
890.6700, 1554.000
891.7980, 1588.131
892.9250, 1568.160
894.0530, 1576.000
895.1800, 1569.000
896.3070, 1538.000
897.4340, 1561.000
898.5610, 1525.000
899.6870, 1596.000
900.8140, 1646.000
901.9400, 1627.946
903.0660, 1629.000
904.1920, 1625.000
905.3180, 1584.000
906.4440, 1579.000
907.5690, 1610.000
908.6950, 1594.000
909.8200, 1620.000
910.9450, 1617.000
912.0700, 1614.000
913.1940, 1642.000
914.3190, 1630.000
915.4430, 1628.000
916.5680, 1640.000
917.6920, 1603.000
918.8150, 1614.000
919.9390, 1639.000
921.0630, 1612.000
922.1860, 1639.000
923.3100, 1611.000
924.4330, 1624.000
925.5560, 1657.000
926.6780, 1649.000
927.8010, 1665.592
928.9230, 1662.540
930.0460, 1675.000
931.1680, 1656.000
932.2900, 1653.000
933.4120, 1666.000
934.5330, 1691.000
935.6550, 1646.000
936.7760, 1658.000
937.8970, 1630.000
939.0180, 1628.000
940.1390, 1652.000
941.2600, 1688.000
942.3810, 1687.000
943.5010, 1675.000
944.6210, 1664.000
945.7410, 1710.000
946.8610, 1682.000
947.9810, 1710.000
949.1010, 1716.000
950.2200, 1686.000
951.3390, 1689.000
952.4580, 1684.728
953.5770, 1673.055
954.6960, 1690.000
955.8150, 1673.000
956.9330, 1689.000
958.0520, 1713.000
959.1700, 1706.000
960.2880, 1771.000
961.4050, 1734.686
962.5230, 1661.000
963.6410, 1704.000
964.7580, 1698.000
965.8750, 1720.000
966.9920, 1683.000
968.1090, 1734.000
969.2260, 1715.000
970.3420, 1740.000
971.4590, 1761.000
972.5750, 1719.000
973.6910, 1677.000
974.8070, 1740.000
975.9230, 1705.000
977.0380, 1775.000
978.1540, 1774.000
979.2690, 1744.000
980.3840, 1743.000
981.4990, 1774.000
982.6140, 1781.000
983.7280, 1777.000
984.8430, 1820.000
985.9570, 1757.000
987.0710, 1746.000
988.1850, 1813.000
989.2990, 1781.000
990.4130, 1737.000
991.5260, 1812.000
992.6400, 1772.000
993.7530, 1783.000
994.8660, 1769.000
995.9790, 1798.000
997.0910, 1790.000
998.2040, 1761.000
999.3160, 1754.000
1000.429, 1768.000
1001.541, 1760.000
1002.652, 1809.000
1003.764, 1821.000
1004.876, 1838.000
1005.987, 1839.288
1007.098, 1775.000
1008.210, 1818.000
1009.320, 1808.000
1010.431, 1797.000
1011.542, 1837.000
1012.652, 1811.126
1013.763, 1811.256
1014.873, 1810.000
1015.983, 1783.000
1017.093, 1818.000
1018.202, 1800.000
1019.312, 1802.000
1020.421, 1828.000
1021.530, 1760.000
1022.639, 1743.000
1023.748, 1774.000
1024.857, 1783.000
1025.965, 1844.000
1027.074, 1756.000
1028.182, 1819.000
1029.290, 1758.000
1030.398, 1811.000
1031.505, 1759.000
1032.613, 1821.000
1033.720, 1775.000
1034.828, 1764.000
1035.935, 1844.000
1037.042, 1820.000
1038.148, 1835.000
1039.255, 1813.000
1040.361, 1851.000
1041.468, 1874.000
1042.574, 1807.000
1043.680, 1795.000
1044.786, 1823.000
1045.891, 1818.000
1046.997, 1826.000
1048.102, 1850.000
1049.207, 1843.611
1050.312, 1841.000
1051.417, 1848.000
1052.522, 1852.000
1053.626, 1855.000
1054.730, 1847.000
1055.835, 1824.000
1056.939, 1819.000
1058.043, 1858.000
1059.146, 1912.000
1060.250, 1890.991
1061.353, 1910.000
1062.456, 1872.000
1063.559, 1831.000
1064.662, 1814.000
1065.765, 1826.795
1066.868, 1887.000
1067.970, 1868.000
1069.072, 1894.000
1070.174, 1885.000
1071.276, 1842.000
1072.378, 1868.000
1073.480, 1835.000
1074.581, 1893.000
1075.682, 1887.000
1076.784, 1858.000
1077.885, 1868.000
1078.985, 1869.848
1080.086, 1856.830
1081.187, 1891.158
1082.287, 1909.476
1083.387, 1912.641
1084.487, 1855.270
1085.587, 1876.068
1086.687, 1865.540
1087.786, 1853.729
1088.885, 1885.532
1089.985, 1836.966
1091.084, 1868.077
1092.182, 1867.385
1093.281, 1881.247
1094.380, 1863.590
1095.478, 1855.670
1096.576, 1879.280
1097.674, 1885.432
1098.772, 1883.278
1099.870, 1847.120
1100.968, 1881.735
1102.065, 1900.340
1103.162, 1903.792
1104.259, 1846.709
1105.356, 1867.795
1106.453, 1857.554
1107.550, 1846.029
1108.646, 1878.118
1109.743, 1829.840
1110.839, 1861.238
1111.935, 1860.831
1113.030, 1874.982
1114.126, 1857.612
1115.222, 1849.976
1116.317, 1873.873
1117.412, 1880.312
1118.507, 1859.314
1119.602, 1874.391
1120.697, 1825.015
1121.791, 1832.199
1122.885, 1863.785
1123.980, 1844.372
1125.074, 1860.027
1126.168, 1862.327
1127.261, 1803.936
1128.355, 1851.093
1129.448, 1852.606
1130.541, 1807.249
1131.635, 1850.790
1132.727, 1811.896
1133.820, 1802.426
1134.913, 1815.100
1136.005, 1804.692
1137.097, 1830.679
1138.190, 1821.601
1139.281, 1809.395
1140.373, 1810.858
1141.465, 1799.713
1142.556, 1808.176
1143.648, 1793.676
1144.739, 1803.581
1145.830, 1819.017
1146.921, 1760.000
1148.011, 1787.000
1149.102, 1754.000
1150.192, 1716.000
1151.282, 1741.952
1152.372, 1774.000
1153.462, 1733.000
1154.552, 1794.000
1155.641, 1725.000
1156.731, 1740.000
1157.820, 1742.000
1158.909, 1768.000
1159.998, 1726.000
1161.086, 1755.000
1162.175, 1728.000
1163.263, 1681.000
1164.351, 1708.000
1165.440, 1778.000
1166.527, 1725.000
1167.615, 1746.000
1168.703, 1765.000
1169.790, 1749.000
1170.877, 1746.000
1171.965, 1766.000
1173.051, 1719.000
1174.138, 1774.000
1175.225, 1763.000
1176.311, 1752.000
1177.398, 1747.000
1178.484, 1774.000
1179.570, 1727.000
1180.655, 1734.000
1181.741, 1705.000
1182.827, 1730.000
1183.912, 1757.000
1184.997, 1776.000
1186.082, 1784.000
1187.167, 1772.000
1188.251, 1757.000
1189.336, 1696.000
1190.420, 1760.000
1191.505, 1706.000
1192.589, 1737.000
1193.672, 1763.000
1194.756, 1692.000
1195.840, 1736.000
1196.923, 1677.000
1198.006, 1753.000
1199.089, 1697.000
1200.172, 1709.000
1201.255, 1702.000
1202.337, 1720.000
1203.420, 1697.000
1204.502, 1708.000
1205.584, 1707.000
1206.666, 1703.828
1207.748, 1708.902
1208.829, 1709.000
1209.911, 1718.000
1210.992, 1724.000
1212.073, 1744.000
1213.154, 1743.000
1214.235, 1690.000
1215.316, 1788.000
1216.396, 1700.000
1217.476, 1729.000
1218.556, 1750.000
1219.636, 1767.000
1220.716, 1767.000
1221.796, 1748.005
1222.875, 1784.327
1223.955, 1804.635
1225.034, 1809.792
1226.113, 1754.413
1227.192, 1777.203
1228.270, 1768.667
1229.349, 1758.846
1230.427, 1792.638
1231.505, 1746.064
1232.583, 1779.164
1233.661, 1780.460
1234.739, 1796.312
1235.817, 1780.644
1236.894, 1774.712
1237.971, 1800.310
1239.048, 1808.450
1240.125, 1789.154
1241.202, 1805.931
1242.278, 1758.257
1243.355, 1767.140
1244.431, 1800.425
1245.507, 1782.714
1246.583, 1800.068
1247.659, 1804.067
1248.734, 1747.375
1249.810, 1796.232
1250.885, 1799.442
1251.960, 1755.784
1253.035, 1759.000
1254.110, 1748.000
1255.185, 1732.000
1256.259, 1726.000
1257.333, 1719.000
1258.408, 1726.000
1259.482, 1717.000
1260.555, 1769.000
1261.629, 1797.000
1262.702, 1764.000
1263.776, 1725.000
1264.849, 1770.000
1265.922, 1792.000
1266.995, 1780.000
1268.068, 1829.000
1269.140, 1795.000
1270.212, 1749.000
1271.285, 1787.000
1272.357, 1823.000
1273.428, 1858.000
1274.500, 1789.000
1275.572, 1741.000
1276.643, 1791.000
1277.714, 1788.000
1278.785, 1790.000
1279.856, 1772.000
1280.927, 1774.270
1281.998, 1774.000
1283.068, 1765.000
1284.138, 1771.000
1285.208, 1762.000
1286.278, 1798.000
1287.348, 1795.000
1288.418, 1818.000
1289.487, 1820.193
1290.556, 1809.000
1291.625, 1817.000
1292.694, 1811.752
1293.763, 1805.186
1294.832, 1837.000
1295.900, 1788.000
1296.969, 1834.000
1298.037, 1871.000
1299.105, 1861.000
1300.172, 1848.000
1301.240, 1880.000
1302.308, 1827.000
1303.375, 1769.000
1304.442, 1834.000
1305.509, 1892.000
1306.576, 1856.000
1307.643, 1854.000
1308.709, 1847.000
1309.775, 1882.000
1310.842, 1854.000
1311.908, 1819.000
1312.974, 1837.000
1314.039, 1784.000
1315.105, 1883.000
1316.170, 1849.000
1317.235, 1850.000
1318.300, 1850.000
1319.365, 1866.000
1320.430, 1867.000
1321.495, 1867.000
1322.559, 1879.815
1323.623, 1844.000
1324.687, 1878.000
1325.751, 1888.000
1326.815, 1845.000
1327.879, 1861.000
1328.942, 1857.700
1330.005, 1865.000
1331.068, 1879.000
1332.131, 1849.000
1333.194, 1877.000
1334.257, 1869.000
1335.319, 1899.000
1336.381, 1848.000
1337.444, 1851.000
1338.505, 1886.000
1339.567, 1888.000
1340.629, 1915.000
1341.690, 1900.000
1342.752, 1888.000
1343.813, 1884.000
1344.874, 1880.000
1345.935, 1882.000
1346.995, 1888.000
1348.056, 1929.000
1349.116, 1847.000
1350.176, 1911.000
1351.236, 1898.000
1352.296, 1883.000
1353.356, 1899.000
1354.415, 1926.000
1355.475, 1897.000
1356.534, 1943.000
1357.593, 1973.000
1358.652, 1890.000
1359.711, 1883.000
1360.769, 1840.000
1361.827, 1887.000
1362.886, 1923.000
1363.944, 1937.000
1365.002, 1875.000
1366.059, 1882.000
1367.117, 1933.000
1368.174, 1961.000
1369.232, 1964.000
1370.289, 1931.000
1371.346, 1958.000
1372.402, 1921.000
1373.459, 1972.000
1374.515, 1939.000
1375.572, 1953.000
1376.628, 1943.000
1377.684, 1901.000
1378.740, 1921.000
1379.795, 1902.000
1380.851, 1926.000
1381.906, 1915.352
1382.961, 1897.000
1384.016, 1903.000
1385.071, 1876.000
1386.125, 1870.260
1387.180, 1926.000
1388.234, 1901.000
1389.288, 1886.000
1390.342, 1946.000
1391.396, 1928.000
1392.450, 2000.000
1393.503, 1942.000
1394.557, 1937.000
1395.610, 1915.000
1396.663, 1929.000
1397.716, 1922.000
1398.768, 1940.000
1399.821, 1950.828
1400.873, 1984.673
1401.925, 2002.504
1402.978, 2005.181
1404.029, 1947.327
1405.081, 1967.640
1406.133, 1956.626
1407.184, 1944.330
1408.235, 1975.647
1409.286, 1926.598
1410.337, 1957.223
1411.388, 1972.000
1412.439, 1963.608
1413.489, 1959.815
1414.539, 1912.000
1415.589, 1989.000
1416.639, 1935.000
1417.689, 1985.000
1418.738, 2019.000
1419.788, 1974.194
1420.837, 1974.168
1421.886, 2010.025
1422.935, 2029.870
1423.984, 2034.562
1425.033, 1978.720
1426.081, 2001.046
1427.129, 1992.046
1428.177, 1981.762
1429.225, 2015.090
1430.273, 1968.053
1431.321, 2000.689
1432.368, 2001.522
1433.416, 2016.911
1434.463, 2030.511
1435.510, 2006.119
1436.557, 2025.747
1437.603, 2030.311
1438.650, 1974.426
1439.696, 1996.798
1440.742, 1987.931
1441.788, 1977.868
1442.834, 2011.504
1443.880, 1964.862
1444.925, 1997.982
1445.971, 1999.385
1447.016, 2015.431
1448.061, 2000.044
1449.106, 1994.481
1450.150, 2020.534
1451.195, 2029.217
1452.239, 2010.550
1453.284, 2028.046
1454.328, 1981.175
1455.371, 1990.949
1456.415, 2025.212
1457.459, 2008.567
1458.502, 2027.072
1459.545, 2032.310
1460.588, 1976.943
1461.631, 2027.212
1462.674, 2031.921
1463.717, 1989.849
1464.759, 2036.761
1465.801, 2001.322
1466.843, 1995.395
1467.885, 2011.699
1468.927, 2005.005
1469.969, 2034.794
1471.010, 2029.605
1472.051, 2021.370
1473.093, 2026.895
1474.134, 2019.895
1475.174, 2032.589
1476.215, 2022.409
1477.255, 2036.716
1478.296, 2056.643
1479.336, 2034.302
1480.376, 2056.885
1481.416, 2010.020
1482.455, 2021.421
1483.495, 2026.646
1484.534, 2069.143
1485.573, 2022.960
1486.612, 2033.090
1487.651, 2067.246
1488.690, 2067.990
1489.728, 2043.834
1490.766, 2060.473
1491.805, 2012.659
1492.843, 2016.283
1493.881, 2038.000
1494.918, 2015.000
1495.956, 2033.000
1496.993, 2053.000
1498.030, 2036.000
1499.067, 2064.000
1500.104, 2075.000
1501.141, 2012.000
1502.177, 2021.000
1503.214, 2033.000
1504.250, 2075.000
1505.286, 2024.000
1506.322, 2102.000
1507.358, 1995.000
1508.393, 2061.000
1509.429, 2064.566
1510.464, 2061.239
1511.499, 2046.000
1512.534, 2056.557
1513.569, 2053.499
1514.603, 2070.000
1515.638, 2058.000
1516.672, 2068.000
1517.706, 2063.000
1518.740, 2073.819
1519.774, 2059.624
1520.807, 2096.351
1521.841, 2117.177
1522.874, 2122.963
1523.907, 2068.325
1524.940, 2091.967
1525.973, 2084.395
1527.005, 2075.648
1528.038, 2110.628
1529.070, 2065.352
1530.102, 2099.862
1531.134, 2102.678
1532.166, 2120.163
1533.198, 2106.239
1534.229, 2102.160
1535.260, 2129.723
1536.292, 2139.941
1537.323, 2122.832
1538.353, 2141.907
1539.384, 2096.642
1540.415, 2108.046
1541.445, 2143.962
1542.475, 2128.992
1543.505, 2149.198
1544.535, 2156.161
1545.565, 2102.543
1546.594, 2154.582
1547.623, 2161.086
1548.653, 2120.834
1549.682, 2169.589
1550.711, 2136.018
1551.739, 2131.979
1552.768, 2150.199
1553.796, 2145.441
1554.824, 2177.190
1555.852, 2173.987
1556.880, 2167.761
1557.908, 2175.317
1558.936, 2170.374
1559.963, 2185.149
1560.990, 2177.069
1562.017, 2193.504
1563.044, 2215.580
1564.071, 2195.414
1565.097, 2220.191
1566.124, 2175.550
1567.150, 2189.196
1568.176, 2198.000
1569.202, 2222.000
1570.228, 2229.000
1571.253, 2207.161
1572.279, 2198.000
1573.304, 2164.000
1574.329, 2184.000
1575.354, 2166.000
##END=



