##NAMES=Chalcopyrite
##RRUFFID=R050222
##IDEAL CHEMISTRY=Cu^1+^Fe^3+^S^2-^_2_
##LOCALITY=Iron Cap mine, Landsman Camp, Graham County, Arizona, USA
##OWNER=RRUFF
##SOURCE=Bob Downs
##DESCRIPTION=Group of brass yellow metallic tetrahedra, dark streaks represent alteration by bacteria where S is left behind
##STATUS=The identification of this mineral has been confirmed by X-ray diffraction and chemical analysis
##URL=rruff.info/R050222
##MEASURED CHEMISTRY=Cu_1.00_Fe_1.00_S_2.00_
##PIN_ID=L01086
##ORIENTATION=Laser parallel to -c* (0 0 -1). Fiducial mark perpendicular to laser is parallel to -a [-1 0 0]
90.77000, 5142.173
92.00800, 5185.046
93.24600, 5193.000
94.48400, 5071.000
95.72200, 4905.000
96.95900, 4868.000
98.19600, 4225.000
99.43300, 4787.000
100.6700, 5108.000
101.9070, 5296.000
103.1430, 6257.000
104.3800, 7107.000
105.6160, 7722.000
106.8520, 7931.000
108.0880, 6982.000
109.3230, 5283.000
110.5590, 4388.000
111.7940, 4049.000
113.0290, 4070.000
114.2640, 4678.000
115.4990, 4977.000
116.7340, 4954.000
117.9680, 4869.000
119.2030, 4623.000
120.4370, 4286.000
121.6710, 3995.000
122.9040, 3968.327
124.1380, 3805.595
125.3710, 3762.216
126.6050, 3814.000
127.8380, 3816.000
129.0710, 3984.000
130.3030, 4174.000
131.5360, 4256.000
132.7680, 4159.000
134.0000, 4064.000
135.2320, 3945.000
136.4640, 3883.000
137.6960, 3978.000
138.9270, 4251.000
140.1590, 4490.000
141.3900, 4231.000
142.6210, 3867.000
143.8520, 3779.000
145.0820, 3736.000
146.3130, 3834.000
147.5430, 3719.656
148.7730, 3817.000
150.0030, 3591.000
151.2330, 3513.000
152.4630, 3412.000
153.6920, 3434.000
154.9210, 3419.751
156.1510, 3388.969
157.3790, 3478.000
158.6080, 3397.000
159.8370, 3393.000
161.0650, 3457.000
162.2930, 3516.000
163.5220, 3575.000
164.7490, 3506.000
165.9770, 3573.000
167.2050, 3653.000
168.4320, 3649.000
169.6590, 3758.000
170.8860, 3883.000
172.1130, 3941.000
173.3400, 3836.000
174.5660, 3825.000
175.7930, 3632.000
177.0190, 3554.000
178.2450, 3549.000
179.4710, 3456.000
180.6960, 3356.000
181.9220, 3249.000
183.1470, 3226.000
184.3720, 3221.000
185.5970, 3266.000
186.8220, 3334.000
188.0470, 3316.000
189.2710, 3356.000
190.4950, 3294.000
191.7200, 3364.000
192.9430, 3320.000
194.1670, 3398.000
195.3910, 3421.000
196.6140, 3526.000
197.8380, 3514.450
199.0610, 3574.702
200.2830, 3556.000
201.5060, 3641.000
202.7290, 3775.000
203.9510, 3792.000
205.1730, 3706.000
206.3950, 3452.000
207.6170, 3131.000
208.8390, 2977.000
210.0610, 2939.489
211.2820, 2927.590
212.5030, 2896.664
213.7240, 2847.733
214.9450, 2726.870
216.1660, 2698.893
217.3860, 2633.736
218.6070, 2567.007
219.8270, 2552.147
221.0470, 2524.560
222.2670, 2547.000
223.4860, 2539.000
224.7060, 2593.000
225.9250, 2653.000
227.1440, 2641.000
228.3630, 2719.000
229.5820, 2690.000
230.8000, 2715.000
232.0190, 2801.000
233.2370, 2814.000
234.4550, 2864.000
235.6730, 2876.000
236.8910, 2919.000
238.1090, 2923.000
239.3260, 3018.000
240.5430, 2989.000
241.7600, 3034.000
242.9770, 3013.000
244.1940, 3082.000
245.4110, 3101.000
246.6270, 3185.420
247.8430, 3278.766
249.0590, 3400.000
250.2750, 3526.000
251.4910, 3676.000
252.7070, 3860.000
253.9220, 4449.000
255.1370, 4845.000
256.3520, 5231.000
257.5670, 5439.000
258.7820, 4964.000
259.9960, 4711.000
261.2110, 4778.000
262.4250, 5003.000
263.6390, 5090.000
264.8530, 5342.000
266.0660, 5361.000
267.2800, 5381.000
268.4930, 5516.000
269.7060, 5460.000
270.9190, 5520.000
272.1320, 5508.000
273.3450, 5457.000
274.5570, 5385.000
275.7700, 5392.000
276.9820, 5447.000
278.1940, 5751.000
279.4050, 5996.000
280.6170, 6520.000
281.8290, 7391.000
283.0400, 8439.000
284.2510, 9807.000
285.4620, 12078.00
286.6730, 15178.00
287.8830, 19863.00
289.0940, 25730.00
290.3040, 33087.00
291.5140, 40091.00
292.7240, 43448.00
293.9340, 41996.00
295.1430, 35828.00
296.3530, 26797.00
297.5620, 18113.00
298.7710, 12262.00
299.9800, 8855.000
301.1890, 6674.121
302.3970, 5910.025
303.6060, 5126.235
304.8140, 4325.080
306.0220, 3790.000
307.2300, 3561.000
308.4380, 3306.000
309.6450, 3195.000
310.8520, 3117.000
312.0600, 3061.000
313.2670, 3109.000
314.4740, 3202.204
315.6800, 3286.000
316.8870, 3596.000
318.0930, 3862.000
319.2990, 4235.000
320.5050, 4752.000
321.7110, 5245.000
322.9170, 5368.000
324.1220, 5219.000
325.3280, 4952.000
326.5330, 4618.000
327.7380, 4209.000
328.9430, 3867.000
330.1470, 3458.000
331.3520, 3231.000
332.5560, 2986.000
333.7600, 2873.000
334.9640, 2712.000
336.1680, 2736.000
337.3720, 2639.000
338.5750, 2601.000
339.7790, 2634.000
340.9820, 2668.000
342.1850, 2708.000
343.3880, 2766.675
344.5900, 2840.000
345.7930, 3016.000
346.9950, 3235.000
348.1970, 3631.000
349.3990, 4062.000
350.6010, 4691.000
351.8020, 5798.000
353.0040, 5890.000
354.2050, 5916.000
355.4060, 5645.000
356.6070, 5257.000
357.8080, 4537.000
359.0090, 4013.000
360.2090, 3597.000
361.4090, 3196.000
362.6090, 3034.000
363.8090, 2813.000
365.0090, 2857.000
366.2090, 2796.217
367.4080, 2820.000
368.6070, 2908.000
369.8060, 3041.000
371.0050, 3182.000
372.2040, 3336.000
373.4030, 3247.000
374.6010, 3347.000
375.7990, 3537.000
376.9970, 3780.000
378.1950, 4232.000
379.3930, 4980.000
380.5910, 5560.000
381.7880, 6360.000
382.9850, 6713.000
384.1820, 6620.000
385.3790, 6057.000
386.5760, 4929.000
387.7720, 4031.000
388.9690, 3310.000
390.1650, 2859.000
391.3610, 2556.000
392.5570, 2378.000
393.7530, 2245.000
394.9480, 2190.000
396.1440, 2089.000
397.3390, 2000.000
398.5340, 2077.000
399.7290, 2044.000
400.9230, 1978.000
402.1180, 1990.000
403.3120, 2004.000
404.5060, 1992.000
405.7000, 2002.172
406.8940, 1962.000
408.0880, 2003.000
409.2820, 1944.000
410.4750, 1938.000
411.6680, 2013.000
412.8610, 1971.000
414.0540, 2036.000
415.2470, 1965.000
416.4390, 1976.000
417.6310, 1972.000
418.8240, 1948.000
420.0160, 1935.000
421.2080, 1940.163
422.3990, 1943.000
423.5910, 1959.000
424.7820, 1954.000
425.9730, 1976.000
427.1640, 1988.000
428.3550, 2001.000
429.5460, 1981.000
430.7360, 1986.000
431.9270, 2019.000
433.1170, 1957.325
434.3070, 1941.000
435.4970, 1869.000
436.6860, 1949.000
437.8760, 1947.000
439.0650, 1905.000
440.2540, 1970.000
441.4430, 1942.335
442.6320, 1938.274
443.8210, 1938.000
445.0090, 1941.000
446.1970, 1928.000
447.3860, 1984.000
448.5740, 2009.000
449.7610, 1929.000
450.9490, 1988.000
452.1370, 1967.000
453.3240, 1916.000
454.5110, 1959.000
455.6980, 1952.000
456.8850, 1923.000
458.0710, 1917.000
459.2580, 1869.000
460.4440, 1843.000
461.6300, 1817.199
462.8160, 1796.000
464.0020, 1767.000
465.1880, 1777.198
466.3730, 1771.453
467.5590, 1786.000
468.7440, 1775.000
469.9290, 1785.000
471.1140, 1793.368
472.2980, 1724.358
473.4830, 1793.000
474.6670, 1769.000
475.8510, 1722.000
477.0350, 1745.000
478.2190, 1731.000
479.4020, 1730.000
480.5860, 1722.000
481.7690, 1694.000
482.9520, 1734.000
484.1350, 1748.000
485.3180, 1721.000
486.5010, 1739.000
487.6830, 1722.000
488.8660, 1693.000
490.0480, 1708.000
491.2300, 1726.000
492.4110, 1766.000
493.5930, 1737.000
494.7750, 1709.000
495.9560, 1767.000
497.1370, 1741.000
498.3180, 1689.000
499.4990, 1731.000
500.6790, 1763.000
501.8600, 1785.000
503.0400, 1783.000
504.2200, 1779.000
505.4000, 1781.000
506.5800, 1770.000
507.7600, 1760.463
508.9390, 1780.000
510.1190, 1725.000
511.2980, 1765.000
512.4770, 1735.000
513.6550, 1754.000
514.8340, 1756.415
516.0130, 1782.618
517.1910, 1761.000
518.3690, 1816.000
519.5470, 1827.000
520.7250, 1753.161
521.9020, 1799.078
523.0800, 1793.000
524.2570, 1753.000
525.4340, 1864.000
526.6110, 1732.985
527.7880, 1836.000
528.9650, 1777.000
530.1410, 1807.000
531.3180, 1786.000
532.4940, 1809.000
533.6700, 1785.000
534.8450, 1792.000
536.0210, 1737.000
537.1970, 1791.000
538.3720, 1824.000
539.5470, 1752.000
540.7220, 1754.000
541.8970, 1830.000
543.0720, 1806.000
544.2460, 1777.000
545.4200, 1711.000
546.5940, 1725.000
547.7680, 1760.000
548.9420, 1761.000
550.1160, 1755.871
551.2890, 1747.976
552.4630, 1759.000
553.6360, 1709.000
554.8090, 1782.000
555.9820, 1784.000
557.1540, 1763.000
558.3270, 1723.000
559.4990, 1771.000
560.6710, 1808.000
561.8430, 1722.000
563.0150, 1757.000
564.1870, 1828.000
565.3580, 1762.000
566.5300, 1714.000
567.7010, 1840.000
568.8720, 1778.000
570.0430, 1785.000
571.2130, 1794.000
572.3840, 1851.000
573.5540, 1792.000
574.7240, 1793.000
575.8940, 1771.000
577.0640, 1810.000
578.2340, 1819.000
579.4030, 1770.000
580.5730, 1781.000
581.7420, 1759.000
582.9110, 1735.000
584.0800, 1722.000
585.2490, 1691.937
586.4170, 1658.000
587.5850, 1654.000
588.7540, 1671.000
589.9220, 1692.000
591.0900, 1664.000
592.2570, 1638.000
593.4250, 1678.000
594.5920, 1646.000
595.7590, 1642.000
596.9260, 1630.000
598.0930, 1653.000
599.2600, 1590.000
600.4270, 1664.000
601.5930, 1659.000
602.7590, 1614.000
603.9250, 1625.000
605.0910, 1630.000
606.2570, 1653.000
607.4220, 1661.000
608.5880, 1709.000
609.7530, 1652.000
610.9180, 1629.000
612.0830, 1710.000
613.2480, 1628.000
614.4120, 1672.000
615.5770, 1679.000
616.7410, 1649.000
617.9050, 1667.000
619.0690, 1694.000
620.2330, 1708.000
621.3960, 1681.000
622.5600, 1670.000
623.7230, 1698.000
624.8860, 1709.000
626.0490, 1671.000
627.2120, 1712.000
628.3740, 1692.000
629.5370, 1679.000
630.6990, 1666.000
631.8610, 1642.000
633.0230, 1694.000
634.1850, 1627.000
635.3460, 1634.000
636.5080, 1664.000
637.6690, 1629.000
638.8300, 1646.000
639.9910, 1637.000
641.1520, 1673.000
642.3120, 1617.000
643.4730, 1607.000
644.6330, 1687.000
645.7930, 1640.000
646.9530, 1621.000
648.1130, 1697.000
649.2730, 1661.000
650.4320, 1738.000
651.5910, 1713.465
652.7510, 1732.159
653.9100, 1695.000
655.0680, 1737.000
656.2270, 1773.000
657.3850, 1739.000
658.5440, 1783.000
659.7020, 1720.000
660.8600, 1702.000
662.0180, 1683.000
663.1750, 1680.000
664.3330, 1701.000
665.4900, 1683.000
666.6470, 1720.000
667.8040, 1689.000
668.9610, 1663.000
670.1180, 1655.000
671.2740, 1605.000
672.4310, 1623.000
673.5870, 1611.000
674.7430, 1666.000
675.8990, 1617.000
677.0550, 1572.000
678.2100, 1623.000
679.3660, 1594.000
680.5210, 1514.000
681.6760, 1608.000
682.8310, 1579.000
683.9850, 1581.000
685.1400, 1548.000
686.2940, 1577.000
687.4490, 1545.000
688.6030, 1631.000
689.7570, 1630.109
690.9100, 1643.350
692.0640, 1676.000
693.2170, 1664.000
694.3700, 1669.000
695.5240, 1675.000
696.6760, 1697.000
697.8290, 1724.000
698.9820, 1678.000
700.1340, 1743.000
701.2870, 1747.165
702.4390, 1725.000
703.5910, 1794.000
704.7420, 1786.000
705.8940, 1790.000
707.0450, 1788.944
708.1970, 1787.718
709.3480, 1786.308
710.4990, 1785.000
711.6500, 1776.000
712.8000, 1767.000
713.9510, 1753.000
715.1010, 1774.000
716.2510, 1748.000
717.4010, 1729.000
718.5510, 1671.000
719.7010, 1669.000
720.8500, 1614.000
721.9990, 1617.000
723.1490, 1691.000
724.2980, 1617.000
725.4460, 1644.000
726.5950, 1571.000
727.7440, 1671.000
728.8920, 1640.000
730.0400, 1624.000
731.1880, 1635.000
732.3360, 1624.000
733.4840, 1608.337
734.6310, 1607.977
735.7790, 1585.000
736.9260, 1588.000
738.0730, 1606.000
739.2200, 1590.000
740.3670, 1594.000
741.5130, 1623.000
742.6600, 1571.000
743.8060, 1524.000
744.9520, 1546.000
746.0980, 1535.000
747.2440, 1513.000
748.3890, 1553.000
749.5350, 1566.000
750.6800, 1541.000
751.8250, 1506.000
752.9700, 1479.000
754.1150, 1510.000
755.2590, 1533.673
756.4040, 1578.195
757.5480, 1602.228
758.6920, 1606.871
759.8360, 1534.049
760.9800, 1561.257
762.1230, 1548.380
763.2670, 1533.856
764.4100, 1575.145
765.5530, 1513.593
766.6960, 1553.996
767.8390, 1553.701
768.9820, 1572.032
770.1240, 1550.031
771.2670, 1540.486
772.4090, 1571.290
773.5510, 1579.754
774.6930, 1553.109
775.8350, 1572.627
776.9760, 1541.000
778.1170, 1505.000
779.2590, 1522.000
780.4000, 1520.000
781.5410, 1547.000
782.6810, 1512.000
783.8220, 1489.000
784.9620, 1497.000
786.1020, 1554.000
787.2430, 1535.000
788.3820, 1564.000
789.5220, 1513.000
790.6620, 1492.000
791.8010, 1543.000
792.9400, 1499.000
794.0800, 1546.000
795.2190, 1521.000
796.3570, 1473.000
797.4960, 1524.000
798.6340, 1500.000
799.7730, 1448.000
800.9110, 1514.000
802.0490, 1511.000
803.1870, 1516.000
804.3240, 1512.000
805.4620, 1512.000
806.5990, 1518.889
807.7360, 1518.000
808.8730, 1536.240
810.0100, 1532.000
811.1470, 1548.000
812.2830, 1525.000
813.4200, 1538.528
814.5560, 1521.195
815.6920, 1506.000
816.8280, 1506.000
817.9630, 1504.000
819.0990, 1496.274
820.2340, 1543.037
821.3700, 1569.310
822.5050, 1576.192
823.6400, 1505.610
824.7740, 1535.058
825.9090, 1524.418
827.0430, 1512.134
828.1780, 1555.660
829.3120, 1496.346
830.4460, 1538.987
831.5790, 1540.929
832.7130, 1561.498
833.8460, 1541.732
834.9800, 1534.425
836.1130, 1567.465
837.2460, 1578.164
838.3790, 1553.755
839.5110, 1575.508
840.6440, 1514.784
841.7760, 1526.435
842.9080, 1569.313
844.0400, 1546.932
845.1720, 1569.422
846.3040, 1574.823
847.4350, 1502.560
848.5670, 1565.363
849.6980, 1569.754
850.8290, 1533.000
851.9600, 1567.000
853.0910, 1542.070
854.2210, 1523.000
855.3520, 1532.000
856.4820, 1595.000
857.6120, 1573.000
858.7420, 1550.000
859.8720, 1611.000
861.0010, 1596.186
862.1310, 1590.249
863.2600, 1610.000
864.3890, 1582.000
865.5180, 1542.000
866.6470, 1580.000
867.7750, 1568.000
868.9040, 1601.000
870.0320, 1597.000
871.1600, 1592.000
872.2880, 1564.000
873.4160, 1557.000
874.5440, 1596.000
875.6710, 1592.000
876.7990, 1593.000
877.9260, 1588.000
879.0530, 1584.067
880.1800, 1581.000
881.3060, 1580.000
882.4330, 1585.000
883.5590, 1597.000
884.6860, 1590.000
885.8120, 1631.000
886.9380, 1585.000
888.0630, 1620.000
889.1890, 1643.000
890.3140, 1595.000
891.4400, 1601.000
892.5650, 1664.000
893.6900, 1649.000
894.8140, 1629.000
895.9390, 1575.000
897.0640, 1619.000
898.1880, 1642.000
899.3120, 1604.000
900.4360, 1619.000
901.5600, 1637.000
902.6830, 1657.000
903.8070, 1688.000
904.9300, 1686.967
906.0540, 1695.818
907.1770, 1685.000
908.2990, 1682.000
909.4220, 1672.000
910.5450, 1644.000
911.6670, 1642.174
912.7890, 1636.382
913.9110, 1652.000
915.0330, 1632.000
916.1550, 1699.000
917.2770, 1690.000
918.3980, 1695.000
919.5190, 1699.000
920.6400, 1748.000
921.7610, 1711.000
922.8820, 1652.000
924.0030, 1656.000
925.1230, 1690.000
926.2440, 1691.000
927.3640, 1677.000
928.4840, 1669.000
929.6040, 1705.000
930.7230, 1736.000
931.8430, 1731.000
932.9620, 1753.000
934.0810, 1733.000
935.2000, 1718.000
936.3190, 1701.000
937.4380, 1738.000
938.5570, 1687.495
939.6750, 1736.457
940.7930, 1764.929
941.9110, 1774.010
943.0290, 1705.627
944.1470, 1737.274
945.2650, 1728.833
946.3820, 1718.746
947.4990, 1764.469
948.6160, 1707.352
949.7330, 1752.190
950.8500, 1756.329
951.9670, 1779.095
953.0830, 1761.524
954.2000, 1756.414
955.3160, 1791.649
956.4320, 1804.543
957.5480, 1782.329
958.6630, 1806.276
959.7790, 1747.747
960.8940, 1761.591
962.0100, 1806.663
963.1250, 1786.476
964.2390, 1811.158
965.3540, 1818.752
966.4690, 1748.681
967.5830, 1813.676
968.6970, 1820.258
969.8120, 1766.866
970.9260, 1827.232
972.0390, 1782.105
973.1530, 1774.633
974.2660, 1795.497
975.3800, 1799.000
976.4930, 1748.000
977.6060, 1813.000
978.7190, 1805.974
979.8310, 1798.844
980.9440, 1853.000
982.0560, 1798.000
983.1680, 1818.000
984.2810, 1836.000
985.3920, 1804.000
986.5040, 1821.000
987.6160, 1887.000
988.7270, 1824.000
989.8380, 1792.000
990.9490, 1874.000
992.0600, 1833.516
993.1710, 1919.000
994.2820, 1851.000
995.3920, 1871.000
996.5030, 1871.000
997.6130, 1843.000
998.7230, 1839.000
999.8330, 1826.000
1000.942, 1873.000
1002.052, 1847.000
1003.161, 1872.000
1004.270, 1856.000
1005.379, 1898.000
1006.488, 1927.000
1007.597, 1889.000
1008.705, 1895.000
1009.814, 1892.502
1010.922, 1839.385
1012.030, 1888.315
1013.138, 1916.754
1014.246, 1925.803
1015.354, 1857.387
1016.461, 1888.999
1017.568, 1880.524
1018.675, 1870.405
1019.782, 1916.096
1020.889, 1858.945
1021.996, 1903.751
1023.102, 1907.856
1024.209, 1930.589
1025.315, 1912.986
1026.421, 1907.841
1027.527, 1943.044
1028.633, 1955.906
1029.738, 1933.658
1030.844, 1957.573
1031.949, 1899.010
1033.054, 1912.822
1034.159, 1957.860
1035.264, 1937.639
1036.368, 1962.289
1037.473, 1969.850
1038.577, 1899.745
1039.681, 1964.707
1040.785, 1971.257
1041.889, 1917.831
1042.993, 1978.164
1044.096, 1933.004
1045.199, 1925.498
1046.303, 1946.332
1047.406, 1937.623
1048.509, 1975.488
1049.611, 1968.482
1050.714, 1957.470
1051.816, 1963.951
1052.918, 1954.298
1054.021, 1969.736
1055.123, 1955.789
1056.224, 1973.068
1057.326, 1997.427
1058.427, 1967.587
1059.529, 1995.127
1060.630, 1933.684
1061.731, 1946.695
1062.832, 1951.688
1063.932, 1877.000
1065.033, 1991.000
1066.133, 1970.000
1067.233, 1895.000
1068.333, 1929.000
1069.433, 1946.000
1070.533, 1872.000
1071.633, 1954.000
1072.732, 1960.000
1073.831, 1893.871
1074.930, 1938.848
1076.029, 1963.335
1077.128, 1968.432
1078.227, 1896.064
1079.325, 1923.728
1080.424, 1911.302
1081.522, 1897.235
1082.620, 1938.977
1083.718, 1877.878
1084.815, 1918.737
1085.913, 1918.895
1087.010, 1937.681
1088.108, 1916.131
1089.205, 1907.041
1090.302, 1938.299
1091.398, 1947.218
1092.495, 1921.026
1093.591, 1940.999
1094.688, 1878.492
1095.784, 1888.362
1096.880, 1929.459
1097.976, 1905.297
1099.071, 1926.008
1100.167, 1929.629
1101.262, 1855.586
1102.357, 1916.610
1103.452, 1919.222
1104.547, 1861.857
1105.642, 1918.253
1106.736, 1869.159
1107.831, 1857.717
1108.925, 1874.614
1110.019, 1861.971
1111.113, 1900.000
1112.207, 1877.000
1113.301, 1880.343
1114.394, 1865.562
1115.487, 1894.000
1116.580, 1837.000
1117.673, 1858.000
1118.766, 1876.000
1119.859, 1863.607
1120.952, 1869.590
1122.044, 1845.994
1123.136, 1887.452
1124.228, 1909.882
1125.320, 1914.308
1126.412, 1846.802
1127.503, 1872.183
1128.595, 1860.338
1129.686, 1846.968
1130.777, 1885.422
1131.868, 1828.380
1132.959, 1866.012
1134.050, 1865.852
1135.140, 1882.991
1136.231, 1862.673
1137.321, 1853.926
1138.411, 1882.645
1139.501, 1890.618
1140.590, 1865.993
1141.680, 1884.230
1142.769, 1825.884
1143.859, 1834.741
1144.948, 1830.000
1146.037, 1849.000
1147.125, 1804.000
1148.214, 1801.000
1149.303, 1815.000
1150.391, 1816.000
1151.479, 1813.000
1152.567, 1798.000
1153.655, 1835.000
1154.743, 1845.000
1155.830, 1792.000
1156.917, 1765.000
1158.005, 1805.000
1159.092, 1802.000
1160.179, 1793.000
1161.265, 1823.000
1162.352, 1759.000
1163.439, 1789.000
1164.525, 1847.000
1165.611, 1775.000
1166.697, 1737.000
1167.783, 1843.000
1168.868, 1779.682
1169.954, 1869.000
1171.039, 1777.000
1172.125, 1810.000
1173.210, 1814.000
1174.295, 1810.330
1175.379, 1819.721
1176.464, 1836.000
1177.548, 1836.000
1178.633, 1805.000
1179.717, 1856.000
1180.801, 1768.000
1181.884, 1810.000
1182.968, 1794.000
1184.052, 1830.000
1185.135, 1788.000
1186.218, 1791.000
1187.301, 1817.000
1188.384, 1793.797
1189.467, 1809.684
1190.549, 1773.000
1191.632, 1818.000
1192.714, 1780.000
1193.796, 1781.000
1194.878, 1736.000
1195.960, 1772.000
1197.042, 1825.000
1198.123, 1769.922
1199.204, 1801.000
1200.286, 1704.000
1201.367, 1759.000
1202.447, 1735.000
1203.528, 1784.000
1204.609, 1802.000
1205.689, 1800.000
1206.769, 1803.000
1207.849, 1798.000
1208.929, 1749.000
1210.009, 1807.000
1211.089, 1763.000
1212.168, 1794.000
1213.248, 1804.000
1214.327, 1820.000
1215.406, 1788.000
1216.485, 1819.000
1217.563, 1799.000
1218.642, 1747.000
1219.720, 1761.000
1220.798, 1825.000
1221.877, 1795.000
1222.954, 1775.000
1224.032, 1863.000
1225.110, 1799.000
1226.187, 1797.000
1227.265, 1783.000
1228.342, 1833.000
1229.419, 1816.000
1230.496, 1842.000
1231.572, 1798.000
1232.649, 1765.000
1233.725, 1826.000
1234.801, 1863.000
1235.878, 1803.000
1236.953, 1835.000
1238.029, 1789.000
1239.105, 1832.000
1240.180, 1836.000
1241.256, 1869.000
1242.331, 1855.000
1243.406, 1828.968
1244.481, 1784.000
1245.555, 1758.000
1246.630, 1822.000
1247.704, 1820.000
1248.778, 1826.000
1249.852, 1904.000
1250.926, 1787.000
1252.000, 1805.000
1253.074, 1863.000
1254.147, 1847.000
1255.220, 1854.000
1256.294, 1861.000
1257.367, 1844.000
1258.439, 1767.000
1259.512, 1820.000
1260.585, 1804.000
1261.657, 1811.000
1262.729, 1832.000
1263.801, 1840.000
1264.873, 1835.000
1265.945, 1842.000
1267.017, 1860.000
1268.088, 1865.000
1269.159, 1843.000
1270.231, 1840.000
1271.302, 1827.000
1272.372, 1836.000
1273.443, 1865.000
1274.514, 1824.000
1275.584, 1839.000
1276.654, 1856.000
1277.724, 1810.000
1278.794, 1880.000
1279.864, 1837.000
1280.934, 1863.000
1282.003, 1852.000
1283.072, 1856.615
1284.141, 1791.058
1285.210, 1898.000
1286.279, 1823.000
1287.348, 1877.000
1288.417, 1844.339
1289.485, 1889.717
1290.553, 1916.068
1291.621, 1924.415
1292.689, 1860.829
1293.757, 1890.129
1294.825, 1882.204
1295.892, 1872.752
1296.959, 1915.122
1298.026, 1861.998
1299.093, 1903.547
1300.160, 1907.303
1301.227, 1928.357
1302.294, 1911.956
1303.360, 1907.122
1304.426, 1939.754
1305.492, 1951.641
1306.558, 1930.927
1307.624, 1953.078
1308.690, 1898.643
1309.755, 1911.412
1310.820, 1953.176
1311.886, 1934.346
1312.951, 1957.180
1314.015, 1912.000
1315.080, 1905.000
1316.145, 1881.000
1317.209, 1876.771
1318.273, 1895.000
1319.337, 1879.000
1320.401, 1910.000
1321.465, 1960.000
1322.529, 1884.000
1323.592, 1912.000
1324.656, 1972.000
1325.719, 1956.000
1326.782, 1915.000
1327.845, 1922.000
1328.907, 1932.000
1329.970, 1965.000
1331.032, 1945.000
1332.095, 1973.360
1333.157, 2031.000
1334.219, 2006.000
1335.280, 1922.000
1336.342, 1932.000
1337.404, 1948.000
1338.465, 1967.000
1339.526, 1970.000
1340.587, 1907.000
1341.648, 1971.000
1342.709, 1982.000
1343.769, 1898.000
1344.830, 1972.000
1345.890, 1887.000
1346.950, 1953.000
1348.010, 1987.000
1349.070, 1942.000
1350.130, 1983.028
1351.189, 1971.548
1352.249, 1968.000
1353.308, 1974.000
1354.367, 1926.000
1355.426, 1936.000
1356.485, 1941.000
1357.543, 1963.000
1358.602, 1956.000
1359.660, 1976.298
1360.718, 1925.000
1361.776, 1981.000
1362.834, 1983.000
1363.892, 1930.000
1364.949, 1950.447
1366.006, 1994.857
1367.064, 2020.240
1368.121, 2027.617
1369.178, 1963.063
1370.235, 1991.394
1371.291, 1982.499
1372.348, 1972.080
1373.404, 2013.482
1374.460, 1959.390
1375.516, 1999.971
1376.572, 2002.760
1377.628, 2022.845
1378.683, 2005.475
1379.739, 1999.675
1380.794, 2031.340
1381.849, 2042.260
1382.904, 2020.579
1383.959, 2041.763
1385.013, 2038.759
1386.068, 1998.163
1387.122, 2038.961
1388.176, 2019.163
1389.231, 1999.000
1390.284, 1980.000
1391.338, 1957.000
1392.392, 1955.953
1393.445, 1951.097
1394.498, 1965.000
1395.552, 1974.000
1396.605, 1998.069
1397.657, 2042.119
1398.710, 2067.141
1399.763, 2074.159
1400.815, 2009.245
1401.867, 2037.215
1402.919, 2027.961
1403.971, 2017.181
1405.023, 2058.225
1406.075, 2003.772
1407.126, 2043.993
1408.177, 2046.422
1409.229, 2066.148
1410.280, 2048.420
1411.330, 2042.260
1412.381, 2073.565
1413.432, 2084.126
1414.482, 2062.085
1415.532, 2082.910
1416.582, 2027.148
1417.632, 2038.592
1418.682, 2079.031
1419.732, 2058.874
1420.781, 2023.000
1421.831, 1976.000
1422.880, 2015.000
1423.929, 2016.000
1424.978, 2033.000
1426.027, 2027.000
1427.075, 2036.145
1428.124, 2013.000
1429.172, 2033.000
1430.220, 2057.000
1431.268, 2029.000
1432.316, 2107.000
1433.364, 2091.000
1434.411, 2078.000
1435.459, 2055.000
1436.506, 2036.000
1437.553, 2094.000
1438.600, 2064.000
1439.647, 2043.000
1440.693, 2054.000
1441.740, 1985.000
1442.786, 2054.000
1443.832, 2057.000
1444.878, 2010.000
1445.924, 2110.000
1446.970, 2017.000
1448.015, 2040.000
1449.061, 2047.000
1450.106, 2120.000
1451.151, 2075.000
1452.196, 2108.796
1453.241, 2112.737
1454.286, 2114.000
1455.330, 2097.000
1456.375, 2078.000
1457.419, 2035.000
1458.463, 2106.000
1459.507, 2040.000
1460.551, 2090.000
1461.594, 2092.000
1462.638, 2106.000
1463.681, 2095.000
1464.724, 2087.536
1465.767, 2079.000
1466.810, 2048.000
1467.853, 2055.000
1468.895, 2018.549
1469.938, 2024.093
1470.980, 2011.000
1472.022, 2026.000
1473.064, 2079.000
1474.106, 2080.000
1475.148, 2090.000
1476.189, 2095.000
1477.230, 2082.970
1478.272, 2089.000
1479.313, 2067.935
1480.354, 2055.110
1481.394, 2074.000
1482.435, 2067.000
1483.476, 2040.000
1484.516, 2110.000
1485.556, 2111.000
1486.596, 2020.000
1487.636, 2078.000
1488.676, 2116.000
1489.715, 2115.000
1490.755, 2143.000
1491.794, 2097.000
1492.833, 2075.000
1493.872, 2128.000
1494.911, 2107.000
1495.949, 2122.000
1496.988, 2055.000
1498.026, 2101.000
1499.064, 2072.000
1500.103, 2118.000
1501.140, 2139.000
1502.178, 2035.000
1503.216, 2095.000
1504.253, 2085.000
1505.291, 2112.000
1506.328, 2121.000
1507.365, 2077.000
1508.402, 2073.000
1509.438, 2136.000
1510.475, 2106.000
1511.511, 2110.000
1512.548, 2156.000
1513.584, 2111.000
1514.620, 2135.000
1515.656, 2177.000
1516.691, 2147.000
1517.727, 2213.000
1518.762, 2123.000
1519.797, 2160.240
1520.832, 2151.689
1521.867, 2141.000
1522.902, 2179.000
1523.937, 2097.000
1524.971, 2176.000
1526.005, 2107.000
1527.040, 2226.000
1528.074, 2189.000
1529.108, 2180.000
1530.141, 2243.000
1531.175, 2169.000
1532.208, 2141.000
1533.242, 2212.000
1534.275, 2092.000
1535.308, 2184.000
1536.341, 2198.000
1537.373, 2169.000
1538.406, 2182.000
1539.438, 2203.000
1540.470, 2199.223
1541.502, 2184.000
1542.534, 2181.078
1543.566, 2226.078
1544.598, 2252.052
1545.629, 2260.018
1546.661, 2196.055
1547.692, 2224.975
1548.723, 2216.672
1549.754, 2206.841
1550.784, 2248.833
1551.815, 2195.331
1552.846, 2236.502
1553.876, 2239.880
1554.906, 2260.554
1555.936, 2243.775
1556.966, 2238.563
1557.996, 2270.818
1559.025, 2282.326
1560.054, 2261.233
1561.084, 2283.007
1562.113, 2228.194
1563.142, 2240.585
1564.171, 2281.973
1565.199, 2262.762
1566.228, 2285.219
1567.256, 2291.805
1568.284, 2226.275
1569.312, 2286.163
1570.340, 2202.000
1571.368, 2264.000
1572.396, 2274.000
1573.423, 2207.000
1574.451, 2232.000
1575.478, 2235.000
1576.505, 2262.000
1577.532, 2219.000
##END=



