##NAMES=Chloritoid
##RRUFFID=R050334
##IDEAL CHEMISTRY=Fe^2+^Al_2_OSiO_4_(OH)_2_
##LOCALITY=Selçuk, Mugla Province, Turkey
##OWNER=RRUFF
##SOURCE=George Rossman
##DESCRIPTION=Dark greenish-black foliated cleavage fragments
##STATUS=The identification of this mineral is confirmed by single-crystal X-ray diffraction and chemical analysis.
##URL=rruff.info/R050334
##MEASURED CHEMISTRY=(Fe^2+^_1.84_Mg_0.12_Mn_0.04_)_Σ=2_(Al_3.95_Fe^3+^_0.05_)_Σ=4_Si_2.00_O_10_(OH)_4_ ; H not measured but estimated by difference and stoichiometry
##PIN_ID=M01491
##ORIENTATION=Laser parallel to (1 0 1). Fiducial mark perpendicular to laser is parallel to b [0 1 0]
168.3890, 10061.00
169.6170, 10261.00
170.8450, 10251.00
172.0730, 10002.00
173.3000, 10092.00
174.5280, 9966.000
175.7550, 9915.000
176.9820, 9962.000
178.2090, 10158.00
179.4350, 10010.00
180.6620, 9893.000
181.8880, 9843.000
183.1150, 10094.00
184.3410, 10203.00
185.5670, 10161.00
186.7920, 10208.00
188.0180, 10150.00
189.2430, 10302.00
190.4690, 10389.00
191.6940, 10547.00
192.9180, 10518.00
194.1430, 10735.00
195.3680, 10723.00
196.5920, 10826.00
197.8160, 10794.00
199.0400, 11014.00
200.2640, 11067.00
201.4880, 11221.00
202.7110, 10930.00
203.9350, 10408.00
205.1580, 10256.00
206.3810, 10029.00
207.6040, 9845.000
208.8270, 9926.000
210.0490, 9905.000
211.2710, 10012.00
212.4940, 9996.000
213.7160, 9948.025
214.9370, 9984.000
216.1590, 9965.647
217.3810, 9937.000
218.6020, 9970.000
219.8230, 10016.00
221.0440, 10006.00
222.2650, 9996.000
223.4860, 10205.00
224.7060, 10007.00
225.9260, 10046.56
227.1470, 9888.000
228.3670, 9884.000
229.5860, 9938.000
230.8060, 9773.000
232.0260, 9968.000
233.2450, 9779.000
234.4640, 9843.000
235.6830, 9879.000
236.9020, 9835.000
238.1200, 9936.034
239.3390, 9956.000
240.5570, 10117.00
241.7750, 10107.00
242.9930, 10277.00
244.2110, 10346.00
245.4290, 10441.00
246.6460, 10877.00
247.8630, 11091.00
249.0810, 11474.00
250.2980, 11620.00
251.5140, 12073.00
252.7310, 12381.00
253.9470, 12629.00
255.1640, 12644.71
256.3800, 12010.00
257.5960, 12439.00
258.8120, 12254.84
260.0270, 12096.89
261.2430, 12418.00
262.4580, 11573.00
263.6730, 11303.00
264.8880, 11162.00
266.1030, 11158.00
267.3170, 10963.00
268.5320, 10987.00
269.7460, 10780.00
270.9600, 10912.00
272.1740, 10652.00
273.3880, 10632.00
274.6010, 10831.00
275.8150, 10990.00
277.0280, 11067.00
278.2410, 11111.00
279.4540, 11343.00
280.6670, 11755.00
281.8790, 12557.00
283.0920, 12306.00
284.3040, 12517.00
285.5160, 12367.00
286.7280, 12366.00
287.9400, 12015.00
289.1510, 11842.00
290.3630, 11748.00
291.5740, 11676.00
292.7850, 11581.00
293.9960, 11353.00
295.2070, 11217.00
296.4170, 11139.00
297.6280, 11227.00
298.8380, 11138.00
300.0480, 11117.00
301.2580, 11264.00
302.4680, 11161.00
303.6770, 11255.00
304.8870, 11219.00
306.0960, 11252.00
307.3050, 11236.00
308.5140, 11140.00
309.7230, 11055.00
310.9310, 11060.00
312.1400, 10812.00
313.3480, 10939.00
314.5560, 10687.00
315.7640, 10685.00
316.9720, 10638.00
318.1790, 10643.00
319.3870, 10609.13
320.5940, 10594.00
321.8010, 10526.00
323.0080, 10496.00
324.2150, 10529.05
325.4210, 10560.00
326.6280, 10643.00
327.8340, 10734.00
329.0400, 10858.00
330.2460, 10909.00
331.4510, 11129.00
332.6570, 11296.00
333.8620, 11478.00
335.0680, 11473.00
336.2730, 11460.00
337.4780, 11276.00
338.6820, 11155.00
339.8870, 11028.00
341.0910, 10856.00
342.2950, 10807.00
343.5000, 10876.00
344.7030, 10981.00
345.9070, 10959.00
347.1110, 11099.00
348.3140, 10997.27
349.5170, 10928.19
350.7200, 10803.00
351.9230, 10717.00
353.1260, 10607.98
354.3290, 10613.00
355.5310, 10640.00
356.7330, 10566.00
357.9350, 10669.00
359.1370, 10667.00
360.3390, 10565.00
361.5400, 10710.00
362.7420, 10720.00
363.9430, 10860.00
365.1440, 10957.00
366.3450, 11030.00
367.5460, 10933.00
368.7460, 11049.00
369.9470, 11241.00
371.1470, 11170.00
372.3470, 11340.00
373.5470, 11362.00
374.7460, 11471.00
375.9460, 11851.00
377.1450, 11547.00
378.3450, 12290.00
379.5440, 11677.00
380.7430, 11907.00
381.9410, 11838.00
383.1400, 11939.00
384.3380, 12225.00
385.5370, 12273.00
386.7350, 12662.00
387.9320, 12913.00
389.1300, 12898.00
390.3280, 13017.00
391.5250, 13181.00
392.7220, 13219.00
393.9190, 13276.00
395.1160, 13100.00
396.3130, 13278.70
397.5100, 13330.44
398.7060, 13459.00
399.9020, 13632.00
401.0980, 13624.00
402.2940, 13834.00
403.4900, 13870.00
404.6860, 13859.00
405.8810, 13853.00
407.0760, 14104.00
408.2710, 14077.00
409.4660, 14149.00
410.6610, 14166.00
411.8550, 14062.00
413.0500, 14167.00
414.2440, 14258.00
415.4380, 14079.00
416.6320, 14127.00
417.8260, 14005.00
419.0190, 13718.00
420.2130, 13966.82
421.4060, 13589.99
422.5990, 13506.88
423.7920, 13203.00
424.9850, 13103.00
426.1770, 13142.00
427.3700, 12856.00
428.5620, 12956.00
429.7540, 12959.00
430.9460, 12773.00
432.1380, 12772.00
433.3290, 12687.00
434.5210, 12515.00
435.7120, 12455.00
436.9030, 12497.00
438.0940, 12356.00
439.2850, 12426.00
440.4750, 12218.00
441.6660, 12155.00
442.8560, 12205.00
444.0460, 12384.00
445.2360, 12320.00
446.4260, 12394.04
447.6160, 12325.00
448.8050, 12423.18
449.9940, 12334.00
451.1830, 12343.00
452.3720, 12193.00
453.5610, 12246.00
454.7500, 12306.00
455.9380, 12200.00
457.1260, 12267.00
458.3150, 12409.00
459.5020, 12226.00
460.6900, 12278.00
461.8780, 12370.00
463.0650, 12394.00
464.2530, 12413.00
465.4400, 12431.73
466.6270, 12665.00
467.8130, 12490.00
469.0000, 12477.00
470.1870, 12658.00
471.3730, 12548.00
472.5590, 12745.00
473.7450, 12864.00
474.9310, 12854.00
476.1160, 12781.00
477.3020, 12902.00
478.4870, 13145.00
479.6720, 13064.60
480.8570, 13246.00
482.0420, 13024.00
483.2270, 13076.00
484.4110, 12956.00
485.5960, 13096.00
486.7800, 13192.00
487.9640, 13010.00
489.1480, 13042.00
490.3310, 13247.00
491.5150, 13424.00
492.6980, 13618.00
493.8810, 13804.00
495.0640, 14021.00
496.2470, 14314.00
497.4300, 14545.00
498.6120, 14880.00
499.7950, 14960.00
500.9770, 14942.00
502.1590, 14836.00
503.3410, 14943.00
504.5220, 15004.00
505.7040, 15088.00
506.8850, 15329.48
508.0660, 15567.35
509.2470, 15856.00
510.4280, 16115.00
511.6090, 16403.00
512.7890, 16462.00
513.9700, 16334.00
515.1500, 15955.00
516.3300, 15564.00
517.5100, 15122.00
518.6900, 14603.00
519.8690, 14414.00
521.0490, 14101.00
522.2280, 14062.00
523.4070, 14032.00
524.5860, 14307.00
525.7640, 14396.00
526.9430, 14709.00
528.1210, 15155.00
529.3000, 15422.00
530.4780, 15871.00
531.6560, 16058.00
532.8330, 15750.00
534.0110, 15709.00
535.1880, 15319.00
536.3650, 14777.00
537.5430, 14445.00
538.7190, 14041.00
539.8960, 14040.00
541.0730, 13760.00
542.2490, 13847.00
543.4250, 13822.00
544.6020, 14004.00
545.7780, 14043.00
546.9530, 14356.00
548.1290, 14907.00
549.3040, 15844.00
550.4800, 16155.00
551.6550, 18097.00
552.8300, 18025.00
554.0040, 18507.00
555.1790, 18453.00
556.3540, 17287.00
557.5280, 16131.00
558.7020, 15199.00
559.8760, 14310.00
561.0500, 13981.00
562.2230, 13435.00
563.3970, 13401.00
564.5700, 13109.00
565.7430, 13056.00
566.9160, 13099.00
568.0890, 13040.00
569.2620, 13071.00
570.4340, 12874.00
571.6070, 12813.00
572.7790, 12859.00
573.9510, 12732.00
575.1230, 12995.00
576.2940, 12827.00
577.4660, 12879.00
578.6370, 13169.00
579.8080, 13116.37
580.9790, 13335.00
582.1500, 13474.00
583.3210, 13505.00
584.4910, 14035.00
585.6620, 14840.00
586.8320, 15676.00
588.0020, 17008.00
589.1720, 18617.00
590.3410, 20999.00
591.5110, 25289.00
592.6800, 31953.00
593.8500, 40930.00
595.0190, 49422.00
596.1880, 53188.00
597.3560, 48793.00
598.5250, 39307.00
599.6930, 30398.00
600.8620, 23865.00
602.0300, 20026.00
603.1970, 17627.00
604.3650, 16321.00
605.5330, 15562.00
606.7000, 14968.00
607.8680, 14433.00
609.0350, 14317.00
610.2020, 14004.00
611.3680, 13798.00
612.5350, 13580.00
613.7010, 13455.00
614.8680, 13404.00
616.0340, 13196.00
617.2000, 13145.00
618.3660, 13163.00
619.5310, 13044.00
620.6970, 13010.00
621.8620, 12959.46
623.0270, 12896.00
624.1920, 12817.00
625.3570, 12778.99
626.5220, 12716.00
627.6860, 12714.00
628.8500, 12680.67
630.0140, 12702.00
631.1780, 12634.00
632.3420, 12673.00
633.5060, 12669.00
634.6700, 12754.00
635.8330, 12659.00
636.9960, 12677.00
638.1590, 12599.00
639.3220, 12759.00
640.4850, 12621.00
641.6470, 12659.00
642.8100, 12549.00
643.9720, 12616.00
645.1340, 12548.00
646.2960, 12536.00
647.4570, 12504.00
648.6190, 12620.00
649.7800, 12492.00
650.9420, 12518.00
652.1030, 12575.00
653.2640, 12460.00
654.4240, 12529.00
655.5850, 12552.00
656.7450, 12663.00
657.9060, 12562.00
659.0660, 12470.00
660.2260, 12536.00
661.3850, 12401.00
662.5450, 12507.00
663.7040, 12524.00
664.8640, 12615.00
666.0230, 12550.00
667.1820, 12651.00
668.3410, 12624.00
669.4990, 12575.00
670.6580, 12642.00
671.8160, 12530.00
672.9740, 12586.00
674.1320, 12421.00
675.2900, 12508.00
676.4480, 12344.00
677.6050, 12383.00
678.7630, 12468.00
679.9200, 12582.00
681.0770, 12465.00
682.2340, 12500.00
683.3900, 12627.00
684.5470, 12390.00
685.7030, 12543.00
686.8590, 12448.00
688.0150, 12446.00
689.1710, 12505.00
690.3270, 12415.00
691.4830, 12582.00
692.6380, 12323.81
693.7930, 12540.74
694.9480, 12681.51
696.1030, 12750.21
697.2580, 12530.99
698.4130, 12683.57
699.5670, 12687.10
700.7210, 12684.53
701.8750, 12889.39
703.0290, 12712.02
704.1830, 12913.59
705.3370, 12963.89
706.4900, 12933.00
707.6430, 12842.00
708.7970, 13017.00
709.9490, 12902.00
711.1020, 12901.00
712.2550, 12778.00
713.4070, 12823.00
714.5600, 12837.00
715.7120, 12806.00
716.8640, 12685.00
718.0160, 12721.00
719.1670, 12793.00
720.3190, 12919.00
721.4700, 12781.00
722.6210, 12936.00
723.7720, 12913.00
724.9230, 12804.00
726.0740, 12870.00
727.2250, 13002.00
728.3750, 13183.00
729.5250, 13188.00
730.6750, 13354.00
731.8250, 13308.00
732.9750, 13209.00
734.1240, 13268.87
735.2740, 13210.13
736.4230, 13254.00
737.5720, 13136.00
738.7210, 13161.00
739.8700, 13022.00
741.0190, 13254.00
742.1670, 13243.00
743.3150, 13106.00
744.4630, 12982.00
745.6110, 13079.00
746.7590, 13018.00
747.9070, 12997.00
749.0540, 12830.00
750.2020, 12890.00
751.3490, 12934.00
752.4960, 12758.00
753.6430, 12748.00
754.7890, 12729.00
755.9360, 12568.00
757.0820, 12676.00
758.2280, 12385.00
759.3740, 12652.00
760.5200, 12563.00
761.6660, 12595.00
762.8120, 12631.00
763.9570, 12477.00
765.1020, 12534.00
766.2470, 12407.00
767.3920, 12514.00
768.5370, 12567.00
769.6810, 12555.00
770.8260, 12645.76
771.9700, 12423.00
773.1140, 12714.00
774.2580, 12647.00
775.4020, 12588.00
776.5460, 12375.00
777.6890, 12690.00
778.8320, 12540.22
779.9750, 12762.00
781.1180, 12507.00
782.2610, 12634.00
783.4040, 12547.00
784.5460, 12682.00
785.6890, 12707.51
786.8310, 12526.00
787.9730, 12732.00
789.1150, 12758.00
790.2560, 12604.00
791.3980, 12826.00
792.5390, 12778.00
793.6810, 12718.00
794.8220, 12691.00
795.9630, 12746.00
797.1030, 12850.00
798.2440, 12718.60
799.3840, 12911.17
800.5240, 13027.57
801.6650, 13071.93
802.8040, 12828.34
803.9440, 12956.54
805.0840, 12935.76
806.2230, 12908.84
807.3630, 13089.38
808.5020, 12887.66
809.6410, 13064.89
810.7790, 13090.84
811.9180, 13186.03
813.0570, 12805.00
814.1950, 12904.00
815.3330, 12943.00
816.4710, 13012.00
817.6090, 12977.00
818.7470, 12981.00
819.8840, 13092.00
821.0220, 13138.00
822.1590, 13205.36
823.2960, 13392.00
824.4330, 13272.00
825.5690, 13340.00
826.7060, 13201.00
827.8420, 13322.00
828.9790, 13441.00
830.1150, 13636.00
831.2510, 13547.00
832.3860, 13638.00
833.5220, 13878.00
834.6570, 13732.00
835.7930, 13999.00
836.9280, 13965.00
838.0630, 14155.00
839.1980, 14271.00
840.3320, 14175.00
841.4670, 14469.00
842.6010, 14548.00
843.7350, 14635.00
844.8690, 14572.00
846.0030, 14632.00
847.1370, 14610.00
848.2700, 14605.00
849.4040, 14608.00
850.5370, 14561.00
851.6700, 14497.00
852.8030, 14562.00
853.9360, 14681.00
855.0680, 14739.00
856.2000, 14896.00
857.3330, 14694.00
858.4650, 14809.00
859.5970, 14833.00
860.7290, 15100.00
861.8600, 15000.00
862.9920, 15057.00
864.1230, 15434.00
865.2540, 15392.25
866.3850, 15655.51
867.5160, 15640.00
868.6460, 16119.00
869.7770, 16305.00
870.9070, 16669.00
872.0370, 16996.00
873.1670, 17562.00
874.2970, 17957.00
875.4270, 18560.00
876.5570, 19192.00
877.6860, 19735.00
878.8150, 20263.00
879.9440, 20598.00
881.0730, 20821.00
882.2020, 20843.12
883.3300, 20743.88
884.4590, 20471.00
885.5870, 20135.00
886.7150, 19662.00
887.8430, 19113.00
888.9710, 18849.00
890.0990, 18487.00
891.2260, 18054.00
892.3530, 17797.00
893.4810, 17495.00
894.6080, 17585.00
895.7340, 17466.00
896.8610, 17372.00
897.9880, 17292.00
899.1140, 17372.00
900.2400, 17612.00
901.3660, 17698.00
902.4920, 18040.00
903.6180, 18055.00
904.7430, 18226.00
905.8690, 18427.00
906.9940, 18363.00
908.1190, 18305.00
909.2440, 18068.00
910.3690, 17867.00
911.4930, 17573.61
912.6180, 17308.00
913.7420, 16918.00
914.8660, 16739.00
915.9900, 16507.00
917.1140, 16352.00
918.2380, 16180.07
919.3610, 16086.00
920.4850, 15882.00
921.6080, 15811.00
922.7310, 15688.00
923.8540, 15598.00
924.9760, 15693.00
926.0990, 15363.00
927.2210, 15528.00
928.3440, 15416.00
929.4660, 15457.00
930.5880, 15238.00
931.7090, 15245.00
932.8310, 15315.00
933.9520, 15368.00
935.0740, 15332.00
936.1950, 15329.00
937.3160, 15245.21
938.4360, 15445.16
939.5570, 15568.97
940.6780, 15620.72
941.7980, 15384.52
942.9180, 15520.11
944.0380, 15506.71
945.1580, 15487.20
946.2780, 15675.12
947.3970, 15480.77
948.5170, 15665.40
949.6360, 15698.74
950.7550, 15801.31
951.8740, 15753.96
952.9930, 15718.00
954.1110, 15742.00
955.2300, 15684.00
956.3480, 15637.00
957.4660, 15762.00
958.5840, 15695.00
959.7020, 15705.20
960.8190, 15751.00
961.9370, 15653.00
963.0540, 15607.00
964.1710, 15544.00
965.2880, 15525.00
966.4050, 15528.00
967.5220, 15541.85
968.6380, 15513.00
969.7550, 15641.00
970.8710, 15681.00
971.9870, 15768.00
973.1030, 15751.39
974.2190, 15433.00
975.3340, 15631.00
976.4500, 15632.00
977.5650, 15470.00
978.6800, 15657.00
979.7950, 15582.00
980.9100, 15612.00
982.0250, 15623.00
983.1390, 15600.70
984.2530, 15559.00
985.3680, 15600.00
986.4820, 15597.00
987.5950, 15599.00
988.7090, 15684.00
989.8230, 15668.05
990.9360, 15637.00
992.0490, 15697.00
993.1620, 15666.00
994.2750, 15678.00
995.3880, 15677.07
996.5010, 15625.00
997.6130, 15683.00
998.7250, 15659.00
999.8370, 15723.00
1000.949, 15781.00
1002.061, 15805.00
1003.173, 15834.39
1004.284, 15850.00
1005.396, 15811.00
1006.507, 15795.00
1007.618, 15683.00
1008.729, 15626.00
1009.839, 15700.00
1010.950, 15730.00
1012.060, 15817.00
1013.171, 15652.00
1014.281, 15839.00
1015.391, 15753.00
1016.500, 15922.00
1017.610, 15677.00
1018.719, 15661.00
1019.829, 15722.00
1020.938, 15669.77
1022.047, 15708.00
1023.156, 15802.00
1024.264, 15618.00
1025.373, 15742.00
1026.481, 15788.00
1027.589, 15737.00
1028.697, 15732.00
1029.805, 15587.00
1030.913, 15882.00
1032.020, 15686.00
1033.128, 15883.00
1034.235, 15796.00
1035.342, 15794.00
1036.449, 15871.00
1037.556, 15761.00
1038.663, 15896.00
1039.769, 15930.00
1040.875, 16028.00
1041.981, 15959.00
1043.087, 15905.00
1044.193, 15865.00
1045.299, 15983.00
1046.404, 15830.00
1047.510, 15896.00
1048.615, 15987.00
1049.720, 15952.00
1050.825, 15986.00
1051.930, 15873.00
1053.034, 15998.00
1054.139, 15871.00
1055.243, 16126.00
1056.347, 16063.00
1057.451, 16174.00
1058.555, 15938.00
1059.658, 15982.00
1060.762, 16142.00
1061.865, 16192.00
1062.968, 16069.00
1064.071, 15958.00
1065.174, 16071.00
1066.277, 16076.00
1067.380, 16035.00
1068.482, 15985.00
1069.584, 16144.00
1070.686, 16300.00
1071.788, 16174.00
1072.890, 16217.00
1073.992, 16122.00
1075.093, 16101.00
1076.194, 16262.00
1077.295, 16182.00
1078.396, 16261.00
1079.497, 16420.00
1080.598, 16184.00
1081.698, 16425.00
1082.799, 16471.00
1083.899, 16323.00
1084.999, 16427.00
1086.099, 16394.00
1087.199, 16476.00
1088.298, 16500.00
1089.398, 16612.00
1090.497, 16575.00
1091.596, 16720.00
1092.695, 16579.00
1093.794, 16696.00
1094.892, 16626.00
1095.991, 16400.00
1097.089, 16889.00
1098.187, 16479.00
1099.285, 16616.00
1100.383, 16712.00
1101.481, 16565.00
1102.579, 16415.00
1103.676, 16583.00
1104.773, 16431.00
1105.870, 16533.00
1106.967, 16489.00
1108.064, 16228.00
1109.161, 16354.00
1110.257, 16417.00
1111.353, 16327.00
1112.449, 16505.00
1113.545, 16521.00
1114.641, 16572.00
1115.737, 16506.00
1116.832, 16687.00
1117.928, 16719.00
1119.023, 16797.00
1120.118, 16973.00
1121.213, 17150.00
1122.308, 17197.00
1123.402, 16921.00
1124.497, 16741.00
1125.591, 16539.00
1126.685, 16456.00
1127.779, 16468.00
1128.873, 16404.00
1129.967, 16467.00
1131.060, 16189.00
1132.153, 16369.00
1133.247, 16219.00
1134.340, 16324.00
1135.433, 16297.38
1136.525, 16461.07
1137.618, 16548.59
1138.710, 16564.05
1139.802, 16291.60
1140.895, 16390.92
1141.987, 16341.25
1143.078, 16285.49
1144.170, 16437.14
1145.261, 16206.57
1146.353, 16354.94
1147.444, 16352.05
1148.535, 16418.39
1149.626, 16266.63
1150.716, 16289.21
1151.807, 16289.00
1152.897, 16335.00
1153.988, 16381.00
1155.078, 16389.00
1156.168, 16458.00
1157.257, 16313.00
1158.347, 16277.00
1159.436, 16399.00
1160.526, 16442.00
1161.615, 16274.00
1162.704, 16262.00
1163.793, 16262.00
1164.881, 16406.00
1165.970, 16327.00
1167.058, 16403.00
1168.147, 16539.00
1169.235, 16460.00
1170.323, 16395.00
1171.410, 16404.00
1172.498, 16497.00
1173.585, 16483.00
1174.673, 16410.00
1175.760, 16488.44
1176.847, 16439.69
1177.934, 16466.00
1179.020, 16523.00
1180.107, 16326.00
1181.193, 16570.00
1182.279, 16623.00
1183.365, 16478.00
1184.451, 16499.00
1185.537, 16653.00
1186.623, 16544.00
1187.708, 16648.34
1188.793, 16487.00
1189.878, 16774.00
1190.963, 16536.00
1192.048, 16651.00
1193.133, 16574.00
1194.217, 16591.00
1195.302, 16536.00
1196.386, 16735.00
1197.470, 16752.00
1198.554, 16620.00
1199.638, 16750.00
1200.721, 16539.63
1201.805, 16730.85
1202.888, 16845.89
1203.971, 16888.87
1205.054, 16643.92
1206.137, 16770.77
1207.219, 16748.60
1208.302, 16720.34
1209.384, 16899.49
1210.466, 16696.41
1211.548, 16872.28
1212.630, 16896.88
1213.712, 16990.70
1214.794, 16934.62
1215.875, 16924.82
1216.956, 17064.98
1218.037, 17122.11
1219.118, 17048.75
1220.199, 17146.97
1221.280, 16938.63
1222.360, 16999.28
1223.441, 17176.01
1224.521, 17110.17
1225.601, 17211.11
1226.681, 17248.53
1227.760, 16997.27
1228.840, 17248.04
1229.919, 17281.70
1230.999, 17092.45
1232.078, 17326.00
1233.157, 17167.46
1234.236, 17148.88
1235.314, 17235.61
1236.393, 17212.55
1237.471, 17362.58
1238.549, 17227.00
1239.627, 17105.00
1240.705, 17309.00
1241.783, 17245.00
1242.860, 17298.00
1243.938, 17312.62
1245.015, 17207.00
1246.092, 17301.00
1247.169, 17301.00
1248.246, 17364.00
1249.323, 17366.00
1250.399, 17256.00
1251.475, 17431.00
1252.552, 17323.00
1253.628, 17188.00
1254.703, 17313.00
1255.779, 17454.00
1256.855, 17347.00
1257.930, 17375.00
1259.005, 17422.00
1260.080, 17470.00
1261.155, 17628.00
1262.230, 17638.00
1263.305, 17482.00
1264.379, 17607.00
1265.454, 17380.00
1266.528, 17656.00
1267.602, 17718.00
1268.676, 17604.00
1269.750, 17766.00
1270.823, 17641.00
1271.897, 17745.00
1272.970, 17738.00
1274.043, 17740.00
1275.116, 17763.00
1276.189, 17869.00
1277.261, 17900.00
1278.334, 17928.00
1279.406, 17845.00
1280.478, 17850.00
1281.550, 17949.00
1282.622, 17777.00
1283.694, 17887.00
1284.766, 18071.00
1285.837, 17931.00
1286.908, 18001.00
1287.979, 17961.00
1289.050, 17933.00
1290.121, 17954.00
1291.192, 17984.00
1292.262, 17875.00
1293.333, 17867.00
1294.403, 17887.94
1295.473, 17916.91
1296.543, 17897.00
1297.613, 18125.00
1298.682, 18044.00
1299.752, 18246.00
1300.821, 17867.00
1301.890, 18217.00
1302.959, 18155.00
1304.028, 18431.00
1305.096, 18340.00
1306.165, 18418.00
1307.233, 18459.00
1308.301, 18668.00
1309.370, 18578.00
1310.437, 18584.00
1311.505, 18542.00
1312.573, 18674.00
1313.640, 18663.00
1314.708, 18527.00
1315.775, 18765.00
1316.842, 18624.00
1317.908, 18632.00
1318.975, 18962.00
1320.042, 18726.30
1321.108, 18816.00
1322.174, 18584.00
1323.240, 18562.00
1324.306, 18611.00
1325.372, 18762.00
1326.438, 18667.00
1327.503, 18597.00
1328.568, 18585.00
1329.634, 18743.00
1330.699, 18878.00
1331.763, 18817.75
1332.828, 18730.00
1333.893, 18686.00
1334.957, 18764.00
1336.021, 18596.00
1337.085, 18627.00
1338.149, 18377.62
1339.213, 18547.50
1340.277, 18641.22
1341.340, 18662.88
1342.404, 18396.61
1343.467, 18502.14
1344.530, 18458.67
1345.593, 18409.09
1346.655, 18566.95
1347.718, 18342.56
1348.780, 18497.13
1349.843, 18500.43
1350.905, 18572.96
1351.967, 18495.57
1353.028, 18464.50
1354.090, 18583.38
1355.152, 18619.23
1356.213, 18524.59
1357.274, 18601.53
1358.335, 18371.91
1359.396, 18411.30
1360.457, 18566.75
1361.517, 18479.65
1362.578, 18559.33
1363.638, 18575.49
1364.698, 18302.99
1365.758, 18456.00
1366.818, 18566.00
1367.878, 18499.00
1368.937, 18499.43
1369.997, 18360.00
1371.056, 18431.00
1372.115, 18323.00
1373.174, 18341.00
1374.232, 18332.00
1375.291, 18394.00
1376.350, 18395.00
1377.408, 18356.00
1378.466, 18317.99
1379.524, 18492.62
1380.582, 18591.10
1381.640, 18617.51
1382.697, 18355.99
1383.754, 18466.27
1384.812, 18427.55
1385.869, 18382.72
1386.926, 18545.32
1387.983, 18325.69
1389.039, 18485.00
1390.096, 18493.04
1391.152, 18570.32
1392.208, 18497.68
1393.264, 18471.35
1394.320, 18594.97
1395.376, 18635.57
1396.431, 18545.67
1397.487, 18627.34
1398.542, 18402.47
1399.597, 18446.60
1400.652, 18606.79
1401.707, 18524.43
1402.762, 18608.85
1403.816, 18629.74
1404.871, 18361.98
1405.925, 18596.23
1406.979, 18613.37
1408.033, 18407.60
1409.086, 18624.65
1410.140, 18449.60
1411.194, 18414.51
1412.247, 18484.75
1413.300, 18445.18
1414.353, 18578.72
1415.406, 18545.50
1416.458, 18497.38
1417.511, 18514.28
1418.563, 18346.92
1419.616, 18521.40
1420.668, 18462.38
1421.720, 18519.42
1422.772, 18602.77
1423.823, 18484.68
1424.875, 18579.85
1425.926, 18698.00
1426.977, 18528.00
1428.028, 18613.00
1429.079, 18800.00
1430.130, 18782.00
1431.180, 18880.00
1432.231, 19322.00
1433.281, 18994.00
1434.331, 18839.00
1435.381, 19262.00
1436.431, 19004.90
1437.481, 19298.00
1438.530, 18961.00
1439.580, 19028.00
1440.629, 18911.00
1441.678, 19021.00
1442.727, 19184.00
1443.776, 19062.00
1444.824, 18948.00
1445.873, 18966.00
1446.921, 18899.00
1447.969, 18925.77
1449.017, 18886.00
1450.065, 18969.00
1451.113, 18997.00
1452.160, 18937.00
1453.208, 19199.00
1454.255, 18960.00
1455.302, 19146.00
1456.349, 19065.00
1457.396, 19022.00
1458.443, 18938.00
1459.489, 18936.62
1460.535, 18961.00
1461.582, 19030.00
1462.628, 18952.00
1463.674, 19186.00
1464.719, 19025.00
1465.765, 19089.89
1466.810, 19008.00
1467.856, 19102.00
1468.901, 19088.00
1469.946, 19113.00
1470.991, 19028.00
1472.035, 19166.00
1473.080, 19000.00
1474.124, 18974.00
1475.169, 18838.00
1476.213, 18991.00
1477.257, 19133.00
1478.300, 18929.00
1479.344, 19095.00
1480.388, 19101.00
1481.431, 19099.06
1482.474, 19185.81
1483.517, 19067.00
1484.560, 19298.00
1485.603, 19054.00
1486.645, 19152.00
1487.688, 19167.00
1488.730, 18966.00
1489.772, 19257.00
1490.814, 18869.00
1491.856, 19283.00
1492.898, 19071.00
1493.939, 19057.00
1494.981, 19190.62
1496.022, 19494.00
1497.063, 19197.00
1498.104, 19143.00
1499.145, 18972.00
1500.186, 19295.00
1501.226, 19094.00
1502.266, 19219.00
1503.307, 19199.00
1504.347, 19111.00
1505.387, 19174.00
1506.426, 19112.92
1507.466, 19294.98
1508.505, 19400.87
1509.545, 19434.70
1510.584, 19180.60
1511.623, 19298.29
1512.662, 19266.99
1513.700, 19229.57
1514.739, 19399.59
1515.777, 19187.36
1516.815, 19354.08
1517.854, 19369.54
1518.892, 19454.23
1519.929, 19388.99
1520.967, 19370.06
1522.004, 19501.09
1523.042, 19549.09
1524.079, 19466.59
1525.116, 19555.67
1526.153, 19338.20
1527.190, 19389.73
1528.226, 19557.31
1529.263, 19482.36
1530.299, 19574.17
1531.335, 19602.46
1532.371, 19342.09
1533.407, 19583.73
1534.443, 19608.27
1535.478, 19409.88
1536.514, 19634.33
1537.549, 19466.67
1538.584, 19438.97
1539.619, 19516.59
1540.654, 19484.41
1541.689, 19625.34
1542.723, 19599.50
1543.757, 19558.75
1544.792, 19583.04
1545.826, 19423.07
1546.860, 19604.92
1547.893, 19553.27
1548.927, 19617.69
1549.960, 19708.42
1550.994, 19597.71
1552.027, 19700.25
1553.060, 19472.08
1554.093, 19520.63
1555.126, 19539.38
1556.158, 19735.00
1557.191, 19508.44
1558.223, 19549.29
1559.255, 19704.01
1560.287, 19699.41
1561.319, 19761.42
1562.350, 19563.00
##END=



