##NAMES=Chloritoid
##RRUFFID=R060292
##IDEAL CHEMISTRY=Fe^2+^Al_2_OSiO_4_(OH)_2_
##LOCALITY=Pech, Kunar Province, Afghanistan
##OWNER=RRUFF
##SOURCE=Herb Obodda
##DESCRIPTION=Black tabular crystal
##STATUS=The identification of this mineral has been confirmed by X-ray diffraction and chemical analysis
##URL=rruff.info/R060292
##MEASURED CHEMISTRY=(Fe^2+^_1.55_Mg_0.43_Mn_0.02_)_Σ=2_(Al_3.93_Fe^3+^_0.07_)_Σ=4_Si_2.00_O_10_(OH)_4_
##PIN_ID=M00356
##ORIENTATION=Laser parallel to b* (0 1 0). Fiducial mark perpendicular to laser is parallel to -c [0 0 -1]
89.77700, 7204.000
91.01200, 7167.000
92.24600, 7158.000
93.48000, 7176.000
94.71400, 7155.000
95.94800, 7092.000
97.18200, 7162.000
98.41600, 7147.000
99.64900, 7316.000
100.8830, 7488.000
102.1160, 7975.000
103.3490, 8411.000
104.5820, 9307.000
105.8150, 9030.725
107.0470, 10325.00
108.2800, 8739.000
109.5120, 8318.000
110.7440, 8443.000
111.9760, 8678.000
113.2080, 9008.000
114.4400, 8929.000
115.6710, 8736.000
116.9030, 8481.000
118.1340, 8110.000
119.3650, 7928.000
120.5960, 7790.000
121.8270, 7605.000
123.0580, 7360.000
124.2880, 7383.000
125.5190, 7231.000
126.7490, 7407.000
127.9790, 7410.000
129.2090, 7292.000
130.4390, 7242.000
131.6680, 7171.000
132.8980, 7253.000
134.1270, 7288.000
135.3560, 7491.000
136.5850, 7533.000
137.8140, 7467.000
139.0430, 7235.000
140.2710, 7173.000
141.5000, 7159.000
142.7280, 7184.000
143.9560, 7186.000
145.1840, 7157.000
146.4120, 7122.000
147.6390, 7259.000
148.8670, 7411.000
150.0940, 7379.000
151.3210, 7332.000
152.5490, 7191.000
153.7750, 7212.000
155.0020, 7180.000
156.2290, 7072.000
157.4550, 7126.000
158.6810, 7226.000
159.9080, 7284.000
161.1340, 7310.000
162.3590, 7490.000
163.5850, 7382.000
164.8110, 7393.000
166.0360, 7527.000
167.2610, 7551.000
168.4860, 7698.000
169.7110, 7478.000
170.9360, 7507.000
172.1610, 7503.000
173.3850, 7636.000
174.6100, 7577.000
175.8340, 7590.000
177.0580, 7602.000
178.2820, 7574.000
179.5050, 7528.000
180.7290, 7586.978
181.9520, 7628.000
183.1760, 7699.000
184.3990, 7728.000
185.6220, 7808.000
186.8450, 7862.429
188.0670, 7946.000
189.2900, 8001.000
190.5120, 8108.000
191.7340, 8210.000
192.9560, 8210.000
194.1780, 8290.000
195.4000, 8397.000
196.6220, 8537.000
197.8430, 8632.000
199.0640, 8800.000
200.2860, 8858.000
201.5070, 8695.000
202.7270, 8389.000
203.9480, 8356.000
205.1690, 8313.000
206.3890, 8374.000
207.6090, 8448.000
208.8290, 8587.000
210.0490, 8596.000
211.2690, 8623.000
212.4890, 8620.000
213.7080, 8563.000
214.9280, 8617.000
216.1470, 8661.000
217.3660, 8773.000
218.5850, 8712.000
219.8030, 8558.000
221.0220, 8693.000
222.2400, 8663.000
223.4590, 8697.000
224.6770, 8696.780
225.8950, 8717.000
227.1120, 8661.000
228.3300, 8830.000
229.5480, 8871.000
230.7650, 9060.000
231.9820, 9141.000
233.1990, 9210.000
234.4160, 9367.000
235.6330, 9584.000
236.8490, 9918.000
238.0660, 10208.00
239.2820, 10729.00
240.4980, 11091.00
241.7140, 11510.00
242.9300, 11903.00
244.1460, 12007.00
245.3610, 12326.00
246.5770, 12901.00
247.7920, 13866.00
249.0070, 14846.00
250.2220, 16136.00
251.4370, 16985.00
252.6510, 17040.00
253.8660, 16072.00
255.0800, 14662.00
256.2940, 13600.00
257.5080, 12300.00
258.7220, 10613.00
259.9360, 9671.000
261.1490, 9220.000
262.3630, 9035.000
263.5760, 8992.000
264.7890, 8818.000
266.0020, 8902.000
267.2150, 9029.000
268.4270, 9132.000
269.6400, 9549.000
270.8520, 9752.000
272.0640, 10054.00
273.2760, 10423.00
274.4880, 10626.00
275.7000, 10531.00
276.9120, 10669.00
278.1230, 10833.00
279.3340, 11169.00
280.5450, 11545.00
281.7560, 11846.00
282.9670, 12277.00
284.1780, 12372.00
285.3880, 12310.00
286.5980, 11674.00
287.8090, 11101.00
289.0190, 10545.00
290.2290, 10075.00
291.4380, 9698.000
292.6480, 9527.000
293.8570, 9292.000
295.0670, 9170.000
296.2760, 8955.000
297.4850, 8859.714
298.6930, 8887.000
299.9020, 8722.000
301.1110, 8753.000
302.3190, 8779.000
303.5270, 8808.000
304.7350, 8838.000
305.9430, 8935.000
307.1510, 9054.000
308.3580, 9028.000
309.5660, 9013.000
310.7730, 9170.000
311.9800, 9264.000
313.1870, 9286.000
314.3940, 9218.000
315.6010, 9336.000
316.8070, 9328.000
318.0130, 9530.000
319.2200, 9594.000
320.4260, 9794.000
321.6310, 10027.00
322.8370, 10074.00
324.0430, 10282.00
325.2480, 10289.00
326.4540, 10179.00
327.6590, 10480.00
328.8640, 10596.00
330.0680, 10971.00
331.2730, 11125.00
332.4780, 11592.00
333.6820, 11834.00
334.8860, 11470.00
336.0900, 11114.00
337.2940, 10483.00
338.4980, 9886.000
339.7010, 9273.000
340.9050, 8947.000
342.1080, 8770.000
343.3110, 8577.000
344.5140, 8520.000
345.7170, 8677.000
346.9200, 8550.000
348.1220, 8441.000
349.3240, 8340.000
350.5270, 8295.000
351.7290, 8079.000
352.9310, 7979.000
354.1320, 7945.000
355.3340, 7907.000
356.5350, 7923.000
357.7370, 7971.000
358.9380, 7891.000
360.1390, 7809.000
361.3400, 7818.000
362.5400, 7856.000
363.7410, 7936.000
364.9410, 7877.000
366.1410, 7917.000
367.3410, 7982.000
368.5410, 7951.000
369.7410, 7967.000
370.9400, 8010.000
372.1400, 8005.000
373.3390, 8048.000
374.5380, 8111.000
375.7370, 8041.000
376.9360, 8028.000
378.1350, 8132.000
379.3330, 8051.000
380.5310, 8065.000
381.7300, 8181.000
382.9280, 8172.000
384.1260, 8207.000
385.3230, 8295.000
386.5210, 8372.000
387.7180, 8381.000
388.9160, 8546.000
390.1130, 8561.000
391.3100, 8448.000
392.5060, 8485.000
393.7030, 8565.000
394.9000, 8555.000
396.0960, 8661.000
397.2920, 8836.000
398.4880, 8855.000
399.6840, 8839.000
400.8800, 8773.000
402.0750, 8620.000
403.2710, 8573.000
404.4660, 8551.000
405.6610, 8407.000
406.8560, 8497.000
408.0510, 8395.000
409.2450, 8221.000
410.4400, 8378.000
411.6340, 8309.000
412.8280, 8298.000
414.0220, 8399.000
415.2160, 8550.000
416.4100, 8677.000
417.6030, 8488.000
418.7970, 8570.000
419.9900, 8438.000
421.1830, 8416.000
422.3760, 8426.000
423.5690, 8407.000
424.7610, 8426.000
425.9540, 8461.000
427.1460, 8449.000
428.3380, 8528.000
429.5300, 8438.000
430.7220, 8501.000
431.9140, 8399.000
433.1050, 8500.000
434.2970, 8443.000
435.4880, 8479.000
436.6790, 8570.000
437.8700, 8413.000
439.0610, 8324.000
440.2510, 8453.000
441.4420, 8478.000
442.6320, 8350.000
443.8220, 8449.000
445.0120, 8460.000
446.2020, 8537.000
447.3910, 8516.000
448.5810, 8467.000
449.7700, 8561.000
450.9600, 8523.000
452.1490, 8600.801
453.3370, 8603.000
454.5260, 8732.000
455.7150, 8781.000
456.9030, 8806.000
458.0910, 8761.000
459.2800, 8802.000
460.4670, 8811.896
461.6550, 8869.930
462.8430, 8949.173
464.0300, 9039.000
465.2180, 9160.000
466.4050, 9279.000
467.5920, 9429.000
468.7790, 9500.000
469.9650, 9557.000
471.1520, 9842.000
472.3380, 9772.000
473.5250, 10045.00
474.7110, 10191.00
475.8970, 10401.00
477.0820, 10364.00
478.2680, 10496.00
479.4540, 10508.00
480.6390, 10627.00
481.8240, 10683.00
483.0090, 10639.00
484.1940, 10712.00
485.3780, 10809.00
486.5630, 10951.00
487.7470, 11276.00
488.9320, 11567.00
490.1160, 11705.00
491.3000, 11894.32
492.4830, 12001.36
493.6670, 12151.00
494.8500, 12256.00
496.0340, 12469.00
497.2170, 12849.00
498.4000, 13055.00
499.5820, 13245.00
500.7650, 13363.00
501.9480, 12993.00
503.1300, 12638.00
504.3120, 12248.00
505.4940, 11881.00
506.6760, 11905.00
507.8580, 11670.00
509.0390, 11736.00
510.2210, 11636.00
511.4020, 11709.00
512.5830, 11878.00
513.7640, 11973.00
514.9450, 12192.00
516.1250, 12487.00
517.3060, 12760.00
518.4860, 13382.84
519.6660, 14129.00
520.8460, 14825.00
522.0260, 15454.00
523.2060, 16340.00
524.3850, 17042.00
525.5650, 18205.00
526.7440, 19264.00
527.9230, 20719.00
529.1020, 22010.00
530.2810, 23280.00
531.4590, 23477.00
532.6380, 23152.00
533.8160, 21926.00
534.9940, 20568.00
536.1720, 19597.00
537.3500, 18868.00
538.5270, 18861.00
539.7050, 19093.00
540.8820, 20609.00
542.0590, 22829.00
543.2360, 25767.00
544.4130, 28802.00
545.5900, 31802.00
546.7660, 33747.00
547.9430, 36010.00
549.1190, 39547.00
550.2950, 45369.00
551.4710, 52648.00
552.6470, 60539.00
553.8220, 64103.00
554.9980, 62016.00
556.1730, 54423.00
557.3480, 43776.00
558.5230, 33815.00
559.6980, 26153.00
560.8730, 21299.00
562.0470, 17927.00
563.2220, 15734.00
564.3960, 14438.00
565.5700, 13453.00
566.7440, 12825.00
567.9170, 12337.00
569.0910, 11992.00
570.2640, 11618.00
571.4380, 11284.00
572.6110, 11181.00
573.7840, 11055.00
574.9570, 10971.00
576.1290, 11054.00
577.3020, 11289.00
578.4740, 11371.00
579.6460, 11782.00
580.8180, 12615.00
581.9900, 13802.00
583.1620, 15771.00
584.3330, 18930.00
585.5040, 23401.00
586.6760, 28330.00
587.8470, 30237.00
589.0180, 29390.00
590.1880, 29267.00
591.3590, 31215.00
592.5290, 36398.00
593.7000, 43792.00
594.8700, 51712.00
596.0400, 54639.00
597.2090, 50421.00
598.3790, 41174.00
599.5490, 31074.00
600.7180, 23178.00
601.8870, 18498.00
603.0560, 15725.00
604.2250, 13900.00
605.3940, 13002.00
606.5620, 12253.00
607.7300, 11811.00
608.8990, 11510.00
610.0670, 11186.00
611.2350, 10873.00
612.4020, 10790.00
613.5700, 10387.00
614.7370, 10353.00
615.9050, 10138.00
617.0720, 10119.00
618.2390, 9974.000
619.4060, 9784.000
620.5720, 9796.000
621.7390, 9698.000
622.9050, 9733.000
624.0710, 9646.000
625.2370, 9523.000
626.4030, 9732.000
627.5690, 9551.000
628.7340, 9526.000
629.9000, 9487.000
631.0650, 9563.000
632.2300, 9452.000
633.3950, 9463.000
634.5600, 9433.152
635.7240, 9432.000
636.8890, 9356.000
638.0530, 9359.000
639.2170, 9316.000
640.3810, 9300.000
641.5450, 9270.000
642.7080, 9228.746
643.8720, 9215.376
645.0350, 9180.000
646.1980, 9184.000
647.3610, 9233.000
648.5240, 9242.000
649.6870, 9176.000
650.8490, 9240.000
652.0120, 9225.000
653.1740, 9230.000
654.3360, 9243.960
655.4980, 9238.000
656.6600, 9265.000
657.8210, 9333.000
658.9830, 9400.000
660.1440, 9372.000
661.3050, 9341.000
662.4660, 9474.000
663.6270, 9514.000
664.7870, 9361.000
665.9480, 9490.000
667.1080, 9358.000
668.2680, 9480.000
669.4280, 9692.000
670.5880, 9566.000
671.7480, 9632.000
672.9070, 9507.000
674.0670, 9586.000
675.2260, 9489.000
676.3850, 9298.000
677.5440, 9365.000
678.7030, 9338.000
679.8610, 9411.000
681.0200, 9351.000
682.1780, 9348.000
683.3360, 9308.000
684.4940, 9403.000
685.6520, 9252.000
686.8090, 9370.000
687.9670, 9435.000
689.1240, 9348.000
690.2810, 9429.000
691.4380, 9298.000
692.5950, 9393.000
693.7520, 9323.000
694.9080, 9446.000
696.0650, 9444.000
697.2210, 9553.000
698.3770, 9477.000
699.5330, 9510.000
700.6880, 9521.000
701.8440, 9630.000
702.9990, 9735.000
704.1550, 9569.000
705.3100, 9732.000
706.4650, 9681.000
707.6190, 9878.000
708.7740, 9993.000
709.9290, 9837.000
711.0830, 10048.00
712.2370, 10197.00
713.3910, 10260.00
714.5450, 10453.00
715.6980, 10695.00
716.8520, 10823.00
718.0050, 11185.00
719.1580, 11174.00
720.3110, 11574.00
721.4640, 11915.00
722.6170, 12084.00
723.7700, 12352.00
724.9220, 12822.00
726.0740, 13152.00
727.2260, 13631.00
728.3780, 13727.00
729.5300, 14257.00
730.6810, 14220.00
731.8330, 14208.00
732.9840, 14587.00
734.1350, 14797.00
735.2860, 14661.00
736.4370, 14613.00
737.5880, 14413.00
738.7380, 14289.00
739.8880, 13863.00
741.0390, 13774.00
742.1890, 13386.00
743.3380, 13056.00
744.4880, 12760.00
745.6380, 12429.40
746.7870, 12131.86
747.9360, 11854.00
749.0850, 11536.00
750.2340, 11294.00
751.3830, 11006.36
752.5310, 10768.00
753.6800, 10572.00
754.8280, 10475.00
755.9760, 10372.00
757.1240, 10369.00
758.2720, 10186.00
759.4190, 10225.00
760.5670, 10064.00
761.7140, 10133.00
762.8610, 10101.00
764.0080, 9909.000
765.1550, 9952.000
766.3020, 9819.000
767.4480, 9819.000
768.5950, 9791.000
769.7410, 9737.958
770.8870, 9743.760
772.0330, 9734.000
773.1780, 9697.000
774.3240, 9796.000
775.4690, 9718.000
776.6140, 9772.000
777.7590, 9789.000
778.9040, 9700.000
780.0490, 9798.000
781.1940, 9741.000
782.3380, 9740.000
783.4820, 9759.000
784.6260, 9724.000
785.7700, 9774.000
786.9140, 9773.074
788.0580, 9797.000
789.2010, 9803.000
790.3450, 9821.000
791.4880, 9828.000
792.6310, 9812.470
793.7730, 9829.404
794.9160, 9784.000
796.0590, 9838.000
797.2010, 9854.000
798.3430, 9851.000
799.4850, 9818.000
800.6270, 9892.000
801.7690, 9881.000
802.9100, 9965.000
804.0520, 10048.00
805.1930, 10004.00
806.3340, 9990.000
807.4750, 9968.000
808.6160, 10007.00
809.7560, 9999.000
810.8970, 10086.00
812.0370, 10124.00
813.1770, 10073.00
814.3170, 10062.00
815.4570, 10149.00
816.5960, 10129.00
817.7360, 10209.00
818.8750, 10272.00
820.0140, 10335.00
821.1530, 10356.00
822.2920, 10376.00
823.4310, 10512.00
824.5690, 10478.00
825.7070, 10568.00
826.8460, 10706.00
827.9840, 10737.00
829.1220, 10944.00
830.2590, 11001.00
831.3970, 10995.00
832.5340, 11121.00
833.6710, 11203.51
834.8080, 11339.00
835.9450, 11446.00
837.0820, 11664.00
838.2190, 11792.00
839.3550, 12023.00
840.4910, 12201.00
841.6270, 12261.00
842.7630, 12364.00
843.8990, 12423.00
845.0350, 12592.78
846.1700, 12790.00
847.3060, 12974.00
848.4410, 13281.00
849.5760, 13544.00
850.7100, 13765.00
851.8450, 14145.00
852.9800, 14340.95
854.1140, 14628.87
855.2480, 14878.00
856.3820, 15224.00
857.5160, 15634.00
858.6500, 16100.00
859.7830, 16491.00
860.9170, 16910.00
862.0500, 17503.00
863.1830, 18030.00
864.3160, 19031.00
865.4480, 19718.00
866.5810, 20746.00
867.7130, 21873.00
868.8460, 23194.00
869.9780, 24689.00
871.1100, 26098.00
872.2410, 27786.00
873.3730, 29597.00
874.5050, 31053.00
875.6360, 32883.00
876.7670, 34211.00
877.8980, 35389.00
879.0290, 35904.00
880.1590, 35822.00
881.2900, 35351.00
882.4200, 33938.00
883.5500, 31913.00
884.6800, 29809.00
885.8100, 27390.00
886.9400, 25198.00
888.0690, 23201.00
889.1990, 21411.00
890.3280, 19896.39
891.4570, 18548.00
892.5860, 17429.00
893.7140, 16432.00
894.8430, 15560.00
895.9710, 15038.00
897.1000, 14542.00
898.2280, 14016.00
899.3560, 13788.00
900.4830, 13349.00
901.6110, 13215.00
902.7380, 12926.00
903.8660, 12837.00
904.9930, 12641.00
906.1200, 12518.00
907.2460, 12364.00
908.3730, 12342.00
909.5000, 12179.00
910.6260, 12073.00
911.7520, 11834.00
912.8780, 11762.00
914.0040, 11724.00
915.1290, 11645.00
916.2550, 11620.00
917.3800, 11512.00
918.5050, 11422.00
919.6300, 11465.00
920.7550, 11200.00
921.8800, 11205.00
923.0040, 11282.00
924.1290, 11142.00
925.2530, 11281.00
926.3770, 11164.00
927.5010, 11036.00
928.6250, 10989.00
929.7480, 10938.02
930.8720, 10967.00
931.9950, 10953.00
933.1180, 10909.00
934.2410, 11010.00
935.3640, 10871.00
936.4860, 10966.00
937.6090, 11039.00
938.7310, 10969.62
939.8530, 11068.00
940.9750, 10907.00
942.0970, 10986.00
943.2180, 10916.00
944.3400, 10990.00
945.4610, 10896.00
946.5820, 11055.00
947.7030, 10970.00
948.8240, 10949.00
949.9450, 11155.00
951.0650, 11279.00
952.1860, 11072.00
953.3060, 11084.00
954.4260, 11220.00
955.5460, 11206.00
956.6650, 11300.00
957.7850, 11372.00
958.9040, 11407.31
960.0230, 11458.73
961.1420, 11503.00
962.2610, 11511.00
963.3800, 11521.00
964.4990, 11538.00
965.6170, 11640.00
966.7350, 11533.00
967.8530, 11652.00
968.9710, 11674.00
970.0890, 11512.00
971.2070, 11574.00
972.3240, 11741.00
973.4410, 11624.00
974.5580, 11555.00
975.6750, 11563.00
976.7920, 11456.00
977.9090, 11361.00
979.0250, 11359.96
980.1410, 11427.00
981.2580, 11351.00
982.3740, 11419.00
983.4890, 11495.00
984.6050, 11402.00
985.7200, 11383.00
986.8360, 11384.00
987.9510, 11524.00
989.0660, 11397.00
990.1810, 11536.00
991.2950, 11504.00
992.4100, 11358.00
993.5240, 11477.00
994.6390, 11394.00
995.7530, 11549.00
996.8660, 11352.00
997.9800, 11377.00
999.0940, 11516.00
1000.207, 11292.00
1001.320, 11400.00
1002.433, 11474.00
1003.546, 11390.00
1004.659, 11361.00
1005.772, 11443.00
1006.884, 11276.00
1007.996, 11535.00
1009.108, 11318.00
1010.220, 11362.00
1011.332, 11385.00
1012.444, 11413.00
1013.555, 11296.00
1014.666, 11403.00
1015.777, 11345.00
1016.888, 11278.00
1017.999, 11452.00
1019.110, 11316.00
1020.220, 11395.00
1021.331, 11435.00
1022.441, 11386.00
1023.551, 11350.00
1024.661, 11428.00
1025.770, 11343.00
1026.880, 11402.00
1027.989, 11552.00
1029.098, 11576.00
1030.207, 11516.36
1031.316, 11480.00
1032.425, 11367.00
1033.533, 11415.00
1034.642, 11472.00
1035.750, 11422.00
1036.858, 11517.00
1037.966, 11536.00
1039.073, 11575.00
1040.181, 11504.00
1041.288, 11485.00
1042.396, 11633.00
1043.503, 11586.00
1044.610, 11631.00
1045.716, 11528.00
1046.823, 11608.00
1047.929, 11552.00
1049.036, 11572.82
1050.142, 11597.07
1051.248, 11631.00
1052.353, 11609.00
1053.459, 11656.00
1054.564, 11615.00
1055.670, 11511.00
1056.775, 11690.00
1057.880, 11769.00
1058.985, 11617.00
1060.089, 11642.00
1061.194, 11752.00
1062.298, 11766.00
1063.402, 11854.00
1064.506, 11866.00
1065.610, 11815.00
1066.713, 11871.28
1067.817, 11863.08
1068.920, 11927.00
1070.023, 11864.00
1071.126, 11948.00
1072.229, 11888.00
1073.332, 12078.00
1074.435, 11917.00
1075.537, 11970.00
1076.639, 12076.00
1077.741, 12027.00
1078.843, 12070.00
1079.945, 12135.00
1081.046, 12321.00
1082.148, 12433.00
1083.249, 12468.00
1084.350, 12497.00
1085.451, 12709.00
1086.551, 12623.00
1087.652, 12838.00
1088.752, 12964.00
1089.853, 13020.00
1090.953, 13053.00
1092.053, 13029.00
1093.152, 12796.00
1094.252, 12752.00
1095.351, 12545.00
1096.451, 12498.00
1097.550, 12355.00
1098.649, 12123.00
1099.748, 12198.00
1100.846, 12016.00
1101.945, 11821.00
1103.043, 11959.00
1104.141, 11703.00
1105.239, 11608.00
1106.337, 11729.00
1107.434, 11541.60
1108.532, 11689.00
1109.629, 11468.00
1110.726, 11354.00
1111.823, 11436.00
1112.920, 11348.00
1114.017, 11309.00
1115.113, 11519.00
1116.210, 11330.00
1117.306, 11377.00
1118.402, 11406.00
1119.498, 11280.00
1120.593, 11251.00
1121.689, 11341.00
1122.784, 11434.00
1123.879, 11220.00
1124.974, 11328.00
1126.069, 11312.00
1127.164, 11100.00
1128.259, 11189.00
1129.353, 11296.00
1130.447, 11188.00
1131.541, 11102.00
1132.635, 11080.00
1133.729, 11052.00
1134.822, 11179.00
1135.916, 11140.00
1137.009, 11179.00
1138.102, 11237.00
1139.195, 11025.00
1140.288, 11119.00
1141.380, 11138.00
1142.473, 11255.00
1143.565, 11178.00
1144.657, 11157.00
1145.749, 10993.00
1146.841, 11051.00
1147.932, 11073.00
1149.024, 10971.00
1150.115, 10931.00
1151.206, 11024.00
1152.297, 11002.00
1153.388, 11061.00
1154.479, 11020.00
1155.569, 11053.00
1156.659, 10967.00
1157.750, 11036.00
1158.839, 11030.00
1159.929, 11045.00
1161.019, 10981.00
1162.108, 11066.00
1163.198, 11024.00
1164.287, 10941.00
1165.376, 11078.00
1166.465, 10984.00
1167.553, 10949.00
1168.642, 10991.00
1169.730, 10938.00
1170.818, 10864.00
1171.906, 10919.58
1172.994, 10898.22
1174.082, 10939.00
1175.170, 10977.00
1176.257, 10901.00
1177.344, 10988.00
1178.431, 10933.00
1179.518, 10797.00
1180.605, 10832.00
1181.691, 10904.00
1182.778, 10806.00
1183.864, 10947.00
1184.950, 10936.00
1186.036, 10926.00
1187.122, 10904.00
1188.207, 10895.00
1189.292, 10800.00
1190.378, 10721.00
1191.463, 10739.33
1192.548, 10702.00
1193.632, 10732.00
1194.717, 10788.00
1195.801, 10730.00
1196.886, 10718.00
1197.970, 10813.00
1199.054, 10741.00
1200.137, 10827.00
1201.221, 10734.00
1202.305, 10697.00
1203.388, 10682.00
1204.471, 10683.00
1205.554, 10725.00
1206.637, 10733.00
1207.719, 10779.00
1208.802, 10808.09
1209.884, 10769.00
1210.966, 10860.00
1212.048, 10854.00
1213.130, 10840.00
1214.212, 10735.00
1215.293, 10870.00
1216.374, 10817.00
1217.456, 10802.00
1218.536, 10831.00
1219.617, 10661.00
1220.698, 10702.00
1221.778, 10673.00
1222.859, 10662.00
1223.939, 10659.00
1225.019, 10644.00
1226.099, 10698.00
1227.178, 10751.00
1228.258, 10649.00
1229.337, 10797.00
1230.417, 10792.00
1231.496, 10571.00
1232.574, 10627.00
1233.653, 10570.00
1234.732, 10679.00
1235.810, 10661.00
1236.888, 10717.00
1237.966, 10637.00
1239.044, 10801.00
1240.122, 10755.00
1241.199, 10650.00
1242.277, 10646.00
1243.354, 10805.00
1244.431, 10562.00
1245.508, 10755.00
1246.585, 10660.00
1247.661, 10729.00
1248.738, 10787.00
1249.814, 10769.00
1250.890, 10638.00
1251.966, 10770.00
1253.042, 10650.00
1254.117, 10641.00
1255.193, 10802.00
1256.268, 10649.00
1257.343, 10685.00
1258.418, 10673.00
1259.493, 10582.00
1260.567, 10775.00
1261.642, 10736.40
1262.716, 10737.71
1263.790, 10755.00
1264.864, 10734.00
1265.938, 10577.00
1267.011, 10615.00
1268.085, 10583.00
1269.158, 10511.00
1270.231, 10733.00
1271.304, 10688.00
1272.377, 10657.00
1273.450, 10640.00
1274.522, 10650.00
1275.594, 10714.00
1276.666, 10621.00
1277.738, 10628.00
1278.810, 10578.00
1279.882, 10725.00
1280.953, 10562.00
1282.025, 10578.00
1283.096, 10730.00
1284.167, 10538.00
1285.238, 10618.00
1286.308, 10654.00
1287.379, 10640.00
1288.449, 10578.00
1289.519, 10713.00
1290.589, 10593.00
1291.659, 10613.00
1292.729, 10668.00
1293.798, 10590.00
1294.868, 10548.00
1295.937, 10639.00
1297.006, 10533.00
1298.075, 10427.00
1299.143, 10530.00
1300.212, 10628.00
1301.280, 10592.00
1302.348, 10635.00
1303.416, 10576.00
1304.484, 10540.00
1305.552, 10535.00
1306.620, 10592.00
1307.687, 10536.00
1308.754, 10634.00
1309.821, 10598.00
1310.888, 10660.00
1311.955, 10652.00
1313.021, 10632.00
1314.088, 10596.00
1315.154, 10621.00
1316.220, 10541.00
1317.286, 10659.00
1318.352, 10517.00
1319.417, 10713.00
1320.483, 10556.00
1321.548, 10544.00
1322.613, 10428.00
1323.678, 10658.00
1324.743, 10643.00
1325.807, 10634.00
1326.872, 10647.00
1327.936, 10612.00
1329.000, 10606.00
1330.064, 10647.00
1331.128, 10576.00
1332.191, 10506.00
1333.255, 10631.00
1334.318, 10524.00
1335.381, 10520.00
1336.444, 10597.00
1337.507, 10726.00
1338.569, 10585.00
1339.632, 10647.00
1340.694, 10496.00
1341.756, 10541.00
1342.818, 10626.00
1343.880, 10664.00
1344.941, 10537.00
1346.003, 10575.00
1347.064, 10605.00
1348.125, 10516.00
1349.186, 10695.00
1350.247, 10630.00
1351.308, 10601.00
1352.368, 10591.00
1353.428, 10567.00
1354.489, 10541.00
1355.549, 10553.00
1356.608, 10619.00
1357.668, 10590.00
1358.727, 10687.00
1359.787, 10569.00
1360.846, 10563.00
1361.905, 10561.00
1362.964, 10652.00
1364.022, 10590.00
1365.081, 10630.00
1366.139, 10469.00
1367.197, 10654.00
1368.255, 10654.00
1369.313, 10420.00
1370.371, 10658.00
1371.428, 10578.00
1372.486, 10523.00
1373.543, 10613.00
1374.600, 10557.00
1375.657, 10529.00
1376.713, 10557.68
1377.770, 10502.00
1378.826, 10565.00
1379.882, 10511.00
1380.938, 10521.00
1381.994, 10612.00
1383.050, 10477.00
1384.106, 10583.00
1385.161, 10541.00
1386.216, 10581.00
1387.271, 10538.00
1388.326, 10455.00
1389.381, 10547.00
1390.435, 10535.00
1391.490, 10630.00
1392.544, 10546.00
1393.598, 10623.00
1394.652, 10454.00
1395.705, 10587.00
1396.759, 10649.00
1397.812, 10523.00
1398.866, 10616.00
1399.919, 10671.00
1400.972, 10533.00
1402.024, 10488.00
1403.077, 10434.00
1404.129, 10555.00
1405.181, 10509.00
1406.233, 10620.00
1407.285, 10532.00
1408.337, 10516.00
1409.389, 10547.00
1410.440, 10558.00
1411.491, 10637.00
1412.542, 10483.00
1413.593, 10637.00
1414.644, 10474.00
1415.695, 10693.00
1416.745, 10587.00
1417.795, 10617.00
1418.845, 10664.00
1419.895, 10583.00
1420.945, 10612.28
1421.995, 10481.00
1423.044, 10597.00
1424.093, 10518.00
1425.142, 10535.00
1426.191, 10501.00
1427.240, 10535.00
1428.289, 10591.00
1429.337, 10584.00
1430.385, 10570.00
1431.433, 10627.00
1432.481, 10521.00
1433.529, 10477.00
1434.577, 10613.00
1435.624, 10565.00
1436.672, 10512.00
1437.719, 10684.00
1438.766, 10630.00
1439.812, 10624.00
1440.859, 10602.00
1441.905, 10564.00
1442.952, 10504.00
1443.998, 10539.00
1445.044, 10592.00
1446.090, 10486.00
1447.135, 10434.00
1448.181, 10649.00
1449.226, 10635.00
1450.271, 10561.00
1451.316, 10545.00
1452.361, 10555.00
1453.405, 10740.00
1454.450, 10533.00
1455.494, 10620.00
1456.538, 10529.00
1457.582, 10497.00
1458.626, 10603.00
1459.670, 10567.00
1460.713, 10673.00
1461.757, 10627.00
1462.800, 10645.00
1463.843, 10693.95
1464.886, 10653.93
1465.928, 10735.00
1466.971, 10628.00
1468.013, 10579.00
1469.055, 10570.00
1470.097, 10673.00
1471.139, 10538.00
1472.181, 10650.00
1473.222, 10557.00
1474.263, 10626.00
1475.305, 10644.00
1476.346, 10467.00
1477.386, 10622.00
1478.427, 10519.00
1479.468, 10540.00
1480.508, 10606.00
1481.548, 10765.00
1482.588, 10624.00
1483.628, 10704.00
1484.668, 10653.00
1485.707, 10673.00
1486.747, 10612.00
1487.786, 10484.00
1488.825, 10634.00
1489.864, 10469.00
1490.902, 10642.00
1491.941, 10544.00
1492.979, 10522.00
1494.017, 10582.00
1495.055, 10566.00
1496.093, 10747.00
1497.131, 10608.00
1498.168, 10671.00
1499.206, 10655.00
1500.243, 10822.00
1501.280, 10654.00
1502.317, 10707.00
1503.354, 10572.00
1504.390, 10657.00
1505.426, 10705.00
1506.463, 10558.00
1507.499, 10602.00
1508.535, 10608.00
1509.570, 10601.00
1510.606, 10512.00
1511.641, 10656.00
1512.676, 10597.00
1513.711, 10681.00
1514.746, 10692.00
1515.781, 10561.00
1516.816, 10594.00
1517.850, 10621.00
1518.884, 10604.00
1519.918, 10637.00
1520.952, 10639.96
1521.986, 10615.78
1523.019, 10667.00
1524.053, 10564.00
1525.086, 10586.00
1526.119, 10564.00
1527.152, 10555.00
1528.185, 10628.00
1529.217, 10679.00
1530.250, 10620.00
1531.282, 10506.00
1532.314, 10678.00
1533.346, 10599.98
1534.377, 10674.51
1535.409, 10596.00
1536.440, 10760.00
1537.472, 10702.00
1538.503, 10639.00
1539.534, 10566.00
1540.564, 10641.00
1541.595, 10626.00
1542.625, 10706.00
1543.656, 10650.00
1544.686, 10649.00
1545.716, 10502.00
1546.745, 10614.00
1547.775, 10862.00
1548.804, 10949.00
1549.834, 10874.00
1550.863, 10834.00
1551.892, 11119.00
1552.920, 10956.00
1553.949, 10770.00
1554.977, 10603.00
1556.006, 10798.00
1557.034, 10456.00
1558.062, 10651.00
1559.089, 10491.00
1560.117, 10631.00
1561.144, 10689.00
1562.172, 10749.00
1563.199, 10640.00
1564.226, 10655.00
1565.252, 10606.00
1566.279, 10550.00
1567.305, 10578.00
1568.332, 10599.00
1569.358, 10653.00
1570.384, 10749.00
##END=



