##NAMES=Chloritoid
##RRUFFID=R050334
##IDEAL CHEMISTRY=Fe^2+^Al_2_OSiO_4_(OH)_2_
##LOCALITY=Selçuk, Mugla Province, Turkey
##OWNER=RRUFF
##SOURCE=George Rossman
##DESCRIPTION=Dark greenish-black foliated cleavage fragments
##STATUS=The identification of this mineral is confirmed by single-crystal X-ray diffraction and chemical analysis.
##URL=rruff.info/R050334
##MEASURED CHEMISTRY=(Fe^2+^_1.84_Mg_0.12_Mn_0.04_)_Σ=2_(Al_3.95_Fe^3+^_0.05_)_Σ=4_Si_2.00_O_10_(OH)_4_ ; H not measured but estimated by difference and stoichiometry
##PIN_ID=M01491
##ORIENTATION=Laser parallel to (1 0 1). Fiducial mark perpendicular to laser is parallel to b [0 1 0]
158.5580, 8409.000
159.7870, 8374.000
161.0170, 8586.000
162.2460, 8675.000
163.4750, 8651.000
164.7030, 8707.297
165.9320, 8773.000
167.1600, 8685.000
168.3890, 8792.000
169.6170, 8876.000
170.8450, 9058.000
172.0730, 8878.000
173.3000, 9125.000
174.5280, 8993.805
175.7550, 8964.255
176.9820, 8785.000
178.2090, 8864.000
179.4350, 8702.000
180.6620, 8695.000
181.8880, 8720.385
183.1150, 8705.894
184.3410, 8808.000
185.5670, 8828.000
186.7920, 8947.000
188.0180, 9069.000
189.2430, 9067.356
190.4690, 9206.000
191.6940, 9107.000
192.9180, 9254.000
194.1430, 9296.000
195.3680, 9350.000
196.5920, 9291.000
197.8160, 9331.000
199.0400, 9626.000
200.2640, 9623.965
201.4880, 9766.000
202.7110, 9737.000
203.9350, 9455.000
205.1580, 9205.651
206.3810, 9148.000
207.6040, 8893.000
208.8270, 8879.000
210.0490, 8852.000
211.2710, 9019.000
212.4940, 8939.000
213.7160, 9155.000
214.9370, 8973.000
216.1590, 8951.000
217.3810, 8988.000
218.6020, 8964.000
219.8230, 9010.000
221.0440, 8945.000
222.2650, 9057.000
223.4860, 8996.000
224.7060, 8957.000
225.9260, 9036.000
227.1470, 8857.000
228.3670, 8908.000
229.5860, 8719.001
230.8060, 8786.430
232.0260, 8826.658
233.2450, 8841.145
234.4640, 8752.802
235.6830, 8797.240
236.9020, 8788.467
238.1200, 8777.507
239.3390, 8840.635
240.5570, 8767.244
241.7750, 8829.192
242.9930, 8847.000
244.2110, 8931.000
245.4290, 8915.000
246.6460, 9091.000
247.8630, 9263.000
249.0810, 9396.000
250.2980, 9412.000
251.5140, 9671.000
252.7310, 9925.000
253.9470, 9929.000
255.1640, 9840.000
256.3800, 9669.072
257.5960, 9677.017
258.8120, 9657.762
260.0270, 9612.812
261.2430, 9464.990
262.4580, 9449.994
263.6730, 9381.784
264.8880, 9311.394
266.1030, 9296.000
267.3170, 9306.000
268.5320, 9166.000
269.7460, 9170.000
270.9600, 9173.000
272.1740, 9291.000
273.3880, 9299.000
274.6010, 9374.000
275.8150, 9452.659
277.0280, 9555.000
278.2410, 9618.000
279.4540, 9784.000
280.6670, 9904.000
281.8790, 9974.000
283.0920, 10119.00
284.3040, 9937.000
285.5160, 10061.00
286.7280, 9863.000
287.9400, 9751.000
289.1510, 9521.000
290.3630, 9507.000
291.5740, 9566.000
292.7850, 9587.000
293.9960, 9568.000
295.2070, 9590.000
296.4170, 9475.000
297.6280, 9519.000
298.8380, 9553.000
300.0480, 9685.000
301.2580, 9684.000
302.4680, 9882.000
303.6770, 9860.000
304.8870, 9769.000
306.0960, 9907.000
307.3050, 9744.000
308.5140, 9547.000
309.7230, 9543.000
310.9310, 9391.000
312.1400, 9478.000
313.3480, 9352.470
314.5560, 9289.000
315.7640, 9250.000
316.9720, 9154.000
318.1790, 9238.000
319.3870, 9162.000
320.5940, 9230.000
321.8010, 9273.000
323.0080, 9293.000
324.2150, 9323.000
325.4210, 9457.000
326.6280, 9562.000
327.8340, 9517.000
329.0400, 9697.000
330.2460, 9703.000
331.4510, 10008.00
332.6570, 10210.00
333.8620, 10411.00
335.0680, 10386.00
336.2730, 10429.00
337.4780, 10536.00
338.6820, 10350.38
339.8870, 10321.00
341.0910, 10085.00
342.2950, 9900.000
343.5000, 9918.000
344.7030, 10105.00
345.9070, 10215.00
347.1110, 10398.00
348.3140, 10550.00
349.5170, 10363.00
350.7200, 10220.00
351.9230, 9939.000
353.1260, 9973.898
354.3290, 9854.000
355.5310, 9989.632
356.7330, 9779.000
357.9350, 9711.000
359.1370, 9637.000
360.3390, 9684.000
361.5400, 9691.000
362.7420, 9873.000
363.9430, 9873.000
365.1440, 9962.000
366.3450, 9990.041
367.5460, 9987.729
368.7460, 9971.000
369.9470, 10044.00
371.1470, 9983.000
372.3470, 9982.067
373.5470, 9883.000
374.7460, 9914.000
375.9460, 9937.000
377.1450, 9890.000
378.3450, 10009.00
379.5440, 10028.00
380.7430, 9993.000
381.9410, 10013.00
383.1400, 10045.43
384.3380, 10116.85
385.5370, 10158.00
386.7350, 10287.00
387.9320, 10406.00
389.1300, 10425.00
390.3280, 10501.00
391.5250, 10512.00
392.7220, 10539.00
393.9190, 10694.00
395.1160, 10972.00
396.3130, 11060.00
397.5100, 11310.00
398.7060, 11403.00
399.9020, 11341.00
401.0980, 11456.00
402.2940, 11435.00
403.4900, 11335.00
404.6860, 11131.00
405.8810, 11093.00
407.0760, 11055.00
408.2710, 11064.00
409.4660, 11017.00
410.6610, 11108.00
411.8550, 11121.00
413.0500, 11092.00
414.2440, 11165.00
415.4380, 11116.00
416.6320, 11007.00
417.8260, 11001.00
419.0190, 11012.00
420.2130, 10888.00
421.4060, 10960.00
422.5990, 10882.00
423.7920, 10903.00
424.9850, 10980.00
426.1770, 11134.00
427.3700, 11124.00
428.5620, 10980.00
429.7540, 11095.00
430.9460, 11062.00
432.1380, 11024.00
433.3290, 10995.00
434.5210, 10985.18
435.7120, 10968.47
436.9030, 10976.00
438.0940, 10955.00
439.2850, 10949.00
440.4750, 10935.00
441.6660, 11002.00
442.8560, 10837.00
444.0460, 10945.00
445.2360, 10938.00
446.4260, 10682.00
447.6160, 10921.00
448.8050, 11018.00
449.9940, 10928.00
451.1830, 11019.00
452.3720, 10968.00
453.5610, 11208.00
454.7500, 11098.00
455.9380, 11317.00
457.1260, 11258.17
458.3150, 11116.00
459.5020, 11236.00
460.6900, 11155.00
461.8780, 11296.00
463.0650, 11395.00
464.2530, 11391.79
465.4400, 11474.43
466.6270, 11483.00
467.8130, 11491.00
469.0000, 11571.00
470.1870, 11496.00
471.3730, 11654.00
472.5590, 11830.00
473.7450, 11617.00
474.9310, 11613.00
476.1160, 11705.00
477.3020, 11609.00
478.4870, 11818.00
479.6720, 11752.00
480.8570, 11793.00
482.0420, 11745.00
483.2270, 11932.00
484.4110, 11979.00
485.5960, 12003.00
486.7800, 12058.00
487.9640, 12020.00
489.1480, 12151.00
490.3310, 12392.00
491.5150, 12400.00
492.6980, 12620.00
493.8810, 12739.00
495.0640, 13069.00
496.2470, 13465.00
497.4300, 13702.00
498.6120, 14004.00
499.7950, 14106.00
500.9770, 14202.00
502.1590, 14155.00
503.3410, 14043.00
504.5220, 13949.00
505.7040, 13810.00
506.8850, 13749.00
508.0660, 13602.00
509.2470, 13553.00
510.4280, 13469.00
511.6090, 13270.00
512.7890, 13139.00
513.9700, 13082.00
515.1500, 12847.00
516.3300, 12795.00
517.5100, 12850.00
518.6900, 12897.00
519.8690, 12704.00
521.0490, 12832.00
522.2280, 12898.00
523.4070, 12909.00
524.5860, 13053.00
525.7640, 13230.00
526.9430, 13502.00
528.1210, 13885.00
529.3000, 14112.00
530.4780, 14383.00
531.6560, 14540.00
532.8330, 14274.00
534.0110, 14189.00
535.1880, 13649.00
536.3650, 13487.00
537.5430, 13110.00
538.7190, 12849.00
539.8960, 12501.00
541.0730, 12496.00
542.2490, 12460.00
543.4250, 12330.00
544.6020, 12411.00
545.7780, 12424.00
546.9530, 12475.00
548.1290, 12655.75
549.3040, 12838.00
550.4800, 13103.00
551.6550, 13413.00
552.8300, 13776.00
554.0040, 14178.00
555.1790, 13956.00
556.3540, 13807.00
557.5280, 13360.00
558.7020, 12812.00
559.8760, 12366.00
561.0500, 12175.00
562.2230, 12029.00
563.3970, 11979.00
564.5700, 12035.00
565.7430, 11832.00
566.9160, 11848.00
568.0890, 11692.00
569.2620, 11834.00
570.4340, 11688.00
571.6070, 11781.00
572.7790, 11877.00
573.9510, 11857.00
575.1230, 11975.00
576.2940, 11843.00
577.4660, 12239.00
578.6370, 12190.00
579.8080, 12404.00
580.9790, 12757.00
582.1500, 12991.00
583.3210, 13560.00
584.4910, 14284.00
585.6620, 15399.00
586.8320, 16816.00
588.0020, 18837.00
589.1720, 20834.00
590.3410, 23037.00
591.5110, 27058.00
592.6800, 32855.00
593.8500, 41669.00
595.0190, 50706.00
596.1880, 56317.00
597.3560, 54459.00
598.5250, 46318.00
599.6930, 35755.00
600.8620, 27173.00
602.0300, 21959.00
603.1970, 18543.00
604.3650, 16712.00
605.5330, 15782.00
606.7000, 14868.00
607.8680, 14359.00
609.0350, 13967.00
610.2020, 13625.00
611.3680, 13316.69
612.5350, 13193.00
613.7010, 12871.00
614.8680, 12826.00
616.0340, 12694.00
617.2000, 12646.00
618.3660, 12385.00
619.5310, 12357.00
620.6970, 12285.00
621.8620, 12260.00
623.0270, 12231.00
624.1920, 12251.00
625.3570, 12191.00
626.5220, 12199.00
627.6860, 12099.00
628.8500, 12167.00
630.0140, 11921.00
631.1780, 12044.00
632.3420, 11928.00
633.5060, 11876.00
634.6700, 11895.00
635.8330, 11953.00
636.9960, 11982.00
638.1590, 12087.00
639.3220, 11869.00
640.4850, 12044.00
641.6470, 11918.00
642.8100, 11835.00
643.9720, 12274.00
645.1340, 12031.35
646.2960, 12196.00
647.4570, 11969.00
648.6190, 11980.00
649.7800, 12058.00
650.9420, 11861.00
652.1030, 12032.00
653.2640, 11915.00
654.4240, 11992.00
655.5850, 12048.00
656.7450, 11984.00
657.9060, 11906.00
659.0660, 11946.00
660.2260, 11964.00
661.3850, 11958.08
662.5450, 12004.00
663.7040, 11993.00
664.8640, 12038.00
666.0230, 12049.00
667.1820, 12007.00
668.3410, 12124.00
669.4990, 11979.00
670.6580, 12077.00
671.8160, 12113.00
672.9740, 12002.00
674.1320, 12074.00
675.2900, 12027.00
676.4480, 11899.00
677.6050, 12024.00
678.7630, 12038.00
679.9200, 11957.00
681.0770, 12102.00
682.2340, 11980.00
683.3900, 12048.00
684.5470, 12086.00
685.7030, 12059.00
686.8590, 12110.00
688.0150, 12041.00
689.1710, 12016.00
690.3270, 12164.00
691.4830, 12179.00
692.6380, 12121.00
693.7930, 12233.00
694.9480, 12187.00
696.1030, 12309.00
697.2580, 12249.00
698.4130, 12273.00
699.5670, 12386.00
700.7210, 12473.00
701.8750, 12472.00
703.0290, 12447.00
704.1830, 12490.00
705.3370, 12423.00
706.4900, 12469.00
707.6430, 12642.00
708.7970, 12574.00
709.9490, 12595.00
711.1020, 12791.00
712.2550, 12666.00
713.4070, 12782.00
714.5600, 12647.00
715.7120, 12818.00
716.8640, 12849.00
718.0160, 12865.00
719.1670, 13065.00
720.3190, 13258.00
721.4700, 13247.00
722.6210, 13335.00
723.7720, 13393.00
724.9230, 13530.00
726.0740, 13639.00
727.2250, 13870.00
728.3750, 13943.00
729.5250, 14057.00
730.6750, 14415.00
731.8250, 14267.00
732.9750, 14651.00
734.1240, 14568.00
735.2740, 14596.00
736.4230, 14696.00
737.5720, 14640.00
738.7210, 14506.00
739.8700, 14548.00
741.0190, 14406.00
742.1670, 14419.00
743.3150, 14225.00
744.4630, 14207.00
745.6110, 13979.00
746.7590, 13996.00
747.9070, 13777.00
749.0540, 13673.00
750.2020, 13509.00
751.3490, 13404.00
752.4960, 13411.00
753.6430, 13450.00
754.7890, 13310.00
755.9360, 13168.00
757.0820, 13283.00
758.2280, 13243.00
759.3740, 13167.00
760.5200, 13201.00
761.6660, 13135.97
762.8120, 13163.00
763.9570, 13092.00
765.1020, 13135.00
766.2470, 13175.00
767.3920, 12994.00
768.5370, 13134.00
769.6810, 13197.00
770.8260, 13184.00
771.9700, 13075.00
773.1140, 13131.00
774.2580, 13069.00
775.4020, 13278.00
776.5460, 13134.00
777.6890, 13084.00
778.8320, 13177.00
779.9750, 13071.00
781.1180, 13161.00
782.2610, 13215.00
783.4040, 13213.00
784.5460, 13370.00
785.6890, 13360.00
786.8310, 13285.00
787.9730, 13435.00
789.1150, 13328.00
790.2560, 13281.00
791.3980, 13307.00
792.5390, 13484.00
793.6810, 13330.00
794.8220, 13344.00
795.9630, 13479.00
797.1030, 13383.00
798.2440, 13452.00
799.3840, 13509.00
800.5240, 13549.00
801.6650, 13592.00
802.8040, 13527.00
803.9440, 13558.00
805.0840, 13612.00
806.2230, 13571.00
807.3630, 13631.24
808.5020, 13656.01
809.6410, 13652.00
810.7790, 13660.00
811.9180, 13569.00
813.0570, 13402.00
814.1950, 13645.00
815.3330, 13712.00
816.4710, 13657.00
817.6090, 13879.00
818.7470, 13622.00
819.8840, 13859.00
821.0220, 13807.00
822.1590, 13901.00
823.2960, 14010.00
824.4330, 13976.00
825.5690, 14114.00
826.7060, 14149.01
827.8420, 14171.00
828.9790, 14269.00
830.1150, 14304.00
831.2510, 14363.00
832.3860, 14589.00
833.5220, 14509.00
834.6570, 14686.00
835.7930, 14803.00
836.9280, 14862.00
838.0630, 14992.00
839.1980, 15232.00
840.3320, 15331.00
841.4670, 15269.00
842.6010, 15523.00
843.7350, 15586.00
844.8690, 15562.00
846.0030, 15691.00
847.1370, 15569.00
848.2700, 15418.00
849.4040, 15449.00
850.5370, 15465.00
851.6700, 15465.00
852.8030, 15420.00
853.9360, 15436.00
855.0680, 15338.00
856.2000, 15360.00
857.3330, 15487.00
858.4650, 15436.00
859.5970, 15538.21
860.7290, 15616.00
861.8600, 15692.00
862.9920, 15676.00
864.1230, 15783.00
865.2540, 15739.00
866.3850, 16045.00
867.5160, 16168.00
868.6460, 16455.00
869.7770, 16467.00
870.9070, 16878.00
872.0370, 16993.00
873.1670, 17522.00
874.2970, 18065.00
875.4270, 18407.00
876.5570, 18788.00
877.6860, 19144.00
878.8150, 19944.00
879.9440, 20039.00
881.0730, 20157.00
882.2020, 20327.00
883.3300, 20195.00
884.4590, 19976.00
885.5870, 19625.00
886.7150, 19329.00
887.8430, 18978.00
888.9710, 18475.00
890.0990, 18381.00
891.2260, 17985.57
892.3530, 17921.00
893.4810, 17496.00
894.6080, 17418.00
895.7340, 17346.00
896.8610, 17226.00
897.9880, 16993.00
899.1140, 16897.00
900.2400, 16982.00
901.3660, 16987.00
902.4920, 17164.00
903.6180, 17061.74
904.7430, 17001.29
905.8690, 16916.00
906.9940, 16829.00
908.1190, 16781.00
909.2440, 16752.57
910.3690, 16780.00
911.4930, 16719.00
912.6180, 16613.00
913.7420, 16546.57
914.8660, 16806.00
915.9900, 16519.00
917.1140, 16651.00
918.2380, 16843.00
919.3610, 16500.00
920.4850, 16718.00
921.6080, 16694.00
922.7310, 16492.00
923.8540, 16623.00
924.9760, 16487.00
926.0990, 16532.00
927.2210, 16388.00
928.3440, 16522.00
929.4660, 16526.00
930.5880, 16571.00
931.7090, 16491.00
932.8310, 16648.00
933.9520, 16533.00
935.0740, 16734.00
936.1950, 16721.00
937.3160, 16687.00
938.4360, 16811.00
939.5570, 16666.00
940.6780, 16826.00
941.7980, 16872.00
942.9180, 16805.00
944.0380, 16935.00
945.1580, 17075.00
946.2780, 16984.00
947.3970, 17192.00
948.5170, 17324.00
949.6360, 17246.00
950.7550, 17370.00
951.8740, 17341.00
952.9930, 17303.00
954.1110, 17291.00
955.2300, 17210.00
956.3480, 17352.00
957.4660, 17180.00
958.5840, 17051.00
959.7020, 17140.00
960.8190, 17200.00
961.9370, 16998.00
963.0540, 16965.00
964.1710, 16813.00
965.2880, 16854.00
966.4050, 16723.00
967.5220, 16707.00
968.6380, 16742.00
969.7550, 16595.00
970.8710, 16608.00
971.9870, 16609.00
973.1030, 16622.00
974.2190, 16648.00
975.3340, 16671.00
976.4500, 16550.00
977.5650, 16571.89
978.6800, 16515.00
979.7950, 16493.00
980.9100, 16532.00
982.0250, 16433.98
983.1390, 16518.15
984.2530, 16575.12
985.3680, 16606.38
986.4820, 16534.79
987.5950, 16595.96
988.7090, 16603.93
989.8230, 16609.72
990.9360, 16689.58
992.0490, 16632.92
993.1620, 16711.61
994.2750, 16736.26
995.3880, 16785.65
996.5010, 16781.49
997.6130, 16793.85
998.7250, 16859.76
999.8370, 16896.03
1000.949, 16781.00
1002.061, 16796.00
1003.173, 16911.00
1004.284, 16883.75
1005.396, 16793.00
1006.507, 16923.00
1007.618, 16836.00
1008.729, 16833.00
1009.839, 17072.00
1010.950, 16940.00
1012.060, 17007.00
1013.171, 16959.00
1014.281, 16997.00
1015.391, 16891.00
1016.500, 16846.00
1017.610, 16995.00
1018.719, 17301.00
1019.829, 17506.00
1020.938, 17109.00
1022.047, 16847.00
1023.156, 17063.00
1024.264, 16879.00
1025.373, 16950.00
1026.481, 17040.00
1027.589, 16984.00
1028.697, 17112.00
1029.805, 16910.00
1030.913, 17076.00
1032.020, 16968.00
1033.128, 17014.00
1034.235, 17050.00
1035.342, 17159.00
1036.449, 17278.00
1037.556, 17000.00
1038.663, 17106.00
1039.769, 16958.00
1040.875, 17132.00
1041.981, 17208.00
1043.087, 17201.00
1044.193, 17304.00
1045.299, 17274.00
1046.404, 17220.00
1047.510, 17223.00
1048.615, 17130.00
1049.720, 17191.00
1050.825, 17254.00
1051.930, 17172.00
1053.034, 17326.00
1054.139, 17310.00
1055.243, 17354.00
1056.347, 17184.00
1057.451, 17303.00
1058.555, 17286.00
1059.658, 17344.00
1060.762, 17356.00
1061.865, 17211.00
1062.968, 17332.00
1064.071, 17280.00
1065.174, 17391.00
1066.277, 17397.00
1067.380, 17366.00
1068.482, 17409.00
1069.584, 17308.00
1070.686, 17355.84
1071.788, 17268.00
1072.890, 17435.00
1073.992, 17477.00
1075.093, 17603.00
1076.194, 17535.00
1077.295, 17491.00
1078.396, 17550.00
1079.497, 17597.00
1080.598, 17633.00
1081.698, 17626.91
1082.799, 17620.26
1083.899, 17565.00
1084.999, 17558.00
1086.099, 17485.00
1087.199, 17451.00
1088.298, 17658.00
1089.398, 17431.00
1090.497, 17558.00
1091.596, 17733.00
1092.695, 17547.00
1093.794, 17587.00
1094.892, 17615.78
1095.991, 17538.40
1097.089, 17701.00
1098.187, 17571.00
1099.285, 17701.00
1100.383, 17890.00
1101.481, 17463.00
1102.579, 17735.00
1103.676, 17600.00
1104.773, 17695.00
1105.870, 17722.00
1106.967, 17611.00
1108.064, 17761.00
1109.161, 17733.00
1110.257, 17576.00
1111.353, 17691.54
1112.449, 17722.23
1113.545, 17703.00
1114.641, 17953.00
1115.737, 17888.00
1116.832, 18001.59
1117.928, 18158.40
1119.023, 18226.00
1120.118, 18410.00
1121.213, 18207.00
1122.308, 18217.00
1123.402, 18237.00
1124.497, 18244.00
1125.591, 18076.00
1126.685, 18072.00
1127.779, 18019.59
1128.873, 17927.86
1129.967, 17981.00
1131.060, 17783.00
1132.153, 17819.00
1133.247, 17728.00
1134.340, 17840.00
1135.433, 17860.00
1136.525, 17788.00
1137.618, 17829.00
1138.710, 17788.00
1139.802, 17972.00
1140.895, 17742.00
1141.987, 17930.00
1143.078, 17885.00
1144.170, 17858.00
1145.261, 17852.00
1146.353, 17959.00
1147.444, 17852.00
1148.535, 18055.00
1149.626, 18022.00
1150.716, 17687.00
1151.807, 17947.00
1152.897, 17864.00
1153.988, 18042.00
1155.078, 17951.00
1156.168, 17977.00
1157.257, 18043.00
1158.347, 18005.00
1159.436, 17947.00
1160.526, 18067.04
1161.615, 18012.44
1162.704, 18214.00
1163.793, 18069.00
1164.881, 18017.00
1165.970, 18140.00
1167.058, 17986.00
1168.147, 18010.00
1169.235, 18109.00
1170.323, 18034.00
1171.410, 18005.00
1172.498, 18148.00
1173.585, 18089.00
1174.673, 18082.00
1175.760, 18068.00
1176.847, 18144.00
1177.934, 18109.55
1179.020, 18302.00
1180.107, 18109.00
1181.193, 18038.00
1182.279, 18057.00
1183.365, 18182.00
1184.451, 17984.00
1185.537, 18318.00
1186.623, 18125.00
1187.708, 18228.00
1188.793, 18302.00
1189.878, 18202.00
1190.963, 18358.00
1192.048, 18253.00
1193.133, 18355.00
1194.217, 18103.96
1195.302, 18290.61
1196.386, 18401.09
1197.470, 18439.51
1198.554, 18190.00
1199.638, 18312.28
1200.721, 18285.56
1201.805, 18252.74
1202.888, 18427.33
1203.971, 18219.69
1205.054, 18391.00
1206.137, 18411.04
1207.219, 18500.30
1208.302, 18439.65
1209.384, 18425.30
1210.466, 18560.91
1211.548, 18613.49
1212.630, 18535.57
1213.712, 18629.23
1214.794, 18416.34
1215.875, 18478.00
1216.956, 18568.00
1218.037, 18673.00
1219.118, 18753.00
1220.199, 18575.00
1221.280, 18738.00
1222.360, 18518.00
1223.441, 18603.00
1224.521, 18666.00
1225.601, 18594.00
1226.681, 18549.00
1227.760, 18682.00
1228.840, 18737.00
1229.919, 18865.00
1230.999, 18676.00
1232.078, 18546.00
1233.157, 18730.00
1234.236, 18769.00
1235.314, 18753.00
1236.393, 18744.00
1237.471, 18843.00
1238.549, 18919.00
1239.627, 18878.66
1240.705, 18833.00
1241.783, 18833.00
1242.860, 18803.00
1243.938, 18813.00
1245.015, 18716.00
1246.092, 18801.00
1247.169, 18789.40
1248.246, 18896.00
1249.323, 18851.00
1250.399, 18895.51
1251.475, 18927.00
1252.552, 18879.00
1253.628, 18934.00
1254.703, 18916.00
1255.779, 19092.00
1256.855, 19045.00
1257.930, 19099.00
1259.005, 19122.00
1260.080, 18930.00
1261.155, 19087.00
1262.230, 19111.00
1263.305, 19290.00
1264.379, 19161.00
1265.454, 19221.00
1266.528, 19317.00
1267.602, 19223.00
1268.676, 19202.00
1269.750, 19191.00
1270.823, 19452.00
1271.897, 19206.00
1272.970, 19087.00
1274.043, 19377.00
1275.116, 19311.00
1276.189, 19245.00
1277.261, 19224.00
1278.334, 19251.00
1279.406, 19422.00
1280.478, 19293.47
1281.550, 19321.00
1282.622, 19182.00
1283.694, 19369.00
1284.766, 19435.00
1285.837, 19344.00
1286.908, 19399.79
1287.979, 19522.52
1289.050, 19237.00
1290.121, 19749.00
1291.192, 19554.00
1292.262, 19473.00
1293.333, 19584.00
1294.403, 19670.00
1295.473, 19638.00
1296.543, 19730.00
1297.613, 19707.00
1298.682, 19699.00
1299.752, 19858.00
1300.821, 19691.00
1301.890, 19757.00
1302.959, 19708.00
1304.028, 19809.00
1305.096, 19852.00
1306.165, 19914.00
1307.233, 19846.00
1308.301, 20072.00
1309.370, 19996.00
1310.437, 19869.00
1311.505, 20270.00
1312.573, 20142.00
1313.640, 20044.00
1314.708, 20122.00
1315.775, 20068.00
1316.842, 20120.00
1317.908, 20272.00
1318.975, 20136.00
1320.042, 20167.00
1321.108, 20080.00
1322.174, 20106.00
1323.240, 20029.00
1324.306, 20238.00
1325.372, 20136.00
1326.438, 20140.00
1327.503, 20047.00
1328.568, 20159.00
1329.634, 20153.00
1330.699, 20435.00
1331.763, 20192.00
1332.828, 20466.00
1333.893, 20262.00
1334.957, 20394.00
1336.021, 20307.00
1337.085, 20206.00
1338.149, 20394.00
1339.213, 20188.00
1340.277, 20310.00
1341.340, 20445.00
1342.404, 20365.00
1343.467, 20323.00
1344.530, 20522.00
1345.593, 20415.00
1346.655, 20317.00
1347.718, 20217.00
1348.780, 20396.00
1349.843, 20368.00
1350.905, 20404.00
1351.967, 20478.00
1353.028, 20309.00
1354.090, 20439.00
1355.152, 20291.00
1356.213, 20456.00
1357.274, 20335.00
1358.335, 20464.00
1359.396, 20494.00
1360.457, 20460.00
1361.517, 20517.00
1362.578, 20406.00
1363.638, 20549.00
1364.698, 20425.00
1365.758, 20461.00
1366.818, 20400.00
1367.878, 20473.00
1368.937, 20667.00
1369.997, 20397.00
1371.056, 20608.00
1372.115, 20383.00
1373.174, 20462.00
1374.232, 20639.00
1375.291, 20616.00
1376.350, 20814.00
1377.408, 20750.78
1378.466, 20690.00
1379.524, 20686.00
1380.582, 20684.00
1381.640, 20745.00
1382.697, 20638.00
1383.754, 20633.00
1384.812, 20780.00
1385.869, 20765.00
1386.926, 20653.00
1387.983, 20749.00
1389.039, 20732.00
1390.096, 20848.00
1391.152, 20747.00
1392.208, 20755.00
1393.264, 20808.00
1394.320, 20847.00
1395.376, 20878.00
1396.431, 20901.72
1397.487, 20925.46
1398.542, 20942.00
1399.597, 20948.00
1400.652, 20993.00
1401.707, 20980.00
1402.762, 21013.93
1403.816, 20903.00
1404.871, 21071.00
1405.925, 20815.00
1406.979, 20839.00
1408.033, 20925.00
1409.086, 20849.00
1410.140, 20884.78
1411.194, 20932.24
1412.247, 20836.00
1413.300, 21047.00
1414.353, 20979.00
1415.406, 21056.00
1416.458, 21146.00
1417.511, 21106.00
1418.563, 21030.00
1419.616, 21204.00
1420.668, 21090.00
1421.720, 21110.00
1422.772, 21138.00
1423.823, 21227.00
1424.875, 21315.00
1425.926, 21243.00
1426.977, 21291.06
1428.028, 21184.00
1429.079, 21223.00
1430.130, 21242.00
1431.180, 21136.00
1432.231, 21302.00
1433.281, 21338.00
1434.331, 21278.00
1435.381, 21319.00
1436.431, 21416.00
1437.481, 21429.00
1438.530, 21415.34
1439.580, 21415.88
1440.629, 21334.00
1441.678, 21332.00
1442.727, 21292.00
1443.776, 21237.00
1444.824, 21459.00
1445.873, 21426.00
1446.921, 21663.00
1447.969, 21588.00
1449.017, 21554.00
1450.065, 21416.00
1451.113, 21546.00
1452.160, 21550.00
1453.208, 21502.00
1454.255, 21514.00
1455.302, 21452.00
1456.349, 21464.85
1457.396, 21400.00
1458.443, 21493.00
1459.489, 21529.00
1460.535, 21582.00
1461.582, 21773.00
1462.628, 21806.00
1463.674, 21740.00
1464.719, 21483.00
1465.765, 21598.00
1466.810, 21510.00
1467.856, 21601.00
1468.901, 21651.89
1469.946, 21995.00
1470.991, 21669.00
1472.035, 21842.00
1473.080, 21609.00
1474.124, 21682.00
1475.169, 21866.00
1476.213, 21675.00
1477.257, 21676.00
1478.300, 21623.00
1479.344, 21597.03
1480.388, 21759.00
1481.431, 21615.00
1482.474, 21834.00
1483.517, 21836.00
1484.560, 22118.00
1485.603, 22030.57
1486.645, 21926.00
1487.688, 21969.00
1488.730, 21756.00
1489.772, 21870.00
1490.814, 22017.00
1491.856, 21848.00
1492.898, 21967.00
1493.939, 21912.00
1494.981, 22139.00
1496.022, 21845.00
1497.063, 21883.00
1498.104, 22057.00
1499.145, 21978.00
1500.186, 22079.00
1501.226, 22053.00
1502.266, 22122.00
1503.307, 22182.00
1504.347, 22150.54
1505.387, 22174.13
1506.426, 22105.00
1507.466, 22142.00
1508.505, 22094.00
1509.545, 22083.00
1510.584, 21921.00
1511.623, 22299.00
1512.662, 22292.00
1513.700, 22086.00
1514.739, 22322.00
1515.777, 22208.00
1516.815, 22448.00
1517.854, 22419.00
1518.892, 22339.00
1519.929, 22377.00
1520.967, 22190.00
1522.004, 22248.00
1523.042, 22192.00
1524.079, 22185.00
1525.116, 22317.00
1526.153, 22419.00
1527.190, 22408.00
1528.226, 22287.00
1529.263, 22418.00
1530.299, 22284.10
1531.335, 22471.29
1532.371, 22582.33
1533.407, 22621.30
1534.443, 22372.35
1535.478, 22495.17
1536.514, 22469.01
1537.549, 22436.73
1538.584, 22611.88
1539.619, 22404.79
1540.654, 22576.66
1541.689, 22597.25
1542.723, 22687.06
1543.757, 22626.96
1544.792, 22613.17
1545.826, 22749.33
1546.860, 22802.46
1547.893, 22725.09
1548.927, 22819.30
1549.960, 22606.95
1550.994, 22663.62
1552.027, 22836.33
1553.060, 22766.49
1554.093, 22863.44
1555.126, 22896.86
1556.158, 22641.61
1557.191, 22888.38
1558.223, 22918.04
1559.255, 22724.77
1560.287, 22954.33
1561.319, 22721.00
1562.350, 22824.00
##END=



