##NAMES=Chloritoid
##RRUFFID=R050334
##IDEAL CHEMISTRY=Fe^2+^Al_2_OSiO_4_(OH)_2_
##LOCALITY=Selçuk, Mugla Province, Turkey
##OWNER=RRUFF
##SOURCE=George Rossman
##DESCRIPTION=Dark greenish-black foliated cleavage fragments
##STATUS=The identification of this mineral is confirmed by single-crystal X-ray diffraction and chemical analysis.
##URL=rruff.info/R050334
##MEASURED CHEMISTRY=(Fe^2+^_1.84_Mg_0.12_Mn_0.04_)_Σ=2_(Al_3.95_Fe^3+^_0.05_)_Σ=4_Si_2.00_O_10_(OH)_4_ ; H not measured but estimated by difference and stoichiometry
##PIN_ID=M01684
##ORIENTATION=Laser parallel to c* (0 0 1). Fiducial mark perpendicular to laser is parallel to a [1 0 0]
152.4080, 7327.000
153.6380, 7175.000
154.8690, 7236.000
156.0980, 7144.000
157.3280, 7034.000
158.5580, 6983.000
159.7870, 7016.000
161.0170, 7000.000
162.2460, 7161.000
163.4750, 7114.000
164.7030, 7231.000
165.9320, 7234.000
167.1600, 7222.000
168.3890, 7290.000
169.6170, 7189.000
170.8450, 7352.000
172.0730, 7280.947
173.3000, 7248.886
174.5280, 7240.000
175.7550, 7205.000
176.9820, 7207.000
178.2090, 7178.802
179.4350, 7218.000
180.6620, 7174.000
181.8880, 7104.000
183.1150, 7183.000
184.3410, 7245.000
185.5670, 7377.000
186.7920, 7340.000
188.0180, 7389.000
189.2430, 7355.000
190.4690, 7412.000
191.6940, 7569.000
192.9180, 7675.000
194.1430, 7714.000
195.3680, 7715.000
196.5920, 7720.000
197.8160, 7743.000
199.0400, 7680.000
200.2640, 7905.000
201.4880, 7948.000
202.7110, 7933.000
203.9350, 7724.000
205.1580, 7596.000
206.3810, 7564.000
207.6040, 7470.000
208.8270, 7527.000
210.0490, 7405.000
211.2710, 7491.000
212.4940, 7524.000
213.7160, 7491.000
214.9370, 7465.000
216.1590, 7509.000
217.3810, 7440.000
218.6020, 7450.000
219.8230, 7562.000
221.0440, 7440.000
222.2650, 7438.000
223.4860, 7380.000
224.7060, 7303.000
225.9260, 7198.000
227.1470, 7137.000
228.3670, 7109.000
229.5860, 7052.000
230.8060, 7119.000
232.0260, 7070.000
233.2450, 7065.062
234.4640, 7009.000
235.6830, 7092.000
236.9020, 6933.000
238.1200, 7059.000
239.3390, 7075.000
240.5570, 7200.000
241.7750, 7253.000
242.9930, 7249.000
244.2110, 7520.000
245.4290, 7463.000
246.6460, 7811.000
247.8630, 7848.000
249.0810, 7946.000
250.2980, 7976.000
251.5140, 8002.000
252.7310, 7952.000
253.9470, 7928.000
255.1640, 7884.000
256.3800, 8053.000
257.5960, 8178.000
258.8120, 8677.000
260.0270, 8959.000
261.2430, 8189.000
262.4580, 7699.000
263.6730, 7547.000
264.8880, 7505.000
266.1030, 7438.000
267.3170, 7517.000
268.5320, 7468.000
269.7460, 7445.000
270.9600, 7423.000
272.1740, 7591.000
273.3880, 7639.000
274.6010, 7759.000
275.8150, 8005.000
277.0280, 8266.000
278.2410, 8499.000
279.4540, 8612.000
280.6670, 8685.000
281.8790, 8801.000
283.0920, 8636.000
284.3040, 8666.000
285.5160, 8288.000
286.7280, 8295.000
287.9400, 8101.000
289.1510, 8128.000
290.3630, 8016.000
291.5740, 7997.000
292.7850, 7984.000
293.9960, 8154.000
295.2070, 8179.000
296.4170, 8295.000
297.6280, 8422.000
298.8380, 8560.000
300.0480, 8688.000
301.2580, 8764.000
302.4680, 8734.000
303.6770, 8743.000
304.8870, 8535.000
306.0960, 8299.000
307.3050, 8253.000
308.5140, 8075.000
309.7230, 7820.000
310.9310, 7814.000
312.1400, 7672.000
313.3480, 7537.000
314.5560, 7552.000
315.7640, 7529.000
316.9720, 7579.000
318.1790, 7454.000
319.3870, 7480.000
320.5940, 7440.000
321.8010, 7529.000
323.0080, 7587.000
324.2150, 7799.000
325.4210, 7652.000
326.6280, 7839.000
327.8340, 7772.000
329.0400, 7929.000
330.2460, 8152.000
331.4510, 8176.000
332.6570, 8438.000
333.8620, 8272.000
335.0680, 8256.000
336.2730, 8186.000
337.4780, 7959.000
338.6820, 7765.000
339.8870, 7768.000
341.0910, 7915.000
342.2950, 8081.000
343.5000, 8003.000
344.7030, 7931.000
345.9070, 7994.000
347.1110, 7872.000
348.3140, 7773.000
349.5170, 7769.000
350.7200, 7759.000
351.9230, 7758.000
353.1260, 7744.000
354.3290, 7842.000
355.5310, 7849.000
356.7330, 7869.000
357.9350, 8092.000
359.1370, 8135.000
360.3390, 8086.000
361.5400, 8348.000
362.7420, 8449.000
363.9430, 8533.000
365.1440, 8574.000
366.3450, 8620.000
367.5460, 8560.000
368.7460, 8474.000
369.9470, 8409.000
371.1470, 8341.258
372.3470, 8268.915
373.5470, 8237.000
374.7460, 8151.000
375.9460, 8158.000
377.1450, 8140.958
378.3450, 8226.000
379.5440, 8285.000
380.7430, 8307.000
381.9410, 8520.000
383.1400, 8631.000
384.3380, 8712.000
385.5370, 8844.000
386.7350, 8920.000
387.9320, 9043.000
389.1300, 9131.000
390.3280, 9125.000
391.5250, 9045.000
392.7220, 9099.000
393.9190, 9160.000
395.1160, 9128.000
396.3130, 9310.000
397.5100, 9376.000
398.7060, 9480.000
399.9020, 9444.000
401.0980, 9400.000
402.2940, 9347.000
403.4900, 9429.000
404.6860, 9503.000
405.8810, 9436.000
407.0760, 9576.000
408.2710, 9609.000
409.4660, 9784.000
410.6610, 9796.000
411.8550, 9902.000
413.0500, 9882.000
414.2440, 9825.000
415.4380, 9759.000
416.6320, 9746.000
417.8260, 9451.000
419.0190, 9687.000
420.2130, 9265.000
421.4060, 9177.000
422.5990, 9144.000
423.7920, 9076.000
424.9850, 9037.000
426.1770, 9091.000
427.3700, 9050.000
428.5620, 8998.000
429.7540, 9000.000
430.9460, 8843.000
432.1380, 8809.000
433.3290, 8824.000
434.5210, 8713.000
435.7120, 8669.000
436.9030, 8673.000
438.0940, 8601.000
439.2850, 8636.132
440.4750, 8727.000
441.6660, 8672.000
442.8560, 8712.000
444.0460, 8692.414
445.2360, 8696.000
446.4260, 8734.000
447.6160, 8708.000
448.8050, 8763.000
449.9940, 8863.000
451.1830, 8735.000
452.3720, 9002.000
453.5610, 8863.000
454.7500, 8845.000
455.9380, 8954.000
457.1260, 8877.000
458.3150, 8972.000
459.5020, 8907.000
460.6900, 9075.000
461.8780, 9007.000
463.0650, 9076.000
464.2530, 9053.000
465.4400, 9241.000
466.6270, 9164.000
467.8130, 9211.000
469.0000, 9192.000
470.1870, 9222.000
471.3730, 9260.000
472.5590, 9293.000
473.7450, 9342.056
474.9310, 9414.000
476.1160, 9420.000
477.3020, 9468.000
478.4870, 9454.000
479.6720, 9478.000
480.8570, 9324.000
482.0420, 9395.000
483.2270, 9435.000
484.4110, 9502.000
485.5960, 9573.000
486.7800, 9587.000
487.9640, 9808.000
489.1480, 9931.000
490.3310, 10064.00
491.5150, 10430.00
492.6980, 10566.00
493.8810, 10778.00
495.0640, 11005.00
496.2470, 11565.00
497.4300, 11863.00
498.6120, 11845.00
499.7950, 11658.00
500.9770, 11265.00
502.1590, 11019.00
503.3410, 11134.00
504.5220, 10872.00
505.7040, 10828.00
506.8850, 10522.00
508.0660, 10409.00
509.2470, 10454.00
510.4280, 10181.00
511.6090, 10078.00
512.7890, 9899.000
513.9700, 9766.468
515.1500, 9679.654
516.3300, 9579.000
517.5100, 9564.000
518.6900, 9538.000
519.8690, 9594.000
521.0490, 9622.873
522.2280, 9687.604
523.4070, 9771.000
524.5860, 9874.000
525.7640, 10001.00
526.9430, 10141.00
528.1210, 10280.00
529.3000, 10367.00
530.4780, 10392.00
531.6560, 10266.00
532.8330, 9992.000
534.0110, 9874.000
535.1880, 9725.000
536.3650, 9460.000
537.5430, 9551.000
538.7190, 9433.000
539.8960, 9251.000
541.0730, 9314.000
542.2490, 9332.000
543.4250, 9347.000
544.6020, 9459.000
545.7780, 9595.598
546.9530, 9766.525
548.1290, 10009.00
549.3040, 10213.00
550.4800, 10506.00
551.6550, 10750.00
552.8300, 10653.00
554.0040, 10555.00
555.1790, 10111.00
556.3540, 9857.000
557.5280, 9625.000
558.7020, 9427.000
559.8760, 9302.377
561.0500, 9205.951
562.2230, 9171.000
563.3970, 9125.000
564.5700, 9172.000
565.7430, 9159.000
566.9160, 9108.000
568.0890, 9269.000
569.2620, 9123.000
570.4340, 9240.000
571.6070, 9153.000
572.7790, 9308.000
573.9510, 9148.000
575.1230, 9292.000
576.2940, 9387.000
577.4660, 9581.000
578.6370, 9584.000
579.8080, 9723.000
580.9790, 9959.000
582.1500, 10316.00
583.3210, 10950.00
584.4910, 11623.00
585.6620, 12827.00
586.8320, 14494.00
588.0020, 16968.00
589.1720, 20390.00
590.3410, 26052.00
591.5110, 35449.00
592.6800, 46778.00
593.8500, 53102.00
595.0190, 50048.00
596.1880, 39875.00
597.3560, 30440.00
598.5250, 23621.00
599.6930, 19107.00
600.8620, 16049.00
602.0300, 13932.00
603.1970, 12555.00
604.3650, 11653.00
605.5330, 11109.00
606.7000, 10677.00
607.8680, 10532.00
609.0350, 10183.00
610.2020, 9995.000
611.3680, 9828.000
612.5350, 9672.000
613.7010, 9554.995
614.8680, 9451.124
616.0340, 9377.000
617.2000, 9308.000
618.3660, 9267.000
619.5310, 9231.233
620.6970, 9197.769
621.8620, 9135.000
623.0270, 9125.000
624.1920, 9095.000
625.3570, 8993.000
626.5220, 9054.000
627.6860, 8924.000
628.8500, 9036.000
630.0140, 9057.000
631.1780, 9013.000
632.3420, 9055.000
633.5060, 8958.000
634.6700, 8930.000
635.8330, 8867.000
636.9960, 8840.408
638.1590, 8902.000
639.3220, 8828.000
640.4850, 8820.000
641.6470, 8858.000
642.8100, 8833.000
643.9720, 8842.000
645.1340, 8843.000
646.2960, 8829.000
647.4570, 8824.598
648.6190, 8899.000
649.7800, 8780.000
650.9420, 8753.000
652.1030, 8691.000
653.2640, 8808.000
654.4240, 8761.000
655.5850, 8770.000
656.7450, 8813.000
657.9060, 8708.000
659.0660, 8785.000
660.2260, 8743.000
661.3850, 8744.000
662.5450, 8779.000
663.7040, 8827.000
664.8640, 8689.000
666.0230, 8744.000
667.1820, 8669.000
668.3410, 8771.000
669.4990, 8749.000
670.6580, 8883.000
671.8160, 8744.000
672.9740, 8785.000
674.1320, 8754.000
675.2900, 8784.000
676.4480, 8683.000
677.6050, 8664.000
678.7630, 8621.000
679.9200, 8590.491
681.0770, 8607.744
682.2340, 8581.000
683.3900, 8653.000
684.5470, 8693.000
685.7030, 8722.000
686.8590, 8750.697
688.0150, 8638.000
689.1710, 8750.000
690.3270, 8662.000
691.4830, 8598.000
692.6380, 8668.000
693.7930, 8687.000
694.9480, 8638.000
696.1030, 8705.000
697.2580, 8793.000
698.4130, 8801.000
699.5670, 8730.000
700.7210, 8780.000
701.8750, 8926.000
703.0290, 8864.000
704.1830, 8949.000
705.3370, 8814.000
706.4900, 8756.000
707.6430, 8761.000
708.7970, 8887.000
709.9490, 8889.000
711.1020, 8899.000
712.2550, 8811.000
713.4070, 8915.000
714.5600, 8923.000
715.7120, 8879.000
716.8640, 8939.000
718.0160, 9012.000
719.1670, 9061.000
720.3190, 9106.897
721.4700, 9114.000
722.6210, 9191.000
723.7720, 9194.000
724.9230, 9250.780
726.0740, 9215.000
727.2250, 9295.000
728.3750, 9369.000
729.5250, 9484.000
730.6750, 9571.000
731.8250, 9534.000
732.9750, 9572.000
734.1240, 9522.000
735.2740, 9596.000
736.4230, 9583.000
737.5720, 9513.000
738.7210, 9567.000
739.8700, 9492.000
741.0190, 9587.000
742.1670, 9587.000
743.3150, 9456.000
744.4630, 9259.000
745.6110, 9213.000
746.7590, 9177.000
747.9070, 9205.000
749.0540, 9046.000
750.2020, 9043.000
751.3490, 8964.000
752.4960, 9017.000
753.6430, 9024.000
754.7890, 8930.000
755.9360, 8914.000
757.0820, 8871.000
758.2280, 8914.000
759.3740, 8890.000
760.5200, 8978.000
761.6660, 8895.000
762.8120, 8900.000
763.9570, 8933.000
765.1020, 8862.000
766.2470, 8865.000
767.3920, 8873.000
768.5370, 8894.000
769.6810, 8990.000
770.8260, 8829.000
771.9700, 8850.000
773.1140, 8939.000
774.2580, 8871.000
775.4020, 8903.000
776.5460, 9020.000
777.6890, 8958.000
778.8320, 8832.000
779.9750, 9007.000
781.1180, 8954.000
782.2610, 9089.000
783.4040, 9114.000
784.5460, 9231.000
785.6890, 9237.001
786.8310, 9113.000
787.9730, 9238.000
789.1150, 9127.000
790.2560, 9116.000
791.3980, 9089.000
792.5390, 9083.000
793.6810, 9177.000
794.8220, 9172.000
795.9630, 9256.000
797.1030, 9286.789
798.2440, 9314.801
799.3840, 9366.000
800.5240, 9363.000
801.6650, 9418.000
802.8040, 9415.000
803.9440, 9423.000
805.0840, 9415.000
806.2230, 9395.000
807.3630, 9395.000
808.5020, 9420.000
809.6410, 9508.000
810.7790, 9497.000
811.9180, 9374.000
813.0570, 9522.000
814.1950, 9427.000
815.3330, 9514.000
816.4710, 9498.000
817.6090, 9630.000
818.7470, 9617.000
819.8840, 9633.000
821.0220, 9753.000
822.1590, 9685.000
823.2960, 9821.000
824.4330, 9924.000
825.5690, 9971.000
826.7060, 10037.00
827.8420, 10184.00
828.9790, 10357.00
830.1150, 10542.00
831.2510, 10730.00
832.3860, 10874.00
833.5220, 11059.00
834.6570, 11242.83
835.7930, 11457.00
836.9280, 11631.00
838.0630, 11841.00
839.1980, 12057.00
840.3320, 12073.00
841.4670, 12171.74
842.6010, 12145.00
843.7350, 12113.00
844.8690, 11865.00
846.0030, 11637.00
847.1370, 11527.00
848.2700, 11591.00
849.4040, 11393.00
850.5370, 11401.00
851.6700, 11256.00
852.8030, 11211.00
853.9360, 11132.00
855.0680, 11036.00
856.2000, 11043.00
857.3330, 11034.00
858.4650, 11047.00
859.5970, 10968.00
860.7290, 10929.00
861.8600, 10966.00
862.9920, 10971.00
864.1230, 11103.00
865.2540, 11223.00
866.3850, 11404.00
867.5160, 11537.00
868.6460, 11653.00
869.7770, 11879.00
870.9070, 12157.00
872.0370, 12448.66
873.1670, 12849.00
874.2970, 13215.00
875.4270, 13642.00
876.5570, 14148.00
877.6860, 14397.00
878.8150, 14730.00
879.9440, 14832.00
881.0730, 14779.00
882.2020, 14724.00
883.3300, 14306.00
884.4590, 14012.00
885.5870, 13659.00
886.7150, 13421.00
887.8430, 13010.00
888.9710, 12845.00
890.0990, 12429.00
891.2260, 12315.00
892.3530, 12110.00
893.4810, 11922.00
894.6080, 11791.00
895.7340, 11629.00
896.8610, 11584.00
897.9880, 11514.00
899.1140, 11509.00
900.2400, 11329.00
901.3660, 11413.00
902.4920, 11325.00
903.6180, 11227.00
904.7430, 11323.00
905.8690, 11298.00
906.9940, 11294.00
908.1190, 11237.00
909.2440, 11263.00
910.3690, 11140.00
911.4930, 11113.00
912.6180, 11049.00
913.7420, 11097.00
914.8660, 11135.00
915.9900, 11109.00
917.1140, 11248.00
918.2380, 11126.00
919.3610, 11057.00
920.4850, 11040.00
921.6080, 11092.00
922.7310, 11107.00
923.8540, 11094.00
924.9760, 11043.00
926.0990, 11060.00
927.2210, 11033.00
928.3440, 11043.00
929.4660, 10988.00
930.5880, 11063.00
931.7090, 11143.00
932.8310, 11119.00
933.9520, 11176.00
935.0740, 11110.00
936.1950, 11123.00
937.3160, 11081.00
938.4360, 11176.00
939.5570, 11190.00
940.6780, 11278.00
941.7980, 11338.00
942.9180, 11380.06
944.0380, 11442.00
945.1580, 11455.00
946.2780, 11465.00
947.3970, 11443.00
948.5170, 11415.00
949.6360, 11580.00
950.7550, 11490.00
951.8740, 11675.00
952.9930, 11548.00
954.1110, 11602.00
955.2300, 11601.00
956.3480, 11490.00
957.4660, 11542.00
958.5840, 11512.00
959.7020, 11421.00
960.8190, 11522.00
961.9370, 11282.00
963.0540, 11386.00
964.1710, 11307.00
965.2880, 11122.00
966.4050, 11222.00
967.5220, 11058.00
968.6380, 11114.00
969.7550, 11291.00
970.8710, 11084.00
971.9870, 11032.00
973.1030, 11216.00
974.2190, 11042.86
975.3340, 11148.00
976.4500, 11003.00
977.5650, 10733.00
978.6800, 10821.00
979.7950, 10813.00
980.9100, 10841.00
982.0250, 10785.00
983.1390, 10820.00
984.2530, 10771.00
985.3680, 10957.00
986.4820, 10924.00
987.5950, 10756.00
988.7090, 10687.00
989.8230, 10909.00
990.9360, 10701.00
992.0490, 10804.00
993.1620, 10763.00
994.2750, 10834.00
995.3880, 10767.00
996.5010, 10978.00
997.6130, 11054.00
998.7250, 10923.00
999.8370, 10960.00
1000.949, 10955.00
1002.061, 10980.00
1003.173, 10987.20
1004.284, 10955.00
1005.396, 10995.00
1006.507, 10935.00
1007.618, 10925.00
1008.729, 10936.00
1009.839, 10881.00
1010.950, 10881.93
1012.060, 10879.71
1013.171, 10851.00
1014.281, 10888.00
1015.391, 10887.00
1016.500, 10895.00
1017.610, 10985.00
1018.719, 10773.00
1019.829, 10791.00
1020.938, 10967.00
1022.047, 10963.00
1023.156, 10745.00
1024.264, 10869.00
1025.373, 10849.00
1026.481, 11020.00
1027.589, 10787.00
1028.697, 10874.00
1029.805, 10990.00
1030.913, 10849.00
1032.020, 10821.00
1033.128, 10981.00
1034.235, 10879.97
1035.342, 10928.00
1036.449, 10868.00
1037.556, 10860.00
1038.663, 10840.96
1039.769, 10848.09
1040.875, 10848.17
1041.981, 10860.00
1043.087, 10907.00
1044.193, 10845.00
1045.299, 10958.00
1046.404, 10951.00
1047.510, 10890.00
1048.615, 11009.00
1049.720, 10861.00
1050.825, 11004.00
1051.930, 10993.00
1053.034, 10869.00
1054.139, 10992.00
1055.243, 10899.00
1056.347, 10926.00
1057.451, 10851.00
1058.555, 10941.00
1059.658, 10824.00
1060.762, 10922.00
1061.865, 10932.00
1062.968, 11088.00
1064.071, 10953.00
1065.174, 10979.00
1066.277, 11020.00
1067.380, 10947.00
1068.482, 10913.00
1069.584, 10807.00
1070.686, 11088.00
1071.788, 11133.00
1072.890, 10980.00
1073.992, 10814.00
1075.093, 11044.00
1076.194, 11165.00
1077.295, 10997.00
1078.396, 10860.00
1079.497, 11144.00
1080.598, 11013.00
1081.698, 11074.00
1082.799, 10970.00
1083.899, 11081.00
1084.999, 10987.00
1086.099, 11084.00
1087.199, 11066.00
1088.298, 11044.00
1089.398, 11095.00
1090.497, 11022.00
1091.596, 10989.00
1092.695, 11135.00
1093.794, 11113.00
1094.892, 11127.00
1095.991, 11009.00
1097.089, 11146.00
1098.187, 11084.00
1099.285, 11178.00
1100.383, 11135.00
1101.481, 11039.00
1102.579, 11181.00
1103.676, 11158.00
1104.773, 11237.00
1105.870, 11152.00
1106.967, 11132.00
1108.064, 11118.00
1109.161, 11043.00
1110.257, 11123.00
1111.353, 11181.00
1112.449, 11029.00
1113.545, 11241.00
1114.641, 11096.00
1115.737, 11147.00
1116.832, 11270.00
1117.928, 11390.00
1119.023, 11238.00
1120.118, 11313.00
1121.213, 11262.00
1122.308, 11242.00
1123.402, 11163.00
1124.497, 11173.00
1125.591, 11335.00
1126.685, 11108.00
1127.779, 11213.00
1128.873, 11162.00
1129.967, 11092.00
1131.060, 10973.00
1132.153, 10992.34
1133.247, 11242.00
1134.340, 11016.00
1135.433, 11022.00
1136.525, 11058.00
1137.618, 10939.00
1138.710, 10986.00
1139.802, 10921.00
1140.895, 10898.00
1141.987, 11078.00
1143.078, 11033.00
1144.170, 11071.00
1145.261, 11042.00
1146.353, 10977.00
1147.444, 10913.00
1148.535, 10995.00
1149.626, 10890.00
1150.716, 11019.00
1151.807, 11096.00
1152.897, 10783.00
1153.988, 11020.00
1155.078, 10982.00
1156.168, 10940.00
1157.257, 11128.00
1158.347, 11025.00
1159.436, 11018.00
1160.526, 11049.00
1161.615, 10956.00
1162.704, 10967.00
1163.793, 11056.00
1164.881, 11042.00
1165.970, 11007.00
1167.058, 11135.00
1168.147, 11069.00
1169.235, 11008.00
1170.323, 11066.00
1171.410, 11045.00
1172.498, 11047.00
1173.585, 11021.00
1174.673, 11066.00
1175.760, 11064.00
1176.847, 11085.00
1177.934, 10971.00
1179.020, 11113.00
1180.107, 11065.00
1181.193, 10913.00
1182.279, 10976.00
1183.365, 11087.00
1184.451, 10977.00
1185.537, 11201.00
1186.623, 11159.00
1187.708, 11113.00
1188.793, 11141.00
1189.878, 11161.00
1190.963, 11088.00
1192.048, 11123.45
1193.133, 11116.62
1194.217, 11134.00
1195.302, 11141.00
1196.386, 11168.00
1197.470, 11188.00
1198.554, 11177.18
1199.638, 11057.52
1200.721, 11171.31
1201.805, 11237.50
1202.888, 11258.64
1203.971, 11099.83
1205.054, 11173.40
1206.137, 11153.83
1207.219, 11130.45
1208.302, 11236.71
1209.384, 11104.08
1210.466, 11208.28
1211.548, 11217.94
1212.630, 11270.87
1213.712, 11230.11
1214.794, 11218.28
1215.875, 11300.18
1216.956, 11330.17
1218.037, 11278.62
1219.118, 11334.29
1220.199, 11198.38
1221.280, 11230.59
1222.360, 11335.33
1223.441, 11288.49
1224.521, 11345.87
1225.601, 11363.56
1226.681, 11200.83
1227.760, 11351.86
1228.840, 11367.20
1229.919, 11243.21
1230.999, 11318.00
1232.078, 11373.00
1233.157, 11308.00
1234.236, 11383.00
1235.314, 11399.00
1236.393, 11300.00
1237.471, 11296.00
1238.549, 11372.00
1239.627, 11390.00
1240.705, 11364.00
1241.783, 11467.00
1242.860, 11413.00
1243.938, 11402.00
1245.015, 11474.00
1246.092, 11542.00
1247.169, 11436.00
1248.246, 11301.00
1249.323, 11461.00
1250.399, 11340.00
1251.475, 11365.00
1252.552, 11577.00
1253.628, 11456.00
1254.703, 11510.00
1255.779, 11478.00
1256.855, 11577.00
1257.930, 11397.00
1259.005, 11482.00
1260.080, 11558.00
1261.155, 11545.00
1262.230, 11720.00
1263.305, 11575.00
1264.379, 11523.00
1265.454, 11598.00
1266.528, 11579.00
1267.602, 11613.00
1268.676, 11571.00
1269.750, 11620.00
1270.823, 11691.00
1271.897, 11518.00
1272.970, 11631.00
1274.043, 11563.00
1275.116, 11670.00
1276.189, 11689.00
1277.261, 11823.00
1278.334, 11760.00
1279.406, 11807.10
1280.478, 11615.56
1281.550, 11739.34
1282.622, 11815.53
1283.694, 11846.67
1284.766, 11697.86
1285.837, 11781.41
1286.908, 11771.83
1287.979, 11758.44
1289.050, 11874.69
1290.121, 11752.04
1291.192, 11866.24
1292.262, 11885.88
1293.333, 11948.80
1294.403, 11918.01
1295.473, 11916.16
1296.543, 12008.04
1297.613, 12048.02
1298.682, 12006.43
1299.752, 12072.08
1300.821, 11946.14
1301.890, 11988.31
1302.959, 12103.03
1304.028, 12066.15
1305.096, 12055.00
1306.165, 12078.00
1307.233, 12115.27
1308.301, 12122.51
1309.370, 12154.00
1310.437, 12146.00
1311.505, 12109.00
1312.573, 12119.00
1313.640, 12097.00
1314.708, 12010.00
1315.775, 12320.00
1316.842, 12153.00
1317.908, 12232.00
1318.975, 12066.00
1320.042, 12153.00
1321.108, 12253.00
1322.174, 12145.00
1323.240, 12207.00
1324.306, 12086.00
1325.372, 12105.00
1326.438, 12107.00
1327.503, 12135.00
1328.568, 12111.00
1329.634, 12166.00
1330.699, 12214.00
1331.763, 12188.17
1332.828, 12123.00
1333.893, 12114.00
1334.957, 12116.00
1336.021, 11974.00
1337.085, 12082.00
1338.149, 12058.00
1339.213, 12073.00
1340.277, 12163.00
1341.340, 12017.00
1342.404, 12036.00
1343.467, 12043.00
1344.530, 12078.00
1345.593, 12124.00
1346.655, 12062.00
1347.718, 12169.00
1348.780, 12013.00
1349.843, 11926.00
1350.905, 11996.00
1351.967, 12168.00
1353.028, 12053.00
1354.090, 12115.00
1355.152, 11967.00
1356.213, 12152.00
1357.274, 12320.00
1358.335, 12195.00
1359.396, 12004.00
1360.457, 12083.00
1361.517, 12019.00
1362.578, 12060.00
1363.638, 11921.00
1364.698, 12040.00
1365.758, 12058.00
1366.818, 11921.00
1367.878, 12104.00
1368.937, 12002.00
1369.997, 12048.00
1371.056, 11896.00
1372.115, 12148.00
1373.174, 11981.00
1374.232, 11968.00
1375.291, 12081.00
1376.350, 12028.00
1377.408, 12056.00
1378.466, 12036.00
1379.524, 12014.00
1380.582, 12038.00
1381.640, 12003.00
1382.697, 11955.00
1383.754, 11970.00
1384.812, 12086.00
1385.869, 12070.00
1386.926, 11963.00
1387.983, 12026.00
1389.039, 11922.00
1390.096, 11834.00
1391.152, 12142.00
1392.208, 11804.00
1393.264, 12054.00
1394.320, 12002.00
1395.376, 11844.00
1396.431, 11974.00
1397.487, 12061.00
1398.542, 12119.00
1399.597, 12017.00
1400.652, 12096.00
1401.707, 11980.00
1402.762, 12064.00
1403.816, 11889.00
1404.871, 12166.00
1405.925, 11969.00
1406.979, 12024.00
1408.033, 11938.00
1409.086, 12046.00
1410.140, 12127.00
1411.194, 12172.00
1412.247, 12194.07
1413.300, 12091.00
1414.353, 12137.00
1415.406, 12150.00
1416.458, 12034.00
1417.511, 12154.00
1418.563, 12225.00
1419.616, 12195.00
1420.668, 12197.00
1421.720, 12138.00
1422.772, 12250.00
1423.823, 12065.00
1424.875, 12096.00
1425.926, 12210.00
1426.977, 12194.00
1428.028, 12168.00
1429.079, 12061.00
1430.130, 12074.00
1431.180, 12222.00
1432.231, 12169.00
1433.281, 12313.00
1434.331, 12167.00
1435.381, 12151.00
1436.431, 12235.00
1437.481, 12191.36
1438.530, 12303.00
1439.580, 12254.00
1440.629, 12225.00
1441.678, 12243.00
1442.727, 12142.00
1443.776, 12269.00
1444.824, 12193.00
1445.873, 12205.00
1446.921, 12274.00
1447.969, 12287.00
1449.017, 12283.16
1450.065, 12269.25
1451.113, 12263.00
1452.160, 12177.00
1453.208, 12181.00
1454.255, 12122.00
1455.302, 12159.95
1456.349, 12241.00
1457.396, 12218.00
1458.443, 12246.00
1459.489, 12188.00
1460.535, 12285.00
1461.582, 12065.00
1462.628, 12201.00
1463.674, 12369.00
1464.719, 12127.00
1465.765, 12279.00
1466.810, 12418.00
1467.856, 12270.00
1468.901, 12290.00
1469.946, 12384.00
1470.991, 12303.00
1472.035, 12301.00
1473.080, 12236.00
1474.124, 12386.00
1475.169, 12182.00
1476.213, 12377.00
1477.257, 12230.00
1478.300, 12132.00
1479.344, 12168.00
1480.388, 12290.00
1481.431, 12280.00
1482.474, 12332.00
1483.517, 12271.00
1484.560, 12079.00
1485.603, 12255.00
1486.645, 12202.00
1487.688, 12116.00
1488.730, 12325.00
1489.772, 12124.00
1490.814, 12199.00
1491.856, 12230.00
1492.898, 12205.00
1493.939, 12228.00
1494.981, 12255.00
1496.022, 12221.00
1497.063, 12248.00
1498.104, 12259.00
1499.145, 12237.00
1500.186, 12292.00
1501.226, 12197.00
1502.266, 12165.00
1503.307, 12167.00
1504.347, 12181.00
1505.387, 12335.00
1506.426, 12348.00
1507.466, 12260.00
1508.505, 12405.00
1509.545, 12228.00
1510.584, 12160.00
1511.623, 12442.00
1512.662, 12297.00
1513.700, 12203.00
1514.739, 12258.75
1515.777, 12216.99
1516.815, 12234.00
1517.854, 12266.00
1518.892, 12247.35
1519.929, 12365.00
1520.967, 12280.00
1522.004, 12285.00
1523.042, 12363.00
1524.079, 12285.00
1525.116, 12353.00
1526.153, 12388.00
1527.190, 12312.00
1528.226, 12355.00
1529.263, 12261.00
1530.299, 12514.00
1531.335, 12328.00
1532.371, 12269.00
1533.407, 12380.00
1534.443, 12255.00
1535.478, 12499.00
1536.514, 12482.00
1537.549, 12457.00
1538.584, 12442.00
1539.619, 12319.00
1540.654, 12456.00
1541.689, 12551.00
1542.723, 12510.00
1543.757, 12447.00
1544.792, 12499.00
1545.826, 12376.00
1546.860, 12493.00
1547.893, 12459.00
1548.927, 12566.00
1549.960, 12504.00
1550.994, 12535.00
1552.027, 12739.00
1553.060, 12727.00
1554.093, 12788.00
1555.126, 12727.00
1556.158, 12586.00
1557.191, 12548.00
1558.223, 12744.00
1559.255, 12463.00
1560.287, 12342.00
1561.319, 12578.00
1562.350, 12494.00
##END=



