##NAMES=Chloritoid
##RRUFFID=R060292
##IDEAL CHEMISTRY=Fe^2+^Al_2_OSiO_4_(OH)_2_
##LOCALITY=Pech, Kunar Province, Afghanistan
##OWNER=RRUFF
##SOURCE=Herb Obodda
##DESCRIPTION=Black tabular crystal
##STATUS=The identification of this mineral has been confirmed by X-ray diffraction and chemical analysis
##URL=rruff.info/R060292
##MEASURED CHEMISTRY=(Fe^2+^_1.55_Mg_0.43_Mn_0.02_)_Σ=2_(Al_3.93_Fe^3+^_0.07_)_Σ=4_Si_2.00_O_10_(OH)_4_
##PIN_ID=M00313
##ORIENTATION=Laser parallel to (1 0 1). Fiducial mark perpendicular to laser is parallel to b [0 1 0]
51.43100, 505.0000
52.67100, 480.0000
53.91000, 504.0000
55.14900, 522.0000
56.38700, 568.0000
57.62600, 644.0000
58.86400, 740.0000
60.10300, 762.0000
61.34100, 711.0000
62.57900, 618.0000
63.81700, 643.0000
65.05400, 675.0000
66.29200, 807.0000
67.52900, 782.7459
68.76700, 978.0000
70.00400, 835.0000
71.24100, 844.0000
72.47700, 948.0000
73.71400, 1105.000
74.95100, 1031.000
76.18700, 1040.000
77.42300, 1044.000
78.65900, 1147.000
79.89500, 1399.000
81.13100, 1587.000
82.36700, 1553.000
83.60200, 1505.000
84.83700, 1470.000
86.07200, 1585.000
87.30800, 1656.000
88.54200, 1892.000
89.77700, 2119.000
91.01200, 2049.000
92.24600, 2062.000
93.48000, 2047.000
94.71400, 2060.000
95.94800, 2149.000
97.18200, 2345.000
98.41600, 2420.000
99.64900, 2506.000
100.8830, 2710.000
102.1160, 3175.000
103.3490, 3788.000
104.5820, 4889.000
105.8150, 5118.939
107.0470, 5573.371
108.2800, 5924.000
109.5120, 5984.000
110.7440, 6319.000
111.9760, 6502.000
113.2080, 6193.000
114.4400, 5240.000
115.6710, 4306.000
116.9030, 3690.000
118.1340, 3067.000
119.3650, 2740.000
120.5960, 2776.000
121.8270, 2551.000
123.0580, 2350.000
124.2880, 2261.000
125.5190, 2261.000
126.7490, 2299.000
127.9790, 2360.000
129.2090, 2378.000
130.4390, 2242.000
131.6680, 2201.000
132.8980, 2121.000
134.1270, 2123.000
135.3560, 2251.000
136.5850, 2298.000
137.8140, 2242.000
139.0430, 2149.000
140.2710, 2068.000
141.5000, 2035.000
142.7280, 2037.000
143.9560, 2031.000
145.1840, 2090.000
146.4120, 2097.000
147.6390, 2214.000
148.8670, 2315.000
150.0940, 2245.000
151.3210, 2134.000
152.5490, 2162.000
153.7750, 2062.000
155.0020, 1996.000
156.2290, 2029.000
157.4550, 1995.000
158.6810, 2069.000
159.9080, 2151.000
161.1340, 2210.000
162.3590, 2410.000
163.5850, 2300.000
164.8110, 2335.000
166.0360, 2333.000
167.2610, 2493.000
168.4860, 2511.000
169.7110, 2412.000
170.9360, 2391.000
172.1610, 2561.000
173.3850, 2470.549
174.6100, 2472.183
175.8340, 2441.000
177.0580, 2392.000
178.2820, 2321.000
179.5050, 2332.000
180.7290, 2371.000
181.9520, 2335.000
183.1760, 2394.000
184.3990, 2389.000
185.6220, 2481.000
186.8450, 2432.000
188.0670, 2443.000
189.2900, 2500.000
190.5120, 2535.000
191.7340, 2553.000
192.9560, 2685.000
194.1780, 2762.000
195.4000, 2732.000
196.6220, 2875.000
197.8430, 3002.000
199.0640, 3117.000
200.2860, 3234.000
201.5070, 3100.000
202.7270, 2921.000
203.9480, 2786.000
205.1690, 2790.000
206.3890, 2841.000
207.6090, 2898.000
208.8290, 2887.000
210.0490, 3046.000
211.2690, 2996.000
212.4890, 3030.000
213.7080, 3004.000
214.9280, 3083.000
216.1470, 3042.000
217.3660, 3111.000
218.5850, 3067.000
219.8030, 3085.000
221.0220, 3133.000
222.2400, 3128.000
223.4590, 3121.000
224.6770, 3196.000
225.8950, 3220.000
227.1120, 3209.000
228.3300, 3396.000
229.5480, 3399.000
230.7650, 3533.000
231.9820, 3572.000
233.1990, 3701.000
234.4160, 3904.000
235.6330, 4136.000
236.8490, 4396.000
238.0660, 4871.000
239.2820, 5490.000
240.4980, 6252.000
241.7140, 6976.000
242.9300, 7715.000
244.1460, 8553.000
245.3610, 9765.000
246.5770, 10896.00
247.7920, 11468.00
249.0070, 11627.00
250.2220, 10779.00
251.4370, 9691.000
252.6510, 8655.000
253.8660, 7503.000
255.0800, 6780.000
256.2940, 6723.000
257.5080, 6273.000
258.7220, 5435.000
259.9360, 4959.000
261.1490, 4538.000
262.3630, 4486.000
263.5760, 4303.000
264.7890, 4210.000
266.0020, 4264.000
267.2150, 4370.000
268.4270, 4484.000
269.6400, 4850.000
270.8520, 5176.000
272.0640, 5704.000
273.2760, 6263.000
274.4880, 6980.000
275.7000, 7841.000
276.9120, 8728.000
278.1230, 9806.000
279.3340, 10254.00
280.5450, 10475.00
281.7560, 9895.000
282.9670, 9007.000
284.1780, 7942.000
285.3880, 7123.000
286.5980, 6432.000
287.8090, 5741.000
289.0190, 5341.000
290.2290, 4863.000
291.4380, 4578.000
292.6480, 4265.000
293.8570, 4125.000
295.0670, 3843.000
296.2760, 3751.000
297.4850, 3619.000
298.6930, 3624.000
299.9020, 3495.000
301.1110, 3454.000
302.3190, 3407.000
303.5270, 3412.000
304.7350, 3455.000
305.9430, 3443.000
307.1510, 3436.000
308.3580, 3545.000
309.5660, 3471.000
310.7730, 3518.000
311.9800, 3519.000
313.1870, 3498.000
314.3940, 3543.000
315.6010, 3513.000
316.8070, 3522.000
318.0130, 3585.000
319.2200, 3692.000
320.4260, 3804.000
321.6310, 3982.000
322.8370, 4198.000
324.0430, 4469.000
325.2480, 4765.000
326.4540, 5060.000
327.6590, 5379.000
328.8640, 5786.000
330.0680, 5839.000
331.2730, 5588.000
332.4780, 5149.000
333.6820, 4629.000
334.8860, 4148.000
336.0900, 3757.000
337.2940, 3530.000
338.4980, 3330.000
339.7010, 3341.000
340.9050, 3414.000
342.1080, 3432.000
343.3110, 3426.000
344.5140, 3109.000
345.7170, 2782.000
346.9200, 2529.000
348.1220, 2363.000
349.3240, 2185.000
350.5270, 2172.000
351.7290, 2149.000
352.9310, 2175.000
354.1320, 2159.000
355.3340, 2178.000
356.5350, 2168.000
357.7370, 2259.000
358.9380, 2232.000
360.1390, 2279.000
361.3400, 2420.000
362.5400, 2420.000
363.7410, 2434.000
364.9410, 2420.000
366.1410, 2419.380
367.3410, 2412.731
368.5410, 2411.000
369.7410, 2393.000
370.9400, 2405.000
372.1400, 2398.000
373.3390, 2473.000
374.5380, 2479.000
375.7370, 2639.000
376.9360, 2714.000
378.1350, 2949.000
379.3330, 3105.000
380.5310, 3357.000
381.7300, 3598.000
382.9280, 3842.000
384.1260, 3934.000
385.3230, 3934.000
386.5210, 3737.000
387.7180, 3552.000
388.9160, 3321.000
390.1130, 3203.000
391.3100, 3063.000
392.5060, 3167.000
393.7030, 3048.000
394.9000, 3001.000
396.0960, 2943.000
397.2920, 2850.000
398.4880, 2653.000
399.6840, 2549.000
400.8800, 2460.000
402.0750, 2403.000
403.2710, 2388.000
404.4660, 2431.000
405.6610, 2403.000
406.8560, 2481.000
408.0510, 2569.000
409.2450, 2593.000
410.4400, 2805.000
411.6340, 2845.000
412.8280, 2858.000
414.0220, 2758.000
415.2160, 2758.000
416.4100, 2586.000
417.6030, 2546.000
418.7970, 2431.000
419.9900, 2472.000
421.1830, 2440.000
422.3760, 2442.000
423.5690, 2494.000
424.7610, 2447.000
425.9540, 2429.000
427.1460, 2408.000
428.3380, 2325.000
429.5300, 2333.000
430.7220, 2329.000
431.9140, 2235.000
433.1050, 2207.000
434.2970, 2185.000
435.4880, 2217.000
436.6790, 2196.000
437.8700, 2165.000
439.0610, 2183.000
440.2510, 2188.000
441.4420, 2267.000
442.6320, 2308.793
443.8220, 2298.000
445.0120, 2437.000
446.2020, 2483.000
447.3910, 2522.000
448.5810, 2589.000
449.7700, 2642.000
450.9600, 2780.000
452.1490, 2810.000
453.3370, 2761.000
454.5260, 2744.000
455.7150, 2634.000
456.9030, 2640.000
458.0910, 2675.723
459.2800, 2688.796
460.4670, 2836.000
461.6550, 2748.000
462.8430, 2875.281
464.0300, 2764.501
465.2180, 2982.000
466.4050, 3140.000
467.5920, 3293.000
468.7790, 3385.000
469.9650, 3604.000
471.1520, 3783.000
472.3380, 3948.000
473.5250, 4010.000
474.7110, 4162.000
475.8970, 4148.000
477.0820, 4202.000
478.2680, 4197.000
479.4540, 4172.000
480.6390, 4112.000
481.8240, 4050.000
483.0090, 4011.000
484.1940, 4029.000
485.3780, 4035.000
486.5630, 4239.000
487.7470, 4362.000
488.9320, 4645.000
490.1160, 5033.000
491.3000, 5385.000
492.4830, 5839.000
493.6670, 6393.000
494.8500, 7139.000
496.0340, 7898.000
497.2170, 8076.000
498.4000, 8289.000
499.5820, 8021.000
500.7650, 7749.000
501.9480, 7788.000
503.1300, 7794.000
504.3120, 8003.000
505.4940, 8411.000
506.6760, 8946.000
507.8580, 9480.000
509.0390, 9798.000
510.2210, 9759.000
511.4020, 9507.000
512.5830, 8783.000
513.7640, 8207.000
514.9450, 7744.000
516.1250, 7575.000
517.3060, 7647.000
518.4860, 7942.000
519.6660, 8584.000
520.8460, 9383.000
522.0260, 10636.00
523.2060, 11759.00
524.3850, 13241.00
525.5650, 14358.00
526.7440, 15378.00
527.9230, 15761.00
529.1020, 15367.00
530.2810, 14551.00
531.4590, 13387.00
532.6380, 12179.00
533.8160, 10982.00
534.9940, 10376.00
536.1720, 9835.000
537.3500, 9668.000
538.5270, 9919.000
539.7050, 10681.00
540.8820, 11943.00
542.0590, 14012.00
543.2360, 17047.00
544.4130, 20350.00
545.5900, 24383.00
546.7660, 28983.00
547.9430, 35137.00
549.1190, 41993.00
550.2950, 47519.00
551.4710, 49464.00
552.6470, 46218.00
553.8220, 38955.00
554.9980, 31129.00
556.1730, 23865.00
557.3480, 17669.00
558.5230, 13134.00
559.6980, 10196.00
560.8730, 8304.000
562.0470, 6986.000
563.2220, 5984.000
564.3960, 5362.000
565.5700, 4947.000
566.7440, 4493.000
567.9170, 4278.000
569.0910, 4098.000
570.2640, 3937.000
571.4380, 3865.000
572.6110, 3764.000
573.7840, 3850.000
574.9570, 3810.000
576.1290, 3851.000
577.3020, 3986.000
578.4740, 4364.000
579.6460, 4739.000
580.8180, 5294.000
581.9900, 6284.000
583.1620, 7755.000
584.3330, 10163.00
585.5040, 14046.00
586.6760, 18517.00
587.8470, 23046.00
589.0180, 28752.00
590.1880, 38061.00
591.3590, 49125.00
592.5290, 56203.00
593.7000, 53503.00
594.8700, 43798.00
596.0400, 33410.00
597.2090, 24600.00
598.3790, 17533.00
599.5490, 12948.00
600.7180, 9919.000
601.8870, 8011.000
603.0560, 6821.000
604.2250, 5963.000
605.3940, 5423.000
606.5620, 5069.000
607.7300, 4534.000
608.8990, 4242.000
610.0670, 4145.000
611.2350, 3849.000
612.4020, 3596.000
613.5700, 3484.000
614.7370, 3415.000
615.9050, 3152.000
617.0720, 3121.000
618.2390, 3100.000
619.4060, 2964.000
620.5720, 2925.000
621.7390, 2872.000
622.9050, 2864.000
624.0710, 2782.000
625.2370, 2760.000
626.4030, 2756.000
627.5690, 2706.000
628.7340, 2667.000
629.9000, 2726.000
631.0650, 2636.000
632.2300, 2583.000
633.3950, 2624.000
634.5600, 2562.000
635.7240, 2526.000
636.8890, 2528.000
638.0530, 2493.000
639.2170, 2496.000
640.3810, 2473.000
641.5450, 2463.092
642.7080, 2453.000
643.8720, 2450.000
645.0350, 2432.000
646.1980, 2433.000
647.3610, 2419.000
648.5240, 2398.000
649.6870, 2436.000
650.8490, 2445.000
652.0120, 2435.072
653.1740, 2423.000
654.3360, 2454.000
655.4980, 2468.000
656.6600, 2550.000
657.8210, 2574.000
658.9830, 2629.000
660.1440, 2686.000
661.3050, 2751.000
662.4660, 2825.000
663.6270, 2911.000
664.7870, 2961.000
665.9480, 3014.000
667.1080, 3033.000
668.2680, 3050.000
669.4280, 2957.000
670.5880, 2794.000
671.7480, 2681.000
672.9070, 2618.000
674.0670, 2527.000
675.2260, 2496.000
676.3850, 2457.003
677.5440, 2446.000
678.7030, 2443.000
679.8610, 2415.000
681.0200, 2461.000
682.1780, 2454.000
683.3360, 2485.000
684.4940, 2541.000
685.6520, 2518.000
686.8090, 2471.000
687.9670, 2505.000
689.1240, 2554.000
690.2810, 2571.000
691.4380, 2625.000
692.5950, 2627.636
693.7520, 2638.000
694.9080, 2639.000
696.0650, 2660.000
697.2210, 2675.000
698.3770, 2707.000
699.5330, 2765.000
700.6880, 2842.000
701.8440, 2909.000
702.9990, 2935.000
704.1550, 3017.000
705.3100, 3041.000
706.4650, 3129.000
707.6190, 3160.000
708.7740, 3308.000
709.9290, 3396.000
711.0830, 3537.029
712.2370, 3621.000
713.3910, 3895.000
714.5450, 4083.000
715.6980, 4359.000
716.8520, 4537.000
718.0050, 4808.000
719.1580, 5219.000
720.3110, 5636.000
721.4640, 6125.000
722.6170, 6517.000
723.7700, 7068.000
724.9220, 7577.000
726.0740, 8187.000
727.2260, 8743.000
728.3780, 9382.000
729.5300, 9812.000
730.6810, 10093.00
731.8330, 10251.00
732.9840, 10351.00
734.1350, 10216.00
735.2860, 9784.000
736.4370, 9391.000
737.5880, 8914.000
738.7380, 8830.000
739.8880, 8479.000
741.0390, 7971.000
742.1890, 7590.000
743.3380, 7205.000
744.4880, 6621.000
745.6380, 6192.000
746.7870, 5712.000
747.9360, 5346.021
749.0850, 5077.000
750.2340, 4725.000
751.3830, 4454.000
752.5310, 4211.000
753.6800, 4030.000
754.8280, 3763.000
755.9760, 3735.000
757.1240, 3564.000
758.2720, 3414.000
759.4190, 3371.000
760.5670, 3289.000
761.7140, 3207.000
762.8610, 3210.000
764.0080, 3117.000
765.1550, 3031.000
766.3020, 3060.000
767.4480, 3021.000
768.5950, 3045.000
769.7410, 2977.000
770.8870, 2935.000
772.0330, 2978.000
773.1780, 2845.000
774.3240, 2914.000
775.4690, 2845.000
776.6140, 2849.000
777.7590, 2878.000
778.9040, 2828.000
780.0490, 2803.000
781.1940, 2850.000
782.3380, 2843.000
783.4820, 2845.000
784.6260, 2803.000
785.7700, 2831.000
786.9140, 2767.000
788.0580, 2824.000
789.2010, 2839.000
790.3450, 2839.000
791.4880, 2830.000
792.6310, 2848.000
793.7730, 2868.000
794.9160, 2909.000
796.0590, 2882.000
797.2010, 2908.000
798.3430, 2924.000
799.4850, 2915.000
800.6270, 2944.000
801.7690, 2933.000
802.9100, 2945.000
804.0520, 3009.000
805.1930, 3053.000
806.3340, 3054.000
807.4750, 3111.000
808.6160, 3144.000
809.7560, 3104.000
810.8970, 3177.000
812.0370, 3155.000
813.1770, 3212.000
814.3170, 3236.000
815.4570, 3316.000
816.5960, 3320.000
817.7360, 3410.000
818.8750, 3471.000
820.0140, 3485.000
821.1530, 3622.000
822.2920, 3699.000
823.4310, 3727.000
824.5690, 3874.000
825.7070, 4049.000
826.8460, 4168.000
827.9840, 4317.000
829.1220, 4539.000
830.2590, 4674.000
831.3970, 4847.000
832.5340, 5040.000
833.6710, 5320.000
834.8080, 5599.000
835.9450, 5771.000
837.0820, 6018.000
838.2190, 6228.000
839.3550, 6355.000
840.4910, 6511.000
841.6270, 6548.000
842.7630, 6766.000
843.8990, 6764.000
845.0350, 6874.000
846.1700, 6944.000
847.3060, 6983.000
848.4410, 7042.000
849.5760, 7206.000
850.7100, 7183.000
851.8450, 7350.000
852.9800, 7640.000
854.1140, 7735.000
855.2480, 7949.000
856.3820, 8242.000
857.5160, 8391.000
858.6500, 8779.000
859.7830, 9149.000
860.9170, 9637.000
862.0500, 10093.00
863.1830, 10679.00
864.3160, 11345.00
865.4480, 12247.00
866.5810, 13261.00
867.7130, 14441.24
868.8460, 15771.00
869.9780, 17274.00
871.1100, 18806.00
872.2410, 20585.00
873.3730, 22503.00
874.5050, 24272.00
875.6360, 25562.00
876.7670, 26617.00
877.8980, 27151.00
879.0290, 26860.00
880.1590, 26167.00
881.2900, 24631.00
882.4200, 22668.00
883.5500, 20872.00
884.6800, 18931.00
885.8100, 17000.00
886.9400, 15342.00
888.0690, 14020.00
889.1990, 12749.00
890.3280, 11729.00
891.4570, 10818.00
892.5860, 10312.00
893.7140, 9911.000
894.8430, 9573.000
895.9710, 9439.000
897.1000, 9581.000
898.2280, 9507.000
899.3560, 9790.000
900.4830, 10277.00
901.6110, 10543.00
902.7380, 10686.00
903.8660, 11015.00
904.9930, 11009.00
906.1200, 10733.00
907.2460, 10196.00
908.3730, 9573.000
909.5000, 8827.000
910.6260, 8294.000
911.7520, 7694.000
912.8780, 7129.000
914.0040, 6727.000
915.1290, 6259.000
916.2550, 5941.000
917.3800, 5716.000
918.5050, 5384.000
919.6300, 5130.000
920.7550, 4979.000
921.8800, 4793.000
923.0040, 4480.000
924.1290, 4437.000
925.2530, 4222.000
926.3770, 4100.000
927.5010, 3999.000
928.6250, 3984.000
929.7480, 3821.000
930.8720, 3826.000
931.9950, 3802.000
933.1180, 3797.000
934.2410, 3784.000
935.3640, 3742.000
936.4860, 3701.618
937.6090, 3678.309
938.7310, 3616.000
939.8530, 3606.000
940.9750, 3629.000
942.0970, 3571.000
943.2180, 3596.000
944.3400, 3539.000
945.4610, 3648.000
946.5820, 3698.000
947.7030, 3614.000
948.8240, 3698.000
949.9450, 3677.000
951.0650, 3731.000
952.1860, 3737.000
953.3060, 3764.000
954.4260, 3834.000
955.5460, 3934.000
956.6650, 3906.000
957.7850, 3991.000
958.9040, 4018.000
960.0230, 4029.000
961.1420, 4072.000
962.2610, 4209.000
963.3800, 4163.000
964.4990, 4235.000
965.6170, 4244.000
966.7350, 4202.000
967.8530, 4240.000
968.9710, 4223.000
970.0890, 4093.000
971.2070, 4046.000
972.3240, 4038.000
973.4410, 4044.000
974.5580, 4025.000
975.6750, 3942.000
976.7920, 3970.000
977.9090, 3896.000
979.0250, 3912.000
980.1410, 3949.000
981.2580, 3837.000
982.3740, 3886.000
983.4890, 3870.000
984.6050, 3751.000
985.7200, 3763.000
986.8360, 3764.000
987.9510, 3794.000
989.0660, 3721.000
990.1810, 3765.000
991.2950, 3734.000
992.4100, 3749.000
993.5240, 3732.000
994.6390, 3750.000
995.7530, 3823.000
996.8660, 3787.000
997.9800, 3689.000
999.0940, 3783.000
1000.207, 3701.000
1001.320, 3652.000
1002.433, 3674.000
1003.546, 3627.226
1004.659, 3719.000
1005.772, 3632.000
1006.884, 3681.000
1007.996, 3738.000
1009.108, 3627.000
1010.220, 3646.000
1011.332, 3659.000
1012.444, 3650.000
1013.555, 3604.000
1014.666, 3710.000
1015.777, 3636.000
1016.888, 3719.000
1017.999, 3593.000
1019.110, 3695.000
1020.220, 3678.000
1021.331, 3665.000
1022.441, 3698.000
1023.551, 3672.000
1024.661, 3714.000
1025.770, 3676.000
1026.880, 3689.000
1027.989, 3651.000
1029.098, 3706.000
1030.207, 3688.000
1031.316, 3681.000
1032.425, 3709.000
1033.533, 3743.000
1034.642, 3710.000
1035.750, 3788.000
1036.858, 3713.000
1037.966, 3776.000
1039.073, 3770.000
1040.181, 3779.000
1041.288, 3727.000
1042.396, 3806.000
1043.503, 3738.000
1044.610, 3739.000
1045.716, 3791.000
1046.823, 3854.000
1047.929, 3772.000
1049.036, 3734.000
1050.142, 3802.000
1051.248, 3784.000
1052.353, 3823.000
1053.459, 3829.000
1054.564, 3783.000
1055.670, 3778.000
1056.775, 3833.000
1057.880, 3857.000
1058.985, 3861.000
1060.089, 3778.000
1061.194, 3869.000
1062.298, 3942.000
1063.402, 3840.000
1064.506, 3931.000
1065.610, 3859.000
1066.713, 3913.000
1067.817, 3894.000
1068.920, 3872.000
1070.023, 3903.000
1071.126, 3934.000
1072.229, 4001.000
1073.332, 4011.000
1074.435, 4039.000
1075.537, 4054.000
1076.639, 4103.000
1077.741, 4158.000
1078.843, 4177.000
1079.945, 4331.000
1081.046, 4445.000
1082.148, 4494.000
1083.249, 4625.000
1084.350, 4773.000
1085.451, 4898.000
1086.551, 5030.000
1087.652, 5111.000
1088.752, 5102.000
1089.853, 5141.000
1090.953, 5046.000
1092.053, 4947.000
1093.152, 4849.000
1094.252, 4785.000
1095.351, 4627.000
1096.451, 4551.000
1097.550, 4328.000
1098.649, 4267.000
1099.748, 4112.000
1100.846, 4074.000
1101.945, 4019.000
1103.043, 3926.000
1104.141, 3860.000
1105.239, 3838.000
1106.337, 3816.000
1107.434, 3741.000
1108.532, 3666.000
1109.629, 3689.000
1110.726, 3680.000
1111.823, 3717.000
1112.920, 3470.000
1114.017, 3552.000
1115.113, 3537.000
1116.210, 3500.000
1117.306, 3568.000
1118.402, 3515.000
1119.498, 3506.000
1120.593, 3483.000
1121.689, 3514.000
1122.784, 3535.000
1123.879, 3488.000
1124.974, 3434.000
1126.069, 3462.000
1127.164, 3473.000
1128.259, 3392.000
1129.353, 3459.000
1130.447, 3323.000
1131.541, 3258.000
1132.635, 3327.000
1133.729, 3355.000
1134.822, 3359.150
1135.916, 3349.000
1137.009, 3358.424
1138.102, 3339.000
1139.195, 3346.000
1140.288, 3323.000
1141.380, 3302.000
1142.473, 3311.000
1143.565, 3279.000
1144.657, 3302.000
1145.749, 3279.000
1146.841, 3274.116
1147.932, 3274.000
1149.024, 3268.000
1150.115, 3246.000
1151.206, 3259.000
1152.297, 3238.000
1153.388, 3201.000
1154.479, 3293.000
1155.569, 3205.000
1156.659, 3214.000
1157.750, 3143.000
1158.839, 3202.000
1159.929, 3177.000
1161.019, 3195.000
1162.108, 3187.000
1163.198, 3191.000
1164.287, 3112.000
1165.376, 3204.000
1166.465, 3183.000
1167.553, 3111.000
1168.642, 3209.000
1169.730, 3150.000
1170.818, 3149.000
1171.906, 3159.000
1172.994, 3156.000
1174.082, 3100.000
1175.170, 3037.000
1176.257, 3047.000
1177.344, 3024.653
1178.431, 3057.000
1179.518, 3034.000
1180.605, 3093.000
1181.691, 3090.000
1182.778, 3051.000
1183.864, 3127.000
1184.950, 3016.000
1186.036, 3093.000
1187.122, 3029.000
1188.207, 3029.000
1189.292, 3037.000
1190.378, 2981.000
1191.463, 2971.000
1192.548, 2999.000
1193.632, 2940.000
1194.717, 2955.000
1195.801, 3000.000
1196.886, 2982.000
1197.970, 2969.000
1199.054, 2973.000
1200.137, 2981.000
1201.221, 2965.000
1202.305, 2943.000
1203.388, 3034.000
1204.471, 2977.000
1205.554, 2992.000
1206.637, 2945.000
1207.719, 2956.000
1208.802, 2947.000
1209.884, 2970.000
1210.966, 2930.000
1212.048, 2970.000
1213.130, 2971.000
1214.212, 2915.000
1215.293, 2928.000
1216.374, 2911.306
1217.456, 2943.000
1218.536, 2895.000
1219.617, 2913.000
1220.698, 2894.090
1221.778, 2884.741
1222.859, 2911.000
1223.939, 2889.000
1225.019, 2880.000
1226.099, 2910.000
1227.178, 2954.000
1228.258, 2906.000
1229.337, 2963.000
1230.417, 2906.000
1231.496, 2916.000
1232.574, 2819.000
1233.653, 2936.000
1234.732, 2909.000
1235.810, 2892.000
1236.888, 2915.000
1237.966, 2877.000
1239.044, 2914.000
1240.122, 2884.000
1241.199, 2936.000
1242.277, 2882.000
1243.354, 2888.000
1244.431, 2861.000
1245.508, 2846.000
1246.585, 2881.000
1247.661, 2926.000
1248.738, 2916.000
1249.814, 2888.000
1250.890, 2893.000
1251.966, 2887.874
1253.042, 2873.642
1254.117, 2906.000
1255.193, 2841.000
1256.268, 2866.000
1257.343, 2823.000
1258.418, 2907.000
1259.493, 2842.000
1260.567, 2896.000
1261.642, 2779.000
1262.716, 2860.000
1263.790, 2861.000
1264.864, 2885.000
1265.938, 2830.000
1267.011, 2875.000
1268.085, 2868.000
1269.158, 2828.000
1270.231, 2832.000
1271.304, 2861.000
1272.377, 2834.000
1273.450, 2824.000
1274.522, 2796.000
1275.594, 2814.000
1276.666, 2828.000
1277.738, 2845.000
1278.810, 2848.000
1279.882, 2869.000
1280.953, 2789.000
1282.025, 2749.000
1283.096, 2772.000
1284.167, 2730.941
1285.238, 2771.000
1286.308, 2738.000
1287.379, 2744.000
1288.449, 2783.000
1289.519, 2738.000
1290.589, 2726.000
1291.659, 2801.000
1292.729, 2732.000
1293.798, 2794.000
1294.868, 2754.000
1295.937, 2762.000
1297.006, 2753.000
1298.075, 2834.000
1299.143, 2800.000
1300.212, 2795.000
1301.280, 2725.000
1302.348, 2813.000
1303.416, 2752.000
1304.484, 2761.000
1305.552, 2808.000
1306.620, 2800.000
1307.687, 2804.904
1308.754, 2710.000
1309.821, 2780.000
1310.888, 2737.000
1311.955, 2703.000
1313.021, 2758.000
1314.088, 2805.000
1315.154, 2774.000
1316.220, 2702.000
1317.286, 2799.000
1318.352, 2878.707
1319.417, 2756.000
1320.483, 2966.000
1321.548, 2841.213
1322.613, 2824.914
1323.678, 2727.000
1324.743, 2734.000
1325.807, 2736.000
1326.872, 2749.000
1327.936, 2740.000
1329.000, 2744.000
1330.064, 2765.000
1331.128, 2749.000
1332.191, 2745.000
1333.255, 2743.000
1334.318, 2773.000
1335.381, 2770.000
1336.444, 2755.902
1337.507, 2725.000
1338.569, 2728.000
1339.632, 2740.000
1340.694, 2760.000
1341.756, 2697.000
1342.818, 2755.000
1343.880, 2745.000
1344.941, 2775.000
1346.003, 2704.000
1347.064, 2689.000
1348.125, 2754.000
1349.186, 2712.000
1350.247, 2714.000
1351.308, 2722.000
1352.368, 2681.000
1353.428, 2686.000
1354.489, 2747.000
1355.549, 2740.000
1356.608, 2751.000
1357.668, 2751.000
1358.727, 2777.000
1359.787, 2703.000
1360.846, 2686.000
1361.905, 2685.000
1362.964, 2689.366
1364.022, 2662.182
1365.081, 2757.000
1366.139, 2663.000
1367.197, 2694.000
1368.255, 2800.000
1369.313, 2702.000
1370.371, 2708.000
1371.428, 2644.000
1372.486, 2666.000
1373.543, 2706.000
1374.600, 2755.000
1375.657, 2751.837
1376.713, 2672.000
1377.770, 2726.000
1378.826, 2718.000
1379.882, 2646.000
1380.938, 2704.000
1381.994, 2701.000
1383.050, 2705.000
1384.106, 2676.000
1385.161, 2657.000
1386.216, 2655.204
1387.271, 2670.706
1388.326, 2650.000
1389.381, 2710.000
1390.435, 2726.000
1391.490, 2702.000
1392.544, 2644.000
1393.598, 2779.000
1394.652, 2714.000
1395.705, 2743.000
1396.759, 2685.000
1397.812, 2848.000
1398.866, 2725.203
1399.919, 2726.000
1400.972, 2628.000
1402.024, 2630.000
1403.077, 2715.000
1404.129, 2709.000
1405.181, 2708.000
1406.233, 2742.000
1407.285, 2668.000
1408.337, 2664.000
1409.389, 2709.000
1410.440, 2743.000
1411.491, 2682.000
1412.542, 2662.000
1413.593, 2686.000
1414.644, 2679.000
1415.695, 2630.000
1416.745, 2661.000
1417.795, 2671.000
1418.845, 2685.000
1419.895, 2720.000
1420.945, 2644.000
1421.995, 2673.000
1423.044, 2664.000
1424.093, 2677.000
1425.142, 2705.000
1426.191, 2631.000
1427.240, 2733.000
1428.289, 2659.000
1429.337, 2670.000
1430.385, 2676.000
1431.433, 2698.000
1432.481, 2700.370
1433.529, 2715.837
1434.577, 2717.000
1435.624, 2717.000
1436.672, 2734.000
1437.719, 2683.000
1438.766, 2775.000
1439.812, 2680.000
1440.859, 2718.000
1441.905, 2695.000
1442.952, 2696.000
1443.998, 2693.000
1445.044, 2726.000
1446.090, 2641.000
1447.135, 2754.000
1448.181, 2733.000
1449.226, 2656.000
1450.271, 2639.000
1451.316, 2633.780
1452.361, 2662.000
1453.405, 2659.000
1454.450, 2703.000
1455.494, 2741.000
1456.538, 2681.000
1457.582, 2700.000
1458.626, 2671.000
1459.670, 2724.000
1460.713, 2708.000
1461.757, 2699.000
1462.800, 2682.000
1463.843, 2704.000
1464.886, 2750.000
1465.928, 2684.000
1466.971, 2688.000
1468.013, 2657.000
1469.055, 2707.000
1470.097, 2701.000
1471.139, 2688.000
1472.181, 2705.000
1473.222, 2677.000
1474.263, 2691.000
1475.305, 2696.760
1476.346, 2692.000
1477.386, 2705.000
1478.427, 2710.000
1479.468, 2686.000
1480.508, 2709.000
1481.548, 2726.000
1482.588, 2665.000
1483.628, 2701.000
1484.668, 2672.000
1485.707, 2674.000
1486.747, 2654.000
1487.786, 2701.000
1488.825, 2723.000
1489.864, 2704.000
1490.902, 2697.000
1491.941, 2688.000
1492.979, 2700.000
1494.017, 2700.000
1495.055, 2678.000
1496.093, 2697.000
1497.131, 2702.000
1498.168, 2655.000
1499.206, 2715.000
1500.243, 2690.000
1501.280, 2685.433
1502.317, 2722.000
1503.354, 2666.000
1504.390, 2679.000
1505.426, 2666.000
1506.463, 2683.000
1507.499, 2653.000
1508.535, 2674.000
1509.570, 2648.000
1510.606, 2645.000
1511.641, 2613.000
1512.676, 2601.000
1513.711, 2658.000
1514.746, 2618.000
1515.781, 2568.000
1516.816, 2657.000
1517.850, 2687.000
1518.884, 2660.314
1519.918, 2649.000
1520.952, 2642.000
1521.986, 2617.000
1523.019, 2640.000
1524.053, 2634.000
1525.086, 2671.000
1526.119, 2692.000
1527.152, 2675.750
1528.185, 2607.000
1529.217, 2638.000
1530.250, 2615.000
1531.282, 2577.000
1532.314, 2636.000
1533.346, 2654.000
1534.377, 2627.000
1535.409, 2610.000
1536.440, 2648.000
1537.472, 2626.000
1538.503, 2623.000
1539.534, 2603.000
1540.564, 2624.000
1541.595, 2627.000
1542.625, 2641.226
1543.656, 2651.000
1544.686, 2657.501
1545.716, 2671.000
1546.745, 2676.000
1547.775, 2692.057
1548.804, 2709.000
1549.834, 2736.000
1550.863, 2765.000
1551.892, 2830.000
1552.920, 2828.000
1553.949, 2732.000
1554.977, 2598.000
1556.006, 2611.000
1557.034, 2632.000
1558.062, 2601.000
1559.089, 2662.000
1560.117, 2604.000
1561.144, 2540.000
1562.172, 2620.000
1563.199, 2625.000
1564.226, 2600.000
1565.252, 2610.000
1566.279, 2670.000
1567.305, 2699.000
1568.332, 2658.000
1569.358, 2644.000
1570.384, 2653.000
##END=



