##NAMES=Chloritoid
##RRUFFID=R050334
##IDEAL CHEMISTRY=Fe^2+^Al_2_OSiO_4_(OH)_2_
##LOCALITY=Selçuk, Mugla Province, Turkey
##OWNER=RRUFF
##SOURCE=George Rossman
##DESCRIPTION=Dark greenish-black foliated cleavage fragments
##STATUS=The identification of this mineral is confirmed by single-crystal X-ray diffraction and chemical analysis.
##URL=rruff.info/R050334
##MEASURED CHEMISTRY=(Fe^2+^_1.84_Mg_0.12_Mn_0.04_)_Σ=2_(Al_3.95_Fe^3+^_0.05_)_Σ=4_Si_2.00_O_10_(OH)_4_ ; H not measured but estimated by difference and stoichiometry
##PIN_ID=M00341
##ORIENTATION=Laser parallel to b* (0 1 0). Fiducial mark perpendicular to laser is parallel to -c [0 0 -1]
89.77700, 9130.000
91.01200, 8923.000
92.24600, 8650.000
93.48000, 8518.000
94.71400, 8226.000
95.94800, 8511.000
97.18200, 8684.000
98.41600, 8731.000
99.64900, 8628.000
100.8830, 9363.000
102.1160, 10655.00
103.3490, 12246.00
104.5820, 14895.00
105.8150, 14808.85
107.0470, 14472.54
108.2800, 15328.00
109.5120, 12526.00
110.7440, 12819.00
111.9760, 13701.00
113.2080, 15147.00
114.4400, 14496.00
115.6710, 13697.00
116.9030, 12687.00
118.1340, 11494.00
119.3650, 10790.00
120.5960, 10284.00
121.8270, 9731.000
123.0580, 8540.000
124.2880, 8064.000
125.5190, 8162.000
126.7490, 8534.000
127.9790, 8498.000
129.2090, 8303.000
130.4390, 8045.000
131.6680, 7749.000
132.8980, 7827.000
134.1270, 8060.000
135.3560, 8501.000
136.5850, 8754.000
137.8140, 8627.000
139.0430, 8065.000
140.2710, 7766.000
141.5000, 7680.000
142.7280, 7750.000
143.9560, 7770.000
145.1840, 7812.000
146.4120, 7661.000
147.6390, 7799.000
148.8670, 8507.000
150.0940, 8774.000
151.3210, 8163.000
152.5490, 8044.000
153.7750, 7630.000
155.0020, 7398.666
156.2290, 7474.000
157.4550, 7152.000
158.6810, 7314.000
159.9080, 7509.000
161.1340, 7814.000
162.3590, 8276.000
163.5850, 8251.000
164.8110, 8201.000
166.0360, 8088.000
167.2610, 8347.000
168.4860, 8305.000
169.7110, 8262.000
170.9360, 7919.000
172.1610, 8033.000
173.3850, 7911.000
174.6100, 8027.000
175.8340, 7994.639
177.0580, 7944.872
178.2820, 8008.000
179.5050, 7949.000
180.7290, 8030.000
181.9520, 8250.000
183.1760, 8386.000
184.3990, 8473.000
185.6220, 8558.000
186.8450, 8516.000
188.0670, 8695.000
189.2900, 8867.000
190.5120, 9304.000
191.7340, 9336.000
192.9560, 9486.000
194.1780, 9656.000
195.4000, 9768.000
196.6220, 10099.00
197.8430, 10444.00
199.0640, 11103.00
200.2860, 11407.00
201.5070, 10749.00
202.7270, 9803.000
203.9480, 8959.000
205.1690, 8609.000
206.3890, 8799.000
207.6090, 8828.000
208.8290, 9641.000
210.0490, 9413.000
211.2690, 9372.000
212.4890, 9526.000
213.7080, 8980.000
214.9280, 8876.000
216.1470, 8726.000
217.3660, 8700.000
218.5850, 8574.000
219.8030, 8454.000
221.0220, 8400.000
222.2400, 8347.000
223.4590, 8247.000
224.6770, 8086.000
225.8950, 8038.000
227.1120, 7959.000
228.3300, 7776.000
229.5480, 7842.000
230.7650, 7799.000
231.9820, 7889.000
233.1990, 7780.000
234.4160, 7834.000
235.6330, 7898.000
236.8490, 8136.000
238.0660, 8470.000
239.2820, 8710.000
240.4980, 9127.000
241.7140, 9475.000
242.9300, 9834.000
244.1460, 10316.00
245.3610, 10784.00
246.5770, 11414.00
247.7920, 11980.00
249.0070, 12334.00
250.2220, 12780.00
251.4370, 12635.00
252.6510, 12606.00
253.8660, 12542.00
255.0800, 12602.00
256.2940, 12708.81
257.5080, 12224.35
258.7220, 11830.32
259.9360, 11225.00
261.1490, 10528.00
262.3630, 9990.000
263.5760, 9389.709
264.7890, 9164.000
266.0020, 9030.000
267.2150, 9116.000
268.4270, 9260.000
269.6400, 9489.000
270.8520, 10020.00
272.0640, 10484.00
273.2760, 10972.00
274.4880, 11457.00
275.7000, 11918.00
276.9120, 12352.00
278.1230, 13048.00
279.3340, 13328.00
280.5450, 13678.00
281.7560, 13920.00
282.9670, 13618.00
284.1780, 13067.00
285.3880, 12311.00
286.5980, 11667.00
287.8090, 10926.00
289.0190, 10382.00
290.2290, 10046.00
291.4380, 9762.000
292.6480, 9419.000
293.8570, 9285.000
295.0670, 9042.000
296.2760, 8832.000
297.4850, 8735.000
298.6930, 8587.000
299.9020, 8798.000
301.1110, 8747.000
302.3190, 8806.000
303.5270, 8711.000
304.7350, 8550.000
305.9430, 8586.000
307.1510, 8532.000
308.3580, 8318.000
309.5660, 8350.000
310.7730, 8101.000
311.9800, 8073.000
313.1870, 7917.000
314.3940, 7883.000
315.6010, 7700.000
316.8070, 7689.000
318.0130, 7723.000
319.2200, 7771.000
320.4260, 7779.000
321.6310, 7864.000
322.8370, 7947.000
324.0430, 8206.000
325.2480, 8270.000
326.4540, 8417.000
327.6590, 8538.000
328.8640, 8660.000
330.0680, 8796.000
331.2730, 8968.000
332.4780, 9096.000
333.6820, 9144.000
334.8860, 9071.000
336.0900, 8934.000
337.2940, 8717.000
338.4980, 8379.000
339.7010, 8270.000
340.9050, 8203.000
342.1080, 8084.000
343.3110, 7988.000
344.5140, 8380.000
345.7170, 8152.244
346.9200, 8132.000
348.1220, 8070.000
349.3240, 7737.000
350.5270, 7737.000
351.7290, 7588.000
352.9310, 7654.000
354.1320, 7610.000
355.3340, 7628.000
356.5350, 7756.000
357.7370, 7734.000
358.9380, 8002.000
360.1390, 8015.000
361.3400, 8162.000
362.5400, 7997.417
363.7410, 8109.102
364.9410, 8187.111
366.1410, 8233.280
367.3410, 8152.254
368.5410, 8235.476
369.7410, 8252.875
370.9400, 8267.546
372.1400, 8373.886
373.3390, 8311.330
374.5380, 8416.188
375.7370, 8454.218
376.9360, 8522.833
378.1350, 8525.219
379.3330, 8548.031
380.5310, 8723.000
381.7300, 8898.000
382.9280, 9080.000
384.1260, 9246.000
385.3230, 9454.000
386.5210, 9670.000
387.7180, 9773.000
388.9160, 9825.000
390.1130, 9572.000
391.3100, 9188.000
392.5060, 9032.000
393.7030, 8896.000
394.9000, 8640.000
396.0960, 8700.000
397.2920, 8616.000
398.4880, 8620.000
399.6840, 8559.000
400.8800, 8470.000
402.0750, 8455.000
403.2710, 8361.000
404.4660, 8419.000
405.6610, 8619.000
406.8560, 8618.000
408.0510, 8518.000
409.2450, 8762.000
410.4400, 8842.000
411.6340, 9003.000
412.8280, 9101.000
414.0220, 9181.000
415.2160, 9205.563
416.4100, 9195.604
417.6030, 9119.484
418.7970, 8933.000
419.9900, 8744.000
421.1830, 8638.000
422.3760, 8440.000
423.5690, 8486.000
424.7610, 8433.000
425.9540, 8332.000
427.1460, 8371.000
428.3380, 8654.405
429.5300, 8519.321
430.7220, 8463.226
431.9140, 8444.000
433.1050, 8202.000
434.2970, 8070.000
435.4880, 8122.000
436.6790, 8031.000
437.8700, 8107.000
439.0610, 8070.000
440.2510, 8149.000
441.4420, 8287.000
442.6320, 8347.000
443.8220, 8319.000
445.0120, 8416.000
446.2020, 8603.000
447.3910, 8610.000
448.5810, 8764.000
449.7700, 8867.000
450.9600, 8816.000
452.1490, 8886.000
453.3370, 9016.000
454.5260, 9070.000
455.7150, 9041.873
456.9030, 8993.000
458.0910, 8931.000
459.2800, 9004.000
460.4670, 8963.000
461.6550, 9045.000
462.8430, 9117.000
464.0300, 9225.000
465.2180, 9146.000
466.4050, 9360.000
467.5920, 9410.000
468.7790, 9580.000
469.9650, 9791.000
471.1520, 9833.000
472.3380, 10099.00
473.5250, 10156.00
474.7110, 10285.00
475.8970, 10331.00
477.0820, 10359.00
478.2680, 11174.00
479.4540, 10463.00
480.6390, 10676.91
481.8240, 10832.00
483.0090, 10399.00
484.1940, 10607.00
485.3780, 10609.00
486.5630, 10966.00
487.7470, 11065.00
488.9320, 11534.00
490.1160, 11900.00
491.3000, 12459.00
492.4830, 12910.00
493.6670, 13403.00
494.8500, 13971.00
496.0340, 14728.00
497.2170, 15132.00
498.4000, 15462.00
499.5820, 15753.00
500.7650, 15949.00
501.9480, 16006.00
503.1300, 15759.00
504.3120, 15858.00
505.4940, 15929.00
506.6760, 16167.00
507.8580, 16429.00
509.0390, 16784.00
510.2210, 16961.00
511.4020, 16812.00
512.5830, 16251.00
513.7640, 15599.00
514.9450, 14853.00
516.1250, 14302.00
517.3060, 13672.00
518.4860, 13373.14
519.6660, 13109.00
520.8460, 13117.00
522.0260, 13354.00
523.2060, 13707.00
524.3850, 14090.00
525.5650, 14380.00
526.7440, 14934.00
527.9230, 15221.00
529.1020, 15686.00
530.2810, 15661.00
531.4590, 15442.00
532.6380, 15086.00
533.8160, 14737.00
534.9940, 14343.00
536.1720, 14210.00
537.3500, 13904.00
538.5270, 14163.00
539.7050, 14968.00
540.8820, 15918.00
542.0590, 17727.00
543.2360, 19572.00
544.4130, 21497.00
545.5900, 23599.00
546.7660, 25224.00
547.9430, 27645.00
549.1190, 29657.00
550.2950, 31566.00
551.4710, 32006.00
552.6470, 31167.00
553.8220, 29455.00
554.9980, 25629.00
556.1730, 21654.00
557.3480, 17891.00
558.5230, 15164.00
559.6980, 13202.00
560.8730, 12119.00
562.0470, 11252.00
563.2220, 10623.00
564.3960, 10299.00
565.5700, 10082.00
566.7440, 9989.000
567.9170, 9843.625
569.0910, 9789.803
570.2640, 9799.000
571.4380, 9654.000
572.6110, 9763.000
573.7840, 9531.000
574.9570, 9698.000
576.1290, 9889.000
577.3020, 10270.00
578.4740, 10675.00
579.6460, 11200.00
580.8180, 12286.00
581.9900, 14000.00
583.1620, 16590.00
584.3330, 20381.00
585.5040, 25028.00
586.6760, 29247.00
587.8470, 31660.00
589.0180, 34942.00
590.1880, 39489.00
591.3590, 44941.00
592.5290, 50013.00
593.7000, 53486.00
594.8700, 54074.00
596.0400, 50905.00
597.2090, 43157.00
598.3790, 33090.00
599.5490, 24369.00
600.7180, 18927.00
601.8870, 15693.00
603.0560, 13824.00
604.2250, 12600.00
605.3940, 11692.00
606.5620, 11308.00
607.7300, 10811.00
608.8990, 10436.00
610.0670, 10038.00
611.2350, 9973.000
612.4020, 9520.000
613.5700, 9491.000
614.7370, 9315.000
615.9050, 9164.000
617.0720, 8991.000
618.2390, 9031.000
619.4060, 8791.000
620.5720, 8766.000
621.7390, 8767.545
622.9050, 8668.072
624.0710, 8742.000
625.2370, 8678.000
626.4030, 8525.000
627.5690, 8658.000
628.7340, 8564.000
629.9000, 8452.000
631.0650, 8379.211
632.2300, 8456.423
633.3950, 8499.988
634.5600, 8511.715
635.7240, 8396.244
636.8890, 8445.023
638.0530, 8427.979
639.2170, 8408.236
640.3810, 8245.000
641.5450, 8378.000
642.7080, 8314.000
643.8720, 8229.000
645.0350, 8388.000
646.1980, 8331.000
647.3610, 8332.000
648.5240, 8267.000
649.6870, 8316.000
650.8490, 8303.000
652.0120, 8371.000
653.1740, 8326.000
654.3360, 8264.000
655.4980, 8420.000
656.6600, 8431.000
657.8210, 8532.000
658.9830, 8507.000
660.1440, 8558.921
661.3050, 8717.000
662.4660, 8638.000
663.6270, 8699.000
664.7870, 8786.000
665.9480, 8855.000
667.1080, 8833.000
668.2680, 8692.000
669.4280, 8651.000
670.5880, 8500.000
671.7480, 8548.000
672.9070, 8309.000
674.0670, 8300.000
675.2260, 8223.000
676.3850, 8254.000
677.5440, 8225.000
678.7030, 8300.000
679.8610, 8210.000
681.0200, 8247.000
682.1780, 8336.000
683.3360, 8351.000
684.4940, 8206.127
685.6520, 8305.861
686.8090, 8371.931
687.9670, 8406.181
689.1240, 8313.213
690.2810, 8384.494
691.4380, 8364.000
692.5950, 8440.000
693.7520, 8373.000
694.9080, 8369.000
696.0650, 8414.912
697.2210, 8446.000
698.3770, 8515.000
699.5330, 8553.000
700.6880, 8664.000
701.8440, 8634.000
702.9990, 8544.000
704.1550, 8850.000
705.3100, 8723.000
706.4650, 8859.000
707.6190, 9001.000
708.7740, 9153.000
709.9290, 9230.000
711.0830, 9382.000
712.2370, 9440.000
713.3910, 9519.000
714.5450, 9731.000
715.6980, 9969.000
716.8520, 10152.00
718.0050, 10333.00
719.1580, 10605.35
720.3110, 10996.28
721.4640, 11353.58
722.6170, 11679.03
723.7700, 11877.28
724.9220, 12330.00
726.0740, 12844.00
727.2260, 13084.00
728.3780, 13373.00
729.5300, 13878.00
730.6810, 14126.00
731.8330, 14330.00
732.9840, 14495.00
734.1350, 14629.00
735.2860, 14375.00
736.4370, 14259.00
737.5880, 14108.00
738.7380, 13954.00
739.8880, 13827.00
741.0390, 13455.00
742.1890, 13207.00
743.3380, 12802.00
744.4880, 12523.00
745.6380, 12150.00
746.7870, 11723.00
747.9360, 11521.00
749.0850, 11044.00
750.2340, 10770.00
751.3830, 10722.00
752.5310, 10343.00
753.6800, 10227.00
754.8280, 10089.00
755.9760, 9954.000
757.1240, 9890.000
758.2720, 9751.000
759.4190, 9662.000
760.5670, 9604.000
761.7140, 9562.000
762.8610, 9430.000
764.0080, 9532.000
765.1550, 9393.000
766.3020, 9421.000
767.4480, 9467.000
768.5950, 9421.000
769.7410, 9419.048
770.8870, 9371.000
772.0330, 9356.000
773.1780, 9321.000
774.3240, 9309.000
775.4690, 9424.000
776.6140, 9343.000
777.7590, 9235.000
778.9040, 9310.000
780.0490, 9226.990
781.1940, 9285.000
782.3380, 9214.000
783.4820, 9274.000
784.6260, 9337.000
785.7700, 9307.000
786.9140, 9340.000
788.0580, 9310.000
789.2010, 9471.000
790.3450, 9477.000
791.4880, 9419.000
792.6310, 9436.000
793.7730, 9387.000
794.9160, 9652.000
796.0590, 9453.000
797.2010, 9656.000
798.3430, 9646.000
799.4850, 9695.000
800.6270, 9593.000
801.7690, 9601.000
802.9100, 9775.000
804.0520, 9724.000
805.1930, 9661.000
806.3340, 9820.000
807.4750, 9764.000
808.6160, 9769.000
809.7560, 9823.000
810.8970, 9821.000
812.0370, 9825.000
813.1770, 9879.000
814.3170, 9936.000
815.4570, 9814.000
816.5960, 9918.000
817.7360, 10062.00
818.8750, 10281.00
820.0140, 10264.00
821.1530, 10386.00
822.2920, 10677.00
823.4310, 10786.00
824.5690, 10903.00
825.7070, 11050.00
826.8460, 11346.00
827.9840, 11612.00
829.1220, 11678.00
830.2590, 12256.00
831.3970, 12381.00
832.5340, 12670.00
833.6710, 13069.00
834.8080, 13424.00
835.9450, 13578.00
837.0820, 13887.00
838.2190, 14154.00
839.3550, 14176.00
840.4910, 14405.00
841.6270, 14383.00
842.7630, 14353.00
843.8990, 14183.00
845.0350, 14187.00
846.1700, 14060.00
847.3060, 14058.00
848.4410, 13944.00
849.5760, 13927.02
850.7100, 13841.00
851.8450, 13894.00
852.9800, 13856.00
854.1140, 13847.00
855.2480, 13880.00
856.3820, 13954.37
857.5160, 14026.00
858.6500, 14282.00
859.7830, 14501.95
860.9170, 14790.00
862.0500, 15180.00
863.1830, 15625.00
864.3160, 16117.00
865.4480, 16735.00
866.5810, 17462.00
867.7130, 18271.00
868.8460, 19346.00
869.9780, 20383.00
871.1100, 21396.00
872.2410, 22671.00
873.3730, 23855.00
874.5050, 24861.00
875.6360, 25841.00
876.7670, 26591.00
877.8980, 26857.17
879.0290, 26938.71
880.1590, 26748.00
881.2900, 26093.00
882.4200, 25391.00
883.5500, 24228.00
884.6800, 23203.00
885.8100, 22057.20
886.9400, 20983.89
888.0690, 19784.00
889.1990, 19037.00
890.3280, 18412.00
891.4570, 17925.00
892.5860, 17582.58
893.7140, 17349.00
894.8430, 17310.00
895.9710, 17339.00
897.1000, 17560.00
898.2280, 17840.00
899.3560, 18147.00
900.4830, 18536.00
901.6110, 18797.00
902.7380, 18893.00
903.8660, 19058.00
904.9930, 18885.00
906.1200, 18547.00
907.2460, 18017.00
908.3730, 17617.00
909.5000, 16836.00
910.6260, 16460.00
911.7520, 15700.00
912.8780, 14999.00
914.0040, 14559.00
915.1290, 14208.00
916.2550, 13769.00
917.3800, 13546.00
918.5050, 13174.00
919.6300, 12893.00
920.7550, 12712.03
921.8800, 12492.14
923.0040, 12386.00
924.1290, 12275.00
925.2530, 12159.00
926.3770, 12208.00
927.5010, 11993.00
928.6250, 11917.00
929.7480, 11642.00
930.8720, 11838.00
931.9950, 11733.00
933.1180, 11790.00
934.2410, 11925.00
935.3640, 12018.00
936.4860, 11649.00
937.6090, 11757.00
938.7310, 11725.00
939.8530, 11846.00
940.9750, 11887.00
942.0970, 11720.00
943.2180, 11694.00
944.3400, 11974.00
945.4610, 11802.00
946.5820, 11918.00
947.7030, 12057.00
948.8240, 11902.00
949.9450, 12194.00
951.0650, 12046.00
952.1860, 12140.00
953.3060, 12150.00
954.4260, 12143.00
955.5460, 12203.00
956.6650, 12096.00
957.7850, 12313.00
958.9040, 12187.00
960.0230, 12048.00
961.1420, 12158.00
962.2610, 12161.00
963.3800, 12218.00
964.4990, 12113.00
965.6170, 12004.00
966.7350, 12095.00
967.8530, 12014.00
968.9710, 12152.00
970.0890, 12133.00
971.2070, 11986.00
972.3240, 11881.00
973.4410, 11870.00
974.5580, 11739.00
975.6750, 11773.00
976.7920, 11728.00
977.9090, 11673.23
979.0250, 11665.01
980.1410, 11646.00
981.2580, 11566.00
982.3740, 11663.00
983.4890, 11556.00
984.6050, 11405.00
985.7200, 11505.00
986.8360, 11470.00
987.9510, 11356.00
989.0660, 11371.00
990.1810, 11441.00
991.2950, 11452.00
992.4100, 11605.00
993.5240, 11528.00
994.6390, 11504.00
995.7530, 11625.00
996.8660, 11542.87
997.9800, 11748.00
999.0940, 11541.00
1000.207, 11608.00
1001.320, 11688.00
1002.433, 11591.82
1003.546, 11802.00
1004.659, 11530.00
1005.772, 11648.00
1006.884, 11585.00
1007.996, 11555.00
1009.108, 11588.00
1010.220, 11624.00
1011.332, 11755.00
1012.444, 11625.00
1013.555, 11625.00
1014.666, 11632.00
1015.777, 11542.00
1016.888, 11553.79
1017.999, 11517.25
1019.110, 11566.00
1020.220, 11457.67
1021.331, 11544.38
1022.441, 11597.43
1023.551, 11618.64
1024.661, 11512.66
1025.770, 11570.91
1026.880, 11563.36
1027.989, 11553.09
1029.098, 11634.46
1030.207, 11546.97
1031.316, 11626.89
1032.425, 11589.00
1033.533, 11609.00
1034.642, 11650.00
1035.750, 11728.00
1036.858, 11560.00
1037.966, 11724.00
1039.073, 11623.00
1040.181, 11755.00
1041.288, 11624.00
1042.396, 11707.00
1043.503, 11738.00
1044.610, 11743.00
1045.716, 11662.00
1046.823, 11692.00
1047.929, 11681.85
1049.036, 11670.00
1050.142, 11728.00
1051.248, 11706.00
1052.353, 11777.00
1053.459, 11788.79
1054.564, 11763.00
1055.670, 11858.00
1056.775, 11837.00
1057.880, 11914.00
1058.985, 11889.00
1060.089, 11812.00
1061.194, 11810.00
1062.298, 12017.00
1063.402, 11922.00
1064.506, 11811.00
1065.610, 12032.00
1066.713, 11899.00
1067.817, 12076.00
1068.920, 12017.00
1070.023, 12007.00
1071.126, 11994.00
1072.229, 11869.00
1073.332, 12069.00
1074.435, 12186.00
1075.537, 12061.00
1076.639, 11998.00
1077.741, 12067.00
1078.843, 12167.00
1079.945, 12221.00
1081.046, 12333.00
1082.148, 12472.00
1083.249, 12499.00
1084.350, 12622.80
1085.451, 12673.18
1086.551, 12783.00
1087.652, 12753.00
1088.752, 12783.00
1089.853, 12770.00
1090.953, 12750.00
1092.053, 12770.00
1093.152, 12800.00
1094.252, 12709.00
1095.351, 12571.00
1096.451, 12683.00
1097.550, 12448.00
1098.649, 12252.00
1099.748, 12125.00
1100.846, 12214.00
1101.945, 12172.00
1103.043, 12012.00
1104.141, 11801.00
1105.239, 11923.44
1106.337, 12070.00
1107.434, 12158.93
1108.532, 11693.00
1109.629, 11839.00
1110.726, 11720.00
1111.823, 11791.00
1112.920, 11614.00
1114.017, 11619.00
1115.113, 11638.00
1116.210, 11658.00
1117.306, 11584.00
1118.402, 11578.00
1119.498, 11781.00
1120.593, 11616.00
1121.689, 11673.00
1122.784, 11682.00
1123.879, 11585.00
1124.974, 11563.00
1126.069, 11586.64
1127.164, 11646.00
1128.259, 11584.00
1129.353, 11511.00
1130.447, 11361.00
1131.541, 11361.51
1132.635, 11420.00
1133.729, 11340.00
1134.822, 11473.00
1135.916, 11525.00
1137.009, 11539.00
1138.102, 11563.00
1139.195, 11540.90
1140.288, 11513.45
1141.380, 11442.00
1142.473, 11438.00
1143.565, 11332.00
1144.657, 11332.00
1145.749, 11352.00
1146.841, 11419.00
1147.932, 11390.00
1149.024, 11332.00
1150.115, 11301.00
1151.206, 11325.00
1152.297, 11222.00
1153.388, 11318.00
1154.479, 11226.00
1155.569, 11301.00
1156.659, 11318.17
1157.750, 11248.53
1158.839, 11332.00
1159.929, 11249.00
1161.019, 11147.00
1162.108, 11374.00
1163.198, 11357.00
1164.287, 11216.00
1165.376, 11214.00
1166.465, 11153.00
1167.553, 11238.00
1168.642, 11307.00
1169.730, 11256.00
1170.818, 11088.00
1171.906, 11213.00
1172.994, 11231.00
1174.082, 11191.00
1175.170, 11268.00
1176.257, 11197.00
1177.344, 11069.00
1178.431, 11170.00
1179.518, 11081.00
1180.605, 11214.00
1181.691, 11168.00
1182.778, 11169.00
1183.864, 11179.00
1184.950, 11123.46
1186.036, 11149.00
1187.122, 11066.00
1188.207, 11054.00
1189.292, 11092.00
1190.378, 11052.76
1191.463, 11125.00
1192.548, 11077.00
1193.632, 11038.00
1194.717, 11101.00
1195.801, 11048.00
1196.886, 11016.00
1197.970, 11118.00
1199.054, 11132.00
1200.137, 11087.00
1201.221, 11095.00
1202.305, 11069.07
1203.388, 11028.00
1204.471, 11050.00
1205.554, 11044.00
1206.637, 11096.00
1207.719, 11067.00
1208.802, 11008.00
1209.884, 11118.00
1210.966, 11202.00
1212.048, 11120.00
1213.130, 11120.00
1214.212, 11117.47
1215.293, 11056.14
1216.374, 11115.00
1217.456, 11012.00
1218.536, 11073.00
1219.617, 11148.00
1220.698, 11188.00
1221.778, 11137.00
1222.859, 11089.00
1223.939, 11108.00
1225.019, 11096.00
1226.099, 11153.00
1227.178, 11195.00
1228.258, 11165.00
1229.337, 11128.00
1230.417, 11139.00
1231.496, 11126.00
1232.574, 11133.09
1233.653, 11131.56
1234.732, 11165.00
1235.810, 11137.00
1236.888, 11159.00
1237.966, 11178.00
1239.044, 11175.00
1240.122, 11166.00
1241.199, 11211.00
1242.277, 11145.00
1243.354, 11130.00
1244.431, 11143.00
1245.508, 11150.76
1246.585, 11167.13
1247.661, 11226.00
1248.738, 11205.00
1249.814, 11236.00
1250.890, 11233.00
1251.966, 11195.00
1253.042, 11197.00
1254.117, 11174.00
1255.193, 11234.00
1256.268, 11108.00
1257.343, 11042.00
1258.418, 11285.00
1259.493, 11072.00
1260.567, 11241.00
1261.642, 11219.00
1262.716, 11087.00
1263.790, 11165.00
1264.864, 11261.00
1265.938, 11250.00
1267.011, 11181.00
1268.085, 11028.00
1269.158, 11015.00
1270.231, 11316.00
1271.304, 11181.00
1272.377, 11209.00
1273.450, 11259.00
1274.522, 11201.00
1275.594, 11132.00
1276.666, 11180.00
1277.738, 11179.00
1278.810, 11167.15
1279.882, 11202.00
1280.953, 11189.00
1282.025, 11184.00
1283.096, 11235.00
1284.167, 11202.00
1285.238, 11197.00
1286.308, 11346.00
1287.379, 11154.00
1288.449, 11308.00
1289.519, 11265.00
1290.589, 11393.00
1291.659, 11190.00
1292.729, 11273.00
1293.798, 11200.00
1294.868, 11241.00
1295.937, 11330.00
1297.006, 11223.00
1298.075, 11324.00
1299.143, 11416.00
1300.212, 11286.00
1301.280, 11310.00
1302.348, 11246.00
1303.416, 11347.00
1304.484, 11216.00
1305.552, 11379.00
1306.620, 11130.00
1307.687, 11271.00
1308.754, 11342.00
1309.821, 11275.00
1310.888, 11381.00
1311.955, 11271.00
1313.021, 11270.00
1314.088, 11509.00
1315.154, 11414.15
1316.220, 11473.04
1317.286, 11432.00
1318.352, 11447.00
1319.417, 11415.00
1320.483, 11376.00
1321.548, 11325.00
1322.613, 11347.58
1323.678, 11432.00
1324.743, 11382.00
1325.807, 11455.00
1326.872, 11449.00
1327.936, 11339.00
1329.000, 11417.00
1330.064, 11389.00
1331.128, 11466.00
1332.191, 11406.00
1333.255, 11382.00
1334.318, 11465.00
1335.381, 11379.00
1336.444, 11359.00
1337.507, 11608.00
1338.569, 11419.00
1339.632, 11370.00
1340.694, 11582.00
1341.756, 11456.00
1342.818, 11473.00
1343.880, 11349.00
1344.941, 11350.00
1346.003, 11394.00
1347.064, 11331.00
1348.125, 11368.00
1349.186, 11443.00
1350.247, 11395.00
1351.308, 11546.00
1352.368, 11349.00
1353.428, 11442.00
1354.489, 11444.00
1355.549, 11491.00
1356.608, 11419.00
1357.668, 11492.00
1358.727, 11594.00
1359.787, 11482.00
1360.846, 11522.00
1361.905, 11451.00
1362.964, 11530.00
1364.022, 11464.00
1365.081, 11512.00
1366.139, 11443.00
1367.197, 11445.40
1368.255, 11543.00
1369.313, 11476.00
1370.371, 11362.00
1371.428, 11471.00
1372.486, 11567.00
1373.543, 11508.00
1374.600, 11562.00
1375.657, 11564.00
1376.713, 11594.31
1377.770, 11613.00
1378.826, 11667.00
1379.882, 11720.00
1380.938, 11716.72
1381.994, 11701.67
1383.050, 11579.00
1384.106, 11601.00
1385.161, 11556.00
1386.216, 11482.00
1387.271, 11545.00
1388.326, 11567.00
1389.381, 11572.09
1390.435, 11592.00
1391.490, 11648.00
1392.544, 11600.00
1393.598, 11673.00
1394.652, 11553.00
1395.705, 11700.00
1396.759, 11638.00
1397.812, 11697.00
1398.866, 11734.51
1399.919, 11655.00
1400.972, 11731.00
1402.024, 11736.00
1403.077, 11617.00
1404.129, 11634.00
1405.181, 11670.00
1406.233, 11672.00
1407.285, 11746.00
1408.337, 11801.00
1409.389, 11589.00
1410.440, 11653.00
1411.491, 11589.00
1412.542, 11672.00
1413.593, 11809.00
1414.644, 11765.00
1415.695, 11704.00
1416.745, 11756.00
1417.795, 11564.00
1418.845, 11727.00
1419.895, 11612.00
1420.945, 11605.00
1421.995, 11714.00
1423.044, 11703.00
1424.093, 11751.00
1425.142, 11709.00
1426.191, 11758.00
1427.240, 11738.00
1428.289, 11780.00
1429.337, 11780.00
1430.385, 11716.00
1431.433, 11776.00
1432.481, 11741.00
1433.529, 11751.35
1434.577, 11721.00
1435.624, 11779.00
1436.672, 11871.00
1437.719, 11907.00
1438.766, 11740.00
1439.812, 11804.00
1440.859, 11745.00
1441.905, 11760.00
1442.952, 11852.00
1443.998, 11798.00
1445.044, 11849.25
1446.090, 11910.29
1447.135, 11882.00
1448.181, 11917.00
1449.226, 11929.00
1450.271, 11660.00
1451.316, 11879.00
1452.361, 11722.00
1453.405, 11809.00
1454.450, 11828.00
1455.494, 12012.00
1456.538, 11805.00
1457.582, 11874.00
1458.626, 11888.00
1459.670, 11633.00
1460.713, 11876.00
1461.757, 11771.00
1462.800, 11684.00
1463.843, 11891.00
1464.886, 11874.00
1465.928, 11844.00
1466.971, 12024.00
1468.013, 11956.00
1469.055, 11937.00
1470.097, 11929.00
1471.139, 11794.00
1472.181, 11887.00
1473.222, 11940.00
1474.263, 11917.00
1475.305, 11857.00
1476.346, 11872.00
1477.386, 11844.00
1478.427, 11888.00
1479.468, 11888.00
1480.508, 11945.00
1481.548, 11906.00
1482.588, 12065.00
1483.628, 11924.00
1484.668, 11793.00
1485.707, 11824.00
1486.747, 11970.00
1487.786, 11933.00
1488.825, 11981.00
1489.864, 11856.00
1490.902, 12012.00
1491.941, 12144.00
1492.979, 12076.00
1494.017, 11947.00
1495.055, 11974.00
1496.093, 11950.00
1497.131, 12049.00
1498.168, 11947.00
1499.206, 11907.00
1500.243, 12020.00
1501.280, 11908.00
1502.317, 11882.00
1503.354, 12069.00
1504.390, 12133.00
1505.426, 12038.00
1506.463, 12049.00
1507.499, 12054.57
1508.535, 12097.00
1509.570, 12077.00
1510.606, 12036.00
1511.641, 12072.00
1512.676, 11989.00
1513.711, 11978.00
1514.746, 11965.00
1515.781, 11923.00
1516.816, 12103.00
1517.850, 12055.00
1518.884, 12125.00
1519.918, 11930.00
1520.952, 11890.00
1521.986, 12076.00
1523.019, 12091.00
1524.053, 12117.00
1525.086, 11912.00
1526.119, 12063.00
1527.152, 12167.00
1528.185, 12014.00
1529.217, 12083.00
1530.250, 12183.00
1531.282, 12078.00
1532.314, 12225.00
1533.346, 12124.67
1534.377, 12142.00
1535.409, 12021.00
1536.440, 12034.00
1537.472, 12018.09
1538.503, 12099.80
1539.534, 12147.86
1540.564, 12164.08
1541.595, 12053.10
1542.625, 12106.37
1543.656, 12093.82
1544.686, 12078.56
1545.716, 12154.95
1546.745, 12062.46
1547.775, 12137.40
1548.804, 12145.50
1549.834, 12184.19
1550.863, 12156.64
1551.892, 12149.55
1552.920, 12208.71
1553.949, 12231.19
1554.977, 12196.02
1556.006, 12236.65
1557.034, 12141.84
1558.062, 12165.88
1559.089, 12241.19
1560.117, 12209.34
1561.144, 12251.17
1562.172, 12264.95
1563.199, 12151.19
1564.226, 12259.22
1565.252, 12271.32
1566.279, 12184.95
1567.305, 12364.00
1568.332, 12197.00
1569.358, 12276.00
1570.384, 12182.00
##END=



