##NAMES=Chloritoid
##RRUFFID=R050334
##IDEAL CHEMISTRY=Fe^2+^Al_2_OSiO_4_(OH)_2_
##LOCALITY=Selçuk, Mugla Province, Turkey
##OWNER=RRUFF
##SOURCE=George Rossman
##DESCRIPTION=Dark greenish-black foliated cleavage fragments
##STATUS=The identification of this mineral is confirmed by single-crystal X-ray diffraction and chemical analysis.
##URL=rruff.info/R050334
##MEASURED CHEMISTRY=(Fe^2+^_1.84_Mg_0.12_Mn_0.04_)_Σ=2_(Al_3.95_Fe^3+^_0.05_)_Σ=4_Si_2.00_O_10_(OH)_4_ ; H not measured but estimated by difference and stoichiometry
##PIN_ID=M00341
##ORIENTATION=Laser parallel to b* (0 1 0). Fiducial mark perpendicular to laser is parallel to -c [0 0 -1]
89.77700, 5963.000
91.01200, 5646.000
92.24600, 5612.000
93.48000, 5534.000
94.71400, 5440.000
95.94800, 5564.000
97.18200, 5870.000
98.41600, 5861.000
99.64900, 5970.000
100.8830, 6536.000
102.1160, 7390.000
103.3490, 8522.000
104.5820, 8920.355
105.8150, 9951.970
107.0470, 9748.237
108.2800, 9875.000
109.5120, 9716.112
110.7440, 9799.569
111.9760, 9439.000
113.2080, 9734.000
114.4400, 9144.000
115.6710, 8561.000
116.9030, 7654.000
118.1340, 7167.000
119.3650, 6770.000
120.5960, 6557.000
121.8270, 6612.000
123.0580, 6491.000
124.2880, 6155.640
125.5190, 6077.863
126.7490, 5869.380
127.9790, 5629.000
129.2090, 5608.000
130.4390, 5339.000
131.6680, 5362.000
132.8980, 5513.000
134.1270, 5517.000
135.3560, 5762.000
136.5850, 5690.334
137.8140, 5634.684
139.0430, 5593.000
140.2710, 5472.000
141.5000, 5384.000
142.7280, 5517.000
143.9560, 5665.615
145.1840, 6794.000
146.4120, 6110.000
147.6390, 6634.000
148.8670, 6667.000
150.0940, 6326.000
151.3210, 5686.000
152.5490, 5240.000
153.7750, 5085.000
155.0020, 4902.000
156.2290, 4751.000
157.4550, 4775.000
158.6810, 4790.000
159.9080, 4949.000
161.1340, 5085.000
162.3590, 5131.282
163.5850, 5224.512
164.8110, 5296.000
166.0360, 5322.000
167.2610, 5447.000
168.4860, 5510.000
169.7110, 5371.000
170.9360, 5210.000
172.1610, 5224.000
173.3850, 5211.000
174.6100, 5261.000
175.8340, 5326.000
177.0580, 5295.000
178.2820, 5294.000
179.5050, 5253.000
180.7290, 5373.000
181.9520, 5396.000
183.1760, 5587.000
184.3990, 5656.000
185.6220, 5751.000
186.8450, 5858.000
188.0670, 5955.000
189.2900, 6164.000
190.5120, 6326.000
191.7340, 6512.000
192.9560, 6775.000
194.1780, 6917.000
195.4000, 7173.000
196.6220, 7533.000
197.8430, 8052.000
199.0640, 8707.000
200.2860, 8952.000
201.5070, 8740.000
202.7270, 8413.000
203.9480, 8893.000
205.1690, 8602.740
206.3890, 8955.000
207.6090, 8632.000
208.8290, 8729.000
210.0490, 8925.000
211.2690, 8791.000
212.4890, 8742.000
213.7080, 8535.000
214.9280, 8300.000
216.1470, 8057.000
217.3660, 7844.000
218.5850, 7660.000
219.8030, 7343.000
221.0220, 7203.000
222.2400, 7039.000
223.4590, 6938.000
224.6770, 6747.000
225.8950, 6706.000
227.1120, 6663.000
228.3300, 6473.000
229.5480, 6497.000
230.7650, 6473.000
231.9820, 6609.000
233.1990, 6836.000
234.4160, 6899.000
235.6330, 7208.000
236.8490, 7759.000
238.0660, 8262.000
239.2820, 9069.000
240.4980, 9942.000
241.7140, 10623.00
242.9300, 11247.00
244.1460, 11927.00
245.3610, 12693.00
246.5770, 13694.00
247.7920, 14287.00
249.0070, 14802.00
250.2220, 14710.00
251.4370, 14135.00
252.6510, 13184.00
253.8660, 12158.00
255.0800, 11131.00
256.2940, 10312.75
257.5080, 9301.360
258.7220, 8782.000
259.9360, 7691.000
261.1490, 7125.000
262.3630, 6896.000
263.5760, 6589.000
264.7890, 6370.000
266.0020, 6412.000
267.2150, 6509.000
268.4270, 6883.000
269.6400, 7200.000
270.8520, 7772.000
272.0640, 8194.000
273.2760, 8574.000
274.4880, 8921.000
275.7000, 9323.000
276.9120, 9548.000
278.1230, 9925.000
279.3340, 10292.00
280.5450, 10407.00
281.7560, 10307.00
282.9670, 10096.00
284.1780, 9483.000
285.3880, 8941.000
286.5980, 8428.000
287.8090, 7742.000
289.0190, 7340.000
290.2290, 7053.000
291.4380, 6880.000
292.6480, 6712.000
293.8570, 6464.000
295.0670, 6445.000
296.2760, 6298.000
297.4850, 6200.000
298.6930, 6238.000
299.9020, 6233.000
301.1110, 6288.000
302.3190, 6489.000
303.5270, 6379.000
304.7350, 6456.000
305.9430, 6387.000
307.1510, 6397.000
308.3580, 6287.000
309.5660, 6283.000
310.7730, 6281.000
311.9800, 6285.000
313.1870, 6098.000
314.3940, 6079.000
315.6010, 6028.000
316.8070, 5914.000
318.0130, 6070.000
319.2200, 6091.000
320.4260, 6326.000
321.6310, 6603.000
322.8370, 6864.000
324.0430, 6987.000
325.2480, 7296.000
326.4540, 7456.000
327.6590, 7669.000
328.8640, 7865.000
330.0680, 8230.000
331.2730, 8316.000
332.4780, 8318.000
333.6820, 8223.000
334.8860, 8118.000
336.0900, 7637.000
337.2940, 7319.000
338.4980, 6708.000
339.7010, 6329.000
340.9050, 6117.000
342.1080, 5997.000
343.3110, 5862.000
344.5140, 5724.000
345.7170, 5738.000
346.9200, 5625.000
348.1220, 5602.000
349.3240, 5391.000
350.5270, 5218.000
351.7290, 5189.000
352.9310, 5285.000
354.1320, 5207.769
355.3340, 5149.000
356.5350, 5240.000
357.7370, 5223.000
358.9380, 5259.000
360.1390, 5298.000
361.3400, 5375.000
362.5400, 5371.000
363.7410, 5388.000
364.9410, 5426.000
366.1410, 5447.000
367.3410, 5495.000
368.5410, 5403.000
369.7410, 5451.000
370.9400, 5447.000
372.1400, 5368.000
373.3390, 5480.000
374.5380, 5546.000
375.7370, 5684.000
376.9360, 5758.000
378.1350, 5758.000
379.3330, 5886.000
380.5310, 5918.000
381.7300, 5996.000
382.9280, 6186.000
384.1260, 6227.000
385.3230, 6298.000
386.5210, 6405.000
387.7180, 6480.000
388.9160, 6397.000
390.1130, 6329.000
391.3100, 6202.000
392.5060, 6153.000
393.7030, 6029.000
394.9000, 6012.000
396.0960, 5855.000
397.2920, 5887.000
398.4880, 5863.000
399.6840, 5819.000
400.8800, 5722.000
402.0750, 5791.000
403.2710, 5766.000
404.4660, 5765.000
405.6610, 5794.000
406.8560, 5816.000
408.0510, 5817.773
409.2450, 5860.621
410.4400, 5841.000
411.6340, 5885.000
412.8280, 5925.000
414.0220, 5837.000
415.2160, 5822.000
416.4100, 5877.000
417.6030, 5808.000
418.7970, 5745.000
419.9900, 5677.000
421.1830, 5568.000
422.3760, 5581.000
423.5690, 5741.000
424.7610, 5645.000
425.9540, 5673.000
427.1460, 5680.000
428.3380, 5512.000
429.5300, 5624.000
430.7220, 5546.840
431.9140, 5507.400
433.1050, 5531.000
434.2970, 5458.000
435.4880, 5499.000
436.6790, 5526.000
437.8700, 5497.000
439.0610, 5581.000
440.2510, 5505.000
441.4420, 5727.000
442.6320, 5628.000
443.8220, 5695.000
445.0120, 5770.000
446.2020, 5928.000
447.3910, 5913.000
448.5810, 5894.000
449.7700, 6014.000
450.9600, 5955.000
452.1490, 6106.000
453.3370, 6115.000
454.5260, 6128.000
455.7150, 6196.000
456.9030, 6248.000
458.0910, 6283.000
459.2800, 6318.000
460.4670, 6290.000
461.6550, 6382.000
462.8430, 6579.000
464.0300, 6832.000
465.2180, 6811.000
466.4050, 7148.000
467.5920, 7280.000
468.7790, 7467.000
469.9650, 7633.000
471.1520, 7853.000
472.3380, 7912.000
473.5250, 8168.000
474.7110, 8215.000
475.8970, 8280.000
477.0820, 8321.000
478.2680, 8413.000
479.4540, 8516.000
480.6390, 8437.000
481.8240, 8385.000
483.0090, 8551.000
484.1940, 8643.973
485.3780, 8989.000
486.5630, 9125.000
487.7470, 9637.000
488.9320, 10073.00
490.1160, 10498.00
491.3000, 10874.00
492.4830, 11342.00
493.6670, 11805.00
494.8500, 12064.00
496.0340, 12368.00
497.2170, 12659.00
498.4000, 12801.00
499.5820, 12722.00
500.7650, 12763.00
501.9480, 12563.00
503.1300, 12562.00
504.3120, 12453.00
505.4940, 12434.00
506.6760, 12706.00
507.8580, 12856.00
509.0390, 12835.00
510.2210, 12839.00
511.4020, 12909.00
512.5830, 12671.00
513.7640, 12505.00
514.9450, 12262.00
516.1250, 12222.00
517.3060, 12533.00
518.4860, 13096.00
519.6660, 13714.00
520.8460, 14801.00
522.0260, 15679.00
523.2060, 16796.00
524.3850, 17835.00
525.5650, 18764.00
526.7440, 19818.00
527.9230, 20693.00
529.1020, 21230.00
530.2810, 21141.00
531.4590, 20834.00
532.6380, 20114.00
533.8160, 19334.00
534.9940, 18585.00
536.1720, 18364.00
537.3500, 18737.00
538.5270, 20094.00
539.7050, 22313.00
540.8820, 25974.00
542.0590, 30875.00
543.2360, 36031.00
544.4130, 40891.00
545.5900, 44741.00
546.7660, 49119.00
547.9430, 53828.00
549.1190, 57728.00
550.2950, 60677.00
551.4710, 60446.00
552.6470, 57271.00
553.8220, 51200.00
554.9980, 42580.00
556.1730, 33549.00
557.3480, 25605.00
558.5230, 19671.00
559.6980, 16056.00
560.8730, 13462.00
562.0470, 11626.00
563.2220, 10529.00
564.3960, 9865.000
565.5700, 9282.000
566.7440, 8839.000
567.9170, 8389.000
569.0910, 8104.000
570.2640, 7892.000
571.4380, 7867.000
572.6110, 7862.000
573.7840, 7964.000
574.9570, 8023.000
576.1290, 8147.000
577.3020, 8384.000
578.4740, 8974.000
579.6460, 9746.000
580.8180, 11075.00
581.9900, 13479.00
583.1620, 17304.00
584.3330, 22711.00
585.5040, 28817.00
586.6760, 33228.00
587.8470, 35392.00
589.0180, 38406.00
590.1880, 42844.00
591.3590, 47270.00
592.5290, 50323.00
593.7000, 51390.00
594.8700, 48657.00
596.0400, 42610.00
597.2090, 34211.00
598.3790, 25612.00
599.5490, 18865.00
600.7180, 14750.00
601.8870, 12084.00
603.0560, 10887.00
604.2250, 9799.000
605.3940, 9136.000
606.5620, 8473.000
607.7300, 8778.000
608.8990, 8220.000
610.0670, 7645.000
611.2350, 7546.568
612.4020, 7157.524
613.5700, 6957.000
614.7370, 6823.000
615.9050, 6714.000
617.0720, 6587.441
618.2390, 6516.393
619.4060, 6412.000
620.5720, 6401.000
621.7390, 6348.000
622.9050, 6320.000
624.0710, 6286.000
625.2370, 6253.000
626.4030, 6156.000
627.5690, 6215.000
628.7340, 6084.000
629.9000, 6116.000
631.0650, 5972.000
632.2300, 6119.000
633.3950, 6072.000
634.5600, 5974.000
635.7240, 6012.000
636.8890, 6009.000
638.0530, 5946.000
639.2170, 5908.000
640.3810, 5887.000
641.5450, 5951.000
642.7080, 5879.000
643.8720, 5942.000
645.0350, 5811.000
646.1980, 5869.000
647.3610, 5922.000
648.5240, 5851.000
649.6870, 5763.000
650.8490, 5839.000
652.0120, 5804.000
653.1740, 5836.000
654.3360, 5853.000
655.4980, 5909.000
656.6600, 5978.000
657.8210, 6015.000
658.9830, 6081.000
660.1440, 6125.000
661.3050, 6163.000
662.4660, 6223.000
663.6270, 6207.000
664.7870, 6314.000
665.9480, 6349.000
667.1080, 6464.000
668.2680, 6357.601
669.4280, 6487.000
670.5880, 6201.000
671.7480, 5944.000
672.9070, 6027.000
674.0670, 5992.000
675.2260, 5904.000
676.3850, 5800.000
677.5440, 5836.000
678.7030, 5787.689
679.8610, 5909.000
681.0200, 5812.000
682.1780, 5866.000
683.3360, 5912.000
684.4940, 5859.000
685.6520, 6005.000
686.8090, 5787.000
687.9670, 5904.000
689.1240, 5915.000
690.2810, 5919.000
691.4380, 5908.000
692.5950, 5839.000
693.7520, 5886.000
694.9080, 5993.000
696.0650, 5939.000
697.2210, 6020.000
698.3770, 6064.000
699.5330, 6065.000
700.6880, 6232.000
701.8440, 6188.000
702.9990, 6237.000
704.1550, 6341.000
705.3100, 6296.000
706.4650, 6357.000
707.6190, 6543.000
708.7740, 6588.000
709.9290, 6643.000
711.0830, 6696.000
712.2370, 6836.000
713.3910, 7024.000
714.5450, 7229.000
715.6980, 7405.858
716.8520, 7513.000
718.0050, 7799.000
719.1580, 8002.000
720.3110, 8194.000
721.4640, 8560.000
722.6170, 8799.000
723.7700, 9237.000
724.9220, 9381.000
726.0740, 9792.000
727.2260, 10076.00
728.3780, 10401.00
729.5300, 10446.00
730.6810, 10689.00
731.8330, 10901.00
732.9840, 10956.00
734.1350, 10768.00
735.2860, 10847.00
736.4370, 10676.00
737.5880, 10537.00
738.7380, 10271.00
739.8880, 9965.000
741.0390, 9758.256
742.1890, 9607.000
743.3380, 9194.000
744.4880, 8990.000
745.6380, 8602.000
746.7870, 8195.000
747.9360, 8122.000
749.0850, 7822.000
750.2340, 7598.000
751.3830, 7532.000
752.5310, 7377.000
753.6800, 7135.000
754.8280, 7099.000
755.9760, 6980.000
757.1240, 6921.000
758.2720, 6855.025
759.4190, 6798.042
760.5670, 6749.000
761.7140, 6730.000
762.8610, 6677.303
764.0080, 6648.672
765.1550, 6604.000
766.3020, 6599.000
767.4480, 6577.000
768.5950, 6585.000
769.7410, 6553.545
770.8870, 6554.286
772.0330, 6515.000
773.1780, 6562.000
774.3240, 6583.000
775.4690, 6626.000
776.6140, 6526.000
777.7590, 6556.000
778.9040, 6552.000
780.0490, 6640.000
781.1940, 6636.000
782.3380, 6563.000
783.4820, 6585.000
784.6260, 6649.000
785.7700, 6639.000
786.9140, 6700.000
788.0580, 6644.000
789.2010, 6595.000
790.3450, 6646.000
791.4880, 6519.000
792.6310, 6673.000
793.7730, 6645.000
794.9160, 6813.000
796.0590, 6746.000
797.2010, 6897.000
798.3430, 6721.000
799.4850, 6824.000
800.6270, 6890.000
801.7690, 6915.000
802.9100, 6968.919
804.0520, 6977.000
805.1930, 7002.000
806.3340, 6982.000
807.4750, 6959.000
808.6160, 7076.000
809.7560, 7136.000
810.8970, 7203.000
812.0370, 7179.000
813.1770, 7245.000
814.3170, 7249.000
815.4570, 7413.000
816.5960, 7382.000
817.7360, 7510.000
818.8750, 7680.000
820.0140, 7622.000
821.1530, 7825.000
822.2920, 7926.000
823.4310, 7965.000
824.5690, 8238.000
825.7070, 8363.000
826.8460, 8731.000
827.9840, 8814.000
829.1220, 8958.000
830.2590, 9359.000
831.3970, 9498.000
832.5340, 9629.000
833.6710, 9987.000
834.8080, 10177.00
835.9450, 10337.00
837.0820, 10599.00
838.2190, 10775.00
839.3550, 10928.00
840.4910, 11126.00
841.6270, 11173.00
842.7630, 11320.00
843.8990, 11358.00
845.0350, 11322.00
846.1700, 11606.00
847.3060, 11858.00
848.4410, 11874.00
849.5760, 12193.00
850.7100, 12138.00
851.8450, 12466.00
852.9800, 12607.00
854.1140, 13090.00
855.2480, 13319.00
856.3820, 13702.00
857.5160, 14116.00
858.6500, 14443.00
859.7830, 15027.00
860.9170, 15588.00
862.0500, 16306.00
863.1830, 17391.00
864.3160, 18408.00
865.4480, 19632.00
866.5810, 20947.00
867.7130, 22465.00
868.8460, 24525.00
869.9780, 26335.00
871.1100, 28372.00
872.2410, 30130.00
873.3730, 32134.00
874.5050, 33793.00
875.6360, 35038.00
876.7670, 35279.00
877.8980, 35544.00
879.0290, 34821.00
880.1590, 33396.00
881.2900, 32422.00
882.4200, 30084.00
883.5500, 27771.00
884.6800, 25552.00
885.8100, 23373.00
886.9400, 21590.00
888.0690, 19802.00
889.1990, 18300.00
890.3280, 16975.00
891.4570, 16113.00
892.5860, 15461.00
893.7140, 14838.00
894.8430, 14458.00
895.9710, 14272.00
897.1000, 14055.00
898.2280, 14015.00
899.3560, 13978.00
900.4830, 13946.00
901.6110, 13899.00
902.7380, 13940.00
903.8660, 13775.00
904.9930, 13425.00
906.1200, 13039.00
907.2460, 12761.00
908.3730, 12339.00
909.5000, 11962.00
910.6260, 11379.00
911.7520, 11032.00
912.8780, 10727.00
914.0040, 10473.00
915.1290, 10177.95
916.2550, 9915.246
917.3800, 9676.000
918.5050, 9418.000
919.6300, 9209.832
920.7550, 9023.000
921.8800, 8803.000
923.0040, 8702.000
924.1290, 8599.000
925.2530, 8412.000
926.3770, 8454.000
927.5010, 8442.000
928.6250, 8319.000
929.7480, 8155.000
930.8720, 8230.000
931.9950, 8176.000
933.1180, 8235.000
934.2410, 8187.000
935.3640, 8182.000
936.4860, 8154.000
937.6090, 8266.000
938.7310, 8241.000
939.8530, 8199.000
940.9750, 8130.000
942.0970, 8247.000
943.2180, 8099.000
944.3400, 8288.000
945.4610, 8276.000
946.5820, 8276.000
947.7030, 8390.000
948.8240, 8299.000
949.9450, 8353.000
951.0650, 8428.000
952.1860, 8569.000
953.3060, 8727.000
954.4260, 8739.000
955.5460, 8780.381
956.6650, 8801.095
957.7850, 8735.000
958.9040, 8758.000
960.0230, 8735.000
961.1420, 8689.000
962.2610, 8731.361
963.3800, 8947.000
964.4990, 8771.000
965.6170, 8905.000
966.7350, 8904.000
967.8530, 8813.000
968.9710, 8732.000
970.0890, 8786.000
971.2070, 8782.000
972.3240, 8738.000
973.4410, 8764.000
974.5580, 8568.000
975.6750, 8592.000
976.7920, 8538.000
977.9090, 8565.000
979.0250, 8701.000
980.1410, 8688.000
981.2580, 8531.000
982.3740, 8704.000
983.4890, 8540.883
984.6050, 8620.700
985.7200, 8666.868
986.8360, 8681.200
987.9510, 8568.332
989.0660, 8619.714
990.1810, 8605.271
991.2950, 8588.127
992.4100, 8662.625
993.5240, 8568.255
994.6390, 8641.300
995.7530, 8647.514
996.8660, 8684.312
997.9800, 8654.881
999.0940, 8645.906
1000.207, 8703.181
1001.320, 8723.771
1002.433, 8686.714
1003.546, 8642.000
1004.659, 8593.000
1005.772, 8718.000
1006.884, 8601.000
1007.996, 8663.000
1009.108, 8578.000
1010.220, 8638.000
1011.332, 8690.000
1012.444, 8819.000
1013.555, 8674.000
1014.666, 8611.000
1015.777, 8532.000
1016.888, 8638.000
1017.999, 8571.000
1019.110, 8574.000
1020.220, 8678.000
1021.331, 8697.000
1022.441, 8647.000
1023.551, 8671.000
1024.661, 8660.000
1025.770, 8656.000
1026.880, 8644.000
1027.989, 8686.000
1029.098, 8649.000
1030.207, 8707.000
1031.316, 8705.694
1032.425, 8677.550
1033.533, 8724.000
1034.642, 8691.000
1035.750, 8684.000
1036.858, 8684.805
1037.966, 8841.000
1039.073, 8702.000
1040.181, 8775.000
1041.288, 8878.000
1042.396, 8787.000
1043.503, 8809.000
1044.610, 8940.000
1045.716, 8659.000
1046.823, 8865.000
1047.929, 8892.000
1049.036, 8888.000
1050.142, 8874.000
1051.248, 8903.594
1052.353, 8883.000
1053.459, 8945.000
1054.564, 8947.000
1055.670, 8970.000
1056.775, 8999.000
1057.880, 8993.000
1058.985, 8965.000
1060.089, 9023.000
1061.194, 9022.000
1062.298, 9054.881
1063.402, 9022.000
1064.506, 9091.000
1065.610, 9093.000
1066.713, 9029.000
1067.817, 9083.479
1068.920, 9082.337
1070.023, 9139.000
1071.126, 9152.000
1072.229, 9237.000
1073.332, 9303.000
1074.435, 9381.000
1075.537, 9434.964
1076.639, 9511.623
1077.741, 9534.000
1078.843, 9619.000
1079.945, 9667.000
1081.046, 9642.000
1082.148, 10017.00
1083.249, 9922.000
1084.350, 10269.00
1085.451, 10315.00
1086.551, 10444.00
1087.652, 10512.00
1088.752, 10477.00
1089.853, 10608.00
1090.953, 10624.00
1092.053, 10428.00
1093.152, 10382.00
1094.252, 10292.00
1095.351, 10128.00
1096.451, 9779.000
1097.550, 9632.000
1098.649, 9523.000
1099.748, 9344.000
1100.846, 9344.000
1101.945, 9160.000
1103.043, 8908.000
1104.141, 8977.000
1105.239, 8712.000
1106.337, 8656.000
1107.434, 8750.000
1108.532, 8658.000
1109.629, 8564.000
1110.726, 8659.000
1111.823, 8576.000
1112.920, 8545.000
1114.017, 8746.000
1115.113, 8699.000
1116.210, 8790.000
1117.306, 8723.000
1118.402, 8820.000
1119.498, 8693.000
1120.593, 8771.000
1121.689, 8783.000
1122.784, 8651.000
1123.879, 8591.000
1124.974, 8589.000
1126.069, 8522.000
1127.164, 8557.000
1128.259, 8403.000
1129.353, 8376.000
1130.447, 8333.000
1131.541, 8219.000
1132.635, 8308.000
1133.729, 8321.000
1134.822, 8240.000
1135.916, 8333.000
1137.009, 8237.000
1138.102, 8293.000
1139.195, 8235.000
1140.288, 8296.000
1141.380, 8259.000
1142.473, 8153.000
1143.565, 8204.000
1144.657, 8304.000
1145.749, 8217.000
1146.841, 8170.000
1147.932, 8089.000
1149.024, 8161.000
1150.115, 8122.000
1151.206, 8229.000
1152.297, 8106.000
1153.388, 8076.000
1154.479, 8092.000
1155.569, 8253.000
1156.659, 7984.000
1157.750, 8123.000
1158.839, 8127.000
1159.929, 8090.000
1161.019, 8100.000
1162.108, 8137.000
1163.198, 8109.000
1164.287, 8127.000
1165.376, 8074.000
1166.465, 8136.000
1167.553, 8124.000
1168.642, 8132.000
1169.730, 8046.000
1170.818, 8006.000
1171.906, 8074.000
1172.994, 7985.000
1174.082, 8026.000
1175.170, 7958.000
1176.257, 7967.000
1177.344, 7951.000
1178.431, 7852.000
1179.518, 7940.000
1180.605, 7969.000
1181.691, 7944.000
1182.778, 8015.000
1183.864, 7961.000
1184.950, 7956.000
1186.036, 7843.000
1187.122, 7913.000
1188.207, 7894.000
1189.292, 7920.000
1190.378, 7899.512
1191.463, 7853.000
1192.548, 7829.000
1193.632, 7795.000
1194.717, 7753.000
1195.801, 7792.000
1196.886, 7783.156
1197.970, 7763.000
1199.054, 7817.000
1200.137, 7812.000
1201.221, 7802.000
1202.305, 7775.000
1203.388, 7914.000
1204.471, 7784.000
1205.554, 7877.000
1206.637, 7757.000
1207.719, 7885.000
1208.802, 7754.000
1209.884, 7786.000
1210.966, 7879.000
1212.048, 7883.000
1213.130, 7895.000
1214.212, 7790.000
1215.293, 7845.000
1216.374, 7849.000
1217.456, 7781.000
1218.536, 7895.000
1219.617, 7812.000
1220.698, 7854.000
1221.778, 7868.000
1222.859, 7901.000
1223.939, 7823.000
1225.019, 7792.000
1226.099, 7716.000
1227.178, 7911.000
1228.258, 7814.000
1229.337, 7883.000
1230.417, 7778.000
1231.496, 7795.000
1232.574, 7793.000
1233.653, 7794.000
1234.732, 7831.000
1235.810, 7785.000
1236.888, 7746.000
1237.966, 7813.000
1239.044, 7793.000
1240.122, 7901.000
1241.199, 7841.604
1242.277, 7904.000
1243.354, 7789.000
1244.431, 7718.000
1245.508, 7774.000
1246.585, 7871.000
1247.661, 7849.000
1248.738, 7748.000
1249.814, 7828.000
1250.890, 7770.000
1251.966, 7775.000
1253.042, 7695.000
1254.117, 7648.000
1255.193, 7604.000
1256.268, 7688.000
1257.343, 7760.000
1258.418, 7581.000
1259.493, 7740.000
1260.567, 7697.000
1261.642, 7696.000
1262.716, 7636.000
1263.790, 7761.000
1264.864, 7685.000
1265.938, 7774.000
1267.011, 7634.000
1268.085, 7633.000
1269.158, 7700.000
1270.231, 7711.000
1271.304, 7641.000
1272.377, 7771.000
1273.450, 7726.000
1274.522, 7649.000
1275.594, 7793.000
1276.666, 7683.000
1277.738, 7687.000
1278.810, 7767.000
1279.882, 7719.000
1280.953, 7772.000
1282.025, 7630.000
1283.096, 7676.000
1284.167, 7763.000
1285.238, 7638.000
1286.308, 7684.000
1287.379, 7820.000
1288.449, 7766.000
1289.519, 7824.000
1290.589, 7692.000
1291.659, 7730.000
1292.729, 7670.000
1293.798, 7683.000
1294.868, 7708.000
1295.937, 7745.000
1297.006, 7636.000
1298.075, 7741.000
1299.143, 7846.000
1300.212, 7686.000
1301.280, 7622.000
1302.348, 7684.000
1303.416, 7753.000
1304.484, 7803.000
1305.552, 7748.000
1306.620, 7728.000
1307.687, 7725.000
1308.754, 7622.000
1309.821, 7729.000
1310.888, 7721.000
1311.955, 7568.000
1313.021, 7720.000
1314.088, 7727.000
1315.154, 7759.000
1316.220, 7794.000
1317.286, 7691.000
1318.352, 7775.000
1319.417, 7723.000
1320.483, 7772.000
1321.548, 7723.000
1322.613, 7754.000
1323.678, 7707.000
1324.743, 7745.000
1325.807, 7678.000
1326.872, 7786.000
1327.936, 7757.000
1329.000, 7912.000
1330.064, 7656.000
1331.128, 7750.000
1332.191, 7646.000
1333.255, 7743.000
1334.318, 7776.000
1335.381, 7787.000
1336.444, 7742.000
1337.507, 7786.000
1338.569, 7696.000
1339.632, 7729.000
1340.694, 7779.000
1341.756, 7807.000
1342.818, 7864.000
1343.880, 7754.000
1344.941, 7703.000
1346.003, 7663.000
1347.064, 7775.000
1348.125, 7723.000
1349.186, 7732.000
1350.247, 7690.000
1351.308, 7696.972
1352.368, 7704.000
1353.428, 7739.000
1354.489, 7700.000
1355.549, 7772.000
1356.608, 7748.000
1357.668, 7752.000
1358.727, 7796.000
1359.787, 7664.000
1360.846, 7780.000
1361.905, 7576.000
1362.964, 7788.000
1364.022, 7793.000
1365.081, 7717.000
1366.139, 7770.000
1367.197, 7702.000
1368.255, 7674.000
1369.313, 7727.000
1370.371, 7695.000
1371.428, 7782.000
1372.486, 7755.000
1373.543, 7765.000
1374.600, 7740.000
1375.657, 7863.000
1376.713, 7981.000
1377.770, 7875.814
1378.826, 7825.000
1379.882, 7716.000
1380.938, 7811.000
1381.994, 7775.000
1383.050, 7711.000
1384.106, 7717.000
1385.161, 7687.000
1386.216, 7707.921
1387.271, 7796.000
1388.326, 7728.000
1389.381, 7791.000
1390.435, 7706.000
1391.490, 7852.000
1392.544, 7754.000
1393.598, 7598.000
1394.652, 7792.000
1395.705, 7773.000
1396.759, 7775.000
1397.812, 7703.000
1398.866, 7700.061
1399.919, 7808.000
1400.972, 7706.000
1402.024, 7703.000
1403.077, 7823.000
1404.129, 7722.000
1405.181, 7753.000
1406.233, 7645.000
1407.285, 7764.000
1408.337, 7778.000
1409.389, 7873.000
1410.440, 7749.000
1411.491, 7709.000
1412.542, 7766.000
1413.593, 7859.000
1414.644, 7663.000
1415.695, 7960.000
1416.745, 7793.000
1417.795, 7811.000
1418.845, 7864.301
1419.895, 7781.958
1420.945, 7877.000
1421.995, 7753.000
1423.044, 7798.000
1424.093, 7814.000
1425.142, 7773.959
1426.191, 7825.305
1427.240, 7779.000
1428.289, 7838.000
1429.337, 7879.000
1430.385, 7805.000
1431.433, 7889.000
1432.481, 7907.000
1433.529, 7883.000
1434.577, 7876.000
1435.624, 7866.354
1436.672, 7857.755
1437.719, 7844.000
1438.766, 7882.000
1439.812, 7894.000
1440.859, 7977.000
1441.905, 7947.011
1442.952, 7927.000
1443.998, 7882.000
1445.044, 7911.000
1446.090, 7819.000
1447.135, 7941.000
1448.181, 7807.000
1449.226, 7910.000
1450.271, 7805.000
1451.316, 8002.000
1452.361, 7939.000
1453.405, 7938.000
1454.450, 7911.000
1455.494, 7910.000
1456.538, 7859.000
1457.582, 7873.520
1458.626, 7883.532
1459.670, 7856.000
1460.713, 7931.000
1461.757, 7862.000
1462.800, 7871.000
1463.843, 7932.000
1464.886, 7978.000
1465.928, 7883.000
1466.971, 7917.000
1468.013, 7931.000
1469.055, 7903.000
1470.097, 7950.000
1471.139, 7973.000
1472.181, 7816.000
1473.222, 7924.000
1474.263, 7875.687
1475.305, 7992.000
1476.346, 7908.000
1477.386, 7884.000
1478.427, 7952.000
1479.468, 8040.000
1480.508, 7869.000
1481.548, 7891.000
1482.588, 7942.000
1483.628, 7915.000
1484.668, 8003.000
1485.707, 7864.000
1486.747, 7964.000
1487.786, 7966.000
1488.825, 7994.000
1489.864, 8077.000
1490.902, 7982.000
1491.941, 7851.000
1492.979, 7926.000
1494.017, 7882.000
1495.055, 7933.000
1496.093, 7920.000
1497.131, 7816.000
1498.168, 7848.000
1499.206, 7915.000
1500.243, 7871.000
1501.280, 7916.000
1502.317, 7903.000
1503.354, 7819.000
1504.390, 7901.000
1505.426, 7845.000
1506.463, 7832.000
1507.499, 7938.000
1508.535, 7818.000
1509.570, 7894.000
1510.606, 7776.000
1511.641, 7825.000
1512.676, 7895.000
1513.711, 7971.000
1514.746, 7958.000
1515.781, 7942.000
1516.816, 7901.000
1517.850, 7871.000
1518.884, 7893.000
1519.918, 7901.000
1520.952, 7950.000
1521.986, 7899.000
1523.019, 7864.000
1524.053, 7983.000
1525.086, 7873.000
1526.119, 7832.000
1527.152, 7935.000
1528.185, 8017.000
1529.217, 7892.000
1530.250, 7949.000
1531.282, 7995.000
1532.314, 7914.000
1533.346, 7891.000
1534.377, 7877.000
1535.409, 7984.000
1536.440, 7891.657
1537.472, 7969.807
1538.503, 8014.309
1539.534, 8026.972
1540.564, 7912.437
1541.595, 7962.151
1542.625, 7946.042
1543.656, 7927.234
1544.686, 8000.066
1545.716, 7904.031
1546.745, 7975.408
1547.775, 7979.958
1548.804, 8015.092
1549.834, 7983.998
1550.863, 7973.358
1551.892, 8028.970
1552.920, 8047.896
1553.949, 8009.176
1554.977, 8046.254
1556.006, 7947.904
1557.034, 7968.394
1558.062, 8040.157
1559.089, 8004.764
1560.117, 8043.052
1561.144, 8053.278
1562.172, 7935.979
1563.199, 8040.459
1564.226, 8049.027
1565.252, 7992.000
1566.279, 8104.000
1567.305, 7980.000
1568.332, 8391.000
1569.358, 9414.000
1570.384, 8171.000
##END=



