##NAMES=Chloritoid
##RRUFFID=R050334
##IDEAL CHEMISTRY=Fe^2+^Al_2_OSiO_4_(OH)_2_
##LOCALITY=Selçuk, Mugla Province, Turkey
##OWNER=RRUFF
##SOURCE=George Rossman
##DESCRIPTION=Dark greenish-black foliated cleavage fragments
##STATUS=The identification of this mineral is confirmed by single-crystal X-ray diffraction and chemical analysis.
##URL=rruff.info/R050334
##MEASURED CHEMISTRY=(Fe^2+^_1.84_Mg_0.12_Mn_0.04_)_Σ=2_(Al_3.95_Fe^3+^_0.05_)_Σ=4_Si_2.00_O_10_(OH)_4_ ; H not measured but estimated by difference and stoichiometry
##PIN_ID=M01491
##ORIENTATION=Laser parallel to (1 0 1). Fiducial mark perpendicular to laser is parallel to b [0 1 0]
168.3890, 5079.000
169.6170, 5069.463
170.8450, 5051.570
172.0730, 5071.000
173.3000, 4987.000
174.5280, 4987.000
175.7550, 4956.000
176.9820, 5031.000
178.2090, 5116.000
179.4350, 4922.000
180.6620, 4869.000
181.8880, 4966.000
183.1150, 4955.000
184.3410, 5038.000
185.5670, 5069.247
186.7920, 5143.000
188.0180, 5143.000
189.2430, 5175.000
190.4690, 5218.000
191.6940, 5400.000
192.9180, 5390.000
194.1430, 5448.000
195.3680, 5545.000
196.5920, 5512.000
197.8160, 5671.000
199.0400, 5731.000
200.2640, 5957.000
201.4880, 5973.000
202.7110, 5855.000
203.9350, 5450.000
205.1580, 5346.000
206.3810, 5153.000
207.6040, 5055.000
208.8270, 5149.000
210.0490, 5026.000
211.2710, 5149.000
212.4940, 5125.000
213.7160, 5276.000
214.9370, 4971.000
216.1590, 4914.000
217.3810, 4891.000
218.6020, 4816.000
219.8230, 4828.000
221.0440, 4786.000
222.2650, 4795.000
223.4860, 4791.000
224.7060, 4709.000
225.9260, 4673.000
227.1470, 4615.000
228.3670, 4648.000
229.5860, 4492.000
230.8060, 4620.000
232.0260, 4476.000
233.2450, 4522.000
234.4640, 4532.000
235.6830, 4561.000
236.9020, 4564.000
238.1200, 4586.000
239.3390, 4539.000
240.5570, 4687.000
241.7750, 4680.000
242.9930, 4815.000
244.2110, 4901.000
245.4290, 5145.379
246.6460, 5555.000
247.8630, 5715.000
249.0810, 6173.000
250.2980, 6461.000
251.5140, 6763.000
252.7310, 6948.000
253.9470, 7051.000
255.1640, 7196.000
256.3800, 7623.000
257.5960, 8410.000
258.8120, 8620.501
260.0270, 8702.236
261.2430, 9070.000
262.4580, 8236.000
263.6730, 7561.000
264.8880, 6713.000
266.1030, 6407.000
267.3170, 5964.000
268.5320, 5824.000
269.7460, 5747.000
270.9600, 5644.000
272.1740, 5727.000
273.3880, 5833.000
274.6010, 6162.237
275.8150, 6577.677
277.0280, 7115.000
278.2410, 7770.000
279.4540, 8460.000
280.6670, 9288.000
281.8790, 10682.00
283.0920, 11129.00
284.3040, 11136.00
285.5160, 10674.45
286.7280, 10233.84
287.9400, 9717.059
289.1510, 9128.723
290.3630, 8251.956
291.5740, 7747.488
292.7850, 7094.024
293.9960, 6434.449
295.2070, 5982.307
296.4170, 5652.000
297.6280, 5604.000
298.8380, 5491.000
300.0480, 5529.000
301.2580, 5498.000
302.4680, 5496.000
303.6770, 5565.000
304.8870, 5595.000
306.0960, 5505.000
307.3050, 5419.000
308.5140, 5405.000
309.7230, 5326.000
310.9310, 5326.000
312.1400, 5197.000
313.3480, 5194.000
314.5560, 5123.000
315.7640, 5017.000
316.9720, 4929.000
318.1790, 5785.000
319.3870, 4803.000
320.5940, 4773.000
321.8010, 5514.000
323.0080, 4889.000
324.2150, 4762.000
325.4210, 4735.000
326.6280, 4921.000
327.8340, 4833.000
329.0400, 4953.000
330.2460, 5129.000
331.4510, 5274.000
332.6570, 5552.000
333.8620, 5778.000
335.0680, 5856.000
336.2730, 5837.000
337.4780, 5681.000
338.6820, 5452.000
339.8870, 5288.000
341.0910, 4922.000
342.2950, 4809.000
343.5000, 4714.000
344.7030, 4642.000
345.9070, 4649.000
347.1110, 4592.000
348.3140, 4636.000
349.5170, 4597.000
350.7200, 4646.000
351.9230, 4629.000
353.1260, 4664.000
354.3290, 4745.000
355.5310, 4760.000
356.7330, 4841.745
357.9350, 4927.000
359.1370, 4988.000
360.3390, 5052.000
361.5400, 5126.000
362.7420, 5273.000
363.9430, 5540.000
365.1440, 5702.000
366.3450, 5885.000
367.5460, 6006.000
368.7460, 6011.000
369.9470, 5938.000
371.1470, 5793.000
372.3470, 5748.000
373.5470, 5680.000
374.7460, 5613.715
375.9460, 5512.615
377.1450, 5550.000
378.3450, 5366.000
379.5440, 5375.000
380.7430, 5479.000
381.9410, 5605.000
383.1400, 5836.000
384.3380, 6029.000
385.5370, 6361.000
386.7350, 6848.000
387.9320, 7243.000
389.1300, 7596.000
390.3280, 7579.000
391.5250, 7311.000
392.7220, 6813.000
393.9190, 6376.000
395.1160, 6007.000
396.3130, 5920.000
397.5100, 5689.000
398.7060, 5627.000
399.9020, 5568.000
401.0980, 5509.000
402.2940, 5561.000
403.4900, 5681.000
404.6860, 5740.000
405.8810, 5767.000
407.0760, 5876.000
408.2710, 5962.000
409.4660, 6164.000
410.6610, 6264.000
411.8550, 6632.000
413.0500, 6952.000
414.2440, 7329.000
415.4380, 7435.000
416.6320, 7482.000
417.8260, 7452.000
419.0190, 7029.000
420.2130, 6797.000
421.4060, 6343.000
422.5990, 6133.000
423.7920, 5993.000
424.9850, 5853.000
426.1770, 5737.000
427.3700, 5737.000
428.5620, 5652.000
429.7540, 5617.000
430.9460, 5549.000
432.1380, 5507.142
433.3290, 5558.000
434.5210, 5418.000
435.7120, 5493.000
436.9030, 5431.000
438.0940, 5352.000
439.2850, 5356.000
440.4750, 5460.000
441.6660, 5359.000
442.8560, 5468.000
444.0460, 5496.000
445.2360, 5525.000
446.4260, 5608.000
447.6160, 5675.860
448.8050, 5697.123
449.9940, 5875.000
451.1830, 5858.000
452.3720, 5976.000
453.5610, 6298.000
454.7500, 6304.000
455.9380, 6344.000
457.1260, 6366.000
458.3150, 6254.000
459.5020, 6218.592
460.6900, 6196.104
461.8780, 6095.000
463.0650, 6111.000
464.2530, 6215.000
465.4400, 6119.000
466.6270, 6268.000
467.8130, 6234.000
469.0000, 6375.000
470.1870, 6505.000
471.3730, 6535.000
472.5590, 6637.000
473.7450, 6846.000
474.9310, 7020.000
476.1160, 7232.000
477.3020, 7223.000
478.4870, 7266.000
479.6720, 7258.000
480.8570, 7190.000
482.0420, 7162.000
483.2270, 7066.000
484.4110, 7070.000
485.5960, 7013.000
486.7800, 7064.000
487.9640, 7144.000
489.1480, 7277.000
490.3310, 7597.000
491.5150, 7892.000
492.6980, 8306.000
493.8810, 8844.000
495.0640, 9489.000
496.2470, 10271.00
497.4300, 11434.00
498.6120, 12119.00
499.7950, 12801.00
500.9770, 13510.00
502.1590, 12373.00
503.3410, 11764.00
504.5220, 13414.00
505.7040, 10562.00
506.8850, 10333.00
508.0660, 10450.00
509.2470, 10786.00
510.4280, 11034.00
511.6090, 11323.00
512.7890, 11348.00
513.9700, 11303.00
515.1500, 10589.00
516.3300, 9902.000
517.5100, 8918.000
518.6900, 8019.000
519.8690, 7583.000
521.0490, 7309.000
522.2280, 6880.000
523.4070, 6784.000
524.5860, 6631.000
525.7640, 6545.000
526.9430, 6523.000
528.1210, 6738.000
529.3000, 6722.000
530.4780, 6710.000
531.6560, 6700.000
532.8330, 6733.000
534.0110, 6695.000
535.1880, 6622.000
536.3650, 6567.000
537.5430, 6592.000
538.7190, 6485.000
539.8960, 6551.000
541.0730, 6609.000
542.2490, 6702.000
543.4250, 6766.000
544.6020, 7050.000
545.7780, 7539.000
546.9530, 8109.000
548.1290, 8744.000
549.3040, 9673.000
550.4800, 11069.00
551.6550, 12639.00
552.8300, 14282.00
554.0040, 15306.00
555.1790, 14932.00
556.3540, 13335.00
557.5280, 11472.00
558.7020, 9526.000
559.8760, 8268.000
561.0500, 7417.000
562.2230, 6773.000
563.3970, 6468.000
564.5700, 6214.000
565.7430, 5951.000
566.9160, 5856.000
568.0890, 5901.000
569.2620, 5738.000
570.4340, 5748.000
571.6070, 5549.000
572.7790, 5643.000
573.9510, 5677.000
575.1230, 5804.000
576.2940, 5822.000
577.4660, 5922.000
578.6370, 5936.000
579.8080, 6206.000
580.9790, 6307.000
582.1500, 6594.000
583.3210, 7000.000
584.4910, 7744.000
585.6620, 8604.000
586.8320, 9910.000
588.0020, 11782.00
589.1720, 13901.00
590.3410, 17270.00
591.5110, 22728.00
592.6800, 31673.00
593.8500, 44396.00
595.0190, 58042.00
596.1880, 61983.00
597.3560, 56343.00
598.5250, 42815.00
599.6930, 29622.00
600.8620, 20725.00
602.0300, 15140.00
603.1970, 12027.00
604.3650, 10034.00
605.5330, 8867.000
606.7000, 8003.000
607.8680, 7222.928
609.0350, 7090.000
610.2020, 6644.000
611.3680, 6448.000
612.5350, 6403.000
613.7010, 6100.822
614.8680, 6150.000
616.0340, 5777.000
617.2000, 5658.000
618.3660, 5563.000
619.5310, 5513.000
620.6970, 5476.000
621.8620, 5422.374
623.0270, 5438.290
624.1920, 5350.000
625.3570, 5427.000
626.5220, 5392.000
627.6860, 5268.410
628.8500, 5339.873
630.0140, 5227.000
631.1780, 5327.000
632.3420, 5241.000
633.5060, 5135.000
634.6700, 5124.000
635.8330, 5159.000
636.9960, 5108.000
638.1590, 5086.000
639.3220, 5058.000
640.4850, 5047.781
641.6470, 5057.215
642.8100, 5049.000
643.9720, 5075.000
645.1340, 5086.000
646.2960, 5052.000
647.4570, 5028.000
648.6190, 4972.000
649.7800, 5011.000
650.9420, 5020.000
652.1030, 4968.000
653.2640, 4969.000
654.4240, 4955.000
655.5850, 4992.000
656.7450, 5000.000
657.9060, 5000.000
659.0660, 5016.000
660.2260, 5075.000
661.3850, 5029.000
662.5450, 4998.000
663.7040, 5135.000
664.8640, 5244.000
666.0230, 5225.000
667.1820, 5182.000
668.3410, 5357.000
669.4990, 5316.000
670.6580, 5235.000
671.8160, 5251.000
672.9740, 5119.000
674.1320, 5071.000
675.2900, 4919.000
676.4480, 4972.000
677.6050, 4926.000
678.7630, 4870.000
679.9200, 5005.000
681.0770, 4955.000
682.2340, 4830.000
683.3900, 4976.000
684.5470, 4947.000
685.7030, 4895.000
686.8590, 4866.000
688.0150, 4915.000
689.1710, 4911.000
690.3270, 4873.000
691.4830, 4908.000
692.6380, 5011.000
693.7930, 4927.000
694.9480, 4984.000
696.1030, 4909.000
697.2580, 5071.000
698.4130, 5001.000
699.5670, 5016.000
700.7210, 5036.000
701.8750, 5062.000
703.0290, 5112.000
704.1830, 5006.000
705.3370, 5084.000
706.4900, 5069.000
707.6430, 5105.000
708.7970, 5131.000
709.9490, 5125.000
711.1020, 5237.000
712.2550, 5258.000
713.4070, 5264.000
714.5600, 5371.000
715.7120, 5466.000
716.8640, 5532.000
718.0160, 5664.000
719.1670, 5730.222
720.3190, 5844.000
721.4700, 5914.000
722.6210, 6013.000
723.7720, 6153.000
724.9230, 6400.000
726.0740, 6406.000
727.2250, 6750.000
728.3750, 6900.000
729.5250, 7035.000
730.6750, 7316.000
731.8250, 7402.000
732.9750, 7578.000
734.1240, 7806.000
735.2740, 7726.000
736.4230, 7770.000
737.5720, 7592.000
738.7210, 7648.000
739.8700, 7420.000
741.0190, 7392.000
742.1670, 7217.000
743.3150, 7024.000
744.4630, 6891.000
745.6110, 6746.000
746.7590, 6633.000
747.9070, 6423.000
749.0540, 6352.000
750.2020, 6162.000
751.3490, 6093.000
752.4960, 6008.000
753.6430, 5862.000
754.7890, 5728.000
755.9360, 5806.000
757.0820, 5685.000
758.2280, 5617.000
759.3740, 5655.000
760.5200, 5535.000
761.6660, 5610.000
762.8120, 5559.000
763.9570, 5458.000
765.1020, 5483.000
766.2470, 5478.944
767.3920, 5432.161
768.5370, 5436.860
769.6810, 5403.000
770.8260, 5409.000
771.9700, 5440.000
773.1140, 5455.000
774.2580, 5376.000
775.4020, 5547.000
776.5460, 5523.000
777.6890, 5596.000
778.8320, 5502.000
779.9750, 5467.000
781.1180, 5517.000
782.2610, 5682.000
783.4040, 5593.000
784.5460, 5682.000
785.6890, 5551.000
786.8310, 5663.000
787.9730, 5655.000
789.1150, 5683.000
790.2560, 5698.000
791.3980, 5686.000
792.5390, 5649.000
793.6810, 5776.000
794.8220, 5728.000
795.9630, 5855.000
797.1030, 5954.000
798.2440, 5923.000
799.3840, 5896.000
800.5240, 6032.000
801.6650, 5980.000
802.8040, 5995.000
803.9440, 5979.000
805.0840, 5995.000
806.2230, 5994.000
807.3630, 5993.000
808.5020, 5945.000
809.6410, 6013.000
810.7790, 6012.000
811.9180, 6068.000
813.0570, 6026.000
814.1950, 6016.000
815.3330, 5919.000
816.4710, 6013.000
817.6090, 6063.000
818.7470, 6074.000
819.8840, 6235.000
821.0220, 6287.000
822.1590, 6340.000
823.2960, 6466.000
824.4330, 6601.000
825.5690, 6700.000
826.7060, 6834.000
827.8420, 7002.000
828.9790, 7221.000
830.1150, 7383.000
831.2510, 7708.000
832.3860, 7996.000
833.5220, 8236.000
834.6570, 8450.000
835.7930, 8898.000
836.9280, 9171.000
838.0630, 9572.000
839.1980, 9825.000
840.3320, 9908.000
841.4670, 10070.00
842.6010, 10161.00
843.7350, 10263.00
844.8690, 10066.00
846.0030, 9985.000
847.1370, 9734.000
848.2700, 9582.000
849.4040, 9412.000
850.5370, 9127.000
851.6700, 8906.000
852.8030, 8884.000
853.9360, 8700.000
855.0680, 8597.053
856.2000, 8597.878
857.3330, 8387.000
858.4650, 8331.000
859.5970, 8237.870
860.7290, 8318.000
861.8600, 8260.000
862.9920, 8341.000
864.1230, 8522.000
865.2540, 8741.000
866.3850, 8884.000
867.5160, 9046.000
868.6460, 9301.000
869.7770, 9818.000
870.9070, 10151.00
872.0370, 10726.00
873.1670, 11418.00
874.2970, 11939.00
875.4270, 12522.00
876.5570, 13401.00
877.6860, 14033.00
878.8150, 14603.00
879.9440, 14796.00
881.0730, 14997.00
882.2020, 14954.00
883.3300, 14432.00
884.4590, 13934.00
885.5870, 13175.00
886.7150, 12455.00
887.8430, 11803.00
888.9710, 11204.00
890.0990, 10748.70
891.2260, 10255.00
892.3530, 10020.00
893.4810, 9745.000
894.6080, 9492.000
895.7340, 9479.000
896.8610, 9413.000
897.9880, 9453.000
899.1140, 9656.000
900.2400, 9779.000
901.3660, 9920.000
902.4920, 10148.00
903.6180, 10399.00
904.7430, 10588.00
905.8690, 10624.00
906.9940, 10614.42
908.1190, 10507.00
909.2440, 10250.00
910.3690, 9917.000
911.4930, 9415.438
912.6180, 9203.000
913.7420, 8799.000
914.8660, 8431.000
915.9900, 8335.000
917.1140, 8115.000
918.2380, 7866.050
919.3610, 7724.671
920.4850, 7443.000
921.6080, 7387.000
922.7310, 7241.000
923.8540, 7138.000
924.9760, 7085.000
926.0990, 7141.000
927.2210, 7081.000
928.3440, 7004.000
929.4660, 6985.000
930.5880, 6914.000
931.7090, 6945.000
932.8310, 6859.000
933.9520, 6882.000
935.0740, 6913.000
936.1950, 6964.000
937.3160, 6867.000
938.4360, 6968.000
939.5570, 6898.000
940.6780, 6935.000
941.7980, 6943.000
942.9180, 6869.000
944.0380, 6994.000
945.1580, 7030.000
946.2780, 7109.000
947.3970, 7206.000
948.5170, 7167.000
949.6360, 7304.000
950.7550, 7253.000
951.8740, 7334.000
952.9930, 7239.000
954.1110, 7350.000
955.2300, 7449.000
956.3480, 7458.000
957.4660, 7547.000
958.5840, 7573.000
959.7020, 7536.000
960.8190, 7596.000
961.9370, 7510.000
963.0540, 7605.000
964.1710, 7560.000
965.2880, 7543.000
966.4050, 7489.000
967.5220, 7580.000
968.6380, 7544.000
969.7550, 7369.000
970.8710, 7440.000
971.9870, 7292.000
973.1030, 7373.000
974.2190, 7351.000
975.3340, 7206.000
976.4500, 7152.000
977.5650, 7065.000
978.6800, 7335.000
979.7950, 7153.109
980.9100, 7152.948
982.0250, 6947.000
983.1390, 7048.000
984.2530, 6830.000
985.3680, 6895.000
986.4820, 6801.000
987.5950, 6883.000
988.7090, 6811.000
989.8230, 6842.000
990.9360, 6783.000
992.0490, 6777.000
993.1620, 6718.000
994.2750, 6862.000
995.3880, 6786.000
996.5010, 7042.000
997.6130, 6984.821
998.7250, 7118.632
999.8370, 6872.000
1000.949, 7244.547
1002.061, 7001.000
1003.173, 6819.000
1004.284, 6712.000
1005.396, 6768.000
1006.507, 6657.000
1007.618, 6766.000
1008.729, 6730.000
1009.839, 6695.000
1010.950, 6723.000
1012.060, 6661.000
1013.171, 6688.000
1014.281, 6709.000
1015.391, 6767.000
1016.500, 6789.108
1017.610, 6802.820
1018.719, 6883.772
1019.829, 6886.000
1020.938, 6988.000
1022.047, 6851.000
1023.156, 6559.000
1024.264, 6613.271
1025.373, 6540.809
1026.481, 6492.000
1027.589, 6571.000
1028.697, 6513.000
1029.805, 6449.000
1030.913, 6452.000
1032.020, 6595.000
1033.128, 6452.000
1034.235, 6597.000
1035.342, 6496.000
1036.449, 6405.000
1037.556, 6429.000
1038.663, 6392.973
1039.769, 6505.360
1040.875, 6570.146
1041.981, 6589.890
1043.087, 6429.684
1044.193, 6501.846
1045.299, 6480.885
1046.404, 6456.103
1047.510, 6560.969
1048.615, 6426.933
1049.720, 6529.740
1050.825, 6538.004
1051.930, 6589.538
1053.034, 6547.371
1054.139, 6534.147
1055.243, 6614.648
1056.347, 6643.251
1057.451, 6590.299
1058.555, 6644.580
1059.658, 6507.264
1060.762, 6538.077
1061.865, 6641.426
1062.968, 6593.181
1064.071, 6649.172
1065.174, 6665.464
1066.277, 6501.341
1067.380, 6650.978
1068.482, 6664.921
1069.584, 6495.000
1070.686, 6528.000
1071.788, 6626.000
1072.890, 6533.000
1073.992, 6668.000
1075.093, 6565.000
1076.194, 6665.000
1077.295, 6668.000
1078.396, 6659.000
1079.497, 6667.000
1080.598, 6651.000
1081.698, 6720.000
1082.799, 6754.000
1083.899, 6731.809
1084.999, 6669.000
1086.099, 6716.000
1087.199, 6759.000
1088.298, 6801.000
1089.398, 6832.985
1090.497, 6950.000
1091.596, 6896.000
1092.695, 6869.000
1093.794, 6907.000
1094.892, 6800.000
1095.991, 6865.000
1097.089, 6948.000
1098.187, 6802.000
1099.285, 6745.000
1100.383, 6740.000
1101.481, 6684.000
1102.579, 6613.000
1103.676, 6560.000
1104.773, 6586.180
1105.870, 6557.936
1106.967, 6543.903
1108.064, 6588.000
1109.161, 6530.000
1110.257, 6560.000
1111.353, 6582.000
1112.449, 6510.000
1113.545, 6595.000
1114.641, 6610.000
1115.737, 6565.000
1116.832, 6673.000
1117.928, 6700.000
1119.023, 6743.000
1120.118, 6745.000
1121.213, 6690.000
1122.308, 6668.294
1123.402, 6758.000
1124.497, 6582.000
1125.591, 6585.000
1126.685, 6617.000
1127.779, 6455.000
1128.873, 6452.000
1129.967, 6398.000
1131.060, 6384.000
1132.153, 6371.000
1133.247, 6371.000
1134.340, 6383.000
1135.433, 6380.627
1136.525, 6438.000
1137.618, 6388.000
1138.710, 6402.000
1139.802, 6396.000
1140.895, 6296.000
1141.987, 6348.000
1143.078, 6399.000
1144.170, 6319.000
1145.261, 6386.000
1146.353, 6332.000
1147.444, 6354.000
1148.535, 6274.000
1149.626, 6312.000
1150.716, 6313.469
1151.807, 6328.000
1152.897, 6349.000
1153.988, 6335.000
1155.078, 6334.000
1156.168, 6390.000
1157.257, 6298.000
1158.347, 6299.000
1159.436, 6339.000
1160.526, 6391.000
1161.615, 6404.230
1162.704, 6468.681
1163.793, 6388.000
1164.881, 6564.000
1165.970, 6416.814
1167.058, 6413.000
1168.147, 6292.000
1169.235, 6355.000
1170.323, 6368.000
1171.410, 6186.000
1172.498, 6352.000
1173.585, 6361.000
1174.673, 6213.000
1175.760, 6257.000
1176.847, 6300.000
1177.934, 6293.000
1179.020, 6197.000
1180.107, 6358.000
1181.193, 6263.000
1182.279, 6364.000
1183.365, 6332.000
1184.451, 6236.000
1185.537, 6177.000
1186.623, 6331.000
1187.708, 6275.000
1188.793, 6362.000
1189.878, 6185.000
1190.963, 6327.000
1192.048, 6199.000
1193.133, 6364.000
1194.217, 6277.000
1195.302, 6172.000
1196.386, 6261.000
1197.470, 6244.000
1198.554, 6273.000
1199.638, 6316.000
1200.721, 6271.000
1201.805, 6146.000
1202.888, 6262.000
1203.971, 6383.000
1205.054, 6204.000
1206.137, 6327.000
1207.219, 6186.000
1208.302, 6269.000
1209.384, 6226.000
1210.466, 6315.000
1211.548, 6407.000
1212.630, 6273.000
1213.712, 6250.000
1214.794, 6375.000
1215.875, 6315.000
1216.956, 6360.000
1218.037, 6341.000
1219.118, 6286.000
1220.199, 6219.000
1221.280, 6330.000
1222.360, 6336.000
1223.441, 6311.000
1224.521, 6261.000
1225.601, 6265.090
1226.681, 6313.000
1227.760, 6255.000
1228.840, 6327.000
1229.919, 6358.000
1230.999, 6355.136
1232.078, 6376.996
1233.157, 6366.000
1234.236, 6359.000
1235.314, 6318.000
1236.393, 6291.000
1237.471, 6384.000
1238.549, 6443.000
1239.627, 6318.000
1240.705, 6266.000
1241.783, 6391.000
1242.860, 6400.000
1243.938, 6375.000
1245.015, 6433.157
1246.092, 6393.000
1247.169, 6425.000
1248.246, 6412.000
1249.323, 6332.000
1250.399, 6378.000
1251.475, 6351.000
1252.552, 6312.000
1253.628, 6376.000
1254.703, 6350.000
1255.779, 6451.000
1256.855, 6402.000
1257.930, 6430.000
1259.005, 6354.000
1260.080, 6377.000
1261.155, 6369.000
1262.230, 6305.000
1263.305, 6423.000
1264.379, 6474.000
1265.454, 6478.000
1266.528, 6409.000
1267.602, 6402.000
1268.676, 6387.454
1269.750, 6420.754
1270.823, 6373.000
1271.897, 6476.000
1272.970, 6486.000
1274.043, 6387.000
1275.116, 6517.000
1276.189, 6481.000
1277.261, 6471.000
1278.334, 6442.000
1279.406, 6389.000
1280.478, 6472.000
1281.550, 6405.000
1282.622, 6454.000
1283.694, 6469.000
1284.766, 6377.000
1285.837, 6478.000
1286.908, 6449.000
1287.979, 6482.000
1289.050, 6402.000
1290.121, 6461.000
1291.192, 6477.712
1292.262, 6601.000
1293.333, 6537.000
1294.403, 6525.000
1295.473, 6494.000
1296.543, 6490.000
1297.613, 6537.000
1298.682, 6517.000
1299.752, 6492.000
1300.821, 6431.000
1301.890, 6517.000
1302.959, 6602.000
1304.028, 6489.000
1305.096, 6615.000
1306.165, 6584.000
1307.233, 6628.000
1308.301, 6611.000
1309.370, 6625.546
1310.437, 6735.140
1311.505, 6797.135
1312.573, 6814.087
1313.640, 6651.089
1314.708, 6720.460
1315.775, 6696.707
1316.842, 6669.136
1317.908, 6771.209
1318.975, 6634.385
1320.042, 6734.403
1321.108, 6739.877
1322.174, 6788.622
1323.240, 6743.668
1324.306, 6727.655
1325.372, 6805.370
1326.438, 6831.187
1327.503, 6775.446
1328.568, 6826.940
1329.634, 6686.842
1330.699, 6714.868
1331.763, 6815.433
1332.828, 6764.404
1333.893, 6817.611
1334.957, 6831.118
1336.021, 6664.211
1337.085, 6811.063
1338.149, 6822.224
1339.213, 6694.061
1340.277, 6830.162
1341.340, 6721.206
1342.404, 6699.720
1343.467, 6744.061
1344.530, 6719.780
1345.593, 6803.689
1346.655, 6783.370
1347.718, 6753.739
1348.780, 6764.746
1349.843, 6660.595
1350.905, 6770.087
1351.967, 6733.643
1353.028, 6769.739
1354.090, 6822.279
1355.152, 6748.918
1356.213, 6808.845
1357.274, 6662.072
1358.335, 6688.253
1359.396, 6695.810
1360.457, 6813.914
1361.517, 6668.148
1362.578, 6689.523
1363.638, 6782.063
1364.698, 6775.026
1365.758, 6809.623
1366.818, 6720.966
1367.878, 6748.096
1368.937, 6743.311
1369.997, 6848.811
1371.056, 6867.245
1372.115, 6780.679
1373.174, 6694.558
1374.232, 6807.993
1375.291, 6732.287
1376.350, 6758.621
1377.408, 6679.567
1378.466, 6691.508
1379.524, 6702.005
1380.582, 6759.147
1381.640, 6674.849
1382.697, 6774.021
1383.754, 6767.151
1384.812, 6791.519
1385.869, 6812.411
1386.926, 6691.005
1387.983, 6686.249
1389.039, 6848.408
1390.096, 6756.013
1391.152, 6714.996
1392.208, 6710.501
1393.264, 6878.376
1394.320, 6886.036
1395.376, 6702.188
1396.431, 6862.467
1397.487, 6811.033
1398.542, 6822.512
1399.597, 6811.038
1400.652, 6806.358
1401.707, 6715.250
1402.762, 6738.039
1403.816, 6853.435
1404.871, 6810.948
1405.925, 6875.742
1406.979, 6821.000
1408.033, 6726.000
1409.086, 6816.000
1410.140, 6757.000
1411.194, 6784.000
1412.247, 6810.000
1413.300, 6749.000
1414.353, 6786.383
1415.406, 6761.000
1416.458, 6820.000
1417.511, 6710.000
1418.563, 6762.000
1419.616, 6780.000
1420.668, 6687.000
1421.720, 6730.000
1422.772, 6779.000
1423.823, 6824.000
1424.875, 6673.000
1425.926, 6851.000
1426.977, 6760.000
1428.028, 6648.403
1429.079, 6824.071
1430.130, 6923.579
1431.180, 6951.018
1432.231, 6690.538
1433.281, 6801.845
1434.331, 6764.156
1435.381, 6720.357
1436.431, 6883.992
1437.481, 6665.388
1438.530, 6825.731
1439.580, 6834.807
1440.629, 6913.113
1441.678, 6841.502
1442.727, 6816.197
1443.776, 6940.855
1444.824, 6982.476
1445.873, 6893.608
1446.921, 6976.313
1447.969, 6752.470
1449.017, 6797.627
1450.065, 6958.846
1451.113, 6877.515
1452.160, 6962.959
1453.208, 6984.887
1454.255, 6718.150
1455.302, 6953.428
1456.349, 6971.601
1457.396, 6766.854
1458.443, 6984.931
1459.489, 6810.914
1460.535, 6776.851
1461.582, 6848.112
1462.628, 6809.576
1463.674, 6944.145
1464.719, 6911.948
1465.765, 6864.853
1466.810, 6882.779
1467.856, 6716.451
1468.901, 6891.952
1469.946, 6833.955
1470.991, 6892.024
1472.035, 6976.400
1473.080, 6859.336
1474.124, 6955.533
1475.169, 6721.012
1476.213, 6763.215
1477.257, 6775.619
1478.300, 6964.898
1479.344, 6731.988
1480.388, 6766.501
1481.431, 6914.879
1482.474, 6903.933
1483.517, 6959.600
1484.560, 6818.063
1485.603, 6861.785
1486.645, 6854.440
1487.688, 7023.554
1488.730, 7053.362
1489.772, 6915.169
1490.814, 6777.688
1491.856, 6959.499
1492.898, 6838.682
1493.939, 6881.127
1494.981, 6754.956
1496.022, 6774.373
1497.063, 6791.481
1498.104, 6883.222
1499.145, 6748.656
1500.186, 6907.646
1501.226, 6896.967
1502.266, 6936.267
1503.307, 6970.008
1504.347, 6776.070
1505.387, 6768.773
1506.426, 7028.539
1507.466, 6881.020
1508.505, 6815.703
1509.545, 6808.826
1510.584, 7077.737
1511.623, 7090.305
1512.662, 6796.461
1513.700, 7053.219
1514.739, 6971.236
1515.777, 6989.915
1516.815, 6971.868
1517.854, 6964.693
1518.892, 6819.232
1519.929, 6856.003
1520.967, 7040.951
1522.004, 6973.281
1523.042, 7077.264
1524.079, 6868.420
1525.116, 6845.264
1526.153, 6871.396
1527.190, 6915.503
1528.226, 6815.980
1529.263, 7003.698
1530.299, 7000.161
1531.335, 6830.890
1532.371, 6841.406
1533.407, 6822.071
1534.443, 7113.504
1535.478, 6977.666
1536.514, 6811.573
1537.549, 6984.199
1538.584, 7048.258
1539.619, 6965.542
1540.654, 6960.818
1541.689, 6808.129
1542.723, 6882.350
1543.757, 6878.530
1544.792, 7003.294
1545.826, 6851.199
1546.860, 7017.824
1547.893, 6873.152
1548.927, 7052.682
1549.960, 6901.429
1550.994, 7044.839
1552.027, 6836.528
1553.060, 6882.789
1554.093, 6949.229
1555.126, 7080.845
1556.158, 6961.883
1557.191, 7108.959
1558.223, 7022.568
1559.255, 7088.139
1560.287, 7069.444
1561.319, 6945.284
1562.350, 7014.000
##END=



