##NAMES=Chloritoid
##RRUFFID=R050334
##IDEAL CHEMISTRY=Fe^2+^Al_2_OSiO_4_(OH)_2_
##LOCALITY=Selçuk, Mugla Province, Turkey
##OWNER=RRUFF
##SOURCE=George Rossman
##DESCRIPTION=Dark greenish-black foliated cleavage fragments
##STATUS=The identification of this mineral is confirmed by single-crystal X-ray diffraction and chemical analysis.
##URL=rruff.info/R050334
##MEASURED CHEMISTRY=(Fe^2+^_1.84_Mg_0.12_Mn_0.04_)_Σ=2_(Al_3.95_Fe^3+^_0.05_)_Σ=4_Si_2.00_O_10_(OH)_4_ ; H not measured but estimated by difference and stoichiometry
##PIN_ID=M00341
##ORIENTATION=Laser parallel to b* (0 1 0). Fiducial mark perpendicular to laser is parallel to -c [0 0 -1]
89.77700, 7971.000
91.01200, 7655.000
92.24600, 7426.000
93.48000, 7427.000
94.71400, 7220.000
95.94800, 7189.000
97.18200, 7473.000
98.41600, 7370.000
99.64900, 7234.000
100.8830, 7605.000
102.1160, 8567.000
103.3490, 9856.000
104.5820, 11949.00
105.8150, 11781.33
107.0470, 11284.39
108.2800, 11856.00
109.5120, 9293.000
110.7440, 9036.000
111.9760, 9839.000
113.2080, 10807.00
114.4400, 10307.00
115.6710, 9649.000
116.9030, 9141.000
118.1340, 8634.000
119.3650, 8392.000
120.5960, 7883.033
121.8270, 8077.000
123.0580, 7256.000
124.2880, 6997.000
125.5190, 7113.000
126.7490, 7321.000
127.9790, 7508.000
129.2090, 7544.000
130.4390, 7075.000
131.6680, 6883.000
132.8980, 7004.000
134.1270, 7208.000
135.3560, 7356.000
136.5850, 7318.619
137.8140, 7747.000
139.0430, 7226.000
140.2710, 6969.000
141.5000, 6969.000
142.7280, 6998.000
143.9560, 7148.000
145.1840, 7162.000
146.4120, 6977.556
147.6390, 7037.500
148.8670, 7063.786
150.0940, 7058.246
151.3210, 6925.509
152.5490, 6957.008
153.7750, 6922.710
155.0020, 6885.700
156.2290, 6940.330
157.4550, 6826.107
158.6810, 6879.298
159.9080, 6865.647
161.1340, 7080.000
162.3590, 7447.000
163.5850, 7345.000
164.8110, 7329.000
166.0360, 7426.000
167.2610, 7417.000
168.4860, 7343.853
169.7110, 7446.000
170.9360, 7168.000
172.1610, 7206.000
173.3850, 7165.000
174.6100, 7135.000
175.8340, 7224.000
177.0580, 7263.000
178.2820, 7232.000
179.5050, 7285.000
180.7290, 7348.968
181.9520, 7352.000
183.1760, 7486.000
184.3990, 7640.000
185.6220, 7649.234
186.8450, 7757.461
188.0670, 7689.000
189.2900, 7948.000
190.5120, 8176.000
191.7340, 8456.000
192.9560, 8371.000
194.1780, 8540.000
195.4000, 8640.000
196.6220, 8838.000
197.8430, 8947.604
199.0640, 8684.880
200.2860, 8388.228
201.5070, 8060.012
202.7270, 7604.876
203.9480, 7313.713
205.1690, 7239.000
206.3890, 7176.000
207.6090, 7191.000
208.8290, 7297.000
210.0490, 7253.000
211.2690, 7235.728
212.4890, 7284.000
213.7080, 7121.000
214.9280, 6994.000
216.1470, 6933.733
217.3660, 6939.000
218.5850, 6902.000
219.8030, 6917.000
221.0220, 6955.000
222.2400, 6835.000
223.4590, 6861.000
224.6770, 6842.000
225.8950, 6754.000
227.1120, 6646.000
228.3300, 6558.000
229.5480, 6527.000
230.7650, 6499.264
231.9820, 6409.000
233.1990, 6543.000
234.4160, 6530.000
235.6330, 6611.000
236.8490, 6614.000
238.0660, 6730.000
239.2820, 6909.000
240.4980, 6922.298
241.7140, 7092.000
242.9300, 7135.000
244.1460, 7346.000
245.3610, 7658.000
246.5770, 7969.000
247.7920, 8303.000
249.0070, 8507.000
250.2220, 8734.000
251.4370, 8874.000
252.6510, 8964.000
253.8660, 8865.347
255.0800, 8865.357
256.2940, 8831.722
257.5080, 8766.249
258.7220, 8573.579
259.9360, 8545.157
261.1490, 8450.977
262.3630, 8354.031
263.5760, 8092.000
264.7890, 7801.000
266.0020, 7704.000
267.2150, 7747.000
268.4270, 7694.000
269.6400, 7850.000
270.8520, 8110.000
272.0640, 8271.897
273.2760, 8773.000
274.4880, 8861.000
275.7000, 9176.000
276.9120, 9576.000
278.1230, 9738.000
279.3340, 10005.00
280.5450, 10422.00
281.7560, 10438.00
282.9670, 10345.00
284.1780, 9909.000
285.3880, 9500.000
286.5980, 9004.000
287.8090, 8539.000
289.0190, 8336.000
290.2290, 8065.000
291.4380, 7731.000
292.6480, 7710.000
293.8570, 7608.000
295.0670, 7528.000
296.2760, 7525.000
297.4850, 7630.000
298.6930, 7596.000
299.9020, 7761.000
301.1110, 7729.000
302.3190, 7689.000
303.5270, 7821.000
304.7350, 7598.000
305.9430, 7591.000
307.1510, 7479.000
308.3580, 7276.000
309.5660, 7177.000
310.7730, 7055.162
311.9800, 6965.000
313.1870, 6866.000
314.3940, 6805.474
315.6010, 6752.837
316.8070, 6720.000
318.0130, 6704.000
319.2200, 6693.000
320.4260, 6718.000
321.6310, 6686.000
322.8370, 6797.000
324.0430, 7009.000
325.2480, 7013.000
326.4540, 7125.000
327.6590, 7181.000
328.8640, 7351.000
330.0680, 7346.000
331.2730, 7554.000
332.4780, 7665.000
333.6820, 7722.000
334.8860, 7795.000
336.0900, 7762.000
337.2940, 7639.000
338.4980, 7408.000
339.7010, 7200.000
340.9050, 7069.000
342.1080, 6953.000
343.3110, 6955.000
344.5140, 6928.000
345.7170, 7091.000
346.9200, 6967.000
348.1220, 7009.000
349.3240, 6869.000
350.5270, 6911.000
351.7290, 6889.000
352.9310, 6962.000
354.1320, 6953.000
355.3340, 6941.000
356.5350, 6998.000
357.7370, 7112.000
358.9380, 7274.000
360.1390, 7314.000
361.3400, 7486.000
362.5400, 7590.000
363.7410, 7768.000
364.9410, 7796.000
366.1410, 7768.000
367.3410, 7771.000
368.5410, 7836.000
369.7410, 7522.000
370.9400, 7678.000
372.1400, 7543.000
373.3390, 7382.000
374.5380, 7375.000
375.7370, 7297.000
376.9360, 7621.000
378.1350, 7805.000
379.3330, 8202.000
380.5310, 7807.000
381.7300, 7833.000
382.9280, 7781.000
384.1260, 7994.000
385.3230, 8244.000
386.5210, 8340.000
387.7180, 8382.000
388.9160, 8540.000
390.1130, 8786.000
391.3100, 8622.077
392.5060, 8791.000
393.7030, 8414.000
394.9000, 7595.000
396.0960, 7559.000
397.2920, 7483.000
398.4880, 7501.000
399.6840, 7494.000
400.8800, 7516.000
402.0750, 7531.000
403.2710, 7716.000
404.4660, 7741.000
405.6610, 7873.000
406.8560, 7950.000
408.0510, 8000.000
409.2450, 8109.000
410.4400, 8284.000
411.6340, 8453.000
412.8280, 8502.000
414.0220, 8580.000
415.2160, 8547.000
416.4100, 8548.000
417.6030, 8363.000
418.7970, 8248.000
419.9900, 7989.000
421.1830, 7900.000
422.3760, 7734.000
423.5690, 7776.000
424.7610, 7675.194
425.9540, 7606.396
427.1460, 7572.000
428.3380, 7518.000
429.5300, 7485.063
430.7220, 7469.000
431.9140, 7454.000
433.1050, 7471.000
434.2970, 7515.000
435.4880, 7373.000
436.6790, 7516.000
437.8700, 7383.000
439.0610, 7430.000
440.2510, 7401.000
441.4420, 7437.000
442.6320, 7587.000
443.8220, 7538.000
445.0120, 7659.000
446.2020, 7687.000
447.3910, 7850.000
448.5810, 7858.000
449.7700, 7932.000
450.9600, 7907.000
452.1490, 8066.000
453.3370, 8162.000
454.5260, 8231.000
455.7150, 8085.000
456.9030, 7956.000
458.0910, 8117.000
459.2800, 8014.000
460.4670, 8021.000
461.6550, 8167.000
462.8430, 8066.000
464.0300, 8205.000
465.2180, 8244.000
466.4050, 8274.000
467.5920, 8344.000
468.7790, 8476.000
469.9650, 8542.520
471.1520, 8691.000
472.3380, 8786.000
473.5250, 8844.000
474.7110, 8936.191
475.8970, 9055.000
477.0820, 9028.000
478.2680, 9122.000
479.4540, 9109.000
480.6390, 9038.000
481.8240, 9057.000
483.0090, 9074.000
484.1940, 9185.000
485.3780, 9300.000
486.5630, 9426.000
487.7470, 9686.000
488.9320, 10016.00
490.1160, 10435.00
491.3000, 10799.00
492.4830, 11069.00
493.6670, 11457.00
494.8500, 12006.00
496.0340, 12581.00
497.2170, 13066.00
498.4000, 13438.00
499.5820, 13571.15
500.7650, 13688.00
501.9480, 13443.00
503.1300, 13027.00
504.3120, 12580.00
505.4940, 12437.00
506.6760, 12296.00
507.8580, 12214.00
509.0390, 12195.00
510.2210, 12165.00
511.4020, 11941.00
512.5830, 11761.00
513.7640, 11192.00
514.9450, 10825.00
516.1250, 10347.00
517.3060, 9897.000
518.4860, 9671.000
519.6660, 9462.000
520.8460, 9215.000
522.0260, 9169.000
523.2060, 9242.000
524.3850, 9235.838
525.5650, 9338.896
526.7440, 9490.000
527.9230, 9522.000
529.1020, 9716.000
530.2810, 9704.000
531.4590, 9455.000
532.6380, 9429.000
533.8160, 9455.000
534.9940, 9281.000
536.1720, 9267.001
537.3500, 9311.000
538.5270, 9274.000
539.7050, 9461.000
540.8820, 9826.000
542.0590, 10353.00
543.2360, 11033.00
544.4130, 11553.00
545.5900, 12058.00
546.7660, 12483.00
547.9430, 13082.00
549.1190, 13893.00
550.2950, 14406.00
551.4710, 14941.00
552.6470, 14962.00
553.8220, 14689.00
554.9980, 13799.00
556.1730, 12559.00
557.3480, 11249.00
558.5230, 10151.00
559.6980, 9315.000
560.8730, 8911.000
562.0470, 8787.000
563.2220, 8609.000
564.3960, 8523.000
565.5700, 8326.000
566.7440, 8215.000
567.9170, 8267.000
569.0910, 8228.000
570.2640, 8266.000
571.4380, 8240.000
572.6110, 8423.000
573.7840, 8510.000
574.9570, 8645.000
576.1290, 8762.000
577.3020, 8954.000
578.4740, 9270.000
579.6460, 9903.000
580.8180, 10699.00
581.9900, 11994.00
583.1620, 14122.00
584.3330, 16988.00
585.5040, 20728.00
586.6760, 24591.00
587.8470, 26892.00
589.0180, 29648.00
590.1880, 34590.00
591.3590, 40179.00
592.5290, 47323.00
593.7000, 53128.00
594.8700, 55664.00
596.0400, 52555.00
597.2090, 44341.00
598.3790, 33541.00
599.5490, 24114.00
600.7180, 19293.00
601.8870, 14822.00
603.0560, 13696.00
604.2250, 12755.00
605.3940, 11074.00
606.5620, 10832.00
607.7300, 10041.00
608.8990, 9327.000
610.0670, 9146.000
611.2350, 8934.000
612.4020, 8614.000
613.5700, 8610.000
614.7370, 8477.000
615.9050, 8310.000
617.0720, 8113.000
618.2390, 8109.000
619.4060, 7902.000
620.5720, 7896.000
621.7390, 8025.000
622.9050, 7951.000
624.0710, 7900.000
625.2370, 7808.000
626.4030, 7700.000
627.5690, 7743.000
628.7340, 7669.000
629.9000, 7693.000
631.0650, 7733.000
632.2300, 7634.000
633.3950, 7560.000
634.5600, 7596.000
635.7240, 7542.000
636.8890, 7635.000
638.0530, 7676.000
639.2170, 7559.000
640.3810, 7624.000
641.5450, 7586.000
642.7080, 7526.000
643.8720, 7642.000
645.0350, 7432.000
646.1980, 7574.000
647.3610, 7596.000
648.5240, 7541.000
649.6870, 7499.000
650.8490, 7604.000
652.0120, 7518.000
653.1740, 7542.000
654.3360, 7599.000
655.4980, 7569.000
656.6600, 7608.566
657.8210, 7630.545
658.9830, 7647.000
660.1440, 7660.000
661.3050, 7692.000
662.4660, 7662.000
663.6270, 7650.000
664.7870, 7683.626
665.9480, 7738.000
667.1080, 7732.000
668.2680, 7745.000
669.4280, 7753.000
670.5880, 7676.000
671.7480, 7648.000
672.9070, 7560.000
674.0670, 7574.000
675.2260, 7447.000
676.3850, 7559.000
677.5440, 7402.000
678.7030, 7352.000
679.8610, 7507.000
681.0200, 7409.000
682.1780, 7537.000
683.3360, 7499.000
684.4940, 7428.000
685.6520, 7423.000
686.8090, 7469.000
687.9670, 7462.000
689.1240, 7540.000
690.2810, 7531.017
691.4380, 7568.000
692.5950, 7533.000
693.7520, 7529.000
694.9080, 7514.000
696.0650, 7534.342
697.2210, 7554.000
698.3770, 7593.000
699.5330, 7596.000
700.6880, 7621.536
701.8440, 7653.783
702.9990, 7691.000
704.1550, 7762.000
705.3100, 7776.000
706.4650, 7841.831
707.6190, 7872.000
708.7740, 7952.000
709.9290, 7951.000
711.0830, 8000.202
712.2370, 8108.000
713.3910, 8148.000
714.5450, 8288.000
715.6980, 8434.000
716.8520, 8525.000
718.0050, 8615.000
719.1580, 8639.000
720.3110, 8849.000
721.4640, 9015.000
722.6170, 9285.000
723.7700, 9279.000
724.9220, 9653.000
726.0740, 9881.000
727.2260, 9917.000
728.3780, 10223.00
729.5300, 10293.00
730.6810, 10570.00
731.8330, 10754.00
732.9840, 10787.00
734.1350, 10781.00
735.2860, 10858.00
736.4370, 10743.06
737.5880, 10704.97
738.7380, 10644.00
739.8880, 10311.00
741.0390, 10506.00
742.1890, 9901.178
743.3380, 9912.079
744.4880, 9691.000
745.6380, 9599.000
746.7870, 9491.000
747.9360, 9233.000
749.0850, 9135.000
750.2340, 9029.000
751.3830, 8800.000
752.5310, 8750.000
753.6800, 8816.000
754.8280, 8599.000
755.9760, 8487.000
757.1240, 8599.000
758.2720, 8458.000
759.4190, 8508.000
760.5670, 8334.000
761.7140, 8432.000
762.8610, 8410.000
764.0080, 8303.000
765.1550, 8357.584
766.3020, 8305.000
767.4480, 8344.000
768.5950, 8315.000
769.7410, 8308.000
770.8870, 8245.000
772.0330, 8286.000
773.1780, 8270.000
774.3240, 8129.068
775.4690, 8211.232
776.6140, 8259.750
777.7590, 8276.430
778.9040, 8165.912
780.0490, 8219.644
781.1940, 8207.552
782.3380, 8192.756
783.4820, 8269.600
784.6260, 8177.578
785.7700, 8365.000
786.9140, 8385.000
788.0580, 8441.000
789.2010, 8392.000
790.3450, 8343.000
791.4880, 8480.000
792.6310, 8591.000
793.7730, 8507.000
794.9160, 8543.000
796.0590, 8660.000
797.2010, 8695.000
798.3430, 8718.000
799.4850, 8594.000
800.6270, 8647.000
801.7690, 8770.000
802.9100, 8667.000
804.0520, 8756.000
805.1930, 8839.000
806.3340, 8820.000
807.4750, 8814.000
808.6160, 8818.000
809.7560, 9040.000
810.8970, 8927.000
812.0370, 9019.000
813.1770, 8936.000
814.3170, 8970.000
815.4570, 8965.000
816.5960, 9102.000
817.7360, 9165.000
818.8750, 9294.000
820.0140, 9341.000
821.1530, 9532.000
822.2920, 9765.000
823.4310, 9879.000
824.5690, 9965.000
825.7070, 10144.00
826.8460, 10221.00
827.9840, 10487.00
829.1220, 10824.00
830.2590, 11188.00
831.3970, 11584.00
832.5340, 11860.71
833.6710, 12003.00
834.8080, 12374.00
835.9450, 12581.00
837.0820, 12703.00
838.2190, 12985.00
839.3550, 13265.00
840.4910, 13229.00
841.6270, 13361.00
842.7630, 13481.00
843.8990, 13227.42
845.0350, 13018.00
846.1700, 12762.00
847.3060, 12584.00
848.4410, 12435.00
849.5760, 12042.00
850.7100, 11968.00
851.8450, 11808.00
852.9800, 11797.00
854.1140, 11674.00
855.2480, 11525.00
856.3820, 11631.00
857.5160, 11529.00
858.6500, 11550.00
859.7830, 11618.00
860.9170, 11811.00
862.0500, 11874.00
863.1830, 12092.00
864.3160, 12383.00
865.4480, 12617.55
866.5810, 12968.41
867.7130, 13330.00
868.8460, 13712.00
869.9780, 14249.00
871.1100, 14678.00
872.2410, 15417.00
873.3730, 16094.00
874.5050, 16909.00
875.6360, 17489.00
876.7670, 17836.00
877.8980, 18416.00
879.0290, 18467.00
880.1590, 18543.00
881.2900, 18300.00
882.4200, 17978.00
883.5500, 17516.00
884.6800, 16801.00
885.8100, 16242.00
886.9400, 15386.00
888.0690, 14819.00
889.1990, 14320.00
890.3280, 14032.00
891.4570, 13677.00
892.5860, 13398.00
893.7140, 13382.00
894.8430, 13300.33
895.9710, 13431.39
897.1000, 13528.84
898.2280, 13594.41
899.3560, 13532.79
900.4830, 13788.00
901.6110, 13882.00
902.7380, 14006.00
903.8660, 13942.00
904.9930, 14147.00
906.1200, 13957.00
907.2460, 13876.00
908.3730, 13580.00
909.5000, 13366.87
910.6260, 13254.00
911.7520, 12816.00
912.8780, 12265.00
914.0040, 11956.00
915.1290, 11734.57
916.2550, 11632.00
917.3800, 11424.00
918.5050, 11283.00
919.6300, 11009.00
920.7550, 10928.00
921.8800, 10887.00
923.0040, 10787.00
924.1290, 10785.00
925.2530, 10610.00
926.3770, 10598.37
927.5010, 10620.00
928.6250, 10515.00
929.7480, 10636.00
930.8720, 10619.00
931.9950, 10615.00
933.1180, 10550.00
934.2410, 10634.00
935.3640, 10504.00
936.4860, 10570.00
937.6090, 10617.00
938.7310, 10662.00
939.8530, 10736.05
940.9750, 10786.00
942.0970, 10870.00
943.2180, 10903.45
944.3400, 10952.65
945.4610, 11005.00
946.5820, 10975.00
947.7030, 10985.00
948.8240, 11075.00
949.9450, 11167.00
951.0650, 11052.00
952.1860, 11162.00
953.3060, 11193.00
954.4260, 11171.00
955.5460, 11157.00
956.6650, 11235.00
957.7850, 11147.00
958.9040, 11192.00
960.0230, 11048.00
961.1420, 11118.00
962.2610, 11063.00
963.3800, 11203.00
964.4990, 10939.00
965.6170, 10901.00
966.7350, 10911.00
967.8530, 10986.00
968.9710, 10983.00
970.0890, 10770.00
971.2070, 10860.00
972.3240, 10717.10
973.4410, 10656.72
974.5580, 10585.00
975.6750, 10497.00
976.7920, 10542.00
977.9090, 10406.00
979.0250, 10408.00
980.1410, 10442.00
981.2580, 10328.00
982.3740, 10338.96
983.4890, 10248.00
984.6050, 10281.00
985.7200, 10218.00
986.8360, 10217.00
987.9510, 10112.00
989.0660, 10251.00
990.1810, 10142.00
991.2950, 10225.00
992.4100, 10292.00
993.5240, 10326.00
994.6390, 10190.00
995.7530, 10380.00
996.8660, 10207.00
997.9800, 10330.00
999.0940, 10318.00
1000.207, 10183.00
1001.320, 10320.00
1002.433, 10304.00
1003.546, 10301.00
1004.659, 10360.00
1005.772, 10222.00
1006.884, 10296.00
1007.996, 10233.00
1009.108, 10453.00
1010.220, 10288.00
1011.332, 10334.00
1012.444, 10119.00
1013.555, 10122.00
1014.666, 10256.00
1015.777, 10306.00
1016.888, 10245.00
1017.999, 10232.00
1019.110, 10230.00
1020.220, 10171.00
1021.331, 10125.00
1022.441, 10302.00
1023.551, 10206.00
1024.661, 10150.00
1025.770, 10171.00
1026.880, 10057.00
1027.989, 10214.00
1029.098, 10157.00
1030.207, 10162.00
1031.316, 10175.00
1032.425, 10200.00
1033.533, 10227.00
1034.642, 10191.00
1035.750, 10293.00
1036.858, 10158.00
1037.966, 10455.00
1039.073, 10283.00
1040.181, 10268.00
1041.288, 10359.00
1042.396, 10315.00
1043.503, 10404.00
1044.610, 10423.00
1045.716, 10214.00
1046.823, 10126.00
1047.929, 10255.00
1049.036, 10288.00
1050.142, 10347.00
1051.248, 10464.00
1052.353, 10276.00
1053.459, 10350.00
1054.564, 10361.00
1055.670, 10398.00
1056.775, 10314.00
1057.880, 10385.00
1058.985, 10437.00
1060.089, 10364.00
1061.194, 10585.00
1062.298, 10487.98
1063.402, 10691.00
1064.506, 10430.00
1065.610, 10375.00
1066.713, 10361.00
1067.817, 10462.00
1068.920, 10457.00
1070.023, 10362.00
1071.126, 10475.00
1072.229, 10462.00
1073.332, 10567.00
1074.435, 10724.00
1075.537, 10680.10
1076.639, 10711.67
1077.741, 10644.00
1078.843, 10670.00
1079.945, 10595.00
1081.046, 10659.00
1082.148, 10699.00
1083.249, 10738.00
1084.350, 10639.00
1085.451, 10699.00
1086.551, 10747.00
1087.652, 10657.00
1088.752, 10856.00
1089.853, 10777.00
1090.953, 10757.00
1092.053, 10851.00
1093.152, 10804.00
1094.252, 10771.00
1095.351, 10722.00
1096.451, 10779.00
1097.550, 10622.00
1098.649, 10640.00
1099.748, 10701.00
1100.846, 10696.00
1101.945, 10572.83
1103.043, 10509.00
1104.141, 10281.00
1105.239, 10519.00
1106.337, 10452.00
1107.434, 10313.00
1108.532, 10490.00
1109.629, 10365.43
1110.726, 10426.00
1111.823, 10339.00
1112.920, 10347.00
1114.017, 10408.00
1115.113, 10345.00
1116.210, 10395.00
1117.306, 10447.00
1118.402, 10596.00
1119.498, 10480.00
1120.593, 10377.00
1121.689, 10501.00
1122.784, 10573.00
1123.879, 10511.00
1124.974, 10388.00
1126.069, 10433.00
1127.164, 10330.00
1128.259, 10331.00
1129.353, 10229.00
1130.447, 10223.00
1131.541, 10300.00
1132.635, 10271.00
1133.729, 10261.68
1134.822, 10229.00
1135.916, 10216.00
1137.009, 10166.00
1138.102, 10180.00
1139.195, 10192.00
1140.288, 10218.00
1141.380, 10202.19
1142.473, 10226.00
1143.565, 10188.00
1144.657, 10186.00
1145.749, 10213.00
1146.841, 10161.00
1147.932, 10140.00
1149.024, 10226.00
1150.115, 10073.00
1151.206, 10307.00
1152.297, 10153.00
1153.388, 10106.00
1154.479, 10138.00
1155.569, 10114.00
1156.659, 10113.00
1157.750, 10111.00
1158.839, 10062.00
1159.929, 10072.00
1161.019, 10198.00
1162.108, 9996.000
1163.198, 10163.00
1164.287, 10102.00
1165.376, 10041.00
1166.465, 10077.00
1167.553, 10163.00
1168.642, 10123.00
1169.730, 9992.000
1170.818, 10085.00
1171.906, 10054.00
1172.994, 9957.000
1174.082, 10190.00
1175.170, 10047.00
1176.257, 10104.00
1177.344, 10106.00
1178.431, 10120.00
1179.518, 10172.00
1180.605, 10064.00
1181.691, 10180.00
1182.778, 10064.00
1183.864, 9978.000
1184.950, 10091.00
1186.036, 10061.00
1187.122, 10028.00
1188.207, 10130.00
1189.292, 9982.000
1190.378, 10102.00
1191.463, 10072.00
1192.548, 10100.00
1193.632, 10012.00
1194.717, 10115.00
1195.801, 10117.00
1196.886, 10082.00
1197.970, 10144.00
1199.054, 10047.00
1200.137, 10012.00
1201.221, 10111.00
1202.305, 10039.00
1203.388, 10026.00
1204.471, 10072.00
1205.554, 10017.00
1206.637, 10047.00
1207.719, 9985.000
1208.802, 10081.00
1209.884, 10143.00
1210.966, 10176.00
1212.048, 10189.94
1213.130, 10137.00
1214.212, 10146.00
1215.293, 10075.00
1216.374, 10015.00
1217.456, 10216.00
1218.536, 10027.00
1219.617, 10052.00
1220.698, 10201.00
1221.778, 10020.00
1222.859, 10109.00
1223.939, 10035.06
1225.019, 10116.85
1226.099, 10164.98
1227.178, 10181.28
1228.258, 10070.38
1229.337, 10123.73
1230.417, 10111.25
1231.496, 10096.08
1232.574, 10172.54
1233.653, 10172.00
1234.732, 10204.00
1235.810, 10087.00
1236.888, 10187.00
1237.966, 10179.00
1239.044, 10058.00
1240.122, 10118.00
1241.199, 10175.00
1242.277, 10176.00
1243.354, 10061.00
1244.431, 10175.00
1245.508, 10210.00
1246.585, 10213.00
1247.661, 10340.00
1248.738, 10287.00
1249.814, 10245.00
1250.890, 10180.00
1251.966, 10169.16
1253.042, 10152.07
1254.117, 10156.00
1255.193, 10150.00
1256.268, 10166.00
1257.343, 10156.00
1258.418, 10186.00
1259.493, 10089.00
1260.567, 10282.00
1261.642, 10171.00
1262.716, 10180.00
1263.790, 10302.00
1264.864, 10323.00
1265.938, 10294.00
1267.011, 10247.00
1268.085, 10317.00
1269.158, 10251.17
1270.231, 10226.00
1271.304, 10196.00
1272.377, 10228.00
1273.450, 10220.00
1274.522, 10193.00
1275.594, 10107.00
1276.666, 10214.00
1277.738, 10347.00
1278.810, 10299.00
1279.882, 10279.00
1280.953, 10237.00
1282.025, 10325.00
1283.096, 10252.00
1284.167, 10327.00
1285.238, 10360.00
1286.308, 10195.00
1287.379, 10289.00
1288.449, 10282.65
1289.519, 10307.43
1290.589, 10382.00
1291.659, 10357.00
1292.729, 10427.00
1293.798, 10279.00
1294.868, 10151.00
1295.937, 10259.00
1297.006, 10404.00
1298.075, 10400.00
1299.143, 10373.00
1300.212, 10309.00
1301.280, 10363.00
1302.348, 10416.00
1303.416, 10387.36
1304.484, 10315.00
1305.552, 10383.00
1306.620, 10347.00
1307.687, 10333.00
1308.754, 10381.00
1309.821, 10401.00
1310.888, 10411.00
1311.955, 10435.77
1313.021, 10455.00
1314.088, 10485.00
1315.154, 10495.00
1316.220, 10572.00
1317.286, 10444.00
1318.352, 10634.00
1319.417, 10363.00
1320.483, 10317.00
1321.548, 10580.00
1322.613, 10508.00
1323.678, 10487.00
1324.743, 10535.61
1325.807, 10580.00
1326.872, 10461.00
1327.936, 10577.00
1329.000, 10516.00
1330.064, 10545.00
1331.128, 10633.00
1332.191, 10710.00
1333.255, 10550.00
1334.318, 10477.00
1335.381, 10558.00
1336.444, 10617.00
1337.507, 10568.00
1338.569, 10647.00
1339.632, 10542.00
1340.694, 10585.00
1341.756, 10608.00
1342.818, 10628.00
1343.880, 10595.00
1344.941, 10634.00
1346.003, 10626.00
1347.064, 10602.00
1348.125, 10475.00
1349.186, 10612.00
1350.247, 10551.00
1351.308, 10603.00
1352.368, 10644.00
1353.428, 10574.00
1354.489, 10628.00
1355.549, 10665.00
1356.608, 10641.00
1357.668, 10660.00
1358.727, 10828.00
1359.787, 10624.00
1360.846, 10710.00
1361.905, 10771.00
1362.964, 10690.00
1364.022, 10575.00
1365.081, 10573.00
1366.139, 10639.00
1367.197, 10633.00
1368.255, 10643.77
1369.313, 10686.00
1370.371, 10656.00
1371.428, 10678.00
1372.486, 10713.00
1373.543, 10662.00
1374.600, 10681.00
1375.657, 10663.64
1376.713, 10615.00
1377.770, 10610.00
1378.826, 10686.00
1379.882, 10620.00
1380.938, 10789.00
1381.994, 10595.00
1383.050, 10666.00
1384.106, 10693.00
1385.161, 10597.00
1386.216, 10821.00
1387.271, 10721.00
1388.326, 10742.00
1389.381, 10652.00
1390.435, 10765.00
1391.490, 10714.00
1392.544, 10805.00
1393.598, 10733.00
1394.652, 10746.00
1395.705, 10743.00
1396.759, 10896.00
1397.812, 10732.00
1398.866, 10856.00
1399.919, 10890.00
1400.972, 10710.00
1402.024, 10788.00
1403.077, 10872.00
1404.129, 10831.00
1405.181, 10854.00
1406.233, 10893.00
1407.285, 10805.00
1408.337, 10874.00
1409.389, 10755.00
1410.440, 10677.00
1411.491, 10942.00
1412.542, 10801.00
1413.593, 10757.00
1414.644, 10977.00
1415.695, 10716.00
1416.745, 10970.00
1417.795, 10746.00
1418.845, 10934.00
1419.895, 10888.00
1420.945, 10791.00
1421.995, 10894.00
1423.044, 10870.00
1424.093, 10825.00
1425.142, 10890.00
1426.191, 10957.00
1427.240, 10905.00
1428.289, 10875.00
1429.337, 10887.00
1430.385, 10853.00
1431.433, 10960.00
1432.481, 10931.00
1433.529, 11039.00
1434.577, 10876.00
1435.624, 11035.00
1436.672, 10821.00
1437.719, 10965.00
1438.766, 10998.00
1439.812, 11038.00
1440.859, 10965.00
1441.905, 10978.00
1442.952, 10990.00
1443.998, 10978.00
1445.044, 10986.00
1446.090, 10954.00
1447.135, 10968.26
1448.181, 11054.00
1449.226, 11011.00
1450.271, 11027.00
1451.316, 11111.00
1452.361, 10957.00
1453.405, 11124.00
1454.450, 11103.00
1455.494, 10965.00
1456.538, 10970.00
1457.582, 10869.00
1458.626, 11029.00
1459.670, 11016.00
1460.713, 10937.00
1461.757, 11113.00
1462.800, 11111.00
1463.843, 10989.00
1464.886, 11191.00
1465.928, 11019.00
1466.971, 11014.00
1468.013, 11051.00
1469.055, 11020.00
1470.097, 11078.00
1471.139, 11125.00
1472.181, 11197.00
1473.222, 11012.00
1474.263, 10968.00
1475.305, 11100.00
1476.346, 10963.00
1477.386, 11081.00
1478.427, 11078.08
1479.468, 11068.00
1480.508, 11078.00
1481.548, 11062.95
1482.588, 11113.00
1483.628, 11042.00
1484.668, 11018.00
1485.707, 11007.10
1486.747, 11147.00
1487.786, 11039.00
1488.825, 11160.00
1489.864, 11190.00
1490.902, 11090.00
1491.941, 11119.00
1492.979, 11103.00
1494.017, 11101.00
1495.055, 11043.00
1496.093, 11084.00
1497.131, 11056.00
1498.168, 11018.00
1499.206, 11133.00
1500.243, 11154.00
1501.280, 11152.00
1502.317, 11083.00
1503.354, 11129.00
1504.390, 11011.00
1505.426, 11316.00
1506.463, 11121.00
1507.499, 11134.00
1508.535, 11269.00
1509.570, 11199.00
1510.606, 11187.00
1511.641, 11258.00
1512.676, 11236.00
1513.711, 11178.00
1514.746, 11247.00
1515.781, 11248.00
1516.816, 11197.00
1517.850, 11249.99
1518.884, 11199.19
1519.918, 11294.00
1520.952, 11186.00
1521.986, 11150.05
1523.019, 11232.08
1524.053, 11280.47
1525.086, 11297.01
1526.119, 11186.36
1527.152, 11239.96
1528.185, 11227.74
1529.217, 11212.81
1530.250, 11289.52
1531.282, 11197.37
1532.314, 11272.63
1533.346, 11281.06
1534.377, 11320.07
1535.409, 11292.85
1536.440, 11286.09
1537.472, 11345.58
1538.503, 11368.38
1539.534, 11333.54
1540.564, 11374.49
1541.595, 11280.02
1542.625, 11304.38
1543.656, 11380.02
1544.686, 11348.50
1545.716, 11390.66
1546.745, 11404.75
1547.775, 11291.33
1548.804, 11399.68
1549.834, 11412.12
1550.863, 11326.07
1551.892, 11426.82
1552.920, 11354.35
1553.949, 11343.71
1554.977, 11379.59
1556.006, 11366.97
1557.034, 11430.83
1558.062, 11421.01
1559.089, 11404.60
1560.117, 11293.00
1561.144, 11310.00
1562.172, 11365.00
1563.199, 11372.00
1564.226, 11432.00
1565.252, 11534.00
1566.279, 11557.00
1567.305, 11400.00
1568.332, 11340.00
1569.358, 11400.00
1570.384, 11612.00
##END=



