##NAMES=Chondrodite
##RRUFFID=R040016
##IDEAL CHEMISTRY=Mg_5_(SiO_4_)_2_F_2_
##LOCALITY=Vastmanland, Kafveltorp, Sweden
##OWNER=RRUFF
##SOURCE=University of Arizona Mineral Museum
##DESCRIPTION=Deep red single crystals embedded in matrix
##STATUS=The identification of this mineral has been confirmed by X-ray diffraction and chemical analysis
##URL=rruff.info/R040016
##MEASURED CHEMISTRY=(Mg_4.61_Fe_0.31_Mn_0.07_Ca_0.01_)_Σ=5_(Si_1.00_O_4_)_2_(F_1.16_(OH)_0.84_)_Σ=2_
##PIN_ID=M00425
##ORIENTATION=Laser parallel to [1 0 1]. Fiducial mark perpendicular to laser is parallel to -b* (0 -1 0)
227.953, 3781.000
229.323, 3881.000
230.693, 3831.000
232.062, 3859.000
233.431, 3950.000
234.800, 3836.000
236.169, 3918.000
237.537, 3856.000
238.906, 3868.000
240.274, 3830.000
241.642, 3902.000
243.009, 3927.000
244.377, 3822.000
245.744, 3993.000
247.111, 3834.000
248.478, 3974.000
249.844, 3994.000
251.210, 4004.000
252.576, 4096.000
253.942, 4000.000
255.308, 4066.000
256.673, 4047.000
258.039, 4111.000
259.404, 4113.000
260.768, 4090.000
262.133, 4135.000
263.497, 4149.000
264.861, 4164.000
266.225, 4132.000
267.589, 4119.683
268.952, 4232.000
270.315, 4058.000
271.678, 4088.000
273.041, 4071.000
274.404, 4239.000
275.766, 4404.000
277.128, 4506.000
278.490, 4747.000
279.852, 4696.000
281.213, 4803.000
282.575, 4612.000
283.936, 4529.000
285.296, 4391.000
286.657, 4262.000
288.017, 4297.000
289.378, 4172.000
290.738, 4231.000
292.097, 4198.000
293.457, 4259.000
294.816, 4264.000
296.175, 4203.000
297.534, 4346.000
298.893, 4305.000
300.251, 4343.000
301.609, 4265.000
302.967, 4204.000
304.325, 4155.000
305.682, 3988.000
307.040, 4132.000
308.397, 4025.000
309.754, 4002.000
311.110, 4087.000
312.467, 4047.000
313.823, 4090.000
315.179, 4067.000
316.535, 4145.000
317.890, 4086.000
319.246, 4148.000
320.601, 4187.000
321.956, 4053.000
323.311, 4228.000
324.665, 4131.000
326.019, 4238.000
327.373, 4220.000
328.727, 4214.000
330.081, 4366.000
331.434, 4232.000
332.787, 4338.000
334.140, 4311.000
335.493, 4287.000
336.846, 4321.000
338.198, 4291.000
339.550, 4402.000
340.902, 4274.000
342.254, 4341.000
343.605, 4353.000
344.956, 4260.000
346.307, 4325.000
347.658, 4281.000
349.009, 4400.000
350.359, 4310.000
351.709, 4375.000
353.059, 4428.000
354.409, 4393.000
355.758, 4448.000
357.108, 4416.000
358.457, 4497.000
359.806, 4539.000
361.154, 4458.000
362.503, 4587.000
363.851, 4433.000
365.199, 4403.000
366.547, 4354.000
367.894, 4308.000
369.242, 4338.000
370.589, 4262.000
371.936, 4300.000
373.282, 4260.000
374.629, 4258.875
375.975, 4226.000
377.321, 4248.000
378.667, 4320.000
380.013, 4284.000
381.358, 4324.000
382.703, 4313.000
384.048, 4408.000
385.393, 4519.000
386.738, 4501.000
388.082, 4620.000
389.426, 4486.000
390.770, 4631.000
392.114, 4549.000
393.457, 4490.000
394.800, 4570.000
396.143, 4360.000
397.486, 4435.000
398.829, 4481.000
400.171, 4478.000
401.513, 4559.000
402.855, 4406.000
404.197, 4576.000
405.539, 4547.000
406.880, 4557.000
408.221, 4631.000
409.562, 4601.000
410.903, 4718.000
412.243, 4754.000
413.583, 4730.000
414.923, 4693.000
416.263, 4706.000
417.603, 4788.000
418.942, 4689.000
420.282, 4703.000
421.620, 4644.000
422.959, 4622.000
424.298, 4682.000
425.636, 4558.000
426.974, 4627.000
428.312, 4521.000
429.650, 4694.000
430.987, 4647.000
432.325, 4571.000
433.662, 4699.000
434.999, 4649.000
436.335, 4749.000
437.672, 4701.000
439.008, 4710.000
440.344, 4714.000
441.680, 4567.000
443.015, 4604.000
444.350, 4602.000
445.686, 4563.000
447.021, 4638.000
448.355, 4559.000
449.690, 4687.000
451.024, 4627.000
452.358, 4728.000
453.692, 4713.000
455.026, 4703.000
456.359, 4820.000
457.692, 4684.000
459.025, 4820.000
460.358, 4791.000
461.691, 4791.000
463.023, 4841.000
464.355, 4859.000
465.687, 4950.000
467.019, 4979.000
468.350, 5008.000
469.682, 5180.000
471.013, 5094.000
472.344, 5198.000
473.675, 5109.000
475.005, 5210.000
476.335, 5154.000
477.665, 5026.000
478.995, 5068.000
480.325, 4830.000
481.654, 4906.000
482.983, 4834.000
484.312, 4737.000
485.641, 4800.000
486.970, 4726.000
488.298, 4720.754
489.626, 4668.000
490.954, 4695.000
492.282, 4682.000
493.609, 4662.000
494.937, 4687.433
496.264, 4714.000
497.591, 4690.000
498.917, 4678.000
500.244, 4621.000
501.570, 4746.000
502.896, 4655.000
504.222, 4718.000
505.548, 4618.000
506.873, 4700.000
508.198, 4764.000
509.523, 4662.000
510.848, 4682.000
512.172, 4668.000
513.497, 4641.000
514.821, 4741.000
516.145, 4670.000
517.469, 4761.000
518.792, 4654.000
520.115, 4673.000
521.439, 4700.000
522.761, 4689.000
524.084, 4763.000
525.407, 4727.000
526.729, 4766.000
528.051, 4793.000
529.373, 4674.000
530.694, 4784.000
532.016, 4690.000
533.337, 4814.000
534.658, 4797.000
535.979, 4741.000
537.299, 4868.000
538.620, 4772.000
539.940, 4880.000
541.260, 4872.000
542.580, 4873.000
543.899, 4974.000
545.218, 4996.000
546.538, 5056.000
547.857, 5098.724
549.175, 5137.000
550.494, 5150.000
551.812, 5150.000
553.130, 5141.000
554.448, 5101.000
555.766, 5180.000
557.083, 5135.000
558.400, 5071.000
559.717, 5156.000
561.034, 5088.000
562.351, 5238.000
563.667, 5302.000
564.983, 5192.000
566.299, 5391.000
567.615, 5368.000
568.931, 5506.000
570.246, 5487.000
571.561, 5680.000
572.876, 5841.000
574.191, 5929.000
575.505, 6239.000
576.820, 6428.000
578.134, 6619.000
579.448, 6883.000
580.761, 6889.000
582.075, 7135.000
583.388, 7154.000
584.701, 7021.000
586.014, 6924.000
587.327, 6627.000
588.639, 6644.000
589.952, 6453.000
591.264, 6332.000
592.575, 6354.000
593.887, 6365.000
595.198, 6433.000
596.510, 6518.000
597.821, 6756.000
599.132, 7018.000
600.442, 7202.000
601.752, 7627.000
603.063, 7804.000
604.373, 8234.000
605.682, 8471.000
606.992, 8693.000
608.301, 8903.000
609.610, 8835.000
610.919, 8704.000
612.228, 8576.000
613.537, 8021.000
614.845, 7791.000
616.153, 7283.000
617.461, 7132.000
618.769, 6846.000
620.076, 6635.000
621.383, 6551.000
622.691, 6222.000
623.997, 6319.000
625.304, 6111.000
626.611, 6087.000
627.917, 6119.000
629.223, 6032.000
630.529, 6053.000
631.834, 5879.000
633.140, 5756.000
634.445, 5873.000
635.750, 5617.000
637.055, 5709.000
638.359, 5548.000
639.664, 5511.000
640.968, 5566.000
642.272, 5490.000
643.576, 5605.000
644.879, 5487.000
646.183, 5538.000
647.486, 5566.000
648.789, 5466.000
650.092, 5732.000
651.394, 5573.000
652.697, 5554.000
653.999, 5620.000
655.301, 5491.000
656.602, 5576.000
657.904, 5504.000
659.205, 5546.000
660.506, 5613.000
661.807, 5397.000
663.108, 5484.000
664.409, 5403.000
665.709, 5447.000
667.009, 5493.000
668.309, 5356.000
669.609, 5387.000
670.908, 5392.000
672.207, 5410.000
673.506, 5533.000
674.805, 5411.000
676.104, 5510.000
677.402, 5382.000
678.701, 5365.000
679.999, 5475.000
681.297, 5423.000
682.594, 5528.000
683.892, 5453.000
685.189, 5447.000
686.486, 5504.000
687.783, 5410.000
689.079, 5551.000
690.376, 5388.000
691.672, 5486.000
692.968, 5470.000
694.264, 5497.000
695.560, 5469.000
696.855, 5490.000
698.150, 5537.000
699.445, 5585.000
700.740, 5482.000
702.035, 5610.000
703.329, 5606.000
704.623, 5581.000
705.917, 5648.000
707.211, 5572.000
708.504, 5696.000
709.798, 5619.000
711.091, 5680.000
712.384, 5705.000
713.677, 5657.000
714.969, 5746.000
716.262, 5705.000
717.554, 5768.000
718.846, 5796.000
720.138, 5713.000
721.429, 5828.000
722.720, 5837.000
724.012, 5874.000
725.303, 5902.000
726.593, 5917.436
727.884, 6054.000
729.174, 5980.000
730.464, 5926.000
731.754, 6005.000
733.044, 5936.000
734.333, 6090.000
735.623, 6066.000
736.912, 6060.000
738.201, 6156.000
739.490, 6016.000
740.778, 6153.000
742.066, 6131.000
743.355, 6098.000
744.642, 6226.000
745.930, 6144.000
747.218, 6294.000
748.505, 6247.000
749.792, 6272.000
751.079, 6435.000
752.366, 6298.000
753.652, 6420.000
754.939, 6383.000
756.225, 6386.000
757.511, 6458.000
758.796, 6514.000
760.082, 6503.000
761.367, 6552.000
762.652, 6531.000
763.937, 6606.000
765.222, 6533.000
766.506, 6623.000
767.790, 6677.000
769.075, 6638.000
770.358, 6781.000
771.642, 6678.000
772.926, 6718.000
774.209, 6814.000
775.492, 6694.000
776.775, 6723.000
778.058, 6703.000
779.340, 6834.000
780.622, 6996.000
781.904, 6856.000
783.186, 6989.000
784.468, 7000.000
785.750, 7126.000
787.031, 7075.000
788.312, 7093.000
789.593, 7179.000
790.873, 7151.000
792.154, 7166.000
793.434, 7280.000
794.714, 7211.000
795.994, 7313.000
797.274, 7321.000
798.553, 7450.000
799.833, 7455.000
801.112, 7426.000
802.391, 7565.000
803.669, 7568.000
804.948, 7650.000
806.226, 7670.000
807.504, 7675.000
808.782, 7911.000
810.060, 7904.000
811.337, 7961.000
812.615, 8107.000
813.892, 8136.000
815.168, 8332.000
816.445, 8482.000
817.722, 8561.000
818.998, 8788.000
820.274, 8788.000
821.550, 9216.000
822.826, 9419.000
824.101, 9478.000
825.376, 9980.000
826.652, 10330.000
827.926, 10840.000
829.201, 11570.000
830.476, 12170.000
831.750, 13040.000
833.024, 14170.000
834.298, 15450.000
835.572, 17170.000
836.845, 19080.000
838.119, 21880.000
839.392, 25560.000
840.665, 30330.000
841.937, 36550.000
843.210, 43170.000
844.482, 52140.000
845.754, 57740.000
847.026, 62190.000
848.298, 61680.000
849.569, 56470.000
850.841, 50010.000
852.112, 42260.000
853.383, 36000.000
854.654, 30940.000
855.924, 26840.000
857.195, 23490.000
858.465, 21170.000
859.735, 19110.000
861.004, 18040.000
862.274, 16580.000
863.543, 16160.000
864.812, 15360.000
866.081, 15360.000
867.350, 15370.000
868.619, 15250.000
869.887, 15550.000
871.155, 15320.000
872.423, 14950.000
873.691, 14700.000
874.959, 13740.000
876.226, 12940.000
877.493, 12400.000
878.760, 11550.000
880.027, 11140.000
881.294, 10530.000
882.560, 10250.000
883.826, 9804.000
885.092, 9403.000
886.358, 9350.000
887.624, 9048.000
888.889, 8842.000
890.154, 8843.000
891.419, 8570.000
892.684, 8578.000
893.949, 8564.000
895.213, 8347.000
896.477, 8407.000
897.742, 8226.000
899.005, 8296.000
900.269, 8258.000
901.532, 8154.000
902.796, 8330.000
904.059, 8206.000
905.322, 8142.000
906.584, 8247.000
907.847, 8198.000
909.109, 8260.000
910.371, 8110.000
911.633, 8271.000
912.895, 8248.000
914.156, 8143.000
915.418, 8475.000
916.679, 8346.000
917.940, 8320.000
919.200, 8547.000
920.461, 8462.000
921.721, 8670.000
922.981, 8824.000
924.241, 8925.000
925.501, 9294.000
926.760, 9667.000
928.020, 10120.000
929.279, 11090.000
930.538, 11810.000
931.797, 13020.000
933.055, 13310.000
934.314, 13350.000
935.572, 13180.000
936.830, 12410.000
938.088, 12390.000
939.345, 12310.000
940.603, 12940.000
941.860, 13560.000
943.117, 13030.000
944.374, 12590.000
945.630, 11860.000
946.887, 10950.000
948.143, 10580.000
949.399, 10010.000
950.655, 9740.000
951.910, 9684.000
953.166, 9487.000
954.421, 9494.000
955.676, 9462.000
956.931, 9582.000
958.186, 9608.000
959.440, 9642.000
960.695, 10100.000
961.949, 10480.000
963.203, 10880.000
964.456, 11880.000
965.710, 12780.000
966.963, 14090.000
968.216, 15630.000
969.469, 16380.000
970.722, 17050.000
971.974, 16160.000
973.227, 14730.000
974.479, 13690.000
975.731, 12200.000
976.983, 11290.000
978.234, 10570.000
979.486, 10040.000
980.737, 9702.000
981.988, 9261.000
983.239, 9161.000
984.489, 8713.000
985.740, 8657.000
986.990, 8622.000
988.240, 8335.000
989.490, 8313.000
990.740, 8250.000
991.989, 8134.000
993.238, 8251.000
994.487, 8120.000
995.736, 8014.000
996.985, 8086.000
998.233, 7966.000
999.482, 8101.000
1000.730, 8207.000
1001.978, 8064.000
1003.225, 8504.000
1004.473, 8512.000
1005.720, 8316.000
1006.967, 8306.000
1008.214, 7975.000
1009.461, 8102.000
1010.708, 7888.000
1011.954, 7932.000
1013.200, 7930.000
1014.446, 7850.000
1015.692, 7928.000
1016.938, 7956.000
1018.183, 7810.000
1019.428, 7977.000
1020.673, 7906.000
1021.918, 8062.000
1023.163, 8104.000
1024.407, 7932.000
1025.652, 8159.000
1026.896, 8084.000
1028.140, 7972.000
1029.383, 8152.000
1030.627, 7949.000
1031.870, 8058.000
1033.113, 8132.000
1034.356, 7870.000
1035.599, 8118.000
1036.841, 8036.000
1038.084, 7913.000
1039.326, 8008.000
1040.568, 7940.000
1041.810, 7995.000
1043.051, 7938.000
1044.293, 7896.000
1045.534, 8091.000
1046.775, 7847.000
1048.016, 7943.000
1049.256, 8081.000
1050.497, 7859.000
1051.737, 8076.000
1052.977, 7945.000
1054.217, 7957.000
1055.457, 8081.000
1056.696, 7877.000
1057.935, 8035.000
1059.174, 8070.000
1060.413, 7801.000
1061.652, 8077.000
1062.891, 8014.000
1064.129, 7976.000
1065.367, 8099.000
1066.605, 7894.000
1067.843, 8154.000
1069.080, 8049.000
1070.318, 7969.000
1071.555, 8092.000
1072.792, 7936.000
1074.029, 8108.000
1075.266, 8160.000
1076.502, 7912.000
1077.738, 8138.000
1078.974, 8086.000
1080.210, 8104.000
1081.446, 8316.000
1082.681, 8108.000
1083.917, 8379.000
1085.152, 8322.000
1086.387, 8170.000
1087.621, 8318.000
1088.856, 8108.000
1090.090, 8131.000
1091.325, 8219.000
1092.559, 8049.000
1093.792, 8318.000
1095.026, 8118.000
1096.259, 7992.000
1097.493, 8466.000
1098.726, 8075.000
1099.958, 8225.000
1101.191, 8331.000
1102.424, 8160.000
1103.656, 8305.000
1104.888, 8139.000
1106.120, 8212.000
1107.352, 8413.000
1108.583, 8111.000
1109.814, 8391.000
1111.046, 8212.000
1112.277, 8189.000
1113.507, 8336.000
1114.738, 8218.000
1115.968, 8228.000
1117.198, 8390.000
1118.428, 8133.000
1119.658, 8267.000
1120.888, 8175.000
1122.117, 8124.000
1123.347, 8423.000
1124.576, 8202.000
1125.805, 8344.000
1127.033, 8380.000
1128.262, 8107.000
1129.490, 8462.000
1130.718, 8228.000
1131.946, 8260.000
1133.174, 8424.000
1134.402, 8223.000
1135.629, 8304.000
1136.856, 8461.000
1138.083, 8135.000
1139.310, 8471.000
1140.537, 8212.000
1141.763, 8158.000
1142.989, 8420.000
1144.215, 8209.000
1145.441, 8421.000
1146.667, 8326.000
1147.892, 8133.000
1149.118, 8436.000
1150.343, 8192.000
1151.568, 8212.000
1152.793, 8580.000
1154.017, 8234.000
1155.241, 8483.000
1156.466, 8367.000
1157.690, 8304.000
1158.913, 8534.000
1160.137, 8342.000
1161.361, 8391.000
1162.584, 8549.000
1163.807, 8369.000
1165.030, 8480.000
1166.252, 8497.000
1167.475, 8377.000
1168.697, 8500.000
1169.919, 8341.000
1171.141, 8396.000
1172.363, 8546.000
1173.585, 8372.000
1174.806, 8610.000
1176.027, 8583.000
1177.248, 8353.000
1178.469, 8666.000
1179.690, 8402.000
1180.910, 8535.000
1182.131, 8637.000
1183.351, 8442.000
1184.571, 8622.000
1185.790, 8607.000
1187.010, 8397.000
1188.229, 8825.000
1189.448, 8540.000
1190.667, 8512.000
1191.886, 8704.000
1193.105, 8367.000
1194.323, 8585.000
1195.541, 8587.000
1196.759, 8499.000
1197.977, 8771.000
1199.195, 8520.000
1200.412, 8647.000
1201.630, 8870.000
1202.847, 8534.000
1204.064, 8775.000
1205.280, 8734.000
1206.497, 8595.000
1207.713, 8777.000
1208.930, 8584.000
1210.146, 8656.000
1211.361, 8870.000
1212.577, 8546.000
1213.792, 8889.000
1215.008, 8923.000
1216.223, 8627.000
1217.438, 9029.000
1218.652, 8847.000
1219.867, 8837.000
1221.081, 8949.000
1222.295, 8740.000
1223.509, 8962.000
1224.723, 8934.000
1225.937, 8732.000
1227.150, 9057.000
1228.363, 8939.000
1229.576, 8824.000
1230.789, 9106.000
1232.002, 8779.000
1233.214, 9033.000
1234.427, 9094.000
1235.639, 8825.000
1236.851, 9277.000
1238.062, 9033.000
1239.274, 8979.000
1240.485, 9254.000
1241.697, 9039.000
1242.908, 9174.000
1244.118, 9243.000
1245.329, 8908.000
1246.540, 9333.000
1247.750, 9124.000
1248.960, 9001.000
1250.170, 9310.000
1251.380, 9085.000
1252.589, 9165.000
1253.799, 9231.000
1255.008, 9060.000
1256.217, 9195.000
1257.425, 9249.000
1258.634, 9015.000
1259.843, 9315.000
1261.051, 8976.000
1262.259, 9166.000
1263.467, 9316.000
1264.674, 8993.000
1265.882, 9444.000
1267.089, 9243.000
1268.296, 9200.000
1269.503, 9534.000
1270.710, 9302.000
1271.917, 9293.000
1273.123, 9615.000
1274.330, 9193.000
1275.536, 9473.000
1276.741, 9462.000
1277.947, 9226.000
1279.153, 9374.000
1280.358, 9344.000
1281.563, 9145.000
1282.768, 9595.000
1283.973, 9142.000
1285.177, 9344.000
1286.382, 9472.000
1287.586, 9090.000
1288.790, 9368.000
1289.994, 9372.000
1291.198, 9175.000
1292.401, 9473.000
1293.604, 9207.000
1294.808, 9249.000
1296.011, 9545.000
1297.213, 9227.000
1298.416, 9446.000
1299.618, 9473.000
1300.821, 9190.000
1302.023, 9595.000
1303.224, 9290.000
1304.426, 9178.000
1305.628, 9235.000
1306.829, 8971.000
1308.030, 9261.000
1309.231, 9322.000
1310.432, 9073.000
1311.632, 9500.000
1312.833, 9318.000
1314.033, 9226.000
1315.233, 9739.000
1316.433, 9433.000
1317.633, 9513.000
1318.832, 9753.000
1320.031, 9322.000
1321.231, 9665.000
1322.429, 9558.000
1323.628, 9367.000
1324.827, 9782.000
1326.025, 9366.000
1327.223, 9434.000
1328.421, 9637.000
1329.619, 9356.000
1330.817, 9590.000
1332.015, 9671.000
1333.212, 9337.000
1334.409, 9638.000
1335.606, 9334.000
1336.803, 9381.000
1337.999, 9590.000
1339.196, 9320.000
1340.392, 9456.000
1341.588, 9656.000
1342.784, 9363.000
1343.980, 9643.000
1345.175, 9595.000
1346.370, 9490.000
1347.566, 9743.000
1348.761, 9467.000
1349.955, 9514.000
1351.150, 9782.000
1352.344, 9432.000
1353.539, 9692.000
1354.733, 9701.000
1355.927, 9423.000
1357.120, 9848.000
1358.314, 9562.000
1359.507, 9502.000
1360.700, 9952.000
1361.893, 9630.000
1363.086, 9654.000
1364.279, 9988.000
1365.471, 9452.000
1366.663, 9939.000
1367.855, 9887.000
1369.047, 9647.000
1370.239, 10110.000
1371.431, 9790.000
1372.622, 9751.000
1373.813, 10140.000
1375.004, 9735.000
1376.195, 10020.000
1377.386, 9982.000
1378.576, 9673.000
1379.766, 10070.000
1380.957, 10020.000
1382.146, 9930.000
1383.336, 10160.000
1384.526, 9951.000
1385.715, 9974.000
1386.904, 10340.000
1388.093, 9766.000
1389.282, 10190.000
1390.471, 10200.000
1391.659, 9837.000
1392.848, 10220.000
1394.036, 10140.000
1395.224, 9901.000
1396.412, 10320.000
1397.599, 9804.000
1398.787, 10080.000
1399.974, 10290.000
1401.161, 9845.000
1402.348, 10220.000
1403.535, 10200.000
1404.721, 9938.000
1405.907, 10320.000
1407.094, 10110.000
1408.280, 10030.000
1409.465, 10440.000
1410.651, 10120.000
1411.836, 10240.000
1413.022, 10470.000
1414.207, 10010.000
1415.392, 10370.000
1416.577, 10310.000
1417.761, 10050.000
1418.945, 10510.000
1420.130, 10290.000
1421.314, 10130.000
1422.498, 10450.000
1423.681, 10210.000
1424.865, 10370.000
1426.048, 10610.000
1427.231, 10180.000
1428.414, 10510.000
1429.597, 10560.000
1430.780, 10180.000
1431.962, 10710.000
1433.144, 10390.000
1434.326, 10440.000
1435.508, 10960.000
1436.690, 10580.000
1437.871, 10540.000
1439.053, 11080.000
1440.234, 10680.000
1441.415, 11010.000
1442.596, 11240.000
1443.776, 10890.000
1444.957, 11360.000
1446.137, 11270.000
1447.317, 11110.000
1448.497, 11670.000
1449.677, 11150.000
1450.857, 11210.000
1452.036, 11840.000
1453.215, 11240.000
1454.394, 11690.000
1455.573, 11720.000
1456.752, 11310.000
1457.930, 11850.000
1459.109, 11630.000
1460.287, 11320.000
1461.465, 11940.000
1462.643, 11340.000
1463.820, 11410.000
1464.998, 11730.000
1466.175, 11230.000
1467.352, 11450.000
1468.529, 11540.000
1469.706, 11020.000
1470.883, 11620.000
1472.059, 11350.000
1473.235, 11080.000
1474.411, 11600.000
1475.587, 11210.000
1476.763, 11070.000
1477.938, 11530.000
1479.114, 11050.000
1480.289, 11320.000
1481.464, 11360.000
1482.639, 11030.000
1483.813, 11430.000
1484.988, 11360.000
1486.162, 11000.000
1487.336, 11480.000
1488.510, 11250.000
1489.684, 11010.000
1490.858, 11440.000
1492.031, 11000.000
1493.204, 11100.000
1494.377, 11410.000
1495.550, 10740.000
1496.723, 11260.000
1497.895, 11210.000
1499.068, 10890.000
1500.240, 11310.000
1501.412, 11140.000
1502.584, 10900.000
1503.755, 11380.000
1504.927, 11060.000
1506.098, 11000.000
1507.269, 11490.000
1508.440, 11070.000
1509.611, 11230.000
1510.782, 11400.000
1511.952, 10910.000
1513.122, 11310.000
1514.292, 11280.000
1515.462, 10970.000
1516.632, 11550.000
##END=



