##NAMES=Chrysoberyl
##RRUFFID=R040073
##IDEAL CHEMISTRY=BeAl_2_O_4_
##LOCALITY=Brazil
##OWNER=RRUFF
##SOURCE=University of Arizona Mineral Museum
##DESCRIPTION=Pair of green prismatic crystals
##STATUS=The identification of this mineral has been confirmed by X-ray diffraction and chemical analysis
##URL=rruff.info/R040073
##MEASURED CHEMISTRY=(Be_0.89_Al_0.06_Fe_0.02_)Al_2.00_O_4_
##PIN_ID=M00464
##ORIENTATION=Laser parallel to -c* (0 0 -1). Fiducial mark perpendicular to laser is parallel to a [1 0 0]
85.706, 10840.000
87.101, 10920.000
88.496, 10980.000
89.890, 11290.000
91.284, 11590.000
92.678, 11920.000
94.071, 12500.000
95.465, 12720.000
96.858, 13100.000
98.251, 13620.000
99.644, 13830.000
101.036, 14170.000
102.428, 14260.000
103.820, 14620.000
105.212, 14580.000
106.604, 15040.000
107.995, 15450.000
109.387, 15990.000
110.777, 16250.000
112.168, 15600.000
113.559, 15430.000
114.949, 15000.000
116.339, 14970.000
117.729, 15000.000
119.119, 14780.000
120.508, 14750.000
121.897, 14570.000
123.286, 14540.000
124.675, 14200.000
126.063, 14220.000
127.452, 14270.000
128.840, 14130.000
130.228, 13970.000
131.615, 13850.000
133.003, 13770.000
134.390, 13500.000
135.777, 13600.000
137.164, 13400.000
138.550, 13350.000
139.937, 13220.000
141.323, 12980.000
142.709, 12920.000
144.094, 12690.000
145.480, 12580.000
146.865, 12430.000
148.250, 12400.000
149.635, 12340.000
151.019, 12280.000
152.403, 12330.000
153.788, 12010.000
155.171, 12080.000
156.555, 11910.000
157.939, 11810.000
159.322, 11860.000
160.705, 11730.000
162.088, 11800.000
163.470, 11640.000
164.853, 11540.000
166.235, 11510.000
167.617, 11440.000
168.998, 11570.000
170.380, 11470.000
171.761, 11420.000
173.142, 11340.000
174.523, 11340.000
175.904, 11430.000
177.284, 11280.000
178.664, 11230.000
180.044, 11130.000
181.424, 11220.000
182.803, 11080.000
184.183, 11110.000
185.562, 11110.000
186.940, 10920.000
188.319, 11020.000
189.698, 10900.000
191.076, 10950.000
192.454, 10910.000
193.831, 10790.000
195.209, 10810.000
196.586, 10750.000
197.963, 10720.000
199.340, 10720.000
200.717, 10760.000
202.093, 10610.000
203.470, 10650.000
204.846, 10710.000
206.221, 10470.000
207.597, 10610.000
208.972, 10610.000
210.347, 10540.000
211.722, 10540.000
213.097, 10540.000
214.472, 10590.000
215.846, 10480.000
217.220, 10600.000
218.594, 10470.000
219.967, 10650.000
221.341, 10490.000
222.714, 10520.000
224.087, 10520.000
225.460, 10590.000
226.832, 10680.000
228.204, 10540.000
229.577, 10620.000
230.948, 10600.000
232.320, 10680.000
233.692, 10730.000
235.063, 10740.000
236.434, 10890.000
237.805, 11000.000
239.175, 11120.000
240.545, 11130.000
241.916, 11160.000
243.286, 10990.000
244.655, 10930.000
246.025, 10810.000
247.394, 10730.000
248.763, 10700.000
250.132, 10740.000
251.501, 10620.000
252.869, 10700.000
254.237, 10570.000
255.605, 10750.000
256.973, 10660.000
258.340, 10710.000
259.708, 10730.000
261.075, 10570.000
262.442, 10740.000
263.808, 10680.000
265.175, 10550.000
266.541, 10550.000
267.907, 10640.000
269.273, 10660.000
270.639, 10470.000
272.004, 10680.000
273.369, 10580.000
274.734, 10480.000
276.099, 10470.000
277.463, 10430.000
278.828, 10450.000
280.192, 10270.000
281.556, 10440.000
282.919, 10350.000
284.283, 10300.000
285.646, 10410.000
287.009, 10330.000
288.372, 10460.000
289.734, 10310.000
291.097, 10440.000
292.459, 10300.000
293.821, 10330.000
295.183, 10340.000
296.544, 10320.000
297.905, 10480.000
299.266, 10350.000
300.627, 10380.000
301.988, 10480.000
303.348, 10480.000
304.709, 10550.000
306.069, 10410.000
307.428, 10500.000
308.788, 10530.000
310.147, 10570.000
311.507, 10550.000
312.865, 10480.000
314.224, 10580.000
315.583, 10510.000
316.941, 10610.000
318.299, 10570.000
319.657, 10560.000
321.015, 10560.000
322.372, 10480.000
323.729, 10580.000
325.086, 10480.000
326.443, 10550.000
327.800, 10600.000
329.156, 10520.000
330.512, 10620.000
331.868, 10620.000
333.224, 10640.000
334.579, 10750.000
335.935, 10630.000
337.290, 10930.000
338.645, 10810.000
339.999, 11040.000
341.354, 11120.000
342.708, 11390.000
344.062, 11620.000
345.416, 11990.000
346.769, 12220.000
348.123, 12310.000
349.476, 12220.000
350.829, 11850.000
352.182, 11610.000
353.534, 11410.000
354.887, 11420.000
356.239, 11490.000
357.591, 11540.000
358.942, 11760.000
360.294, 12150.000
361.645, 12060.000
362.996, 12460.000
364.347, 12750.000
365.698, 13460.000
367.048, 14010.000
368.398, 14000.000
369.748, 13770.000
371.098, 13000.000
372.448, 12350.000
373.797, 11800.000
375.146, 11370.000
376.495, 11100.000
377.844, 10840.000
379.192, 10870.000
380.540, 10690.000
381.889, 10770.000
383.236, 10730.000
384.584, 10740.000
385.932, 10820.000
387.279, 10850.000
388.626, 10990.000
389.973, 10770.000
391.319, 10770.000
392.666, 10880.000
394.012, 10820.000
395.358, 10880.000
396.704, 10730.000
398.049, 10640.000
399.394, 10690.000
400.740, 10580.000
402.084, 10790.000
403.429, 10560.000
404.774, 10710.000
406.118, 10710.000
407.462, 10630.000
408.806, 10720.000
410.150, 10690.000
411.493, 10990.000
412.836, 11250.000
414.179, 11740.000
415.522, 12520.000
416.865, 13540.000
418.207, 14590.000
419.549, 14900.000
420.891, 14290.000
422.233, 12980.000
423.575, 12040.000
424.916, 11510.000
426.257, 11390.000
427.598, 11340.000
428.939, 11650.000
430.279, 12090.000
431.619, 12630.000
432.959, 12670.000
434.299, 12650.000
435.639, 12260.000
436.978, 11760.000
438.318, 11560.000
439.657, 11590.000
440.996, 11510.000
442.334, 11460.000
443.673, 11470.000
445.011, 11450.000
446.349, 11450.000
447.687, 11720.000
449.024, 11470.000
450.361, 11790.000
451.699, 12110.000
453.036, 12530.000
454.372, 13360.000
455.709, 14570.000
457.045, 16080.000
458.381, 16260.000
459.717, 15450.000
461.053, 14080.000
462.388, 12900.000
463.724, 12550.000
465.059, 12120.000
466.394, 12160.000
467.728, 12250.000
469.063, 12250.000
470.397, 12720.000
471.731, 13030.000
473.065, 13850.000
474.398, 14670.000
475.732, 15230.000
477.065, 15300.000
478.398, 14340.000
479.731, 13670.000
481.063, 13020.000
482.396, 12540.000
483.728, 12300.000
485.060, 12230.000
486.391, 12120.000
487.723, 12040.000
489.054, 12040.000
490.385, 11970.000
491.716, 12020.000
493.047, 12110.000
494.377, 12040.000
495.708, 12210.000
497.038, 12180.000
498.368, 12290.000
499.697, 12420.000
501.027, 12400.000
502.356, 12520.000
503.685, 12510.000
505.014, 12650.000
506.342, 12830.000
507.671, 13070.000
508.999, 13550.000
510.327, 14210.000
511.655, 15600.000
512.982, 17800.000
514.310, 20760.000
515.637, 23680.000
516.964, 24590.000
518.291, 23670.000
519.617, 22460.000
520.944, 21650.000
522.270, 20790.000
523.596, 18830.000
524.921, 17070.000
526.247, 15440.000
527.572, 14380.000
528.897, 13760.000
530.222, 13360.000
531.547, 13270.000
532.871, 13170.000
534.196, 13080.000
535.520, 13380.000
536.844, 13410.000
538.167, 13940.000
539.491, 14160.000
540.814, 14960.000
542.137, 15970.000
543.460, 17050.000
544.783, 17870.000
546.105, 17460.000
547.427, 17050.000
548.749, 15830.000
550.071, 14860.000
551.393, 14270.000
552.714, 13670.000
554.035, 13510.000
555.356, 13320.000
556.677, 12930.000
557.998, 13250.000
559.318, 12910.000
560.638, 12870.000
561.958, 13010.000
563.278, 12910.000
564.597, 12990.000
565.917, 12950.000
567.236, 12970.000
568.555, 12960.000
569.874, 12860.000
571.192, 12950.000
572.511, 12730.000
573.829, 12920.000
575.147, 12900.000
576.464, 12770.000
577.782, 12990.000
579.099, 12730.000
580.416, 13030.000
581.733, 12820.000
583.050, 13070.000
584.366, 13140.000
585.683, 13090.000
586.999, 13210.000
588.315, 13130.000
589.630, 13160.000
590.946, 13100.000
592.261, 13050.000
593.576, 13380.000
594.891, 13230.000
596.206, 13330.000
597.520, 13500.000
598.834, 13490.000
600.148, 13780.000
601.462, 13600.000
602.776, 13620.000
604.089, 13670.000
605.402, 13570.000
606.715, 13700.000
608.028, 13710.000
609.341, 13770.000
610.653, 13830.000
611.965, 13730.000
613.277, 14130.000
614.589, 14100.000
615.901, 14470.000
617.212, 14560.000
618.523, 14780.000
619.834, 15170.000
621.145, 15520.000
622.456, 15980.000
623.766, 16180.000
625.076, 16330.000
626.386, 16420.000
627.696, 16160.000
629.006, 16160.000
630.315, 16180.000
631.624, 16710.000
632.933, 18000.000
634.242, 20220.000
635.551, 23560.000
636.859, 26200.000
638.167, 26740.000
639.475, 24830.000
640.783, 21240.000
642.090, 19530.000
643.398, 18010.000
644.705, 17180.000
646.012, 16710.000
647.318, 16260.000
648.625, 16050.000
649.931, 15800.000
651.237, 15770.000
652.543, 15560.000
653.849, 15290.000
655.155, 15170.000
656.460, 14760.000
657.765, 14460.000
659.070, 14480.000
660.375, 14110.000
661.679, 14250.000
662.984, 14000.000
664.288, 13860.000
665.592, 13950.000
666.895, 13810.000
668.199, 13910.000
669.502, 13690.000
670.805, 13670.000
672.108, 13750.000
673.411, 13720.000
674.713, 13790.000
676.016, 13670.000
677.318, 13630.000
678.620, 13760.000
679.921, 13630.000
681.223, 13730.000
682.524, 13680.000
683.825, 13510.000
685.126, 13650.000
686.427, 13480.000
687.727, 13560.000
689.028, 13510.000
690.328, 13430.000
691.628, 13630.000
692.927, 13400.000
694.227, 13480.000
695.526, 13470.000
696.825, 13500.000
698.124, 13540.000
699.423, 13620.000
700.721, 13660.000
702.020, 13780.000
703.318, 13770.000
704.616, 13890.000
705.913, 13910.000
707.211, 14120.000
708.508, 14530.000
709.805, 14490.000
711.102, 14490.000
712.399, 14100.000
713.695, 14100.000
714.992, 13920.000
716.288, 13780.000
717.584, 13890.000
718.879, 13730.000
720.175, 13860.000
721.470, 13740.000
722.765, 13880.000
724.060, 13850.000
725.355, 13820.000
726.649, 14050.000
727.944, 14020.000
729.238, 13960.000
730.532, 14190.000
731.825, 13790.000
733.119, 14250.000
734.412, 14120.000
735.705, 13920.000
736.998, 14300.000
738.291, 13960.000
739.584, 14050.000
740.876, 14140.000
742.168, 14090.000
743.460, 14350.000
744.752, 14200.000
746.043, 14290.000
747.334, 14360.000
748.626, 14410.000
749.916, 14570.000
751.207, 14470.000
752.498, 14440.000
753.788, 14430.000
755.078, 14370.000
756.368, 14760.000
757.658, 14710.000
758.947, 14770.000
760.237, 14810.000
761.526, 15020.000
762.815, 15290.000
764.104, 15410.000
765.392, 15800.000
766.680, 16000.000
767.969, 16280.000
769.257, 16990.000
770.544, 17560.000
771.832, 18210.000
773.119, 19430.000
774.406, 20080.000
775.693, 21220.000
776.980, 21510.000
778.267, 21570.000
779.553, 21010.000
780.839, 19840.000
782.125, 19140.000
783.411, 18110.000
784.697, 17420.000
785.982, 16850.000
787.267, 16370.000
788.552, 16120.000
789.837, 15730.000
791.122, 15600.000
792.406, 15650.000
793.690, 15400.000
794.974, 15520.000
796.258, 15480.000
797.542, 15220.000
798.825, 15260.000
800.108, 15150.000
801.391, 15190.000
802.674, 15280.000
803.957, 15140.000
805.239, 15270.000
806.522, 15070.000
807.804, 15150.000
809.085, 15390.000
810.367, 15090.000
811.649, 15310.000
812.930, 15380.000
814.211, 15310.000
815.492, 15630.000
816.772, 15630.000
818.053, 15720.000
819.333, 15470.000
820.613, 15710.000
821.893, 15910.000
823.173, 15710.000
824.452, 16070.000
825.732, 16000.000
827.011, 16100.000
828.290, 16310.000
829.568, 16110.000
830.847, 16430.000
832.125, 16360.000
833.403, 16080.000
834.681, 16570.000
835.959, 16100.000
837.236, 16280.000
838.514, 16290.000
839.791, 16370.000
841.068, 16540.000
842.345, 16460.000
843.621, 16620.000
844.898, 16800.000
846.174, 16480.000
847.450, 16870.000
848.726, 16690.000
850.001, 16780.000
851.277, 16990.000
852.552, 16960.000
853.827, 17390.000
855.102, 17280.000
856.376, 17540.000
857.651, 18030.000
858.925, 18020.000
860.199, 18210.000
861.473, 17770.000
862.746, 17600.000
864.020, 17700.000
865.293, 17060.000
866.566, 17200.000
867.839, 17040.000
869.112, 16660.000
870.384, 16940.000
871.656, 16550.000
872.928, 16760.000
874.200, 16760.000
875.472, 16690.000
876.744, 16870.000
878.015, 16600.000
879.286, 16760.000
880.557, 16670.000
881.828, 16560.000
883.098, 16690.000
884.369, 16640.000
885.639, 16570.000
886.909, 16780.000
888.178, 16530.000
889.448, 16930.000
890.717, 16830.000
891.987, 16720.000
893.256, 16960.000
894.524, 16700.000
895.793, 17120.000
897.061, 16990.000
898.330, 16800.000
899.598, 17260.000
900.865, 16960.000
902.133, 16940.000
903.401, 17230.000
904.668, 16950.000
905.935, 17300.000
907.202, 17190.000
908.468, 17220.000
909.735, 17490.000
911.001, 17220.000
912.267, 17550.000
913.533, 17520.000
914.799, 17800.000
916.064, 17870.000
917.330, 17940.000
918.595, 18420.000
919.860, 18750.000
921.124, 19310.000
922.389, 20220.000
923.653, 20950.000
924.918, 22180.000
926.182, 23720.000
927.445, 24980.000
928.709, 26840.000
929.972, 27260.000
931.236, 27810.000
932.499, 28040.000
933.761, 26660.000
935.024, 25820.000
936.286, 24540.000
937.549, 23180.000
938.811, 22530.000
940.073, 21320.000
941.334, 20670.000
942.596, 19930.000
943.857, 19270.000
945.118, 19110.000
946.379, 18810.000
947.640, 18660.000
948.900, 18600.000
950.161, 18180.000
951.421, 18270.000
952.681, 18170.000
953.940, 17880.000
955.200, 17970.000
956.459, 17660.000
957.719, 17770.000
958.978, 17570.000
960.236, 17360.000
961.495, 17470.000
962.753, 17190.000
964.012, 17210.000
965.270, 17110.000
966.527, 17180.000
967.785, 17330.000
969.043, 16860.000
970.300, 17060.000
971.557, 17080.000
972.814, 16700.000
974.071, 16940.000
975.327, 16800.000
976.583, 16724.414
977.840, 16827.656
979.095, 16887.551
980.351, 16906.439
981.607, 16761.342
982.862, 16828.111
984.117, 16810.043
985.372, 16788.543
986.627, 16885.275
987.882, 16764.285
989.136, 16859.240
990.390, 16868.062
991.644, 16916.377
992.898, 16879.332
994.152, 16868.719
995.405, 16943.590
996.659, 16971.205
997.912, 16924.525
999.165, 16975.645
1000.417, 16852.162
1001.670, 16881.990
1002.922, 16977.988
1004.174, 16935.848
1005.426, 16988.775
1006.678, 17005.566
1007.930, 16857.945
1009.181, 16996.385
1010.432, 17011.182
1011.683, 16899.025
1012.934, 17027.812
1014.185, 16933.264
1015.435, 16918.496
1016.685, 16963.785
1017.935, 16946.570
1019.185, 17028.027
1020.435, 17014.523
1021.684, 16992.576
1022.934, 17007.729
1024.183, 16917.951
1025.432, 17022.973
1026.680, 16995.010
1027.929, 17033.229
1029.177, 17086.479
1030.425, 17025.014
1031.673, 17085.098
1032.921, 16956.814
1034.169, 16986.236
1035.416, 16998.727
1036.663, 17112.037
1037.911, 16984.871
1039.157, 17010.102
1040.404, 17100.258
1041.650, 17099.689
1042.897, 17137.125
1044.143, 17062.254
1045.389, 17092.979
1046.634, 17094.656
1047.880, 17196.920
1049.125, 17219.861
1050.371, 17147.143
1051.615, 17074.869
1052.860, 17184.561
1054.105, 17121.885
1055.349, 17152.270
1056.593, 17086.637
1057.837, 17104.000
1059.081, 17120.098
1060.325, 17178.764
1061.568, 17108.541
1062.812, 17205.619
1064.055, 17206.078
1065.298, 17235.061
1066.540, 17260.918
1067.783, 17157.115
1069.025, 17159.693
1070.267, 17314.471
1071.509, 17237.258
1072.751, 17206.928
1073.993, 17209.939
1075.234, 17370.119
1076.475, 17384.303
1077.716, 17223.965
1078.957, 17377.369
1080.198, 17337.832
1081.438, 17355.688
1082.679, 17352.676
1083.919, 17355.900
1085.159, 17280.389
1086.398, 17308.742
1087.638, 17421.570
1088.877, 17390.521
1090.116, 17457.314
1091.355, 17345.930
1092.594, 17340.387
1093.833, 17362.975
1095.071, 17395.844
1096.309, 17346.934
1097.547, 17461.719
1098.785, 17467.594
1100.023, 17379.090
1101.260, 17393.061
1102.498, 17390.080
1103.735, 17564.195
1104.972, 17494.930
1106.208, 17408.469
1107.445, 17515.043
1108.681, 17559.805
1109.918, 17521.000
1111.154, 17526.672
1112.389, 17448.084
1113.625, 17498.830
1114.860, 17505.156
1116.096, 17584.795
1117.331, 17506.744
1118.566, 17610.322
1119.800, 17536.590
1121.035, 17647.617
1122.269, 17570.232
1123.503, 17660.771
1124.737, 17550.975
1125.971, 17586.264
1127.205, 17633.098
1128.438, 17717.105
1129.671, 17658.402
1130.904, 17751.314
1132.137, 17711.264
1133.370, 17757.838
1134.602, 17756.445
1135.834, 17695.012
1137.066, 17803.102
1138.298, 17756.672
1139.530, 17814.660
1140.762, 17703.650
1141.993, 17798.180
1143.224, 17848.518
1144.455, 17889.787
1145.686, 17892.775
1146.917, 17878.730
1148.147, 17891.527
1149.377, 17859.637
1150.607, 17762.471
1151.837, 17800.896
1153.067, 17880.371
1154.296, 17939.562
1155.526, 17861.199
1156.755, 17930.969
1157.984, 17934.107
1159.213, 18000.395
1160.441, 17945.768
1161.670, 18035.195
1162.898, 17931.051
1164.126, 18035.189
1165.354, 18082.877
1166.581, 17917.926
1167.809, 18102.314
1169.036, 17971.375
1170.263, 18026.395
1171.490, 18069.730
1172.717, 18021.846
1173.943, 18151.395
1175.170, 17997.854
1176.396, 18044.170
1177.622, 18164.643
1178.848, 18106.375
1180.073, 18223.395
1181.299, 18164.371
1182.524, 18068.393
1183.749, 18232.213
1184.974, 18128.832
1186.199, 18200.984
1187.423, 18127.295
1188.648, 18301.643
1189.872, 18234.434
1191.096, 18178.457
1192.320, 18256.631
1193.543, 18329.307
1194.767, 18244.836
1195.990, 18278.514
1197.213, 18267.596
1198.436, 18355.020
1199.659, 18419.639
1200.881, 18283.658
1202.104, 18398.541
1203.326, 18339.750
1204.548, 18466.166
1205.770, 18302.604
1206.991, 18318.482
1208.213, 18490.836
1209.434, 18444.932
1210.655, 18536.576
1211.876, 18372.947
1213.096, 18387.617
1214.317, 18543.465
1215.537, 18423.816
1216.757, 18602.215
1217.977, 18486.615
1219.197, 18484.393
1220.417, 18611.236
1221.636, 18546.004
1222.855, 18647.000
1224.074, 18613.963
1225.293, 18697.521
1226.512, 18667.299
1227.731, 18572.260
1228.949, 18725.789
1230.167, 18691.725
1231.385, 18584.660
1232.603, 18690.805
1233.820, 18764.938
1235.038, 18760.627
1236.255, 18807.014
1237.472, 18790.213
1238.689, 18695.574
1239.906, 18737.359
1241.122, 18798.986
1242.338, 18737.943
1243.555, 18781.785
1244.771, 18860.855
1245.986, 18823.285
1247.202, 18810.289
1248.417, 18865.666
1249.633, 18865.746
1250.848, 18840.812
1252.063, 18925.152
1253.277, 18884.359
1254.492, 18997.098
1255.706, 18981.613
1256.920, 19036.441
1258.134, 18931.807
1259.348, 18992.408
1260.562, 18951.061
1261.775, 19003.258
1262.988, 19082.434
1264.201, 19143.418
1265.414, 19138.066
1266.627, 19057.357
1267.839, 19044.463
1269.052, 19077.418
1270.264, 19135.594
1271.476, 19118.176
1272.688, 19124.934
1273.899, 19140.910
1275.111, 19297.551
1276.322, 19179.635
1277.533, 19271.979
1278.744, 19328.363
1279.955, 19331.777
1281.165, 19276.729
1282.376, 19213.904
1283.586, 19236.471
1284.796, 19269.025
1286.006, 19383.713
1287.215, 19265.578
1288.425, 19327.184
1289.634, 19380.389
1290.843, 19406.469
1292.052, 19402.943
1293.261, 19347.580
1294.469, 19386.533
1295.678, 19434.291
1296.886, 19440.852
1298.094, 19531.799
1299.302, 19514.268
1300.509, 19604.014
1301.717, 19592.623
1302.924, 19655.848
1304.131, 19531.314
1305.338, 19542.562
1306.545, 19559.816
1307.752, 19725.281
1308.958, 19633.930
1310.164, 19715.719
1311.370, 19619.141
1312.576, 19762.029
1313.782, 19762.912
1314.987, 19683.527
1316.193, 19750.285
1317.398, 19859.789
1318.603, 19763.000
1319.807, 19822.779
1321.012, 19727.896
1322.216, 19930.074
1323.421, 19948.879
1324.625, 19906.090
1325.829, 19843.477
1327.032, 19892.174
1328.236, 19957.289
1329.439, 19990.359
1330.642, 20047.133
1331.845, 19964.506
1333.048, 20016.266
1334.251, 20096.111
1335.453, 20110.625
1336.656, 19977.227
1337.858, 20036.275
1339.060, 20059.164
1340.261, 20066.658
1341.463, 20117.285
1342.664, 20173.777
1343.866, 20086.703
1345.067, 20166.500
1346.267, 20203.824
1347.468, 20194.859
1348.669, 20211.531
1349.869, 20271.393
1351.069, 20210.906
1352.269, 20332.148
1353.469, 20212.027
1354.668, 20235.035
1355.868, 20316.912
1357.067, 20392.594
1358.266, 20465.510
1359.465, 20303.381
1360.664, 20401.459
1361.862, 20439.736
1363.061, 20411.168
1364.259, 20554.590
1365.457, 20506.080
1366.655, 20484.650
1367.852, 20543.082
1369.050, 20544.322
1370.247, 20530.658
1371.444, 20617.438
1372.641, 20539.059
1373.838, 20676.342
1375.035, 20650.135
1376.231, 20735.615
1377.427, 20757.420
1378.623, 20742.070
1379.819, 20764.906
1381.015, 20702.822
1382.211, 20818.074
1383.406, 20707.760
1384.601, 20840.629
1385.796, 20764.348
1386.991, 20748.070
1388.185, 20798.604
1389.380, 20918.939
1390.574, 20838.576
1391.768, 20924.383
1392.962, 20947.643
1394.156, 20888.576
1395.350, 21020.795
1396.543, 20930.447
1397.736, 21067.760
1398.929, 21017.787
1400.122, 20981.658
1401.315, 21013.893
1402.507, 21069.199
1403.700, 21196.768
1404.892, 21108.186
1406.084, 21173.957
1407.276, 21135.412
1408.467, 21210.482
1409.659, 21241.365
1410.850, 21155.865
1412.041, 21316.311
1413.232, 21270.207
1414.423, 21349.639
1415.614, 21400.334
1416.804, 21341.188
1417.994, 21336.496
1419.184, 21321.996
1420.374, 21373.129
1421.564, 21445.037
1422.753, 21364.521
1423.943, 21487.758
1425.132, 21493.785
1426.321, 21548.652
1427.510, 21556.736
1428.698, 21579.387
1429.887, 21544.191
1431.075, 21567.621
1432.263, 21651.963
1433.451, 21534.645
1434.639, 21560.062
1435.827, 21626.242
1437.014, 21620.344
1438.201, 21784.258
1439.388, 21708.936
1440.575, 21784.914
1441.762, 21726.039
1442.949, 21824.119
1444.135, 21797.262
1445.321, 21867.590
1446.507, 21828.609
1447.693, 21903.920
1448.879, 21997.832
1450.064, 22019.762
1451.250, 21890.816
1452.435, 21996.057
1453.620, 21907.447
1454.805, 22011.639
1455.989, 22009.746
1457.174, 22084.945
1458.358, 22005.510
1459.542, 22040.381
1460.726, 22060.654
1461.910, 22081.586
1463.093, 22156.322
1464.277, 22264.758
1465.460, 22297.408
1466.643, 22161.955
1467.826, 22304.006
1469.009, 22275.395
1470.191, 22293.186
1471.373, 22295.709
1472.556, 22288.520
1473.738, 22377.080
1474.919, 22423.072
1476.101, 22349.314
1477.283, 22428.504
1478.464, 22382.537
1479.645, 22541.887
1480.826, 22420.465
1482.007, 22549.885
1483.187, 22649.385
1484.368, 22649.852
1485.548, 22690.598
1486.728, 22598.770
1487.908, 22553.111
1489.088, 22637.725
1490.268, 22671.873
1491.447, 22804.508
1492.626, 22723.379
1493.805, 22747.812
1494.984, 22730.711
1496.163, 22723.457
1497.341, 22807.291
1498.520, 22921.584
1499.698, 22926.906
1500.876, 22862.596
1502.054, 22953.027
1503.232, 23018.736
1504.409, 22948.791
##END=



