##NAMES=Chrysoberyl
##RRUFFID=R040073
##IDEAL CHEMISTRY=BeAl_2_O_4_
##LOCALITY=Brazil
##OWNER=RRUFF
##SOURCE=University of Arizona Mineral Museum
##DESCRIPTION=Pair of green prismatic crystals
##STATUS=The identification of this mineral has been confirmed by X-ray diffraction and chemical analysis
##URL=rruff.info/R040073
##MEASURED CHEMISTRY=(Be_0.89_Al_0.06_Fe_0.02_)Al_2.00_O_4_
##PIN_ID=M00464
##ORIENTATION=Laser parallel to -c* (0 0 -1). Fiducial mark perpendicular to laser is parallel to a [1 0 0]
88.496, 11940.000
89.890, 12250.000
91.284, 12540.000
92.678, 12630.000
94.071, 13310.000
95.465, 13240.000
96.858, 13510.000
98.251, 13770.000
99.644, 14150.000
101.036, 14260.000
102.428, 14450.000
103.820, 14810.000
105.212, 14560.000
106.604, 14890.000
107.995, 15160.000
109.387, 15650.000
110.777, 15518.351
112.168, 15760.000
113.559, 15400.000
114.949, 15090.000
116.339, 15280.000
117.729, 14870.000
119.119, 14890.000
120.508, 14950.000
121.897, 14740.000
123.286, 14600.000
124.675, 14500.000
126.063, 14650.000
127.452, 14450.000
128.840, 14370.000
130.228, 14330.000
131.615, 14180.000
133.003, 14110.000
134.390, 13890.000
135.777, 14170.000
137.164, 13870.000
138.550, 13820.000
139.937, 13620.000
141.323, 13380.000
142.709, 13260.000
144.094, 12940.000
145.480, 12950.000
146.865, 12670.000
148.250, 12580.000
149.635, 12430.000
151.019, 12450.000
152.403, 12380.000
153.788, 12260.000
155.171, 12130.000
156.555, 12070.000
157.939, 12100.000
159.322, 11960.000
160.705, 11890.000
162.088, 11950.000
163.470, 11810.000
164.853, 11720.000
166.235, 11620.000
167.617, 11630.000
168.998, 11820.000
170.380, 11690.000
171.761, 11790.000
173.142, 11736.303
174.523, 11550.000
175.904, 11620.000
177.284, 11510.000
178.664, 11480.000
180.044, 11370.000
181.424, 11450.000
182.803, 11330.000
184.183, 11430.000
185.562, 11200.000
186.940, 11150.000
188.319, 11260.000
189.698, 11090.000
191.076, 11100.000
192.454, 11070.000
193.831, 10910.000
195.209, 10770.000
196.586, 10770.000
197.963, 10830.000
199.340, 10720.000
200.717, 10750.000
202.093, 10630.000
203.470, 10650.000
204.846, 10610.000
206.221, 10470.000
207.597, 10570.000
208.972, 10600.000
210.347, 10630.000
211.722, 10560.000
213.097, 10510.000
214.472, 10550.000
215.846, 10520.000
217.220, 10550.000
218.594, 10504.109
219.967, 10510.000
221.341, 10400.000
222.714, 10410.000
224.087, 10350.000
225.460, 10340.000
226.832, 10490.000
228.204, 10360.000
229.577, 10460.000
230.948, 10350.000
232.320, 10530.000
233.692, 10510.000
235.063, 10410.000
236.434, 10560.000
237.805, 10490.000
239.175, 10590.000
240.545, 10660.000
241.916, 10650.000
243.286, 10560.000
244.655, 10510.000
246.025, 10470.000
247.394, 10570.000
248.763, 10510.000
250.132, 10530.000
251.501, 10470.000
252.869, 10470.000
254.237, 10480.000
255.605, 10540.000
256.973, 10510.000
258.340, 10590.000
259.708, 10490.000
261.075, 10370.000
262.442, 10630.000
263.808, 10370.000
265.175, 10480.000
266.541, 10420.000
267.907, 10440.000
269.273, 10530.000
270.639, 10370.000
272.004, 10380.000
273.369, 10430.000
274.734, 10440.000
276.099, 10360.000
277.463, 10350.000
278.828, 10325.477
280.192, 10230.000
281.556, 10280.000
282.919, 10230.000
284.283, 10200.000
285.646, 10220.000
287.009, 10200.000
288.372, 10380.000
289.734, 10180.000
291.097, 10350.000
292.459, 10210.000
293.821, 10110.000
295.183, 10180.000
296.544, 10200.000
297.905, 10290.000
299.266, 10311.141
300.627, 10320.000
301.988, 10360.000
303.348, 10410.000
304.709, 10410.000
306.069, 10390.000
307.428, 10490.000
308.788, 10410.000
310.147, 10370.000
311.507, 10470.000
312.865, 10370.000
314.224, 10530.000
315.583, 10400.000
316.941, 10560.000
318.299, 10510.000
319.657, 10520.000
321.015, 10590.000
322.372, 10420.000
323.729, 10550.000
325.086, 10470.000
326.443, 10670.000
327.800, 10570.000
329.156, 10530.000
330.512, 10610.000
331.868, 10540.000
333.224, 10590.000
334.579, 10720.000
335.935, 10710.000
337.290, 10940.000
338.645, 10820.000
339.999, 11090.000
341.354, 11210.000
342.708, 11660.000
344.062, 12230.000
345.416, 12920.000
346.769, 13720.000
348.123, 13970.000
349.476, 13870.000
350.829, 13020.000
352.182, 12330.000
353.534, 11950.000
354.887, 11760.000
356.239, 11740.000
357.591, 11690.000
358.942, 12090.000
360.294, 12600.000
361.645, 12980.000
362.996, 13950.000
364.347, 15190.000
365.698, 16680.000
367.048, 17750.000
368.398, 18110.000
369.748, 17290.000
371.098, 15620.000
372.448, 14210.000
373.797, 12930.000
375.146, 12200.000
376.495, 11830.000
377.844, 11380.000
379.192, 11260.000
380.540, 10930.000
381.889, 10890.000
383.236, 10860.000
384.584, 10840.000
385.932, 10910.000
387.279, 10790.000
388.626, 10950.000
389.973, 10810.000
391.319, 10770.000
392.666, 10890.000
394.012, 10760.000
395.358, 10730.000
396.704, 10570.000
398.049, 10780.000
399.394, 10650.000
400.740, 10520.000
402.084, 10760.000
403.429, 10500.000
404.774, 10560.000
406.118, 10620.000
407.462, 10530.000
408.806, 10620.000
410.150, 10580.000
411.493, 10580.000
412.836, 10660.000
414.179, 10780.000
415.522, 10820.000
416.865, 10910.000
418.207, 11140.000
419.549, 11160.000
420.891, 11110.000
422.233, 11050.000
423.575, 11007.173
424.916, 10890.000
426.257, 10860.000
427.598, 10950.000
428.939, 10870.000
430.279, 11050.000
431.619, 11080.000
432.959, 11200.000
434.299, 11240.000
435.639, 11140.000
436.978, 11180.000
438.318, 11160.000
439.657, 11250.000
440.996, 11350.000
442.334, 11400.000
443.673, 11500.000
445.011, 11520.000
446.349, 11590.000
447.687, 11840.000
449.024, 11900.000
450.361, 12470.000
451.699, 12860.000
453.036, 14340.000
454.372, 16430.000
455.709, 19650.000
457.045, 23140.000
458.381, 23460.000
459.717, 21170.000
461.053, 17660.000
462.388, 14950.000
463.724, 13780.000
465.059, 13050.000
466.394, 12900.000
467.728, 12820.000
469.063, 13080.000
470.397, 13890.000
471.731, 14780.000
473.065, 16560.000
474.398, 18280.000
475.732, 19370.000
477.065, 19200.000
478.398, 17470.000
479.731, 15720.000
481.063, 14270.000
482.396, 13490.000
483.728, 12980.000
485.060, 12800.000
486.391, 12540.000
487.723, 12430.000
489.054, 12390.000
490.385, 12260.000
491.716, 12170.000
493.047, 12300.000
494.377, 12100.000
495.708, 12310.000
497.038, 12240.000
498.368, 12290.000
499.697, 12370.000
501.027, 12360.000
502.356, 12440.000
503.685, 12430.000
505.014, 12640.000
506.342, 12790.000
507.671, 12720.000
508.999, 13020.000
510.327, 13250.000
511.655, 13750.000
512.982, 14550.000
514.310, 15610.000
515.637, 17270.000
516.964, 18880.000
518.291, 21500.000
519.617, 24220.000
520.944, 27050.000
522.270, 27110.000
523.596, 24400.000
524.921, 21400.000
526.247, 18050.000
527.572, 15950.000
528.897, 14780.000
530.222, 14110.000
531.547, 13680.000
532.871, 13480.000
534.196, 13260.000
535.520, 13330.000
536.844, 13100.000
538.167, 13270.000
539.491, 13180.000
540.814, 13360.000
542.137, 13370.000
543.460, 13580.000
544.783, 13810.000
546.105, 13580.000
547.427, 13790.000
548.749, 13620.000
550.071, 13360.000
551.393, 13250.000
552.714, 13030.000
554.035, 13150.000
555.356, 13090.000
556.677, 12840.000
557.998, 12930.000
559.318, 12730.000
560.638, 12820.000
561.958, 12830.000
563.278, 12770.000
564.597, 12850.000
565.917, 12840.000
567.236, 13000.000
568.555, 12950.000
569.874, 12720.000
571.192, 12880.000
572.511, 12860.000
573.829, 12930.000
575.147, 12830.000
576.464, 12790.000
577.782, 12830.000
579.099, 12710.000
580.416, 13000.000
581.733, 12940.000
583.050, 13080.000
584.366, 13090.000
585.683, 13050.000
586.999, 13110.000
588.315, 13080.000
589.630, 13120.000
590.946, 13130.000
592.261, 13140.000
593.576, 13450.000
594.891, 13400.000
596.206, 13630.000
597.520, 13660.000
598.834, 13730.000
600.148, 13835.873
601.462, 13690.000
602.776, 13930.000
604.089, 13920.000
605.402, 13890.000
606.715, 14110.000
608.028, 14120.000
609.341, 14340.000
610.653, 14340.000
611.965, 14360.000
613.277, 14780.000
614.589, 14760.000
615.901, 15170.000
617.212, 15280.000
618.523, 15600.000
619.834, 16180.000
621.145, 16440.000
622.456, 17140.000
623.766, 17390.000
625.076, 17640.000
626.386, 17940.000
627.696, 17880.000
629.006, 18580.000
630.315, 19120.000
631.624, 21030.000
632.933, 24500.000
634.242, 30340.000
635.551, 38300.000
636.859, 44340.000
638.167, 45050.000
639.475, 39510.000
640.783, 30650.000
642.090, 25350.000
643.398, 22140.000
644.705, 19540.000
646.012, 18430.000
647.318, 17380.000
648.625, 17230.000
649.931, 16450.000
651.237, 16560.000
652.543, 16120.000
653.849, 15730.000
655.155, 15650.000
656.460, 15300.000
657.765, 15030.000
659.070, 14880.000
660.375, 14480.000
661.679, 14820.000
662.984, 14340.000
664.288, 14430.000
665.592, 14400.000
666.895, 14200.000
668.199, 14320.000
669.502, 14010.000
670.805, 14010.000
672.108, 13940.000
673.411, 14140.000
674.713, 14000.000
676.016, 14010.000
677.318, 14080.000
678.620, 14110.000
679.921, 14050.000
681.223, 14130.000
682.524, 14040.000
683.825, 14100.000
685.126, 13920.000
686.427, 13770.000
687.727, 13930.000
689.028, 13750.000
690.328, 13680.000
691.628, 13670.000
692.927, 13680.000
694.227, 13940.000
695.526, 13820.000
696.825, 13930.000
698.124, 13910.000
699.423, 13940.000
700.721, 14030.000
702.020, 13980.000
703.318, 14030.000
704.616, 13950.000
705.913, 13940.000
707.211, 14100.000
708.508, 14240.000
709.805, 14330.000
711.102, 14350.000
712.399, 13920.000
713.695, 13990.000
714.992, 13780.000
716.288, 13790.000
717.584, 13940.000
718.879, 13660.000
720.175, 13870.000
721.470, 13770.000
722.765, 13930.000
724.060, 14031.771
725.355, 14210.000
726.649, 14210.000
727.944, 14140.000
729.238, 14080.000
730.532, 14280.000
731.825, 13950.000
733.119, 14180.000
734.412, 13960.000
735.705, 14070.000
736.998, 14200.000
738.291, 14020.000
739.584, 14210.000
740.876, 14110.000
742.168, 14270.000
743.460, 14320.000
744.752, 14310.000
746.043, 14460.000
747.334, 14390.000
748.626, 14450.000
749.916, 14560.000
751.207, 14680.000
752.498, 14710.000
753.788, 14640.000
755.078, 14720.000
756.368, 14790.712
757.658, 14930.000
758.947, 15080.000
760.237, 15190.000
761.526, 15480.000
762.815, 15740.000
764.104, 15780.000
765.392, 16360.000
766.680, 16700.000
767.969, 17170.000
769.257, 17990.000
770.544, 18680.000
771.832, 19550.000
773.119, 20890.000
774.406, 21730.000
775.693, 23010.000
776.980, 23300.000
778.267, 23150.000
779.553, 22470.000
780.839, 21180.000
782.125, 20330.000
783.411, 19040.000
784.697, 18390.000
785.982, 17750.000
787.267, 17370.000
788.552, 17260.000
789.837, 16530.000
791.122, 16400.000
792.406, 16320.000
793.690, 16050.000
794.974, 16110.000
796.258, 16100.000
797.542, 15840.000
798.825, 15860.000
800.108, 15810.000
801.391, 15750.000
802.674, 15660.000
803.957, 15790.000
805.239, 15710.000
806.522, 15630.000
807.804, 15760.000
809.085, 15680.000
810.367, 15650.000
811.649, 15920.000
812.930, 15880.000
814.211, 15850.000
815.492, 16060.000
816.772, 16190.000
818.053, 16320.000
819.333, 15910.000
820.613, 16290.000
821.893, 16230.000
823.173, 16220.000
824.452, 16450.000
825.732, 16430.000
827.011, 16400.000
828.290, 16640.000
829.568, 16540.000
830.847, 16770.000
832.125, 16600.000
833.403, 16580.000
834.681, 16720.000
835.959, 16500.000
837.236, 16860.000
838.514, 16690.000
839.791, 16900.000
841.068, 17050.000
842.345, 16910.000
843.621, 17330.000
844.898, 17430.000
846.174, 17010.000
847.450, 17280.000
848.726, 17040.000
850.001, 17510.000
851.277, 17730.000
852.552, 17540.000
853.827, 18010.000
855.102, 17910.000
856.376, 18220.000
857.651, 18500.000
858.925, 18510.000
860.199, 18850.000
861.473, 18350.000
862.746, 18210.000
864.020, 18270.000
865.293, 17580.000
866.566, 17750.000
867.839, 17560.000
869.112, 17470.000
870.384, 17660.000
871.656, 17330.000
872.928, 17580.000
874.200, 17220.000
875.472, 17390.000
876.744, 17370.000
878.015, 17200.000
879.286, 17480.000
880.557, 17230.000
881.828, 17150.000
883.098, 17380.000
884.369, 17150.000
885.639, 17350.000
886.909, 17350.000
888.178, 17310.000
889.448, 17530.000
890.717, 17360.000
891.987, 17610.000
893.256, 17570.000
894.524, 17420.000
895.793, 17700.000
897.061, 17740.000
898.330, 17560.000
899.598, 17920.000
900.865, 17680.000
902.133, 17840.000
903.401, 18010.000
904.668, 17800.000
905.935, 18120.000
907.202, 18020.000
908.468, 18220.000
909.735, 18450.000
911.001, 18320.000
912.267, 18890.000
913.533, 18870.000
914.799, 19250.000
916.064, 19520.000
917.330, 19640.000
918.595, 20510.000
919.860, 21110.000
921.124, 22150.000
922.389, 23540.000
923.653, 25250.000
924.918, 27680.000
926.182, 30090.000
927.445, 32330.000
928.709, 35790.000
929.972, 36510.000
931.236, 37380.000
932.499, 37140.000
933.761, 35130.000
935.024, 33360.000
936.286, 31010.000
937.549, 28740.000
938.811, 27320.000
940.073, 25450.000
941.334, 24480.000
942.596, 23020.000
943.857, 22180.000
945.118, 21740.000
946.379, 20940.000
947.640, 20650.000
948.900, 20400.000
950.161, 19740.000
951.421, 19810.000
952.681, 19400.000
953.940, 19190.000
955.200, 19060.000
956.459, 18750.000
957.719, 18650.000
958.978, 18470.000
960.236, 18350.000
961.495, 18440.000
962.753, 18020.000
964.012, 18290.000
965.270, 17960.000
966.527, 17950.000
967.785, 18060.000
969.043, 17620.000
970.300, 17740.000
971.557, 17550.000
972.814, 17360.000
974.071, 17480.000
975.327, 17300.000
976.583, 17180.000
977.840, 17410.000
979.095, 17110.000
980.351, 17420.000
981.607, 17390.000
982.862, 17307.346
984.117, 17424.617
985.372, 17493.412
986.627, 17516.342
987.882, 17355.906
989.136, 17432.334
990.390, 17413.891
991.644, 17391.596
992.898, 17501.479
994.152, 17367.912
995.405, 17475.773
996.659, 17487.318
997.912, 17543.002
999.165, 17503.227
1000.417, 17492.982
1001.670, 17578.311
1002.922, 17610.779
1004.174, 17560.166
1005.426, 17618.885
1006.678, 17482.371
1007.930, 17517.252
1009.181, 17626.100
1010.432, 17580.480
1011.683, 17641.141
1012.934, 17661.379
1014.185, 17497.775
1015.435, 17653.992
1016.685, 17671.953
1017.935, 17547.951
1019.185, 17693.330
1020.435, 17588.986
1021.684, 17573.824
1022.934, 17625.801
1024.183, 17607.871
1025.432, 17700.250
1026.680, 17686.432
1027.929, 17663.166
1029.177, 17681.357
1030.425, 17661.396
1031.673, 17700.859
1032.921, 17670.805
1034.169, 17714.725
1035.416, 17775.436
1036.663, 17707.867
1037.911, 17776.195
1039.157, 17633.879
1040.404, 17667.885
1041.650, 17682.939
1042.897, 17810.713
1044.143, 17669.582
1045.389, 17698.842
1046.634, 17800.664
1047.880, 17801.045
1049.125, 17843.891
1050.371, 17761.164
1051.615, 17796.473
1052.860, 17799.299
1054.105, 17914.570
1055.349, 17941.135
1056.593, 17860.721
1057.837, 17780.801
1059.081, 17904.312
1060.325, 17835.084
1061.568, 17869.891
1062.812, 17797.334
1064.055, 17817.549
1065.298, 17836.332
1066.540, 17902.689
1067.783, 17902.070
1069.025, 17934.209
1070.267, 17935.443
1071.509, 17968.553
1072.751, 17998.160
1073.993, 18020.252
1075.234, 18007.754
1076.475, 18060.014
1077.716, 17974.307
1078.957, 17941.006
1080.198, 17944.969
1081.438, 18124.643
1082.679, 18141.070
1083.919, 17962.344
1085.159, 18134.395
1086.398, 18090.695
1087.638, 18111.166
1088.877, 18108.273
1090.116, 18112.346
1091.355, 18130.951
1092.594, 18060.514
1093.833, 18187.086
1095.071, 18152.773
1096.309, 18227.840
1097.547, 18103.676
1098.785, 18097.834
1100.023, 18123.428
1101.260, 18160.504
1102.498, 18106.135
1103.735, 18139.617
1104.972, 18143.088
1106.208, 18142.914
1107.445, 18158.787
1108.681, 18155.676
1109.918, 18140.926
1111.154, 18273.326
1112.389, 18176.838
1113.625, 18296.164
1114.860, 18346.361
1116.096, 18303.111
1117.331, 18309.572
1118.566, 18221.818
1119.800, 18278.637
1121.035, 18285.791
1122.269, 18374.883
1123.503, 18287.652
1124.737, 18403.488
1125.971, 18321.066
1127.205, 18445.201
1128.438, 18358.654
1129.671, 18459.850
1130.904, 18337.035
1132.137, 18376.422
1133.370, 18428.703
1134.602, 18522.531
1135.834, 18456.779
1137.066, 18560.533
1138.298, 18515.605
1139.530, 18567.518
1140.762, 18565.791
1141.993, 18496.914
1143.224, 18617.557
1144.455, 18565.420
1145.686, 18630.016
1146.917, 18505.641
1148.147, 18611.062
1149.377, 18667.059
1150.607, 18712.902
1151.837, 18715.924
1153.067, 18699.885
1154.296, 18713.846
1155.526, 18677.836
1156.755, 18568.816
1157.984, 18611.383
1159.213, 18699.834
1160.441, 18765.588
1161.670, 18677.529
1162.898, 18755.080
1164.126, 18758.119
1165.354, 18831.744
1166.581, 18770.162
1167.809, 18869.631
1169.036, 18752.656
1170.263, 18868.543
1171.490, 18921.297
1172.717, 18736.295
1173.943, 18941.855
1175.170, 18794.852
1176.396, 18855.740
1177.622, 18903.553
1178.848, 18849.355
1180.073, 18993.529
1181.299, 18821.168
1182.524, 18872.254
1183.749, 19006.232
1184.974, 18940.350
1186.199, 19070.449
1187.423, 19003.682
1188.648, 18895.600
1189.872, 19077.969
1191.096, 18961.570
1192.320, 19041.416
1193.543, 18958.184
1194.767, 18970.504
1195.990, 19076.246
1197.213, 19012.773
1198.436, 19099.277
1199.659, 19179.629
1200.881, 19084.238
1202.104, 19120.957
1203.326, 19107.787
1204.548, 19204.555
1205.770, 19275.811
1206.991, 19122.766
1208.213, 19250.189
1209.434, 19183.416
1210.655, 19323.707
1211.876, 19139.760
1213.096, 19156.430
1214.317, 19348.035
1215.537, 19295.596
1216.757, 19396.932
1217.977, 19212.836
1219.197, 19228.090
1220.417, 19401.164
1221.636, 19266.197
1222.855, 19464.455
1224.074, 19333.984
1225.293, 19330.262
1226.512, 19470.834
1227.731, 19396.645
1228.949, 19508.283
1230.167, 19470.051
1231.385, 19562.164
1232.603, 19527.047
1233.820, 19419.430
1235.038, 19589.744
1236.255, 19550.287
1237.472, 19429.193
1238.689, 19546.469
1239.906, 19627.953
1241.122, 19621.688
1242.338, 19672.105
1243.555, 19651.871
1244.771, 19544.580
1245.986, 19589.795
1247.202, 19657.207
1248.417, 19587.434
1249.633, 19634.914
1250.848, 19721.770
1252.063, 19678.209
1253.277, 19662.084
1254.492, 19722.416
1255.706, 19720.881
1256.920, 19691.377
1258.134, 19784.035
1259.348, 19736.783
1260.562, 19861.162
1261.775, 19842.164
1262.988, 19901.766
1264.201, 19783.059
1265.414, 19849.084
1266.627, 19801.109
1267.839, 19857.709
1269.052, 19944.471
1270.264, 20010.867
1271.476, 20003.080
1272.688, 19911.020
1273.899, 19894.770
1275.111, 19929.764
1276.322, 19992.947
1277.533, 19971.594
1278.744, 19977.256
1279.955, 19993.223
1281.165, 20035.834
1282.376, 20032.656
1283.586, 20133.953
1284.796, 20195.027
1286.006, 20196.861
1287.215, 20133.316
1288.425, 20061.061
1289.634, 20084.264
1290.843, 20118.623
1292.052, 20117.166
1293.261, 20110.652
1294.469, 20177.434
1295.678, 20234.834
1296.886, 20261.879
1298.094, 20255.809
1299.302, 20191.762
1300.509, 20233.156
1301.717, 20284.379
1302.924, 20289.525
1304.131, 20389.008
1305.338, 20367.188
1306.545, 20465.314
1307.752, 20450.328
1308.958, 20518.760
1310.164, 20377.242
1311.370, 20387.529
1312.576, 20404.516
1313.782, 20587.197
1314.987, 20482.725
1316.193, 20571.836
1317.398, 20461.488
1318.603, 20618.869
1319.807, 20617.451
1321.012, 20526.297
1322.216, 20598.500
1323.421, 20718.514
1324.625, 20607.842
1325.829, 20672.229
1327.032, 20563.648
1328.236, 20787.221
1329.439, 20805.717
1330.642, 20755.352
1331.845, 20682.807
1333.048, 20734.717
1334.251, 20804.953
1335.453, 20839.348
1336.656, 20900.242
1337.858, 20805.246
1339.060, 20860.492
1340.261, 20947.109
1341.463, 20960.699
1342.664, 20808.859
1343.866, 20872.215
1345.067, 20895.105
1346.267, 20900.773
1347.468, 20954.652
1348.669, 21015.090
1349.869, 21014.945
1351.069, 21001.410
1352.269, 21040.375
1353.469, 21027.551
1354.668, 21043.361
1355.868, 21107.479
1357.067, 21037.008
1358.266, 21169.711
1359.465, 21032.533
1360.664, 21055.389
1361.862, 21144.018
1363.061, 21225.738
1364.259, 21304.338
1365.457, 21120.119
1366.655, 21226.822
1367.852, 21266.648
1369.050, 21231.719
1370.247, 21389.076
1371.444, 21331.824
1372.641, 21304.836
1373.838, 21367.141
1375.035, 21365.471
1376.231, 21347.123
1377.427, 21441.064
1378.623, 21350.330
1379.819, 21500.709
1381.015, 21468.277
1382.211, 21560.727
1383.406, 21581.949
1384.601, 21561.611
1385.796, 21583.961
1386.991, 21511.346
1388.185, 21636.977
1389.380, 21510.424
1390.574, 21655.742
1391.768, 21567.193
1392.962, 21545.725
1394.156, 21598.957
1395.350, 21730.201
1396.543, 21637.037
1397.736, 21729.648
1398.929, 21752.312
1400.122, 21682.914
1401.315, 21827.377
1402.507, 21722.977
1403.700, 21873.125
1404.892, 21813.838
1406.084, 21770.016
1407.276, 21802.617
1408.467, 21861.002
1409.659, 22000.164
1410.850, 21897.637
1412.041, 21967.678
1413.232, 21921.072
1414.423, 22001.498
1415.614, 22032.488
1416.804, 21933.338
1417.994, 22109.164
1419.184, 22054.033
1420.374, 22139.250
1421.564, 22192.320
1422.753, 22122.570
1423.943, 22113.701
1425.132, 22093.838
1426.321, 22147.344
1427.510, 22224.064
1428.698, 22130.348
1429.887, 22264.428
1431.075, 22267.445
1432.263, 22325.055
1433.451, 22330.348
1434.639, 22351.928
1435.827, 22308.799
1437.014, 22331.205
1438.201, 22321.715
1439.388, 22286.707
1440.575, 22311.293
1441.762, 22381.439
1442.949, 22371.002
1444.135, 22550.396
1445.321, 22462.295
1446.507, 22543.342
1447.693, 22473.598
1448.879, 22579.326
1450.064, 22545.354
1451.250, 22620.045
1452.435, 22572.494
1453.620, 22652.709
1454.805, 22753.711
1455.989, 22774.219
1457.174, 22626.016
1458.358, 22739.643
1459.542, 22636.516
1460.726, 22748.938
1461.910, 22742.760
1463.093, 22822.727
1464.277, 22729.816
1465.460, 22764.682
1466.643, 22783.213
1467.826, 22802.463
1469.009, 22881.877
1470.191, 22998.920
1471.373, 23031.236
1472.556, 23038.000
1473.738, 23030.199
1474.919, 22993.955
1476.101, 23009.619
1477.283, 23008.197
1478.464, 22995.861
1479.645, 23090.592
1480.826, 23137.736
1482.007, 23050.949
1483.187, 23135.141
1484.368, 23079.420
1485.548, 23253.227
1486.728, 23113.098
1487.908, 23253.414
1489.088, 23360.285
1490.268, 23356.389
1491.447, 23397.525
1492.626, 23290.412
1493.805, 23234.910
1494.984, 23325.045
1496.163, 23358.746
1497.341, 23502.547
1498.520, 23407.352
1499.698, 23430.146
1500.876, 23406.490
1502.054, 23393.830
1503.232, 23483.025
1504.409, 23466.973
1505.586, 23607.578
1506.763, 23531.068
1507.940, 23627.562
1509.117, 23696.395
1510.294, 23613.568
1511.470, 23670.586
1512.647, 23605.867
##END=



