##NAMES=Chrysoberyl
##RRUFFID=R040073
##IDEAL CHEMISTRY=BeAl_2_O_4_
##LOCALITY=Brazil
##OWNER=RRUFF
##SOURCE=University of Arizona Mineral Museum
##DESCRIPTION=Pair of green prismatic crystals
##STATUS=The identification of this mineral has been confirmed by X-ray diffraction and chemical analysis
##URL=rruff.info/R040073
##MEASURED CHEMISTRY=(Be_0.89_Al_0.06_Fe_0.02_)Al_2.00_O_4_
##PIN_ID=M00464
##ORIENTATION=Laser parallel to -c* (0 0 -1). Fiducial mark perpendicular to laser is parallel to a [1 0 0]
88.496, 13470.000
89.890, 13790.000
91.284, 14010.000
92.678, 14210.000
94.071, 14710.000
95.465, 14620.000
96.858, 14870.000
98.251, 15280.000
99.644, 15390.000
101.036, 15500.000
102.428, 15650.000
103.820, 15880.000
105.212, 16068.329
106.604, 15890.000
107.995, 16520.000
109.387, 17090.000
110.777, 17300.000
112.168, 16550.000
113.559, 16210.000
114.949, 15650.000
116.339, 15540.000
117.729, 15300.000
119.119, 15010.000
120.508, 15160.000
121.897, 15300.000
123.286, 14960.000
124.675, 14540.000
126.063, 14610.000
127.452, 14800.000
128.840, 14810.000
130.228, 14670.000
131.615, 14130.000
133.003, 14100.000
134.390, 14000.000
135.777, 14210.000
137.164, 13920.000
138.550, 13530.000
139.937, 13540.000
141.323, 13460.000
142.709, 13020.000
144.094, 12690.000
145.480, 12610.000
146.865, 12480.000
148.250, 12240.000
149.635, 12040.000
151.019, 12110.000
152.403, 12020.000
153.788, 11780.000
155.171, 11710.000
156.555, 11540.000
157.939, 11560.000
159.322, 11330.000
160.705, 11250.000
162.088, 11350.000
163.470, 11180.000
164.853, 11060.000
166.235, 11010.000
167.617, 11080.000
168.998, 11100.000
170.380, 10780.000
171.761, 11020.000
173.142, 10760.000
174.523, 10930.000
175.904, 10890.000
177.284, 10740.000
178.664, 10690.000
180.044, 10520.000
181.424, 10540.000
182.803, 10510.000
184.183, 10490.000
185.562, 10370.000
186.940, 10300.000
188.319, 10300.000
189.698, 10220.000
191.076, 10270.000
192.454, 10290.000
193.831, 10170.000
195.209, 10020.000
196.586, 9913.000
197.963, 9911.393
199.340, 9849.649
200.717, 9976.000
202.093, 9812.000
203.470, 9868.000
204.846, 9785.000
206.221, 9639.000
207.597, 9794.000
208.972, 9658.000
210.347, 9665.000
211.722, 9612.000
213.097, 9566.000
214.472, 9605.000
215.846, 9519.000
217.220, 9546.000
218.594, 9463.000
219.967, 9461.680
221.341, 9522.000
222.714, 9448.000
224.087, 9536.000
225.460, 9542.000
226.832, 9512.000
228.204, 9419.000
229.577, 9469.000
230.948, 9371.000
232.320, 9532.000
233.692, 9480.000
235.063, 9416.000
236.434, 9501.000
237.805, 9657.000
239.175, 9686.000
240.545, 9664.000
241.916, 9694.000
243.286, 9593.000
244.655, 9574.000
246.025, 9546.000
247.394, 9434.000
248.763, 9459.000
250.132, 9381.000
251.501, 9280.000
252.869, 9365.000
254.237, 9303.000
255.605, 9371.000
256.973, 9360.000
258.340, 9400.000
259.708, 9339.000
261.075, 9263.000
262.442, 9437.000
263.808, 9221.000
265.175, 9306.000
266.541, 9233.000
267.907, 9256.000
269.273, 9344.000
270.639, 9095.000
272.004, 9223.000
273.369, 9152.000
274.734, 9098.000
276.099, 9140.000
277.463, 9014.000
278.828, 9199.000
280.192, 9092.000
281.556, 9191.000
282.919, 9000.000
284.283, 9137.000
285.646, 8982.000
287.009, 9078.000
288.372, 9120.000
289.734, 8992.000
291.097, 9096.000
292.459, 8950.000
293.821, 9031.000
295.183, 9079.000
296.544, 8999.000
297.905, 9130.000
299.266, 9034.000
300.627, 9196.000
301.988, 9073.000
303.348, 9074.000
304.709, 9165.000
306.069, 9026.000
307.428, 9158.000
308.788, 9123.000
310.147, 9180.000
311.507, 9113.000
312.865, 9089.000
314.224, 9161.000
315.583, 9101.000
316.941, 9146.000
318.299, 9017.000
319.657, 9127.000
321.015, 9123.000
322.372, 9050.000
323.729, 9153.000
325.086, 9005.000
326.443, 9173.000
327.800, 9195.000
329.156, 9116.000
330.512, 9065.000
331.868, 9035.000
333.224, 9169.000
334.579, 9283.000
335.935, 9271.000
337.290, 9362.000
338.645, 9410.000
339.999, 9679.000
341.354, 9705.000
342.708, 9979.000
344.062, 10030.000
345.416, 10200.000
346.769, 10540.000
348.123, 10410.000
349.476, 10370.000
350.829, 9985.000
352.182, 9944.000
353.534, 9906.000
354.887, 9901.000
356.239, 10160.000
357.591, 10260.000
358.942, 10405.903
360.294, 10850.000
361.645, 10700.000
362.996, 10880.000
364.347, 10970.000
365.698, 11360.000
367.048, 11610.000
368.398, 11640.000
369.748, 11460.000
371.098, 10720.000
372.448, 10310.000
373.797, 9776.000
375.146, 9620.000
376.495, 9416.000
377.844, 9209.000
379.192, 9289.000
380.540, 9111.000
381.889, 9143.000
383.236, 9137.000
384.584, 9248.000
385.932, 9214.000
387.279, 9142.000
388.626, 9304.000
389.973, 9235.000
391.319, 9123.000
392.666, 9220.000
394.012, 9175.000
395.358, 9125.000
396.704, 9053.000
398.049, 9136.000
399.394, 9030.000
400.740, 9058.000
402.084, 9112.000
403.429, 9073.000
404.774, 9090.000
406.118, 9073.000
407.462, 9179.000
408.806, 9318.000
410.150, 9439.000
411.493, 9815.000
412.836, 10240.000
414.179, 11050.000
415.522, 12510.000
416.865, 14580.000
418.207, 16430.000
419.549, 16530.000
420.891, 15240.000
422.233, 13000.000
423.575, 11380.000
424.916, 10580.000
426.257, 10150.000
427.598, 10240.000
428.939, 10700.000
430.279, 11480.000
431.619, 12390.000
432.959, 12700.000
434.299, 12360.000
435.639, 11420.000
436.978, 10620.000
438.318, 10160.000
439.657, 9964.000
440.996, 9873.000
442.334, 9694.000
443.673, 9823.000
445.011, 9852.000
446.349, 9833.000
447.687, 9912.000
449.024, 9800.000
450.361, 10050.000
451.699, 10210.000
453.036, 10680.000
454.372, 11400.000
455.709, 12400.000
457.045, 13480.000
458.381, 13600.000
459.717, 12790.000
461.053, 11780.000
462.388, 10890.000
463.724, 10570.000
465.059, 10230.000
466.394, 10320.000
467.728, 10280.000
469.063, 10520.000
470.397, 10810.000
471.731, 11150.000
473.065, 11790.000
474.398, 12410.000
475.732, 12700.000
477.065, 12570.000
478.398, 11950.000
479.731, 11430.000
481.063, 10900.000
482.396, 10670.000
483.728, 10510.000
485.060, 10470.000
486.391, 10420.000
487.723, 10290.000
489.054, 10450.000
490.385, 10330.000
491.716, 10360.000
493.047, 10540.000
494.377, 10440.000
495.708, 10600.000
497.038, 10670.000
498.368, 10740.000
499.697, 10770.000
501.027, 10878.188
502.356, 10972.765
503.685, 11150.000
505.014, 11280.000
506.342, 11580.000
507.671, 11900.000
508.999, 12790.000
510.327, 13850.000
511.655, 16340.000
512.982, 20280.000
514.310, 25690.000
515.637, 30050.000
516.964, 29990.000
518.291, 27010.000
519.617, 23300.000
520.944, 20950.000
522.270, 18770.000
523.596, 16680.000
524.921, 15170.000
526.247, 13670.000
527.572, 12700.000
528.897, 12160.000
530.222, 11800.000
531.547, 11700.000
532.871, 11630.000
534.196, 11690.000
535.520, 12020.000
536.844, 12210.000
538.167, 13030.000
539.491, 13770.000
540.814, 15400.000
542.137, 17000.000
543.460, 18980.000
544.783, 20030.000
546.105, 19440.000
547.427, 18330.000
548.749, 16300.000
550.071, 14470.000
551.393, 13370.000
552.714, 12650.000
554.035, 12120.000
555.356, 11870.000
556.677, 11550.000
557.998, 11540.000
559.318, 11220.000
560.638, 11390.000
561.958, 11380.000
563.278, 11170.000
564.597, 11230.000
565.917, 11150.000
567.236, 11280.000
568.555, 11160.000
569.874, 10990.000
571.192, 10950.000
572.511, 10860.000
573.829, 11030.000
575.147, 10970.000
576.464, 10840.000
577.782, 10910.000
579.099, 10770.000
580.416, 10960.000
581.733, 10940.000
583.050, 10960.000
584.366, 11020.000
585.683, 10940.000
586.999, 11090.000
588.315, 10860.000
589.630, 10870.000
590.946, 10910.000
592.261, 10910.000
593.576, 11050.000
594.891, 11010.000
596.206, 11090.000
597.520, 11160.000
598.834, 11180.000
600.148, 11410.000
601.462, 11200.000
602.776, 11440.000
604.089, 11350.000
605.402, 11420.000
606.715, 11400.000
608.028, 11300.000
609.341, 11480.000
610.653, 11440.000
611.965, 11580.000
613.277, 11780.000
614.589, 11823.172
615.901, 12170.000
617.212, 12100.000
618.523, 12370.000
619.834, 12630.000
621.145, 12810.000
622.456, 13230.000
623.766, 13510.000
625.076, 13590.000
626.386, 13680.000
627.696, 13230.000
629.006, 13490.000
630.315, 13460.000
631.624, 14040.000
632.933, 15260.000
634.242, 17220.000
635.551, 19910.000
636.859, 21960.000
638.167, 22240.000
639.475, 20500.000
640.783, 17940.000
642.090, 16620.000
643.398, 15390.000
644.705, 14780.000
646.012, 14280.000
647.318, 13920.000
648.625, 13770.000
649.931, 13330.000
651.237, 13330.000
652.543, 13140.000
653.849, 12900.000
655.155, 12940.000
656.460, 12650.000
657.765, 12400.000
659.070, 12340.000
660.375, 11940.000
661.679, 12050.000
662.984, 11920.000
664.288, 11940.000
665.592, 11850.000
666.895, 11700.000
668.199, 11820.000
669.502, 11580.000
670.805, 11550.000
672.108, 11600.000
673.411, 11560.000
674.713, 11580.000
676.016, 11500.000
677.318, 11600.000
678.620, 11630.000
679.921, 11570.000
681.223, 11560.000
682.524, 11500.000
683.825, 11580.000
685.126, 11380.000
686.427, 11350.000
687.727, 11510.000
689.028, 11350.000
690.328, 11360.000
691.628, 11420.000
692.927, 11330.000
694.227, 11510.000
695.526, 11400.000
696.825, 11650.000
698.124, 11590.000
699.423, 11560.000
700.721, 11720.000
702.020, 11730.000
703.318, 11680.000
704.616, 11750.000
705.913, 11650.000
707.211, 11860.000
708.508, 12050.000
709.805, 12090.000
711.102, 12120.000
712.399, 11760.000
713.695, 11710.000
714.992, 11600.000
716.288, 11560.000
717.584, 11760.000
718.879, 11510.000
720.175, 11610.000
721.470, 11480.000
722.765, 11690.000
724.060, 11820.000
725.355, 11580.000
726.649, 11800.000
727.944, 11740.000
729.238, 11730.000
730.532, 11860.000
731.825, 11730.000
733.119, 11830.000
734.412, 11720.000
735.705, 11630.000
736.998, 11810.000
738.291, 11710.000
739.584, 11840.000
740.876, 11740.000
742.168, 11770.000
743.460, 11980.000
744.752, 11920.000
746.043, 12050.000
747.334, 11940.000
748.626, 12060.000
749.916, 12090.000
751.207, 12210.000
752.498, 12100.000
753.788, 12190.000
755.078, 12060.000
756.368, 12300.000
757.658, 12150.000
758.947, 12380.000
760.237, 12380.000
761.526, 12550.000
762.815, 12682.173
764.104, 12710.000
765.392, 12980.000
766.680, 13140.000
767.969, 13350.000
769.257, 13910.000
770.544, 14230.000
771.832, 14850.000
773.119, 15590.000
774.406, 16140.000
775.693, 17030.000
776.980, 17050.000
778.267, 17160.000
779.553, 16600.000
780.839, 15840.000
782.125, 15240.000
783.411, 14570.000
784.697, 14000.000
785.982, 13630.000
787.267, 13320.000
788.552, 13140.000
789.837, 12980.000
791.122, 12970.000
792.406, 12740.000
793.690, 12730.000
794.974, 12780.000
796.258, 12660.000
797.542, 12540.000
798.825, 12540.000
800.108, 12460.000
801.391, 12640.000
802.674, 12580.000
803.957, 12470.000
805.239, 12530.000
806.522, 12450.000
807.804, 12510.000
809.085, 12570.000
810.367, 12600.000
811.649, 12639.428
812.930, 12720.000
814.211, 12710.000
815.492, 12780.000
816.772, 12860.000
818.053, 12912.687
819.333, 12991.109
820.613, 13070.000
821.893, 13160.000
823.173, 13230.000
824.452, 13370.000
825.732, 13290.000
827.011, 13560.000
828.290, 13740.000
829.568, 13570.000
830.847, 13800.000
832.125, 13630.000
833.403, 13560.000
834.681, 13750.000
835.959, 13430.000
837.236, 13600.000
838.514, 13410.000
839.791, 13640.000
841.068, 13710.000
842.345, 13480.000
843.621, 13770.000
844.898, 13830.000
846.174, 13740.000
847.450, 13840.000
848.726, 13570.000
850.001, 13850.000
851.277, 13900.000
852.552, 13980.000
853.827, 14470.000
855.102, 14370.000
856.376, 14500.000
857.651, 14700.000
858.925, 14690.000
860.199, 14680.684
861.473, 14672.002
862.746, 14370.000
864.020, 14450.000
865.293, 14352.791
866.566, 14100.000
867.839, 14380.000
869.112, 14610.000
870.384, 14650.000
871.656, 13670.000
872.928, 13920.000
874.200, 13720.000
875.472, 13830.000
876.744, 14220.000
878.015, 13970.000
879.286, 13930.000
880.557, 13650.000
881.828, 13550.000
883.098, 14020.000
884.369, 13798.284
885.639, 14500.000
886.909, 13960.000
888.178, 13610.000
889.448, 13860.000
890.717, 13780.000
891.987, 13880.000
893.256, 13890.000
894.524, 13660.000
895.793, 14100.000
897.061, 13870.000
898.330, 13860.000
899.598, 14060.000
900.865, 13830.000
902.133, 13980.000
903.401, 14030.000
904.668, 13860.000
905.935, 14060.000
907.202, 14060.000
908.468, 14290.000
909.735, 14360.000
911.001, 14200.000
912.267, 14460.000
913.533, 14340.000
914.799, 14520.000
916.064, 14680.000
917.330, 14580.000
918.595, 15250.000
919.860, 15270.000
921.124, 15920.000
922.389, 16420.000
923.653, 17150.000
924.918, 18270.000
926.182, 19290.000
927.445, 20230.000
928.709, 21860.000
929.972, 22180.000
931.236, 22600.000
932.499, 22460.000
933.761, 21680.000
935.024, 20850.000
936.286, 19890.000
937.549, 18870.000
938.811, 18230.000
940.073, 17590.000
941.334, 16900.000
942.596, 16300.000
943.857, 15910.000
945.118, 15740.000
946.379, 15380.000
947.640, 15290.000
948.900, 15270.000
950.161, 14950.000
951.421, 15170.000
952.681, 14820.000
953.940, 14730.000
955.200, 14570.000
956.459, 14460.000
957.719, 14480.000
958.978, 14340.000
960.236, 14440.000
961.495, 14470.000
962.753, 14260.000
964.012, 14380.000
965.270, 14270.000
966.527, 14040.000
967.785, 14290.000
969.043, 13990.000
970.300, 14080.000
971.557, 14000.000
972.814, 13840.000
974.071, 13980.000
975.327, 13830.000
976.583, 13810.000
977.840, 13970.000
979.095, 13700.000
980.351, 13880.000
981.607, 13910.000
982.862, 13840.000
984.117, 14220.000
985.372, 14030.000
986.627, 14210.000
987.882, 14200.000
989.136, 13910.000
990.390, 14150.000
991.644, 14050.000
992.898, 13971.905
994.152, 14082.304
995.405, 14146.990
996.659, 14168.432
997.912, 14016.956
999.165, 14088.855
1000.417, 14071.289
1001.670, 14050.100
1002.922, 14153.552
1004.174, 14027.435
1005.426, 14128.994
1006.678, 14139.727
1007.930, 14192.089
1009.181, 14154.433
1010.432, 14144.633
1011.683, 14224.958
1012.934, 14255.445
1014.185, 14207.588
1015.435, 14262.832
1016.685, 14133.972
1017.935, 14166.743
1019.185, 14269.274
1020.435, 14226.146
1021.684, 14283.238
1022.934, 14302.222
1024.183, 14147.839
1025.432, 14295.060
1026.680, 14311.900
1027.929, 14194.880
1029.177, 14331.886
1030.425, 14233.402
1031.673, 14219.030
1032.921, 14267.968
1034.169, 14250.991
1035.416, 14338.035
1036.663, 14324.944
1037.911, 14302.950
1039.157, 14320.045
1040.404, 14301.167
1041.650, 14338.337
1042.897, 14309.952
1044.143, 14351.325
1045.389, 14408.544
1046.634, 14344.790
1047.880, 14409.190
1049.125, 14274.962
1050.371, 14307.010
1051.615, 14321.187
1052.860, 14441.660
1054.105, 14308.564
1055.349, 14336.146
1056.593, 14432.166
1057.837, 14432.522
1059.081, 14472.935
1060.325, 14394.925
1061.568, 14428.236
1062.812, 14430.920
1064.055, 14539.637
1065.298, 14564.713
1066.540, 14488.906
1067.783, 14413.573
1069.025, 14530.075
1070.267, 14464.827
1071.509, 14497.694
1072.751, 14429.312
1073.993, 14448.427
1075.234, 14466.189
1076.475, 14528.823
1077.716, 14528.295
1078.957, 14558.669
1080.198, 14559.902
1081.438, 14591.192
1082.679, 14619.190
1083.919, 14640.097
1085.159, 14628.397
1086.398, 14677.758
1087.638, 14597.029
1088.877, 14565.714
1090.116, 14569.542
1091.355, 14739.080
1092.594, 14754.672
1093.833, 14586.242
1095.071, 14748.594
1096.309, 14707.503
1097.547, 14726.922
1098.785, 14724.319
1100.023, 14728.288
1101.260, 14745.952
1102.498, 14679.672
1103.735, 14799.162
1104.972, 14766.948
1106.208, 14837.877
1107.445, 14720.939
1108.681, 14715.578
1109.918, 14739.871
1111.154, 14774.997
1112.389, 14723.875
1113.625, 14755.621
1114.860, 14759.062
1116.096, 14759.075
1117.331, 14774.218
1118.566, 14771.467
1119.800, 14757.739
1121.035, 14882.775
1122.269, 14791.980
1123.503, 14904.696
1124.737, 14952.235
1125.971, 14911.646
1127.205, 14917.947
1128.438, 14835.398
1129.671, 14889.196
1130.904, 14896.154
1132.137, 14980.392
1133.370, 14898.361
1134.602, 15007.818
1135.834, 14930.320
1137.066, 15047.609
1138.298, 14966.237
1139.530, 15061.910
1140.762, 14946.343
1141.993, 14983.730
1143.224, 15033.279
1144.455, 15122.019
1145.686, 15060.278
1146.917, 15158.386
1148.147, 15116.281
1149.377, 15165.500
1150.607, 15164.142
1151.837, 15099.469
1153.067, 15213.522
1154.296, 15164.638
1155.526, 15225.843
1156.755, 15108.844
1157.984, 15208.557
1159.213, 15261.663
1160.441, 15305.191
1161.670, 15308.352
1162.898, 15293.531
1164.126, 15307.013
1165.354, 15273.367
1166.581, 15170.876
1167.809, 15211.344
1169.036, 15295.077
1170.263, 15357.417
1171.490, 15274.707
1172.717, 15348.182
1173.943, 15351.383
1175.170, 15421.162
1176.396, 15363.442
1177.622, 15457.590
1178.848, 15347.641
1180.073, 15457.277
1181.299, 15507.392
1182.524, 15333.295
1183.749, 15527.514
1184.974, 15389.255
1186.199, 15447.057
1187.423, 15492.519
1188.648, 15441.799
1189.872, 15578.147
1191.096, 15415.995
1192.320, 15464.566
1193.543, 15591.305
1194.767, 15529.583
1195.990, 15652.668
1197.213, 15590.118
1198.436, 15488.602
1199.659, 15661.000
1200.881, 15551.647
1202.104, 15627.370
1203.326, 15549.312
1204.548, 15561.357
1205.770, 15661.509
1206.991, 15602.084
1208.213, 15684.102
1209.434, 15760.312
1210.655, 15670.811
1211.876, 15705.881
1213.096, 15693.909
1214.317, 15785.627
1215.537, 15853.278
1216.757, 15709.423
1217.977, 15830.049
1219.197, 15767.558
1220.417, 15900.332
1221.636, 15727.342
1222.855, 15743.548
1224.074, 15924.714
1225.293, 15875.758
1226.512, 15971.816
1227.731, 15798.712
1228.949, 15813.590
1230.167, 15977.298
1231.385, 15850.535
1232.603, 16038.010
1233.820, 15915.481
1235.038, 15912.493
1236.255, 16045.569
1237.472, 15976.125
1238.689, 16081.935
1239.906, 16046.416
1241.122, 16133.808
1242.338, 16101.224
1243.555, 16000.299
1244.771, 16161.445
1245.986, 16124.777
1247.202, 16011.141
1248.417, 16122.283
1249.633, 16199.688
1250.848, 16194.347
1252.063, 16242.460
1253.277, 16223.931
1254.492, 16123.331
1255.706, 16166.552
1256.920, 16230.694
1258.134, 16165.485
1259.348, 16210.838
1260.562, 16293.340
1261.775, 16252.849
1262.988, 16238.245
1264.201, 16295.731
1265.414, 16294.891
1266.627, 16267.680
1267.839, 16355.662
1269.052, 16311.722
1270.264, 16429.625
1271.476, 16412.332
1272.688, 16469.168
1273.899, 16357.846
1275.111, 16420.746
1276.322, 16376.133
1277.533, 16430.150
1278.744, 16512.602
1279.955, 16575.863
1281.165, 16569.162
1282.376, 16483.004
1283.586, 16468.340
1284.796, 16501.992
1286.006, 16562.240
1287.215, 16542.762
1288.425, 16548.775
1289.634, 16564.498
1290.843, 16605.359
1292.052, 16603.035
1293.261, 16699.246
1294.469, 16757.520
1295.678, 16759.943
1296.886, 16700.717
1298.094, 16633.268
1299.302, 16655.854
1300.509, 16688.947
1301.717, 16688.281
1302.924, 16682.846
1304.131, 16746.539
1305.338, 16801.377
1306.545, 16827.607
1307.752, 16822.607
1308.958, 16762.932
1310.164, 16802.699
1311.370, 16851.730
1312.576, 16857.326
1313.782, 16951.883
1314.987, 16932.043
1316.193, 17025.328
1317.398, 17011.939
1318.603, 17077.230
1319.807, 16944.527
1321.012, 16954.990
1322.216, 16971.764
1323.421, 17144.811
1324.625, 17047.064
1325.829, 17131.865
1327.032, 17028.574
1328.236, 17177.771
1329.439, 17177.223
1330.642, 17092.043
1331.845, 17160.928
1333.048, 17274.885
1334.251, 17171.324
1335.453, 17232.834
1336.656, 17131.264
1337.858, 17342.895
1339.060, 17361.152
1340.261, 17314.463
1341.463, 17246.875
1342.664, 17296.637
1343.866, 17363.699
1345.067, 17396.967
1346.267, 17455.199
1347.468, 17366.457
1348.669, 17419.396
1349.869, 17501.924
1351.069, 17515.574
1352.269, 17373.242
1353.469, 17433.828
1354.668, 17456.260
1355.868, 17462.482
1357.067, 17514.141
1358.266, 17571.990
1359.465, 17572.729
1360.664, 17560.838
1361.862, 17598.447
1363.061, 17587.236
1364.259, 17603.033
1365.457, 17664.371
1366.655, 17598.809
1367.852, 17724.830
1369.050, 17596.369
1370.247, 17618.811
1371.444, 17703.293
1372.641, 17781.252
1373.838, 17856.283
1375.035, 17683.480
1376.231, 17785.006
1377.427, 17823.484
1378.623, 17791.457
1379.819, 17940.775
1381.015, 17887.719
1382.211, 17863.203
1383.406, 17922.881
1384.601, 17922.232
1385.796, 17905.877
1386.991, 17995.412
1388.185, 17910.787
1389.380, 18053.551
1390.574, 18023.910
1391.768, 18112.037
1392.962, 18133.018
1394.156, 18114.809
1395.350, 18136.854
1396.543, 18069.336
1397.736, 18188.783
1398.929, 18070.412
1400.122, 18208.432
1401.315, 18125.920
1402.507, 18106.648
1403.700, 18157.842
1404.892, 18282.590
1406.084, 18195.738
1407.276, 18284.076
1408.467, 18306.439
1409.659, 18242.008
1410.850, 18379.236
1412.041, 18281.803
1413.232, 18424.400
1414.423, 18369.514
1415.614, 18329.217
1416.804, 18360.973
1417.994, 18417.066
1419.184, 18549.316
1420.374, 18453.676
1421.564, 18520.768
1422.753, 18477.848
1423.943, 18554.742
1425.132, 18585.002
1426.321, 18492.561
1427.510, 18659.426
1428.698, 18608.482
1429.887, 18689.908
1431.075, 18741.008
1432.263, 18676.303
1433.451, 18669.004
1434.639, 18651.352
1435.827, 18702.889
1437.014, 18776.309
1438.201, 18689.020
1439.388, 18816.533
1440.575, 18820.475
1441.762, 18875.900
1442.949, 18881.992
1444.135, 18903.430
1445.321, 18863.852
1446.507, 18886.092
1447.693, 18878.252
1448.879, 18846.363
1450.064, 18870.652
1451.250, 18937.924
1452.435, 18929.195
1453.620, 19099.496
1454.805, 19017.549
1455.989, 19095.098
1457.174, 19030.467
1458.358, 19131.297
1459.542, 19100.406
1460.726, 19171.975
1461.910, 19128.285
1463.093, 19205.070
1464.277, 19301.473
1465.460, 19321.977
1466.643, 19183.367
1467.826, 19291.688
1469.009, 19195.611
1470.191, 19302.785
1471.373, 19298.121
1472.556, 19374.729
1473.738, 19288.281
1474.919, 19322.328
1476.101, 19340.996
1477.283, 19360.342
1478.464, 19436.412
1479.645, 19547.986
1480.826, 19579.664
1482.007, 19587.246
1483.187, 19581.068
1484.368, 19548.123
1485.548, 19564.092
1486.728, 19563.953
1487.908, 19553.543
1489.088, 19644.102
1490.268, 19689.787
1491.447, 19609.162
1492.626, 19689.789
1493.805, 19638.467
1494.984, 19803.611
1496.163, 19672.711
1497.341, 19806.262
1498.520, 19908.295
1499.698, 19905.859
1500.876, 19945.906
1502.054, 19846.158
1503.232, 19795.084
1504.409, 19881.332
1505.586, 19914.365
1506.763, 20051.242
1507.940, 19962.730
1509.117, 19985.506
##END=



