##NAMES=Clinoptilolite-Na
##RRUFFID=R061099
##IDEAL CHEMISTRY=Na_6_(Si_30_Al_6_)O_72_&#183;20H_2_O
##LOCALITY=Richardson Ranch, Madras, Jefferson County, Oregon, USA
##OWNER=RRUFF
##SOURCE=Michael Scott
##DESCRIPTION=Red-brown to salmon, somewhat coffin shaped tabular crystals in a fragmented geode
##STATUS=The identification of this mineral has been confirmed by X-ray diffraction and chemical analysis
##URL=rruff.info/R061099
##MEASURED CHEMISTRY=(Na_2.70_Ca_1.46_K_0.89_Fe_0.08_Mg_0.02_)_Σ=5.15_(Si_29.29_Al_6.71_)O_72_·18.51H_2_O
##PIN_ID=M01647
##ORIENTATION=Laser parallel to c* (0 0 1). Fiducial mark perpendicular to laser is parallel to a [1 0 0]
128.6700, 16975.00
129.9090, 16903.00
131.1480, 16966.34
132.3880, 16967.43
133.6270, 17001.00
134.8650, 17102.00
136.1040, 17202.00
137.3420, 17318.00
138.5800, 17341.10
139.8180, 17441.00
141.0560, 17384.00
142.2940, 17354.00
143.5310, 17382.00
144.7680, 17297.79
146.0050, 17410.00
147.2420, 17171.00
148.4790, 17281.00
149.7150, 17220.00
150.9510, 16944.00
152.1870, 17130.00
153.4230, 17127.00
154.6590, 17210.00
155.8940, 16921.00
157.1300, 16962.00
158.3650, 16793.00
159.6000, 16824.00
160.8340, 16614.00
162.0690, 16465.00
163.3030, 16109.00
164.5370, 15823.00
165.7710, 15703.00
167.0050, 15449.00
168.2380, 15230.00
169.4720, 15010.00
170.7050, 14792.00
171.9380, 14481.00
173.1700, 14358.00
174.4030, 14170.00
175.6350, 13741.00
176.8680, 13739.00
178.1000, 13464.00
179.3310, 13461.00
180.5630, 13323.00
181.7940, 13265.00
183.0260, 13033.00
184.2570, 13058.00
185.4870, 12824.00
186.7180, 12843.00
187.9480, 12891.00
189.1790, 12871.00
190.4090, 12746.00
191.6390, 12779.00
192.8680, 12798.00
194.0980, 12652.00
195.3270, 12966.00
196.5560, 12884.00
197.7850, 12819.00
199.0140, 12873.00
200.2420, 12898.00
201.4710, 12899.00
202.6990, 12785.80
203.9270, 12705.00
205.1550, 12467.00
206.3820, 12163.00
207.6090, 11947.00
208.8370, 12048.00
210.0640, 11825.00
211.2900, 11765.00
212.5170, 11619.00
213.7440, 11621.00
214.9700, 11471.00
216.1960, 11412.00
217.4220, 11295.00
218.6470, 11164.00
219.8730, 11158.00
221.0980, 11099.00
222.3230, 11027.00
223.5480, 10947.00
224.7730, 10842.00
225.9970, 10793.92
227.2220, 10821.00
228.4460, 10725.00
229.6700, 10781.00
230.8940, 10848.00
232.1170, 10886.00
233.3400, 10828.00
234.5640, 10883.00
235.7870, 10861.00
237.0100, 10989.00
238.2320, 10895.00
239.4550, 11040.00
240.6770, 11059.00
241.8990, 11115.00
243.1210, 11165.00
244.3420, 11287.00
245.5640, 11455.00
246.7850, 11493.00
248.0060, 11504.00
249.2270, 11502.00
250.4480, 11617.00
251.6690, 11633.00
252.8890, 11541.00
254.1090, 11657.00
255.3290, 11557.00
256.5490, 11649.00
257.7680, 11607.00
258.9880, 11566.00
260.2070, 11409.00
261.4260, 11569.00
262.6450, 11511.00
263.8640, 11355.00
265.0820, 11467.00
266.3000, 11482.00
267.5180, 11552.00
268.7360, 11430.00
269.9540, 11560.00
271.1720, 11424.00
272.3890, 11574.00
273.6060, 11323.00
274.8230, 11347.00
276.0400, 11367.00
277.2560, 11268.00
278.4730, 11107.00
279.6890, 11357.00
280.9050, 11305.00
282.1210, 11342.00
283.3370, 11189.00
284.5520, 11290.00
285.7670, 11172.00
286.9820, 11121.00
288.1970, 11228.00
289.4120, 11122.00
290.6270, 11211.00
291.8410, 11186.00
293.0550, 11131.00
294.2690, 11146.00
295.4830, 11158.00
296.6970, 11177.00
297.9100, 11072.00
299.1230, 11122.00
300.3360, 11078.00
301.5490, 11194.00
302.7620, 11129.00
303.9740, 11241.00
305.1860, 11166.00
306.3990, 11038.00
307.6110, 11187.00
308.8220, 11157.00
310.0340, 11181.00
311.2450, 11095.00
312.4560, 11013.00
313.6670, 11181.00
314.8780, 11029.00
316.0890, 11149.00
317.2990, 11075.00
318.5090, 11118.00
319.7200, 11164.00
320.9290, 11174.00
322.1390, 11213.00
323.3490, 11219.00
324.5580, 11220.00
325.7670, 11248.00
326.9760, 11365.00
328.1850, 11249.00
329.3930, 11350.00
330.6020, 11281.00
331.8100, 11279.00
333.0180, 11404.00
334.2260, 11445.00
335.4340, 11341.00
336.6410, 11565.00
337.8480, 11398.00
339.0550, 11548.00
340.2620, 11498.00
341.4690, 11374.00
342.6760, 11453.00
343.8820, 11467.00
345.0880, 11449.00
346.2940, 11369.00
347.5000, 11514.00
348.7060, 11612.00
349.9110, 11475.00
351.1160, 11600.00
352.3210, 11647.00
353.5260, 11594.00
354.7310, 11561.00
355.9360, 11643.00
357.1400, 11899.00
358.3440, 11883.00
359.5480, 11927.00
360.7520, 11903.00
361.9550, 12101.00
363.1590, 12100.00
364.3620, 12285.00
365.5650, 12252.00
366.7680, 12564.00
367.9710, 12709.00
369.1730, 12587.00
370.3760, 12719.00
371.5780, 12990.00
372.7800, 13229.00
373.9810, 13254.00
375.1830, 13448.08
376.3840, 13384.00
377.5860, 13590.00
378.7870, 13762.00
379.9880, 13721.00
381.1880, 13880.00
382.3890, 14112.00
383.5890, 14313.00
384.7890, 14586.00
385.9890, 14834.00
387.1890, 15060.00
388.3880, 15160.00
389.5880, 15319.00
390.7870, 15787.00
391.9860, 16097.00
393.1850, 16643.00
394.3840, 16764.00
395.5820, 17239.00
396.7800, 17703.00
397.9790, 17989.00
399.1770, 18530.00
400.3740, 18708.00
401.5720, 19189.00
402.7690, 19437.00
403.9670, 19806.00
405.1640, 19838.00
406.3600, 19902.00
407.5570, 19884.00
408.7540, 19633.00
409.9500, 19396.00
411.1460, 19191.00
412.3420, 18702.00
413.5380, 18441.00
414.7330, 17928.00
415.9290, 17780.00
417.1240, 17287.00
418.3190, 16849.00
419.5140, 16508.00
420.7090, 16113.00
421.9030, 15753.00
423.0970, 15408.16
424.2920, 15074.00
425.4860, 14752.00
426.6790, 14443.00
427.8730, 14184.00
429.0660, 13903.00
430.2600, 13587.00
431.4530, 13354.00
432.6460, 13202.00
433.8380, 12975.00
435.0310, 12874.00
436.2230, 12660.00
437.4150, 12345.00
438.6070, 12220.00
439.7990, 12214.00
440.9910, 12067.00
442.1820, 12125.00
443.3730, 11998.00
444.5640, 11894.00
445.7550, 11840.00
446.9460, 11917.00
448.1370, 11887.00
449.3270, 11921.00
450.5170, 11836.00
451.7070, 11851.00
452.8970, 11867.00
454.0870, 11988.00
455.2760, 12146.00
456.4650, 12166.00
457.6550, 12130.00
458.8430, 12227.00
460.0320, 12439.00
461.2210, 12651.00
462.4090, 12847.00
463.5970, 12987.00
464.7850, 13160.00
465.9730, 13369.00
467.1610, 13454.00
468.3480, 13692.00
469.5360, 13767.00
470.7230, 13883.00
471.9100, 14114.00
473.0970, 14335.00
474.2830, 14562.00
475.4700, 14616.00
476.6560, 15123.00
477.8420, 15579.00
479.0280, 15800.00
480.2140, 16349.00
481.3990, 16995.00
482.5850, 17010.00
483.7700, 17488.00
484.9550, 17757.00
486.1400, 17516.00
487.3240, 17476.00
488.5090, 17005.00
489.6930, 16630.00
490.8770, 16300.00
492.0610, 15638.00
493.2450, 15117.00
494.4290, 14546.00
495.6120, 13910.00
496.7950, 13324.00
497.9780, 13084.00
499.1610, 12929.00
500.3440, 12518.00
501.5260, 12229.00
502.7090, 12125.00
503.8910, 11709.00
505.0730, 11777.00
506.2550, 11645.00
507.4360, 11441.00
508.6180, 11309.00
509.7990, 11271.00
510.9800, 11317.00
512.1610, 11213.00
513.3420, 11281.00
514.5230, 11223.00
515.7030, 11065.00
516.8830, 11139.00
518.0630, 10976.00
519.2430, 11255.00
520.4230, 10992.00
521.6020, 11002.00
522.7820, 11122.00
523.9610, 11040.00
525.1400, 10958.00
526.3190, 10918.00
527.4970, 10960.00
528.6760, 10885.00
529.8540, 11094.00
531.0320, 11010.00
532.2100, 11099.00
533.3880, 11076.00
534.5660, 11119.00
535.7430, 11003.00
536.9200, 11166.00
538.0970, 11047.00
539.2740, 10901.00
540.4510, 10992.00
541.6270, 10904.00
542.8040, 11049.00
543.9800, 11029.00
545.1560, 10922.00
546.3320, 10982.00
547.5080, 10974.00
548.6830, 10874.00
549.8580, 10914.82
551.0340, 10971.00
552.2090, 10949.00
553.3830, 10953.00
554.5580, 11086.00
555.7320, 10938.00
556.9070, 10982.00
558.0810, 11054.00
559.2550, 10979.00
560.4280, 10994.00
561.6020, 11034.00
562.7750, 11017.67
563.9490, 11068.00
565.1220, 11066.00
566.2950, 11103.00
567.4670, 11151.00
568.6400, 11083.00
569.8120, 11141.95
570.9840, 11260.00
572.1560, 11143.00
573.3280, 11052.00
574.5000, 10955.00
575.6710, 11159.00
576.8430, 11161.00
578.0140, 11067.00
579.1850, 10996.00
580.3560, 11236.00
581.5260, 11237.00
582.6970, 11267.00
583.8670, 11288.00
585.0370, 11279.00
586.2070, 11317.00
587.3770, 11395.00
588.5460, 11298.00
589.7160, 11376.00
590.8850, 11299.00
592.0540, 11435.00
593.2230, 11375.00
594.3920, 11479.00
595.5600, 11534.00
596.7290, 11473.00
597.8970, 11620.00
599.0650, 11642.00
600.2330, 11671.00
601.4000, 11798.00
602.5680, 11879.00
603.7350, 11857.00
604.9020, 11910.00
606.0690, 12098.00
607.2360, 12164.00
608.4030, 12170.00
609.5690, 12267.00
610.7360, 12238.00
611.9020, 12349.00
613.0680, 12423.00
614.2340, 12529.00
615.3990, 12607.00
616.5650, 12716.00
617.7300, 12698.00
618.8950, 12655.00
620.0600, 12548.00
621.2250, 12530.00
622.3890, 12464.75
623.5540, 12465.00
624.7180, 12363.00
625.8820, 12299.00
627.0460, 12236.00
628.2100, 12132.93
629.3730, 12054.00
630.5370, 11924.00
631.7000, 11949.00
632.8630, 11814.00
634.0260, 11854.00
635.1890, 11825.00
636.3510, 11530.00
637.5140, 11529.00
638.6760, 11497.00
639.8380, 11772.00
641.0000, 11611.00
642.1610, 11610.00
643.3230, 11287.00
644.4840, 11500.00
645.6450, 11412.00
646.8060, 11513.00
647.9670, 11500.00
649.1280, 11379.00
650.2880, 11465.00
651.4490, 11257.00
652.6090, 11392.00
653.7690, 11409.00
654.9290, 11489.00
656.0880, 11378.00
657.2480, 11363.00
658.4070, 11401.00
659.5660, 11401.00
660.7250, 11435.00
661.8840, 11261.00
663.0430, 11460.00
664.2010, 11362.00
665.3600, 11354.00
666.5180, 11443.00
667.6760, 11282.00
668.8330, 11280.00
669.9910, 11435.00
671.1480, 11461.00
672.3060, 11317.00
673.4630, 11337.00
674.6200, 11377.00
675.7770, 11304.00
676.9330, 11363.00
678.0900, 11376.00
679.2460, 11358.00
680.4020, 11431.00
681.5580, 11465.00
682.7140, 11465.26
683.8690, 11401.00
685.0250, 11490.00
686.1800, 11408.93
687.3350, 11437.00
688.4900, 11390.00
689.6450, 11465.00
690.7990, 11500.00
691.9540, 11318.00
693.1080, 11308.00
694.2620, 11571.00
695.4160, 11352.00
696.5700, 11565.00
697.7230, 11568.00
698.8770, 11622.00
700.0300, 11650.29
701.1830, 11423.00
702.3360, 11566.00
703.4890, 11565.00
704.6410, 11428.00
705.7930, 11585.00
706.9460, 11524.00
708.0980, 11473.00
709.2500, 11594.00
710.4010, 11550.00
711.5530, 11514.00
712.7040, 11430.00
713.8560, 11434.00
715.0070, 11704.00
716.1580, 11548.00
717.3080, 11651.00
718.4590, 11681.00
719.6090, 11545.00
720.7590, 11690.00
721.9090, 11728.00
723.0590, 11607.00
724.2090, 11606.00
725.3590, 11745.00
726.5080, 11780.00
727.6570, 11792.00
728.8060, 11827.00
729.9550, 11731.00
731.1040, 11666.00
732.2530, 11631.00
733.4010, 11678.00
734.5490, 11715.00
735.6970, 11727.00
736.8450, 11884.00
737.9930, 11654.00
739.1400, 11769.00
740.2880, 11884.00
741.4350, 11703.00
742.5820, 11865.00
743.7290, 11821.00
744.8760, 12000.00
746.0220, 11829.00
747.1690, 11903.00
748.3150, 11875.00
749.4610, 11841.00
750.6070, 12069.00
751.7530, 11810.00
752.8980, 12007.00
754.0440, 11905.00
755.1890, 12069.00
756.3340, 11989.00
757.4790, 12206.00
758.6240, 11897.00
759.7680, 12073.00
760.9130, 12253.00
762.0570, 12166.00
763.2010, 12258.00
764.3450, 12219.00
765.4890, 12268.00
766.6320, 12305.00
767.7760, 12434.00
768.9190, 12383.00
770.0620, 12261.00
771.2050, 12433.00
772.3480, 12414.00
773.4900, 12476.00
774.6330, 12546.00
775.7750, 12524.00
776.9170, 12647.00
778.0590, 12748.00
779.2010, 12705.00
780.3420, 12767.00
781.4840, 12750.00
782.6250, 12872.00
783.7660, 12919.00
784.9070, 12942.00
786.0480, 12926.00
787.1890, 12922.00
788.3290, 13012.00
789.4690, 13151.00
790.6100, 12923.00
791.7490, 13176.00
792.8890, 13074.00
794.0290, 13074.00
795.1680, 13090.00
796.3080, 13154.00
797.4470, 13244.00
798.5860, 13112.00
799.7250, 13157.46
800.8630, 13093.00
802.0020, 13109.00
803.1400, 13038.00
804.2780, 13051.00
805.4160, 12861.00
806.5540, 12813.00
807.6920, 12913.00
808.8300, 12703.00
809.9670, 12877.00
811.1040, 12801.00
812.2410, 12559.00
813.3780, 12622.00
814.5150, 12600.00
815.6510, 12723.00
816.7880, 12678.00
817.9240, 12655.00
819.0600, 12641.00
820.1960, 12617.00
821.3320, 12655.00
822.4670, 12564.00
823.6030, 12620.00
824.7380, 12519.00
825.8730, 12701.00
827.0080, 12489.00
828.1430, 12614.00
829.2770, 12593.00
830.4120, 12694.00
831.5460, 12653.52
832.6800, 12403.00
833.8140, 12549.00
834.9480, 12468.00
836.0810, 12388.00
837.2150, 12480.00
838.3480, 12490.00
839.4810, 12510.00
840.6140, 12379.00
841.7470, 12365.00
842.8800, 12416.00
844.0120, 12319.00
845.1450, 12333.00
846.2770, 12556.00
847.4090, 12619.00
848.5410, 12498.00
849.6720, 12527.00
850.8040, 12565.00
851.9350, 12531.00
853.0660, 12590.00
854.1970, 12485.00
855.3280, 12424.00
856.4590, 12480.00
857.5900, 12448.00
858.7200, 12526.00
859.8500, 12590.00
860.9800, 12623.00
862.1100, 12639.00
863.2400, 12486.00
864.3700, 12640.00
865.4990, 12528.00
866.6280, 12696.00
867.7570, 12588.00
868.8860, 12718.00
870.0150, 12750.00
871.1440, 12588.00
872.2720, 12557.00
873.4010, 12622.00
874.5290, 12618.00
875.6570, 12646.00
876.7850, 12672.74
877.9120, 12670.99
879.0400, 12714.00
880.1670, 12703.00
881.2940, 12726.00
882.4210, 12792.00
883.5480, 12674.00
884.6750, 12783.00
885.8020, 12811.00
886.9280, 12738.00
888.0540, 12762.00
889.1800, 12754.00
890.3060, 12669.00
891.4320, 12883.00
892.5580, 12896.00
893.6830, 12675.00
894.8080, 12817.00
895.9330, 12879.00
897.0580, 13010.00
898.1830, 12786.00
899.3080, 12816.00
900.4320, 12929.00
901.5570, 12846.00
902.6810, 12864.00
903.8050, 13026.00
904.9290, 13074.00
906.0520, 12923.00
907.1760, 12988.00
908.2990, 12766.00
909.4230, 13001.00
910.5460, 12930.00
911.6690, 12953.00
912.7910, 13021.00
913.9140, 12905.00
915.0360, 12938.00
916.1590, 12971.00
917.2810, 12983.00
918.4030, 13010.00
919.5240, 13012.00
920.6460, 13063.00
921.7680, 13127.00
922.8890, 13013.00
924.0100, 12984.00
925.1310, 13106.00
926.2520, 13031.00
927.3730, 12973.00
928.4930, 13123.00
929.6130, 13118.00
930.7340, 13089.00
931.8540, 13197.00
932.9740, 13090.00
934.0930, 13075.00
935.2130, 13293.00
936.3320, 13123.00
937.4520, 13115.00
938.5710, 13272.00
939.6900, 13167.00
940.8090, 13271.00
941.9270, 13196.00
943.0460, 13146.00
944.1640, 13194.00
945.2820, 13382.00
946.4000, 13297.00
947.5180, 13380.00
948.6360, 13347.00
949.7530, 13337.00
950.8710, 13475.00
951.9880, 13396.00
953.1050, 13332.00
954.2220, 13588.00
955.3390, 13570.00
956.4550, 13414.00
957.5720, 13471.00
958.6880, 13608.00
959.8040, 13657.00
960.9200, 13673.00
962.0360, 13549.00
963.1520, 13600.00
964.2670, 13487.00
965.3820, 13767.00
966.4980, 13775.00
967.6130, 13687.00
968.7280, 13815.00
969.8420, 13654.00
970.9570, 13785.00
972.0710, 13901.00
973.1850, 13872.00
974.3000, 13674.00
975.4140, 13837.00
976.5270, 13648.00
977.6410, 13706.00
978.7540, 13831.00
979.8680, 13967.00
980.9810, 14016.00
982.0940, 13973.00
983.2070, 13965.00
984.3200, 13985.98
985.4320, 13903.00
986.5440, 14033.00
987.6570, 13967.00
988.7690, 14036.00
989.8810, 14076.00
990.9920, 14124.00
992.1040, 14010.00
993.2160, 14012.00
994.3270, 14140.00
995.4380, 13962.00
996.5490, 14198.00
997.6600, 14082.00
998.7710, 14217.00
999.8810, 14236.00
1000.991, 14184.00
1002.102, 14129.00
1003.212, 14333.00
1004.322, 14294.00
1005.431, 14254.00
1006.541, 14335.00
1007.651, 14232.00
1008.760, 14150.00
1009.869, 14321.00
1010.978, 14412.00
1012.087, 14302.00
1013.195, 14394.00
1014.304, 14385.00
1015.412, 14546.00
1016.521, 14308.00
1017.629, 14463.00
1018.737, 14452.00
1019.844, 14459.00
1020.952, 14522.00
1022.059, 14488.00
1023.167, 14730.00
1024.274, 14496.00
1025.381, 14673.00
1026.488, 14606.00
1027.594, 14563.00
1028.701, 14670.00
1029.807, 14685.00
1030.913, 14757.00
1032.019, 14671.00
1033.125, 14712.00
1034.231, 14730.00
1035.337, 14713.00
1036.442, 14764.00
1037.548, 14602.00
1038.653, 14897.00
1039.758, 14772.00
1040.863, 14788.00
1041.967, 14642.00
1043.072, 14652.24
1044.176, 14763.00
1045.280, 14666.00
1046.384, 14721.00
1047.488, 14777.00
1048.592, 14819.00
1049.696, 14835.70
1050.799, 14874.00
1051.903, 14859.00
1053.006, 14864.11
1054.109, 14896.00
1055.212, 14913.00
1056.314, 14872.00
1057.417, 14932.00
1058.519, 14866.00
1059.621, 14904.00
1060.724, 14990.00
1061.826, 14924.00
1062.927, 14955.00
1064.029, 14914.00
1065.130, 14884.00
1066.232, 15000.00
1067.333, 15017.00
1068.434, 14914.00
1069.535, 15019.00
1070.636, 14959.00
1071.736, 15037.00
1072.837, 14927.00
1073.937, 15057.00
1075.037, 15066.00
1076.137, 15078.00
1077.237, 15151.00
1078.337, 15211.00
1079.436, 15120.00
1080.535, 15295.00
1081.635, 15149.00
1082.734, 15150.00
1083.833, 14929.00
1084.931, 15391.00
1086.030, 15302.00
1087.128, 15288.00
1088.227, 15466.00
1089.325, 15264.00
1090.423, 15437.00
1091.521, 15426.00
1092.618, 15382.00
1093.716, 15536.00
1094.813, 15463.00
1095.911, 15596.00
1097.008, 15640.00
1098.105, 15542.00
1099.202, 15587.00
1100.298, 15533.00
1101.395, 15642.00
1102.491, 15579.00
1103.587, 15716.00
1104.683, 15909.00
1105.779, 15874.00
1106.875, 15826.00
1107.971, 15908.00
1109.066, 15874.00
1110.161, 15999.00
1111.256, 15983.00
1112.351, 16075.00
1113.446, 16107.00
1114.541, 16296.00
1115.636, 16058.00
1116.730, 15982.00
1117.824, 16156.00
1118.918, 16327.00
1120.012, 16233.00
1121.106, 16286.00
1122.200, 16256.00
1123.293, 16301.00
1124.387, 16230.00
1125.480, 16376.00
1126.573, 16202.00
1127.666, 16371.00
1128.759, 16412.00
1129.851, 16493.00
1130.944, 16433.00
1132.036, 16440.45
1133.128, 16422.00
1134.220, 16403.00
1135.312, 16334.00
1136.404, 16407.00
1137.495, 16469.00
1138.587, 16407.00
1139.678, 16578.00
1140.769, 16461.00
1141.860, 16570.00
1142.951, 16607.00
1144.041, 16653.00
1145.132, 16678.00
1146.222, 16659.00
1147.313, 16539.00
1148.403, 16535.00
1149.493, 16738.00
1150.582, 16630.00
1151.672, 16825.00
1152.761, 16694.00
1153.851, 16834.00
1154.940, 16543.00
1156.029, 16663.00
1157.118, 16619.00
1158.207, 16699.00
1159.295, 16704.79
1160.384, 16626.00
1161.472, 16703.00
1162.560, 16729.00
1163.648, 16712.00
1164.736, 16739.61
1165.824, 16733.00
1166.911, 16727.00
1167.999, 16657.00
1169.086, 16640.00
1170.173, 16634.97
1171.260, 16585.00
1172.347, 16652.00
1173.434, 16609.00
1174.520, 16643.88
1175.606, 16583.00
1176.693, 16601.00
1177.779, 16488.00
1178.865, 16388.00
1179.951, 16473.00
1181.036, 16528.00
1182.122, 16459.00
1183.207, 16539.00
1184.292, 16427.00
1185.377, 16410.00
1186.462, 16441.00
1187.547, 16329.00
1188.632, 16477.00
1189.716, 16273.00
1190.800, 16399.00
1191.885, 16448.00
1192.969, 16294.00
1194.052, 16241.00
1195.136, 16274.00
1196.220, 16378.00
1197.303, 16173.00
1198.387, 16094.00
1199.470, 16167.00
1200.553, 16300.00
1201.636, 16345.00
1202.718, 16084.00
1203.801, 16325.00
1204.883, 16131.00
1205.966, 16136.00
1207.048, 16129.00
1208.130, 16046.00
1209.211, 15990.00
1210.293, 16118.00
1211.375, 16069.00
1212.456, 16187.00
1213.537, 16155.00
1214.618, 16192.00
1215.699, 15893.00
1216.780, 16070.00
1217.861, 15966.00
1218.941, 16020.00
1220.022, 16077.00
1221.102, 15930.00
1222.182, 16246.00
1223.262, 16109.00
1224.342, 16037.00
1225.422, 15971.00
1226.501, 15926.00
1227.580, 15922.79
1228.660, 15944.00
1229.739, 15970.00
1230.818, 15987.72
1231.896, 15997.01
1232.975, 16061.00
1234.054, 16028.00
1235.132, 16100.00
1236.210, 16163.00
1237.288, 16241.00
1238.366, 16264.54
1239.444, 16124.00
1240.521, 16263.00
1241.599, 16135.00
1242.676, 16028.00
1243.753, 16092.00
1244.830, 16147.00
1245.907, 16147.00
1246.984, 16184.00
1248.061, 16182.00
1249.137, 16213.00
1250.214, 16283.00
1251.290, 16291.87
1252.366, 16321.86
1253.442, 16360.00
1254.517, 16318.00
1255.593, 16356.83
1256.668, 16283.00
1257.744, 16383.00
1258.819, 16344.00
1259.894, 16418.00
1260.969, 16343.00
1262.044, 16379.00
1263.118, 16347.00
1264.193, 16374.00
1265.267, 16284.00
1266.341, 16322.19
1267.415, 16358.00
1268.489, 16366.00
1269.563, 16450.00
1270.636, 16503.00
1271.710, 16531.00
1272.783, 16504.00
1273.856, 16481.00
1274.929, 16495.00
1276.002, 16451.00
1277.075, 16556.00
1278.147, 16606.00
1279.220, 16625.00
1280.292, 16603.00
1281.364, 16432.00
1282.436, 16500.00
1283.508, 16551.00
1284.580, 16478.00
1285.652, 16595.00
1286.723, 16596.00
1287.794, 16548.00
1288.865, 16493.00
1289.936, 16497.00
1291.007, 16466.00
1292.078, 16451.00
1293.149, 16563.00
1294.219, 16500.00
1295.289, 16640.00
1296.360, 16615.00
1297.430, 16497.00
1298.499, 16785.00
1299.569, 16869.00
1300.639, 16756.00
1301.708, 16685.00
1302.778, 16662.00
1303.847, 16942.00
1304.916, 16696.00
1305.985, 16905.00
1307.053, 16693.00
1308.122, 16823.00
1309.190, 16883.00
1310.259, 16801.00
1311.327, 16744.00
1312.395, 16825.71
1313.463, 16801.00
1314.531, 16980.00
1315.598, 17045.00
1316.666, 17177.00
1317.733, 17021.00
1318.800, 16956.00
1319.867, 16947.00
1320.934, 17026.00
1322.001, 16943.00
1323.067, 17144.00
1324.134, 16921.00
1325.200, 17158.00
1326.266, 17044.00
1327.333, 16984.00
1328.398, 16834.00
1329.464, 16820.00
1330.530, 16801.81
1331.595, 16750.14
1332.661, 16868.00
1333.726, 16778.00
1334.791, 16863.00
1335.856, 16999.00
1336.921, 16839.00
1337.985, 16984.00
1339.050, 16772.00
1340.114, 17045.00
1341.178, 17034.00
1342.242, 16912.00
1343.306, 16875.00
1344.370, 16927.43
1345.434, 16957.00
1346.497, 17069.00
1347.561, 17143.00
1348.624, 17222.00
1349.687, 17243.06
1350.750, 17221.00
1351.813, 17239.00
1352.876, 17277.00
1353.938, 17254.00
1355.000, 17252.00
1356.063, 17293.00
1357.125, 17100.00
1358.187, 17311.00
1359.249, 17287.00
1360.310, 17198.00
1361.372, 17304.00
1362.433, 17341.00
1363.495, 17354.00
1364.556, 17338.00
1365.617, 17201.00
1366.678, 17316.00
1367.738, 17363.00
1368.799, 17388.00
1369.859, 17528.00
1370.920, 17294.00
1371.980, 17549.00
1373.040, 17505.00
1374.100, 17296.00
1375.159, 17433.00
1376.219, 17609.00
1377.278, 17426.00
1378.338, 17537.00
1379.397, 17603.00
1380.456, 17517.00
1381.515, 17587.00
1382.574, 17597.00
1383.632, 17602.00
1384.691, 17569.00
1385.749, 17567.00
1386.807, 17525.00
1387.865, 17733.00
1388.923, 17467.00
1389.981, 17613.00
1391.039, 17871.00
1392.096, 17737.00
1393.154, 17623.00
1394.211, 17576.00
1395.268, 17744.00
1396.325, 17665.00
1397.382, 17591.00
1398.439, 17801.00
1399.495, 17764.00
1400.552, 17737.00
1401.608, 17825.00
1402.664, 17658.00
1403.720, 17654.00
1404.776, 17678.00
1405.832, 17862.00
1406.887, 17744.00
1407.943, 17844.00
1408.998, 17906.00
1410.053, 17684.00
1411.108, 17805.00
1412.163, 17863.00
1413.218, 17886.00
1414.272, 17896.00
1415.327, 17892.89
1416.381, 17923.00
1417.435, 17892.00
1418.489, 17941.78
1419.543, 17789.00
1420.597, 17965.00
1421.651, 17995.00
1422.704, 17881.00
1423.758, 17973.00
1424.811, 18027.00
1425.864, 18012.00
1426.917, 17991.00
1427.970, 18011.00
1429.023, 18069.00
1430.075, 18220.00
1431.128, 18058.00
1432.180, 18251.00
1433.232, 18090.00
1434.284, 17945.00
1435.336, 18092.00
1436.388, 18322.00
1437.439, 18171.00
1438.491, 18259.00
1439.542, 18250.00
1440.593, 18199.00
1441.644, 18178.00
1442.695, 18333.00
1443.746, 18431.00
1444.797, 18449.00
1445.847, 18535.00
1446.898, 18574.95
1447.948, 18525.00
1448.998, 18625.00
1450.048, 18505.00
1451.098, 18447.00
1452.147, 18422.00
1453.197, 18669.00
1454.246, 18530.00
1455.296, 18442.00
1456.345, 18476.15
1457.394, 18595.23
1458.443, 18666.34
1459.491, 18689.75
1460.540, 18650.67
1461.588, 18594.51
1462.637, 18485.33
1463.685, 18333.14
1464.733, 18624.00
1465.781, 18580.00
1466.829, 18491.00
1467.876, 18525.00
1468.924, 18622.00
1469.971, 18557.00
1471.019, 18439.00
1472.066, 18602.00
1473.113, 18442.00
1474.160, 18606.00
1475.206, 18599.00
1476.253, 18643.00
1477.299, 18770.00
1478.346, 18456.00
1479.392, 18528.00
1480.438, 18669.00
1481.484, 18608.20
1482.529, 18847.00
1483.575, 18730.00
1484.620, 18834.00
1485.666, 18830.00
1486.711, 18882.00
1487.756, 18840.00
1488.801, 18846.41
1489.846, 18687.00
1490.891, 18790.00
1491.935, 18760.00
1492.980, 18676.00
1494.024, 18860.00
1495.068, 18790.00
1496.112, 18878.00
1497.156, 18777.00
1498.200, 18844.00
1499.243, 18863.00
1500.287, 19016.00
1501.330, 18993.98
1502.373, 18899.00
1503.416, 19026.00
1504.459, 19037.00
1505.502, 19094.57
1506.545, 18824.00
1507.587, 19019.00
1508.630, 18953.00
1509.672, 18664.00
1510.714, 18954.00
1511.756, 19089.00
1512.798, 18887.00
1513.840, 18928.00
1514.881, 19008.00
1515.923, 18886.00
1516.964, 18977.00
1518.005, 19140.00
1519.046, 19121.00
1520.087, 19152.00
1521.128, 19063.00
1522.169, 19115.00
1523.209, 19099.00
1524.249, 19069.00
1525.290, 19134.00
1526.330, 19003.00
1527.370, 19035.00
1528.410, 19222.00
1529.449, 19059.00
1530.489, 19383.00
1531.528, 19361.00
1532.568, 19395.00
1533.607, 19310.00
1534.646, 19324.70
1535.685, 19348.00
1536.724, 19291.00
1537.762, 19300.00
1538.801, 19269.00
1539.839, 19530.00
1540.878, 19484.00
1541.916, 19390.00
1542.954, 19273.00
1543.992, 19508.00
1545.029, 19406.00
1546.067, 19501.00
1547.104, 19292.00
1548.142, 19524.00
1549.179, 19539.00
1550.216, 19410.00
1551.253, 19439.00
1552.290, 19422.00
1553.326, 19637.00
1554.363, 19501.00
1555.399, 19591.00
1556.436, 19587.00
1557.472, 19556.00
1558.508, 19537.00
1559.544, 19590.00
1560.579, 19511.00
1561.615, 19487.00
1562.651, 19637.00
1563.686, 19581.00
1564.721, 19658.00
1565.756, 19571.00
1566.791, 19664.00
1567.826, 19604.00
1568.861, 19797.00
1569.895, 19717.00
1570.930, 19635.00
1571.964, 19739.00
1572.998, 19711.64
1574.032, 19712.00
1575.066, 19798.00
1576.100, 19778.00
1577.134, 19796.00
1578.167, 19822.00
1579.200, 19811.00
1580.234, 19864.00
##END=



