##NAMES=Clinochlore
##RRUFFID=R060725
##IDEAL CHEMISTRY=Mg_5_Al(AlSi_3_O_10_)(OH)_8_
##LOCALITY=Crestmore Quarry, Riverside, California, USA
##OWNER=RRUFF
##SOURCE=Bob Jenkins
##DESCRIPTION=Green transparent books of mica
##STATUS=The identification of this mineral has been confirmed by X-ray diffraction and chemical analysis
##URL=rruff.info/R060725
##MEASURED CHEMISTRY=(Mg_4.65_Al_1.12_Fe^2+^_0.17_[box]_0.06_)_Σ=6_(Si_3.00_Al_1.00_)_Σ=4_O_10_(OH)_8_
##PIN_ID=L01861
169.6170, 8042.000
170.8450, 7971.000
172.0730, 8012.000
173.3000, 8081.000
174.5280, 8062.000
175.7550, 8042.000
176.9820, 8077.000
178.2090, 7966.000
179.4350, 8081.000
180.6620, 8139.000
181.8880, 8106.000
183.1150, 8082.000
184.3410, 8147.000
185.5670, 8074.000
186.7920, 8033.000
188.0180, 8142.000
189.2430, 8205.000
190.4690, 8189.000
191.6940, 8249.000
192.9180, 8389.000
194.1430, 8329.000
195.3680, 8510.000
196.5920, 8691.000
197.8160, 8806.000
199.0400, 8910.000
200.2640, 9074.000
201.4880, 9287.000
202.7110, 9391.000
203.9350, 9648.000
205.1580, 9619.000
206.3810, 9731.000
207.6040, 9594.000
208.8270, 9454.000
210.0490, 9257.000
211.2710, 9114.000
212.4940, 8836.000
213.7160, 8904.000
214.9370, 8694.000
216.1590, 8527.000
217.3810, 8555.000
218.6020, 8608.000
219.8230, 8565.000
221.0440, 8672.000
222.2650, 8624.000
223.4860, 8586.000
224.7060, 8509.000
225.9260, 8622.000
227.1470, 8629.000
228.3670, 8588.000
229.5860, 8576.000
230.8060, 8569.000
232.0260, 8682.000
233.2450, 8514.000
234.4640, 8674.000
235.6830, 8643.000
236.9020, 8570.000
238.1200, 8582.000
239.3390, 8646.000
240.5570, 8739.000
241.7750, 8818.000
242.9930, 8622.000
244.2110, 8818.000
245.4290, 8724.000
246.6460, 8674.000
247.8630, 8751.000
249.0810, 8752.000
250.2980, 8805.000
251.5140, 8848.000
252.7310, 8879.000
253.9470, 8940.000
255.1640, 8905.000
256.3800, 8872.000
257.5960, 8848.000
258.8120, 8889.250
260.0270, 9076.000
261.2430, 9005.000
262.4580, 9087.000
263.6730, 9161.000
264.8880, 9156.000
266.1030, 9188.000
267.3170, 9267.000
268.5320, 9327.000
269.7460, 9397.683
270.9600, 9452.000
272.1740, 9553.000
273.3880, 9690.000
274.6010, 9770.000
275.8150, 9875.000
277.0280, 9931.319
278.2410, 10044.00
279.4540, 10002.00
280.6670, 10033.00
281.8790, 10032.00
283.0920, 9965.000
284.3040, 9743.000
285.5160, 9771.000
286.7280, 9579.000
287.9400, 9651.000
289.1510, 9518.000
290.3630, 9568.000
291.5740, 9550.000
292.7850, 9505.000
293.9960, 9443.000
295.2070, 9692.000
296.4170, 9503.000
297.6280, 9623.000
298.8380, 9466.000
300.0480, 9591.000
301.2580, 9664.000
302.4680, 9600.000
303.6770, 9593.000
304.8870, 9602.000
306.0960, 9621.000
307.3050, 9587.000
308.5140, 9643.000
309.7230, 9714.000
310.9310, 9660.000
312.1400, 9544.000
313.3480, 9690.000
314.5560, 9719.000
315.7640, 9839.000
316.9720, 9868.183
318.1790, 9899.000
319.3870, 9913.000
320.5940, 9924.000
321.8010, 9939.000
323.0080, 9971.420
324.2150, 10006.83
325.4210, 10052.00
326.6280, 10084.00
327.8340, 10144.00
329.0400, 10153.00
330.2460, 10239.00
331.4510, 10187.00
332.6570, 10225.00
333.8620, 10353.00
335.0680, 10218.00
336.2730, 10287.00
337.4780, 10462.00
338.6820, 10586.00
339.8870, 10562.00
341.0910, 10796.00
342.2950, 10883.00
343.5000, 11011.00
344.7030, 11230.00
345.9070, 11540.00
347.1110, 11815.00
348.3140, 12198.00
349.5170, 12542.00
350.7200, 12940.00
351.9230, 13188.00
353.1260, 13604.00
354.3290, 13915.00
355.5310, 14059.00
356.7330, 14161.00
357.9350, 13994.00
359.1370, 13744.00
360.3390, 13231.00
361.5400, 12825.00
362.7420, 12416.00
363.9430, 12208.00
365.1440, 11838.00
366.3450, 11568.00
367.5460, 11263.00
368.7460, 11152.00
369.9470, 11137.00
371.1470, 10927.00
372.3470, 10896.00
373.5470, 10889.00
374.7460, 10750.00
375.9460, 10619.00
377.1450, 10700.00
378.3450, 10669.00
379.5440, 10699.00
380.7430, 10620.00
381.9410, 10637.00
383.1400, 10712.00
384.3380, 10728.00
385.5370, 10750.00
386.7350, 10749.00
387.9320, 10827.00
389.1300, 10833.00
390.3280, 10972.00
391.5250, 10970.00
392.7220, 10919.00
393.9190, 10823.00
395.1160, 10846.00
396.3130, 10748.00
397.5100, 10699.00
398.7060, 10672.00
399.9020, 10762.00
401.0980, 10778.00
402.2940, 10688.00
403.4900, 10623.00
404.6860, 10747.00
405.8810, 10815.00
407.0760, 10737.00
408.2710, 10802.00
409.4660, 10850.00
410.6610, 10789.00
411.8550, 10965.00
413.0500, 11042.00
414.2440, 10901.00
415.4380, 11140.00
416.6320, 11093.00
417.8260, 11176.00
419.0190, 11332.00
420.2130, 11438.00
421.4060, 11480.00
422.5990, 11405.00
423.7920, 11519.00
424.9850, 11580.00
426.1770, 11855.00
427.3700, 11819.00
428.5620, 11808.00
429.7540, 11719.00
430.9460, 11617.00
432.1380, 11616.00
433.3290, 11776.00
434.5210, 11555.00
435.7120, 11693.00
436.9030, 11503.00
438.0940, 11536.00
439.2850, 11477.00
440.4750, 11332.00
441.6660, 11418.00
442.8560, 11518.00
444.0460, 11477.00
445.2360, 11204.00
446.4260, 11397.00
447.6160, 11372.00
448.8050, 11334.00
449.9940, 11407.00
451.1830, 11381.00
452.3720, 11270.00
453.5610, 11349.00
454.7500, 11274.00
455.9380, 11274.00
457.1260, 11351.00
458.3150, 11217.00
459.5020, 11282.00
460.6900, 11470.00
461.8780, 11417.00
463.0650, 11565.00
464.2530, 11518.00
465.4400, 11401.00
466.6270, 11377.00
467.8130, 11384.00
469.0000, 11376.00
470.1870, 11293.00
471.3730, 11364.00
472.5590, 11193.00
473.7450, 11360.00
474.9310, 11285.00
476.1160, 11237.00
477.3020, 11195.00
478.4870, 11445.00
479.6720, 11324.00
480.8570, 11288.00
482.0420, 11340.00
483.2270, 11201.00
484.4110, 11208.00
485.5960, 11222.70
486.7800, 11264.00
487.9640, 11281.00
489.1480, 11353.00
490.3310, 11406.00
491.5150, 11422.00
492.6980, 11421.00
493.8810, 11444.07
495.0640, 11562.00
496.2470, 11432.00
497.4300, 11470.00
498.6120, 11418.00
499.7950, 11597.00
500.9770, 11532.00
502.1590, 11553.00
503.3410, 11608.00
504.5220, 11835.00
505.7040, 11694.00
506.8850, 11871.00
508.0660, 11808.00
509.2470, 11947.00
510.4280, 11880.00
511.6090, 11953.00
512.7890, 11988.00
513.9700, 12197.00
515.1500, 12086.00
516.3300, 12284.00
517.5100, 12277.00
518.6900, 12364.00
519.8690, 12450.00
521.0490, 12364.00
522.2280, 12600.00
523.4070, 12544.00
524.5860, 12745.00
525.7640, 12842.00
526.9430, 12888.00
528.1210, 13022.02
529.3000, 13188.00
530.4780, 13189.00
531.6560, 13105.00
532.8330, 13167.00
534.0110, 13286.00
535.1880, 13176.00
536.3650, 13302.00
537.5430, 13569.00
538.7190, 13581.00
539.8960, 13864.00
541.0730, 14007.00
542.2490, 14435.00
543.4250, 14677.00
544.6020, 15197.00
545.7780, 15775.00
546.9530, 16026.00
548.1290, 16583.00
549.3040, 17404.00
550.4800, 17633.00
551.6550, 17798.00
552.8300, 17605.00
554.0040, 16958.00
555.1790, 16069.00
556.3540, 15225.00
557.5280, 14641.00
558.7020, 14051.00
559.8760, 13730.00
561.0500, 13542.00
562.2230, 13487.00
563.3970, 13134.00
564.5700, 12893.00
565.7430, 12913.00
566.9160, 12665.00
568.0890, 12513.00
569.2620, 12692.00
570.4340, 12582.00
571.6070, 12623.00
572.7790, 12469.00
573.9510, 12426.00
575.1230, 12359.00
576.2940, 12215.00
577.4660, 12221.00
578.6370, 12225.00
579.8080, 12159.00
580.9790, 12291.00
582.1500, 12252.00
583.3210, 12147.00
584.4910, 12242.00
585.6620, 12330.00
586.8320, 12287.00
588.0020, 12296.00
589.1720, 12162.00
590.3410, 12081.00
591.5110, 12049.00
592.6800, 12119.00
593.8500, 12162.00
595.0190, 12142.00
596.1880, 12227.00
597.3560, 12122.00
598.5250, 12333.00
599.6930, 12078.00
600.8620, 12148.00
602.0300, 12240.00
603.1970, 12240.00
604.3650, 12248.00
605.5330, 12242.00
606.7000, 12348.00
607.8680, 12309.00
609.0350, 12420.00
610.2020, 12304.00
611.3680, 12354.00
612.5350, 12467.00
613.7010, 12393.00
614.8680, 12343.00
616.0340, 12349.00
617.2000, 12469.00
618.3660, 12416.00
619.5310, 12481.00
620.6970, 12444.00
621.8620, 12528.00
623.0270, 12543.00
624.1920, 12736.00
625.3570, 12481.00
626.5220, 12687.00
627.6860, 12635.00
628.8500, 12588.00
630.0140, 12607.00
631.1780, 12616.00
632.3420, 12696.00
633.5060, 12669.00
634.6700, 12630.00
635.8330, 12611.00
636.9960, 12701.00
638.1590, 12548.00
639.3220, 12784.00
640.4850, 12843.00
641.6470, 12729.00
642.8100, 12884.00
643.9720, 12873.00
645.1340, 13044.00
646.2960, 13069.00
647.4570, 12912.00
648.6190, 13119.00
649.7800, 13184.00
650.9420, 13212.00
652.1030, 13506.00
653.2640, 13417.00
654.4240, 13655.00
655.5850, 13818.00
656.7450, 13863.00
657.9060, 14054.00
659.0660, 14177.00
660.2260, 14369.00
661.3850, 14483.00
662.5450, 14741.00
663.7040, 14866.00
664.8640, 15163.00
666.0230, 15356.00
667.1820, 15541.00
668.3410, 15807.00
669.4990, 16203.00
670.6580, 16358.00
671.8160, 16692.00
672.9740, 17068.00
674.1320, 17253.00
675.2900, 17383.00
676.4480, 17712.00
677.6050, 17847.00
678.7630, 17998.00
679.9200, 18119.00
681.0770, 18184.00
682.2340, 18137.00
683.3900, 18149.00
684.5470, 18071.00
685.7030, 17886.00
686.8590, 17571.00
688.0150, 17424.00
689.1710, 17017.00
690.3270, 16900.00
691.4830, 16765.00
692.6380, 16422.00
693.7930, 16152.00
694.9480, 16217.00
696.1030, 15924.00
697.2580, 15709.00
698.4130, 15539.00
699.5670, 15393.00
700.7210, 15228.36
701.8750, 15103.00
703.0290, 14960.74
704.1830, 14870.74
705.3370, 14768.00
706.4900, 14743.00
707.6430, 14687.00
708.7970, 14651.06
709.9490, 14525.14
711.1020, 14497.00
712.2550, 14277.00
713.4070, 14149.00
714.5600, 14084.00
715.7120, 13988.00
716.8640, 13925.16
718.0160, 13944.00
719.1670, 13847.00
720.3190, 13808.12
721.4700, 13830.00
722.6210, 13714.00
723.7720, 13701.00
724.9230, 13788.00
726.0740, 13820.00
727.2250, 13787.86
728.3750, 13695.00
729.5250, 13697.00
730.6750, 13667.00
731.8250, 13574.00
732.9750, 13668.00
734.1240, 13628.00
735.2740, 13534.00
736.4230, 13615.00
737.5720, 13496.00
738.7210, 13591.00
739.8700, 13489.00
741.0190, 13578.00
742.1670, 13659.00
743.3150, 13744.00
744.4630, 13560.00
745.6110, 13643.00
746.7590, 13578.00
747.9070, 13556.00
749.0540, 13567.00
750.2020, 13547.00
751.3490, 13600.00
752.4960, 13584.67
753.6430, 13610.00
754.7890, 13592.00
755.9360, 13617.00
757.0820, 13630.00
758.2280, 13666.00
759.3740, 13633.00
760.5200, 13663.81
761.6660, 13757.00
762.8120, 13671.00
763.9570, 13667.00
765.1020, 13632.00
766.2470, 13532.00
767.3920, 13591.76
768.5370, 13784.00
769.6810, 13635.00
770.8260, 13718.00
771.9700, 13676.00
773.1140, 13770.00
774.2580, 13828.00
775.4020, 13745.00
776.5460, 13545.00
777.6890, 13555.00
778.8320, 13587.00
779.9750, 13739.00
781.1180, 13734.00
782.2610, 13744.00
783.4040, 13725.00
784.5460, 13671.00
785.6890, 13702.30
786.8310, 13897.00
787.9730, 13709.00
789.1150, 13745.00
790.2560, 13700.00
791.3980, 13609.00
792.5390, 13765.00
793.6810, 13784.00
794.8220, 13784.00
795.9630, 13756.00
797.1030, 13798.00
798.2440, 13791.00
799.3840, 13770.00
800.5240, 13821.00
801.6650, 13904.00
802.8040, 13798.00
803.9440, 13955.00
805.0840, 13810.00
806.2230, 14091.00
807.3630, 13974.00
808.5020, 13899.00
809.6410, 14017.00
810.7790, 13866.00
811.9180, 13936.00
813.0570, 13869.00
814.1950, 13939.00
815.3330, 13935.00
816.4710, 13816.00
817.6090, 13899.00
818.7470, 14001.00
819.8840, 13822.00
821.0220, 14002.00
822.1590, 13914.00
823.2960, 13886.00
824.4330, 13955.00
825.5690, 13887.59
826.7060, 14086.00
827.8420, 13897.00
828.9790, 13969.00
830.1150, 14072.00
831.2510, 14047.00
832.3860, 14075.23
833.5220, 14044.00
834.6570, 14042.00
835.7930, 13959.00
836.9280, 13944.00
838.0630, 14062.00
839.1980, 13969.00
840.3320, 13970.00
841.4670, 14098.00
842.6010, 13948.00
843.7350, 14161.00
844.8690, 14051.00
846.0030, 14136.00
847.1370, 14039.00
848.2700, 14126.00
849.4040, 14141.00
850.5370, 14165.00
851.6700, 14231.24
852.8030, 14246.31
853.9360, 14346.00
855.0680, 14313.00
856.2000, 14386.00
857.3330, 14426.00
858.4650, 14268.00
859.5970, 14269.00
860.7290, 14208.00
861.8600, 14193.20
862.9920, 14240.00
864.1230, 14234.00
865.2540, 14295.00
866.3850, 14350.00
867.5160, 14329.00
868.6460, 14279.00
869.7770, 14388.00
870.9070, 14367.00
872.0370, 14406.00
873.1670, 14243.00
874.2970, 14249.00
875.4270, 14319.00
876.5570, 14322.00
877.6860, 14321.00
878.8150, 14324.00
879.9440, 14456.00
881.0730, 14350.00
882.2020, 14161.00
883.3300, 14339.00
884.4590, 14208.00
885.5870, 14249.00
886.7150, 14486.00
887.8430, 14334.00
888.9710, 14421.00
890.0990, 14381.00
891.2260, 14476.00
892.3530, 14453.00
893.4810, 14457.00
894.6080, 14442.00
895.7340, 14467.00
896.8610, 14518.00
897.9880, 14454.00
899.1140, 14425.00
900.2400, 14448.00
901.3660, 14562.00
902.4920, 14592.00
903.6180, 14628.00
904.7430, 14657.71
905.8690, 14677.00
906.9940, 14668.00
908.1190, 14643.00
909.2440, 14651.00
910.3690, 14737.00
911.4930, 14609.00
912.6180, 14729.00
913.7420, 14678.00
914.8660, 14775.00
915.9900, 14685.00
917.1140, 14796.00
918.2380, 14742.00
919.3610, 14694.00
920.4850, 14715.00
921.6080, 14853.00
922.7310, 14856.00
923.8540, 14790.00
924.9760, 14777.00
926.0990, 14684.00
927.2210, 14778.00
928.3440, 14773.39
929.4660, 14918.00
930.5880, 14855.00
931.7090, 14866.00
932.8310, 14868.00
933.9520, 15019.00
935.0740, 14855.00
936.1950, 14804.00
937.3160, 14953.00
938.4360, 14906.00
939.5570, 15129.00
940.6780, 14889.00
941.7980, 15110.00
942.9180, 15013.00
944.0380, 15034.00
945.1580, 15141.00
946.2780, 15073.00
947.3970, 14982.00
948.5170, 15060.00
949.6360, 15261.00
950.7550, 15008.00
951.8740, 15259.00
952.9930, 15098.00
954.1110, 15168.00
955.2300, 15239.00
956.3480, 15279.00
957.4660, 15146.00
958.5840, 15174.00
959.7020, 15170.00
960.8190, 15288.00
961.9370, 15249.00
963.0540, 15274.00
964.1710, 15257.00
965.2880, 15272.76
966.4050, 15368.00
967.5220, 15241.00
968.6380, 15323.00
969.7550, 15157.00
970.8710, 15246.00
971.9870, 15189.00
973.1030, 15183.00
974.2190, 15178.00
975.3340, 15248.23
976.4500, 15253.95
977.5650, 15290.22
978.6800, 15351.00
979.7950, 15346.00
980.9100, 15448.00
982.0250, 15459.00
983.1390, 15386.00
984.2530, 15486.00
985.3680, 15405.00
986.4820, 15501.00
987.5950, 15649.00
988.7090, 15391.00
989.8230, 15472.00
990.9360, 15313.00
992.0490, 15590.00
993.1620, 15494.00
994.2750, 15377.00
995.3880, 15585.00
996.5010, 15475.00
997.6130, 15586.00
998.7250, 15618.00
999.8370, 15516.00
1000.949, 15697.00
1002.061, 15590.00
1003.173, 15682.00
1004.284, 15611.00
1005.396, 15644.73
1006.507, 15667.00
1007.618, 15684.00
1008.729, 15585.00
1009.839, 15539.00
1010.950, 15637.00
1012.060, 15725.00
1013.171, 15674.00
1014.281, 15550.00
1015.391, 15525.00
1016.500, 15654.00
1017.610, 15432.00
1018.719, 15687.00
1019.829, 15812.00
1020.938, 15550.00
1022.047, 15466.00
1023.156, 15666.00
1024.264, 15722.00
1025.373, 15658.00
1026.481, 15659.00
1027.589, 15492.00
1028.697, 15720.00
1029.805, 15674.00
1030.913, 15676.00
1032.020, 15836.00
1033.128, 15766.00
1034.235, 15840.00
1035.342, 15914.00
1036.449, 15822.00
1037.556, 16031.00
1038.663, 16015.00
1039.769, 16004.00
1040.875, 16143.00
1041.981, 16000.00
1043.087, 16045.00
1044.193, 16151.00
1045.299, 16124.00
1046.404, 16263.00
1047.510, 16220.00
1048.615, 16149.00
1049.720, 16172.00
1050.825, 16133.00
1051.930, 16116.00
1053.034, 16342.00
1054.139, 16349.00
1055.243, 16375.00
1056.347, 16218.00
1057.451, 16404.00
1058.555, 16303.00
1059.658, 16186.00
1060.762, 16210.00
1061.865, 16153.40
1062.968, 16183.09
1064.071, 16170.00
1065.174, 16264.00
1066.277, 16325.00
1067.380, 16336.00
1068.482, 16217.00
1069.584, 16270.00
1070.686, 16487.00
1071.788, 16359.00
1072.890, 16460.00
1073.992, 16475.00
1075.093, 16476.00
1076.194, 16554.00
1077.295, 16682.00
1078.396, 16574.00
1079.497, 16763.00
1080.598, 16850.00
1081.698, 16849.00
1082.799, 17056.00
1083.899, 17135.00
1084.999, 16963.00
1086.099, 17147.00
1087.199, 17051.00
1088.298, 16937.00
1089.398, 16818.00
1090.497, 16770.00
1091.596, 16579.00
1092.695, 16702.00
1093.794, 16668.00
1094.892, 16549.00
1095.991, 16542.00
1097.089, 16333.00
1098.187, 16467.00
1099.285, 16587.00
1100.383, 16232.00
1101.481, 16227.00
1102.579, 16219.00
1103.676, 16159.00
1104.773, 16138.20
1105.870, 16236.00
1106.967, 16105.00
1108.064, 16181.00
1109.161, 16286.00
1110.257, 16292.00
1111.353, 16292.00
1112.449, 16432.00
1113.545, 16288.00
1114.641, 16289.00
1115.737, 16374.00
1116.832, 16224.00
1117.928, 16321.00
1119.023, 16391.00
1120.118, 16370.00
1121.213, 16417.71
1122.308, 16316.00
1123.402, 16404.00
1124.497, 16220.24
1125.591, 16419.81
1126.685, 16536.92
1127.779, 16576.02
1128.873, 16303.42
1129.967, 16433.31
1131.060, 16401.88
1132.153, 16363.85
1133.247, 16550.39
1134.340, 16323.11
1135.433, 16506.08
1136.525, 16525.28
1137.618, 16619.43
1138.710, 16551.28
1139.802, 16533.26
1140.895, 16677.59
1141.987, 16732.03
1143.078, 16645.18
1144.170, 16744.09
1145.261, 16511.12
1146.353, 16569.38
1147.444, 16753.28
1148.535, 16674.59
1149.626, 16460.00
1150.716, 16659.00
1151.807, 16515.00
1152.897, 16590.00
1153.988, 16478.00
1155.078, 16502.00
1156.168, 16611.00
1157.257, 16636.00
1158.347, 16644.00
1159.436, 16643.00
1160.526, 16625.00
1161.615, 16809.00
1162.704, 16611.00
1163.793, 16806.00
1164.881, 16753.00
1165.970, 16724.00
1167.058, 16766.00
1168.147, 16776.68
1169.235, 16726.00
1170.323, 16855.00
1171.410, 16848.00
1172.498, 16836.00
1173.585, 16838.00
1174.673, 16885.00
1175.760, 16942.00
1176.847, 16808.00
1177.934, 16921.00
1179.020, 16976.00
1180.107, 16686.00
1181.193, 16813.00
1182.279, 16954.00
1183.365, 16779.00
1184.451, 17006.00
1185.537, 16945.00
1186.623, 16927.00
1187.708, 17030.00
1188.793, 16999.00
1189.878, 17189.00
1190.963, 16999.00
1192.048, 16991.00
1193.133, 17164.00
1194.217, 17140.00
1195.302, 17145.06
1196.386, 17014.00
1197.470, 17084.00
1198.554, 17092.00
1199.638, 17057.00
1200.721, 17276.00
1201.805, 17064.00
1202.888, 16947.00
1203.971, 17053.00
1205.054, 17129.00
1206.137, 17155.00
1207.219, 17113.00
1208.302, 17082.00
1209.384, 17149.00
1210.466, 17113.81
1211.548, 17226.00
1212.630, 17174.00
1213.712, 17132.00
1214.794, 17269.00
1215.875, 17152.00
1216.956, 17356.00
1218.037, 17294.00
1219.118, 17376.00
1220.199, 17370.00
1221.280, 17330.00
1222.360, 17269.00
1223.441, 17312.13
1224.521, 17336.00
1225.601, 17388.00
1226.681, 17453.00
1227.760, 17508.00
1228.840, 17298.00
1229.919, 17551.00
1230.999, 17418.00
1232.078, 17329.00
1233.157, 17549.00
1234.236, 17586.00
1235.314, 17533.00
1236.393, 17591.00
1237.471, 17472.00
1238.549, 17594.00
1239.627, 17527.00
1240.705, 17523.00
1241.783, 17549.00
1242.860, 17567.00
1243.938, 17562.00
1245.015, 17420.00
1246.092, 17712.00
1247.169, 17543.00
1248.246, 17504.00
1249.323, 17585.00
1250.399, 17522.00
1251.475, 17673.00
1252.552, 17639.00
1253.628, 17853.00
1254.703, 17672.00
1255.779, 17973.00
1256.855, 17680.00
1257.930, 17689.00
1259.005, 17840.00
1260.080, 17828.00
1261.155, 17723.00
1262.230, 17897.00
1263.305, 17885.00
1264.379, 17719.00
1265.454, 17823.00
1266.528, 17897.00
1267.602, 17952.00
1268.676, 17953.00
1269.750, 17836.00
1270.823, 17760.00
1271.897, 17849.00
1272.970, 17960.00
1274.043, 17939.00
1275.116, 17829.00
1276.189, 17837.00
1277.261, 17881.00
1278.334, 17887.00
1279.406, 17962.00
1280.478, 17902.00
1281.550, 17860.00
1282.622, 18055.00
1283.694, 18070.00
1284.766, 18044.00
1285.837, 18183.00
1286.908, 18101.00
1287.979, 18075.00
1289.050, 17948.00
1290.121, 18193.00
1291.192, 17984.00
1292.262, 18184.00
1293.333, 18038.00
1294.403, 18387.00
1295.473, 18142.00
1296.543, 18120.00
1297.613, 18256.00
1298.682, 18214.00
1299.752, 18081.00
1300.821, 18277.00
1301.890, 18104.00
1302.959, 18223.00
1304.028, 18097.00
1305.096, 18277.00
1306.165, 18287.00
1307.233, 18353.00
1308.301, 18399.00
1309.370, 18471.00
1310.437, 18446.04
1311.505, 18523.00
1312.573, 18369.00
1313.640, 18336.00
1314.708, 18265.00
1315.775, 18500.00
1316.842, 18320.00
1317.908, 18677.00
1318.975, 18510.00
1320.042, 18419.00
1321.108, 18392.00
1322.174, 18466.00
1323.240, 18539.00
1324.306, 18537.00
1325.372, 18650.00
1326.438, 18492.00
1327.503, 18412.00
1328.568, 18622.00
1329.634, 18285.00
1330.699, 18717.00
1331.763, 18743.00
1332.828, 18448.00
1333.893, 18764.00
1334.957, 18649.00
1336.021, 18485.00
1337.085, 18763.00
1338.149, 18812.00
1339.213, 18604.00
1340.277, 18680.00
1341.340, 18729.00
1342.404, 18699.00
1343.467, 18644.00
1344.530, 18643.00
1345.593, 18726.00
1346.655, 18727.00
1347.718, 18722.00
1348.780, 18835.00
1349.843, 18814.00
1350.905, 18788.00
1351.967, 18694.00
1353.028, 18702.84
1354.090, 18702.65
1355.152, 18701.00
1356.213, 18755.00
1357.274, 18814.00
1358.335, 18839.00
1359.396, 18839.00
1360.457, 18898.00
1361.517, 18931.00
1362.578, 18879.00
1363.638, 18973.00
1364.698, 19052.00
1365.758, 19159.00
1366.818, 18836.00
1367.878, 18945.00
1368.937, 19003.00
1369.997, 18950.00
1371.056, 19033.00
1372.115, 19075.00
1373.174, 19120.00
1374.232, 19128.00
1375.291, 18974.00
1376.350, 19201.00
1377.408, 19243.00
1378.466, 19081.00
1379.524, 19115.00
1380.582, 19357.00
1381.640, 19100.00
1382.697, 19271.00
1383.754, 19167.00
1384.812, 19108.00
1385.869, 19034.00
1386.926, 19299.00
1387.983, 19178.00
1389.039, 19214.00
1390.096, 19409.00
1391.152, 19254.00
1392.208, 19195.00
1393.264, 19353.00
1394.320, 19082.00
1395.376, 19186.00
1396.431, 19207.00
1397.487, 19261.00
1398.542, 19249.00
1399.597, 19231.00
1400.652, 19306.00
1401.707, 19410.00
1402.762, 19283.00
1403.816, 19586.00
1404.871, 19256.00
1405.925, 19517.00
1406.979, 19461.00
1408.033, 19347.00
1409.086, 19232.00
1410.140, 19285.00
1411.194, 19306.00
1412.247, 19441.00
1413.300, 19381.00
1414.353, 19410.00
1415.406, 19466.00
1416.458, 19414.00
1417.511, 19528.00
1418.563, 19570.00
1419.616, 19515.00
1420.668, 19591.92
1421.720, 19578.91
1422.772, 19605.00
1423.823, 19595.00
1424.875, 19535.00
1425.926, 19534.00
1426.977, 19549.78
1428.028, 19607.00
1429.079, 19642.00
1430.130, 19652.00
1431.180, 19763.00
1432.231, 19839.00
1433.281, 19772.00
1434.331, 19719.00
1435.381, 19758.00
1436.431, 19596.00
1437.481, 19812.00
1438.530, 19826.00
1439.580, 19868.00
1440.629, 19727.00
1441.678, 19700.00
1442.727, 19760.71
1443.776, 19814.00
1444.824, 19819.00
1445.873, 19862.29
1446.921, 19852.00
1447.969, 19916.00
1449.017, 19891.00
1450.065, 19936.00
1451.113, 20005.00
1452.160, 20071.00
1453.208, 19960.00
1454.255, 19890.00
1455.302, 20073.00
1456.349, 20044.00
1457.396, 20154.00
1458.443, 20052.00
1459.489, 19950.00
1460.535, 20046.00
1461.582, 20235.00
1462.628, 20025.00
1463.674, 20114.00
1464.719, 20231.00
1465.765, 19944.00
1466.810, 20077.00
1467.856, 20169.00
1468.901, 20068.00
1469.946, 20019.00
1470.991, 20075.00
1472.035, 20084.32
1473.080, 20043.00
1474.124, 20218.00
1475.169, 20209.00
1476.213, 20243.00
1477.257, 20176.00
1478.300, 20030.00
1479.344, 20177.00
1480.388, 20343.00
1481.431, 20049.00
1482.474, 20228.00
1483.517, 20476.00
1484.560, 20353.00
1485.603, 20126.00
1486.645, 20171.00
1487.688, 20190.00
1488.730, 20356.00
1489.772, 20183.00
1490.814, 20341.00
1491.856, 20230.00
1492.898, 20211.00
1493.939, 20413.00
1494.981, 20448.00
1496.022, 20198.00
1497.063, 20226.00
1498.104, 20339.00
1499.145, 20287.00
1500.186, 20331.00
1501.226, 20292.00
1502.266, 20273.23
1503.307, 20308.00
1504.347, 20217.00
1505.387, 20318.00
1506.426, 20289.00
1507.466, 20422.00
1508.505, 20526.00
1509.545, 20373.00
1510.584, 20381.00
1511.623, 20342.00
1512.662, 20337.00
1513.700, 20549.00
1514.739, 20399.00
1515.777, 20449.00
1516.815, 20411.00
1517.854, 20331.00
1518.892, 20530.00
1519.929, 20736.00
1520.967, 20636.00
1522.004, 20637.00
1523.042, 20501.00
1524.079, 20724.00
1525.116, 20438.00
1526.153, 20555.00
1527.190, 20701.00
1528.226, 20585.00
1529.263, 20746.00
1530.299, 20495.00
1531.335, 20576.00
1532.371, 20489.00
1533.407, 20654.00
1534.443, 20766.00
1535.478, 20683.00
1536.514, 20801.00
1537.549, 20630.00
1538.584, 20819.00
1539.619, 20788.00
1540.654, 20644.00
1541.689, 20870.00
1542.723, 20696.00
1543.757, 20885.00
1544.792, 20980.00
1545.826, 20810.00
1546.860, 20811.00
1547.893, 20743.00
1548.927, 20739.00
1549.960, 20805.00
1550.994, 20786.00
1552.027, 20895.00
1553.060, 20823.00
1554.093, 20998.00
1555.126, 20826.00
1556.158, 20853.00
1557.191, 20858.00
1558.223, 20819.00
1559.255, 20826.00
1560.287, 20877.00
1561.319, 20945.00
1562.350, 21116.00
##END=



