##NAMES=Clinozoisite
##RRUFFID=R060284
##IDEAL CHEMISTRY=Ca_2_Al_3_(Si_2_O_7_)(SiO_4_)O(OH)
##LOCALITY=near Zagi Mountain, Khaffor Dehri, North-West Frontier Province, Pakistan
##OWNER=RRUFF
##SOURCE=Herb Obodda
##DESCRIPTION=Greenish-brown fragment of a prismatic crystal
##STATUS=The identification of this mineral has been confirmed by X-ray diffraction and chemical analysis
##URL=rruff.info/R060284
##MEASURED CHEMISTRY=Ca_2.00_(Al_0.90_Fe^3+^_0.10_)_3_(Si_1.00_O_4_)(Si_2.00_O_7_)O(OH)
##PIN_ID=L00714
##ORIENTATION=Laser parallel to c* (0 0 1). Fiducial mark perpendicular to laser is parallel to a [1 0 0]
118.1340, 14892.00
119.3650, 14497.00
120.5960, 14167.00
121.8270, 14006.00
123.0580, 14266.00
124.2880, 14263.00
125.5190, 14172.00
126.7490, 14200.00
127.9790, 14289.00
129.2090, 14357.00
130.4390, 14624.00
131.6680, 14896.00
132.8980, 14864.00
134.1270, 14985.00
135.3560, 15349.00
136.5850, 15553.00
137.8140, 16069.00
139.0430, 16690.00
140.2710, 16810.00
141.5000, 17019.00
142.7280, 17102.00
143.9560, 17187.00
145.1840, 17234.00
146.4120, 17208.00
147.6390, 17213.00
148.8670, 17271.00
150.0940, 17131.00
151.3210, 17010.00
152.5490, 17007.00
153.7750, 16624.00
155.0020, 16380.00
156.2290, 16111.00
157.4550, 15959.00
158.6810, 15552.00
159.9080, 15595.00
161.1340, 15058.00
162.3590, 14954.00
163.5850, 14811.00
164.8110, 14954.00
166.0360, 14746.00
167.2610, 14758.00
168.4860, 14833.00
169.7110, 14919.00
170.9360, 15028.00
172.1610, 15153.00
173.3850, 15065.00
174.6100, 15066.00
175.8340, 14752.00
177.0580, 14787.00
178.2820, 14397.00
179.5050, 14236.00
180.7290, 13984.00
181.9520, 13614.00
183.1760, 13537.00
184.3990, 13352.00
185.6220, 13259.00
186.8450, 13217.00
188.0670, 13219.00
189.2900, 13315.00
190.5120, 13204.00
191.7340, 13243.00
192.9560, 13168.00
194.1780, 13195.00
195.4000, 13390.00
196.6220, 13299.00
197.8430, 13271.00
199.0640, 13530.00
200.2860, 13671.00
201.5070, 13865.00
202.7270, 13978.00
203.9480, 13993.00
205.1690, 14187.00
206.3890, 14357.00
207.6090, 14560.00
208.8290, 14503.00
210.0490, 14850.00
211.2690, 15195.00
212.4890, 15091.00
213.7080, 15248.00
214.9280, 15260.00
216.1470, 15249.00
217.3660, 15272.00
218.5850, 15407.00
219.8030, 15323.00
221.0220, 15659.00
222.2400, 15991.00
223.4590, 16036.00
224.6770, 16399.00
225.8950, 17303.00
227.1120, 17525.00
228.3300, 17990.00
229.5480, 18996.00
230.7650, 19687.00
231.9820, 20761.00
233.1990, 21682.00
234.4160, 22443.00
235.6330, 23122.00
236.8490, 23754.00
238.0660, 23871.00
239.2820, 24000.00
240.4980, 24099.00
241.7140, 24297.00
242.9300, 24592.00
244.1460, 24660.00
245.3610, 24939.00
246.5770, 25421.00
247.7920, 26414.00
249.0070, 27223.00
250.2220, 28011.00
251.4370, 28762.00
252.6510, 28973.00
253.8660, 28841.00
255.0800, 28626.00
256.2940, 27934.00
257.5080, 27196.00
258.7220, 26912.00
259.9360, 25515.00
261.1490, 23915.00
262.3630, 22893.00
263.5760, 22560.00
264.7890, 22210.00
266.0020, 22210.00
267.2150, 22485.00
268.4270, 22836.00
269.6400, 23318.00
270.8520, 24251.00
272.0640, 24813.00
273.2760, 25507.00
274.4880, 25860.00
275.7000, 25849.00
276.9120, 25542.00
278.1230, 24794.00
279.3340, 23910.00
280.5450, 23087.00
281.7560, 22068.00
282.9670, 21231.00
284.1780, 20572.00
285.3880, 20113.00
286.5980, 19603.00
287.8090, 19403.00
289.0190, 19065.00
290.2290, 18986.00
291.4380, 19009.00
292.6480, 18705.00
293.8570, 18559.00
295.0670, 18388.00
296.2760, 18434.00
297.4850, 18491.00
298.6930, 18466.00
299.9020, 18661.00
301.1110, 18674.00
302.3190, 18582.00
303.5270, 18935.00
304.7350, 18768.00
305.9430, 18908.00
307.1510, 19200.00
308.3580, 19272.00
309.5660, 19388.00
310.7730, 19412.00
311.9800, 19498.00
313.1870, 19377.00
314.3940, 19396.00
315.6010, 19271.00
316.8070, 19196.00
318.0130, 19051.00
319.2200, 18992.00
320.4260, 19020.00
321.6310, 19025.00
322.8370, 19161.00
324.0430, 19280.00
325.2480, 19549.00
326.4540, 19972.00
327.6590, 20275.00
328.8640, 20834.00
330.0680, 21316.00
331.2730, 22025.00
332.4780, 23053.00
333.6820, 23865.00
334.8860, 24577.00
336.0900, 25602.00
337.2940, 26373.00
338.4980, 26990.00
339.7010, 27911.00
340.9050, 28525.00
342.1080, 29211.00
343.3110, 29654.00
344.5140, 30363.00
345.7170, 31120.00
346.9200, 31616.00
348.1220, 32274.00
349.3240, 32590.00
350.5270, 32803.00
351.7290, 32514.75
352.9310, 31960.58
354.1320, 31079.00
355.3340, 29921.00
356.5350, 28288.00
357.7370, 26567.00
358.9380, 24960.00
360.1390, 23770.00
361.3400, 22414.00
362.5400, 21436.00
363.7410, 20482.00
364.9410, 19818.00
366.1410, 19330.00
367.3410, 18899.00
368.5410, 18502.00
369.7410, 18095.00
370.9400, 17716.21
372.1400, 17367.63
373.3390, 17014.00
374.5380, 16753.00
375.7370, 16487.00
376.9360, 16300.00
378.1350, 16244.00
379.3330, 16132.18
380.5310, 16113.00
381.7300, 16185.00
382.9280, 16273.00
384.1260, 16540.00
385.3230, 16745.00
386.5210, 17234.00
387.7180, 17596.00
388.9160, 18068.00
390.1130, 18307.00
391.3100, 18765.00
392.5060, 18897.00
393.7030, 19018.00
394.9000, 19205.00
396.0960, 19177.00
397.2920, 19083.00
398.4880, 18877.00
399.6840, 18158.00
400.8800, 17656.00
402.0750, 17157.00
403.2710, 16416.00
404.4660, 16006.00
405.6610, 15530.00
406.8560, 14939.00
408.0510, 14860.00
409.2450, 14934.00
410.4400, 14939.00
411.6340, 15294.00
412.8280, 15708.00
414.0220, 16143.00
415.2160, 17029.00
416.4100, 18102.00
417.6030, 19523.00
418.7970, 21102.00
419.9900, 23070.00
421.1830, 25250.00
422.3760, 27625.00
423.5690, 30393.00
424.7610, 33053.00
425.9540, 34639.00
427.1460, 36162.00
428.3380, 36648.00
429.5300, 36440.00
430.7220, 35514.00
431.9140, 33979.00
433.1050, 32497.00
434.2970, 30938.00
435.4880, 30165.00
436.6790, 29620.00
437.8700, 29423.00
439.0610, 29604.00
440.2510, 30815.00
441.4420, 32470.00
442.6320, 35023.00
443.8220, 38017.00
445.0120, 41195.00
446.2020, 45112.00
447.3910, 49449.00
448.5810, 52984.00
449.7700, 56781.00
450.9600, 59960.00
452.1490, 62331.00
453.3370, 63454.00
454.5260, 63641.00
455.7150, 62605.00
456.9030, 60741.00
458.0910, 58382.00
459.2800, 55476.00
460.4670, 52504.00
461.6550, 50227.00
462.8430, 48314.00
464.0300, 46587.00
465.2180, 45674.00
466.4050, 44944.00
467.5920, 44532.00
468.7790, 44344.00
469.9650, 44334.00
471.1520, 44548.00
472.3380, 44016.00
473.5250, 43929.00
474.7110, 43663.00
475.8970, 43157.00
477.0820, 42459.00
478.2680, 41470.00
479.4540, 40550.00
480.6390, 39791.00
481.8240, 39044.00
483.0090, 37945.00
484.1940, 36834.00
485.3780, 34889.00
486.5630, 33746.00
487.7470, 31867.00
488.9320, 30301.00
490.1160, 28588.00
491.3000, 26907.00
492.4830, 25551.00
493.6670, 24506.00
494.8500, 23511.00
496.0340, 22872.00
497.2170, 22378.00
498.4000, 22043.00
499.5820, 22010.00
500.7650, 22005.00
501.9480, 22238.00
503.1300, 22547.00
504.3120, 22871.00
505.4940, 23367.00
506.6760, 23757.00
507.8580, 23813.00
509.0390, 23855.00
510.2210, 23620.00
511.4020, 23268.00
512.5830, 22673.00
513.7640, 22123.00
514.9450, 21616.00
516.1250, 21095.00
517.3060, 20368.00
518.4860, 19970.00
519.6660, 19405.00
520.8460, 18935.00
522.0260, 18212.00
523.2060, 17697.00
524.3850, 17017.00
525.5650, 16601.00
526.7440, 16050.00
527.9230, 15494.00
529.1020, 15138.00
530.2810, 14819.00
531.4590, 14589.00
532.6380, 14350.00
533.8160, 14245.00
534.9940, 13966.00
536.1720, 13852.00
537.3500, 13729.00
538.5270, 13785.00
539.7050, 13877.00
540.8820, 14082.00
542.0590, 13996.00
543.2360, 14027.00
544.4130, 14249.00
545.5900, 14492.00
546.7660, 14328.00
547.9430, 14618.00
549.1190, 14855.00
550.2950, 15340.00
551.4710, 15388.00
552.6470, 15973.00
553.8220, 16402.00
554.9980, 16945.00
556.1730, 17561.00
557.3480, 18521.00
558.5230, 19500.00
559.6980, 20959.00
560.8730, 22503.00
562.0470, 24845.00
563.2220, 27795.00
564.3960, 31086.00
565.5700, 34879.00
566.7440, 39218.00
567.9170, 43894.00
569.0910, 48613.00
570.2640, 51969.00
571.4380, 52506.00
572.6110, 51674.00
573.7840, 48491.00
574.9570, 44021.00
576.1290, 38494.00
577.3020, 33102.00
578.4740, 28611.00
579.6460, 25113.00
580.8180, 22924.00
581.9900, 21511.00
583.1620, 20435.00
584.3330, 20461.00
585.5040, 20255.00
586.6760, 20463.00
587.8470, 21030.00
589.0180, 21552.00
590.1880, 22222.00
591.3590, 22949.00
592.5290, 23802.00
593.7000, 24762.00
594.8700, 25817.00
596.0400, 26961.00
597.2090, 28283.00
598.3790, 29551.00
599.5490, 31103.00
600.7180, 32221.00
601.8870, 33712.00
603.0560, 34717.00
604.2250, 35377.00
605.3940, 35237.38
606.5620, 34747.54
607.7300, 33637.00
608.8990, 32319.00
610.0670, 30488.00
611.2350, 28488.00
612.4020, 26545.00
613.5700, 24941.00
614.7370, 23429.00
615.9050, 22071.00
617.0720, 21032.00
618.2390, 20052.00
619.4060, 18935.00
620.5720, 17988.00
621.7390, 17299.00
622.9050, 16660.00
624.0710, 15972.00
625.2370, 15481.06
626.4030, 14943.00
627.5690, 14621.00
628.7340, 14256.00
629.9000, 14022.00
631.0650, 13681.00
632.2300, 13590.00
633.3950, 13284.00
634.5600, 13248.00
635.7240, 13122.00
636.8890, 13207.00
638.0530, 12956.00
639.2170, 12876.00
640.3810, 12979.00
641.5450, 12770.00
642.7080, 12844.00
643.8720, 12925.00
645.0350, 12855.00
646.1980, 13134.00
647.3610, 13247.00
648.5240, 13718.00
649.6870, 13867.00
650.8490, 14099.00
652.0120, 14678.00
653.1740, 15223.00
654.3360, 15522.00
655.4980, 15721.00
656.6600, 16057.00
657.8210, 16066.00
658.9830, 15917.00
660.1440, 16106.00
661.3050, 15951.00
662.4660, 15715.00
663.6270, 15535.00
664.7870, 15204.00
665.9480, 15293.00
667.1080, 14919.00
668.2680, 14620.00
669.4280, 14629.00
670.5880, 14527.00
671.7480, 14364.00
672.9070, 14061.00
674.0670, 13995.00
675.2260, 13991.00
676.3850, 14057.00
677.5440, 14071.00
678.7030, 14275.00
679.8610, 14234.00
681.0200, 14423.00
682.1780, 14715.00
683.3360, 14846.00
684.4940, 14983.00
685.6520, 15215.00
686.8090, 15328.34
687.9670, 15479.86
689.1240, 15608.00
690.2810, 15721.00
691.4380, 15825.04
692.5950, 15907.00
693.7520, 16043.00
694.9080, 15983.00
696.0650, 16097.00
697.2210, 16178.00
698.3770, 16167.00
699.5330, 16343.00
700.6880, 16226.00
701.8440, 15896.00
702.9990, 15475.00
704.1550, 15199.00
705.3100, 14939.00
706.4650, 14444.00
707.6190, 14205.00
708.7740, 13738.00
709.9290, 13321.00
711.0830, 13088.00
712.2370, 12638.00
713.3910, 12460.00
714.5450, 12231.00
715.6980, 11962.00
716.8520, 11858.00
718.0050, 11695.00
719.1580, 11507.00
720.3110, 11560.00
721.4640, 11448.00
722.6170, 11350.00
723.7700, 11160.00
724.9220, 11216.00
726.0740, 11151.00
727.2260, 11201.00
728.3780, 11108.00
729.5300, 11072.00
730.6810, 11065.00
731.8330, 11036.00
732.9840, 10979.00
734.1350, 10976.00
735.2860, 10969.25
736.4370, 11003.00
737.5880, 10958.00
738.7380, 10893.00
739.8880, 10813.00
741.0390, 10819.00
742.1890, 10850.00
743.3380, 10899.00
744.4880, 10883.00
745.6380, 10808.00
746.7870, 10742.00
747.9360, 10785.00
749.0850, 10611.00
750.2340, 10749.00
751.3830, 10733.00
752.5310, 10803.00
753.6800, 10687.00
754.8280, 10608.00
755.9760, 10747.00
757.1240, 10641.00
758.2720, 10811.00
759.4190, 10642.00
760.5670, 10827.00
761.7140, 10595.00
762.8610, 10807.00
764.0080, 10754.00
765.1550, 10886.00
766.3020, 10660.00
767.4480, 10834.00
768.5950, 10837.00
769.7410, 10897.00
770.8870, 10861.00
772.0330, 10961.00
773.1780, 10940.00
774.3240, 10809.00
775.4690, 10890.00
776.6140, 10785.00
777.7590, 10980.00
778.9040, 10883.00
780.0490, 10870.00
781.1940, 11048.00
782.3380, 11060.00
783.4820, 10964.00
784.6260, 10965.00
785.7700, 10972.00
786.9140, 11095.00
788.0580, 11160.00
789.2010, 11156.08
790.3450, 11188.00
791.4880, 11136.00
792.6310, 11171.00
793.7730, 11133.00
794.9160, 11239.00
796.0590, 11240.00
797.2010, 11338.00
798.3430, 11340.00
799.4850, 11274.00
800.6270, 11314.00
801.7690, 11410.00
802.9100, 11471.00
804.0520, 11523.39
805.1930, 11619.00
806.3340, 11695.00
807.4750, 11700.00
808.6160, 11924.00
809.7560, 11878.00
810.8970, 12044.00
812.0370, 12150.00
813.1770, 12138.00
814.3170, 12320.00
815.4570, 12385.00
816.5960, 12397.00
817.7360, 12653.00
818.8750, 12745.00
820.0140, 12789.00
821.1530, 12982.00
822.2920, 13165.00
823.4310, 13429.00
824.5690, 13453.00
825.7070, 13547.00
826.8460, 13853.00
827.9840, 14152.00
829.1220, 14001.00
830.2590, 14243.00
831.3970, 14377.00
832.5340, 14538.00
833.6710, 14903.00
834.8080, 14853.00
835.9450, 15150.00
837.0820, 15248.00
838.2190, 15429.00
839.3550, 15408.00
840.4910, 15697.00
841.6270, 15603.00
842.7630, 15896.00
843.8990, 15952.00
845.0350, 16274.00
846.1700, 16373.00
847.3060, 16581.00
848.4410, 16796.00
849.5760, 17049.00
850.7100, 17484.00
851.8450, 17548.00
852.9800, 17781.00
854.1140, 18335.00
855.2480, 18851.00
856.3820, 19332.00
857.5160, 19950.00
858.6500, 20794.00
859.7830, 21524.00
860.9170, 22321.00
862.0500, 23413.00
863.1830, 24764.00
864.3160, 25853.00
865.4480, 27471.00
866.5810, 29023.00
867.7130, 30828.00
868.8460, 32521.00
869.9780, 33658.00
871.1100, 34805.00
872.2410, 36005.00
873.3730, 37143.00
874.5050, 37537.00
875.6360, 38245.00
876.7670, 38610.00
877.8980, 38724.00
879.0290, 39666.00
880.1590, 39649.00
881.2900, 39891.00
882.4200, 39887.00
883.5500, 39716.00
884.6800, 39434.00
885.8100, 39443.00
886.9400, 39463.00
888.0690, 39667.00
889.1990, 40116.93
890.3280, 40335.00
891.4570, 41420.00
892.5860, 42215.00
893.7140, 43208.00
894.8430, 43826.00
895.9710, 44163.00
897.1000, 44123.00
898.2280, 43824.00
899.3560, 43352.00
900.4830, 42645.00
901.6110, 41754.00
902.7380, 41262.00
903.8660, 40656.00
904.9930, 40565.00
906.1200, 40923.00
907.2460, 41203.00
908.3730, 41535.00
909.5000, 42451.00
910.6260, 43108.00
911.7520, 43458.00
912.8780, 43737.00
914.0040, 43613.00
915.1290, 43031.00
916.2550, 42527.00
917.3800, 41475.00
918.5050, 40358.00
919.6300, 39251.00
920.7550, 38262.00
921.8800, 37155.00
923.0040, 36176.00
924.1290, 35162.00
925.2530, 34370.00
926.3770, 33367.00
927.5010, 32731.00
928.6250, 32107.00
929.7480, 31381.00
930.8720, 30677.00
931.9950, 30022.00
933.1180, 29310.00
934.2410, 28689.00
935.3640, 27748.00
936.4860, 26742.00
937.6090, 26019.00
938.7310, 25244.00
939.8530, 24557.00
940.9750, 23848.00
942.0970, 22987.00
943.2180, 22473.00
944.3400, 21928.00
945.4610, 21488.00
946.5820, 21092.00
947.7030, 20625.00
948.8240, 20400.00
949.9450, 20306.00
951.0650, 19886.00
952.1860, 20022.00
953.3060, 19864.00
954.4260, 19946.00
955.5460, 20025.00
956.6650, 20088.00
957.7850, 20122.00
958.9040, 20218.00
960.0230, 20253.00
961.1420, 20307.00
962.2610, 20529.00
963.3800, 20674.00
964.4990, 20652.00
965.6170, 20355.00
966.7350, 20390.00
967.8530, 20459.00
968.9710, 20450.00
970.0890, 20552.00
971.2070, 20726.00
972.3240, 21099.00
973.4410, 21585.00
974.5580, 22492.00
975.6750, 23179.00
976.7920, 24458.00
977.9090, 25921.00
979.0250, 27669.00
980.1410, 29653.00
981.2580, 31397.00
982.3740, 33367.00
983.4890, 34956.00
984.6050, 35972.00
985.7200, 35737.00
986.8360, 35186.00
987.9510, 33755.00
989.0660, 31943.00
990.1810, 29606.00
991.2950, 27706.00
992.4100, 25587.00
993.5240, 23896.20
994.6390, 22117.00
995.7530, 20899.00
996.8660, 19758.00
997.9800, 18731.00
999.0940, 18203.00
1000.207, 17780.00
1001.320, 16935.00
1002.433, 16495.00
1003.546, 16219.00
1004.659, 15763.00
1005.772, 15477.00
1006.884, 15250.00
1007.996, 15142.00
1009.108, 14926.32
1010.220, 14726.00
1011.332, 14677.00
1012.444, 14572.00
1013.555, 14562.00
1014.666, 14550.00
1015.777, 14579.00
1016.888, 14682.00
1017.999, 14838.00
1019.110, 14986.27
1020.220, 15352.00
1021.331, 15420.00
1022.441, 15755.00
1023.551, 16063.00
1024.661, 16581.00
1025.770, 16996.00
1026.880, 17415.00
1027.989, 17774.00
1029.098, 18052.00
1030.207, 18157.00
1031.316, 18291.00
1032.425, 18288.00
1033.533, 18072.00
1034.642, 17932.00
1035.750, 17871.00
1036.858, 17714.00
1037.966, 17887.00
1039.073, 18098.00
1040.181, 18196.00
1041.288, 18324.00
1042.396, 18551.54
1043.503, 18809.00
1044.610, 18968.00
1045.716, 19066.00
1046.823, 19225.00
1047.929, 19005.00
1049.036, 19004.00
1050.142, 18929.00
1051.248, 18806.00
1052.353, 18609.00
1053.459, 18342.00
1054.564, 17801.00
1055.670, 17702.00
1056.775, 17180.00
1057.880, 16958.00
1058.985, 16731.00
1060.089, 16411.00
1061.194, 16156.00
1062.298, 15871.00
1063.402, 15729.00
1064.506, 15712.00
1065.610, 15581.00
1066.713, 15718.00
1067.817, 15777.00
1068.920, 15648.00
1070.023, 15942.00
1071.126, 16250.00
1072.229, 16675.00
1073.332, 17147.00
1074.435, 17646.00
1075.537, 18322.00
1076.639, 19115.00
1077.741, 19745.00
1078.843, 20808.00
1079.945, 21809.00
1081.046, 22950.00
1082.148, 24476.00
1083.249, 25782.00
1084.350, 28082.00
1085.451, 30044.00
1086.551, 32550.00
1087.652, 35314.00
1088.752, 38651.00
1089.853, 41468.00
1090.953, 44332.00
1092.053, 47047.00
1093.152, 48448.00
1094.252, 48271.00
1095.351, 46618.00
1096.451, 43774.00
1097.550, 39580.00
1098.649, 35411.00
1099.748, 30949.00
1100.846, 27165.00
1101.945, 24411.00
1103.043, 22005.00
1104.141, 20208.00
1105.239, 19124.00
1106.337, 18251.00
1107.434, 17382.00
1108.532, 17054.00
1109.629, 16630.00
1110.726, 16301.00
1111.823, 16126.00
1112.920, 15911.00
1114.017, 15678.14
1115.113, 15504.00
1116.210, 15288.00
1117.306, 15118.00
1118.402, 14962.49
1119.498, 14849.89
1120.593, 14776.00
1121.689, 14707.00
1122.784, 14646.00
1123.879, 14633.00
1124.974, 14504.00
1126.069, 14561.00
1127.164, 14396.00
1128.259, 14330.00
1129.353, 14323.00
1130.447, 14179.00
1131.541, 14245.00
1132.635, 14244.00
1133.729, 14027.00
1134.822, 14010.00
1135.916, 14043.00
1137.009, 14064.00
1138.102, 13954.00
1139.195, 14061.00
1140.288, 13812.00
1141.380, 13998.00
1142.473, 13830.00
1143.565, 13726.00
1144.657, 13972.00
1145.749, 13989.00
1146.841, 13902.00
1147.932, 13840.00
1149.024, 13764.00
1150.115, 13655.00
1151.206, 13802.00
1152.297, 13806.00
1153.388, 13731.00
1154.479, 13543.00
1155.569, 13662.00
1156.659, 13572.00
1157.750, 13487.00
1158.839, 13577.00
1159.929, 13394.00
1161.019, 13464.00
1162.108, 13471.00
1163.198, 13391.00
1164.287, 13572.00
1165.376, 13411.00
1166.465, 13404.00
1167.553, 13380.00
1168.642, 13317.00
1169.730, 13475.00
1170.818, 13407.00
1171.906, 13388.00
1172.994, 13405.00
1174.082, 13334.00
1175.170, 13248.00
1176.257, 13301.00
1177.344, 13272.00
1178.431, 13317.00
1179.518, 13289.00
1180.605, 13369.00
1181.691, 13313.00
1182.778, 13344.00
1183.864, 13382.00
1184.950, 13283.00
1186.036, 13293.00
1187.122, 13311.00
1188.207, 13302.00
1189.292, 13323.00
1190.378, 13307.00
1191.463, 13284.40
1192.548, 13296.00
1193.632, 13208.00
1194.717, 13290.00
1195.801, 13234.00
1196.886, 13259.00
1197.970, 13288.00
1199.054, 13409.00
1200.137, 13333.00
1201.221, 13381.37
1202.305, 13248.00
1203.388, 13380.00
1204.471, 13324.00
1205.554, 13329.00
1206.637, 13345.00
1207.719, 13308.57
1208.802, 13346.00
1209.884, 13278.00
1210.966, 13223.00
1212.048, 13213.00
1213.130, 13212.00
1214.212, 13277.00
1215.293, 13270.00
1216.374, 13285.00
1217.456, 13289.00
1218.536, 13212.00
1219.617, 13144.00
1220.698, 13277.00
1221.778, 13141.00
1222.859, 13294.00
1223.939, 13221.00
1225.019, 13271.00
1226.099, 13323.00
1227.178, 13196.00
1228.258, 13207.00
1229.337, 13337.00
1230.417, 13246.00
1231.496, 13303.00
1232.574, 13319.00
1233.653, 13395.00
1234.732, 13198.00
1235.810, 13194.00
1236.888, 13142.00
1237.966, 13298.00
1239.044, 13259.00
1240.122, 13296.00
1241.199, 13336.00
1242.277, 13376.00
1243.354, 13317.00
1244.431, 13131.00
1245.508, 13328.00
1246.585, 13145.00
1247.661, 13181.00
1248.738, 13204.00
1249.814, 13179.62
1250.890, 13297.00
1251.966, 13238.00
1253.042, 13354.00
1254.117, 13360.00
1255.193, 13267.00
1256.268, 13312.00
1257.343, 13246.00
1258.418, 13317.00
1259.493, 13287.00
1260.567, 13268.00
1261.642, 13385.00
1262.716, 13422.00
1263.790, 13324.00
1264.864, 13389.00
1265.938, 13493.00
1267.011, 13303.00
1268.085, 13362.00
1269.158, 13363.00
1270.231, 13367.00
1271.304, 13346.00
1272.377, 13321.00
1273.450, 13296.00
1274.522, 13270.00
1275.594, 13426.00
1276.666, 13470.00
1277.738, 13389.00
1278.810, 13380.00
1279.882, 13368.00
1280.953, 13438.00
1282.025, 13346.00
1283.096, 13415.00
1284.167, 13461.00
1285.238, 13478.00
1286.308, 13510.00
1287.379, 13581.00
1288.449, 13521.00
1289.519, 13541.62
1290.589, 13457.00
1291.659, 13494.00
1292.729, 13341.00
1293.798, 13295.00
1294.868, 13398.00
1295.937, 13269.00
1297.006, 13382.00
1298.075, 13404.00
1299.143, 13544.00
1300.212, 13492.00
1301.280, 13380.00
1302.348, 13449.00
1303.416, 13395.00
1304.484, 13498.00
1305.552, 13538.00
1306.620, 13399.00
1307.687, 13478.00
1308.754, 13522.00
1309.821, 13525.00
1310.888, 13583.65
1311.955, 13554.00
1313.021, 13633.00
1314.088, 13606.00
1315.154, 13587.00
1316.220, 13476.00
1317.286, 13683.00
1318.352, 13685.00
1319.417, 13681.00
1320.483, 13586.00
1321.548, 13640.00
1322.613, 13607.03
1323.678, 13601.36
1324.743, 13600.00
1325.807, 13638.00
1326.872, 13624.00
1327.936, 13701.00
1329.000, 13795.00
1330.064, 13650.00
1331.128, 13642.00
1332.191, 13856.00
1333.255, 13750.00
1334.318, 13753.00
1335.381, 13782.00
1336.444, 13774.00
1337.507, 13766.00
1338.569, 13773.96
1339.632, 13784.06
1340.694, 13783.00
1341.756, 13829.00
1342.818, 13867.00
1343.880, 13909.00
1344.941, 13744.00
1346.003, 13830.00
1347.064, 13802.00
1348.125, 13769.00
1349.186, 13801.00
1350.247, 13841.00
1351.308, 13866.00
1352.368, 13908.17
1353.428, 13852.00
1354.489, 13961.00
1355.549, 13952.00
1356.608, 13918.00
1357.668, 13764.00
1358.727, 13836.00
1359.787, 14087.00
1360.846, 13897.00
1361.905, 13910.00
1362.964, 14118.00
1364.022, 14098.00
1365.081, 14083.00
1366.139, 14110.00
1367.197, 14061.37
1368.255, 14042.00
1369.313, 14011.00
1370.371, 14014.00
1371.428, 14037.00
1372.486, 13977.00
1373.543, 14024.11
1374.600, 13976.00
1375.657, 14063.00
1376.713, 14043.00
1377.770, 14030.00
1378.826, 14152.00
1379.882, 14116.00
1380.938, 14175.00
1381.994, 14074.00
1383.050, 14097.00
1384.106, 14129.00
1385.161, 14059.00
1386.216, 13974.00
1387.271, 14037.00
1388.326, 13841.00
1389.381, 13993.00
1390.435, 14192.00
1391.490, 14116.00
1392.544, 14065.00
1393.598, 14089.00
1394.652, 14038.00
1395.705, 14081.00
1396.759, 14004.00
1397.812, 13994.00
1398.866, 14071.00
1399.919, 13994.00
1400.972, 14057.00
1402.024, 14144.00
1403.077, 14014.00
1404.129, 14111.00
1405.181, 14130.00
1406.233, 14059.00
1407.285, 14179.00
1408.337, 14116.00
1409.389, 14283.00
1410.440, 14131.00
1411.491, 14148.00
1412.542, 14250.00
1413.593, 14122.00
1414.644, 14320.00
1415.695, 14193.00
1416.745, 14202.00
1417.795, 14187.00
1418.845, 14142.00
1419.895, 14133.00
1420.945, 14306.00
1421.995, 14174.00
1423.044, 14299.00
1424.093, 14190.00
1425.142, 14331.00
1426.191, 14411.00
1427.240, 14314.00
1428.289, 14351.00
1429.337, 14342.00
1430.385, 14277.00
1431.433, 14413.00
1432.481, 14243.00
1433.529, 14285.00
1434.577, 14325.00
1435.624, 14329.00
1436.672, 14291.00
1437.719, 14431.00
1438.766, 14306.00
1439.812, 14509.00
1440.859, 14418.00
1441.905, 14562.00
1442.952, 14412.00
1443.998, 14457.00
1445.044, 14468.00
1446.090, 14405.00
1447.135, 14322.00
1448.181, 14469.00
1449.226, 14319.00
1450.271, 14409.00
1451.316, 14367.00
1452.361, 14473.00
1453.405, 14553.00
1454.450, 14429.00
1455.494, 14477.00
1456.538, 14673.00
1457.582, 14486.00
1458.626, 14532.00
1459.670, 14573.00
1460.713, 14405.00
1461.757, 14350.00
1462.800, 14566.00
1463.843, 14600.00
1464.886, 14480.00
1465.928, 14554.00
1466.971, 14588.00
1468.013, 14589.03
1469.055, 14583.00
1470.097, 14644.00
1471.139, 14665.00
1472.181, 14630.00
1473.222, 14575.00
1474.263, 14624.49
1475.305, 14535.00
1476.346, 14644.00
1477.386, 14650.00
1478.427, 14553.00
1479.468, 14546.00
1480.508, 14696.00
1481.548, 14612.00
1482.588, 14713.00
1483.628, 14679.00
1484.668, 14591.00
1485.707, 14635.00
1486.747, 14699.00
1487.786, 14618.00
1488.825, 14562.00
1489.864, 14766.00
1490.902, 14647.00
1491.941, 14718.00
1492.979, 14634.00
1494.017, 14732.00
1495.055, 14697.00
1496.093, 14738.00
1497.131, 14542.00
1498.168, 14661.00
1499.206, 14640.00
1500.243, 14629.00
1501.280, 14720.00
1502.317, 14668.00
1503.354, 14617.00
1504.390, 14702.00
1505.426, 14771.00
1506.463, 14569.00
1507.499, 14724.00
1508.535, 14801.00
1509.570, 14721.00
1510.606, 14838.00
1511.641, 14750.00
1512.676, 14792.00
1513.711, 14676.00
1514.746, 14821.00
1515.781, 14939.00
1516.816, 14878.00
1517.850, 14833.00
1518.884, 14876.00
1519.918, 14957.00
1520.952, 14877.00
1521.986, 14913.00
1523.019, 15019.00
1524.053, 15018.00
1525.086, 14902.00
1526.119, 14917.00
1527.152, 14904.00
1528.185, 14967.00
1529.217, 14916.00
1530.250, 14940.00
1531.282, 14890.00
1532.314, 14898.00
1533.346, 14909.00
1534.377, 14878.00
1535.409, 14965.00
1536.440, 14974.00
1537.472, 14976.28
1538.503, 15061.00
1539.534, 14979.00
1540.564, 14952.00
1541.595, 14948.00
1542.625, 14942.05
1543.656, 14926.00
1544.686, 14979.00
1545.716, 14983.00
1546.745, 14978.00
1547.775, 15025.00
1548.804, 15009.00
1549.834, 15010.00
1550.863, 15202.00
1551.892, 15091.00
1552.920, 15297.00
1553.949, 15115.00
1554.977, 15274.00
1556.006, 15129.00
1557.034, 15012.00
1558.062, 15072.00
1559.089, 14856.00
1560.117, 15071.00
1561.144, 15181.00
1562.172, 14972.00
1563.199, 15204.00
1564.226, 15202.00
1565.252, 15252.00
1566.279, 15190.00
1567.305, 15140.00
1568.332, 15119.00
1569.358, 15099.00
1570.384, 15243.00
1571.409, 15304.00
1572.435, 15058.00
##END=



