##NAMES=Clinozoisite
##RRUFFID=R060284
##IDEAL CHEMISTRY=Ca_2_Al_3_(Si_2_O_7_)(SiO_4_)O(OH)
##LOCALITY=near Zagi Mountain, Khaffor Dehri, North-West Frontier Province, Pakistan
##OWNER=RRUFF
##SOURCE=Herb Obodda
##DESCRIPTION=Greenish-brown fragment of a prismatic crystal
##STATUS=The identification of this mineral has been confirmed by X-ray diffraction and chemical analysis
##URL=rruff.info/R060284
##MEASURED CHEMISTRY=Ca_2.00_(Al_0.90_Fe^3+^_0.10_)_3_(Si_1.00_O_4_)(Si_2.00_O_7_)O(OH)
##PIN_ID=L00506
##ORIENTATION=Laser parallel to -a* (-1 0 0). Fiducial mark perpendicular to laser is parallel to b [0 1 0]
118.1340, 7169.000
119.3650, 7115.000
120.5960, 7190.000
121.8270, 7252.000
123.0580, 7362.442
124.2880, 7619.000
125.5190, 7726.000
126.7490, 7956.000
127.9790, 8267.000
129.2090, 8673.000
130.4390, 9270.000
131.6680, 9899.000
132.8980, 10306.00
134.1270, 11223.00
135.3560, 11984.00
136.5850, 12984.00
137.8140, 13901.00
139.0430, 14887.00
140.2710, 15733.00
141.5000, 16366.00
142.7280, 16898.00
143.9560, 17098.00
145.1840, 17164.00
146.4120, 17332.00
147.6390, 17152.00
148.8670, 16878.00
150.0940, 16908.00
151.3210, 16724.00
152.5490, 16641.00
153.7750, 16644.00
155.0020, 16613.00
156.2290, 16713.00
157.4550, 16697.00
158.6810, 16948.00
159.9080, 17184.00
161.1340, 17889.00
162.3590, 18371.00
163.5850, 18679.00
164.8110, 19287.00
166.0360, 19546.00
167.2610, 19637.00
168.4860, 19430.00
169.7110, 18986.00
170.9360, 18563.00
172.1610, 18011.00
173.3850, 17103.00
174.6100, 16243.00
175.8340, 15295.00
177.0580, 14436.00
178.2820, 13717.00
179.5050, 13011.00
180.7290, 12451.00
181.9520, 11854.00
183.1760, 11482.00
184.3990, 11064.00
185.6220, 10607.00
186.8450, 10168.00
188.0670, 10114.00
189.2900, 9937.000
190.5120, 9693.000
191.7340, 9618.000
192.9560, 9541.000
194.1780, 9348.000
195.4000, 9362.000
196.6220, 9300.000
197.8430, 9147.000
199.0640, 9317.000
200.2860, 9325.000
201.5070, 9384.000
202.7270, 9427.000
203.9480, 9203.000
205.1690, 9166.000
206.3890, 9262.000
207.6090, 9306.000
208.8290, 9236.000
210.0490, 9384.000
211.2690, 9306.000
212.4890, 9255.000
213.7080, 9259.000
214.9280, 9258.000
216.1470, 9408.000
217.3660, 9267.000
218.5850, 9297.000
219.8030, 9480.000
221.0220, 9549.000
222.2400, 9626.000
223.4590, 10044.00
224.6770, 10196.00
225.8950, 10450.00
227.1120, 10812.00
228.3300, 11307.00
229.5480, 11799.00
230.7650, 12382.00
231.9820, 13123.00
233.1990, 13869.00
234.4160, 14776.00
235.6330, 15570.00
236.8490, 16246.00
238.0660, 17292.00
239.2820, 18103.00
240.4980, 19174.00
241.7140, 20254.00
242.9300, 21529.00
244.1460, 23109.00
245.3610, 24637.00
246.5770, 26602.00
247.7920, 28590.00
249.0070, 30543.00
250.2220, 33282.00
251.4370, 34926.00
252.6510, 36818.00
253.8660, 38173.00
255.0800, 37990.00
256.2940, 37668.00
257.5080, 36633.00
258.7220, 34994.00
259.9360, 32500.00
261.1490, 29887.00
262.3630, 27731.00
263.5760, 25565.00
264.7890, 23982.00
266.0020, 22487.00
267.2150, 21389.00
268.4270, 20274.00
269.6400, 19635.00
270.8520, 18849.00
272.0640, 18373.00
273.2760, 17763.00
274.4880, 17294.00
275.7000, 16824.00
276.9120, 16226.00
278.1230, 15699.00
279.3340, 15110.00
280.5450, 14720.00
281.7560, 14460.00
282.9670, 13997.00
284.1780, 13571.00
285.3880, 13538.00
286.5980, 13342.00
287.8090, 13309.00
289.0190, 13169.00
290.2290, 13198.00
291.4380, 13263.00
292.6480, 13181.00
293.8570, 13200.00
295.0670, 13275.00
296.2760, 13349.00
297.4850, 13419.00
298.6930, 13469.00
299.9020, 13622.00
301.1110, 13749.00
302.3190, 13568.00
303.5270, 13580.28
304.7350, 13357.00
305.9430, 13279.00
307.1510, 13189.00
308.3580, 12931.00
309.5660, 12837.00
310.7730, 12673.00
311.9800, 12664.00
313.1870, 12387.00
314.3940, 12529.00
315.6010, 12354.00
316.8070, 12521.00
318.0130, 12560.00
319.2200, 12535.00
320.4260, 12908.00
321.6310, 13281.00
322.8370, 13509.00
324.0430, 14164.00
325.2480, 14566.00
326.4540, 15183.00
327.6590, 15969.00
328.8640, 16660.00
330.0680, 17723.00
331.2730, 18646.00
332.4780, 19542.00
333.6820, 20366.00
334.8860, 20920.00
336.0900, 21432.00
337.2940, 22141.00
338.4980, 22743.00
339.7010, 23123.00
340.9050, 23889.00
342.1080, 24811.00
343.3110, 26240.00
344.5140, 27632.00
345.7170, 29206.00
346.9200, 30926.00
348.1220, 32866.00
349.3240, 34920.00
350.5270, 35804.00
351.7290, 36440.00
352.9310, 36014.00
354.1320, 34685.00
355.3340, 32743.00
356.5350, 30368.00
357.7370, 27763.00
358.9380, 24902.00
360.1390, 22519.00
361.3400, 20407.00
362.5400, 18569.00
363.7410, 17210.00
364.9410, 16145.00
366.1410, 15224.00
367.3410, 14468.00
368.5410, 13839.00
369.7410, 13295.00
370.9400, 12704.00
372.1400, 12681.00
373.3390, 11999.00
374.5380, 11902.00
375.7370, 11559.00
376.9360, 11486.00
378.1350, 11233.00
379.3330, 11204.00
380.5310, 11051.00
381.7300, 11113.00
382.9280, 11138.00
384.1260, 11259.00
385.3230, 11460.00
386.5210, 11528.00
387.7180, 11694.00
388.9160, 11836.00
390.1130, 11995.00
391.3100, 12302.00
392.5060, 12335.00
393.7030, 12512.00
394.9000, 12582.00
396.0960, 12535.00
397.2920, 12499.00
398.4880, 12447.00
399.6840, 12388.00
400.8800, 12156.00
402.0750, 11845.00
403.2710, 11694.00
404.4660, 11568.00
405.6610, 11410.00
406.8560, 11302.00
408.0510, 11143.00
409.2450, 11332.00
410.4400, 11361.00
411.6340, 11336.00
412.8280, 11615.00
414.0220, 11920.00
415.2160, 12454.00
416.4100, 12965.00
417.6030, 13543.00
418.7970, 14319.00
419.9900, 14956.00
421.1830, 15957.00
422.3760, 17034.00
423.5690, 18055.00
424.7610, 18985.00
425.9540, 19837.00
427.1460, 20721.00
428.3380, 21234.00
429.5300, 21374.00
430.7220, 21401.00
431.9140, 21473.00
433.1050, 21287.00
434.2970, 21343.00
435.4880, 21468.00
436.6790, 21699.00
437.8700, 22801.00
439.0610, 24019.00
440.2510, 25686.00
441.4420, 27788.00
442.6320, 30407.00
443.8220, 33710.00
445.0120, 37664.00
446.2020, 41878.00
447.3910, 45881.00
448.5810, 50869.00
449.7700, 54930.00
450.9600, 58472.00
452.1490, 60824.00
453.3370, 61454.00
454.5260, 60699.00
455.7150, 59114.00
456.9030, 56013.00
458.0910, 52623.00
459.2800, 48676.00
460.4670, 45685.00
461.6550, 42170.00
462.8430, 39655.00
464.0300, 37657.00
465.2180, 36047.00
466.4050, 35359.00
467.5920, 34530.00
468.7790, 34283.00
469.9650, 33678.00
471.1520, 33959.00
472.3380, 33948.00
473.5250, 33987.00
474.7110, 34245.00
475.8970, 34071.00
477.0820, 34443.00
478.2680, 34577.00
479.4540, 35021.00
480.6390, 35074.00
481.8240, 35296.00
483.0090, 34979.00
484.1940, 34760.00
485.3780, 33934.00
486.5630, 32785.00
487.7470, 31435.00
488.9320, 29714.00
490.1160, 27914.00
491.3000, 26129.00
492.4830, 24637.00
493.6670, 23274.00
494.8500, 22040.00
496.0340, 20963.00
497.2170, 20312.00
498.4000, 19591.00
499.5820, 19397.00
500.7650, 19114.00
501.9480, 18998.00
503.1300, 18947.00
504.3120, 19025.00
505.4940, 19288.00
506.6760, 19148.00
507.8580, 19435.00
509.0390, 19480.00
510.2210, 19660.00
511.4020, 20052.00
512.5830, 20250.00
513.7640, 20669.00
514.9450, 20964.00
516.1250, 21557.00
517.3060, 21898.00
518.4860, 22292.00
519.6660, 22707.00
520.8460, 23186.00
522.0260, 23386.00
523.2060, 23462.00
524.3850, 23595.00
525.5650, 23625.00
526.7440, 23766.00
527.9230, 23983.00
529.1020, 23681.00
530.2810, 23360.00
531.4590, 22388.00
532.6380, 21300.00
533.8160, 19894.00
534.9940, 18624.00
536.1720, 17296.00
537.3500, 16169.00
538.5270, 15247.00
539.7050, 14438.00
540.8820, 13924.00
542.0590, 13553.00
543.2360, 13291.00
544.4130, 13096.00
545.5900, 12850.00
546.7660, 12768.00
547.9430, 12765.00
549.1190, 12797.00
550.2950, 12842.00
551.4710, 12832.00
552.6470, 13131.00
553.8220, 13360.00
554.9980, 13678.00
556.1730, 13827.00
557.3480, 14518.00
558.5230, 15158.00
559.6980, 15754.00
560.8730, 16966.00
562.0470, 18025.00
563.2220, 19607.00
564.3960, 21344.00
565.5700, 23605.00
566.7440, 25719.00
567.9170, 28336.00
569.0910, 30900.00
570.2640, 33070.00
571.4380, 34058.00
572.6110, 33556.00
573.7840, 31895.00
574.9570, 28813.00
576.1290, 25644.00
577.3020, 22162.00
578.4740, 19604.00
579.6460, 17342.00
580.8180, 16048.00
581.9900, 15138.00
583.1620, 14576.00
584.3330, 14008.00
585.5040, 14019.00
586.6760, 13957.00
587.8470, 14066.00
589.0180, 14027.00
590.1880, 14069.00
591.3590, 14049.00
592.5290, 14372.00
593.7000, 14549.00
594.8700, 14679.00
596.0400, 15031.00
597.2090, 15207.00
598.3790, 15556.00
599.5490, 15845.00
600.7180, 16171.00
601.8870, 16662.00
603.0560, 16978.00
604.2250, 17064.00
605.3940, 17184.00
606.5620, 17083.00
607.7300, 16927.00
608.8990, 16451.00
610.0670, 15959.00
611.2350, 15252.00
612.4020, 14859.00
613.5700, 14521.00
614.7370, 13821.00
615.9050, 13559.00
617.0720, 13204.00
618.2390, 12886.00
619.4060, 12611.00
620.5720, 12522.00
621.7390, 12206.00
622.9050, 12065.00
624.0710, 11826.00
625.2370, 11618.00
626.4030, 11338.00
627.5690, 11352.00
628.7340, 11187.00
629.9000, 11181.00
631.0650, 10971.00
632.2300, 11024.00
633.3950, 11025.00
634.5600, 10926.00
635.7240, 10901.00
636.8890, 10940.00
638.0530, 11009.00
639.2170, 10848.00
640.3810, 10976.00
641.5450, 10863.00
642.7080, 10984.00
643.8720, 11113.00
645.0350, 11374.00
646.1980, 11311.00
647.3610, 11457.00
648.5240, 11828.00
649.6870, 12110.00
650.8490, 12336.00
652.0120, 12564.00
653.1740, 12806.00
654.3360, 13131.00
655.4980, 13323.00
656.6600, 13312.00
657.8210, 13475.00
658.9830, 13370.00
660.1440, 13169.00
661.3050, 13109.00
662.4660, 12924.00
663.6270, 12649.00
664.7870, 12393.00
665.9480, 12460.00
667.1080, 12355.00
668.2680, 12128.00
669.4280, 12097.00
670.5880, 12084.00
671.7480, 11955.00
672.9070, 11958.00
674.0670, 12026.00
675.2260, 11935.00
676.3850, 12096.00
677.5440, 12149.00
678.7030, 12176.00
679.8610, 12309.00
681.0200, 12375.00
682.1780, 12415.00
683.3360, 12767.00
684.4940, 12690.00
685.6520, 12736.00
686.8090, 13029.00
687.9670, 13049.00
689.1240, 12979.00
690.2810, 13023.00
691.4380, 12995.00
692.5950, 13044.00
693.7520, 13061.00
694.9080, 13236.00
696.0650, 13216.00
697.2210, 13214.00
698.3770, 13122.00
699.5330, 13254.00
700.6880, 13160.00
701.8440, 13203.00
702.9990, 13027.00
704.1550, 12853.00
705.3100, 12599.00
706.4650, 12352.00
707.6190, 12205.00
708.7740, 12017.00
709.9290, 11713.00
711.0830, 11524.00
712.2370, 11245.00
713.3910, 11207.00
714.5450, 11012.00
715.6980, 10987.00
716.8520, 10858.00
718.0050, 10869.00
719.1580, 10798.00
720.3110, 10689.00
721.4640, 10686.00
722.6170, 10565.00
723.7700, 10559.00
724.9220, 10540.15
726.0740, 10544.00
727.2260, 10546.00
728.3780, 10496.00
729.5300, 10519.00
730.6810, 10577.00
731.8330, 10433.00
732.9840, 10604.00
734.1350, 10542.00
735.2860, 10440.00
736.4370, 10529.00
737.5880, 10613.00
738.7380, 10540.00
739.8880, 10406.00
741.0390, 10531.00
742.1890, 10444.00
743.3380, 10494.00
744.4880, 10475.00
745.6380, 10488.00
746.7870, 10405.00
747.9360, 10302.00
749.0850, 10447.00
750.2340, 10307.00
751.3830, 10371.00
752.5310, 10258.00
753.6800, 10347.00
754.8280, 10359.00
755.9760, 10351.00
757.1240, 10391.33
758.2720, 10365.00
759.4190, 10398.00
760.5670, 10407.00
761.7140, 10378.00
762.8610, 10441.00
764.0080, 10471.00
765.1550, 10391.00
766.3020, 10291.00
767.4480, 10448.00
768.5950, 10442.00
769.7410, 10333.00
770.8870, 10447.00
772.0330, 10426.00
773.1780, 10542.00
774.3240, 10454.00
775.4690, 10452.00
776.6140, 10388.00
777.7590, 10554.00
778.9040, 10600.00
780.0490, 10510.00
781.1940, 10606.00
782.3380, 10463.00
783.4820, 10596.00
784.6260, 10483.00
785.7700, 10445.00
786.9140, 10557.00
788.0580, 10539.00
789.2010, 10756.00
790.3450, 10722.76
791.4880, 10586.00
792.6310, 10734.00
793.7730, 10725.00
794.9160, 10717.00
796.0590, 10792.00
797.2010, 10726.00
798.3430, 10680.00
799.4850, 10761.00
800.6270, 10755.88
801.7690, 10754.00
802.9100, 10818.00
804.0520, 10895.00
805.1930, 10831.00
806.3340, 10916.00
807.4750, 10854.00
808.6160, 10952.00
809.7560, 11053.00
810.8970, 11130.00
812.0370, 11018.00
813.1770, 11061.00
814.3170, 11032.00
815.4570, 11117.00
816.5960, 11268.00
817.7360, 11244.00
818.8750, 11382.00
820.0140, 11422.00
821.1530, 11383.00
822.2920, 11564.00
823.4310, 11561.00
824.5690, 11632.00
825.7070, 11766.00
826.8460, 11830.00
827.9840, 11968.00
829.1220, 12058.00
830.2590, 12040.00
831.3970, 12091.00
832.5340, 12197.00
833.6710, 12289.00
834.8080, 12344.00
835.9450, 12434.20
837.0820, 12515.02
838.2190, 12584.00
839.3550, 12692.00
840.4910, 12784.00
841.6270, 12889.00
842.7630, 13007.00
843.8990, 13151.00
845.0350, 13233.00
846.1700, 13518.00
847.3060, 13691.00
848.4410, 13826.00
849.5760, 14070.00
850.7100, 14418.00
851.8450, 14630.00
852.9800, 15094.00
854.1140, 15339.00
855.2480, 15764.00
856.3820, 16157.00
857.5160, 16591.23
858.6500, 17094.00
859.7830, 17592.00
860.9170, 18106.00
862.0500, 18681.00
863.1830, 19249.00
864.3160, 19753.00
865.4480, 20602.00
866.5810, 21497.00
867.7130, 22346.00
868.8460, 23592.00
869.9780, 24541.00
871.1100, 25571.00
872.2410, 27030.00
873.3730, 28037.00
874.5050, 29176.00
875.6360, 30633.00
876.7670, 31468.00
877.8980, 32275.00
879.0290, 32854.00
880.1590, 33195.00
881.2900, 32780.00
882.4200, 32043.00
883.5500, 31012.00
884.6800, 29714.00
885.8100, 28549.00
886.9400, 27252.00
888.0690, 25825.00
889.1990, 24742.00
890.3280, 23767.00
891.4570, 22964.00
892.5860, 22170.00
893.7140, 21754.00
894.8430, 21153.00
895.9710, 20777.00
897.1000, 20358.00
898.2280, 19758.00
899.3560, 19201.00
900.4830, 18787.00
901.6110, 18374.03
902.7380, 17906.00
903.8660, 17811.00
904.9930, 17491.00
906.1200, 17407.00
907.2460, 17057.00
908.3730, 17130.00
909.5000, 17001.00
910.6260, 17002.00
911.7520, 17005.00
912.8780, 16712.00
914.0040, 16824.00
915.1290, 16478.00
916.2550, 16349.00
917.3800, 15989.00
918.5050, 15921.00
919.6300, 15589.00
920.7550, 15246.00
921.8800, 15081.00
923.0040, 14859.00
924.1290, 14570.00
925.2530, 14388.00
926.3770, 14239.00
927.5010, 14096.00
928.6250, 14114.00
929.7480, 14086.00
930.8720, 13980.00
931.9950, 13940.20
933.1180, 13715.00
934.2410, 13792.00
935.3640, 13663.00
936.4860, 13634.00
937.6090, 13385.00
938.7310, 13464.00
939.8530, 13493.00
940.9750, 13304.00
942.0970, 13316.00
943.2180, 13202.00
944.3400, 13108.00
945.4610, 13185.00
946.5820, 13095.00
947.7030, 12928.00
948.8240, 12773.00
949.9450, 12795.31
951.0650, 12969.00
952.1860, 12859.00
953.3060, 12873.00
954.4260, 12933.00
955.5460, 12966.00
956.6650, 12985.00
957.7850, 13159.00
958.9040, 13241.00
960.0230, 13341.00
961.1420, 13148.00
962.2610, 13400.00
963.3800, 13501.00
964.4990, 13437.00
965.6170, 13706.00
966.7350, 13735.00
967.8530, 13821.00
968.9710, 13942.00
970.0890, 14194.15
971.2070, 14501.00
972.3240, 14834.00
973.4410, 15290.00
974.5580, 15686.00
975.6750, 16284.00
976.7920, 16930.00
977.9090, 17613.00
979.0250, 18700.00
980.1410, 20008.00
981.2580, 20868.00
982.3740, 21859.00
983.4890, 22682.00
984.6050, 23265.00
985.7200, 23188.00
986.8360, 23108.00
987.9510, 22305.00
989.0660, 21565.00
990.1810, 20468.00
991.2950, 19185.00
992.4100, 18371.00
993.5240, 17355.00
994.6390, 16734.00
995.7530, 16039.00
996.8660, 15399.00
997.9800, 14961.00
999.0940, 14542.00
1000.207, 14327.00
1001.320, 14115.00
1002.433, 13836.00
1003.546, 13578.00
1004.659, 13401.06
1005.772, 13295.00
1006.884, 13077.00
1007.996, 13137.00
1009.108, 13066.00
1010.220, 12990.00
1011.332, 12932.00
1012.444, 12878.00
1013.555, 12917.00
1014.666, 12682.00
1015.777, 12865.00
1016.888, 12771.00
1017.999, 12738.00
1019.110, 12933.00
1020.220, 13015.00
1021.331, 12916.00
1022.441, 13077.00
1023.551, 13063.00
1024.661, 13187.00
1025.770, 13402.00
1026.880, 13453.00
1027.989, 13505.00
1029.098, 13417.00
1030.207, 13498.00
1031.316, 13497.00
1032.425, 13462.00
1033.533, 13371.00
1034.642, 13329.00
1035.750, 13303.00
1036.858, 13152.00
1037.966, 13091.00
1039.073, 13048.00
1040.181, 13008.60
1041.288, 13022.02
1042.396, 13033.00
1043.503, 13063.00
1044.610, 13130.00
1045.716, 13122.00
1046.823, 13139.95
1047.929, 13137.37
1049.036, 13109.00
1050.142, 13129.00
1051.248, 13065.00
1052.353, 13113.00
1053.459, 13083.00
1054.564, 13024.00
1055.670, 13149.00
1056.775, 13134.00
1057.880, 13051.00
1058.985, 13226.00
1060.089, 13369.00
1061.194, 13392.00
1062.298, 13232.00
1063.402, 13339.00
1064.506, 13284.00
1065.610, 13485.00
1066.713, 13527.00
1067.817, 13618.00
1068.920, 13775.00
1070.023, 13875.00
1071.126, 14126.00
1072.229, 14435.00
1073.332, 14603.00
1074.435, 14674.00
1075.537, 15000.00
1076.639, 15221.00
1077.741, 15701.00
1078.843, 15969.00
1079.945, 16394.00
1081.046, 16923.00
1082.148, 17498.00
1083.249, 18202.00
1084.350, 18972.00
1085.451, 19933.00
1086.551, 20884.00
1087.652, 21950.00
1088.752, 23177.00
1089.853, 24386.00
1090.953, 25680.00
1092.053, 26565.00
1093.152, 27021.00
1094.252, 27139.00
1095.351, 26236.00
1096.451, 24876.00
1097.550, 23269.00
1098.649, 21357.00
1099.748, 19669.00
1100.846, 18265.00
1101.945, 17259.00
1103.043, 16465.00
1104.141, 15787.00
1105.239, 15544.00
1106.337, 15206.00
1107.434, 15011.00
1108.532, 14840.00
1109.629, 14649.00
1110.726, 14515.00
1111.823, 14378.00
1112.920, 14272.62
1114.017, 14168.09
1115.113, 14120.00
1116.210, 14048.00
1117.306, 14005.00
1118.402, 14076.00
1119.498, 13917.00
1120.593, 13869.00
1121.689, 13921.00
1122.784, 13708.00
1123.879, 13777.00
1124.974, 13619.00
1126.069, 13409.00
1127.164, 13411.00
1128.259, 13283.00
1129.353, 13294.00
1130.447, 13347.00
1131.541, 13173.00
1132.635, 13091.00
1133.729, 12958.00
1134.822, 13125.00
1135.916, 13118.00
1137.009, 12921.00
1138.102, 13118.00
1139.195, 13023.00
1140.288, 13204.00
1141.380, 13052.00
1142.473, 13024.00
1143.565, 12857.00
1144.657, 12982.00
1145.749, 12930.00
1146.841, 12918.00
1147.932, 12834.00
1149.024, 12983.00
1150.115, 12880.00
1151.206, 13037.00
1152.297, 12987.00
1153.388, 12774.00
1154.479, 12961.00
1155.569, 12758.00
1156.659, 13023.00
1157.750, 12889.00
1158.839, 12773.00
1159.929, 12829.00
1161.019, 12888.00
1162.108, 12850.00
1163.198, 12880.20
1164.287, 12848.00
1165.376, 12858.00
1166.465, 12825.00
1167.553, 12800.00
1168.642, 12853.00
1169.730, 12865.00
1170.818, 12857.00
1171.906, 12842.00
1172.994, 12916.00
1174.082, 12760.00
1175.170, 12896.00
1176.257, 12838.00
1177.344, 12911.00
1178.431, 12875.00
1179.518, 12786.00
1180.605, 13009.00
1181.691, 12894.00
1182.778, 12878.00
1183.864, 13012.00
1184.950, 12905.00
1186.036, 12850.00
1187.122, 12977.00
1188.207, 12940.00
1189.292, 12937.00
1190.378, 12908.00
1191.463, 12880.00
1192.548, 12874.58
1193.632, 12896.00
1194.717, 12882.00
1195.801, 12960.00
1196.886, 13033.00
1197.970, 12856.00
1199.054, 13068.00
1200.137, 12955.00
1201.221, 12916.00
1202.305, 13019.00
1203.388, 12936.00
1204.471, 12892.00
1205.554, 12915.00
1206.637, 12884.00
1207.719, 13007.00
1208.802, 13050.00
1209.884, 12953.00
1210.966, 12909.00
1212.048, 12912.00
1213.130, 12910.00
1214.212, 12904.00
1215.293, 12963.00
1216.374, 12964.00
1217.456, 12909.00
1218.536, 12873.00
1219.617, 12939.00
1220.698, 13026.00
1221.778, 12967.00
1222.859, 13040.38
1223.939, 13205.00
1225.019, 13050.00
1226.099, 13088.00
1227.178, 13009.00
1228.258, 12948.00
1229.337, 12990.00
1230.417, 13042.00
1231.496, 13009.75
1232.574, 13040.75
1233.653, 13006.00
1234.732, 12996.00
1235.810, 13001.00
1236.888, 12983.47
1237.966, 12902.00
1239.044, 12982.00
1240.122, 12940.00
1241.199, 12953.00
1242.277, 12996.00
1243.354, 12956.00
1244.431, 12959.00
1245.508, 12913.00
1246.585, 12938.00
1247.661, 12990.00
1248.738, 13035.00
1249.814, 12979.00
1250.890, 13005.00
1251.966, 12965.00
1253.042, 13050.00
1254.117, 13036.00
1255.193, 13100.00
1256.268, 12851.00
1257.343, 12958.00
1258.418, 12957.00
1259.493, 13063.00
1260.567, 12958.00
1261.642, 13086.00
1262.716, 13114.00
1263.790, 13058.00
1264.864, 13150.00
1265.938, 13085.00
1267.011, 13151.00
1268.085, 13117.00
1269.158, 13130.00
1270.231, 13131.70
1271.304, 13170.00
1272.377, 13105.00
1273.450, 13047.00
1274.522, 13014.00
1275.594, 13204.00
1276.666, 13206.00
1277.738, 13032.00
1278.810, 13178.00
1279.882, 13087.00
1280.953, 13012.00
1282.025, 13194.00
1283.096, 13154.00
1284.167, 13010.00
1285.238, 13170.00
1286.308, 13101.00
1287.379, 13161.00
1288.449, 13035.00
1289.519, 13029.00
1290.589, 13067.00
1291.659, 13296.00
1292.729, 13069.00
1293.798, 13191.00
1294.868, 13133.00
1295.937, 13140.00
1297.006, 13222.00
1298.075, 13184.00
1299.143, 13142.00
1300.212, 13195.00
1301.280, 13144.00
1302.348, 13141.00
1303.416, 13273.00
1304.484, 13332.00
1305.552, 13169.00
1306.620, 13268.00
1307.687, 13147.00
1308.754, 13177.00
1309.821, 13169.00
1310.888, 13179.86
1311.955, 13232.00
1313.021, 13259.00
1314.088, 13309.00
1315.154, 13327.00
1316.220, 13264.00
1317.286, 13266.00
1318.352, 13423.00
1319.417, 13327.00
1320.483, 13401.00
1321.548, 13395.00
1322.613, 13360.00
1323.678, 13378.00
1324.743, 13363.00
1325.807, 13367.15
1326.872, 13392.00
1327.936, 13425.00
1329.000, 13360.00
1330.064, 13473.00
1331.128, 13451.00
1332.191, 13539.00
1333.255, 13564.00
1334.318, 13475.00
1335.381, 13452.00
1336.444, 13350.00
1337.507, 13458.00
1338.569, 13468.00
1339.632, 13530.00
1340.694, 13558.20
1341.756, 13478.00
1342.818, 13545.00
1343.880, 13634.00
1344.941, 13532.00
1346.003, 13689.00
1347.064, 13458.00
1348.125, 13684.00
1349.186, 13486.00
1350.247, 13659.00
1351.308, 13591.00
1352.368, 13600.00
1353.428, 13554.00
1354.489, 13588.00
1355.549, 13589.00
1356.608, 13604.00
1357.668, 13608.00
1358.727, 13679.00
1359.787, 13789.00
1360.846, 13624.00
1361.905, 13706.00
1362.964, 13584.00
1364.022, 13733.00
1365.081, 13838.00
1366.139, 13800.00
1367.197, 13744.00
1368.255, 13732.00
1369.313, 13629.00
1370.371, 13640.00
1371.428, 13708.00
1372.486, 13786.00
1373.543, 13715.00
1374.600, 13726.00
1375.657, 13759.00
1376.713, 13763.00
1377.770, 13620.00
1378.826, 13692.00
1379.882, 13860.00
1380.938, 13747.00
1381.994, 13954.00
1383.050, 13848.00
1384.106, 13652.00
1385.161, 13802.00
1386.216, 13716.00
1387.271, 13798.00
1388.326, 13792.00
1389.381, 13705.00
1390.435, 13800.00
1391.490, 13721.00
1392.544, 13719.00
1393.598, 13673.00
1394.652, 13796.00
1395.705, 13890.00
1396.759, 13796.00
1397.812, 13837.00
1398.866, 13812.00
1399.919, 13933.00
1400.972, 13861.00
1402.024, 13936.00
1403.077, 13914.00
1404.129, 13822.00
1405.181, 13927.00
1406.233, 13882.00
1407.285, 13857.00
1408.337, 13781.00
1409.389, 13826.00
1410.440, 13860.00
1411.491, 13738.00
1412.542, 13988.00
1413.593, 13861.00
1414.644, 13816.00
1415.695, 13969.00
1416.745, 13886.00
1417.795, 13832.00
1418.845, 13848.00
1419.895, 13950.00
1420.945, 13872.00
1421.995, 13900.00
1423.044, 13976.00
1424.093, 13928.00
1425.142, 14035.00
1426.191, 13926.00
1427.240, 13992.00
1428.289, 13942.00
1429.337, 14097.00
1430.385, 13897.00
1431.433, 13980.00
1432.481, 14095.00
1433.529, 14057.00
1434.577, 14107.88
1435.624, 14058.00
1436.672, 14087.00
1437.719, 13983.00
1438.766, 13933.00
1439.812, 14101.00
1440.859, 14060.00
1441.905, 13942.00
1442.952, 14082.00
1443.998, 14001.00
1445.044, 13998.00
1446.090, 14092.00
1447.135, 14064.00
1448.181, 14044.00
1449.226, 13915.00
1450.271, 13996.50
1451.316, 14217.00
1452.361, 14064.00
1453.405, 14245.00
1454.450, 14191.00
1455.494, 14027.00
1456.538, 14198.00
1457.582, 14166.00
1458.626, 14112.00
1459.670, 14180.00
1460.713, 14065.00
1461.757, 14016.00
1462.800, 14135.00
1463.843, 14156.00
1464.886, 14143.00
1465.928, 14144.00
1466.971, 14275.00
1468.013, 14158.00
1469.055, 14038.00
1470.097, 14184.00
1471.139, 14165.00
1472.181, 14023.00
1473.222, 14185.00
1474.263, 14172.00
1475.305, 14082.00
1476.346, 14183.00
1477.386, 14402.00
1478.427, 14150.00
1479.468, 14300.00
1480.508, 14272.00
1481.548, 14187.00
1482.588, 14087.00
1483.628, 14093.00
1484.668, 14212.00
1485.707, 14324.00
1486.747, 14312.00
1487.786, 14187.00
1488.825, 14195.00
1489.864, 14239.00
1490.902, 14429.00
1491.941, 14176.00
1492.979, 14382.00
1494.017, 14270.00
1495.055, 14423.00
1496.093, 14321.00
1497.131, 14292.00
1498.168, 14524.00
1499.206, 14403.00
1500.243, 14287.00
1501.280, 14356.00
1502.317, 14420.00
1503.354, 14479.00
1504.390, 14438.00
1505.426, 14429.00
1506.463, 14417.82
1507.499, 14388.60
1508.535, 14354.00
1509.570, 14359.00
1510.606, 14317.00
1511.641, 14331.00
1512.676, 14318.00
1513.711, 14360.53
1514.746, 14370.10
1515.781, 14468.00
1516.816, 14427.00
1517.850, 14468.00
1518.884, 14517.00
1519.918, 14443.00
1520.952, 14405.00
1521.986, 14451.00
1523.019, 14441.00
1524.053, 14522.00
1525.086, 14615.00
1526.119, 14525.00
1527.152, 14568.00
1528.185, 14546.00
1529.217, 14536.00
1530.250, 14533.00
1531.282, 14493.28
1532.314, 14594.00
1533.346, 14425.00
1534.377, 14570.00
1535.409, 14563.00
1536.440, 14536.00
1537.472, 14501.00
1538.503, 14541.00
1539.534, 14628.00
1540.564, 14613.00
1541.595, 14590.00
1542.625, 14665.00
1543.656, 14506.00
1544.686, 14667.00
1545.716, 14675.00
1546.745, 14564.00
1547.775, 14516.00
1548.804, 14566.00
1549.834, 14734.00
1550.863, 14721.00
1551.892, 14865.00
1552.920, 14877.00
1553.949, 14797.00
1554.977, 14801.00
1556.006, 14692.00
1557.034, 14752.00
1558.062, 14632.00
1559.089, 14822.00
1560.117, 14753.00
1561.144, 14629.00
1562.172, 14720.00
1563.199, 14842.00
1564.226, 14907.00
1565.252, 14864.00
1566.279, 14917.34
1567.305, 14899.99
1568.332, 14904.00
1569.358, 14848.00
1570.384, 14839.00
1571.409, 14764.00
1572.435, 14764.00
##END=



