##NAMES=Clinoptilolite-Na
##RRUFFID=R061099
##IDEAL CHEMISTRY=Na_6_(Si_30_Al_6_)O_72_&#183;20H_2_O
##LOCALITY=Richardson Ranch, Madras, Jefferson County, Oregon, USA
##OWNER=RRUFF
##SOURCE=Michael Scott
##DESCRIPTION=Red-brown to salmon, somewhat coffin shaped tabular crystals in a fragmented geode
##STATUS=The identification of this mineral has been confirmed by X-ray diffraction and chemical analysis
##URL=rruff.info/R061099
##MEASURED CHEMISTRY=(Na_2.70_Ca_1.46_K_0.89_Fe_0.08_Mg_0.02_)_Σ=5.15_(Si_29.29_Al_6.71_)O_72_·18.51H_2_O
##PIN_ID=M01022
##ORIENTATION=Laser parallel to a* (1 0 0). Fiducial mark perpendicular to laser is parallel to b [0 1 0]
93.07300, 3700.000
94.30700, 4222.000
95.54100, 4945.000
96.77500, 5766.000
98.00900, 6665.000
99.24300, 7370.000
100.4770, 8317.000
101.7100, 9154.000
102.9440, 9991.000
104.1770, 10733.00
105.4100, 11717.00
106.6430, 12584.00
107.8750, 13225.00
109.1080, 14014.00
110.3400, 14741.00
111.5720, 14899.00
112.8040, 15164.00
114.0360, 15455.00
115.2680, 15897.00
116.5000, 16282.00
117.7310, 16638.00
118.9620, 16808.00
120.1940, 16837.00
121.4250, 16974.00
122.6550, 16949.00
123.8860, 17107.00
125.1170, 17045.00
126.3470, 16930.00
127.5770, 16978.00
128.8070, 16953.00
130.0370, 17021.00
131.2670, 16798.00
132.4970, 16839.00
133.7260, 16842.00
134.9550, 16684.00
136.1850, 16990.00
137.4140, 17186.00
138.6420, 16959.00
139.8710, 17299.00
141.1000, 17272.00
142.3280, 17210.00
143.5560, 17361.00
144.7840, 17376.00
146.0120, 17254.00
147.2400, 17251.00
148.4680, 17105.00
149.6950, 17172.00
150.9220, 17193.00
152.1500, 17004.24
153.3770, 17035.43
154.6030, 16766.00
155.8300, 16723.00
157.0570, 16820.00
158.2830, 16267.00
159.5090, 16287.00
160.7350, 16228.00
161.9610, 16259.00
163.1870, 15853.00
164.4130, 15813.00
165.6380, 15517.00
166.8630, 15485.00
168.0880, 15123.00
169.3130, 15090.00
170.5380, 14813.00
171.7630, 14723.00
172.9870, 14649.00
174.2120, 14545.00
175.4360, 14497.00
176.6600, 14343.00
177.8840, 14320.00
179.1080, 14094.00
180.3310, 14067.00
181.5550, 14037.00
182.7780, 14094.00
184.0010, 14105.00
185.2240, 14122.51
186.4470, 14169.00
187.6700, 14177.00
188.8920, 14225.00
190.1150, 14266.00
191.3370, 14219.00
192.5590, 14320.00
193.7810, 14395.00
195.0020, 14478.00
196.2240, 14395.00
197.4450, 14316.00
198.6670, 14322.00
199.8880, 14270.00
201.1090, 14175.00
202.3300, 14202.00
203.5500, 14058.00
204.7710, 13932.00
205.9910, 13722.00
207.2110, 13589.71
208.4310, 13373.00
209.6510, 13302.00
210.8710, 13080.00
212.0910, 12992.00
213.3100, 12987.00
214.5290, 12800.00
215.7480, 12826.00
216.9670, 12796.00
218.1860, 12771.00
219.4050, 12733.97
220.6230, 12556.00
221.8420, 12618.00
223.0600, 12586.00
224.2780, 12516.00
225.4960, 12575.00
226.7130, 12489.00
227.9310, 12539.00
229.1480, 12459.00
230.3660, 12549.00
231.5830, 12544.00
232.8000, 12462.00
234.0160, 12581.00
235.2330, 12619.00
236.4490, 12697.00
237.6660, 12740.71
238.8820, 12676.00
240.0980, 12831.00
241.3140, 12882.00
242.5300, 12984.00
243.7450, 13165.00
244.9600, 13098.00
246.1760, 13231.00
247.3910, 13279.00
248.6060, 13391.00
249.8200, 13340.00
251.0350, 13639.00
252.2500, 13552.00
253.4640, 13894.00
254.6780, 13759.00
255.8920, 13842.00
257.1060, 13736.00
258.3190, 13759.00
259.5330, 13947.00
260.7460, 13852.25
261.9600, 13811.00
263.1730, 13877.00
264.3850, 13868.00
265.5980, 13957.00
266.8110, 13980.73
268.0230, 13917.00
269.2360, 14036.00
270.4480, 14012.00
271.6600, 13985.00
272.8710, 14026.00
274.0830, 13982.00
275.2950, 13981.39
276.5060, 14102.00
277.7170, 14004.00
278.9280, 14055.00
280.1390, 14183.00
281.3500, 14171.00
282.5600, 14086.00
283.7710, 14179.00
284.9810, 14147.00
286.1910, 14004.00
287.4010, 14094.00
288.6110, 14048.00
289.8200, 13944.00
291.0300, 14124.00
292.2390, 14004.00
293.4480, 14152.00
294.6570, 13938.00
295.8660, 14034.00
297.0750, 13941.00
298.2830, 13901.00
299.4920, 13994.00
300.7000, 13909.00
301.9080, 14027.00
303.1160, 13870.00
304.3240, 14037.00
305.5310, 13911.00
306.7390, 13959.00
307.9460, 13990.00
309.1530, 14045.00
310.3600, 14013.00
311.5670, 14059.00
312.7740, 13919.00
313.9800, 14132.00
315.1870, 14149.00
316.3930, 14206.00
317.5990, 14393.00
318.8050, 14202.00
320.0110, 14300.00
321.2160, 14336.00
322.4220, 14505.00
323.6270, 14469.00
324.8320, 14631.00
326.0370, 14550.00
327.2420, 14795.00
328.4460, 14784.00
329.6510, 14808.00
330.8550, 14676.00
332.0590, 14916.00
333.2630, 14811.00
334.4670, 14794.00
335.6710, 14754.00
336.8740, 14880.00
338.0780, 14767.00
339.2810, 14935.00
340.4840, 14969.00
341.6870, 15070.00
342.8900, 15288.00
344.0920, 15340.22
345.2950, 15341.00
346.4970, 15489.00
347.6990, 15640.00
348.9010, 15558.00
350.1030, 15866.00
351.3050, 15785.00
352.5060, 15907.00
353.7080, 16052.00
354.9090, 16267.00
356.1100, 16451.00
357.3110, 16738.00
358.5110, 16957.00
359.7120, 16970.00
360.9120, 17148.00
362.1130, 17470.00
363.3130, 17525.00
364.5130, 17850.00
365.7120, 17957.00
366.9120, 18244.00
368.1120, 18476.00
369.3110, 18857.00
370.5100, 19234.00
371.7090, 19283.00
372.9080, 19626.00
374.1070, 19742.00
375.3050, 19998.00
376.5040, 20379.00
377.7020, 20576.00
378.9000, 20982.00
380.0980, 21334.00
381.2950, 21790.00
382.4930, 22264.00
383.6910, 22606.00
384.8880, 23185.00
386.0850, 23741.00
387.2820, 24580.00
388.4790, 25118.00
389.6750, 25988.00
390.8720, 26576.00
392.0680, 27410.00
393.2640, 28456.00
394.4600, 29090.00
395.6560, 30425.00
396.8520, 31687.00
398.0480, 32354.00
399.2430, 33273.00
400.4380, 34487.00
401.6330, 34686.00
402.8280, 35565.00
404.0230, 35698.00
405.2180, 35766.00
406.4120, 35799.00
407.6060, 35388.00
408.8000, 34739.00
409.9940, 33981.00
411.1880, 33239.37
412.3820, 31949.00
413.5750, 31371.00
414.7690, 30287.00
415.9620, 29073.00
417.1550, 28280.00
418.3480, 27000.00
419.5410, 26376.00
420.7330, 25325.00
421.9260, 24390.00
423.1180, 23524.00
424.3100, 22575.00
425.5020, 21935.00
426.6940, 20982.00
427.8850, 20452.00
429.0770, 19774.00
430.2680, 19199.00
431.4590, 18747.00
432.6500, 18282.00
433.8410, 17713.00
435.0320, 17288.00
436.2220, 16952.00
437.4130, 16831.00
438.6030, 16343.00
439.7930, 16331.00
440.9830, 16338.00
442.1730, 16088.00
443.3620, 15881.00
444.5520, 15906.00
445.7410, 15855.00
446.9300, 15883.00
448.1190, 15998.00
449.3080, 15998.00
450.4960, 16187.00
451.6850, 16379.00
452.8730, 16744.00
454.0610, 16867.00
455.2490, 17189.00
456.4370, 17568.00
457.6250, 17855.00
458.8130, 18244.00
460.0000, 18720.00
461.1870, 19270.00
462.3740, 19787.00
463.5610, 20269.00
464.7480, 20471.00
465.9340, 20878.00
467.1210, 21064.00
468.3070, 21378.00
469.4930, 21547.00
470.6790, 21705.00
471.8650, 22050.00
473.0510, 22179.00
474.2360, 22636.00
475.4210, 23350.00
476.6070, 23944.00
477.7920, 24133.00
478.9770, 25003.00
480.1610, 26085.00
481.3460, 25823.00
482.5300, 26144.00
483.7140, 26025.00
484.8980, 25544.00
486.0820, 25354.00
487.2660, 24358.00
488.4500, 23499.00
489.6330, 22792.00
490.8160, 21553.00
492.0000, 20486.00
493.1830, 19666.00
494.3650, 18608.00
495.5480, 17604.00
496.7300, 16961.00
497.9130, 16519.00
499.0950, 15822.00
500.2770, 15622.00
501.4590, 15123.00
502.6410, 14874.00
503.8220, 14438.00
505.0030, 14272.00
506.1850, 14227.00
507.3660, 13990.00
508.5470, 13730.00
509.7270, 13616.00
510.9080, 13645.00
512.0880, 13608.00
513.2690, 13495.00
514.4490, 13433.00
515.6290, 13184.00
516.8090, 13425.00
517.9880, 13221.00
519.1680, 13285.00
520.3470, 13046.00
521.5260, 13108.00
522.7050, 13320.00
523.8840, 13083.00
525.0630, 13052.00
526.2410, 13163.00
527.4200, 13077.00
528.5980, 13111.00
529.7760, 13125.00
530.9540, 12954.00
532.1320, 12942.00
533.3090, 12930.00
534.4870, 12909.00
535.6640, 12926.56
536.8410, 12929.00
538.0180, 12947.00
539.1950, 12906.00
540.3710, 12878.00
541.5480, 12898.00
542.7240, 12837.00
543.9000, 13030.00
545.0760, 12861.00
546.2520, 12815.00
547.4280, 12924.00
548.6040, 12835.00
549.7790, 12862.00
550.9540, 12761.00
552.1290, 12745.00
553.3040, 12748.29
554.4790, 12964.00
555.6530, 12767.00
556.8280, 12905.00
558.0020, 12943.00
559.1760, 12816.00
560.3500, 12917.00
561.5240, 12935.00
562.6980, 12918.00
563.8710, 12931.00
565.0440, 12929.00
566.2170, 12853.00
567.3900, 12885.68
568.5630, 12897.00
569.7360, 12875.00
570.9090, 12978.00
572.0810, 12938.00
573.2530, 12995.00
574.4250, 13154.00
575.5970, 13154.00
576.7690, 13121.00
577.9400, 13181.00
579.1120, 13151.00
580.2830, 13139.00
581.4540, 13240.00
582.6250, 13057.00
583.7960, 13351.00
584.9660, 13374.00
586.1370, 13392.00
587.3070, 13328.00
588.4770, 13461.00
589.6470, 13534.00
590.8170, 13621.00
591.9870, 13574.00
593.1560, 13549.00
594.3260, 13752.00
595.4950, 13780.00
596.6640, 13887.00
597.8330, 13869.00
599.0010, 14059.00
600.1700, 14015.00
601.3380, 14216.00
602.5070, 14418.00
603.6750, 14637.00
604.8430, 14816.92
606.0100, 14795.00
607.1780, 15162.00
608.3450, 15316.00
609.5130, 15438.00
610.6800, 15745.00
611.8470, 15722.00
613.0140, 15922.00
614.1800, 16017.00
615.3470, 16032.00
616.5130, 16072.00
617.6790, 16041.32
618.8450, 16033.00
620.0110, 15907.00
621.1770, 15949.00
622.3420, 15833.00
623.5080, 15862.00
624.6730, 15573.00
625.8380, 15449.00
627.0030, 15169.00
628.1680, 15124.00
629.3320, 14839.00
630.4970, 14876.00
631.6610, 14676.00
632.8250, 14521.00
633.9890, 14300.00
635.1530, 14202.31
636.3160, 14099.00
637.4800, 14057.00
638.6430, 13983.00
639.8060, 14029.00
640.9690, 13995.00
642.1320, 13918.00
643.2950, 13917.00
644.4570, 13777.00
645.6200, 13850.00
646.7820, 13644.00
647.9440, 13761.00
649.1060, 13759.00
650.2670, 13598.00
651.4290, 13774.00
652.5900, 13680.00
653.7520, 13709.00
654.9130, 13605.00
656.0740, 13624.00
657.2340, 13466.00
658.3950, 13634.00
659.5550, 13490.00
660.7160, 13586.00
661.8760, 13529.00
663.0360, 13552.00
664.1960, 13412.00
665.3550, 13399.00
666.5150, 13434.00
667.6740, 13375.00
668.8330, 13410.96
669.9920, 13413.89
671.1510, 13449.00
672.3100, 13438.00
673.4680, 13462.00
674.6270, 13464.00
675.7850, 13431.00
676.9430, 13500.41
678.1010, 13622.00
679.2590, 13592.00
680.4160, 13579.00
681.5740, 13568.00
682.7310, 13474.00
683.8880, 13539.00
685.0450, 13448.00
686.2020, 13474.59
687.3580, 13527.00
688.5150, 13514.00
689.6710, 13575.00
690.8270, 13610.00
691.9830, 13611.00
693.1390, 13455.00
694.2950, 13612.00
695.4500, 13503.00
696.6050, 13565.00
697.7610, 13577.00
698.9160, 13684.00
700.0710, 13604.00
701.2250, 13592.00
702.3800, 13628.00
703.5340, 13632.00
704.6880, 13580.00
705.8420, 13604.00
706.9960, 13545.00
708.1500, 13654.00
709.3040, 13637.00
710.4570, 13705.00
711.6100, 13607.00
712.7640, 13711.00
713.9160, 13791.00
715.0690, 13870.00
716.2220, 13560.00
717.3740, 13749.00
718.5270, 13669.00
719.6790, 13603.00
720.8310, 13710.00
721.9830, 13818.00
723.1340, 13600.00
724.2860, 13711.00
725.4370, 13780.00
726.5880, 13809.00
727.7390, 13886.00
728.8900, 13817.00
730.0410, 13773.00
731.1910, 13600.00
732.3420, 13690.00
733.4920, 13652.00
734.6420, 13870.00
735.7920, 13759.00
736.9420, 13687.00
738.0910, 13832.00
739.2410, 13699.00
740.3900, 13735.00
741.5390, 13726.00
742.6880, 13834.00
743.8370, 13797.00
744.9860, 13799.00
746.1340, 13823.00
747.2820, 13809.70
748.4310, 13858.00
749.5790, 13846.00
750.7260, 13904.00
751.8740, 13979.00
753.0220, 13861.00
754.1690, 13989.00
755.3160, 14039.00
756.4630, 13952.00
757.6100, 14051.00
758.7570, 14056.00
759.9030, 14079.00
761.0500, 14024.00
762.1960, 14106.00
763.3420, 14094.77
764.4880, 14162.00
765.6340, 14163.00
766.7790, 14125.00
767.9250, 14219.00
769.0700, 14296.00
770.2150, 14205.00
771.3600, 14452.00
772.5050, 14350.00
773.6490, 14417.00
774.7940, 14391.00
775.9380, 14452.00
777.0820, 14430.00
778.2260, 14482.00
779.3700, 14551.00
780.5140, 14456.00
781.6570, 14551.00
782.8010, 14727.00
783.9440, 14476.00
785.0870, 14468.00
786.2300, 14479.00
787.3720, 14611.00
788.5150, 14651.00
789.6570, 14564.00
790.8000, 14437.00
791.9420, 14451.00
793.0840, 14456.00
794.2250, 14386.00
795.3670, 14468.00
796.5080, 14265.00
797.6500, 14346.00
798.7910, 14346.00
799.9320, 14402.00
801.0720, 14453.00
802.2130, 14334.00
803.3530, 14406.00
804.4940, 14326.00
805.6340, 14265.00
806.7740, 14335.00
807.9140, 14427.00
809.0530, 14281.00
810.1930, 14617.00
811.3320, 14323.00
812.4710, 14602.00
813.6100, 14377.00
814.7490, 14416.00
815.8880, 14661.00
817.0270, 14658.00
818.1650, 14573.00
819.3030, 14515.00
820.4410, 14571.00
821.5790, 14679.00
822.7170, 14479.00
823.8540, 14518.00
824.9920, 14466.00
826.1290, 14440.00
827.2660, 14365.00
828.4030, 14503.00
829.5400, 14261.00
830.6760, 14380.00
831.8130, 14199.00
832.9490, 14322.00
834.0850, 14251.00
835.2210, 14339.00
836.3570, 14171.00
837.4930, 14283.00
838.6280, 14193.00
839.7640, 14250.00
840.8990, 14154.00
842.0340, 14220.00
843.1690, 14442.00
844.3030, 14283.00
845.4380, 14108.00
846.5720, 14327.00
847.7060, 14301.00
848.8400, 14359.00
849.9740, 14369.00
851.1080, 14509.00
852.2420, 14395.00
853.3750, 14304.00
854.5080, 14508.00
855.6410, 14383.00
856.7740, 14396.00
857.9070, 14211.00
859.0400, 14416.00
860.1720, 14388.00
861.3040, 14515.00
862.4360, 14584.00
863.5680, 14411.00
864.7000, 14392.00
865.8320, 14392.00
866.9630, 14452.00
868.0950, 14446.00
869.2260, 14430.00
870.3570, 14344.00
871.4880, 14479.00
872.6180, 14378.00
873.7490, 14462.00
874.8790, 14365.00
876.0090, 14626.00
877.1390, 14400.00
878.2690, 14485.00
879.3990, 14385.00
880.5280, 14475.00
881.6580, 14484.71
882.7870, 14545.00
883.9160, 14528.00
885.0450, 14492.00
886.1740, 14462.46
887.3020, 14487.08
888.4310, 14488.00
889.5590, 14535.00
890.6870, 14562.00
891.8150, 14567.00
892.9430, 14552.00
894.0700, 14577.00
895.1980, 14436.00
896.3250, 14692.00
897.4520, 14624.00
898.5790, 14422.00
899.7060, 14627.00
900.8330, 14742.00
901.9590, 14576.00
903.0850, 14623.00
904.2120, 14801.00
905.3380, 14768.00
906.4630, 14641.00
907.5890, 14637.00
908.7150, 14725.00
909.8400, 14727.00
910.9650, 14764.00
912.0900, 14755.00
913.2150, 14741.00
914.3400, 14779.66
915.4640, 14727.00
916.5890, 14815.00
917.7130, 14813.00
918.8370, 14786.00
919.9610, 14796.00
921.0850, 14923.00
922.2080, 14889.00
923.3320, 14689.00
924.4550, 15031.00
925.5780, 15169.00
926.7010, 14946.00
927.8240, 14863.00
928.9460, 15098.00
930.0690, 15059.00
931.1910, 14984.00
932.3130, 15147.00
933.4350, 15071.00
934.5570, 15050.00
935.6790, 15073.00
936.8000, 14994.00
937.9220, 14945.00
939.0430, 15022.00
940.1640, 14984.64
941.2850, 15058.00
942.4050, 15078.00
943.5260, 15173.00
944.6460, 15337.00
945.7660, 15294.00
946.8860, 15347.00
948.0060, 15192.00
949.1260, 15387.00
950.2460, 15384.00
951.3650, 15228.00
952.4840, 15437.00
953.6030, 15285.00
954.7220, 15450.00
955.8410, 15377.00
956.9590, 15576.00
958.0780, 15352.00
959.1960, 15363.00
960.3140, 15394.00
961.4320, 15396.00
962.5500, 15521.00
963.6680, 15401.00
964.7850, 15319.00
965.9020, 15637.00
967.0190, 15612.00
968.1360, 15593.00
969.2530, 15640.00
970.3700, 15698.00
971.4860, 15600.00
972.6030, 15618.00
973.7190, 15822.00
974.8350, 15794.00
975.9510, 15929.00
977.0660, 15773.00
978.1820, 15937.00
979.2970, 15835.00
980.4130, 15763.00
981.5280, 15828.00
982.6420, 15867.00
983.7570, 15901.00
984.8720, 15848.00
985.9860, 15783.00
987.1000, 15917.00
988.2140, 15837.00
989.3280, 16104.00
990.4420, 15846.00
991.5560, 16015.00
992.6690, 16117.00
993.7820, 16033.00
994.8950, 15880.00
996.0080, 16149.00
997.1210, 15995.00
998.2340, 16035.00
999.3460, 16167.00
1000.458, 16078.00
1001.571, 16123.00
1002.683, 16300.00
1003.794, 16256.00
1004.906, 16136.00
1006.017, 16246.00
1007.129, 16292.00
1008.240, 16396.00
1009.351, 16429.07
1010.462, 16478.00
1011.572, 16500.00
1012.683, 16506.00
1013.793, 16556.00
1014.904, 16550.38
1016.014, 16547.00
1017.123, 16513.00
1018.233, 16568.00
1019.343, 16457.00
1020.452, 16537.00
1021.561, 16541.00
1022.670, 16590.00
1023.779, 16486.00
1024.888, 16506.00
1025.997, 16546.00
1027.105, 16391.00
1028.213, 16588.00
1029.321, 16544.00
1030.429, 16807.00
1031.537, 16762.00
1032.645, 16634.00
1033.752, 16706.00
1034.859, 16568.00
1035.966, 16649.00
1037.073, 16671.00
1038.180, 16705.00
1039.287, 16489.00
1040.393, 16709.00
1041.500, 16865.00
1042.606, 16662.00
1043.712, 16753.00
1044.818, 16766.00
1045.923, 16788.00
1047.029, 16810.00
1048.134, 16621.00
1049.239, 16847.00
1050.344, 16887.00
1051.449, 16723.00
1052.554, 16852.00
1053.658, 16700.00
1054.763, 16923.00
1055.867, 16779.00
1056.971, 16899.00
1058.075, 16814.00
1059.179, 16880.00
1060.282, 16955.00
1061.385, 16782.00
1062.489, 16703.00
1063.592, 16804.00
1064.695, 16843.00
1065.797, 16698.00
1066.900, 16803.00
1068.002, 16826.00
1069.105, 16776.00
1070.207, 16916.00
1071.309, 17005.00
1072.411, 17091.00
1073.512, 16948.00
1074.614, 16892.00
1075.715, 16949.00
1076.816, 16984.00
1077.917, 17002.00
1079.018, 16935.00
1080.118, 17107.00
1081.219, 17069.00
1082.319, 17072.00
1083.419, 17167.00
1084.519, 17274.00
1085.619, 17220.00
1086.719, 17363.00
1087.818, 17295.00
1088.918, 17417.00
1090.017, 17616.00
1091.116, 17472.00
1092.215, 17600.00
1093.314, 17709.00
1094.412, 17762.00
1095.510, 17561.00
1096.609, 17849.00
1097.707, 17709.00
1098.805, 17837.00
1099.902, 17897.00
1101.000, 17962.00
1102.097, 18028.68
1103.195, 18055.00
1104.292, 18120.00
1105.389, 18195.00
1106.485, 18238.55
1107.582, 18231.00
1108.678, 18262.00
1109.775, 18379.00
1110.871, 18332.00
1111.967, 18264.00
1113.062, 18375.00
1114.158, 18428.00
1115.254, 18293.00
1116.349, 18444.00
1117.444, 18417.00
1118.539, 18405.00
1119.634, 18528.00
1120.728, 18631.00
1121.823, 18679.05
1122.917, 18770.62
1124.011, 18846.00
1125.105, 18842.00
1126.199, 18950.00
1127.293, 18872.00
1128.386, 18812.00
1129.480, 18927.00
1130.573, 18952.00
1131.666, 18939.00
1132.759, 19117.00
1133.851, 19221.00
1134.944, 19213.00
1136.036, 19200.00
1137.129, 19331.00
1138.221, 19282.00
1139.313, 19249.99
1140.404, 19312.59
1141.496, 19360.84
1142.587, 19395.41
1143.678, 19378.54
1144.770, 19425.74
1145.860, 19445.77
1146.951, 19463.72
1148.042, 19516.95
1149.132, 19502.20
1150.223, 19552.77
1151.313, 19575.81
1152.403, 19609.93
1153.492, 19616.75
1154.582, 19630.67
1155.671, 19669.78
1156.761, 19625.25
1157.850, 19622.05
1158.939, 19596.15
1160.028, 19479.53
1161.116, 19480.08
1162.205, 19433.66
1163.293, 19385.34
1164.381, 19402.38
1165.469, 19298.98
1166.557, 19314.99
1167.645, 19283.33
1168.732, 19273.52
1169.820, 19216.45
1170.907, 19173.99
1171.994, 19178.78
1173.081, 19040.00
1174.167, 19207.00
1175.254, 19057.00
1176.340, 18889.00
1177.426, 19203.00
1178.512, 19059.00
1179.598, 18916.00
1180.684, 18850.00
1181.770, 18874.00
1182.855, 18783.00
1183.940, 18806.00
1185.025, 18619.00
1186.110, 18632.00
1187.195, 18447.00
1188.280, 18561.00
1189.364, 18452.00
1190.448, 18524.00
1191.532, 18485.00
1192.616, 18277.00
1193.700, 18378.00
1194.784, 18234.00
1195.867, 18236.00
1196.950, 18201.00
1198.034, 18134.00
1199.117, 18184.00
1200.199, 18100.00
1201.282, 18064.83
1202.364, 17892.00
1203.447, 17942.00
1204.529, 17913.00
1205.611, 17833.00
1206.693, 17820.00
1207.774, 17955.00
1208.856, 17669.00
1209.937, 17819.00
1211.018, 17619.00
1212.099, 17702.00
1213.180, 17751.00
1214.261, 17740.00
1215.341, 17727.82
1216.422, 17576.00
1217.502, 17660.00
1218.582, 17597.00
1219.662, 17646.00
1220.742, 17692.00
1221.821, 17677.00
1222.900, 17758.00
1223.980, 17576.00
1225.059, 17440.00
1226.138, 17489.00
1227.216, 17569.00
1228.295, 17647.00
1229.373, 17705.00
1230.452, 17677.00
1231.530, 17685.00
1232.608, 17704.37
1233.685, 17693.46
1234.763, 17719.00
1235.840, 17697.00
1236.918, 17690.00
1237.995, 17686.00
1239.072, 17634.00
1240.149, 17591.00
1241.225, 17552.00
1242.302, 17581.00
1243.378, 17653.00
1244.454, 17648.00
1245.530, 17703.00
1246.606, 17763.00
1247.681, 17695.00
1248.757, 17809.00
1249.832, 17761.99
1250.907, 17565.00
1251.982, 17735.00
1253.057, 17633.00
1254.132, 17639.00
1255.206, 17811.00
1256.281, 17686.00
1257.355, 17794.00
1258.429, 17711.00
1259.503, 17953.00
1260.576, 17755.00
1261.650, 17805.00
1262.723, 17891.00
1263.797, 17668.00
1264.870, 17980.00
1265.942, 17911.00
1267.015, 17799.00
1268.088, 17944.00
1269.160, 17830.00
1270.232, 17715.00
1271.304, 17885.00
1272.376, 17684.00
1273.448, 17977.00
1274.520, 17877.00
1275.591, 17696.00
1276.662, 17780.00
1277.733, 18014.00
1278.804, 17915.00
1279.875, 17933.00
1280.946, 17890.00
1282.016, 17880.00
1283.086, 17856.00
1284.156, 17845.00
1285.226, 17773.00
1286.296, 17974.00
1287.366, 17939.00
1288.435, 17924.00
1289.505, 17891.00
1290.574, 17931.47
1291.643, 17980.00
1292.711, 17996.00
1293.780, 18008.00
1294.849, 17972.00
1295.917, 18022.50
1296.985, 18196.00
1298.053, 18138.00
1299.121, 18154.00
1300.189, 18302.00
1301.256, 18211.00
1302.323, 18161.00
1303.391, 18245.00
1304.458, 18190.00
1305.524, 18320.00
1306.591, 18314.00
1307.658, 18252.00
1308.724, 18336.00
1309.790, 18439.00
1310.856, 18133.00
1311.922, 18208.00
1312.988, 18286.00
1314.053, 18233.00
1315.119, 18402.00
1316.184, 18284.00
1317.249, 18369.00
1318.314, 18299.00
1319.379, 18389.00
1320.443, 18390.00
1321.508, 18429.00
1322.572, 18520.00
1323.636, 18355.00
1324.700, 18482.00
1325.764, 18284.00
1326.827, 18409.00
1327.891, 18382.00
1328.954, 18530.00
1330.017, 18493.27
1331.080, 18477.00
1332.143, 18469.00
1333.205, 18456.00
1334.268, 18495.00
1335.330, 18432.00
1336.392, 18388.00
1337.454, 18455.00
1338.516, 18348.00
1339.578, 18501.00
1340.639, 18278.00
1341.701, 18400.00
1342.762, 18599.00
1343.823, 18461.00
1344.883, 18526.00
1345.944, 18470.00
1347.005, 18470.00
1348.065, 18542.00
1349.125, 18493.00
1350.185, 18549.00
1351.245, 18566.44
1352.305, 18389.00
1353.364, 18614.00
1354.424, 18458.00
1355.483, 18464.00
1356.542, 18501.00
1357.601, 18657.00
1358.659, 18671.00
1359.718, 18517.00
1360.776, 18478.00
1361.834, 18471.00
1362.893, 18426.30
1363.950, 18455.00
1365.008, 18470.00
1366.066, 18605.00
1367.123, 18711.00
1368.180, 18502.00
1369.237, 18570.00
1370.294, 18750.00
1371.351, 18606.00
1372.408, 18685.00
1373.464, 18439.00
1374.520, 18712.00
1375.576, 18577.00
1376.632, 18724.00
1377.688, 18770.00
1378.744, 18759.00
1379.799, 18802.00
1380.854, 18848.00
1381.910, 18690.00
1382.965, 18759.00
1384.019, 18698.00
1385.074, 18781.00
1386.128, 18776.00
1387.183, 18597.00
1388.237, 18824.00
1389.291, 18890.00
1390.345, 18687.00
1391.398, 18597.00
1392.452, 18822.00
1393.505, 18836.00
1394.558, 18480.00
1395.611, 18705.00
1396.664, 18709.00
1397.717, 18787.00
1398.769, 18810.00
1399.822, 18822.70
1400.874, 18845.55
1401.926, 18832.00
1402.978, 18852.00
1404.029, 18840.00
1405.081, 18853.00
1406.132, 18958.00
1407.183, 18818.00
1408.234, 18781.00
1409.285, 18674.00
1410.336, 18928.00
1411.387, 18988.00
1412.437, 19000.00
1413.487, 18761.00
1414.537, 19064.00
1415.587, 18861.00
1416.637, 19082.00
1417.686, 18954.00
1418.736, 19073.00
1419.785, 19010.00
1420.834, 18763.00
1421.883, 18929.00
1422.932, 19098.00
1423.980, 19022.00
1425.029, 19191.00
1426.077, 19017.00
1427.125, 19034.00
1428.173, 18972.00
1429.221, 18905.00
1430.269, 19054.00
1431.316, 19147.00
1432.363, 19056.00
1433.410, 19182.00
1434.457, 19237.00
1435.504, 19125.00
1436.551, 19236.00
1437.597, 19315.00
1438.644, 19109.00
1439.690, 19173.00
1440.736, 19103.00
1441.781, 19384.00
1442.827, 19482.00
1443.873, 19287.00
1444.918, 19165.00
1445.963, 19223.00
1447.008, 19214.00
1448.053, 19296.00
1449.098, 19395.00
1450.142, 19205.00
1451.186, 19363.00
1452.231, 19207.00
1453.275, 19529.00
1454.319, 19474.00
1455.362, 19300.00
1456.406, 19345.00
1457.449, 19415.00
1458.492, 19319.00
1459.535, 19434.00
1460.578, 19464.00
1461.621, 19316.00
1462.663, 19315.00
1463.706, 19407.00
1464.748, 19556.00
1465.790, 19564.00
1466.832, 19645.87
1467.874, 19610.20
1468.915, 19595.77
1469.957, 19499.00
1470.998, 19498.00
1472.039, 19470.00
1473.080, 19408.00
1474.121, 19421.00
1475.161, 19595.00
1476.202, 19638.00
1477.242, 19576.00
1478.282, 19299.00
1479.322, 19398.00
1480.362, 19517.00
1481.401, 19400.00
1482.441, 19587.00
1483.480, 19506.00
1484.519, 19496.00
1485.558, 19382.00
1486.597, 19544.00
1487.636, 19635.00
1488.674, 19509.00
1489.712, 19675.00
1490.751, 19714.00
1491.788, 19638.00
1492.826, 19609.00
1493.864, 19552.00
1494.901, 19720.00
1495.939, 19624.00
1496.976, 19815.00
1498.013, 19769.00
1499.050, 19734.00
1500.086, 19636.00
1501.123, 19668.00
1502.159, 19680.00
1503.195, 19743.00
1504.231, 19694.00
1505.267, 19724.00
1506.303, 19799.00
1507.338, 19768.34
1508.374, 19630.00
1509.409, 19713.00
1510.444, 19849.00
1511.479, 19694.00
1512.514, 19705.00
1513.548, 19964.00
1514.583, 19768.00
1515.617, 19719.00
1516.651, 19694.00
1517.685, 19857.00
1518.718, 19722.00
1519.752, 19869.00
1520.785, 19763.00
1521.819, 19930.00
1522.852, 19811.00
1523.885, 19983.00
1524.917, 19998.00
1525.950, 19941.00
1526.982, 19819.00
1528.015, 20015.00
1529.047, 19937.00
1530.079, 19882.00
1531.110, 19677.00
1532.142, 19908.00
1533.173, 20127.00
1534.205, 20038.00
1535.236, 20180.00
1536.267, 20199.00
1537.298, 19990.00
1538.328, 20073.00
1539.359, 19973.00
1540.389, 19859.00
1541.419, 19975.00
1542.449, 20038.00
1543.479, 20041.00
1544.508, 20104.00
1545.538, 20042.00
1546.567, 20046.00
1547.596, 20023.00
1548.625, 20031.00
1549.654, 20151.00
1550.683, 20080.00
1551.711, 20029.00
1552.740, 20265.00
1553.768, 20216.00
1554.796, 20133.00
1555.824, 20168.00
1556.851, 20009.00
1557.879, 20273.00
1558.906, 20083.00
1559.933, 20137.00
1560.960, 20057.00
1561.987, 20299.00
1563.014, 20293.00
##END=



