##NAMES=Clinoptilolite-Na
##RRUFFID=R061099
##IDEAL CHEMISTRY=Na_6_(Si_30_Al_6_)O_72_&#183;20H_2_O
##LOCALITY=Richardson Ranch, Madras, Jefferson County, Oregon, USA
##OWNER=RRUFF
##SOURCE=Michael Scott
##DESCRIPTION=Red-brown to salmon, somewhat coffin shaped tabular crystals in a fragmented geode
##STATUS=The identification of this mineral has been confirmed by X-ray diffraction and chemical analysis
##URL=rruff.info/R061099
##MEASURED CHEMISTRY=(Na_2.70_Ca_1.46_K_0.89_Fe_0.08_Mg_0.02_)_Σ=5.15_(Si_29.29_Al_6.71_)O_72_·18.51H_2_O
##PIN_ID=M01022
##ORIENTATION=Laser parallel to a* (1 0 0). Fiducial mark perpendicular to laser is parallel to b [0 1 0]
91.83800, 2762.000
93.07300, 3357.000
94.30700, 3830.000
95.54100, 4483.000
96.77500, 5245.000
98.00900, 5919.000
99.24300, 6687.003
100.4770, 7449.000
101.7100, 8248.000
102.9440, 8966.000
104.1770, 9776.000
105.4100, 10571.00
106.6430, 11380.00
107.8750, 12344.00
109.1080, 12946.87
110.3400, 13939.00
111.5720, 14251.00
112.8040, 14667.00
114.0360, 15357.00
115.2680, 16043.00
116.5000, 16514.00
117.7310, 16653.00
118.9620, 16889.00
120.1940, 16999.65
121.4250, 17087.00
122.6550, 17020.00
123.8860, 16917.00
125.1170, 16821.00
126.3470, 16468.00
127.5770, 16256.00
128.8070, 15754.00
130.0370, 15460.00
131.2670, 15300.00
132.4970, 15010.00
133.7260, 14563.00
134.9550, 14564.00
136.1850, 14348.00
137.4140, 14328.00
138.6420, 14240.00
139.8710, 14372.00
141.1000, 14168.00
142.3280, 14162.00
143.5560, 14274.00
144.7840, 14217.00
146.0120, 14093.00
147.2400, 14042.00
148.4680, 14035.00
149.6950, 13684.00
150.9220, 13701.00
152.1500, 13467.00
153.3770, 13479.00
154.6030, 13243.00
155.8300, 13092.00
157.0570, 12726.00
158.2830, 12742.00
159.5090, 12432.00
160.7350, 12182.00
161.9610, 11867.00
163.1870, 11718.00
164.4130, 11472.90
165.6380, 11345.00
166.8630, 11106.00
168.0880, 10929.00
169.3130, 10803.00
170.5380, 10522.00
171.7630, 10559.00
172.9870, 10441.00
174.2120, 10198.00
175.4360, 9877.000
176.6600, 9722.000
177.8840, 9637.000
179.1080, 9561.000
180.3310, 9590.000
181.5550, 9450.000
182.7780, 9225.000
184.0010, 9040.000
185.2240, 9141.000
186.4470, 9108.000
187.6700, 9024.000
188.8920, 8956.000
190.1150, 8844.000
191.3370, 8780.000
192.5590, 8927.000
193.7810, 8846.000
195.0020, 8760.000
196.2240, 8730.000
197.4450, 8650.544
198.6670, 8594.000
199.8880, 8563.000
201.1090, 8576.000
202.3300, 8486.466
203.5500, 8428.000
204.7710, 8340.000
205.9910, 8256.590
207.2110, 8136.966
208.4310, 8087.000
209.6510, 8009.000
210.8710, 7935.000
212.0910, 7868.000
213.3100, 7930.000
214.5290, 7839.000
215.7480, 7878.000
216.9670, 7852.000
218.1860, 7748.000
219.4050, 7825.000
220.6230, 7757.000
221.8420, 7840.000
223.0600, 7781.000
224.2780, 7937.000
225.4960, 7873.000
226.7130, 8034.000
227.9310, 7964.000
229.1480, 7978.000
230.3660, 8016.000
231.5830, 8211.000
232.8000, 8082.000
234.0160, 8159.000
235.2330, 8087.000
236.4490, 8342.000
237.6660, 8278.000
238.8820, 8575.000
240.0980, 8613.000
241.3140, 8678.000
242.5300, 8789.000
243.7450, 8943.000
244.9600, 9055.000
246.1760, 9138.000
247.3910, 9261.000
248.6060, 9314.000
249.8200, 9448.000
251.0350, 9551.000
252.2500, 9783.000
253.4640, 9775.000
254.6780, 9995.000
255.8920, 10017.00
257.1060, 10125.00
258.3190, 10317.00
259.5330, 10520.00
260.7460, 10392.00
261.9600, 10441.00
263.1730, 10242.00
264.3850, 10254.00
265.5980, 10223.00
266.8110, 10207.00
268.0230, 10322.00
269.2360, 10251.00
270.4480, 10285.00
271.6600, 10167.00
272.8710, 10130.00
274.0830, 10258.00
275.2950, 10101.00
276.5060, 10179.00
277.7170, 10115.00
278.9280, 10128.00
280.1390, 10073.00
281.3500, 10199.00
282.5600, 10201.00
283.7710, 10273.00
284.9810, 10265.00
286.1910, 10279.00
287.4010, 10302.00
288.6110, 10188.00
289.8200, 10416.00
291.0300, 10263.00
292.2390, 10471.00
293.4480, 10245.00
294.6570, 10279.00
295.8660, 10201.00
297.0750, 10388.00
298.2830, 10259.00
299.4920, 10248.00
300.7000, 10254.00
301.9080, 10342.00
303.1160, 10310.00
304.3240, 10354.87
305.5310, 10403.00
306.7390, 10426.00
307.9460, 10446.00
309.1530, 10538.00
310.3600, 10537.00
311.5670, 10673.00
312.7740, 10915.00
313.9800, 11037.00
315.1870, 11158.00
316.3930, 11285.00
317.5990, 11367.00
318.8050, 11594.00
320.0110, 11713.00
321.2160, 12049.00
322.4220, 12004.00
323.6270, 12164.00
324.8320, 12281.00
326.0370, 12318.00
327.2420, 12449.26
328.4460, 12517.00
329.6510, 12632.00
330.8550, 12580.00
332.0590, 12669.00
333.2630, 12700.00
334.4670, 12676.00
335.6710, 12698.00
336.8740, 12627.00
338.0780, 12820.00
339.2810, 12875.00
340.4840, 12715.00
341.6870, 12833.00
342.8900, 13041.00
344.0920, 13051.00
345.2950, 13091.00
346.4970, 13261.00
347.6990, 13489.00
348.9010, 13528.00
350.1030, 13613.00
351.3050, 13967.00
352.5060, 14227.00
353.7080, 14457.00
354.9090, 14558.00
356.1100, 14992.00
357.3110, 15201.00
358.5110, 15533.00
359.7120, 15855.00
360.9120, 16241.00
362.1130, 16584.00
363.3130, 16803.00
364.5130, 17370.00
365.7120, 17509.00
366.9120, 17945.00
368.1120, 18496.00
369.3110, 18811.00
370.5100, 19205.00
371.7090, 19644.00
372.9080, 20057.51
374.1070, 20548.29
375.3050, 21006.00
376.5040, 21552.00
377.7020, 22099.00
378.9000, 22600.00
380.0980, 23277.00
381.2950, 23725.00
382.4930, 24643.00
383.6910, 25365.76
384.8880, 26125.00
386.0850, 27143.00
387.2820, 28282.00
388.4790, 29338.00
389.6750, 30922.00
390.8720, 32193.00
392.0680, 33763.00
393.2640, 35450.00
394.4600, 36967.00
395.6560, 38609.00
396.8520, 40250.00
398.0480, 42097.00
399.2430, 43711.00
400.4380, 44910.00
401.6330, 45859.00
402.8280, 46495.43
404.0230, 46870.91
405.2180, 46881.00
406.4120, 46655.00
407.6060, 46194.00
408.8000, 45131.00
409.9940, 43794.00
411.1880, 41981.00
412.3820, 40333.00
413.5750, 38694.00
414.7690, 36880.00
415.9620, 35093.00
417.1550, 33443.98
418.3480, 31705.00
419.5410, 30132.00
420.7330, 28317.00
421.9260, 26737.00
423.1180, 25254.00
424.3100, 23556.00
425.5020, 22135.00
426.6940, 21010.00
427.8850, 19748.00
429.0770, 18730.00
430.2680, 17553.00
431.4590, 16749.00
432.6500, 16126.00
433.8410, 15392.00
435.0320, 14899.00
436.2220, 14256.00
437.4130, 13717.00
438.6030, 13475.00
439.7930, 13120.00
440.9830, 12805.00
442.1730, 12694.00
443.3620, 12530.00
444.5520, 12630.00
445.7410, 12539.00
446.9300, 12486.00
448.1190, 12526.00
449.3080, 12932.00
450.4960, 13190.00
451.6850, 13595.00
452.8730, 13911.00
454.0610, 14532.00
455.2490, 15002.00
456.4370, 15538.00
457.6250, 16380.00
458.8130, 17202.00
460.0000, 17918.00
461.1870, 18787.00
462.3740, 19542.00
463.5610, 20274.00
464.7480, 21272.00
465.9340, 21598.00
467.1210, 22382.00
468.3070, 22766.00
469.4930, 23092.00
470.6790, 23754.00
471.8650, 24309.00
473.0510, 25037.00
474.2360, 25788.00
475.4210, 26747.00
476.6070, 27711.00
477.7920, 28849.00
478.9770, 29843.00
480.1610, 30583.00
481.3460, 30939.00
482.5300, 31453.00
483.7140, 31217.00
484.8980, 30584.00
486.0820, 29577.00
487.2660, 28167.00
488.4500, 26548.00
489.6330, 24655.00
490.8160, 22560.00
492.0000, 20916.00
493.1830, 19033.00
494.3650, 17294.00
495.5480, 15825.00
496.7300, 14658.00
497.9130, 13183.00
499.0950, 12499.00
500.2770, 11619.00
501.4590, 10966.00
502.6410, 10536.00
503.8220, 10028.00
505.0030, 9517.000
506.1850, 9327.000
507.3660, 8885.000
508.5470, 8639.000
509.7270, 8530.000
510.9080, 8250.000
512.0880, 8081.000
513.2690, 7883.000
514.4490, 7881.000
515.6290, 7668.000
516.8090, 7548.000
517.9880, 7598.000
519.1680, 7526.000
520.3470, 7366.000
521.5260, 7282.000
522.7050, 7172.000
523.8840, 7237.000
525.0630, 7164.000
526.2410, 7185.000
527.4200, 7028.000
528.5980, 7006.000
529.7760, 6899.000
530.9540, 6986.000
532.1320, 6815.000
533.3090, 6759.000
534.4870, 6684.000
535.6640, 6770.000
536.8410, 6621.000
538.0180, 6670.000
539.1950, 6616.000
540.3710, 6599.000
541.5480, 6644.000
542.7240, 6540.000
543.9000, 6566.000
545.0760, 6608.000
546.2520, 6436.000
547.4280, 6501.000
548.6040, 6502.000
549.7790, 6517.000
550.9540, 6407.000
552.1290, 6508.000
553.3040, 6364.000
554.4790, 6459.000
555.6530, 6417.000
556.8280, 6405.000
558.0020, 6499.000
559.1760, 6449.000
560.3500, 6406.000
561.5240, 6429.000
562.6980, 6402.000
563.8710, 6369.000
565.0440, 6514.000
566.2170, 6324.000
567.3900, 6404.000
568.5630, 6558.000
569.7360, 6473.000
570.9090, 6480.000
572.0810, 6404.000
573.2530, 6487.000
574.4250, 6512.000
575.5970, 6626.000
576.7690, 6522.000
577.9400, 6530.000
579.1120, 6550.000
580.2830, 6651.000
581.4540, 6665.000
582.6250, 6760.000
583.7960, 6702.000
584.9660, 6728.000
586.1370, 6780.000
587.3070, 6968.000
588.4770, 6990.000
589.6470, 7142.000
590.8170, 7185.135
591.9870, 7239.386
593.1560, 7273.000
594.3260, 7361.000
595.4950, 7432.000
596.6640, 7563.000
597.8330, 7746.000
599.0010, 7968.000
600.1700, 8107.000
601.3380, 8312.000
602.5070, 8420.000
603.6750, 8750.000
604.8430, 8935.000
606.0100, 9162.000
607.1780, 9495.000
608.3450, 9732.000
609.5130, 10008.00
610.6800, 10159.00
611.8470, 10546.00
613.0140, 10726.00
614.1800, 10920.00
615.3470, 10899.00
616.5130, 10865.00
617.6790, 10805.00
618.8450, 10717.26
620.0110, 10572.29
621.1770, 10470.00
622.3420, 10201.00
623.5080, 9999.000
624.6730, 9764.000
625.8380, 9434.000
627.0030, 9187.000
628.1680, 8907.271
629.3320, 8739.000
630.4970, 8415.000
631.6610, 8229.000
632.8250, 8111.000
633.9890, 7956.000
635.1530, 7674.000
636.3160, 7686.000
637.4800, 7437.000
638.6430, 7262.000
639.8060, 7163.000
640.9690, 7266.000
642.1320, 7103.000
643.2950, 6961.000
644.4570, 6885.000
645.6200, 6782.000
646.7820, 6852.000
647.9440, 6778.000
649.1060, 6802.000
650.2670, 6769.000
651.4290, 6607.000
652.5900, 6648.000
653.7520, 6631.000
654.9130, 6612.000
656.0740, 6642.000
657.2340, 6583.272
658.3950, 6477.000
659.5550, 6481.000
660.7160, 6398.000
661.8760, 6323.000
663.0360, 6377.000
664.1960, 6356.000
665.3550, 6374.000
666.5150, 6372.145
667.6740, 6353.663
668.8330, 6342.000
669.9920, 6306.000
671.1510, 6267.000
672.3100, 6214.000
673.4680, 6176.000
674.6270, 6162.000
675.7850, 6219.000
676.9430, 6171.467
678.1010, 6179.000
679.2590, 6149.000
680.4160, 6148.000
681.5740, 6165.000
682.7310, 6287.000
683.8880, 6150.000
685.0450, 6156.000
686.2020, 6233.000
687.3580, 6103.000
688.5150, 6188.000
689.6710, 6159.000
690.8270, 6174.000
691.9830, 6124.000
693.1390, 6144.000
694.2950, 6127.000
695.4500, 6151.000
696.6050, 6171.000
697.7610, 6119.000
698.9160, 6157.000
700.0710, 6216.000
701.2250, 6229.000
702.3800, 6126.000
703.5340, 6163.000
704.6880, 6141.000
705.8420, 6090.000
706.9960, 6147.000
708.1500, 6158.000
709.3040, 6204.000
710.4570, 6142.000
711.6100, 6166.880
712.7640, 6079.000
713.9160, 6136.000
715.0690, 6112.000
716.2220, 6055.000
717.3740, 6149.000
718.5270, 6161.000
719.6790, 6064.000
720.8310, 6117.000
721.9830, 6107.000
723.1340, 6044.000
724.2860, 6031.000
725.4370, 6069.000
726.5880, 6071.000
727.7390, 6086.754
728.8900, 6116.000
730.0410, 6101.000
731.1910, 6136.000
732.3420, 6104.000
733.4920, 6078.000
734.6420, 6027.000
735.7920, 5978.000
736.9420, 6008.000
738.0910, 5993.000
739.2410, 5924.000
740.3900, 6047.000
741.5390, 6068.000
742.6880, 5973.000
743.8370, 5918.000
744.9860, 6028.000
746.1340, 6080.000
747.2820, 6049.000
748.4310, 6058.000
749.5790, 6060.000
750.7260, 6008.000
751.8740, 6053.000
753.0220, 6145.000
754.1690, 6138.000
755.3160, 6155.000
756.4630, 6127.000
757.6100, 6085.000
758.7570, 6164.000
759.9030, 6227.000
761.0500, 6145.000
762.1960, 6313.000
763.3420, 6256.000
764.4880, 6170.000
765.6340, 6254.000
766.7790, 6329.000
767.9250, 6250.000
769.0700, 6269.000
770.2150, 6410.000
771.3600, 6318.000
772.5050, 6445.000
773.6490, 6523.000
774.7940, 6431.000
775.9380, 6413.000
777.0820, 6450.000
778.2260, 6422.000
779.3700, 6478.000
780.5140, 6599.000
781.6570, 6449.000
782.8010, 6436.000
783.9440, 6370.000
785.0870, 6478.000
786.2300, 6440.000
787.3720, 6353.000
788.5150, 6410.000
789.6570, 6308.000
790.8000, 6283.000
791.9420, 6189.000
793.0840, 6210.000
794.2250, 6128.000
795.3670, 6137.000
796.5080, 6071.000
797.6500, 6123.000
798.7910, 5973.000
799.9320, 6012.000
801.0720, 5988.000
802.2130, 5916.000
803.3530, 5858.000
804.4940, 5879.000
805.6340, 5835.000
806.7740, 5787.000
807.9140, 5847.000
809.0530, 5717.000
810.1930, 5804.000
811.3320, 5755.000
812.4710, 5766.000
813.6100, 5805.000
814.7490, 5802.000
815.8880, 5815.000
817.0270, 5797.000
818.1650, 5808.000
819.3030, 5734.000
820.4410, 5798.000
821.5790, 5760.000
822.7170, 5709.000
823.8540, 5798.000
824.9920, 5708.000
826.1290, 5608.000
827.2660, 5594.000
828.4030, 5636.000
829.5400, 5544.000
830.6760, 5606.000
831.8130, 5544.000
832.9490, 5635.000
834.0850, 5597.000
835.2210, 5592.000
836.3570, 5606.000
837.4930, 5537.000
838.6280, 5556.000
839.7640, 5564.000
840.8990, 5557.000
842.0340, 5540.000
843.1690, 5539.000
844.3030, 5556.000
845.4380, 5545.000
846.5720, 5510.000
847.7060, 5603.000
848.8400, 5575.000
849.9740, 5600.000
851.1080, 5534.000
852.2420, 5491.000
853.3750, 5569.000
854.5080, 5601.000
855.6410, 5625.000
856.7740, 5579.000
857.9070, 5613.000
859.0400, 5574.000
860.1720, 5566.000
861.3040, 5581.000
862.4360, 5601.000
863.5680, 5653.000
864.7000, 5548.000
865.8320, 5548.000
866.9630, 5509.000
868.0950, 5534.000
869.2260, 5462.000
870.3570, 5497.000
871.4880, 5542.000
872.6180, 5555.000
873.7490, 5506.000
874.8790, 5579.000
876.0090, 5500.000
877.1390, 5542.000
878.2690, 5534.000
879.3990, 5450.000
880.5280, 5561.000
881.6580, 5469.000
882.7870, 5506.000
883.9160, 5481.000
885.0450, 5517.000
886.1740, 5461.000
887.3020, 5432.000
888.4310, 5473.000
889.5590, 5515.000
890.6870, 5538.000
891.8150, 5458.000
892.9430, 5599.000
894.0700, 5610.000
895.1980, 5468.000
896.3250, 5529.000
897.4520, 5538.000
898.5790, 5572.000
899.7060, 5566.000
900.8330, 5603.000
901.9590, 5518.000
903.0850, 5491.000
904.2120, 5513.000
905.3380, 5570.000
906.4630, 5588.000
907.5890, 5526.000
908.7150, 5590.000
909.8400, 5595.000
910.9650, 5665.000
912.0900, 5638.994
913.2150, 5570.000
914.3400, 5600.000
915.4640, 5558.000
916.5890, 5563.000
917.7130, 5503.000
918.8370, 5593.000
919.9610, 5588.000
921.0850, 5632.000
922.2080, 5613.000
923.3320, 5553.000
924.4550, 5622.000
925.5780, 5515.000
926.7010, 5594.000
927.8240, 5633.000
928.9460, 5666.000
930.0690, 5706.000
931.1910, 5724.000
932.3130, 5634.000
933.4350, 5692.000
934.5570, 5738.000
935.6790, 5725.000
936.8000, 5786.000
937.9220, 5668.000
939.0430, 5840.000
940.1640, 5801.000
941.2850, 5757.000
942.4050, 5833.000
943.5260, 5836.000
944.6460, 5746.000
945.7660, 5886.000
946.8860, 5874.000
948.0060, 5891.000
949.1260, 5947.000
950.2460, 5935.000
951.3650, 5923.000
952.4840, 5944.000
953.6030, 5999.000
954.7220, 5997.000
955.8410, 6063.000
956.9590, 5991.000
958.0780, 6121.000
959.1960, 6011.000
960.3140, 6185.000
961.4320, 6103.000
962.5500, 6120.000
963.6680, 6115.000
964.7850, 6073.000
965.9020, 6159.000
967.0190, 6178.000
968.1360, 6283.000
969.2530, 6251.000
970.3700, 6263.000
971.4860, 6396.000
972.6030, 6314.000
973.7190, 6359.000
974.8350, 6334.000
975.9510, 6402.000
977.0660, 6377.000
978.1820, 6389.000
979.2970, 6410.000
980.4130, 6459.000
981.5280, 6364.000
982.6420, 6386.000
983.7570, 6453.000
984.8720, 6572.000
985.9860, 6525.000
987.1000, 6504.000
988.2140, 6478.000
989.3280, 6552.000
990.4420, 6383.000
991.5560, 6530.000
992.6690, 6476.000
993.7820, 6498.000
994.8950, 6659.000
996.0080, 6570.000
997.1210, 6574.000
998.2340, 6669.000
999.3460, 6697.000
1000.458, 6731.944
1001.571, 6783.000
1002.683, 6797.000
1003.794, 6747.000
1004.906, 6771.000
1006.017, 6648.000
1007.129, 6624.000
1008.240, 6689.000
1009.351, 6635.000
1010.462, 6704.000
1011.572, 6650.000
1012.683, 6671.000
1013.793, 6739.000
1014.904, 6733.000
1016.014, 6721.000
1017.123, 6749.000
1018.233, 6807.000
1019.343, 6751.000
1020.452, 6834.000
1021.561, 6854.000
1022.670, 6790.000
1023.779, 6806.000
1024.888, 6840.000
1025.997, 6911.000
1027.105, 6918.000
1028.213, 6961.000
1029.321, 6961.000
1030.429, 6816.000
1031.537, 6940.000
1032.645, 6859.000
1033.752, 6945.000
1034.859, 6978.000
1035.966, 7004.000
1037.073, 6921.000
1038.180, 7017.000
1039.287, 6958.000
1040.393, 6911.000
1041.500, 7004.000
1042.606, 6918.000
1043.712, 6950.000
1044.818, 6962.000
1045.923, 7019.000
1047.029, 6939.000
1048.134, 6862.000
1049.239, 6926.000
1050.344, 6923.000
1051.449, 6912.000
1052.554, 6993.000
1053.658, 6828.000
1054.763, 7010.000
1055.867, 7020.000
1056.971, 6912.000
1058.075, 6968.000
1059.179, 6952.000
1060.282, 7006.000
1061.385, 6999.887
1062.489, 6995.350
1063.592, 6991.000
1064.695, 6974.000
1065.797, 6962.000
1066.900, 6952.000
1068.002, 6992.000
1069.105, 7070.000
1070.207, 7034.000
1071.309, 7056.000
1072.411, 7091.000
1073.512, 7034.000
1074.614, 7074.000
1075.715, 7116.000
1076.816, 7062.000
1077.917, 7212.000
1079.018, 7274.000
1080.118, 7271.000
1081.219, 7380.000
1082.319, 7402.000
1083.419, 7486.000
1084.519, 7455.000
1085.619, 7420.000
1086.719, 7667.000
1087.818, 7769.000
1088.918, 7723.000
1090.017, 7801.000
1091.116, 7830.000
1092.215, 7939.000
1093.314, 8089.000
1094.412, 8149.000
1095.510, 8167.000
1096.609, 8193.000
1097.707, 8266.000
1098.805, 8357.000
1099.902, 8454.000
1101.000, 8552.844
1102.097, 8639.913
1103.195, 8731.221
1104.292, 8840.000
1105.389, 8899.000
1106.485, 8978.381
1107.582, 9050.000
1108.678, 9100.000
1109.775, 9177.000
1110.871, 9244.000
1111.967, 9380.000
1113.062, 9333.000
1114.158, 9528.000
1115.254, 9523.000
1116.349, 9618.000
1117.444, 9654.000
1118.539, 9741.000
1119.634, 9775.000
1120.728, 9878.000
1121.823, 9999.000
1122.917, 9928.000
1124.011, 10121.00
1125.105, 10191.00
1126.199, 10068.00
1127.293, 10202.00
1128.386, 10288.00
1129.480, 10333.00
1130.573, 10492.00
1131.666, 10350.00
1132.759, 10455.00
1133.851, 10542.00
1134.944, 10670.00
1136.036, 10644.00
1137.129, 10736.00
1138.221, 10771.00
1139.313, 10760.00
1140.404, 10810.21
1141.496, 10836.55
1142.587, 10855.00
1143.678, 10915.00
1144.770, 10968.00
1145.860, 11012.00
1146.951, 11023.32
1148.042, 11033.00
1149.132, 11050.00
1150.223, 11076.00
1151.313, 11147.00
1152.403, 10990.00
1153.492, 10974.00
1154.582, 10973.00
1155.671, 11012.00
1156.761, 10920.00
1157.850, 10850.00
1158.939, 10829.00
1160.028, 10728.00
1161.116, 10745.00
1162.205, 10609.00
1163.293, 10675.00
1164.381, 10583.43
1165.469, 10549.00
1166.557, 10435.00
1167.645, 10322.00
1168.732, 10192.00
1169.820, 10048.00
1170.907, 10001.00
1171.994, 9959.000
1173.081, 9833.000
1174.167, 9878.000
1175.254, 9660.000
1176.340, 9672.000
1177.426, 9431.000
1178.512, 9426.000
1179.598, 9291.000
1180.684, 9236.000
1181.770, 9165.000
1182.855, 9020.000
1183.940, 9032.000
1185.025, 8890.000
1186.110, 8900.000
1187.195, 8743.000
1188.280, 8573.000
1189.364, 8527.000
1190.448, 8387.000
1191.532, 8334.000
1192.616, 8237.000
1193.700, 8076.000
1194.784, 7907.000
1195.867, 7943.000
1196.950, 7764.000
1198.034, 7741.000
1199.117, 7646.000
1200.199, 7501.000
1201.282, 7432.000
1202.364, 7393.000
1203.447, 7205.000
1204.529, 7221.000
1205.611, 7145.000
1206.693, 7066.000
1207.774, 7017.000
1208.856, 6946.172
1209.937, 7044.000
1211.018, 6827.000
1212.099, 6852.000
1213.180, 6800.000
1214.261, 6693.000
1215.341, 6682.000
1216.422, 6674.000
1217.502, 6657.000
1218.582, 6581.000
1219.662, 6615.000
1220.742, 6525.000
1221.821, 6499.000
1222.900, 6460.000
1223.980, 6385.000
1225.059, 6488.000
1226.138, 6368.000
1227.216, 6379.000
1228.295, 6417.000
1229.373, 6362.000
1230.452, 6420.000
1231.530, 6299.000
1232.608, 6265.000
1233.685, 6358.000
1234.763, 6313.000
1235.840, 6304.000
1236.918, 6311.000
1237.995, 6302.000
1239.072, 6359.000
1240.149, 6304.000
1241.225, 6201.000
1242.302, 6325.000
1243.378, 6346.000
1244.454, 6404.000
1245.530, 6179.000
1246.606, 6282.000
1247.681, 6266.000
1248.757, 6277.000
1249.832, 6333.000
1250.907, 6221.000
1251.982, 6287.000
1253.057, 6308.000
1254.132, 6191.000
1255.206, 6264.000
1256.281, 6224.000
1257.355, 6193.000
1258.429, 6316.000
1259.503, 6408.000
1260.576, 6337.000
1261.650, 6239.000
1262.723, 6299.000
1263.797, 6260.000
1264.870, 6311.000
1265.942, 6278.000
1267.015, 6161.000
1268.088, 6354.000
1269.160, 6228.000
1270.232, 6272.000
1271.304, 6194.000
1272.376, 6262.000
1273.448, 6226.000
1274.520, 6229.000
1275.591, 6285.000
1276.662, 6318.000
1277.733, 6255.000
1278.804, 6161.000
1279.875, 6150.000
1280.946, 6243.000
1282.016, 6204.000
1283.086, 6376.000
1284.156, 6300.000
1285.226, 6297.000
1286.296, 6248.000
1287.366, 6273.000
1288.435, 6219.000
1289.505, 6298.000
1290.574, 6217.000
1291.643, 6356.000
1292.711, 6361.000
1293.780, 6361.000
1294.849, 6239.000
1295.917, 6370.000
1296.985, 6293.000
1298.053, 6308.000
1299.121, 6372.000
1300.189, 6335.511
1301.256, 6364.000
1302.323, 6337.000
1303.391, 6377.000
1304.458, 6359.000
1305.524, 6223.000
1306.591, 6322.000
1307.658, 6276.000
1308.724, 6286.501
1309.790, 6355.000
1310.856, 6337.000
1311.922, 6341.000
1312.988, 6370.000
1314.053, 6382.712
1315.119, 6324.000
1316.184, 6403.000
1317.249, 6417.000
1318.314, 6339.000
1319.379, 6443.000
1320.443, 6376.000
1321.508, 6432.000
1322.572, 6400.000
1323.636, 6350.000
1324.700, 6266.000
1325.764, 6352.000
1326.827, 6456.000
1327.891, 6344.000
1328.954, 6415.000
1330.017, 6439.000
1331.080, 6389.000
1332.143, 6431.538
1333.205, 6292.000
1334.268, 6403.000
1335.330, 6384.000
1336.392, 6299.000
1337.454, 6371.000
1338.516, 6314.000
1339.578, 6355.000
1340.639, 6261.000
1341.701, 6410.000
1342.762, 6426.000
1343.823, 6338.000
1344.883, 6331.000
1345.944, 6440.000
1347.005, 6300.000
1348.065, 6291.000
1349.125, 6488.000
1350.185, 6407.000
1351.245, 6399.000
1352.305, 6454.000
1353.364, 6371.000
1354.424, 6368.000
1355.483, 6389.000
1356.542, 6394.000
1357.601, 6374.000
1358.659, 6317.000
1359.718, 6382.000
1360.776, 6400.000
1361.834, 6389.000
1362.893, 6444.000
1363.950, 6435.000
1365.008, 6400.000
1366.066, 6412.000
1367.123, 6421.000
1368.180, 6381.000
1369.237, 6466.000
1370.294, 6449.000
1371.351, 6295.000
1372.408, 6443.000
1373.464, 6427.000
1374.520, 6497.000
1375.576, 6392.000
1376.632, 6465.000
1377.688, 6450.000
1378.744, 6438.000
1379.799, 6417.000
1380.854, 6426.000
1381.910, 6401.000
1382.965, 6387.000
1384.019, 6443.000
1385.074, 6509.000
1386.128, 6478.000
1387.183, 6418.000
1388.237, 6433.000
1389.291, 6394.691
1390.345, 6528.000
1391.398, 6370.000
1392.452, 6440.000
1393.505, 6457.000
1394.558, 6404.000
1395.611, 6418.000
1396.664, 6495.000
1397.717, 6489.000
1398.769, 6426.000
1399.822, 6417.000
1400.874, 6531.000
1401.926, 6464.000
1402.978, 6536.000
1404.029, 6512.000
1405.081, 6625.000
1406.132, 6502.000
1407.183, 6386.000
1408.234, 6459.000
1409.285, 6473.000
1410.336, 6444.000
1411.387, 6596.000
1412.437, 6600.000
1413.487, 6557.000
1414.537, 6479.000
1415.587, 6497.665
1416.637, 6469.723
1417.686, 6516.000
1418.736, 6471.000
1419.785, 6525.000
1420.834, 6522.000
1421.883, 6443.000
1422.932, 6500.000
1423.980, 6451.000
1425.029, 6672.000
1426.077, 6657.000
1427.125, 6599.000
1428.173, 6497.000
1429.221, 6557.000
1430.269, 6573.000
1431.316, 6611.000
1432.363, 6622.000
1433.410, 6619.000
1434.457, 6636.459
1435.504, 6643.000
1436.551, 6637.000
1437.597, 6690.000
1438.644, 6678.000
1439.690, 6571.000
1440.736, 6715.000
1441.781, 6667.000
1442.827, 6789.000
1443.873, 6692.000
1444.918, 6761.000
1445.963, 6721.000
1447.008, 6777.000
1448.053, 6793.000
1449.098, 6832.000
1450.142, 6761.000
1451.186, 6810.000
1452.231, 6820.000
1453.275, 6722.000
1454.319, 6750.000
1455.362, 6782.000
1456.406, 6812.000
1457.449, 6830.000
1458.492, 6801.000
1459.535, 6765.000
1460.578, 6651.000
1461.621, 6888.000
1462.663, 6735.000
1463.706, 6796.000
1464.748, 6631.000
1465.790, 6769.000
1466.832, 6643.000
1467.874, 6703.000
1468.915, 6786.000
1469.957, 6662.000
1470.998, 6805.000
1472.039, 6818.000
1473.080, 6684.000
1474.121, 6740.000
1475.161, 6638.000
1476.202, 6785.000
1477.242, 6775.000
1478.282, 6711.000
1479.322, 6735.000
1480.362, 6803.000
1481.401, 6792.000
1482.441, 6767.000
1483.480, 6789.000
1484.519, 6789.000
1485.558, 6819.000
1486.597, 6733.000
1487.636, 6815.000
1488.674, 6792.000
1489.712, 6712.000
1490.751, 6797.000
1491.788, 6722.000
1492.826, 6743.000
1493.864, 6740.000
1494.901, 6791.000
1495.939, 6831.000
1496.976, 6806.000
1498.013, 6794.000
1499.050, 6736.000
1500.086, 6766.000
1501.123, 6754.359
1502.159, 6707.000
1503.195, 6796.000
1504.231, 6773.000
1505.267, 6831.000
1506.303, 6782.000
1507.338, 6799.000
1508.374, 6871.000
1509.409, 6850.000
1510.444, 6817.000
1511.479, 6896.000
1512.514, 6853.000
1513.548, 6869.000
1514.583, 6774.000
1515.617, 6848.000
1516.651, 6798.000
1517.685, 6867.000
1518.718, 6865.000
1519.752, 6809.000
1520.785, 6900.000
1521.819, 6714.000
1522.852, 6898.000
1523.885, 6851.000
1524.917, 6857.000
1525.950, 6921.000
1526.982, 6914.000
1528.015, 6911.000
1529.047, 6946.000
1530.079, 6874.000
1531.110, 6923.000
1532.142, 6862.000
1533.173, 6937.000
1534.205, 6878.000
1535.236, 7028.000
1536.267, 7034.000
1537.298, 6995.000
1538.328, 6923.000
1539.359, 7036.000
1540.389, 6952.000
1541.419, 6936.000
1542.449, 6952.000
1543.479, 6903.000
1544.508, 7041.000
1545.538, 7008.000
1546.567, 7045.000
1547.596, 7068.056
1548.625, 7008.000
1549.654, 7070.000
1550.683, 7067.000
1551.711, 7076.000
1552.740, 7020.000
1553.768, 7027.000
1554.796, 7006.000
1555.824, 7012.720
1556.851, 6989.000
1557.879, 7043.000
1558.906, 7063.000
1559.933, 7069.000
1560.960, 7083.000
1561.987, 7197.000
1563.014, 7108.000
##END=



